Data from USB4F104151__169__13-58-52-032.txt Node

Date: Thu Mar 13 13:58:52 EDT 2025
User: louis
Spectrometer: USB4F10415
Trigger mode: 4
Integration Time (sec): 1.000000E-2
Scans to average: 1
Electric dark correction enabled: true
Nonlinearity correction enabled: false
Boxcar width: 0
XAxis mode: Wavelengths
Number of Pixels in Spectrum: 3648
>>>>>Begin Spectral Data<<<<<
178.204	-71.17
178.424	-71.17
178.644	-71.17
178.864	20.99
179.084	-52.74
179.304	-56.83
179.524	-69.12
179.744	-83.45
179.964	35.33
180.184	41.47
180.404	18.94
180.624	-24.06
180.844	16.9
181.064	-5.63
181.283	45.57
181.503	23.04
181.723	57.86
181.943	70.14
182.163	18.94
182.383	8.7
182.602	-17.92
182.822	-17.92
183.042	43.52
183.262	16.9
183.482	-17.92
183.701	-75.26
183.921	53.76
184.141	-1.54
184.361	33.28
184.58	12.8
184.8	-9.73
185.02	-17.92
185.239	35.33
185.459	20.99
185.679	2.56
185.898	-85.5
186.118	-26.11
186.338	-3.58
186.557	37.38
186.777	-22.02
186.997	59.9
187.216	16.9
187.436	37.38
187.655	59.9
187.875	80.38
188.095	72.19
188.314	37.38
188.534	12.8
188.753	51.71
188.973	-13.82
189.192	27.14
189.412	35.33
189.631	43.52
189.851	10.75
190.07	18.94
190.29	-60.93
190.509	84.48
190.729	90.62
190.948	-11.78
191.168	129.53
191.387	16.9
191.607	14.85
191.826	59.9
192.045	31.23
192.265	-38.4
192.484	-56.83
192.704	14.85
192.923	23.04
193.142	-5.63
193.362	29.18
193.581	29.18
193.8	57.86
194.02	43.52
194.239	88.57
194.458	4.61
194.678	23.04
194.897	31.23
195.116	-9.73
195.335	84.48
195.555	12.8
195.774	29.18
195.993	-7.68
196.212	-77.31
196.432	49.66
196.651	43.52
196.87	35.33
197.089	2.56
197.308	37.38
197.528	31.23
197.747	2.56
197.966	-7.68
198.185	55.81
198.404	18.94
198.623	49.66
198.842	45.57
199.062	-13.82
199.281	-24.06
199.5	-11.78
199.719	14.85
199.938	-28.16
200.157	2.56
200.376	-1.54
200.595	41.47
200.814	88.57
201.033	-30.21
201.252	-3.58
201.471	35.33
201.69	33.28
201.909	-13.82
202.128	-3.58
202.347	10.75
202.566	20.99
202.785	6.66
203.004	-5.63
203.223	43.52
203.442	27.14
203.661	25.09
203.879	-19.97
204.098	61.95
204.317	33.28
204.536	70.14
204.755	6.66
204.974	10.75
205.193	8.7
205.411	129.53
205.63	4.61
205.849	88.57
206.068	-71.17
206.287	25.09
206.505	76.29
206.724	35.33
206.943	41.47
207.162	-38.4
207.381	43.52
207.599	4.61
207.818	-9.73
208.037	88.57
208.255	12.8
208.474	4.61
208.693	-22.02
208.911	51.71
209.13	8.7
209.349	14.85
209.567	29.18
209.786	27.14
210.005	-5.63
210.223	88.57
210.442	14.85
210.661	0.51
210.879	47.62
211.098	45.57
211.316	-40.45
211.535	59.9
211.753	37.38
211.972	-58.88
212.191	49.66
212.409	-15.87
212.628	84.48
212.846	-7.68
213.065	-9.73
213.283	55.81
213.502	-26.11
213.72	25.09
213.938	0.51
214.157	51.71
214.375	57.86
214.594	33.28
214.812	-42.5
215.031	18.94
215.249	29.18
215.467	-32.26
215.686	2.56
215.904	27.14
216.122	4.61
216.341	2.56
216.559	70.14
216.778	49.66
216.996	64
217.214	-7.68
217.432	31.23
217.651	4.61
217.869	127.49
218.087	-52.74
218.306	10.75
218.524	51.71
218.742	70.14
218.96	35.33
219.179	10.75
219.397	43.52
219.615	55.81
219.833	27.14
220.051	10.75
220.27	64
220.488	80.38
220.706	51.71
220.924	47.62
221.142	-9.73
221.36	-7.68
221.578	31.23
221.796	33.28
222.015	47.62
222.233	37.38
222.451	-5.63
222.669	43.52
222.887	43.52
223.105	43.52
223.323	16.9
223.541	27.14
223.759	6.66
223.977	31.23
224.195	59.9
224.413	-13.82
224.631	-30.21
224.849	20.99
225.067	33.28
225.285	-79.36
225.503	2.56
225.721	-5.63
225.939	23.04
226.157	47.62
226.375	66.05
226.592	-3.58
226.81	76.29
227.028	45.57
227.246	43.52
227.464	-26.11
227.682	8.7
227.9	92.67
228.117	31.23
228.335	-30.21
228.553	70.14
228.771	4.61
228.989	113.15
229.206	39.42
229.424	-28.16
229.642	74.24
229.86	-79.36
230.077	31.23
230.295	51.71
230.513	23.04
230.731	12.8
230.948	51.71
231.166	-13.82
231.384	-3.58
231.601	49.66
231.819	76.29
232.037	-5.63
232.254	10.75
232.472	6.66
232.689	-17.92
232.907	31.23
233.125	68.09
233.342	-1.54
233.56	51.71
233.777	-7.68
233.995	10.75
234.213	74.24
234.43	64
234.648	43.52
234.865	0.51
235.083	-3.58
235.3	-38.4
235.518	100.86
235.735	-11.78
235.953	51.71
236.17	33.28
236.388	49.66
236.605	-1.54
236.822	104.96
237.04	31.23
237.257	-24.06
237.475	-7.68
237.692	76.29
237.909	4.61
238.127	10.75
238.344	-22.02
238.562	68.09
238.779	72.19
238.996	-28.16
239.214	82.43
239.431	51.71
239.648	53.76
239.865	41.47
240.083	16.9
240.3	0.51
240.517	74.24
240.735	-7.68
240.952	35.33
241.169	14.85
241.386	102.91
241.603	-38.4
241.821	37.38
242.038	35.33
242.255	2.56
242.472	20.99
242.689	37.38
242.907	37.38
243.124	-3.58
243.341	-75.26
243.558	41.47
243.775	-17.92
243.992	-22.02
244.209	47.62
244.426	-13.82
244.643	113.15
244.86	68.09
245.078	66.05
245.295	-22.02
245.512	-30.21
245.729	-58.88
245.946	51.71
246.163	25.09
246.38	29.18
246.597	78.33
246.814	-7.68
247.031	35.33
247.248	35.33
247.464	10.75
247.681	-28.16
247.898	35.33
248.115	39.42
248.332	45.57
248.549	55.81
248.766	6.66
248.983	35.33
249.2	-1.54
249.417	37.38
249.633	53.76
249.85	2.56
250.067	47.62
250.284	10.75
250.501	10.75
250.717	12.8
250.934	12.8
251.151	12.8
251.368	0.51
251.585	47.62
251.801	45.57
252.018	45.57
252.235	25.09
252.451	-26.11
252.668	-5.63
252.885	51.71
253.102	-36.35
253.318	49.66
253.535	92.67
253.752	27.14
253.968	61.95
254.185	-5.63
254.401	8.7
254.618	-44.54
254.835	41.47
255.051	31.23
255.268	-5.63
255.484	76.29
255.701	-5.63
255.917	20.99
256.134	-1.54
256.351	-11.78
256.567	27.14
256.784	-7.68
257	-5.63
257.217	51.71
257.433	-17.92
257.65	8.7
257.866	84.48
258.082	14.85
258.299	-19.97
258.515	100.86
258.732	49.66
258.948	111.1
259.165	-3.58
259.381	55.81
259.597	-46.59
259.814	94.72
260.03	41.47
260.246	51.71
260.463	-5.63
260.679	64
260.895	109.05
261.112	66.05
261.328	10.75
261.544	45.57
261.761	39.42
261.977	39.42
262.193	20.99
262.409	39.42
262.626	-19.97
262.842	53.76
263.058	-22.02
263.274	96.77
263.49	-30.21
263.707	-3.58
263.923	25.09
264.139	14.85
264.355	31.23
264.571	72.19
264.787	-40.45
265.004	84.48
265.22	47.62
265.436	49.66
265.652	-9.73
265.868	53.76
266.084	-17.92
266.3	29.18
266.516	47.62
266.732	35.33
266.948	6.66
267.164	66.05
267.38	47.62
267.596	43.52
267.812	68.09
268.028	25.09
268.244	55.81
268.46	43.52
268.676	33.28
268.892	57.86
269.108	-1.54
269.324	88.57
269.54	-7.68
269.756	35.33
269.972	-13.82
270.188	47.62
270.403	-32.26
270.619	2.56
270.835	20.99
271.051	51.71
271.267	49.66
271.483	0.51
271.698	55.81
271.914	45.57
272.13	45.57
272.346	72.19
272.562	10.75
272.777	18.94
272.993	53.76
273.209	37.38
273.425	51.71
273.64	-91.65
273.856	25.09
274.072	23.04
274.287	-19.97
274.503	55.81
274.719	31.23
274.934	29.18
275.15	-13.82
275.366	68.09
275.581	57.86
275.797	47.62
276.012	4.61
276.228	18.94
276.444	-32.26
276.659	53.76
276.875	-28.16
277.09	-54.78
277.306	-28.16
277.521	18.94
277.737	-5.63
277.952	117.25
278.168	14.85
278.383	-9.73
278.599	61.95
278.814	-15.87
279.03	25.09
279.245	6.66
279.461	8.7
279.676	20.99
279.892	4.61
280.107	-9.73
280.322	10.75
280.538	70.14
280.753	49.66
280.969	68.09
281.184	8.7
281.399	-15.87
281.615	-40.45
281.83	31.23
282.045	27.14
282.26	-54.78
282.476	41.47
282.691	2.56
282.906	64
283.122	104.96
283.337	-3.58
283.552	18.94
283.767	68.09
283.983	10.75
284.198	78.33
284.413	41.47
284.628	-5.63
284.843	2.56
285.058	84.48
285.274	-54.78
285.489	4.61
285.704	107.01
285.919	61.95
286.134	-13.82
286.349	-34.3
286.564	4.61
286.779	18.94
286.995	20.99
287.21	-9.73
287.425	-34.3
287.64	68.09
287.855	72.19
288.07	14.85
288.285	59.9
288.5	-52.74
288.715	-46.59
288.93	33.28
289.145	88.57
289.36	80.38
289.575	29.18
289.79	-5.63
290.004	-11.78
290.219	-30.21
290.434	-28.16
290.649	-15.87
290.864	27.14
291.079	-3.58
291.294	0.51
291.509	-48.64
291.724	29.18
291.938	-67.07
292.153	92.67
292.368	-22.02
292.583	-54.78
292.798	68.09
293.012	18.94
293.227	25.09
293.442	119.29
293.657	86.53
293.871	20.99
294.086	64
294.301	23.04
294.516	88.57
294.73	-19.97
294.945	14.85
295.16	-11.78
295.374	55.81
295.589	29.18
295.804	-3.58
296.018	53.76
296.233	-99.84
296.447	43.52
296.662	31.23
296.877	14.85
297.091	-24.06
297.306	41.47
297.52	70.14
297.735	-28.16
297.949	37.38
298.164	27.14
298.378	35.33
298.593	14.85
298.807	37.38
299.022	37.38
299.236	35.33
299.451	27.14
299.665	-3.58
299.88	76.29
300.094	-34.3
300.309	18.94
300.523	-1.54
300.737	-50.69
300.952	35.33
301.166	86.53
301.381	12.8
301.595	2.56
301.809	64
302.024	59.9
302.238	10.75
302.452	45.57
302.667	0.51
302.881	72.19
303.095	2.56
303.309	43.52
303.524	31.23
303.738	92.67
303.952	-3.58
304.166	35.33
304.381	-30.21
304.595	39.42
304.809	25.09
305.023	-7.68
305.237	-28.16
305.452	-3.58
305.666	12.8
305.88	4.61
306.094	-5.63
306.308	6.66
306.522	-3.58
306.736	31.23
306.95	6.66
307.164	74.24
307.379	51.71
307.593	70.14
307.807	31.23
308.021	70.14
308.235	-5.63
308.449	61.95
308.663	0.51
308.877	49.66
309.091	-5.63
309.305	25.09
309.519	-5.63
309.733	29.18
309.947	-30.21
310.161	-28.16
310.374	80.38
310.588	61.95
310.802	70.14
311.016	51.71
311.23	31.23
311.444	16.9
311.658	12.8
311.872	66.05
312.085	4.61
312.299	-5.63
312.513	18.94
312.727	16.9
312.941	0.51
313.154	-26.11
313.368	25.09
313.582	-11.78
313.796	18.94
314.009	29.18
314.223	47.62
314.437	10.75
314.651	-3.58
314.864	-24.06
315.078	-38.4
315.292	-3.58
315.505	-9.73
315.719	57.86
315.933	51.71
316.146	8.7
316.36	-13.82
316.573	27.14
316.787	-7.68
317.001	-36.35
317.214	37.38
317.428	61.95
317.641	-34.3
317.855	45.57
318.068	109.05
318.282	45.57
318.495	57.86
318.709	55.81
318.922	66.05
319.136	39.42
319.349	59.9
319.563	0.51
319.776	47.62
319.99	33.28
320.203	12.8
320.417	10.75
320.63	-28.16
320.843	64
321.057	-46.59
321.27	66.05
321.483	-46.59
321.697	84.48
321.91	41.47
322.124	68.09
322.337	16.9
322.55	27.14
322.763	16.9
322.977	39.42
323.19	51.71
323.403	78.33
323.617	-3.58
323.83	-28.16
324.043	53.76
324.256	14.85
324.469	-42.5
324.683	4.61
324.896	4.61
325.109	37.38
325.322	-3.58
325.535	53.76
325.748	55.81
325.962	49.66
326.175	14.85
326.388	23.04
326.601	14.85
326.814	-7.68
327.027	-13.82
327.24	61.95
327.453	90.62
327.666	-48.64
327.879	57.86
328.092	27.14
328.305	29.18
328.518	-42.5
328.731	-32.26
328.944	68.09
329.157	27.14
329.37	66.05
329.583	35.33
329.796	2.56
330.009	45.57
330.222	47.62
330.435	76.29
330.648	66.05
330.861	78.33
331.073	29.18
331.286	-26.11
331.499	37.38
331.712	0.51
331.925	74.24
332.138	72.19
332.35	72.19
332.563	-1.54
332.776	-15.87
332.989	61.95
333.202	51.71
333.414	-11.78
333.627	86.53
333.84	47.62
334.053	109.05
334.265	-19.97
334.478	61.95
334.691	31.23
334.903	27.14
335.116	35.33
335.329	-3.58
335.541	8.7
335.754	115.2
335.966	-9.73
336.179	68.09
336.392	53.76
336.604	88.57
336.817	96.77
337.029	76.29
337.242	29.18
337.454	-58.88
337.667	-19.97
337.88	-11.78
338.092	82.43
338.305	70.14
338.517	27.14
338.729	-5.63
338.942	29.18
339.154	-13.82
339.367	35.33
339.579	18.94
339.792	98.81
340.004	41.47
340.217	-13.82
340.429	72.19
340.641	27.14
340.854	16.9
341.066	-28.16
341.278	12.8
341.491	12.8
341.703	45.57
341.915	59.9
342.128	51.71
342.34	-9.73
342.552	70.14
342.764	57.86
342.977	12.8
343.189	6.66
343.401	70.14
343.613	27.14
343.826	72.19
344.038	2.56
344.25	-3.58
344.462	33.28
344.674	64
344.886	31.23
345.099	35.33
345.311	-38.4
345.523	8.7
345.735	-9.73
345.947	18.94
346.159	29.18
346.371	90.62
346.583	37.38
346.795	61.95
347.007	10.75
347.219	82.43
347.431	33.28
347.643	49.66
347.855	74.24
348.067	-13.82
348.279	41.47
348.491	18.94
348.703	107.01
348.915	35.33
349.127	-36.35
349.339	68.09
349.551	-24.06
349.763	27.14
349.975	6.66
350.187	59.9
350.399	55.81
350.61	-3.58
350.822	2.56
351.034	20.99
351.246	12.8
351.458	68.09
351.669	45.57
351.881	117.25
352.093	31.23
352.305	4.61
352.517	14.85
352.728	39.42
352.94	51.71
353.152	55.81
353.363	64
353.575	107.01
353.787	51.71
353.999	100.86
354.21	35.33
354.422	8.7
354.633	43.52
354.845	4.61
355.057	113.15
355.268	33.28
355.48	-28.16
355.692	-5.63
355.903	18.94
356.115	41.47
356.326	6.66
356.538	64
356.749	-5.63
356.961	14.85
357.172	49.66
357.384	57.86
357.595	109.05
357.807	61.95
358.018	-19.97
358.23	86.53
358.441	43.52
358.653	18.94
358.864	45.57
359.075	6.66
359.287	43.52
359.498	45.57
359.709	107.01
359.921	2.56
360.132	-5.63
360.344	119.29
360.555	78.33
360.766	39.42
360.977	27.14
361.189	-1.54
361.4	76.29
361.611	100.86
361.823	18.94
362.034	35.33
362.245	80.38
362.456	33.28
362.667	-1.54
362.879	18.94
363.09	31.23
363.301	35.33
363.512	49.66
363.723	45.57
363.935	0.51
364.146	64
364.357	18.94
364.568	70.14
364.779	-9.73
364.99	-1.54
365.201	-1.54
365.412	23.04
365.623	23.04
365.834	51.71
366.045	66.05
366.256	-15.87
366.467	4.61
366.678	84.48
366.889	10.75
367.1	66.05
367.311	25.09
367.522	35.33
367.733	78.33
367.944	109.05
368.155	-3.58
368.366	86.53
368.577	29.18
368.788	18.94
368.999	64
369.209	53.76
369.42	0.51
369.631	113.15
369.842	55.81
370.053	10.75
370.264	14.85
370.474	4.61
370.685	-7.68
370.896	-9.73
371.107	35.33
371.317	53.76
371.528	64
371.739	-24.06
371.95	59.9
372.16	82.43
372.371	35.33
372.582	-30.21
372.792	47.62
373.003	43.52
373.214	-19.97
373.424	55.81
373.635	-46.59
373.846	80.38
374.056	-24.06
374.267	45.57
374.477	72.19
374.688	37.38
374.898	98.81
375.109	100.86
375.319	4.61
375.53	66.05
375.74	102.91
375.951	61.95
376.161	41.47
376.372	94.72
376.582	86.53
376.793	8.7
377.003	43.52
377.214	-5.63
377.424	29.18
377.635	53.76
377.845	4.61
378.055	98.81
378.266	10.75
378.476	92.67
378.686	55.81
378.897	-46.59
379.107	47.62
379.317	-30.21
379.528	117.25
379.738	78.33
379.948	72.19
380.158	55.81
380.369	61.95
380.579	64
380.789	57.86
380.999	-38.4
381.21	35.33
381.42	100.86
381.63	39.42
381.84	68.09
382.05	141.82
382.261	88.57
382.471	-9.73
382.681	55.81
382.891	27.14
383.101	51.71
383.311	-11.78
383.521	94.72
383.731	8.7
383.941	35.33
384.151	-13.82
384.361	14.85
384.571	-9.73
384.781	59.9
384.991	35.33
385.201	74.24
385.411	29.18
385.621	35.33
385.831	59.9
386.041	59.9
386.251	-22.02
386.461	-54.78
386.671	92.67
386.881	115.2
387.091	14.85
387.301	49.66
387.511	72.19
387.72	100.86
387.93	90.62
388.14	61.95
388.35	23.04
388.56	23.04
388.769	2.56
388.979	49.66
389.189	-11.78
389.399	53.76
389.609	113.15
389.818	111.1
390.028	33.28
390.238	61.95
390.447	27.14
390.657	104.96
390.867	16.9
391.076	20.99
391.286	45.57
391.496	4.61
391.705	70.14
391.915	-54.78
392.125	72.19
392.334	76.29
392.544	33.28
392.753	43.52
392.963	2.56
393.172	117.25
393.382	92.67
393.591	115.2
393.801	33.28
394.01	80.38
394.22	66.05
394.429	59.9
394.639	109.05
394.848	70.14
395.058	20.99
395.267	160.25
395.477	55.81
395.686	117.25
395.895	70.14
396.105	70.14
396.314	25.09
396.524	102.91
396.733	74.24
396.942	55.81
397.152	64
397.361	147.97
397.57	135.68
397.78	100.86
397.989	107.01
398.198	23.04
398.407	119.29
398.617	37.38
398.826	37.38
399.035	90.62
399.244	53.76
399.453	4.61
399.663	37.38
399.872	76.29
400.081	94.72
400.29	94.72
400.499	107.01
400.708	125.44
400.917	82.43
401.127	94.72
401.336	64
401.545	61.95
401.754	66.05
401.963	117.25
402.172	98.81
402.381	64
402.59	45.57
402.799	10.75
403.008	49.66
403.217	57.86
403.426	43.52
403.635	86.53
403.844	92.67
404.053	102.91
404.262	-22.02
404.471	141.82
404.68	141.82
404.888	100.86
405.097	39.42
405.306	139.77
405.515	92.67
405.724	113.15
405.933	66.05
406.142	127.49
406.35	129.53
406.559	158.21
406.768	107.01
406.977	131.58
407.185	117.25
407.394	152.06
407.603	98.81
407.812	145.92
408.02	141.82
408.229	55.81
408.438	145.92
408.646	125.44
408.855	109.05
409.064	176.64
409.272	141.82
409.481	193.02
409.69	158.21
409.898	133.63
410.107	236.03
410.315	186.88
410.524	272.89
410.733	240.12
410.941	182.78
411.15	248.32
411.358	246.27
411.567	217.6
411.775	270.84
411.984	295.42
412.192	320
412.401	287.23
412.609	297.47
412.818	377.34
413.026	272.89
413.234	342.52
413.443	297.47
413.651	377.34
413.86	354.81
414.068	344.57
414.276	512.5
414.485	406.01
414.693	442.87
414.901	518.65
415.11	397.82
415.318	524.79
415.526	469.5
415.734	414.2
415.943	463.35
416.151	502.26
416.359	561.66
416.567	539.13
416.776	557.56
416.984	575.99
417.192	625.14
417.4	664.05
417.608	676.34
417.817	666.1
418.025	735.73
418.233	760.31
418.441	705.01
418.649	737.78
418.857	739.83
419.065	766.45
419.273	877.04
419.481	727.54
419.689	887.28
419.897	944.63
420.105	973.3
420.313	981.49
420.521	1028.59
420.729	1028.59
420.937	1024.5
421.145	1188.33
421.353	1145.33
421.561	1204.72
421.769	1292.78
421.977	1323.5
422.185	1239.53
422.393	1440.23
422.601	1417.71
422.809	1411.56
423.017	1436.14
423.224	1489.39
423.432	1612.26
423.64	1608.17
423.848	1710.57
424.056	1591.78
424.263	1798.63
424.471	1784.29
424.679	1909.22
424.887	1864.16
425.094	2025.95
425.302	2005.47
425.51	2066.91
425.718	2150.88
425.925	2261.47
426.133	2220.51
426.341	2265.57
426.548	2406.88
426.756	2337.24
426.964	2468.31
427.171	2521.56
427.379	2701.78
427.586	2746.84
427.794	2879.96
428.001	2931.16
428.209	2984.4
428.417	3033.55
428.624	3160.53
428.832	3353.04
429.039	3211.73
429.247	3297.74
429.454	3545.55
429.662	3746.25
429.869	3539.4
430.076	3840.45
430.284	3633.61
430.491	3801.54
430.699	4100.55
430.906	3887.56
431.114	4094.4
431.321	4141.5
431.528	4303.29
431.736	4487.61
431.943	4915.64
432.15	4704.7
432.358	4739.51
432.565	4839.86
432.772	5011.89
432.979	5200.3
433.187	5138.87
433.394	5263.79
433.601	5654.95
433.808	5591.47
434.016	5714.34
434.223	6021.54
434.43	6252.96
434.637	6052.26
434.844	6457.76
435.052	6418.85
435.259	6334.88
435.466	6707.61
435.673	6816.15
435.88	6971.8
436.087	7297.42
436.294	7319.95
436.501	7330.19
436.708	7217.55
436.915	7467.41
437.122	7883.14
437.329	7979.4
437.537	8055.17
437.743	8251.78
437.95	8358.27
438.157	8726.91
438.364	8907.13
438.571	8855.93
438.778	8782.2
438.985	9640.3
439.192	9453.94
439.399	9558.38
439.606	9494.9
439.813	9996.65
440.02	10719.58
440.227	10469.73
440.433	10389.86
440.64	10660.19
440.847	10447.2
441.054	10715.48
441.261	11637.07
441.467	11434.32
441.674	11422.03
441.881	12075.34
442.088	12173.64
442.294	11833.68
442.501	12208.45
442.708	12493.12
442.914	13084.98
443.121	13603.12
443.328	13064.5
443.534	14127.4
443.741	13680.94
443.948	13513.01
444.154	14268.71
444.361	14252.33
444.568	14393.64
444.774	14534.95
444.981	14563.62
445.187	14993.69
445.394	15577.36
445.6	15464.72
445.807	16929.02
446.013	16290.06
446.22	16607.49
446.426	17258.74
446.633	17445.11
446.839	18034.92
447.046	17217.79
447.252	18241.77
447.459	18135.28
447.665	18086.12
447.871	19099.87
448.078	20000.97
448.284	18710.75
448.491	19316.95
448.697	20244.68
448.903	20392.14
449.11	20615.37
449.316	20046.03
449.522	20615.37
449.728	20949.18
449.935	21188.8
450.141	21371.07
450.347	21827.76
450.553	20912.32
450.76	20969.66
450.966	22116.53
451.172	21524.66
451.378	22407.34
451.584	21864.63
451.791	22261.93
451.997	22317.23
452.203	22401.19
452.409	22659.24
452.615	22640.81
452.821	21573.81
453.027	21612.73
453.233	22681.77
453.44	21639.35
453.646	21889.2
453.852	21895.35
454.058	22266.03
454.264	21747.89
454.47	22155.44
454.676	21450.94
454.882	22405.29
455.088	20238.54
455.294	20703.43
455.5	21143.74
455.705	21264.57
455.911	20222.16
456.117	19945.68
456.323	20019.41
456.529	18764
456.735	19362.01
456.941	18864.35
457.147	18573.54
457.352	18122.99
457.558	17897.71
457.764	17799.41
457.97	17553.65
458.176	16890.11
458.381	17385.72
458.587	16308.49
458.793	16480.52
458.999	15532.31
459.204	16656.64
459.41	16277.77
459.616	15139.1
459.821	15139.1
460.027	15235.35
460.233	14913.82
460.438	14000.43
460.644	14237.99
460.85	13463.86
461.055	13381.94
461.261	13199.67
461.466	12489.03
461.672	11911.5
461.878	12937.53
462.083	12108.1
462.289	11698.51
462.494	11680.08
462.7	11098.45
462.905	10905.95
463.111	11217.24
463.316	11225.43
463.522	10975.58
463.727	11254.1
463.932	11030.87
464.138	10778.97
464.343	11282.77
464.549	10832.22
464.754	10983.77
464.959	10834.27
465.165	10752.35
465.37	10459.49
465.575	10422.62
465.781	10619.23
465.986	10506.59
466.191	10187.11
466.397	10017.13
466.602	9621.87
466.807	9929.06
467.012	10010.98
467.218	9824.62
467.423	9617.77
467.628	9875.82
467.833	10312.03
468.038	9628.01
468.244	9671.02
468.449	9978.22
468.654	9595.25
468.859	9470.32
469.064	9529.71
469.269	9132.4
469.474	9144.69
469.679	9392.5
469.885	9089.4
470.09	9353.59
470.295	9300.34
470.5	9036.15
470.705	8999.29
470.91	8872.31
471.115	8792.44
471.32	9017.72
471.525	8849.78
471.73	8673.66
471.935	8647.04
472.139	8239.49
472.344	8550.78
472.549	8407.42
472.754	8231.3
472.959	8130.95
473.164	7807.37
473.369	7936.39
473.574	7940.49
473.778	8038.79
473.983	8049.03
474.188	7969.16
474.393	7588.24
474.598	7434.64
474.802	7551.37
475.007	7332.24
475.212	7635.34
475.417	7397.78
475.621	7094.68
475.826	7262.61
476.031	7111.06
476.235	6924.69
476.44	7063.96
476.645	6896.02
476.849	7205.27
477.054	6824.34
477.259	6789.53
477.463	6812.06
477.668	6541.72
477.872	6603.16
478.077	6535.58
478.282	6371.74
478.486	6429.09
478.691	6414.75
478.895	6416.8
479.1	6199.71
479.304	6195.62
479.509	5945.77
479.713	6160.8
479.918	6214.05
480.122	5845.41
480.326	6203.81
480.531	6267.3
480.735	6080.93
480.94	6074.79
481.144	6085.03
481.348	5886.37
481.553	5843.37
481.757	5990.82
481.961	5962.15
482.166	5984.68
482.37	5851.56
482.574	5810.6
482.778	5902.76
482.983	6023.59
483.187	6011.3
483.391	5941.67
483.595	5734.82
483.8	5757.35
484.004	5839.27
484.208	5966.24
484.412	5902.76
484.616	5761.45
484.821	5941.67
485.025	5794.22
485.229	5996.96
485.433	5716.39
485.637	5851.56
485.841	5904.81
486.045	5867.94
486.249	5863.85
486.453	5732.78
486.657	5835.17
486.861	5994.92
487.065	5753.26
487.269	5831.08
487.473	5716.39
487.677	5867.94
487.881	5837.22
488.085	5966.24
488.289	5718.44
488.493	5894.57
488.697	5970.34
488.901	5951.91
489.105	5968.29
489.309	5968.29
489.512	6072.74
489.716	6003.11
489.92	5910.95
490.124	5886.37
490.328	6074.79
490.531	6078.88
490.735	6156.71
490.939	5894.57
491.143	6072.74
491.346	6187.43
491.55	6136.23
491.754	6199.71
491.958	6287.78
492.161	6136.23
492.365	6197.67
492.569	6259.1
492.772	6298.02
492.976	6414.75
493.18	6345.12
493.383	6529.44
493.587	6513.05
493.79	6533.53
493.994	6672.79
494.197	6594.97
494.401	6713.75
494.605	6805.91
494.808	6816.15
495.012	6781.34
495.215	6826.39
495.419	6994.33
495.622	6713.75
495.825	6932.89
496.029	6973.85
496.232	7039.38
496.436	7231.89
496.639	7256.47
496.843	7180.69
497.046	7541.13
497.249	7401.87
497.453	7475.6
497.656	7512.46
497.859	7762.31
498.063	7756.17
498.266	7817.61
498.469	7860.62
498.673	7944.58
498.876	8257.92
499.079	8227.2
499.282	8202.63
499.485	8544.64
499.689	8442.24
499.892	8571.26
500.095	8751.48
500.298	8948.09
500.501	8753.53
500.705	8962.42
500.908	9286
501.111	9210.23
501.314	9275.76
501.517	9365.87
501.72	9875.82
501.923	9599.34
502.126	10031.46
502.329	9832.81
502.532	10002.79
502.735	10129.77
502.938	10301.79
503.141	10402.15
503.344	10678.62
503.547	10676.57
503.75	10869.08
503.953	11037.02
504.156	10971.48
504.359	11110.74
504.562	11284.82
504.765	11538.77
504.968	11704.65
505.17	11776.33
505.373	11817.29
505.576	12163.4
505.779	12161.35
505.982	12355.91
506.185	12646.72
506.387	12718.4
506.59	12763.45
506.793	13031.74
506.996	13199.67
507.198	13529.39
507.401	13539.63
507.604	13543.73
507.807	14049.58
508.009	14248.23
508.212	14231.85
508.415	14506.27
508.617	14446.88
508.82	14725.41
509.022	14784.8
509.225	15302.93
509.428	15296.79
509.63	15474.96
509.833	15761.68
510.035	15657.23
510.238	15825.17
510.44	16464.13
510.643	16236.81
510.845	16722.18
511.048	16544
511.25	16959.74
511.453	17033.47
511.655	17715.44
511.858	17602.8
512.06	17778.93
512.262	18133.23
512.465	18163.95
512.667	18276.59
512.87	18727.14
513.072	18811.1
513.274	19063.01
513.477	19384.54
513.679	19663.06
513.881	19886.29
514.084	19945.68
514.286	19908.82
514.488	20060.37
514.69	20693.19
514.893	20926.66
515.095	21057.73
515.297	21448.89
515.499	21547.19
515.701	21868.72
515.904	21780.66
516.106	22294.7
516.308	22667.43
516.51	22835.36
516.712	22993.06
516.914	23218.33
517.116	23888.02
517.318	23939.22
517.52	23693.46
517.722	23959.7
517.925	24287.37
518.127	24494.22
518.329	24873.09
518.531	25088.13
518.733	25585.79
518.935	25600.12
519.136	25673.85
519.338	26454.12
519.54	26554.47
519.742	26687.59
519.944	26681.45
520.146	27342.94
520.348	27336.8
520.55	27738.2
520.752	27744.34
520.954	28811.34
521.155	28362.83
521.357	28534.86
521.559	28805.19
521.761	29540.41
521.963	29243.46
522.164	29503.55
522.366	29771.83
522.568	30023.73
522.77	30117.94
522.971	30601.26
523.173	30431.28
523.375	31133.73
523.576	30574.64
523.778	30832.68
523.98	31830.04
524.181	31713.31
524.383	31889.43
524.584	32083.99
524.786	32313.36
524.988	31975.45
525.189	32946.19
525.391	32825.36
525.592	33339.4
525.794	33507.33
525.995	33202.18
526.197	33634.3
526.398	33458.18
526.6	33529.86
526.801	33730.56
527.003	34084.86
527.204	34115.58
527.406	34402.29
527.607	34519.03
527.808	34904.04
528.01	34347
528.211	34715.63
528.412	35489.76
528.614	35432.42
528.815	35252.2
529.016	35575.78
529.218	35375.08
529.419	35336.16
529.62	35631.07
529.822	35743.71
530.023	35626.98
530.224	35387.36
530.425	35641.31
530.626	35866.59
530.828	35375.08
531.029	36566.99
531.23	36188.12
531.431	35985.37
531.632	35983.32
531.833	36325.33
532.035	36257.75
532.236	36683.73
532.437	36718.54
532.638	36095.96
532.839	36587.47
533.04	37111.75
533.241	36614.1
533.442	37208.01
533.643	37117.9
533.844	36614.1
534.045	37081.03
534.246	36421.59
534.447	36786.13
534.648	37076.94
534.849	37040.07
535.05	36546.51
535.251	36911.05
535.451	36589.52
535.652	37140.43
535.853	37056.46
536.054	37113.8
536.255	37584.83
536.456	37115.85
536.657	37660.61
536.857	37040.07
537.058	36650.96
537.259	37412.81
537.46	36919.24
537.66	36718.54
537.861	37283.78
538.062	37220.3
538.263	37476.29
538.463	36960.2
538.664	36911.05
538.865	37357.51
539.065	37318.6
539.266	36831.18
539.466	37789.63
539.667	37040.07
539.868	37500.87
540.068	36855.76
540.269	36612.05
540.469	37027.79
540.67	37228.49
540.87	37109.71
541.071	37177.29
541.271	37048.27
541.472	37492.68
541.672	37232.58
541.873	36827.09
542.073	36788.17
542.274	37181.38
542.474	37334.98
542.675	36898.76
542.875	37685.18
543.075	37445.57
543.276	36988.88
543.476	37468.1
543.676	37091.27
543.877	37390.28
544.077	37259.21
544.277	36876.24
544.478	37097.42
544.678	37248.97
544.878	37275.59
545.078	36882.38
545.279	37105.61
545.479	36822.99
545.679	37240.78
545.879	36921.29
546.079	37185.48
546.28	36964.3
546.48	36822.99
546.68	37083.08
546.88	37091.27
547.08	37343.17
547.28	37181.38
547.48	36648.91
547.68	37435.33
547.88	37040.07
548.081	36972.49
548.281	37525.44
548.481	37007.31
548.681	37482.44
548.881	37033.93
549.081	37033.93
549.28	36665.3
549.48	36763.6
549.68	37279.69
549.88	37097.42
550.08	36610
550.28	37222.34
550.48	36931.53
550.68	37330.89
550.88	36798.41
551.08	37244.87
551.279	37144.52
551.479	36853.71
551.679	36898.76
551.879	36859.85
552.079	37044.17
552.278	36612.05
552.478	36886.48
552.678	36683.73
552.878	36986.83
553.077	36841.42
553.277	36634.58
553.477	37208.01
553.676	36577.23
553.876	36775.89
554.076	36806.61
554.275	36560.85
554.475	36356.05
554.674	36755.41
554.874	36614.1
555.074	36693.97
555.273	36421.59
555.473	36536.27
555.672	36214.74
555.872	36415.44
556.071	36624.34
556.271	36640.72
556.47	36358.1
556.67	35897.31
556.869	36206.55
557.068	36554.71
557.268	36118.49
557.467	36237.27
557.667	36155.35
557.866	36032.47
558.065	36085.72
558.265	35782.62
558.464	36194.26
558.663	36296.66
558.863	35561.44
559.062	36208.6
559.261	35745.76
559.461	36141.02
559.66	35381.22
559.859	35862.49
560.058	35667.94
560.258	35741.66
560.457	35008.49
560.656	35469.28
560.855	35217.38
561.054	35559.39
561.253	35407.84
561.453	35618.78
561.652	35342.31
561.851	35463.14
562.05	35500
562.249	34902
562.448	35370.98
562.647	34932.71
562.846	35094.5
563.045	35375.08
563.244	34652.14
563.443	35194.85
563.642	34295.8
563.841	34607.09
564.04	34717.68
564.239	34670.57
564.438	34742.25
564.637	34482.16
564.836	34654.19
565.035	34383.86
565.234	34623.47
565.432	34320.37
565.631	34213.88
565.83	34164.73
566.029	34353.14
566.228	33941.5
566.427	34033.66
566.625	34082.81
566.824	33507.33
567.023	34060.28
567.222	33464.32
567.42	34082.81
567.619	33716.22
567.818	33554.43
568.016	33347.59
568.215	33724.41
568.414	33271.81
568.612	33327.11
568.811	33331.2
569.01	33314.82
569.208	32874.51
569.407	33488.9
569.605	32643.09
569.804	33224.71
570.002	32589.84
570.201	33222.66
570.4	32878.6
570.598	32274.45
570.797	32323.6
570.995	32849.93
571.193	32145.43
571.392	32526.35
571.59	32104.47
571.789	32176.15
571.987	32094.23
572.186	31961.11
572.384	31770.65
572.582	32022.55
572.781	31868.95
572.979	31225.89
573.177	31457.31
573.376	31336.48
573.574	31191.08
573.772	31514.66
573.971	31225.89
574.169	30969.9
574.367	30789.67
574.565	31293.47
574.763	30961.7
574.962	30916.65
575.16	30548.01
575.358	30861.35
575.556	30507.05
575.754	30842.92
575.952	30355.5
576.151	30478.38
576.349	29974.58
576.547	29820.98
576.745	29800.51
576.943	29769.79
577.141	29827.13
577.339	30130.23
577.537	29796.41
577.735	29515.84
577.933	29534.27
578.131	29149.25
578.329	29409.34
578.527	28889.16
578.725	29464.64
578.923	29165.63
579.121	28815.43
579.319	29081.67
579.516	29149.25
579.714	28661.83
579.912	28854.34
580.11	28661.83
580.308	28532.81
580.506	28553.29
580.704	27990.1
580.901	28194.9
581.099	28629.07
581.297	28389.45
581.495	28172.37
581.692	27826.26
581.89	27621.47
582.088	28010.58
582.285	27908.18
582.483	27848.79
582.681	27351.13
582.878	27611.23
583.076	26998.88
583.274	27637.85
583.471	26808.42
583.669	27519.07
583.866	26980.45
584.064	27367.52
584.262	26863.72
584.459	27320.42
584.657	26867.81
584.854	26777.7
585.052	26454.12
585.249	26767.46
585.447	26208.37
585.644	26028.15
585.841	26450.03
586.039	26425.45
586.236	26312.81
586.434	26237.04
586.631	26151.02
586.828	26212.46
587.026	26181.74
587.223	25970.8
587.42	25727.1
587.618	25739.38
587.815	25571.45
588.012	25555.07
588.21	25401.47
588.407	25780.34
588.604	25409.66
588.801	25122.94
588.999	25241.73
589.196	25223.3
589.393	25020.55
589.59	25092.23
589.787	24883.33
589.984	25000.07
590.182	24907.91
590.379	24782.98
590.576	24535.18
590.773	24942.72
590.97	24273.04
591.167	24668.3
591.364	24176.78
591.561	24426.64
591.758	24164.5
591.955	24127.63
592.152	24217.74
592.349	24076.43
592.546	24154.26
592.743	24189.07
592.94	23713.94
593.137	23554.2
593.334	23527.58
593.531	23310.49
593.727	23513.24
593.924	23644.31
594.121	23300.25
594.318	23253.15
594.515	23206.05
594.712	23238.81
594.908	23466.14
595.105	23277.72
595.302	23077.02
595.499	22915.23
595.696	22984.87
595.892	22880.42
596.089	23144.61
596.286	22667.43
596.482	22870.18
596.679	22692.01
596.876	22704.29
597.072	22319.28
597.269	22687.91
597.466	22216.88
597.662	22188.21
597.859	22288.56
598.055	22249.64
598.252	21805.24
598.448	22192.3
598.645	22268.08
598.841	21786.8
599.038	22091.95
599.234	21633.21
599.431	21674.17
599.627	21467.32
599.824	21506.23
600.02	21416.12
600.217	21625.01
600.413	21305.53
600.609	21266.62
600.806	21303.48
601.002	21524.66
601.198	20916.42
601.395	20986.05
601.591	20799.68
601.787	20869.31
601.984	20871.36
602.18	20768.96
602.376	20578.5
602.572	20570.31
602.769	20500.68
602.965	20125.9
603.161	20904.13
603.357	20197.58
603.553	20056.27
603.75	20398.28
603.946	20267.21
604.142	20089.04
604.338	19734.74
604.534	20216.01
604.73	19804.37
604.926	19642.58
605.122	19941.58
605.318	19677.4
605.514	19693.78
605.71	19456.22
605.906	19536.09
606.102	19441.88
606.298	19194.08
606.494	19337.43
606.69	19273.95
606.886	19368.15
607.082	18962.65
607.278	19308.76
607.474	18766.05
607.67	19003.61
607.866	18778.34
608.062	19286.23
608.257	18747.62
608.453	18731.23
608.649	18577.64
608.845	18372.84
609.041	18641.12
609.236	18598.12
609.432	18366.7
609.628	18282.73
609.824	18041.07
610.019	18032.88
610.215	18364.65
610.411	18149.61
610.606	18057.45
610.802	17889.52
610.998	17862.9
611.193	17971.44
611.389	17705.2
611.584	17541.36
611.78	17608.95
611.976	17748.21
612.171	17756.4
612.367	17543.41
612.562	17402.1
612.758	17047.8
612.953	17414.39
613.149	17404.15
613.344	17295.61
613.539	17549.56
613.735	17326.33
613.93	17529.08
614.126	17105.15
614.321	17295.61
614.517	17225.98
614.712	16847.1
614.907	16933.12
615.103	17017.08
615.298	16847.1
615.493	17082.62
615.688	16621.83
615.884	17004.8
616.079	16548.1
616.274	16808.19
616.47	16697.6
616.665	16533.76
616.86	16517.38
617.055	16513.28
617.25	16525.57
617.445	16494.85
617.641	16007.44
617.836	16417.03
618.031	16027.92
618.226	16267.53
618.421	16027.92
618.616	15976.72
618.811	15790.35
619.006	16054.54
619.201	15716.62
619.396	15831.31
619.591	15651.09
619.786	15585.55
619.981	15429.91
620.176	15362.33
620.371	15554.83
620.566	15440.15
620.761	15405.33
620.956	15235.35
621.151	15255.83
621.346	15278.36
621.541	14887.2
621.735	15108.38
621.93	14895.39
622.125	14657.82
622.32	14635.3
622.515	14647.58
622.709	14631.2
622.904	14450.98
623.099	14553.38
623.294	14197.03
623.488	14258.47
623.683	13949.23
623.878	14084.39
624.072	13777.2
624.267	13900.08
624.462	13736.24
624.656	13726
624.851	13721.9
625.046	13601.07
625.24	13674.8
625.435	13541.68
625.629	13396.28
625.824	13439.28
626.018	13349.17
626.213	13093.18
626.407	13097.27
626.602	13115.7
626.796	12828.99
626.991	12931.39
627.185	12980.54
627.38	12779.84
627.574	12667.2
627.768	12603.71
627.963	12607.81
628.157	12323.14
628.352	12360
628.546	12351.81
628.74	12480.83
628.935	12085.58
629.129	12153.16
629.323	11858.25
629.517	12005.7
629.712	11987.27
629.906	11841.87
630.1	11829.58
630.294	11858.25
630.489	11741.52
630.683	12095.82
630.877	11534.67
631.071	11522.38
631.265	11778.38
631.459	11198.81
631.653	11327.83
631.848	11374.93
632.042	11235.67
632.236	11280.72
632.43	11147.61
632.624	11209.04
632.818	11149.65
633.012	10893.66
633.206	10852.7
633.4	10969.43
633.594	10721.63
633.788	10877.27
633.982	10899.8
634.176	10578.27
634.369	10588.51
634.563	10656.09
634.757	10570.08
634.951	10580.32
635.145	10482.02
635.339	10355.04
635.533	10285.41
635.726	10228.07
635.92	10299.75
636.114	10234.21
636.308	10094.95
636.501	10215.78
636.695	10142.05
636.889	10017.13
637.083	9824.62
637.276	9793.9
637.47	9867.63
637.664	9703.79
637.857	9775.47
638.051	9648.49
638.244	9611.63
638.438	9650.54
638.632	9734.51
638.825	9554.29
639.019	9144.69
639.212	9425.26
639.406	9187.7
639.599	9306.48
639.793	9259.38
639.986	9087.35
640.18	9142.64
640.373	9156.98
640.567	9032.05
640.76	9015.67
640.954	8776.06
641.147	8743.29
641.34	8624.51
641.534	8745.34
641.727	8798.59
641.92	8718.71
642.114	8464.77
642.307	8704.38
642.5	8509.82
642.694	8415.62
642.887	8405.38
643.08	8452.48
643.273	8286.59
643.467	8190.34
643.66	8173.96
643.853	8079.75
644.046	8055.17
644.239	8055.17
644.432	7981.45
644.626	7879.05
644.819	7993.73
645.012	7821.7
645.205	7852.42
645.398	7915.91
645.591	7653.77
645.784	7713.16
645.977	7334.29
646.17	7561.61
646.363	7547.28
646.556	7545.23
646.749	7373.2
646.942	7207.31
647.135	7344.53
647.328	7440.78
647.521	7164.31
647.714	7012.76
647.907	7127.44
648.099	7008.66
648.292	7078.29
648.485	6967.7
648.678	6941.08
648.871	7217.55
649.064	6857.11
649.256	6871.45
649.449	6723.99
649.642	6695.32
649.835	6865.3
650.027	6762.9
650.22	6680.99
650.413	6717.85
650.605	6517.15
650.798	6451.61
650.991	6672.79
651.183	6347.17
651.376	6412.7
651.568	6420.89
651.761	6275.49
651.954	6250.91
652.146	6269.34
652.339	6246.82
652.531	6252.96
652.724	6072.74
652.916	5988.77
653.109	5917.09
653.301	5917.09
653.494	5935.53
653.686	5689.77
653.879	5851.56
654.071	5994.92
654.263	5910.95
654.456	5736.87
654.648	5738.92
654.84	5589.42
655.033	5560.75
655.225	5532.08
655.417	5523.88
655.61	5437.87
655.802	5345.71
655.994	5583.27
656.186	5495.21
656.379	5487.02
656.571	5435.82
656.763	5372.33
656.955	5325.23
657.148	5267.89
657.34	5257.65
657.532	4991.41
657.724	5118.39
657.916	5083.57
658.108	5175.73
658.3	5161.39
658.492	5063.09
658.684	4870.58
658.876	5044.66
659.068	4929.97
659.26	4815.29
659.452	4919.73
659.644	4768.18
659.836	4723.13
660.028	4716.98
660.22	4520.38
660.412	4762.04
660.604	4565.43
660.796	4530.62
660.988	4508.09
661.18	4491.71
661.372	4387.26
661.563	4477.37
661.755	4334.01
661.947	4450.75
662.139	4342.21
662.331	4209.09
662.522	4104.64
662.714	4280.77
662.906	4336.06
663.097	4094.4
663.289	4016.58
663.481	4147.65
663.673	4125.12
663.864	4164.03
664.056	4127.17
664.247	4020.67
664.439	3854.79
664.631	3828.17
664.822	3981.76
665.014	3977.67
665.205	4110.79
665.397	3965.38
665.588	3807.69
665.78	3901.89
665.971	3881.41
666.163	3895.75
666.354	3875.27
666.546	3598.79
666.737	3697.1
666.929	3752.39
667.12	3756.49
667.311	3629.51
667.503	3656.14
667.694	3633.61
667.885	3590.6
668.077	3547.59
668.268	3584.46
668.459	3451.34
668.651	3637.7
668.842	3586.51
669.033	3463.63
669.224	3324.37
669.416	3332.56
669.607	3426.76
669.798	3350.99
669.989	3451.34
670.18	3353.04
670.371	3371.47
670.563	3365.32
670.754	3293.65
670.945	3283.41
671.136	3283.41
671.327	3375.56
671.518	3246.54
671.709	3201.49
671.9	3250.64
672.091	3144.14
672.282	3148.24
672.473	3162.58
672.664	3217.87
672.855	3000.79
673.046	3080.66
673.237	3027.41
673.428	3058.13
673.619	3008.98
673.809	3158.48
674	2992.59
674.191	3058.13
674.382	3088.85
674.573	3008.98
674.764	3049.94
674.954	3103.18
675.145	3004.88
675.336	3033.55
675.527	2861.52
675.717	2929.11
675.908	2912.72
676.099	2861.52
676.289	2916.82
676.48	2865.62
676.671	2888.15
676.861	2951.63
677.052	2855.38
677.243	2861.52
677.433	2871.76
677.624	2918.87
677.814	2865.62
678.005	2834.9
678.195	2769.37
678.386	2800.09
678.576	2691.54
678.767	2783.7
678.957	2783.7
679.148	2742.74
679.338	2761.17
679.529	2873.81
679.719	2732.5
679.909	2800.09
680.1	2683.35
680.29	2746.84
680.481	2726.36
680.671	2656.73
680.861	2736.6
681.052	2738.65
681.242	2691.54
681.432	2597.34
681.622	2736.6
681.813	2628.06
682.003	2695.64
682.193	2755.03
682.383	2613.72
682.573	2654.68
682.764	2718.17
682.954	2623.96
683.144	2591.19
683.334	2552.28
683.524	2568.66
683.714	2527.71
683.904	2619.86
684.094	2626.01
684.284	2576.86
684.474	2671.06
684.664	2574.81
684.854	2558.42
685.044	2570.71
685.234	2533.85
685.424	2499.03
685.614	2513.37
685.804	2574.81
685.994	2642.39
686.184	2632.15
686.374	2646.49
686.564	2439.64
686.753	2486.75
686.943	2451.93
687.133	2599.38
687.323	2593.24
687.513	2505.18
687.702	2529.75
687.892	2591.19
688.082	2476.51
688.272	2472.41
688.461	2527.71
688.651	2535.9
688.841	2505.18
689.03	2501.08
689.22	2429.4
689.41	2568.66
689.599	2519.51
689.789	2451.93
689.979	2544.09
690.168	2519.51
690.358	2548.19
690.547	2427.35
690.737	2476.51
690.926	2441.69
691.116	2513.37
691.305	2562.52
691.495	2478.55
691.684	2580.95
691.874	2566.62
692.063	2415.07
692.252	2482.65
692.442	2558.42
692.631	2472.41
692.82	2447.83
693.01	2453.98
693.199	2451.93
693.388	2429.4
693.578	2499.03
693.767	2570.71
693.956	2423.26
694.146	2494.94
694.335	2587.1
694.524	2519.51
694.713	2458.07
694.902	2417.12
695.092	2398.68
695.281	2521.56
695.47	2443.74
695.659	2439.64
695.848	2453.98
696.037	2402.78
696.226	2400.73
696.415	2453.98
696.604	2427.35
696.793	2435.55
696.982	2470.36
697.171	2451.93
697.36	2382.3
697.549	2511.32
697.738	2494.94
697.927	2492.89
698.116	2472.41
698.305	2437.59
698.494	2327
698.683	2421.21
698.872	2492.89
699.061	2443.74
699.25	2542.04
699.438	2417.12
699.627	2386.4
699.816	2404.83
700.005	2435.55
700.193	2427.35
700.382	2435.55
700.571	2384.35
700.76	2386.4
700.948	2312.67
701.137	2410.97
701.326	2447.83
701.514	2359.77
701.703	2388.44
701.892	2290.14
702.08	2390.49
702.269	2281.95
702.457	2388.44
702.646	2306.52
702.834	2343.39
703.023	2382.3
703.212	2372.06
703.4	2257.37
703.589	2288.09
703.777	2374.11
703.965	2191.84
704.154	2343.39
704.342	2277.85
704.531	2306.52
704.719	2189.79
704.907	2288.09
705.096	2206.17
705.284	2259.42
705.472	2234.85
705.661	2245.09
705.849	2281.95
706.037	2118.11
706.226	2154.98
706.414	2240.99
706.602	2169.31
706.79	2079.2
706.979	2269.66
707.167	2240.99
707.355	2216.41
707.543	2224.61
707.731	2200.03
707.919	2124.26
708.107	2109.92
708.296	2068.96
708.484	2169.31
708.672	2111.97
708.86	2109.92
709.048	1997.28
709.236	2148.83
709.424	2163.17
709.612	2109.92
709.8	2040.29
709.988	2040.29
710.176	2005.47
710.364	2134.5
710.551	2054.62
710.739	2005.47
710.927	2042.34
711.115	2054.62
711.303	2066.91
711.491	1970.66
711.679	2005.47
711.866	2015.71
712.054	1984.99
712.242	1999.33
712.43	2054.62
712.617	1927.65
712.805	1976.8
712.993	1956.32
713.181	1925.6
713.368	1952.23
713.556	1798.63
713.744	1987.04
713.931	1835.49
714.119	1821.16
714.306	1821.16
714.494	1903.07
714.682	1896.93
714.869	1853.92
715.057	1847.78
715.244	1808.87
715.432	1888.74
715.619	1948.13
715.807	1761.77
715.994	1810.92
716.182	1780.2
716.369	1821.16
716.556	1735.14
716.744	1761.77
716.931	1749.48
717.119	1817.06
717.306	1702.37
717.493	1804.77
717.681	1778.15
717.868	1731.05
718.055	1708.52
718.242	1593.83
718.43	1583.59
718.617	1595.88
718.804	1577.45
718.991	1636.84
719.179	1669.61
719.366	1624.55
719.553	1642.98
719.74	1622.5
719.927	1587.69
720.114	1522.15
720.301	1610.22
720.488	1694.18
720.676	1640.93
720.863	1638.89
721.05	1614.31
721.237	1483.24
721.424	1608.17
721.611	1481.19
721.798	1550.82
721.985	1518.06
722.172	1526.25
722.358	1483.24
722.545	1511.91
722.732	1483.24
722.919	1466.86
723.106	1513.96
723.293	1536.49
723.48	1477.1
723.667	1530.34
723.853	1427.95
724.04	1485.29
724.227	1444.33
724.414	1513.96
724.6	1448.43
724.787	1407.47
724.974	1432.04
725.161	1421.8
725.347	1249.77
725.534	1473
725.72	1415.66
725.907	1323.5
726.094	1544.68
726.28	1343.98
726.467	1331.69
726.653	1327.6
726.84	1395.18
727.027	1329.64
727.213	1298.92
727.4	1362.41
727.586	1210.86
727.773	1329.64
727.959	1372.65
728.145	1329.64
728.332	1257.96
728.518	1282.54
728.705	1333.74
728.891	1339.88
729.077	1286.64
729.264	1288.68
729.45	1243.63
729.636	1298.92
729.823	1268.2
730.009	1358.32
730.195	1313.26
730.382	1247.72
730.568	1262.06
730.754	1307.12
730.94	1184.24
731.126	1307.12
731.313	1294.83
731.499	1204.72
731.685	1260.01
731.871	1260.01
732.057	1188.33
732.243	1200.62
732.429	1255.92
732.615	1174
732.801	1251.82
732.987	1200.62
733.173	1214.96
733.359	1081.84
733.545	1087.98
733.731	1163.76
733.917	1171.95
734.103	1133.04
734.289	1100.27
734.475	1176.05
734.661	1247.72
734.847	1190.38
735.033	1077.74
735.219	1083.89
735.404	1114.61
735.59	1186.29
735.776	1077.74
735.962	1192.43
736.148	1110.51
736.333	1047.02
736.519	1049.07
736.705	1049.07
736.89	1100.27
737.076	1198.57
737.262	1130.99
737.447	1141.23
737.633	1008.11
737.819	1061.36
738.004	1083.89
738.19	956.91
738.375	1024.5
738.561	1063.41
738.747	1051.12
738.932	940.53
739.118	1083.89
739.303	1042.93
739.489	1012.21
739.674	954.87
739.859	1004.02
740.045	961.01
740.23	946.67
740.416	1049.07
740.601	969.2
740.786	967.15
740.972	961.01
741.157	1010.16
741.342	1024.5
741.528	983.54
741.713	977.39
741.898	918
742.084	936.43
742.269	922.1
742.454	930.29
742.639	1020.4
742.824	928.24
743.01	936.43
743.195	829.94
743.38	911.86
743.565	854.51
743.75	874.99
743.935	991.73
744.12	940.53
744.305	885.23
744.49	838.13
744.675	881.14
744.86	793.08
745.045	883.19
745.23	920.05
745.415	862.71
745.6	850.42
745.785	864.75
745.97	897.52
746.155	807.41
746.34	823.8
746.525	791.03
746.71	897.52
746.895	780.79
747.079	811.51
747.264	829.94
747.449	805.36
747.634	809.46
747.819	850.42
748.003	731.64
748.188	743.92
748.373	803.32
748.557	741.88
748.742	745.97
748.927	827.89
749.111	725.49
749.296	801.27
749.481	682.49
749.665	770.55
749.85	707.06
750.034	762.36
750.219	715.25
750.404	774.64
750.588	739.83
750.773	633.33
750.957	735.73
751.141	702.97
751.326	717.3
751.51	700.92
751.695	725.49
751.879	752.12
752.064	657.91
752.248	670.2
752.432	807.41
752.617	621.05
752.801	672.25
752.985	684.53
753.17	668.15
753.354	688.63
753.538	670.2
753.722	625.14
753.907	586.23
754.091	616.95
754.275	604.66
754.459	619
754.643	559.61
754.828	625.14
755.012	608.76
755.196	575.99
755.38	641.53
755.564	657.91
755.748	543.22
755.932	557.56
756.116	588.28
756.3	594.42
756.484	571.9
756.668	543.22
756.852	592.37
757.036	625.14
757.22	481.78
757.404	584.18
757.588	627.19
757.772	598.52
757.956	528.89
758.14	567.8
758.323	551.42
758.507	555.51
758.691	498.17
758.875	567.8
759.059	567.8
759.242	539.13
759.426	526.84
759.61	473.59
759.794	457.21
759.977	543.22
760.161	508.41
760.345	496.12
760.528	543.22
760.712	524.79
760.895	496.12
761.079	500.22
761.263	473.59
761.446	528.89
761.63	492.02
761.813	453.11
761.997	449.02
762.18	473.59
762.364	535.03
762.547	440.83
762.731	430.59
762.914	508.41
763.098	461.3
763.281	416.25
763.464	483.83
763.648	416.25
763.831	428.54
764.015	428.54
764.198	489.98
764.381	498.17
764.564	489.98
764.748	436.73
764.931	428.54
765.114	393.72
765.297	428.54
765.481	430.59
765.664	455.16
765.847	459.26
766.03	461.3
766.213	547.32
766.397	403.96
766.58	449.02
766.763	489.98
766.946	430.59
767.129	422.39
767.312	440.83
767.495	489.98
767.678	434.68
767.861	487.93
768.044	410.11
768.227	428.54
768.41	418.3
768.593	420.35
768.776	422.39
768.959	385.53
769.142	442.87
769.324	387.58
769.507	465.4
769.69	459.26
769.873	391.67
770.056	418.3
770.239	375.29
770.421	389.63
770.604	430.59
770.787	395.77
770.97	426.49
771.152	379.39
771.335	451.07
771.518	412.15
771.7	391.67
771.883	432.63
772.066	399.87
772.248	406.01
772.431	406.01
772.613	338.43
772.796	426.49
772.978	432.63
773.161	436.73
773.343	389.63
773.526	451.07
773.708	328.19
773.891	279.04
774.073	291.32
774.256	387.58
774.438	389.63
774.621	307.71
774.803	385.53
774.985	365.05
775.168	399.87
775.35	313.85
775.532	403.96
775.715	332.28
775.897	354.81
776.079	299.52
776.261	391.67
776.444	338.43
776.626	369.15
776.808	363
776.99	313.85
777.173	332.28
777.355	299.52
777.537	301.56
777.719	340.47
777.901	289.28
778.083	365.05
778.265	320
778.447	393.72
778.629	363
778.811	305.66
778.993	313.85
779.175	313.85
779.357	252.41
779.539	299.52
779.721	250.36
779.903	287.23
780.085	252.41
780.267	272.89
780.449	348.67
780.631	309.76
780.812	283.13
780.994	207.36
781.176	309.76
781.358	342.52
781.54	291.32
781.721	233.98
781.903	281.08
782.085	279.04
782.267	258.56
782.448	266.75
782.63	227.84
782.812	266.75
782.993	240.12
783.175	268.8
783.357	268.8
783.538	315.9
783.72	231.93
783.901	236.03
784.083	291.32
784.264	147.97
784.446	193.02
784.627	201.21
784.809	199.16
784.99	236.03
785.172	252.41
785.353	250.36
785.535	211.45
785.716	332.28
785.897	219.64
786.079	236.03
786.26	199.16
786.441	238.08
786.623	199.16
786.804	205.31
786.985	233.98
787.167	236.03
787.348	182.78
787.529	203.26
787.71	299.52
787.891	211.45
788.073	188.93
788.254	176.64
788.435	219.64
788.616	219.64
788.797	240.12
788.978	193.02
789.159	244.22
789.34	252.41
789.522	188.93
789.703	227.84
789.884	254.46
790.065	176.64
790.246	186.88
790.427	160.25
790.607	133.63
790.788	221.69
790.969	205.31
791.15	174.59
791.331	164.35
791.512	184.83
791.693	166.4
791.874	176.64
792.054	195.07
792.235	147.97
792.416	170.49
792.597	244.22
792.778	176.64
792.958	182.78
793.139	113.15
793.32	150.01
793.5	107.01
793.681	197.12
793.862	150.01
794.042	154.11
794.223	137.73
794.404	168.45
794.584	145.92
794.765	186.88
794.945	219.64
795.126	209.4
795.306	190.97
795.487	154.11
795.667	129.53
795.848	117.25
796.028	199.16
796.209	207.36
796.389	80.38
796.57	203.26
796.75	207.36
796.93	182.78
797.111	78.33
797.291	92.67
797.471	168.45
797.652	104.96
797.832	109.05
798.012	133.63
798.192	166.4
798.373	141.82
798.553	150.01
798.733	115.2
798.913	68.09
799.093	152.06
799.274	207.36
799.454	152.06
799.634	203.26
799.814	152.06
799.994	90.62
800.174	135.68
800.354	182.78
800.534	92.67
800.714	98.81
800.894	248.32
801.074	94.72
801.254	166.4
801.434	172.54
801.614	152.06
801.794	141.82
801.974	420.35
802.154	64
802.334	158.21
802.514	104.96
802.693	133.63
802.873	166.4
803.053	100.86
803.233	154.11
803.413	82.43
803.592	80.38
803.772	121.34
803.952	111.1
804.131	88.57
804.311	125.44
804.491	100.86
804.67	131.58
804.85	154.11
805.03	113.15
805.209	53.76
805.389	64
805.568	141.82
805.748	150.01
805.928	170.49
806.107	131.58
806.287	107.01
806.466	66.05
806.646	86.53
806.825	49.66
807.004	182.78
807.184	76.29
807.363	152.06
807.543	133.63
807.722	123.39
807.901	100.86
808.081	117.25
808.26	57.86
808.439	96.77
808.619	70.14
808.798	70.14
808.977	147.97
809.156	139.77
809.336	115.2
809.515	119.29
809.694	59.9
809.873	61.95
810.052	143.87
810.231	107.01
810.411	96.77
810.59	152.06
810.769	86.53
810.948	98.81
811.127	82.43
811.306	33.28
811.485	80.38
811.664	158.21
811.843	-3.58
812.022	70.14
812.201	59.9
812.38	109.05
812.559	113.15
812.737	84.48
812.916	-3.58
813.095	78.33
813.274	80.38
813.453	70.14
813.632	111.1
813.811	78.33
813.989	35.33
814.168	107.01
814.347	100.86
814.526	113.15
814.704	115.2
814.883	141.82
815.062	86.53
815.24	70.14
815.419	84.48
815.598	135.68
815.776	45.57
815.955	92.67
816.133	20.99
816.312	59.9
816.49	66.05
816.669	33.28
816.847	90.62
817.026	98.81
817.204	68.09
817.383	57.86
817.561	68.09
817.74	92.67
817.918	8.7
818.097	78.33
818.275	92.67
818.453	55.81
818.632	94.72
818.81	47.62
818.988	51.71
819.167	29.18
819.345	23.04
819.523	125.44
819.701	125.44
819.879	98.81
820.058	72.19
820.236	98.81
820.414	51.71
820.592	70.14
820.77	10.75
820.948	27.14
821.127	78.33
821.305	82.43
821.483	39.42
821.661	94.72
821.839	51.71
822.017	104.96
822.195	70.14
822.373	109.05
822.551	57.86
822.729	115.2
822.907	66.05
823.085	59.9
823.262	16.9
823.44	55.81
823.618	37.38
823.796	61.95
823.974	84.48
824.152	-40.45
824.329	33.28
824.507	109.05
824.685	113.15
824.863	-9.73
825.04	-9.73
825.218	64
825.396	2.56
825.574	16.9
825.751	43.52
825.929	70.14
826.107	25.09
826.284	41.47
826.462	6.66
826.639	43.52
826.817	80.38
826.994	41.47
827.172	41.47
827.349	59.9
827.527	35.33
827.704	-3.58
827.882	47.62
828.059	90.62
828.237	37.38
828.414	47.62
828.591	23.04
828.769	76.29
828.946	14.85
829.124	51.71
829.301	43.52
829.478	45.57
829.655	27.14
829.833	86.53
830.01	53.76
830.187	94.72
830.364	-19.97
830.542	61.95
830.719	41.47
830.896	113.15
831.073	23.04
831.25	49.66
831.427	35.33
831.604	43.52
831.782	57.86
831.959	86.53
832.136	-11.78
832.313	86.53
832.49	76.29
832.667	33.28
832.844	37.38
833.021	64
833.198	92.67
833.374	16.9
833.551	39.42
833.728	102.91
833.905	84.48
834.082	-44.54
834.259	45.57
834.436	76.29
834.612	68.09
834.789	113.15
834.966	88.57
835.143	18.94
835.319	31.23
835.496	61.95
835.673	100.86
835.85	90.62
836.026	27.14
836.203	68.09
836.38	-11.78
836.556	72.19
836.733	43.52
836.909	-22.02
837.086	-11.78
837.262	72.19
837.439	33.28
837.616	-11.78
837.792	49.66
837.968	49.66
838.145	31.23
838.321	-3.58
838.498	53.76
838.674	27.14
838.851	-13.82
839.027	57.86
839.203	-1.54
839.38	51.71
839.556	25.09
839.732	4.61
839.909	61.95
840.085	18.94
840.261	-1.54
840.437	31.23
840.614	18.94
840.79	117.25
840.966	68.09
841.142	12.8
841.318	18.94
841.494	45.57
841.671	31.23
841.847	111.1
842.023	39.42
842.199	53.76
842.375	43.52
842.551	96.77
842.727	49.66
842.903	41.47
843.079	33.28
843.255	-22.02
843.431	20.99
843.607	6.66
843.783	43.52
843.959	53.76
844.134	-13.82
844.31	70.14
844.486	70.14
844.662	4.61
844.838	2.56
845.013	8.7
845.189	2.56
845.365	68.09
845.541	8.7
845.716	18.94
845.892	-15.87
846.068	35.33
846.244	66.05
846.419	23.04
846.595	16.9
846.77	2.56
846.946	10.75
847.122	-38.4
847.297	2.56
847.473	55.81
847.648	80.38
847.824	18.94
847.999	107.01
848.175	14.85
848.35	-54.78
848.526	84.48
848.701	66.05
848.876	45.57
849.052	8.7
849.227	53.76
849.403	-1.54
849.578	53.76
849.753	51.71
849.929	39.42
850.104	2.56
850.279	-28.16
850.454	31.23
850.63	31.23
850.805	10.75
850.98	109.05
851.155	14.85
851.33	80.38
851.505	57.86
851.681	86.53
851.856	35.33
852.031	10.75
852.206	25.09
852.381	16.9
852.556	-19.97
852.731	12.8
852.906	20.99
853.081	111.1
853.256	-3.58
853.431	18.94
853.606	2.56
853.781	43.52
853.956	-75.26
854.131	8.7
854.305	-13.82
854.48	-32.26
854.655	-19.97
854.83	49.66
855.005	8.7
855.18	102.91
855.354	25.09
855.529	-85.5
855.704	-22.02
855.879	-17.92
856.053	14.85
856.228	18.94
856.403	35.33
856.577	84.48
856.752	14.85
856.926	-7.68
857.101	-7.68
857.276	51.71
857.45	64
857.625	47.62
857.799	0.51
857.974	-46.59
858.148	8.7
858.323	94.72
858.497	-5.63
858.672	25.09
858.846	23.04
859.02	-34.3
859.195	45.57
859.369	14.85
859.543	-13.82
859.718	43.52
859.892	41.47
860.066	29.18
860.241	31.23
860.415	82.43
860.589	6.66
860.763	-15.87
860.938	51.71
861.112	6.66
861.286	68.09
861.46	2.56
861.634	43.52
861.808	37.38
861.982	10.75
862.157	-40.45
862.331	4.61
862.505	-17.92
862.679	53.76
862.853	35.33
863.027	-15.87
863.201	0.51
863.375	16.9
863.549	-13.82
863.722	98.81
863.896	35.33
864.07	-7.68
864.244	25.09
864.418	33.28
864.592	-52.74
864.766	-34.3
864.939	37.38
865.113	37.38
865.287	35.33
865.461	-26.11
865.634	2.56
865.808	-1.54
865.982	-9.73
866.156	6.66
866.329	31.23
866.503	20.99
866.676	31.23
866.85	20.99
867.024	23.04
867.197	98.81
867.371	57.86
867.544	-32.26
867.718	-44.54
867.891	-38.4
868.065	14.85
868.238	68.09
868.412	-19.97
868.585	2.56
868.759	37.38
868.932	-15.87
869.105	2.56
869.279	-52.74
869.452	-28.16
869.625	31.23
869.799	37.38
869.972	10.75
870.145	16.9
870.319	18.94
870.492	-62.98
870.665	41.47
870.838	61.95
871.011	-52.74
871.185	51.71
871.358	-22.02
871.531	0.51
871.704	27.14
871.877	-3.58
872.05	111.1
872.223	-34.3
872.396	-3.58
872.569	25.09
872.742	49.66
872.915	-7.68
873.088	-44.54
873.261	23.04
873.434	51.71
873.607	66.05
873.78	-13.82
873.953	39.42
874.126	-7.68
874.299	-69.12
874.471	31.23
874.644	-19.97
874.817	53.76
874.99	-38.4
875.163	29.18
875.335	-36.35
875.508	16.9
875.681	18.94
875.853	-32.26
876.026	-1.54
876.199	27.14
876.371	59.9
876.544	-19.97
876.717	-36.35
876.889	57.86
877.062	64
877.234	14.85
877.407	70.14
877.579	14.85
877.752	25.09
877.924	45.57
878.097	-34.3
878.269	90.62
878.442	61.95
878.614	-7.68
878.786	-19.97
878.959	-11.78
879.131	12.8
879.303	4.61
879.476	14.85
879.648	2.56
879.82	-11.78
879.993	59.9
880.165	-38.4
880.337	-13.82
880.509	-24.06
880.681	16.9
880.854	14.85
881.026	111.1
881.198	45.57
881.37	35.33
881.542	29.18
881.714	-30.21
881.886	27.14
882.058	18.94
882.23	16.9
882.402	-32.26
882.574	10.75
882.746	2.56
882.918	92.67
883.09	-13.82
883.262	-5.63
883.434	49.66
883.606	53.76
883.778	31.23
883.95	-85.5
884.122	35.33
884.293	23.04
884.465	-22.02
884.637	61.95
884.809	27.14
884.98	-30.21
885.152	2.56
885.324	12.8
885.496	57.86
885.667	4.61
885.839	86.53
886.011	-7.68
886.182	31.23
886.354	37.38
886.525	14.85
886.697	-1.54
886.869	37.38
887.04	68.09
887.212	18.94
887.383	39.42
887.555	51.71
887.726	-60.93
887.897	68.09
888.069	41.47
888.24	8.7
888.412	27.14
888.583	23.04
888.754	47.62
888.926	-26.11
889.097	-3.58
889.268	-13.82
889.44	10.75
889.611	-19.97
889.782	-62.98
889.953	-22.02
890.125	47.62
890.296	10.75
890.467	27.14
890.638	84.48
890.809	-1.54
890.98	-9.73
891.151	10.75
891.323	-1.54
891.494	-7.68
891.665	-11.78
891.836	-30.21
892.007	4.61
892.178	-40.45
892.349	8.7
892.52	-5.63
892.691	-40.45
892.862	0.51
893.032	-56.83
893.203	-3.58
893.374	-40.45
893.545	25.09
893.716	-77.31
893.887	35.33
894.057	14.85
894.228	39.42
894.399	-11.78
894.57	117.25
894.74	-9.73
894.911	47.62
895.082	-11.78
895.253	45.57
895.423	-50.69
895.594	-48.64
895.764	4.61
895.935	-24.06
896.106	-13.82
896.276	35.33
896.447	35.33
896.617	-5.63
896.788	113.15
896.958	6.66
897.129	20.99
897.299	-44.54
897.47	12.8
897.64	-22.02
897.81	-19.97
897.981	-1.54
898.151	-34.3
898.322	-26.11
898.492	16.9
898.662	39.42
898.832	-54.78
899.003	14.85
899.173	8.7
899.343	4.61
899.513	-3.58
