Data from USB4F104151__50__13-53-25-537.txt Node

Date: Thu Mar 13 13:53:25 EDT 2025
User: louis
Spectrometer: USB4F10415
Trigger mode: 4
Integration Time (sec): 1.000000E-2
Scans to average: 1
Electric dark correction enabled: true
Nonlinearity correction enabled: false
Boxcar width: 0
XAxis mode: Wavelengths
Number of Pixels in Spectrum: 3648
>>>>>Begin Spectral Data<<<<<
178.204	-55.12
178.424	-55.12
178.644	-55.12
178.864	-59.22
179.084	-65.36
179.304	-22.36
179.524	-24.4
179.744	16.55
179.964	20.65
180.184	37.03
180.404	-42.84
180.624	-14.17
180.844	55.47
181.064	-30.55
181.283	-22.36
181.503	14.51
181.723	12.46
181.943	14.51
182.163	57.51
182.383	4.27
182.602	16.55
182.822	-51.03
183.042	24.75
183.262	-10.07
183.482	16.55
183.701	-55.12
183.921	-36.69
184.141	-1.88
184.361	22.7
184.58	-22.36
184.8	-24.4
185.02	-14.17
185.239	22.7
185.459	10.41
185.679	-10.07
185.898	-12.12
186.118	12.46
186.338	30.89
186.557	2.22
186.777	69.8
186.997	22.7
187.216	8.36
187.436	43.18
187.655	28.84
187.875	2.22
188.095	12.46
188.314	92.33
188.534	47.27
188.753	14.51
188.973	61.61
189.192	-24.4
189.412	30.89
189.631	26.79
189.851	73.9
190.07	75.95
190.29	-20.31
190.509	63.66
190.729	-1.88
190.948	55.47
191.168	45.23
191.387	-1.88
191.607	-16.21
191.826	39.08
192.045	-14.17
192.265	-28.5
192.484	32.94
192.704	-24.4
192.923	24.75
193.142	-10.07
193.362	16.55
193.581	57.51
193.8	47.27
194.02	51.37
194.239	4.27
194.458	37.03
194.678	22.7
194.897	67.75
195.116	-61.27
195.335	12.46
195.555	-8.02
195.774	-40.79
195.993	16.55
196.212	69.8
196.432	32.94
196.651	-28.5
196.87	-10.07
197.089	-40.79
197.308	-32.6
197.528	-30.55
197.747	8.36
197.966	77.99
198.185	18.6
198.404	24.75
198.623	2.22
198.842	-22.36
199.062	4.27
199.281	67.75
199.5	-38.74
199.719	-10.07
199.938	45.23
200.157	-69.46
200.376	22.7
200.595	67.75
200.814	20.65
201.033	-38.74
201.252	-65.36
201.471	-77.65
201.69	61.61
201.909	24.75
202.128	-18.26
202.347	28.84
202.566	-34.64
202.785	-36.69
203.004	8.36
203.223	16.55
203.442	-30.55
203.661	65.71
203.879	43.18
204.098	12.46
204.317	-87.89
204.536	-65.36
204.755	41.13
204.974	2.22
205.193	6.31
205.411	16.55
205.63	4.27
205.849	0.17
206.068	20.65
206.287	20.65
206.505	-67.41
206.724	-42.84
206.943	34.99
207.162	49.32
207.381	61.61
207.599	-10.07
207.818	-14.17
208.037	6.31
208.255	-28.5
208.474	39.08
208.693	-75.6
208.911	8.36
209.13	-8.02
209.349	49.32
209.567	-10.07
209.786	24.75
210.005	14.51
210.223	-16.21
210.442	-34.64
210.661	16.55
210.879	90.28
211.098	20.65
211.316	43.18
211.535	-38.74
211.753	-8.02
211.972	4.27
212.191	0.17
212.409	18.6
212.628	37.03
212.846	6.31
213.065	84.14
213.283	45.23
213.502	-61.27
213.72	28.84
213.938	-12.12
214.157	34.99
214.375	-8.02
214.594	-5.97
214.812	-18.26
215.031	28.84
215.249	47.27
215.467	-1.88
215.686	24.75
215.904	0.17
216.122	-5.97
216.341	20.65
216.559	-51.03
216.778	-40.79
216.996	45.23
217.214	65.71
217.432	-42.84
217.651	22.7
217.869	-61.27
218.087	2.22
218.306	8.36
218.524	39.08
218.742	8.36
218.96	-32.6
219.179	47.27
219.397	-14.17
219.615	-8.02
219.833	-3.93
220.051	-14.17
220.27	-3.93
220.488	14.51
220.706	14.51
220.924	4.27
221.142	55.47
221.36	-55.12
221.578	28.84
221.796	8.36
222.015	18.6
222.233	-20.31
222.451	-10.07
222.669	-36.69
222.887	-18.26
223.105	-85.84
223.323	-5.97
223.541	30.89
223.759	-8.02
223.977	-3.93
224.195	43.18
224.413	-53.08
224.631	61.61
224.849	6.31
225.067	34.99
225.285	-10.07
225.503	12.46
225.721	26.79
225.939	-32.6
226.157	-1.88
226.375	8.36
226.592	-36.69
226.81	61.61
227.028	16.55
227.246	-22.36
227.464	-12.12
227.682	-94.04
227.9	82.09
228.117	4.27
228.335	61.61
228.553	0.17
228.771	53.42
228.989	2.22
229.206	14.51
229.424	-65.36
229.642	-18.26
229.86	34.99
230.077	-24.4
230.295	28.84
230.513	-22.36
230.731	59.56
230.948	20.65
231.166	-1.88
231.384	18.6
231.601	80.04
231.819	30.89
232.037	12.46
232.254	41.13
232.472	88.23
232.689	-12.12
232.907	57.51
233.125	-14.17
233.342	26.79
233.56	39.08
233.777	37.03
233.995	-46.93
234.213	71.85
234.43	-36.69
234.648	-18.26
234.865	8.36
235.083	67.75
235.3	-46.93
235.518	28.84
235.735	51.37
235.953	-8.02
236.17	-30.55
236.388	16.55
236.605	0.17
236.822	-8.02
237.04	-34.64
237.257	-98.13
237.475	75.95
237.692	-30.55
237.909	-38.74
238.127	-24.4
238.344	-8.02
238.562	-1.88
238.779	-10.07
238.996	-8.02
239.214	-71.51
239.431	45.23
239.648	-5.97
239.865	-18.26
240.083	-24.4
240.3	-61.27
240.517	-26.45
240.735	26.79
240.952	12.46
241.169	34.99
241.386	-38.74
241.603	20.65
241.821	-55.12
242.038	30.89
242.255	57.51
242.472	24.75
242.689	4.27
242.907	-8.02
243.124	-89.94
243.341	41.13
243.558	26.79
243.775	-16.21
243.992	-32.6
244.209	37.03
244.426	18.6
244.643	55.47
244.86	20.65
245.078	-18.26
245.295	4.27
245.512	-36.69
245.729	-1.88
245.946	-8.02
246.163	-16.21
246.38	-30.55
246.597	39.08
246.814	47.27
247.031	24.75
247.248	4.27
247.464	18.6
247.681	80.04
247.898	-40.79
248.115	4.27
248.332	6.31
248.549	-12.12
248.766	37.03
248.983	96.43
249.2	41.13
249.417	49.32
249.633	26.79
249.85	-32.6
250.067	41.13
250.284	45.23
250.501	-5.97
250.717	37.03
250.934	37.03
251.151	-18.26
251.368	-32.6
251.585	12.46
251.801	-26.45
252.018	4.27
252.235	8.36
252.451	-3.93
252.668	71.85
252.885	-12.12
253.102	26.79
253.318	69.8
253.535	30.89
253.752	-44.88
253.968	-28.5
254.185	65.71
254.401	-28.5
254.618	39.08
254.835	16.55
255.051	26.79
255.268	4.27
255.484	39.08
255.701	-22.36
255.917	24.75
256.134	-24.4
256.351	-8.02
256.567	-42.84
256.784	47.27
257	-55.12
257.217	-79.7
257.433	-1.88
257.65	6.31
257.866	22.7
258.082	-16.21
258.299	10.41
258.515	22.7
258.732	59.56
258.948	-42.84
259.165	45.23
259.381	-1.88
259.597	2.22
259.814	75.95
260.03	-22.36
260.246	0.17
260.463	55.47
260.679	-5.97
260.895	77.99
261.112	47.27
261.328	-30.55
261.544	-30.55
261.761	-22.36
261.977	-40.79
262.193	0.17
262.409	80.04
262.626	-16.21
262.842	37.03
263.058	-16.21
263.274	-26.45
263.49	-48.98
263.707	69.8
263.923	-34.64
264.139	-51.03
264.355	37.03
264.571	-18.26
264.787	-26.45
265.004	12.46
265.22	-1.88
265.436	2.22
265.652	12.46
265.868	-10.07
266.084	49.32
266.3	-26.45
266.516	65.71
266.732	49.32
266.948	26.79
267.164	32.94
267.38	6.31
267.596	14.51
267.812	2.22
268.028	12.46
268.244	37.03
268.46	-16.21
268.676	98.47
268.892	69.8
269.108	71.85
269.324	12.46
269.54	30.89
269.756	34.99
269.972	63.66
270.188	34.99
270.403	-24.4
270.619	4.27
270.835	61.61
271.051	8.36
271.267	-18.26
271.483	12.46
271.698	59.56
271.914	-28.5
272.13	4.27
272.346	-12.12
272.562	22.7
272.777	82.09
272.993	-36.69
273.209	-44.88
273.425	0.17
273.64	37.03
273.856	-28.5
274.072	-24.4
274.287	-44.88
274.503	-8.02
274.719	-44.88
274.934	-38.74
275.15	-5.97
275.366	-26.45
275.581	-55.12
275.797	-44.88
276.012	-26.45
276.228	0.17
276.444	-85.84
276.659	-14.17
276.875	-8.02
277.09	88.23
277.306	-40.79
277.521	-3.93
277.737	-8.02
277.952	18.6
278.168	0.17
278.383	4.27
278.599	55.47
278.814	-14.17
279.03	-8.02
279.245	22.7
279.461	-26.45
279.676	8.36
279.892	4.27
280.107	-83.8
280.322	-34.64
280.538	2.22
280.753	14.51
280.969	-12.12
281.184	-53.08
281.399	-57.17
281.615	-20.31
281.83	71.85
282.045	-22.36
282.26	16.55
282.476	-1.88
282.691	22.7
282.906	-3.93
283.122	84.14
283.337	26.79
283.552	-24.4
283.767	-40.79
283.983	39.08
284.198	-24.4
284.413	-12.12
284.628	-20.31
284.843	-12.12
285.058	57.51
285.274	-1.88
285.489	-1.88
285.704	30.89
285.919	-30.55
286.134	-18.26
286.349	82.09
286.564	73.9
286.779	-42.84
286.995	37.03
287.21	6.31
287.425	12.46
287.64	24.75
287.855	43.18
288.07	-5.97
288.285	43.18
288.5	-59.22
288.715	39.08
288.93	14.51
289.145	24.75
289.36	18.6
289.575	61.61
289.79	-36.69
290.004	-40.79
290.219	-22.36
290.434	18.6
290.649	8.36
290.864	75.95
291.079	34.99
291.294	-22.36
291.509	51.37
291.724	-42.84
291.938	26.79
292.153	-14.17
292.368	-5.97
292.583	53.42
292.798	-42.84
293.012	80.04
293.227	-65.36
293.442	12.46
293.657	32.94
293.871	24.75
294.086	-51.03
294.301	39.08
294.516	-18.26
294.73	67.75
294.945	55.47
295.16	-34.64
295.374	34.99
295.589	41.13
295.804	-1.88
296.018	-63.32
296.233	92.33
296.447	-75.6
296.662	-40.79
296.877	43.18
297.091	-14.17
297.306	-32.6
297.52	-51.03
297.735	-36.69
297.949	51.37
298.164	24.75
298.378	-36.69
298.593	-10.07
298.807	39.08
299.022	-20.31
299.236	-22.36
299.451	47.27
299.665	30.89
299.88	20.65
300.094	-42.84
300.309	0.17
300.523	-89.94
300.737	-3.93
300.952	-18.26
301.166	-14.17
301.381	4.27
301.595	-5.97
301.809	59.56
302.024	-26.45
302.238	-12.12
302.452	71.85
302.667	14.51
302.881	-30.55
303.095	16.55
303.309	100.52
303.524	-32.6
303.738	61.61
303.952	-38.74
304.166	2.22
304.381	-12.12
304.595	-20.31
304.809	-65.36
305.023	71.85
305.237	61.61
305.452	-65.36
305.666	-38.74
305.88	-48.98
306.094	-14.17
306.308	0.17
306.522	-1.88
306.736	-3.93
306.95	39.08
307.164	-10.07
307.379	43.18
307.593	6.31
307.807	-3.93
308.021	10.41
308.235	-42.84
308.449	-32.6
308.663	-14.17
308.877	-28.5
309.091	2.22
309.305	88.23
309.519	-22.36
309.733	47.27
309.947	18.6
310.161	45.23
310.374	26.79
310.588	55.47
310.802	34.99
311.016	-20.31
311.23	75.95
311.444	34.99
311.658	32.94
311.872	55.47
312.085	-3.93
312.299	20.65
312.513	2.22
312.727	2.22
312.941	32.94
313.154	0.17
313.368	-16.21
313.582	32.94
313.796	20.65
314.009	94.38
314.223	-48.98
314.437	10.41
314.651	8.36
314.864	-59.22
315.078	-44.88
315.292	-53.08
315.505	-22.36
315.719	-3.93
315.933	10.41
316.146	6.31
316.36	-40.79
316.573	57.51
316.787	-26.45
317.001	98.47
317.214	22.7
317.428	67.75
317.641	61.61
317.855	0.17
318.068	18.6
318.282	24.75
318.495	53.42
318.709	110.76
318.922	-69.46
319.136	32.94
319.349	26.79
319.563	41.13
319.776	26.79
319.99	4.27
320.203	-8.02
320.417	-12.12
320.63	43.18
320.843	26.79
321.057	34.99
321.27	12.46
321.483	14.51
321.697	-24.4
321.91	6.31
322.124	102.57
322.337	90.28
322.55	88.23
322.763	67.75
322.977	104.62
323.19	55.47
323.403	-28.5
323.617	-48.98
323.83	37.03
324.043	-12.12
324.256	8.36
324.469	18.6
324.683	8.36
324.896	-32.6
325.109	-10.07
325.322	-77.65
325.535	14.51
325.748	22.7
325.962	2.22
326.175	8.36
326.388	45.23
326.601	53.42
326.814	6.31
327.027	-36.69
327.24	-61.27
327.453	-5.97
327.666	4.27
327.879	12.46
328.092	-20.31
328.305	6.31
328.518	47.27
328.731	20.65
328.944	47.27
329.157	-10.07
329.37	20.65
329.583	-26.45
329.796	-61.27
330.009	-1.88
330.222	59.56
330.435	-5.97
330.648	-28.5
330.861	43.18
331.073	-57.17
331.286	14.51
331.499	14.51
331.712	-51.03
331.925	-10.07
332.138	22.7
332.35	12.46
332.563	-42.84
332.776	8.36
332.989	24.75
333.202	28.84
333.414	-44.88
333.627	61.61
333.84	45.23
334.053	24.75
334.265	-28.5
334.478	41.13
334.691	61.61
334.903	32.94
335.116	-26.45
335.329	20.65
335.541	34.99
335.754	53.42
335.966	-8.02
336.179	-14.17
336.392	14.51
336.604	69.8
336.817	53.42
337.029	43.18
337.242	18.6
337.454	88.23
337.667	2.22
337.88	37.03
338.092	12.46
338.305	-22.36
338.517	32.94
338.729	-34.64
338.942	92.33
339.154	-8.02
339.367	26.79
339.579	16.55
339.792	18.6
340.004	-3.93
340.217	-5.97
340.429	-8.02
340.641	-18.26
340.854	-12.12
341.066	-18.26
341.278	-28.5
341.491	-26.45
341.703	-16.21
341.915	-40.79
342.128	14.51
342.34	14.51
342.552	-12.12
342.764	53.42
342.977	-48.98
343.189	37.03
343.401	-40.79
343.613	108.71
343.826	-42.84
344.038	-18.26
344.25	69.8
344.462	63.66
344.674	59.56
344.886	63.66
345.099	32.94
345.311	96.43
345.523	-12.12
345.735	-106.32
345.947	30.89
346.159	14.51
346.371	14.51
346.583	-28.5
346.795	57.51
347.007	-36.69
347.219	-34.64
347.431	24.75
347.643	20.65
347.855	-8.02
348.067	55.47
348.279	-34.64
348.491	47.27
348.703	-16.21
348.915	20.65
349.127	-18.26
349.339	49.32
349.551	51.37
349.763	-22.36
349.975	-3.93
350.187	-22.36
350.399	-22.36
350.61	-5.97
350.822	-24.4
351.034	14.51
351.246	-3.93
351.458	2.22
351.669	41.13
351.881	24.75
352.093	-8.02
352.305	77.99
352.517	45.23
352.728	-36.69
352.94	-12.12
353.152	-5.97
353.363	-36.69
353.575	30.89
353.787	-16.21
353.999	4.27
354.21	-30.55
354.422	57.51
354.633	-69.46
354.845	-1.88
355.057	98.47
355.268	47.27
355.48	63.66
355.692	8.36
355.903	45.23
356.115	55.47
356.326	-5.97
356.538	67.75
356.749	47.27
356.961	55.47
357.172	26.79
357.384	18.6
357.595	-16.21
357.807	8.36
358.018	49.32
358.23	22.7
358.441	-22.36
358.653	16.55
358.864	-40.79
359.075	8.36
359.287	14.51
359.498	22.7
359.709	47.27
359.921	16.55
360.132	-36.69
360.344	12.46
360.555	41.13
360.766	-18.26
360.977	32.94
361.189	108.71
361.4	63.66
361.611	-3.93
361.823	14.51
362.034	-26.45
362.245	4.27
362.456	32.94
362.667	24.75
362.879	2.22
363.09	-3.93
363.301	12.46
363.512	-3.93
363.723	22.7
363.935	67.75
364.146	57.51
364.357	-32.6
364.568	20.65
364.779	34.99
364.99	30.89
365.201	-12.12
365.412	-46.93
365.623	-48.98
365.834	43.18
366.045	63.66
366.256	88.23
366.467	2.22
366.678	12.46
366.889	10.41
367.1	30.89
367.311	65.71
367.522	-42.84
367.733	41.13
367.944	18.6
368.155	-20.31
368.366	-14.17
368.577	86.19
368.788	47.27
368.999	32.94
369.209	37.03
369.42	16.55
369.631	82.09
369.842	43.18
370.053	-10.07
370.264	-22.36
370.474	112.81
370.685	63.66
370.896	-89.94
371.107	-1.88
371.317	18.6
371.528	-34.64
371.739	43.18
371.95	39.08
372.16	-38.74
372.371	135.34
372.582	14.51
372.792	112.81
373.003	24.75
373.214	24.75
373.424	49.32
373.635	-26.45
373.846	-16.21
374.056	41.13
374.267	49.32
374.477	6.31
374.688	12.46
374.898	16.55
375.109	-44.88
375.319	28.84
375.53	57.51
375.74	-3.93
375.951	20.65
376.161	59.56
376.372	-24.4
376.582	14.51
376.793	-8.02
377.003	32.94
377.214	-77.65
377.424	12.46
377.635	88.23
377.845	73.9
378.055	-10.07
378.266	2.22
378.476	71.85
378.686	57.51
378.897	-20.31
379.107	61.61
379.317	116.9
379.528	-10.07
379.738	32.94
379.948	30.89
380.158	100.52
380.369	8.36
380.579	16.55
380.789	2.22
380.999	51.37
381.21	71.85
381.42	4.27
381.63	34.99
381.84	34.99
382.05	22.7
382.261	41.13
382.471	47.27
382.681	30.89
382.891	14.51
383.101	63.66
383.311	24.75
383.521	-34.64
383.731	16.55
383.941	77.99
384.151	12.46
384.361	39.08
384.571	-32.6
384.781	4.27
384.991	37.03
385.201	20.65
385.411	57.51
385.621	-12.12
385.831	39.08
386.041	67.75
386.251	8.36
386.461	86.19
386.671	45.23
386.881	86.19
387.091	41.13
387.301	47.27
387.511	32.94
387.72	94.38
387.93	-36.69
388.14	-132.95
388.35	47.27
388.56	45.23
388.769	18.6
388.979	16.55
389.189	30.89
389.399	-1.88
389.609	43.18
389.818	-22.36
390.028	39.08
390.238	8.36
390.447	6.31
390.657	-30.55
390.867	49.32
391.076	-3.93
391.286	-16.21
391.496	149.67
391.705	10.41
391.915	-32.6
392.125	0.17
392.334	82.09
392.544	-8.02
392.753	-59.22
392.963	4.27
393.172	18.6
393.382	73.9
393.591	57.51
393.801	73.9
394.01	98.47
394.22	86.19
394.429	45.23
394.639	-5.97
394.848	75.95
395.058	86.19
395.267	82.09
395.477	24.75
395.686	51.37
395.895	10.41
396.105	45.23
396.314	-20.31
396.524	32.94
396.733	100.52
396.942	39.08
397.152	30.89
397.361	84.14
397.57	26.79
397.78	-26.45
397.989	4.27
398.198	39.08
398.407	26.79
398.617	129.19
398.826	-46.93
399.035	57.51
399.244	80.04
399.453	53.42
399.663	22.7
399.872	73.9
400.081	24.75
400.29	69.8
400.499	45.23
400.708	63.66
400.917	-46.93
401.127	61.61
401.336	24.75
401.545	8.36
401.754	53.42
401.963	84.14
402.172	114.86
402.381	55.47
402.59	106.67
402.799	75.95
403.008	14.51
403.217	123.05
403.426	96.43
403.635	98.47
403.844	37.03
404.053	37.03
404.262	41.13
404.471	92.33
404.68	102.57
404.888	102.57
405.097	-36.69
405.306	84.14
405.515	63.66
405.724	98.47
405.933	125.1
406.142	34.99
406.35	30.89
406.559	116.9
406.768	53.42
406.977	151.72
407.185	127.14
407.394	69.8
407.603	84.14
407.812	84.14
408.02	92.33
408.229	137.38
408.438	92.33
408.646	63.66
408.855	80.04
409.064	82.09
409.272	80.04
409.481	164.01
409.69	192.68
409.898	155.82
410.107	161.96
410.315	133.29
410.524	139.43
410.733	231.59
410.941	147.62
411.15	221.35
411.358	241.83
411.567	243.88
411.775	164.01
411.984	217.26
412.192	211.11
412.401	225.45
412.609	198.82
412.818	254.12
413.026	252.07
413.234	309.41
413.443	178.34
413.651	258.21
413.86	305.32
414.068	276.65
414.276	272.55
414.485	299.17
414.693	385.19
414.901	321.7
415.11	458.92
415.318	286.89
415.526	336.04
415.734	401.57
415.943	463.01
416.151	465.06
416.359	475.3
416.567	469.16
416.776	479.4
416.984	512.16
417.192	501.92
417.4	563.36
417.608	608.42
417.817	530.59
418.025	585.89
418.233	678.05
418.441	561.31
418.649	657.57
418.857	753.82
419.065	784.54
419.273	700.58
419.481	706.72
419.689	770.21
419.897	770.21
420.105	798.88
420.313	848.03
420.521	839.84
420.729	905.37
420.937	837.79
421.145	1030.3
421.353	932
421.561	1003.68
421.769	1112.22
421.977	1147.03
422.185	1083.55
422.393	1220.76
422.601	1351.83
422.809	1206.42
423.017	1171.61
423.224	1296.53
423.432	1378.45
423.64	1370.26
423.848	1431.7
424.056	1437.84
424.263	1648.79
424.471	1710.22
424.679	1661.07
424.887	1622.16
425.094	1697.94
425.302	1699.98
425.51	1773.71
425.718	1896.59
425.925	1941.65
426.133	1962.12
426.341	2044.04
426.548	2250.89
426.756	2181.26
426.964	2195.59
427.171	2316.42
427.379	2369.67
427.586	2474.12
427.794	2459.78
428.001	2537.6
428.209	2752.64
428.417	2672.77
428.624	2834.56
428.832	2867.33
429.039	2941.05
429.247	2879.61
429.454	3094.65
429.662	3342.46
429.869	3131.51
430.076	3360.89
430.284	3180.67
430.491	3266.68
430.699	3512.44
430.906	3561.59
431.114	3623.03
431.321	3704.95
431.528	3772.53
431.736	4194.41
431.943	4274.28
432.15	4114.54
432.358	4094.06
432.565	4415.59
432.772	4356.2
432.979	4622.44
433.187	4552.81
433.394	4552.81
433.601	5058.65
433.808	4964.45
434.016	4995.17
434.223	5199.96
434.43	5603.41
434.637	5310.55
434.844	5847.12
435.052	5916.75
435.259	5982.29
435.466	5965.9
435.673	5750.87
435.88	6213.71
436.087	6404.17
436.294	6467.66
436.501	6490.18
436.708	6629.45
436.915	6688.84
437.122	7071.81
437.329	7049.28
437.537	7266.36
437.743	7526.46
437.95	7462.97
438.157	7690.29
438.364	8077.36
438.571	7925.81
438.778	7964.72
438.985	8710.18
439.192	8378.41
439.399	8529.96
439.606	8597.54
439.813	8984.61
440.02	9375.77
440.227	9193.5
440.433	9336.86
440.64	9504.79
440.847	9439.26
441.054	9773.08
441.261	10147.86
441.467	10137.62
441.674	10373.13
441.881	10815.49
442.088	10706.95
442.294	10688.52
442.501	10975.24
442.708	11237.38
442.914	11663.35
443.121	12046.32
443.328	11810.81
443.534	12435.44
443.741	12312.56
443.948	12251.12
444.154	12888.04
444.361	12863.46
444.568	12759.02
444.774	13172.71
444.981	13291.49
445.187	13488.09
445.394	13928.41
445.6	14000.09
445.807	15130.56
446.013	14667.72
446.22	14723.02
446.426	15138.76
446.633	15712.19
446.839	16035.77
447.046	15425.47
447.252	16091.06
447.459	16250.8
447.665	16252.85
447.871	17043.37
448.078	17612.7
448.284	16936.87
448.491	17180.58
448.697	18190.23
448.903	18159.51
449.11	18411.41
449.316	18063.26
449.522	18329.49
449.728	18804.62
449.935	18734.99
450.141	18950.03
450.347	19214.21
450.553	18790.28
450.76	18984.84
450.966	19828.6
451.172	19169.16
451.378	19724.16
451.584	19314.56
451.791	19787.64
451.997	19715.97
452.203	20156.28
452.409	20281.21
452.615	19789.69
452.821	18909.07
453.027	19085.19
453.233	20103.03
453.44	18810.76
453.646	19388.29
453.852	19611.52
454.058	19593.09
454.264	19091.34
454.47	19517.31
454.676	18845.58
454.882	19789.69
455.088	18063.26
455.294	18272.15
455.5	18386.83
455.705	18694.03
455.911	17676.19
456.117	17442.72
456.323	17235.88
456.529	16373.68
456.735	17270.69
456.941	16533.42
457.147	16041.91
457.352	15892.41
457.558	15732.67
457.764	15427.52
457.97	15120.32
458.176	14944.2
458.381	14983.11
458.587	14030.8
458.793	14405.58
458.999	13543.39
459.204	14524.37
459.41	13780.95
459.616	13277.15
459.821	13322.21
460.027	13123.55
460.233	12896.23
460.438	12126.19
460.644	12281.84
460.85	11763.7
461.055	11692.02
461.261	11792.37
461.466	10639.37
461.672	10366.99
461.878	11161.6
462.083	10500.11
462.289	10123.28
462.494	10029.07
462.7	9543.71
462.905	9504.79
463.111	9752.6
463.316	9775.13
463.522	9506.84
463.727	9701.4
463.932	9654.3
464.138	9533.47
464.343	9562.14
464.549	9156.64
464.754	9603.1
464.959	9512.99
465.165	9560.09
465.37	8966.18
465.575	8900.64
465.781	9291.8
465.986	9222.17
466.191	8871.97
466.397	8783.91
466.602	8206.38
466.807	8609.83
467.012	8521.77
467.218	8448.04
467.423	8466.47
467.628	8554.54
467.833	8788
468.038	8595.5
468.244	8202.29
468.449	8771.62
468.654	8284.2
468.859	8355.88
469.064	8284.2
469.269	7825.46
469.474	8046.64
469.679	8114.22
469.885	7825.46
470.09	8108.08
470.295	7731.25
470.5	7817.27
470.705	7917.62
470.91	7481.4
471.115	7460.92
471.32	7690.29
471.525	7645.24
471.73	7358.52
471.935	7299.13
472.139	7344.19
472.344	7333.95
472.549	7221.31
472.754	7073.85
472.959	6889.54
473.164	6817.86
473.369	6705.22
473.574	6991.94
473.778	6971.46
473.983	6725.7
474.188	6858.82
474.393	6441.03
474.598	6451.27
474.802	6598.73
475.007	6516.81
475.212	6377.55
475.417	6156.36
475.621	6053.97
475.826	6205.52
476.031	6105.17
476.235	6117.45
476.44	6139.98
476.645	5916.75
476.849	5916.75
477.054	5855.31
477.259	5826.64
477.463	5941.33
477.668	5597.27
477.872	5746.77
478.077	5634.13
478.282	5404.76
478.486	5517.4
478.691	5468.25
478.895	5326.94
479.1	5349.47
479.304	5353.56
479.509	5247.07
479.713	5472.34
479.918	5230.68
480.122	5210.2
480.326	5132.38
480.531	5222.49
480.735	5101.66
480.94	5159
481.144	5290.07
481.348	4984.93
481.553	5025.89
481.757	4991.07
481.961	4997.21
482.166	5236.83
482.37	4962.4
482.574	5058.65
482.778	4835.42
482.983	5066.85
483.187	4978.78
483.391	4941.92
483.595	5070.94
483.8	5009.5
484.004	5021.79
484.208	5140.57
484.412	5011.55
484.616	4929.63
484.821	5138.52
485.025	4976.73
485.229	4935.78
485.433	4989.02
485.637	4978.78
485.841	4882.53
486.045	4886.62
486.249	5126.24
486.453	5083.23
486.657	4855.9
486.861	5062.75
487.065	4872.29
487.269	4982.88
487.473	4954.21
487.677	5052.51
487.881	4921.44
488.085	4964.45
488.289	5085.28
488.493	5048.41
488.697	5165.15
488.901	5169.24
489.105	5068.89
489.309	4984.93
489.512	5070.94
489.716	5064.8
489.92	5040.22
490.124	5130.33
490.328	5208.16
490.531	5085.28
490.735	5199.96
490.939	5226.59
491.143	5177.44
491.346	5095.52
491.55	5335.13
491.754	5304.41
491.958	5175.39
492.161	5257.31
492.365	5152.86
492.569	5210.2
492.772	5355.61
492.976	5335.13
493.18	5394.52
493.383	5632.08
493.587	5460.06
493.79	5546.07
493.994	5453.91
494.197	5582.93
494.401	5498.97
494.605	5740.63
494.808	5738.58
495.012	5703.76
495.215	5675.09
495.419	5828.69
495.622	5804.11
495.825	5845.07
496.029	5787.73
496.232	6006.86
496.436	5879.89
496.639	6129.74
496.843	6160.46
497.046	6221.9
497.249	6254.67
497.453	6291.53
497.656	6352.97
497.859	6350.92
498.063	6557.77
498.266	6731.84
498.469	6604.87
498.673	6766.66
498.876	6781
499.079	6934.59
499.282	6813.76
499.485	7049.28
499.689	7024.7
499.892	7092.29
500.095	7127.1
500.298	7405.63
500.501	7387.19
500.705	7516.22
500.908	7688.25
501.111	7694.39
501.314	7727.16
501.517	7964.72
501.72	7989.3
501.923	8005.68
502.126	8157.23
502.329	8316.97
502.532	8253.48
502.735	8474.67
502.938	8568.87
503.141	8620.07
503.344	8749.09
503.547	8675.37
503.75	8892.45
503.953	8925.22
504.156	9228.32
504.359	9093.15
504.562	9359.39
504.765	9674.78
504.968	9707.54
505.17	9705.49
505.373	9754.65
505.576	10059.79
505.779	10070.03
505.982	10254.35
506.185	10264.59
506.387	10395.66
506.59	10514.44
506.793	10668.04
506.996	10606.6
507.198	10971.14
507.401	10987.52
507.604	11108.35
507.807	11337.73
508.009	11618.3
508.212	11403.26
508.415	11538.43
508.617	11962.36
508.82	11732.98
509.022	11931.64
509.225	12294.13
509.428	12279.79
509.63	12251.12
509.833	12627.95
510.035	12888.04
510.238	12779.5
510.44	12939.24
510.643	13109.22
510.845	13281.25
511.048	13412.32
511.25	13660.12
511.453	13653.98
511.655	13955.03
511.858	14055.38
512.06	14172.11
512.262	14524.37
512.465	14409.68
512.667	14800.84
512.87	14872.52
513.072	14772.17
513.274	15091.65
513.477	15472.57
513.679	15693.76
513.881	15751.1
514.084	15908.79
514.286	15914.94
514.488	15806.39
514.69	16740.27
514.893	16601.01
515.095	16531.37
515.297	16906.15
515.499	16994.22
515.701	17217.44
515.904	17536.93
516.106	17383.33
516.308	17805.21
516.51	18030.49
516.712	17921.95
516.914	18190.23
517.116	18474.9
517.318	18644.88
517.52	18694.03
517.722	19036.04
517.925	19191.69
518.127	19363.72
518.329	19584.9
518.531	19756.93
518.733	20062.07
518.935	20326.26
519.136	20082.55
519.338	20399.99
519.54	20701.04
519.742	20932.46
519.944	21049.19
520.146	21624.67
520.348	21692.26
520.55	21679.97
520.752	21808.99
520.954	22032.22
521.155	22290.26
521.357	22601.55
521.559	22656.85
521.761	22873.93
521.963	22968.14
522.164	22929.23
522.366	23052.11
522.568	23510.85
522.77	23619.39
522.971	24135.48
523.173	23998.27
523.375	24072
523.576	24266.55
523.778	24059.71
523.98	24457.01
524.181	24962.86
524.383	25128.75
524.584	25298.73
524.786	25169.71
524.988	25098.03
525.189	25513.77
525.391	25857.82
525.592	25855.78
525.794	25949.98
525.995	26183.45
526.197	25780
526.398	26171.16
526.6	26326.81
526.801	26521.37
527.003	26740.5
527.204	26740.5
527.406	27047.69
527.607	26988.3
527.808	27451.14
528.01	26838.8
528.211	26879.76
528.412	27674.37
528.614	27102.99
528.815	27553.54
529.016	27725.57
529.218	27797.25
529.419	27791.11
529.62	27942.66
529.822	27686.66
530.023	27928.32
530.224	28237.56
530.425	27791.11
530.626	27797.25
530.828	28120.83
531.029	28511.99
531.23	28290.81
531.431	28337.91
531.632	28382.97
531.833	28325.63
532.035	28428.02
532.236	28417.79
532.437	28559.09
532.638	28428.02
532.839	28890.87
533.04	28743.41
533.241	28403.45
533.442	28888.82
533.643	28651.25
533.844	28620.53
534.045	29019.89
534.246	28751.6
534.447	28806.9
534.648	28802.8
534.849	28610.29
535.05	28897.01
535.251	28706.55
535.451	28751.6
535.652	29019.89
535.853	29013.74
536.054	28917.49
536.255	29261.55
536.456	28708.6
536.657	29294.32
536.857	28995.31
537.058	28970.74
537.259	29327.08
537.46	28892.91
537.66	29071.09
537.861	29019.89
538.062	28950.26
538.263	28780.28
538.463	28686.07
538.664	29150.96
538.865	29294.32
539.065	29443.82
539.266	28958.45
539.466	29290.22
539.667	28925.68
539.868	29212.4
540.068	28933.87
540.269	28868.34
540.469	29335.28
540.67	29038.32
540.87	29083.37
541.071	29032.18
541.271	29181.68
541.472	29142.77
541.672	28835.57
541.873	28925.68
542.073	28751.6
542.274	29484.78
542.474	28782.32
542.675	28839.67
542.875	29286.12
543.075	28894.96
543.276	28489.46
543.476	29228.78
543.676	28718.84
543.877	28841.71
544.077	28743.41
544.277	28933.87
544.478	28737.27
544.678	29161.2
544.878	28843.76
545.078	28925.68
545.279	28536.57
545.479	28876.53
545.679	29044.46
545.879	28888.82
546.079	28532.47
546.28	29034.22
546.48	29046.51
546.68	28868.34
546.88	29019.89
547.08	29142.77
547.28	28907.25
547.48	28475.13
547.68	29044.46
547.88	28698.36
548.081	29126.38
548.281	28716.79
548.481	28612.34
548.681	28847.86
548.881	29105.9
549.081	28210.94
549.28	28727.03
549.48	29007.6
549.68	28710.64
549.88	29083.37
550.08	28565.24
550.28	29023.98
550.48	28823.28
550.68	28813.04
550.88	28610.29
551.08	28843.76
551.279	28788.47
551.479	28772.08
551.679	28976.88
551.879	28579.57
552.079	28933.87
552.278	28503.8
552.478	28436.22
552.678	28614.39
552.878	28880.63
553.077	28661.49
553.277	28747.51
553.477	29011.7
553.676	28565.24
553.876	28569.33
554.076	28684.02
554.275	28192.51
554.475	28247.8
554.674	28522.23
554.874	28507.9
555.074	28473.08
555.273	28739.32
555.473	28483.32
555.672	28606.2
555.872	28010.24
556.071	28251.9
556.271	28782.32
556.47	28497.66
556.67	27887.36
556.869	28501.75
557.068	28600.05
557.268	27731.72
557.467	28135.17
557.667	27969.28
557.866	28256
558.065	27961.09
558.265	27924.22
558.464	27776.77
558.663	27862.79
558.863	27602.69
559.062	28061.44
559.261	27688.71
559.461	28172.03
559.66	27449.1
559.859	27819.78
560.058	27330.31
560.258	27913.98
560.457	27399.94
560.656	27434.76
560.855	27318.03
561.054	27488.01
561.253	27260.68
561.453	27340.55
561.652	27297.55
561.851	27344.65
562.05	27229.96
562.249	27371.27
562.448	27367.18
562.647	27137.8
562.846	27035.41
563.045	27416.33
563.244	26967.82
563.443	27389.7
563.642	26793.75
563.841	26787.6
564.04	26449.69
564.239	27006.73
564.438	26470.17
564.637	26615.57
564.836	26418.97
565.035	26474.26
565.234	26810.13
565.432	26281.75
565.631	26547.99
565.83	26502.93
566.029	26369.82
566.228	26576.66
566.427	26203.93
566.625	26156.83
566.824	25693.99
567.023	26095.39
567.222	25603.88
567.42	26083.1
567.619	25773.86
567.818	25648.93
568.016	25906.98
568.215	25898.78
568.414	25511.72
568.612	25413.41
568.811	25468.71
569.01	25671.46
569.208	25343.78
569.407	25474.85
569.605	25155.37
569.804	25272.11
570.002	25012.01
570.201	25100.08
570.4	25018.16
570.598	24633.14
570.797	24657.71
570.995	24837.94
571.193	24457.01
571.392	24766.26
571.59	24151.87
571.789	24520.5
571.987	24319.8
572.186	24549.17
572.384	24196.92
572.582	24006.46
572.781	24295.22
572.979	24133.43
573.177	24121.15
573.376	24080.19
573.574	24031.04
573.772	23758.66
573.971	23768.9
574.169	23732.03
574.367	23662.4
574.565	23598.91
574.763	23637.83
574.962	23512.9
575.16	23312.2
575.358	23406.41
575.556	22902.61
575.754	23342.92
575.952	23211.85
576.151	23086.92
576.349	22892.37
576.547	22720.34
576.745	22787.92
576.943	22804.3
577.141	22671.18
577.339	22746.96
577.537	22660.94
577.735	22894.41
577.933	22622.03
578.131	22423.38
578.329	22165.34
578.527	22382.42
578.725	22058.84
578.923	22251.35
579.121	22083.42
579.319	22011.74
579.516	21958.49
579.714	22075.23
579.912	21591.91
580.11	21684.06
580.308	21700.45
580.506	21581.67
580.704	21307.24
580.901	21411.68
581.099	21550.95
581.297	21397.35
581.495	21208.94
581.692	21253.99
581.89	21135.21
582.088	21368.68
582.285	21034.86
582.483	21253.99
582.681	20842.35
582.878	20881.26
583.076	20696.94
583.274	21053.29
583.471	20508.53
583.669	20475.76
583.866	20625.26
584.064	20533.11
584.262	19912.57
584.459	20453.23
584.657	20445.04
584.854	20422.52
585.052	20182.9
585.249	20068.22
585.447	19883.9
585.644	19869.56
585.841	19906.43
586.039	19988.35
586.236	19869.56
586.434	19636.1
586.631	19746.69
586.828	19660.67
587.026	19720.06
587.223	19494.79
587.42	19144.58
587.618	19640.19
587.815	19468.16
588.012	19371.91
588.21	19109.77
588.407	19412.87
588.604	19298.18
588.801	19244.93
588.999	19279.75
589.196	19160.97
589.393	19144.58
589.59	18702.22
589.787	18984.84
589.984	18853.77
590.182	18753.42
590.379	18671.5
590.576	18640.78
590.773	18505.62
590.97	18433.94
591.167	18542.48
591.364	17952.66
591.561	18487.18
591.758	18069.4
591.955	18268.05
592.152	18284.44
592.349	18169.75
592.546	18182.04
592.743	17917.85
592.94	17682.33
593.137	17807.26
593.334	17876.89
593.531	17571.74
593.727	17504.16
593.924	17719.2
594.121	17588.13
594.318	17536.93
594.515	17362.85
594.712	17614.75
594.908	17502.11
595.105	17536.93
595.302	17389.47
595.499	17440.67
595.696	17379.23
595.892	17289.12
596.089	17160.1
596.286	17188.77
596.482	17221.54
596.679	16998.31
596.876	16809.9
597.072	16797.61
597.269	16926.63
597.466	16379.82
597.662	16537.52
597.859	16721.84
598.055	16709.55
598.252	16482.22
598.448	16719.79
598.645	16584.62
598.841	16242.61
599.038	16537.52
599.234	16156.6
599.431	16109.49
599.627	16072.63
599.824	16336.82
600.02	16015.29
600.217	16351.15
600.413	16132.02
600.609	15992.76
600.806	15945.66
601.002	15982.52
601.198	15695.8
601.395	15906.74
601.591	15566.78
601.787	15663.04
601.984	15380.42
602.18	15712.19
602.376	15450.05
602.572	15507.39
602.769	15511.49
602.965	15312.83
603.161	15333.31
603.357	15288.26
603.553	15218.63
603.75	15155.14
603.946	15124.42
604.142	15144.9
604.338	14927.81
604.534	15075.27
604.73	14780.36
604.926	14763.98
605.122	14946.25
605.318	14727.11
605.514	14710.73
605.71	14585.8
605.906	14733.26
606.102	14702.54
606.298	14499.79
606.494	14374.86
606.69	14362.58
606.886	14530.51
607.082	14342.1
607.278	14481.36
607.474	14133.2
607.67	14383.06
607.866	13873.11
608.062	14241.75
608.257	14094.29
608.453	14225.36
608.649	14157.78
608.845	14032.85
609.041	14063.57
609.236	13875.16
609.432	14110.68
609.628	13828.06
609.824	13543.39
610.019	13787.1
610.215	13527
610.411	13821.91
610.606	13852.63
610.802	13879.25
610.998	13760.47
611.193	13567.96
611.389	13283.3
611.584	13377.5
611.78	13291.49
611.976	13557.72
612.171	13242.34
612.367	13561.82
612.562	13311.97
612.758	13283.3
612.953	13051.88
613.149	13103.07
613.344	12969.96
613.539	13389.79
613.735	12951.53
613.93	13150.18
614.126	12972
614.321	13434.85
614.517	13092.83
614.712	13041.64
614.907	13088.74
615.103	12967.91
615.298	12929
615.493	13006.82
615.688	12713.96
615.884	12842.98
616.079	12691.43
616.274	12910.57
616.47	12873.7
616.665	12742.63
616.86	12689.39
617.055	12621.8
617.25	12668.91
617.445	12515.31
617.641	12236.78
617.836	12335.09
618.031	12324.85
618.226	12591.08
618.421	12240.88
618.616	12533.74
618.811	12103.67
619.006	12302.32
619.201	11851.77
619.396	12220.4
619.591	11862.01
619.786	11954.16
619.981	11708.41
620.176	12042.23
620.371	11831.29
620.566	11847.67
620.761	11626.49
620.956	11868.15
621.151	11524.09
621.346	11509.76
621.541	11268.09
621.735	11556.86
621.93	11196.42
622.125	11411.45
622.32	11198.46
622.515	11216.9
622.709	11386.88
622.904	11149.31
623.099	10924.04
623.294	11112.45
623.488	10752.01
623.683	10956.8
623.878	10635.27
624.072	10723.34
624.267	10692.62
624.462	10698.76
624.656	10534.92
624.851	10569.74
625.046	10532.87
625.24	10543.11
625.435	10528.78
625.629	10160.14
625.824	10098.7
626.018	10371.08
626.213	10201.1
626.407	10043.41
626.602	10092.56
626.796	10158.1
626.991	9969.68
627.185	9877.52
627.38	9760.79
627.574	9861.14
627.768	9545.75
627.963	9728.02
628.157	9418.78
628.352	9441.31
628.546	9594.9
628.74	9689.11
628.935	9504.79
629.129	9539.61
629.323	9345.05
629.517	9263.13
629.712	9031.71
629.906	9343
630.1	9029.66
630.294	8982.56
630.489	8935.46
630.683	8923.17
630.877	8908.83
631.071	8749.09
631.265	8910.88
631.459	8618.02
631.653	8736.81
631.848	8699.94
632.042	8796.2
632.236	8804.39
632.43	8575.02
632.624	8558.63
632.818	8439.85
633.012	8192.05
633.206	8390.7
633.4	8464.43
633.594	8249.39
633.788	8355.88
633.982	8149.04
634.176	8058.93
634.369	8110.13
634.563	8206.38
634.757	7936.05
634.951	8103.98
635.145	7966.77
635.339	7833.65
635.533	7690.29
635.726	7919.67
635.92	7628.85
636.114	7774.26
636.308	7661.62
636.501	7778.36
636.695	7704.63
636.889	7665.72
637.083	7659.57
637.276	7319.61
637.47	7467.06
637.664	7180.35
637.857	7452.73
638.051	7276.6
638.244	7360.57
638.438	7172.16
638.632	7174.21
638.825	7196.73
639.019	7127.1
639.212	7161.92
639.406	7024.7
639.599	7149.63
639.793	7024.7
639.986	6932.54
640.18	6944.83
640.373	6883.39
640.567	6817.86
640.76	6760.52
640.954	6862.91
641.147	6772.8
641.34	6568.01
641.534	6555.72
641.727	6660.17
641.92	6443.08
642.114	6621.25
642.307	6611.01
642.5	6469.7
642.694	6264.91
642.887	6283.34
643.08	6395.98
643.273	6324.3
643.467	6256.72
643.66	6117.45
643.853	6178.89
644.046	6135.89
644.239	6080.59
644.432	6006.86
644.626	5935.18
644.819	6008.91
645.012	5865.55
645.205	5855.31
645.398	5953.62
645.591	5808.21
645.784	5730.39
645.977	5699.67
646.17	5816.4
646.363	5609.56
646.556	5691.48
646.749	5761.11
646.942	5632.08
647.135	5425.24
647.328	5634.13
647.521	5541.97
647.714	5419.1
647.907	5533.78
648.099	5304.41
648.292	5228.63
648.485	5376.09
648.678	5283.93
648.871	5236.83
649.064	5328.99
649.256	5199.96
649.449	5171.29
649.642	5083.23
649.835	5105.76
650.027	4986.97
650.22	5013.6
650.413	5017.69
650.605	5027.93
650.798	4948.06
650.991	4954.21
651.183	4853.86
651.376	4845.66
651.568	4931.68
651.761	4841.57
651.954	4776.03
652.146	4714.59
652.339	4661.35
652.531	4675.68
652.724	4503.65
652.916	4454.5
653.109	4595.81
653.301	4661.35
653.494	4659.3
653.686	4548.71
653.879	4569.19
654.071	4413.54
654.263	4653.16
654.456	4470.89
654.648	4313.19
654.84	4401.26
655.033	4384.87
655.225	4513.89
655.417	4237.42
655.61	4419.69
655.802	4239.47
655.994	4196.46
656.186	4264.04
656.379	4077.68
656.571	4149.36
656.763	4132.97
656.955	4046.96
657.148	4089.96
657.34	4046.96
657.532	4055.15
657.724	3995.76
657.916	4104.3
658.108	3926.13
658.3	3962.99
658.492	3856.5
658.684	3891.31
658.876	3987.57
659.068	3778.67
659.26	3913.84
659.452	3885.17
659.644	3719.28
659.836	3776.63
660.028	3780.72
660.22	3651.7
660.412	3700.85
660.604	3659.89
660.796	3604.6
660.988	3684.47
661.18	3661.94
661.372	3604.6
661.563	3731.57
661.755	3571.83
661.947	3577.97
662.139	3510.39
662.331	3567.73
662.522	3547.25
662.714	3412.09
662.906	3432.57
663.097	3465.33
663.289	3313.78
663.481	3393.65
663.673	3336.31
663.864	3393.65
664.056	3248.25
664.247	3250.3
664.439	3217.53
664.631	3291.26
664.822	3233.91
665.014	3172.47
665.205	3281.02
665.397	3291.26
665.588	3205.24
665.78	3078.27
665.971	3092.6
666.163	3051.64
666.354	2982.01
666.546	3061.88
666.737	3051.64
666.929	3098.75
667.12	3151.99
667.311	2988.16
667.503	3035.26
667.694	2957.44
667.885	2912.38
668.077	2961.53
668.268	2908.29
668.459	2893.95
668.651	2896
668.842	2930.81
669.033	2832.51
669.224	2801.79
669.416	2906.24
669.607	2799.74
669.798	2945.15
669.989	2869.37
670.18	2676.87
670.371	2750.59
670.563	2756.74
670.754	2809.98
670.945	2818.18
671.136	2793.6
671.327	2838.66
671.518	2744.45
671.709	2644.1
671.9	2777.22
672.091	2627.71
672.282	2674.82
672.473	2728.07
672.664	2668.67
672.855	2537.6
673.046	2646.15
673.237	2812.03
673.428	2699.39
673.619	2666.63
673.809	2551.94
674	2658.43
674.191	2578.56
674.382	2521.22
674.573	2521.22
674.764	2513.03
674.954	2549.89
675.145	2586.76
675.336	2453.64
675.527	2447.49
675.717	2572.42
675.908	2470.02
676.099	2572.42
676.289	2549.89
676.48	2564.23
676.671	2367.62
676.861	2420.87
677.052	2467.97
677.243	2390.15
677.433	2361.48
677.624	2480.26
677.814	2400.39
678.005	2375.81
678.195	2472.07
678.386	2439.3
678.576	2404.49
678.767	2429.06
678.957	2316.42
679.148	2242.7
679.338	2316.42
679.529	2324.62
679.719	2254.98
679.909	2314.38
680.1	2349.19
680.29	2322.57
680.481	2406.53
680.671	2386.05
680.861	2316.42
681.052	2252.94
681.242	2326.66
681.432	2238.6
681.622	2187.4
681.813	2259.08
682.003	2293.9
682.193	2254.98
682.383	2271.37
682.573	2347.14
682.764	2297.99
682.954	2287.75
683.144	2322.57
683.334	2138.25
683.524	2144.39
683.714	2269.32
683.904	2132.11
684.094	2168.97
684.284	2101.39
684.474	2246.79
684.664	2250.89
684.854	2201.74
685.044	2263.18
685.234	2123.91
685.424	2138.25
685.614	2261.13
685.804	2248.84
685.994	2042
686.184	2226.31
686.374	2152.59
686.564	2128.01
686.753	2289.8
686.943	2085
687.133	2148.49
687.323	2132.11
687.513	2080.91
687.702	2111.63
687.892	2093.19
688.082	2138.25
688.272	2171.02
688.461	2062.48
688.651	2091.15
688.841	2134.15
689.03	2025.61
689.22	2203.79
689.41	2027.66
689.599	2115.72
689.789	2152.59
689.979	2052.24
690.168	2078.86
690.358	2091.15
690.547	2123.91
690.737	2021.52
690.926	2019.47
691.116	1968.27
691.305	2068.62
691.495	2099.34
691.684	2072.72
691.874	2076.81
692.063	2029.71
692.252	2001.04
692.442	2146.44
692.631	2001.04
692.82	2085
693.01	2109.58
693.199	2023.56
693.388	2080.91
693.578	2048.14
693.767	1988.75
693.956	2046.09
694.146	1982.6
694.335	1921.17
694.524	2044.04
694.713	1941.65
694.902	2099.34
695.092	2027.66
695.281	1964.17
695.47	2027.66
695.659	1986.7
695.848	2003.08
696.037	2054.28
696.226	2033.8
696.415	1978.51
696.604	2070.67
696.793	2015.37
696.982	1984.65
697.171	2013.32
697.36	1958.03
697.549	2017.42
697.738	2025.61
697.927	2017.42
698.116	1970.32
698.305	1966.22
698.494	2019.47
698.683	2105.48
698.872	2048.14
699.061	2003.08
699.25	2025.61
699.438	1988.75
699.627	1984.65
699.816	1890.45
700.005	2019.47
700.193	1882.25
700.382	1972.36
700.571	1972.36
700.76	2042
700.948	2103.43
701.137	2019.47
701.326	2027.66
701.514	1990.8
701.703	1939.6
701.892	1898.64
702.08	2054.28
702.269	1933.45
702.457	1939.6
702.646	1904.78
702.834	1955.98
703.023	1841.29
703.212	1968.27
703.4	1982.6
703.589	1845.39
703.777	1994.89
703.965	1865.87
704.154	1990.8
704.342	1923.21
704.531	1902.73
704.719	1933.45
704.907	2091.15
705.096	1820.81
705.284	1929.36
705.472	1853.58
705.661	1878.16
705.849	1882.25
706.037	1919.12
706.226	1972.36
706.414	1923.21
706.602	1874.06
706.79	1945.74
706.979	1863.82
707.167	1900.69
707.355	1898.64
707.543	1859.73
707.731	2027.66
707.919	1857.68
708.107	1876.11
708.296	1919.12
708.484	1917.07
708.672	1890.45
708.86	1896.59
709.048	1843.34
709.236	1779.86
709.424	1867.92
709.612	1722.51
709.8	1822.86
709.988	1824.91
710.176	1745.04
710.364	1738.9
710.551	1779.86
710.739	1781.9
710.927	1728.66
711.115	1808.53
711.303	1781.9
711.491	1704.08
711.679	1728.66
711.866	1708.18
712.054	1706.13
712.242	1775.76
712.43	1712.27
712.617	1659.03
712.805	1738.9
712.993	1579.15
713.181	1786
713.368	1851.53
713.556	1714.32
713.744	1767.57
713.931	1736.85
714.119	1659.03
714.306	1681.55
714.494	1679.51
714.682	1724.56
714.869	1699.98
715.057	1712.27
715.244	1689.74
715.432	1714.32
715.619	1742.99
715.807	1638.55
715.994	1575.06
716.182	1738.9
716.369	1702.03
716.556	1560.72
716.744	1597.59
716.931	1671.31
717.119	1693.84
717.306	1624.21
717.493	1622.16
717.681	1677.46
717.868	1603.73
718.055	1579.15
718.242	1581.2
718.43	1468.56
718.617	1525.91
718.804	1560.72
718.991	1661.07
719.179	1536.15
719.366	1472.66
719.553	1493.14
719.74	1570.96
719.927	1562.77
720.114	1593.49
720.301	1466.52
720.488	1476.76
720.676	1570.96
720.863	1480.85
721.05	1435.8
721.237	1472.66
721.424	1579.15
721.611	1458.32
721.798	1530
721.985	1507.48
722.172	1435.8
722.358	1454.23
722.545	1482.9
722.732	1482.9
722.919	1470.61
723.106	1456.28
723.293	1382.55
723.48	1437.84
723.667	1476.76
723.853	1454.23
724.04	1519.76
724.227	1417.37
724.414	1482.9
724.6	1390.74
724.787	1435.8
724.974	1325.21
725.161	1474.71
725.347	1476.76
725.534	1423.51
725.72	1351.83
725.907	1411.22
726.094	1345.69
726.28	1374.36
726.467	1439.89
726.653	1384.6
726.84	1388.69
727.027	1392.79
727.213	1317.01
727.4	1388.69
727.586	1409.17
727.773	1388.69
727.959	1255.58
728.145	1327.25
728.332	1415.32
728.518	1296.53
728.705	1362.07
728.891	1308.82
729.077	1317.01
729.264	1245.34
729.45	1331.35
729.636	1245.34
729.823	1235.1
730.009	1259.67
730.195	1267.86
730.382	1261.72
730.568	1300.63
730.754	1177.75
730.94	1323.16
731.126	1214.62
731.313	1257.62
731.499	1224.86
731.685	1194.14
731.871	1202.33
732.057	1235.1
732.243	1151.13
732.429	1249.43
732.615	1216.66
732.801	1237.14
732.987	1173.66
733.173	1306.77
733.359	1228.95
733.545	1185.94
733.731	1153.18
733.917	1274.01
734.103	1269.91
734.289	1231
734.475	1132.7
734.661	1259.67
734.847	1128.6
735.033	1181.85
735.219	1243.29
735.404	1282.2
735.59	1245.34
735.776	1190.04
735.962	1216.66
736.148	1179.8
736.333	1235.1
736.519	1157.27
736.705	1128.6
736.89	1120.41
737.076	1157.27
737.262	1159.32
737.447	1048.73
737.633	1155.23
737.819	1132.7
738.004	1192.09
738.19	1136.79
738.375	1114.27
738.561	1147.03
738.747	1138.84
738.932	1157.27
739.118	1085.59
739.303	1020.06
739.489	1194.14
739.674	1079.45
739.859	1091.74
740.045	1048.73
740.23	1093.79
740.416	1073.31
740.601	1108.12
740.786	1030.3
740.972	1018.01
741.157	1050.78
741.342	1063.07
741.528	1106.07
741.713	1075.35
741.898	975
742.084	1077.4
742.269	1108.12
742.454	987.29
742.639	1052.83
742.824	1046.68
743.01	1069.21
743.195	968.86
743.38	1001.63
743.565	1018.01
743.75	962.72
743.935	946.33
744.12	1032.35
744.305	927.9
744.49	975
744.675	913.56
744.86	1028.25
745.045	1028.25
745.23	929.95
745.415	991.39
745.6	915.61
745.785	948.38
745.97	938.14
746.155	999.58
746.34	966.81
746.525	882.85
746.71	1013.92
746.895	964.76
747.079	936.09
747.264	833.69
747.449	899.23
747.634	866.46
747.819	858.27
748.003	813.21
748.188	868.51
748.373	850.08
748.557	850.08
748.742	856.22
748.927	932
749.111	880.8
749.296	802.97
749.481	919.71
749.665	909.47
749.85	856.22
750.034	802.97
750.219	817.31
750.404	856.22
750.588	745.63
750.773	903.32
750.957	733.34
751.141	725.15
751.326	807.07
751.51	837.79
751.695	850.08
751.879	741.54
752.064	712.86
752.248	770.21
752.432	743.58
752.617	852.13
752.801	790.69
752.985	573.6
753.17	843.93
753.354	671.9
753.538	739.49
753.722	698.53
753.907	725.15
754.091	694.43
754.275	723.1
754.459	680.1
754.643	708.77
754.828	686.24
755.012	700.58
755.196	747.68
755.38	628.9
755.564	673.95
755.748	690.34
755.932	612.51
756.116	639.14
756.3	610.47
756.484	661.66
756.668	612.51
756.852	628.9
757.036	649.38
757.22	602.27
757.404	682.14
757.588	585.89
757.772	598.18
757.956	635.04
758.14	610.47
758.323	632.99
758.507	630.95
758.691	616.61
758.875	614.56
759.059	622.75
759.242	557.22
759.426	663.71
759.61	538.79
759.794	549.03
759.977	501.92
760.161	624.8
760.345	557.22
760.528	583.84
760.712	526.5
760.895	579.75
761.079	532.64
761.263	587.94
761.446	546.98
761.63	614.56
761.813	622.75
761.997	467.11
762.18	557.22
762.364	520.35
762.547	522.4
762.731	499.88
762.914	532.64
763.098	575.65
763.281	501.92
763.464	542.88
763.648	602.27
763.831	485.54
764.015	557.22
764.198	387.24
764.381	526.5
764.564	477.35
764.748	524.45
764.931	555.17
765.114	522.4
765.297	485.54
765.481	506.02
765.664	483.49
765.847	528.55
766.03	475.3
766.213	428.2
766.397	446.63
766.58	463.01
766.763	469.16
766.946	503.97
767.129	524.45
767.312	438.44
767.495	481.44
767.678	503.97
767.861	438.44
768.044	467.11
768.227	467.11
768.41	436.39
768.593	483.49
768.776	499.88
768.959	489.64
769.142	424.1
769.324	522.4
769.507	458.92
769.69	424.1
769.873	417.96
770.056	436.39
770.239	485.54
770.421	475.3
770.604	399.52
770.787	497.83
770.97	385.19
771.152	428.2
771.335	397.48
771.518	399.52
771.7	399.52
771.883	362.66
772.066	415.91
772.248	428.2
772.431	446.63
772.613	395.43
772.796	465.06
772.978	374.95
773.161	434.34
773.343	413.86
773.526	354.47
773.708	458.92
773.891	346.28
774.073	452.77
774.256	454.82
774.438	379.04
774.621	354.47
774.803	454.82
774.985	360.61
775.168	379.04
775.35	395.43
775.532	370.85
775.715	342.18
775.897	426.15
776.079	391.33
776.261	344.23
776.444	295.08
776.626	366.76
776.808	383.14
776.99	405.67
777.173	338.09
777.355	389.28
777.537	399.52
777.719	305.32
777.901	319.65
778.083	344.23
778.265	350.37
778.447	336.04
778.629	327.85
778.811	350.37
778.993	282.79
779.175	329.89
779.357	364.71
779.539	356.52
779.721	333.99
779.903	250.02
780.085	379.04
780.267	340.13
780.449	301.22
780.631	258.21
780.812	297.13
780.994	325.8
781.176	274.6
781.358	333.99
781.54	356.52
781.721	229.54
781.903	327.85
782.085	260.26
782.267	397.48
782.448	284.84
782.63	247.97
782.812	370.85
782.993	344.23
783.175	209.06
783.357	342.18
783.538	290.98
783.72	247.97
783.901	268.45
784.083	237.74
784.264	295.08
784.446	221.35
784.627	229.54
784.809	223.4
784.99	250.02
785.172	202.92
785.353	311.46
785.535	239.78
785.716	235.69
785.897	258.21
786.079	213.16
786.26	282.79
786.441	245.93
786.623	219.3
786.804	239.78
786.985	245.93
787.167	245.93
787.348	174.25
787.529	274.6
787.71	184.49
787.891	215.21
788.073	176.3
788.254	235.69
788.435	223.4
788.616	217.26
788.797	200.87
788.978	239.78
789.159	192.68
789.34	157.86
789.522	168.1
789.703	123.05
789.884	243.88
790.065	211.11
790.246	260.26
790.427	213.16
790.607	186.54
790.788	172.2
790.969	143.53
791.15	184.49
791.331	200.87
791.512	190.63
791.693	161.96
791.874	133.29
792.054	213.16
792.235	196.78
792.416	186.54
792.597	180.39
792.778	200.87
792.958	118.95
793.139	213.16
793.32	131.24
793.5	133.29
793.681	223.4
793.862	211.11
794.042	135.34
794.223	157.86
794.404	172.2
794.584	133.29
794.765	82.09
794.945	184.49
795.126	151.72
795.306	166.06
795.487	178.34
795.667	194.73
795.848	229.54
796.028	233.64
796.209	112.81
796.389	184.49
796.57	143.53
796.75	121
796.93	155.82
797.111	108.71
797.291	123.05
797.471	178.34
797.652	180.39
797.832	196.78
798.012	92.33
798.192	151.72
798.373	110.76
798.553	143.53
798.733	192.68
798.913	114.86
799.093	127.14
799.274	92.33
799.454	104.62
799.634	67.75
799.814	57.51
799.994	164.01
800.174	200.87
800.354	137.38
800.534	200.87
800.714	135.34
800.894	121
801.074	153.77
801.254	45.23
801.434	63.66
801.614	129.19
801.794	127.14
801.974	305.32
802.154	67.75
802.334	94.38
802.514	153.77
802.693	102.57
802.873	116.9
803.053	116.9
803.233	57.51
803.413	110.76
803.592	133.29
803.772	90.28
803.952	53.42
804.131	90.28
804.311	61.61
804.491	94.38
804.67	88.23
804.85	149.67
805.03	63.66
805.209	186.54
805.389	104.62
805.568	96.43
805.748	82.09
805.928	110.76
806.107	125.1
806.287	53.42
806.466	96.43
806.646	98.47
806.825	20.65
807.004	112.81
807.184	116.9
807.363	123.05
807.543	94.38
807.722	129.19
807.901	67.75
808.081	92.33
808.26	71.85
808.439	112.81
808.619	94.38
808.798	133.29
808.977	82.09
809.156	86.19
809.336	77.99
809.515	98.47
809.694	82.09
809.873	145.58
810.052	77.99
810.231	80.04
810.411	90.28
810.59	65.71
810.769	170.15
810.948	129.19
811.127	139.43
811.306	96.43
811.485	77.99
811.664	47.27
811.843	131.24
812.022	32.94
812.201	114.86
812.38	55.47
812.559	-5.97
812.737	34.99
812.916	123.05
813.095	53.42
813.274	67.75
813.453	16.55
813.632	18.6
813.811	114.86
813.989	61.61
814.168	69.8
814.347	6.31
814.526	112.81
814.704	61.61
814.883	71.85
815.062	94.38
815.24	104.62
815.419	73.9
815.598	100.52
815.776	100.52
815.955	94.38
816.133	49.32
816.312	67.75
816.49	69.8
816.669	92.33
816.847	2.22
817.026	75.95
817.204	0.17
817.383	30.89
817.561	98.47
817.74	96.43
817.918	75.95
818.097	80.04
818.275	20.65
818.453	80.04
818.632	82.09
818.81	-69.46
818.988	86.19
819.167	102.57
819.345	71.85
819.523	65.71
819.701	73.9
819.879	10.41
820.058	53.42
820.236	-8.02
820.414	75.95
820.592	112.81
820.77	65.71
820.948	80.04
821.127	157.86
821.305	94.38
821.483	34.99
821.661	84.14
821.839	28.84
822.017	18.6
822.195	174.25
822.373	86.19
822.551	75.95
822.729	149.67
822.907	96.43
823.085	96.43
823.262	-14.17
823.44	20.65
823.618	-38.74
823.796	129.19
823.974	-10.07
824.152	108.71
824.329	108.71
824.507	-26.45
824.685	-5.97
824.863	37.03
825.04	143.53
825.218	84.14
825.396	43.18
825.574	63.66
825.751	71.85
825.929	-18.26
826.107	43.18
826.284	20.65
826.462	104.62
826.639	28.84
826.817	51.37
826.994	30.89
827.172	4.27
827.349	22.7
827.527	65.71
827.704	110.76
827.882	41.13
828.059	92.33
828.237	100.52
828.414	32.94
828.591	49.32
828.769	45.23
828.946	26.79
829.124	-53.08
829.301	47.27
829.478	57.51
829.655	41.13
829.833	18.6
830.01	-5.97
830.187	86.19
830.364	-44.88
830.542	41.13
830.719	20.65
830.896	12.46
831.073	94.38
831.25	32.94
831.427	-34.64
831.604	-38.74
831.782	2.22
831.959	71.85
832.136	-1.88
832.313	49.32
832.49	-16.21
832.667	43.18
832.844	20.65
833.021	53.42
833.198	63.66
833.374	-12.12
833.551	-16.21
833.728	82.09
833.905	82.09
834.082	37.03
834.259	10.41
834.436	43.18
834.612	55.47
834.789	49.32
834.966	43.18
835.143	133.29
835.319	-30.55
835.496	143.53
835.673	43.18
835.85	34.99
836.026	-10.07
836.203	-12.12
836.38	41.13
836.556	-20.31
836.733	32.94
836.909	39.08
837.086	10.41
837.262	43.18
837.439	-36.69
837.616	-3.93
837.792	43.18
837.968	57.51
838.145	43.18
838.321	39.08
838.498	51.37
838.674	41.13
838.851	32.94
839.027	65.71
839.203	-14.17
839.38	45.23
839.556	-10.07
839.732	28.84
839.909	-16.21
840.085	18.6
840.261	-10.07
840.437	55.47
840.614	0.17
840.79	-10.07
840.966	45.23
841.142	16.55
841.318	12.46
841.494	77.99
841.671	51.37
841.847	-26.45
842.023	-8.02
842.199	14.51
842.375	57.51
842.551	59.56
842.727	-32.6
842.903	108.71
843.079	55.47
843.255	-61.27
843.431	2.22
843.607	53.42
843.783	16.55
843.959	-77.65
844.134	20.65
844.31	39.08
844.486	-8.02
844.662	4.27
844.838	55.47
845.013	2.22
845.189	0.17
845.365	57.51
845.541	116.9
845.716	34.99
845.892	-16.21
846.068	6.31
846.244	45.23
846.419	-44.88
846.595	-5.97
846.77	26.79
846.946	57.51
847.122	32.94
847.297	4.27
847.473	0.17
847.648	41.13
847.824	55.47
847.999	20.65
848.175	-3.93
848.35	-30.55
848.526	100.52
848.701	39.08
848.876	12.46
849.052	16.55
849.227	-8.02
849.403	24.75
849.578	-22.36
849.753	-12.12
849.929	51.37
850.104	-38.74
850.279	82.09
850.454	45.23
850.63	63.66
850.805	16.55
850.98	-28.5
851.155	-36.69
851.33	61.61
851.505	16.55
851.681	28.84
851.856	-14.17
852.031	37.03
852.206	4.27
852.381	94.38
852.556	6.31
852.731	41.13
852.906	-44.88
853.081	-38.74
853.256	34.99
853.431	51.37
853.606	61.61
853.781	6.31
853.956	-48.98
854.131	0.17
854.305	-24.4
854.48	63.66
854.655	-34.64
854.83	-42.84
855.005	-16.21
855.18	-22.36
855.354	30.89
855.529	-40.79
855.704	28.84
855.879	63.66
856.053	28.84
856.228	88.23
856.403	-5.97
856.577	43.18
856.752	-16.21
856.926	24.75
857.101	16.55
857.276	-12.12
857.45	-5.97
857.625	14.51
857.799	45.23
857.974	51.37
858.148	75.95
858.323	12.46
858.497	6.31
858.672	-36.69
858.846	47.27
859.02	0.17
859.195	10.41
859.369	14.51
859.543	18.6
859.718	-1.88
859.892	22.7
860.066	77.99
860.241	0.17
860.415	2.22
860.589	-20.31
860.763	28.84
860.938	2.22
861.112	8.36
861.286	98.47
861.46	45.23
861.634	6.31
861.808	26.79
861.982	39.08
862.157	30.89
862.331	47.27
862.505	63.66
862.679	-46.93
862.853	-3.93
863.027	-12.12
863.201	90.28
863.375	10.41
863.549	39.08
863.722	-38.74
863.896	-18.26
864.07	-18.26
864.244	61.61
864.418	-57.17
864.592	51.37
864.766	2.22
864.939	-24.4
865.113	-24.4
865.287	39.08
865.461	39.08
865.634	-26.45
865.808	10.41
865.982	32.94
866.156	77.99
866.329	10.41
866.503	-16.21
866.676	30.89
866.85	8.36
867.024	77.99
867.197	-5.97
867.371	2.22
867.544	-26.45
867.718	18.6
867.891	-48.98
868.065	-69.46
868.238	-12.12
868.412	14.51
868.585	-44.88
868.759	-3.93
868.932	-16.21
869.105	16.55
869.279	14.51
869.452	28.84
869.625	-5.97
869.799	77.99
869.972	-46.93
870.145	-38.74
870.319	24.75
870.492	-48.98
870.665	-14.17
870.838	41.13
871.011	-16.21
871.185	-20.31
871.358	-26.45
871.531	-51.03
871.704	-40.79
871.877	55.47
872.05	71.85
872.223	-5.97
872.396	-1.88
872.569	-28.5
872.742	-1.88
872.915	-106.32
873.088	0.17
873.261	-36.69
873.434	-30.55
873.607	-20.31
873.78	43.18
873.953	10.41
874.126	8.36
874.299	-55.12
874.471	-16.21
874.644	14.51
874.817	0.17
874.99	6.31
875.163	39.08
875.335	37.03
875.508	-42.84
875.681	12.46
875.853	30.89
876.026	-20.31
876.199	-12.12
876.371	-12.12
876.544	84.14
876.717	12.46
876.889	-3.93
877.062	28.84
877.234	32.94
877.407	18.6
877.579	-14.17
877.752	45.23
877.924	24.75
878.097	12.46
878.269	-16.21
878.442	22.7
878.614	-53.08
878.786	12.46
878.959	-34.64
879.131	32.94
879.303	65.71
879.476	-26.45
879.648	10.41
879.82	2.22
879.993	77.99
880.165	43.18
880.337	-14.17
880.509	57.51
880.681	-46.93
880.854	-3.93
881.026	-26.45
881.198	102.57
881.37	-63.32
881.542	-38.74
881.714	-53.08
881.886	-12.12
882.058	-73.56
882.23	-30.55
882.402	16.55
882.574	37.03
882.746	80.04
882.918	90.28
883.09	-3.93
883.262	32.94
883.434	-51.03
883.606	30.89
883.778	-18.26
883.95	51.37
884.122	-59.22
884.293	47.27
884.465	-24.4
884.637	-28.5
884.809	-46.93
884.98	-16.21
885.152	-67.41
885.324	-22.36
885.496	-18.26
885.667	39.08
885.839	-12.12
886.011	-14.17
886.182	43.18
886.354	-63.32
886.525	-57.17
886.697	75.95
886.869	32.94
887.04	-8.02
887.212	6.31
887.383	45.23
887.555	90.28
887.726	-42.84
887.897	-51.03
888.069	-5.97
888.24	34.99
888.412	82.09
888.583	12.46
888.754	20.65
888.926	30.89
889.097	4.27
889.268	-1.88
889.44	-3.93
889.611	28.84
889.782	0.17
889.953	0.17
890.125	-14.17
890.296	24.75
890.467	10.41
890.638	-34.64
890.809	12.46
890.98	-53.08
891.151	-12.12
891.323	-26.45
891.494	18.6
891.665	-53.08
891.836	32.94
892.007	-16.21
892.178	-20.31
892.349	0.17
892.52	10.41
892.691	-44.88
892.862	-3.93
893.032	-61.27
893.203	-73.56
893.374	24.75
893.545	-55.12
893.716	-40.79
893.887	55.47
894.057	6.31
894.228	-28.5
894.399	10.41
894.57	84.14
894.74	-51.03
894.911	-34.64
895.082	63.66
895.253	4.27
895.423	-40.79
895.594	-34.64
895.764	8.36
895.935	37.03
896.106	24.75
896.276	14.51
896.447	43.18
896.617	-18.26
896.788	0.17
896.958	-26.45
897.129	-36.69
897.299	-30.55
897.47	-3.93
897.64	45.23
897.81	-28.5
897.981	-61.27
898.151	0.17
898.322	75.95
898.492	-12.12
898.662	8.36
898.832	-40.79
899.003	-12.12
899.173	37.03
899.343	28.84
899.513	0.17
