Data from USB4F104151__143__13-58-15-776.txt Node

Date: Thu Mar 13 13:58:15 EDT 2025
User: louis
Spectrometer: USB4F10415
Trigger mode: 4
Integration Time (sec): 1.000000E-2
Scans to average: 1
Electric dark correction enabled: true
Nonlinearity correction enabled: false
Boxcar width: 0
XAxis mode: Wavelengths
Number of Pixels in Spectrum: 3648
>>>>>Begin Spectral Data<<<<<
178.204	-50.35
178.424	-50.35
178.644	-50.35
178.864	-23.72
179.084	-11.43
179.304	21.33
179.524	-11.43
179.744	-31.91
179.964	41.81
180.184	-9.39
180.404	19.29
180.624	-27.82
180.844	76.63
181.064	-76.97
181.283	7
181.503	-25.77
181.723	17.24
181.943	-48.3
182.163	7
182.383	9.05
182.602	9.05
182.822	25.43
183.042	-1.19
183.262	99.16
183.482	17.24
183.701	-13.48
183.921	2.9
184.141	37.72
184.361	97.11
184.58	21.33
184.8	-48.3
185.02	74.58
185.239	-27.82
185.459	-33.96
185.679	41.81
185.898	-13.48
186.118	15.19
186.338	109.4
186.557	-19.63
186.777	29.52
186.997	9.05
187.216	-31.91
187.436	58.2
187.655	41.81
187.875	47.96
188.095	17.24
188.314	62.29
188.534	72.53
188.753	-29.87
188.973	-27.82
189.192	58.2
189.412	21.33
189.631	-23.72
189.851	35.67
190.07	47.96
190.29	4.95
190.509	66.39
190.729	27.48
190.948	78.68
191.168	35.67
191.387	62.29
191.607	19.29
191.826	78.68
192.045	-3.24
192.265	-76.97
192.484	-25.77
192.704	70.48
192.923	2.9
193.142	68.44
193.362	86.87
193.581	74.58
193.8	2.9
194.02	39.76
194.239	-33.96
194.458	15.19
194.678	17.24
194.897	21.33
195.116	93.01
195.335	-46.25
195.555	-72.87
195.774	21.33
195.993	-56.49
196.212	80.72
196.432	21.33
196.651	41.81
196.87	-13.48
197.089	33.62
197.308	50
197.528	50
197.747	9.05
197.966	-15.53
198.185	35.67
198.404	82.77
198.623	43.86
198.842	-54.44
199.062	11.09
199.281	-66.73
199.5	45.91
199.719	-19.63
199.938	-33.96
200.157	68.44
200.376	64.34
200.595	70.48
200.814	13.14
201.033	-29.87
201.252	-44.2
201.471	66.39
201.69	68.44
201.909	25.43
202.128	37.72
202.347	37.72
202.566	27.48
202.785	29.52
203.004	-21.67
203.223	33.62
203.442	11.09
203.661	9.05
203.879	84.82
204.098	127.83
204.317	7
204.536	121.68
204.755	45.91
204.974	27.48
205.193	23.38
205.411	-46.25
205.63	-1.19
205.849	43.86
206.068	0.85
206.287	64.34
206.505	80.72
206.724	47.96
206.943	-7.34
207.162	54.1
207.381	-1.19
207.599	41.81
207.818	-27.82
208.037	56.15
208.255	39.76
208.474	78.68
208.693	68.44
208.911	41.81
209.13	82.77
209.349	35.67
209.567	66.39
209.786	113.49
210.005	11.09
210.223	-27.82
210.442	-38.06
210.661	23.38
210.879	-13.48
211.098	78.68
211.316	-46.25
211.535	131.92
211.753	78.68
211.972	60.24
212.191	25.43
212.409	95.06
212.628	-15.53
212.846	15.19
213.065	41.81
213.283	58.2
213.502	35.67
213.72	23.38
213.938	-33.96
214.157	41.81
214.375	39.76
214.594	23.38
214.812	50
215.031	37.72
215.249	68.44
215.467	2.9
215.686	2.9
215.904	43.86
216.122	-13.48
216.341	31.57
216.559	64.34
216.778	80.72
216.996	58.2
217.214	58.2
217.432	80.72
217.651	0.85
217.869	52.05
218.087	82.77
218.306	31.57
218.524	76.63
218.742	80.72
218.96	13.14
219.179	58.2
219.397	-25.77
219.615	56.15
219.833	19.29
220.051	2.9
220.27	66.39
220.488	-27.82
220.706	39.76
220.924	-17.58
221.142	29.52
221.36	19.29
221.578	41.81
221.796	41.81
222.015	-81.07
222.233	43.86
222.451	-33.96
222.669	7
222.887	25.43
223.105	-56.49
223.323	56.15
223.541	45.91
223.759	-38.06
223.977	7
224.195	13.14
224.413	15.19
224.631	9.05
224.849	-27.82
225.067	-40.11
225.285	35.67
225.503	78.68
225.721	9.05
225.939	-23.72
226.157	52.05
226.375	17.24
226.592	58.2
226.81	-9.39
227.028	68.44
227.246	74.58
227.464	52.05
227.682	11.09
227.9	60.24
228.117	-23.72
228.335	37.72
228.553	58.2
228.771	117.59
228.989	11.09
229.206	19.29
229.424	11.09
229.642	52.05
229.86	-3.24
230.077	52.05
230.295	62.29
230.513	-9.39
230.731	47.96
230.948	39.76
231.166	9.05
231.384	-7.34
231.601	54.1
231.819	-27.82
232.037	64.34
232.254	-7.34
232.472	15.19
232.689	37.72
232.907	33.62
233.125	-5.29
233.342	27.48
233.56	50
233.777	70.48
233.995	45.91
234.213	90.96
234.43	27.48
234.648	27.48
234.865	2.9
235.083	72.53
235.3	23.38
235.518	31.57
235.735	9.05
235.953	39.76
236.17	-13.48
236.388	-19.63
236.605	-62.63
236.822	60.24
237.04	-48.3
237.257	37.72
237.475	15.19
237.692	7
237.909	31.57
238.127	39.76
238.344	86.87
238.562	121.68
238.779	74.58
238.996	47.96
239.214	-58.54
239.431	-7.34
239.648	29.52
239.865	66.39
240.083	19.29
240.3	60.24
240.517	9.05
240.735	52.05
240.952	45.91
241.169	39.76
241.386	50
241.603	64.34
241.821	70.48
242.038	25.43
242.255	35.67
242.472	11.09
242.689	-17.58
242.907	-15.53
243.124	11.09
243.341	117.59
243.558	17.24
243.775	13.14
243.992	35.67
244.209	80.72
244.426	54.1
244.643	115.54
244.86	27.48
245.078	-40.11
245.295	70.48
245.512	45.91
245.729	11.09
245.946	58.2
246.163	58.2
246.38	21.33
246.597	111.44
246.814	148.31
247.031	2.9
247.248	9.05
247.464	-13.48
247.681	58.2
247.898	-27.82
248.115	-7.34
248.332	60.24
248.549	62.29
248.766	39.76
248.983	35.67
249.2	11.09
249.417	84.82
249.633	11.09
249.85	82.77
250.067	103.25
250.284	-11.43
250.501	43.86
250.717	35.67
250.934	-15.53
251.151	84.82
251.368	47.96
251.585	68.44
251.801	60.24
252.018	39.76
252.235	25.43
252.451	11.09
252.668	64.34
252.885	52.05
253.102	25.43
253.318	37.72
253.535	-13.48
253.752	-33.96
253.968	62.29
254.185	43.86
254.401	4.95
254.618	66.39
254.835	9.05
255.051	45.91
255.268	60.24
255.484	-31.91
255.701	4.95
255.917	-15.53
256.134	37.72
256.351	-11.43
256.567	50
256.784	-46.25
257	-19.63
257.217	93.01
257.433	-3.24
257.65	103.25
257.866	11.09
258.082	31.57
258.299	-19.63
258.515	97.11
258.732	50
258.948	35.67
259.165	39.76
259.381	37.72
259.597	62.29
259.814	19.29
260.03	-9.39
260.246	35.67
260.463	4.95
260.679	82.77
260.895	95.06
261.112	19.29
261.328	45.91
261.544	90.96
261.761	80.72
261.977	-13.48
262.193	-3.24
262.409	33.62
262.626	80.72
262.842	23.38
263.058	4.95
263.274	21.33
263.49	-17.58
263.707	31.57
263.923	37.72
264.139	-31.91
264.355	37.72
264.571	50
264.787	54.1
265.004	-31.91
265.22	-7.34
265.436	113.49
265.652	33.62
265.868	88.92
266.084	52.05
266.3	4.95
266.516	60.24
266.732	76.63
266.948	-3.24
267.164	31.57
267.38	4.95
267.596	15.19
267.812	47.96
268.028	52.05
268.244	62.29
268.46	78.68
268.676	11.09
268.892	-7.34
269.108	86.87
269.324	33.62
269.54	4.95
269.756	84.82
269.972	64.34
270.188	19.29
270.403	64.34
270.619	-44.2
270.835	64.34
271.051	99.16
271.267	7
271.483	4.95
271.698	74.58
271.914	29.52
272.13	7
272.346	107.35
272.562	52.05
272.777	-33.96
272.993	52.05
273.209	47.96
273.425	64.34
273.64	-11.43
273.856	11.09
274.072	62.29
274.287	82.77
274.503	25.43
274.719	45.91
274.934	27.48
275.15	99.16
275.366	-7.34
275.581	45.91
275.797	50
276.012	-21.67
276.228	-52.39
276.444	23.38
276.659	-7.34
276.875	-38.06
277.09	13.14
277.306	37.72
277.521	68.44
277.737	9.05
277.952	17.24
278.168	78.68
278.383	-15.53
278.599	17.24
278.814	0.85
279.03	-19.63
279.245	43.86
279.461	62.29
279.676	58.2
279.892	52.05
280.107	19.29
280.322	-40.11
280.538	80.72
280.753	29.52
280.969	47.96
281.184	11.09
281.399	72.53
281.615	35.67
281.83	52.05
282.045	31.57
282.26	41.81
282.476	47.96
282.691	-5.29
282.906	9.05
283.122	-13.48
283.337	-17.58
283.552	58.2
283.767	41.81
283.983	70.48
284.198	66.39
284.413	29.52
284.628	-38.06
284.843	78.68
285.058	25.43
285.274	90.96
285.489	15.19
285.704	62.29
285.919	37.72
286.134	-36.01
286.349	13.14
286.564	60.24
286.779	7
286.995	13.14
287.21	62.29
287.425	37.72
287.64	45.91
287.855	52.05
288.07	72.53
288.285	45.91
288.5	-1.19
288.715	21.33
288.93	29.52
289.145	58.2
289.36	39.76
289.575	111.44
289.79	45.91
290.004	23.38
290.219	35.67
290.434	66.39
290.649	-25.77
290.864	25.43
291.079	33.62
291.294	82.77
291.509	11.09
291.724	-50.35
291.938	56.15
292.153	41.81
292.368	19.29
292.583	80.72
292.798	47.96
293.012	23.38
293.227	4.95
293.442	-46.25
293.657	37.72
293.871	54.1
294.086	84.82
294.301	-5.29
294.516	86.87
294.73	13.14
294.945	4.95
295.16	31.57
295.374	-11.43
295.589	72.53
295.804	2.9
296.018	66.39
296.233	68.44
296.447	82.77
296.662	25.43
296.877	39.76
297.091	-3.24
297.306	60.24
297.52	21.33
297.735	56.15
297.949	9.05
298.164	-3.24
298.378	45.91
298.593	56.15
298.807	27.48
299.022	-9.39
299.236	66.39
299.451	-29.87
299.665	37.72
299.88	93.01
300.094	-9.39
300.309	4.95
300.523	27.48
300.737	-29.87
300.952	111.44
301.166	19.29
301.381	133.97
301.595	-1.19
301.809	19.29
302.024	45.91
302.238	68.44
302.452	52.05
302.667	74.58
302.881	-15.53
303.095	-25.77
303.309	68.44
303.524	19.29
303.738	33.62
303.952	-21.67
304.166	41.81
304.381	13.14
304.595	9.05
304.809	68.44
305.023	76.63
305.237	21.33
305.452	37.72
305.666	-44.2
305.88	31.57
306.094	60.24
306.308	41.81
306.522	29.52
306.736	25.43
306.95	35.67
307.164	101.2
307.379	19.29
307.593	133.97
307.807	33.62
308.021	37.72
308.235	37.72
308.449	37.72
308.663	41.81
308.877	70.48
309.091	43.86
309.305	64.34
309.519	29.52
309.733	82.77
309.947	-21.67
310.161	17.24
310.374	7
310.588	101.2
310.802	-11.43
311.016	37.72
311.23	74.58
311.444	43.86
311.658	-38.06
311.872	62.29
312.085	31.57
312.299	15.19
312.513	82.77
312.727	82.77
312.941	19.29
313.154	-11.43
313.368	2.9
313.582	23.38
313.796	-15.53
314.009	72.53
314.223	31.57
314.437	-56.49
314.651	33.62
314.864	23.38
315.078	13.14
315.292	41.81
315.505	27.48
315.719	15.19
315.933	54.1
316.146	19.29
316.36	2.9
316.573	33.62
316.787	-3.24
317.001	121.68
317.214	4.95
317.428	97.11
317.641	13.14
317.855	64.34
318.068	54.1
318.282	9.05
318.495	50
318.709	33.62
318.922	-13.48
319.136	60.24
319.349	-7.34
319.563	21.33
319.776	74.58
319.99	25.43
320.203	80.72
320.417	37.72
320.63	19.29
320.843	33.62
321.057	60.24
321.27	-3.24
321.483	41.81
321.697	31.57
321.91	-7.34
322.124	-3.24
322.337	-1.19
322.55	50
322.763	19.29
322.977	64.34
323.19	-36.01
323.403	58.2
323.617	43.86
323.83	152.4
324.043	17.24
324.256	45.91
324.469	-27.82
324.683	25.43
324.896	41.81
325.109	109.4
325.322	15.19
325.535	37.72
325.748	21.33
325.962	39.76
326.175	-7.34
326.388	99.16
326.601	27.48
326.814	15.19
327.027	0.85
327.24	121.68
327.453	-27.82
327.666	56.15
327.879	47.96
328.092	21.33
328.305	35.67
328.518	-27.82
328.731	13.14
328.944	62.29
329.157	33.62
329.37	50
329.583	-19.63
329.796	82.77
330.009	84.82
330.222	29.52
330.435	47.96
330.648	-27.82
330.861	-17.58
331.073	52.05
331.286	56.15
331.499	66.39
331.712	72.53
331.925	60.24
332.138	68.44
332.35	50
332.563	19.29
332.776	0.85
332.989	19.29
333.202	21.33
333.414	86.87
333.627	41.81
333.84	37.72
334.053	131.92
334.265	-13.48
334.478	103.25
334.691	39.76
334.903	11.09
335.116	11.09
335.329	95.06
335.541	25.43
335.754	54.1
335.966	99.16
336.179	-3.24
336.392	58.2
336.604	99.16
336.817	23.38
337.029	56.15
337.242	60.24
337.454	37.72
337.667	25.43
337.88	74.58
338.092	64.34
338.305	-23.72
338.517	13.14
338.729	41.81
338.942	70.48
339.154	7
339.367	-1.19
339.579	80.72
339.792	64.34
340.004	4.95
340.217	31.57
340.429	58.2
340.641	47.96
340.854	101.2
341.066	-15.53
341.278	95.06
341.491	56.15
341.703	7
341.915	62.29
342.128	62.29
342.34	70.48
342.552	29.52
342.764	64.34
342.977	41.81
343.189	21.33
343.401	74.58
343.613	78.68
343.826	0.85
344.038	62.29
344.25	54.1
344.462	9.05
344.674	37.72
344.886	56.15
345.099	11.09
345.311	93.01
345.523	4.95
345.735	-50.35
345.947	33.62
346.159	29.52
346.371	45.91
346.583	2.9
346.795	29.52
347.007	33.62
347.219	-5.29
347.431	-11.43
347.643	78.68
347.855	68.44
348.067	70.48
348.279	62.29
348.491	68.44
348.703	78.68
348.915	-33.96
349.127	27.48
349.339	103.25
349.551	7
349.763	58.2
349.975	2.9
350.187	45.91
350.399	72.53
350.61	0.85
350.822	119.64
351.034	11.09
351.246	60.24
351.458	25.43
351.669	82.77
351.881	70.48
352.093	33.62
352.305	99.16
352.517	25.43
352.728	113.49
352.94	66.39
353.152	60.24
353.363	27.48
353.575	47.96
353.787	54.1
353.999	78.68
354.21	-25.77
354.422	109.4
354.633	21.33
354.845	-40.11
355.057	60.24
355.268	17.24
355.48	99.16
355.692	7
355.903	54.1
356.115	17.24
356.326	52.05
356.538	37.72
356.749	33.62
356.961	64.34
357.172	52.05
357.384	0.85
357.595	54.1
357.807	-3.24
358.018	54.1
358.23	58.2
358.441	88.92
358.653	17.24
358.864	50
359.075	58.2
359.287	17.24
359.498	109.4
359.709	119.64
359.921	58.2
360.132	25.43
360.344	60.24
360.555	68.44
360.766	39.76
360.977	45.91
361.189	66.39
361.4	17.24
361.611	33.62
361.823	115.54
362.034	103.25
362.245	15.19
362.456	156.5
362.667	13.14
362.879	62.29
363.09	66.39
363.301	82.77
363.512	47.96
363.723	19.29
363.935	9.05
364.146	58.2
364.357	17.24
364.568	2.9
364.779	31.57
364.99	25.43
365.201	21.33
365.412	66.39
365.623	11.09
365.834	58.2
366.045	37.72
366.256	25.43
366.467	68.44
366.678	13.14
366.889	-5.29
367.1	45.91
367.311	35.67
367.522	31.57
367.733	13.14
367.944	0.85
368.155	-11.43
368.366	62.29
368.577	25.43
368.788	62.29
368.999	31.57
369.209	99.16
369.42	60.24
369.631	86.87
369.842	13.14
370.053	50
370.264	0.85
370.474	-13.48
370.685	37.72
370.896	93.01
371.107	39.76
371.317	11.09
371.528	19.29
371.739	9.05
371.95	66.39
372.16	60.24
372.371	76.63
372.582	-5.29
372.792	37.72
373.003	7
373.214	74.58
373.424	41.81
373.635	43.86
373.846	107.35
374.056	41.81
374.267	58.2
374.477	-1.19
374.688	47.96
374.898	45.91
375.109	50
375.319	-27.82
375.53	74.58
375.74	111.44
375.951	25.43
376.161	54.1
376.372	84.82
376.582	80.72
376.793	-3.24
377.003	31.57
377.214	13.14
377.424	50
377.635	13.14
377.845	7
378.055	125.78
378.266	-3.24
378.476	9.05
378.686	56.15
378.897	31.57
379.107	78.68
379.317	68.44
379.528	-44.2
379.738	88.92
379.948	23.38
380.158	129.88
380.369	7
380.579	33.62
380.789	27.48
380.999	54.1
381.21	78.68
381.42	15.19
381.63	47.96
381.84	50
382.05	80.72
382.261	74.58
382.471	115.54
382.681	68.44
382.891	95.06
383.101	17.24
383.311	50
383.521	37.72
383.731	84.82
383.941	95.06
384.151	66.39
384.361	82.77
384.571	68.44
384.781	107.35
384.991	68.44
385.201	39.76
385.411	105.3
385.621	17.24
385.831	43.86
386.041	37.72
386.251	72.53
386.461	95.06
386.671	76.63
386.881	66.39
387.091	47.96
387.301	56.15
387.511	-13.48
387.72	29.52
387.93	52.05
388.14	45.91
388.35	66.39
388.56	125.78
388.769	86.87
388.979	-5.29
389.189	35.67
389.399	31.57
389.609	66.39
389.818	17.24
390.028	37.72
390.238	-3.24
390.447	72.53
390.657	31.57
390.867	-1.19
391.076	-40.11
391.286	66.39
391.496	80.72
391.705	50
391.915	80.72
392.125	90.96
392.334	107.35
392.544	54.1
392.753	74.58
392.963	74.58
393.172	23.38
393.382	60.24
393.591	66.39
393.801	60.24
394.01	-25.77
394.22	62.29
394.429	45.91
394.639	35.67
394.848	90.96
395.058	66.39
395.267	39.76
395.477	76.63
395.686	52.05
395.895	107.35
396.105	78.68
396.314	76.63
396.524	142.16
396.733	90.96
396.942	84.82
397.152	101.2
397.361	25.43
397.57	70.48
397.78	107.35
397.989	95.06
398.198	93.01
398.407	74.58
398.617	78.68
398.826	93.01
399.035	76.63
399.244	95.06
399.453	-93.35
399.663	17.24
399.872	136.02
400.081	82.77
400.29	64.34
400.499	35.67
400.708	45.91
400.917	50
401.127	123.73
401.336	109.4
401.545	101.2
401.754	64.34
401.963	107.35
402.172	64.34
402.381	2.9
402.59	84.82
402.799	127.83
403.008	43.86
403.217	152.4
403.426	123.73
403.635	131.92
403.844	142.16
404.053	95.06
404.262	70.48
404.471	97.11
404.68	136.02
404.888	136.02
405.097	117.59
405.306	107.35
405.515	174.93
405.724	107.35
405.933	76.63
406.142	131.92
406.35	158.55
406.559	119.64
406.768	127.83
406.977	168.79
407.185	70.48
407.394	150.36
407.603	176.98
407.812	207.7
408.02	140.12
408.229	226.13
408.438	142.16
408.646	150.36
408.855	197.46
409.064	201.55
409.272	129.88
409.481	207.7
409.69	230.23
409.898	156.5
410.107	201.55
410.315	260.95
410.524	283.47
410.733	303.95
410.941	215.89
411.15	303.95
411.358	283.47
411.567	367.44
411.775	299.86
411.984	351.06
412.192	250.71
412.401	332.62
412.609	328.53
412.818	344.91
413.026	330.58
413.234	351.06
413.443	365.39
413.651	379.73
413.86	363.34
414.068	488.27
414.276	422.73
414.485	445.26
414.693	459.6
414.901	508.75
415.11	480.08
415.318	607.05
415.526	486.22
415.734	553.8
415.943	490.32
416.151	568.14
416.359	576.33
416.567	611.15
416.776	527.18
416.984	572.24
417.192	611.15
417.4	674.64
417.608	715.59
417.817	684.87
418.025	709.45
418.233	783.18
418.441	742.22
418.649	869.19
418.857	854.86
419.065	858.95
419.273	867.14
419.481	852.81
419.689	975.69
419.897	981.83
420.105	1041.22
420.313	1092.42
420.521	1008.45
420.729	1188.68
420.937	1114.95
421.145	1219.39
421.353	1254.21
421.561	1237.83
421.769	1289.03
421.977	1377.09
422.185	1293.12
422.393	1471.29
422.601	1512.25
422.809	1567.55
423.017	1512.25
423.224	1592.13
423.432	1549.12
423.64	1604.41
423.848	1823.55
424.056	1749.82
424.263	1868.6
424.471	1958.71
424.679	1930.04
424.887	2044.73
425.094	2079.54
425.302	2136.88
425.51	2179.89
425.718	2251.57
425.925	2263.86
426.133	2347.83
426.341	2501.42
426.548	2587.44
426.756	2614.06
426.964	2646.83
427.171	2607.92
427.379	2822.95
427.586	2970.41
427.794	3076.9
428.001	3144.49
428.209	3158.82
428.417	3205.92
428.624	3384.1
428.832	3380
429.039	3429.15
429.247	3336.99
429.454	3844.89
429.662	3990.3
429.869	3578.65
430.076	3910.43
430.284	3830.55
430.491	4025.11
430.699	4205.33
430.906	4217.62
431.114	4236.05
431.321	4440.85
431.528	4619.02
431.736	4807.44
431.943	5057.29
432.15	4827.92
432.358	4946.7
432.565	5155.59
432.772	5122.82
432.979	5464.83
433.187	5604.1
433.394	5520.13
433.601	5833.47
433.808	5886.72
434.016	5909.24
434.223	6044.41
434.43	6560.5
434.637	6454
434.844	6798.06
435.052	6839.02
435.259	7133.93
435.466	7033.58
435.673	6814.45
435.88	7496.42
436.087	7697.12
436.294	7766.75
436.501	7508.71
436.708	7699.17
436.915	8022.75
437.122	8411.86
437.329	8209.11
437.537	8579.79
437.743	8841.93
437.95	8487.64
438.157	9091.79
438.364	9456.33
438.571	9351.88
438.778	9464.52
438.985	10433.21
439.192	9734.85
439.399	10277.56
439.606	9892.54
439.813	10535.6
440.02	11209.39
440.227	10906.29
440.433	10873.52
440.64	11403.94
440.847	11150
441.054	11322.02
441.261	12305.05
441.467	12092.06
441.674	12241.56
441.881	12737.17
442.088	12720.79
442.294	12567.19
442.501	13077.13
442.708	13419.14
442.914	13771.4
443.121	14236.28
443.328	13865.6
443.534	14699.13
443.741	14408.31
443.948	14092.93
444.154	15278.7
444.361	15073.9
444.568	15102.57
444.774	15176.3
444.981	15544.94
445.187	16038.5
445.394	16337.5
445.6	16226.91
445.807	17797.7
446.013	17132.11
446.22	17367.63
446.426	18166.34
446.633	18213.44
446.839	18999.86
447.046	17977.92
447.252	19128.88
447.459	19223.09
447.665	19192.37
447.871	19907.11
448.078	20515.36
448.284	19950.12
448.491	20064.8
448.697	20992.53
448.903	21586.44
449.11	21441.04
449.316	21256.72
449.522	21561.87
449.728	22098.44
449.935	22387.2
450.141	22315.52
450.347	22759.93
450.553	21895.69
450.76	22319.62
450.966	23269.87
451.172	22813.18
451.378	23280.11
451.584	22804.99
451.791	23525.87
451.997	23226.87
452.203	23820.78
452.409	23820.78
452.615	23769.58
452.821	22753.79
453.027	22551.04
453.233	23708.14
453.44	22637.05
453.646	22882.81
453.852	23302.64
454.058	23542.25
454.264	22692.35
454.47	23282.16
454.676	22800.89
454.882	23480.82
455.088	21760.52
455.294	22166.02
455.5	21983.75
455.705	22538.75
455.911	21391.89
456.117	21189.14
456.323	20929.05
456.529	19589.67
456.735	20550.17
456.941	20048.42
457.147	19907.11
457.352	19038.77
457.558	18729.53
457.764	19210.8
457.97	18643.51
458.176	18002.5
458.381	18086.47
458.587	17236.56
458.793	17558.09
458.999	16530.01
459.204	17695.3
459.41	17345.1
459.616	16208.48
459.821	15991.39
460.027	15983.2
460.233	15516.26
460.438	14998.13
460.644	15034.99
460.85	14252.67
461.055	14133.89
461.261	13931.14
461.466	13163.15
461.672	12704.4
461.878	13427.34
462.083	12759.7
462.289	12518.04
462.494	12225.18
462.7	11809.44
462.905	11479.72
463.111	11762.34
463.316	11915.94
463.522	11625.12
463.727	11600.55
463.932	11678.37
464.138	11438.76
464.343	11610.79
464.549	11231.91
464.754	11606.69
464.959	11481.77
465.165	11049.64
465.37	11053.74
465.575	10683.06
465.781	10850.99
465.986	11258.54
466.191	10781.36
466.397	10445.49
466.602	9904.83
466.807	10435.25
467.012	10330.81
467.218	10363.58
467.423	10209.98
467.628	10314.42
467.833	10873.52
468.038	10316.47
468.244	9898.69
468.449	10255.03
468.654	9980.61
468.859	9929.41
469.064	9966.27
469.269	9456.33
469.474	9757.38
469.679	9646.79
469.885	9388.74
470.09	9601.73
470.295	9628.35
470.5	9241.29
470.705	9552.58
470.91	9245.38
471.115	9241.29
471.32	9200.33
471.525	9347.78
471.73	8911.57
471.935	8835.79
472.139	8612.56
472.344	8655.57
472.549	8757.97
472.754	8526.55
472.959	8495.83
473.164	8012.51
473.369	8145.63
473.574	8465.11
473.778	8295.13
473.983	8385.24
474.188	8194.78
474.393	8053.47
474.598	7826.14
474.802	7772.89
475.007	7848.67
475.212	7703.26
475.417	7535.33
475.621	7434.98
475.826	7539.43
476.031	7525.09
476.235	7310.05
476.44	7434.98
476.645	7097.07
476.849	7305.96
477.054	7187.18
477.259	7238.37
477.463	7189.22
477.668	6867.69
477.872	6873.84
478.077	6933.23
478.282	6646.51
478.486	6669.04
478.691	6646.51
478.895	6634.22
479.1	6572.79
479.304	6466.29
479.509	6390.52
479.713	6413.04
479.918	6335.22
480.122	6308.6
480.326	6367.99
480.531	6339.32
480.735	6249.21
480.94	6335.22
481.144	6314.74
481.348	6185.72
481.553	6210.29
481.757	5999.35
481.961	5985.02
482.166	6163.19
482.37	6036.22
482.574	6050.55
482.778	6122.23
482.983	6177.53
483.187	5866.24
483.391	5884.67
483.595	6052.6
483.8	5929.72
484.004	5929.72
484.208	6111.99
484.412	6075.13
484.616	6015.74
484.821	6097.66
485.025	6007.55
485.229	6071.03
485.433	5939.96
485.637	5974.78
485.841	5976.83
486.045	6120.18
486.249	5980.92
486.453	5858.04
486.657	5966.59
486.861	5952.25
487.065	5843.71
487.269	6046.46
487.473	5915.39
487.677	5989.11
487.881	5991.16
488.085	6005.5
488.289	6122.23
488.493	5993.21
488.697	6064.89
488.901	6038.27
489.105	6023.93
489.309	6023.93
489.512	6185.72
489.716	6271.73
489.92	6130.42
490.124	6146.81
490.328	6292.21
490.531	5972.73
490.735	6193.91
490.939	6236.92
491.143	6136.57
491.346	6271.73
491.55	6185.72
491.754	6286.07
491.958	6466.29
492.161	6359.8
492.365	6484.72
492.569	6417.14
492.772	6345.46
492.976	6374.13
493.18	6462.19
493.383	6421.24
493.587	6443.76
493.79	6603.5
493.994	6669.04
494.197	6576.88
494.401	6855.4
494.605	6621.94
494.808	6697.71
495.012	6789.87
495.215	6914.8
495.419	6943.47
495.622	6906.6
495.825	7203.56
496.029	7023.34
496.232	7232.23
496.436	7158.5
496.639	7434.98
496.843	7330.53
497.046	7654.11
497.249	7615.2
497.453	7506.66
497.656	7432.93
497.859	7715.55
498.063	7852.77
498.266	7885.53
498.469	7879.39
498.673	7807.71
498.876	8035.03
499.079	8323.8
499.282	8096.47
499.485	8481.49
499.689	8391.38
499.892	8590.03
500.095	8829.65
500.298	8784.59
500.501	8665.81
500.705	9011.92
500.908	9030.35
501.111	9331.4
501.314	9362.12
501.517	9327.3
501.72	9542.34
501.923	9421.51
502.126	9708.23
502.329	9980.61
502.532	10242.75
502.735	9999.04
502.938	10037.95
503.141	10289.85
503.344	10470.07
503.547	10298.04
503.75	10349.24
503.953	10891.95
504.156	11027.12
504.359	10930.86
504.562	11162.28
504.765	11328.17
504.968	11344.55
505.17	11592.36
505.373	11326.12
505.576	11870.88
505.779	11965.09
505.982	12055.2
506.185	12294.81
506.387	12341.91
506.59	12450.46
506.793	12694.16
506.996	12649.11
507.198	13259.4
507.401	12839.57
507.604	13159.05
507.807	13236.88
508.009	13789.83
508.212	13517.45
508.415	13996.67
508.617	14199.42
508.82	14189.18
509.022	14316.15
509.225	14518.9
509.428	14584.44
509.63	14901.87
509.833	14934.64
510.035	15510.12
510.238	15227.5
510.44	15725.16
510.643	15589.99
510.845	16161.37
511.048	15977.06
511.25	16222.81
511.453	16433.75
511.655	16925.27
511.858	16591.45
512.06	16667.22
512.262	17265.23
512.465	17138.26
512.667	17533.51
512.87	17660.49
513.072	17408.59
513.274	17969.73
513.477	18477.63
513.679	18412.09
513.881	18756.15
514.084	18874.93
514.286	18917.94
514.488	19155.51
514.69	19413.55
514.893	19571.24
515.095	19925.54
515.297	20187.68
515.499	20267.55
515.701	20474.4
515.904	20922.9
516.106	20902.42
516.308	21295.63
516.51	21375.5
516.712	21258.77
516.914	21455.37
517.116	22323.71
517.318	22211.07
517.52	22354.43
517.722	22704.63
517.925	22956.54
518.127	22956.54
518.329	23218.68
518.531	23089.65
518.733	23882.22
518.935	23925.22
519.136	24136.17
519.338	24347.11
519.54	24775.13
519.742	25016.79
519.944	24875.48
520.146	25670.09
520.348	25586.13
520.55	25487.82
520.752	25901.51
520.954	26507.71
521.155	25948.62
521.357	26651.07
521.559	27052.47
521.761	27093.43
521.963	27267.51
522.164	27408.82
522.366	27574.7
522.568	27906.48
522.77	28258.73
522.971	28432.8
523.173	28459.43
523.375	28752.29
523.576	28862.88
523.778	29036.95
523.98	29555.09
524.181	29401.49
524.383	29559.19
524.584	30128.52
524.786	29788.56
524.988	30069.13
525.189	30204.3
525.391	30681.47
525.592	30486.92
525.794	30757.25
525.995	30990.72
526.197	31148.41
526.398	31248.76
526.6	31189.37
526.801	31453.56
527.003	31973.74
527.204	31955.31
527.406	32145.77
527.607	32053.61
527.808	32266.6
528.01	32010.6
528.211	32436.58
528.412	33018.21
528.614	32426.34
528.815	32567.65
529.016	33255.77
529.218	32803.17
529.419	32911.71
529.62	33186.14
529.822	33177.95
530.023	33106.27
530.224	33032.54
530.425	33560.92
530.626	33173.85
530.828	33501.53
531.029	33669.46
531.23	33585.49
531.431	33626.45
531.632	33790.29
531.833	34148.68
532.035	33489.24
532.236	33802.58
532.437	34361.67
532.638	33933.65
532.839	34320.71
533.04	34236.75
533.241	33982.8
533.442	34486.6
533.643	34406.73
533.844	34238.79
534.045	34300.23
534.246	34013.52
534.447	34515.27
534.648	34173.26
534.849	34298.19
535.05	34218.32
535.251	34513.22
535.451	34150.73
535.652	34564.42
535.853	34625.86
536.054	34447.69
536.255	34662.72
536.456	34412.87
536.657	34959.68
536.857	34513.22
537.058	34472.26
537.259	34947.39
537.46	34429.26
537.66	34681.16
537.861	34955.58
538.062	34623.81
538.263	34748.74
538.463	34666.82
538.664	34447.69
538.865	34609.48
539.065	34984.26
539.266	34586.95
539.466	35029.31
539.667	34206.03
539.868	35002.69
540.068	34765.12
540.269	34414.92
540.469	34939.2
540.67	34773.31
540.87	34777.41
541.071	34799.94
541.271	34554.18
541.472	34722.12
541.672	34259.27
541.873	34505.03
542.073	34220.36
542.274	34818.37
542.474	34554.18
542.675	34736.45
542.875	35037.5
543.075	34814.27
543.276	34369.86
543.476	34939.2
543.676	34597.19
543.877	34861.38
544.077	34281.8
544.277	34263.37
544.478	34306.38
544.678	34345.29
544.878	34472.26
545.078	34574.66
545.279	34150.73
545.479	34539.85
545.679	34793.79
545.879	34709.83
546.079	34888
546.28	34662.72
546.48	34285.9
546.68	34791.75
546.88	34439.5
547.08	34595.14
547.28	34566.47
547.48	34326.86
547.68	34486.6
547.88	34195.79
548.081	34701.64
548.281	34758.98
548.481	34447.69
548.681	34668.87
548.881	34365.77
549.081	34482.5
549.28	34189.64
549.48	34681.16
549.68	34156.88
549.88	34668.87
550.08	34435.4
550.28	34439.5
550.48	34189.64
550.68	34840.9
550.88	34601.29
551.08	34869.57
551.279	34357.58
551.479	34500.93
551.679	34269.51
551.879	34402.63
552.079	34435.4
552.278	34285.9
552.478	34363.72
552.678	34640.2
552.878	34844.99
553.077	34392.39
553.277	34113.87
553.477	34384.2
553.676	33974.61
553.876	34341.19
554.076	34255.18
554.275	33780.05
554.475	33882.45
554.674	34066.77
554.874	34457.93
555.074	34013.52
555.273	33878.35
555.473	34373.96
555.672	33954.13
555.872	33780.05
556.071	33896.78
556.271	34048.33
556.47	33904.98
556.67	33411.42
556.869	34077.01
557.068	33534.29
557.268	33591.64
557.467	33665.36
557.667	33952.08
557.866	33616.21
558.065	33278.3
558.265	33237.34
558.464	33345.88
558.663	33677.65
558.863	33204.57
559.062	33747.28
559.261	33180
559.461	33331.54
559.66	32631.14
559.859	33333.59
560.058	33153.37
560.258	33114.46
560.457	32960.86
560.656	33356.12
560.855	32854.37
561.054	32936.29
561.253	32610.66
561.453	32899.42
561.652	32856.42
561.851	32880.99
562.05	32977.25
562.249	32264.55
562.448	32645.48
562.647	32686.43
562.846	32706.91
563.045	32485.73
563.244	32256.36
563.443	32719.2
563.642	32016.75
563.841	32252.27
564.04	32135.53
564.239	32420.2
564.438	31922.54
564.637	32383.34
564.836	32158.06
565.035	31482.23
565.234	31900.01
565.432	32080.24
565.631	31670.64
565.83	31576.44
566.029	31746.42
566.228	31515
566.427	31484.28
566.625	31261.05
566.824	31263.1
567.023	31328.63
567.222	31086.97
567.42	31312.25
567.619	31418.74
567.818	31013.24
568.016	31254.9
568.215	31273.34
568.414	30857.6
568.612	31076.73
568.811	30857.6
569.01	31070.59
569.208	30579.07
569.407	30667.14
569.605	30425.48
569.804	30370.18
570.002	30278.02
570.201	30054.79
570.4	29856.14
570.598	30366.09
570.797	30013.84
570.995	30181.77
571.193	29606.29
571.392	30013.84
571.59	29786.51
571.789	29696.4
571.987	29596.05
572.186	29297.05
572.384	28805.53
572.582	29495.7
572.781	29421.97
572.979	29274.52
573.177	29221.27
573.376	29266.33
573.574	28778.91
573.772	28678.56
573.971	28905.88
574.169	28688.8
574.367	28275.11
574.565	28795.29
574.763	28395.94
574.962	28381.6
575.16	27754.93
575.358	28434.85
575.556	27574.7
575.754	28490.15
575.952	27720.11
576.151	27931.05
576.349	27562.42
576.547	27652.53
576.745	27468.21
576.943	27281.85
577.141	27638.19
577.339	27564.46
577.537	27079.1
577.735	27451.83
577.933	27189.69
578.131	27351.48
578.329	26862.01
578.527	26778.04
578.725	26855.87
578.923	26952.12
579.121	26730.94
579.319	26653.12
579.516	26710.46
579.714	26550.72
579.912	26735.04
580.11	26284.48
580.308	26405.31
580.506	26161.61
580.704	25885.13
580.901	26149.32
581.099	26384.83
581.297	25838.03
581.495	25412.05
581.692	25942.47
581.89	25227.73
582.088	25819.6
582.285	25448.91
582.483	25942.47
582.681	25467.34
582.878	25653.71
583.076	24979.93
583.274	25280.98
583.471	24926.68
583.669	25123.29
583.866	24676.83
584.064	24877.53
584.262	24834.52
584.459	24631.77
584.657	24570.33
584.854	25231.83
585.052	24564.19
585.249	24408.54
585.447	24666.59
585.644	24025.57
585.841	23994.86
586.039	24459.74
586.236	24074.73
586.434	24056.29
586.631	24074.73
586.828	24080.87
587.026	23855.59
587.223	23914.98
587.42	23710.19
587.618	23706.09
587.815	23398.9
588.012	23319.03
588.21	23359.98
588.407	23325.17
588.604	23022.07
588.801	23124.47
588.999	23167.48
589.196	23040.5
589.393	23063.03
589.59	22911.48
589.787	22829.56
589.984	22667.77
590.182	22628.86
590.379	22841.85
590.576	22563.33
590.773	22475.26
590.97	22598.14
591.167	22389.25
591.364	22084.1
591.561	22295.04
591.758	22041.09
591.955	22123.01
592.152	22114.82
592.349	21996.04
592.546	21883.4
592.743	22135.3
592.94	21715.47
593.137	21971.46
593.334	21508.62
593.531	21309.97
593.727	21813.77
593.924	21668.36
594.121	21301.78
594.318	21701.13
594.515	21172.75
594.712	21522.96
594.908	21019.16
595.105	21017.11
595.302	20879.89
595.499	21312.02
595.696	20908.57
595.892	20800.02
596.089	20830.74
596.286	20546.08
596.482	20857.37
596.679	20736.54
596.876	20732.44
597.072	20343.33
597.269	20419.1
597.466	20425.25
597.662	20412.96
597.859	20441.63
598.055	20269.6
598.252	20208.16
598.448	19964.45
598.645	20075.04
598.841	19761.7
599.038	19882.53
599.234	19966.5
599.431	19534.38
599.627	19786.28
599.824	19921.45
600.02	19446.32
600.217	19587.63
600.413	19593.77
600.609	19452.46
600.806	19247.66
601.002	19358.25
601.198	19397.17
601.395	18862.65
601.591	19227.18
601.787	18938.42
601.984	19200.56
602.18	19253.81
602.376	18831.93
602.572	19055.15
602.769	18803.25
602.965	18797.11
603.161	18864.69
603.357	18473.53
603.553	18469.44
603.75	18479.68
603.946	18313.79
604.142	18500.16
604.338	18203.2
604.534	18395.71
604.73	18176.58
604.926	18074.18
605.122	18002.5
605.318	17920.58
605.514	17715.78
605.71	17699.4
605.906	17961.54
606.102	17570.38
606.298	17730.12
606.494	17392.2
606.69	17375.82
606.886	17451.6
607.082	17066.58
607.278	17384.01
607.474	17111.63
607.67	17384.01
607.866	16867.92
608.062	17322.57
608.257	16947.79
608.453	16998.99
608.649	16980.56
608.845	16947.79
609.041	17171.02
609.236	16802.39
609.432	17052.24
609.628	16718.42
609.824	16888.4
610.019	16896.6
610.215	16687.7
610.411	16749.14
610.606	16452.19
610.802	16558.68
610.998	16540.25
611.193	16351.84
611.389	16263.77
611.584	16241.25
611.78	16175.71
611.976	16433.75
612.171	16253.53
612.367	15993.44
612.562	16175.71
612.758	15762.02
612.953	15776.36
613.149	15999.59
613.344	15776.36
613.539	16015.97
613.735	15950.43
613.93	15977.06
614.126	15600.23
614.321	16028.26
614.517	15952.48
614.712	15626.85
614.907	15444.59
615.103	15710.82
615.298	15417.96
615.493	15510.12
615.688	15549.03
615.884	15569.51
616.079	15268.46
616.274	15305.32
616.47	15100.53
616.665	15303.28
616.86	15108.72
617.055	15114.86
617.25	15096.43
617.445	15161.97
617.641	14910.07
617.836	15102.57
618.031	14856.82
618.226	14828.15
618.421	14811.76
618.616	14914.16
618.811	14533.24
619.006	14672.5
619.201	14127.74
619.396	14723.7
619.591	14252.67
619.786	14490.23
619.981	14185.08
620.176	14299.77
620.371	14301.82
620.566	14107.26
620.761	14092.93
620.956	14115.45
621.151	13990.53
621.346	13924.99
621.541	13482.63
621.735	13847.17
621.93	13722.24
622.125	13468.3
622.32	13423.24
622.515	13509.26
622.709	13312.65
622.904	13171.34
623.099	13322.89
623.294	13202.06
623.488	12870.29
623.683	12974.74
623.878	12825.23
624.072	12911.25
624.267	12948.11
624.462	12518.04
624.656	12579.48
624.851	12591.77
625.046	12604.05
625.24	12503.7
625.435	12386.97
625.629	12303
625.824	12235.42
626.018	12239.51
626.213	12028.57
626.407	12044.96
626.602	12233.37
626.796	11944.61
626.991	11766.43
627.185	11838.11
627.38	11913.89
627.574	11752.1
627.768	11594.4
627.963	11485.86
628.157	11457.19
628.352	11539.11
628.546	11252.39
628.74	11385.51
628.935	11158.19
629.129	11236.01
629.323	10963.63
629.517	11094.7
629.712	11229.87
629.906	10994.35
630.1	10799.79
630.294	10869.42
630.489	10674.87
630.683	10930.86
630.877	10584.76
631.071	10545.84
631.265	10676.91
631.459	10504.89
631.653	10463.93
631.848	10537.65
632.042	10240.7
632.236	10463.93
632.43	10212.03
632.624	10371.77
632.818	10431.16
633.012	9937.6
633.206	10128.06
633.4	9978.56
633.594	9900.73
633.788	9841.34
633.982	9654.98
634.176	10046.14
634.369	9571.01
634.563	9679.55
634.757	9620.16
634.951	9636.55
635.145	9863.87
635.339	9581.25
635.533	9591.49
635.726	9493.19
635.92	9263.82
636.114	9507.52
636.308	9206.47
636.501	9194.19
636.695	9229
636.889	8993.48
637.083	9077.45
637.276	9056.97
637.47	8915.66
637.664	8930
637.857	8848.08
638.051	8796.88
638.244	8604.37
638.438	8702.67
638.632	8491.73
638.825	8415.96
639.019	8526.55
639.212	8684.24
639.406	8698.58
639.599	8616.66
639.793	8405.72
639.986	8186.58
640.18	8422.1
640.373	8444.63
640.567	8256.22
640.76	8344.28
640.954	8217.3
641.147	7955.16
641.34	8086.23
641.534	8055.51
641.727	7877.34
641.92	7883.49
642.114	7672.54
642.307	7848.67
642.5	7779.04
642.694	7619.3
642.887	7471.84
643.08	7654.11
643.273	7623.39
643.467	7609.06
643.66	7453.41
643.853	7322.34
644.046	7408.36
644.239	7375.59
644.432	7195.37
644.626	7234.28
644.819	7195.37
645.012	7254.76
645.205	7246.57
645.398	7107.3
645.591	7009
645.784	7105.26
645.977	6896.36
646.17	6896.36
646.363	6884.08
646.556	6630.13
646.749	6666.99
646.942	6793.97
647.135	6619.89
647.328	6640.37
647.521	6656.75
647.714	6585.07
647.907	6585.07
648.099	6327.03
648.292	6472.43
648.485	6365.94
648.678	6298.36
648.871	6431.48
649.064	6259.45
649.256	6177.53
649.449	6171.38
649.642	6159.1
649.835	6122.23
650.027	6048.51
650.22	6126.33
650.413	5927.67
650.605	6193.91
650.798	5964.54
650.991	5847.8
651.183	5942.01
651.376	5925.63
651.568	5833.47
651.761	5839.61
651.954	5735.17
652.146	5821.18
652.339	5733.12
652.531	5636.86
652.724	5636.86
652.916	5554.94
653.109	5731.07
653.301	5489.41
653.494	5536.51
653.686	5436.16
653.879	5485.31
654.071	5501.7
654.263	5409.54
654.456	5331.72
654.648	5366.53
654.84	5225.22
655.033	5249.8
655.225	5274.37
655.417	5221.13
655.61	5149.45
655.802	5096.2
655.994	5036.81
656.186	4967.18
656.379	4997.9
656.571	5026.57
656.763	4950.79
656.955	4973.32
657.148	4930.31
657.34	4868.88
657.532	4997.9
657.724	4952.84
657.916	4778.76
658.108	4678.41
658.3	4688.65
658.492	4694.8
658.684	4629.26
658.876	4666.13
659.068	4752.14
659.26	4590.35
659.452	4698.89
659.644	4616.97
659.836	4496.14
660.028	4475.67
660.22	4408.08
660.412	4320.02
660.604	4352.79
660.796	4393.75
660.988	4186.9
661.18	4299.54
661.372	4344.6
661.563	4250.39
661.755	4283.16
661.947	4127.51
662.139	4162.33
662.331	4303.64
662.522	4156.18
662.714	4033.3
662.906	3990.3
663.097	3801.88
663.289	3990.3
663.481	3902.23
663.673	4016.92
663.864	3949.34
664.056	3867.42
664.247	3889.95
664.439	3978.01
664.631	3908.38
664.822	3828.51
665.014	3873.56
665.205	3711.77
665.397	3748.64
665.588	3814.17
665.78	3687.2
665.971	3652.38
666.163	3683.1
666.354	3642.14
666.546	3554.08
666.737	3568.41
666.929	3441.44
667.12	3586.85
667.311	3576.61
667.503	3496.74
667.694	3578.65
667.885	3564.32
668.077	3531.55
668.268	3420.96
668.459	3377.95
668.651	3404.58
668.842	3326.75
669.033	3388.19
669.224	3357.47
669.416	3384.1
669.607	3255.08
669.798	3386.15
669.989	3216.16
670.18	3240.74
670.371	3212.07
670.563	3185.44
670.754	3314.47
670.945	3169.06
671.136	3193.64
671.327	3113.77
671.518	3103.53
671.709	3175.2
671.9	3117.86
672.091	3097.38
672.282	3099.43
672.473	3207.97
672.664	3023.66
672.855	3023.66
673.046	3060.52
673.237	3115.81
673.428	2900.78
673.619	3064.61
673.809	3052.33
674	3011.37
674.191	2966.31
674.382	2931.5
674.573	2923.3
674.764	2960.17
674.954	2902.83
675.145	2810.67
675.336	2853.67
675.527	2925.35
675.717	2968.36
675.908	2818.86
676.099	2796.33
676.289	2771.76
676.48	2896.68
676.671	2851.63
676.861	2769.71
677.052	2726.7
677.243	2808.62
677.433	2784.04
677.624	2890.54
677.814	2769.71
678.005	2870.06
678.195	2738.99
678.386	2659.12
678.576	2634.54
678.767	2747.18
678.957	2597.68
679.148	2702.12
679.338	2704.17
679.529	2652.97
679.719	2556.72
679.909	2681.64
680.1	2657.07
680.29	2648.88
680.481	2628.4
680.671	2722.6
680.861	2706.22
681.052	2644.78
681.242	2620.21
681.432	2614.06
681.622	2650.92
681.813	2526
682.003	2499.38
682.193	2540.33
682.383	2542.38
682.573	2534.19
682.764	2515.76
682.954	2618.16
683.144	2564.91
683.334	2528.05
683.524	2513.71
683.714	2534.19
683.904	2577.2
684.094	2532.14
684.284	2552.62
684.474	2485.04
684.664	2437.94
684.854	2454.32
685.044	2310.96
685.234	2366.26
685.424	2401.07
685.614	2425.65
685.804	2407.22
685.994	2366.26
686.184	2394.93
686.374	2407.22
686.564	2419.5
686.753	2396.98
686.943	2280.24
687.133	2349.87
687.323	2419.5
687.513	2345.78
687.702	2300.72
687.892	2128.69
688.082	2454.32
688.272	2253.62
688.461	2351.92
688.651	2349.87
688.841	2261.81
689.03	2405.17
689.22	2280.24
689.41	2450.22
689.599	2290.48
689.789	2243.38
689.979	2364.21
690.168	2310.96
690.358	2151.22
690.547	2231.09
690.737	2306.87
690.926	2284.34
691.116	2249.52
691.305	2358.07
691.495	2413.36
691.684	2233.14
691.874	2392.88
692.063	2249.52
692.252	2321.2
692.442	2216.76
692.631	2132.79
692.82	2313.01
693.01	2147.12
693.199	2245.43
693.388	2212.66
693.578	2140.98
693.767	2214.71
693.956	2366.26
694.146	2267.95
694.335	2280.24
694.524	2194.23
694.713	2194.23
694.902	2265.91
695.092	2208.56
695.281	2196.28
695.47	2270
695.659	2169.65
695.848	2249.52
696.037	2196.28
696.226	2210.61
696.415	2188.08
696.604	2181.94
696.793	2190.13
696.982	2302.77
697.171	2229.04
697.36	2288.43
697.549	2202.42
697.738	2237.24
697.927	2229.04
698.116	2243.38
698.305	2186.04
698.494	2220.85
698.683	2245.43
698.872	2196.28
699.061	2218.8
699.25	2179.89
699.438	2163.51
699.627	2243.38
699.816	2114.36
700.005	2140.98
700.193	2194.23
700.382	2202.42
700.571	2229.04
700.76	2132.79
700.948	2200.37
701.137	2267.95
701.326	2222.9
701.514	2167.6
701.703	2132.79
701.892	2257.71
702.08	2190.13
702.269	2214.71
702.457	2257.71
702.646	2212.66
702.834	2149.17
703.023	2267.95
703.212	2202.42
703.4	2122.55
703.589	2106.17
703.777	2145.08
703.965	2097.97
704.154	2130.74
704.342	2093.88
704.531	2024.25
704.719	2022.2
704.907	2077.49
705.096	2042.68
705.284	2054.97
705.472	1934.14
705.661	2091.83
705.849	2040.63
706.037	2106.17
706.226	2054.97
706.414	2014.01
706.602	1948.47
706.79	2050.87
706.979	2022.2
707.167	2093.88
707.355	2044.73
707.543	2016.05
707.731	2022.2
707.919	2104.12
708.107	2040.63
708.296	1983.29
708.484	1995.57
708.672	1932.09
708.86	2011.96
709.048	1952.57
709.236	1919.8
709.424	2057.01
709.612	1925.94
709.8	2007.86
709.988	1917.75
710.176	1880.89
710.364	1909.56
710.551	1846.07
710.739	1934.14
710.927	1741.63
711.115	1889.08
711.303	1884.98
711.491	1964.86
711.679	1753.91
711.866	1870.65
712.054	1796.92
712.242	1868.6
712.43	1889.08
712.617	1858.36
712.805	1817.4
712.993	1862.46
713.181	1864.5
713.368	1788.73
713.556	1862.46
713.744	1846.07
713.931	1770.3
714.119	1844.03
714.306	1710.91
714.494	1758.01
714.682	1692.48
714.869	1698.62
715.057	1731.39
715.244	1676.09
715.432	1723.2
715.619	1702.72
715.807	1721.15
715.994	1700.67
716.182	1624.89
716.369	1622.84
716.556	1641.28
716.744	1753.91
716.931	1672
717.119	1712.96
717.306	1643.32
717.493	1649.47
717.681	1510.21
717.868	1628.99
718.055	1645.37
718.242	1758.01
718.43	1614.65
718.617	1585.98
718.804	1577.79
718.991	1698.62
719.179	1577.79
719.366	1565.5
719.553	1698.62
719.74	1655.61
719.927	1647.42
720.114	1545.02
720.301	1485.63
720.488	1657.66
720.676	1467.2
720.863	1565.5
721.05	1622.84
721.237	1508.16
721.424	1479.49
721.611	1581.89
721.798	1518.4
721.985	1542.97
722.172	1516.35
722.358	1567.55
722.545	1393.47
722.732	1508.16
722.919	1504.06
723.106	1428.29
723.293	1542.97
723.48	1344.32
723.667	1516.35
723.853	1358.66
724.04	1422.14
724.227	1444.67
724.414	1364.8
724.6	1420.1
724.787	1405.76
724.974	1428.29
725.161	1389.38
725.347	1329.99
725.534	1428.29
725.72	1370.94
725.907	1428.29
726.094	1336.13
726.28	1459.01
726.467	1383.23
726.653	1334.08
726.84	1377.09
727.027	1413.95
727.213	1338.18
727.4	1368.9
727.586	1340.22
727.773	1317.7
727.959	1297.22
728.145	1307.46
728.332	1291.07
728.518	1293.12
728.705	1344.32
728.891	1291.07
729.077	1303.36
729.264	1280.83
729.45	1305.41
729.636	1313.6
729.823	1278.79
730.009	1235.78
730.195	1256.26
730.382	1229.63
730.568	1252.16
730.754	1289.03
730.94	1297.22
731.126	1233.73
731.313	1225.54
731.499	1207.11
731.685	1401.66
731.871	1125.19
732.057	1338.18
732.243	1213.25
732.429	1200.96
732.615	1112.9
732.801	1227.59
732.987	1205.06
733.173	1188.68
733.359	1258.31
733.545	1289.03
733.731	1172.29
733.917	1209.15
734.103	1149.76
734.289	1139.52
734.475	1205.06
734.661	1264.45
734.847	1160
735.033	1131.33
735.219	1151.81
735.404	1145.67
735.59	1153.86
735.776	1117
735.962	1213.25
736.148	1176.39
736.333	1151.81
736.519	1102.66
736.705	1073.99
736.89	1137.48
737.076	1135.43
737.262	1061.7
737.447	1184.58
737.633	1176.39
737.819	1088.32
738.004	1080.13
738.19	961.35
738.375	1114.95
738.561	1071.94
738.747	1049.41
738.932	1012.55
739.118	1117
739.303	1082.18
739.489	1047.37
739.674	975.69
739.859	1073.99
740.045	1100.61
740.23	1002.31
740.416	940.87
740.601	1110.85
740.786	1035.08
740.972	1024.84
741.157	1030.98
741.342	1016.65
741.528	1123.14
741.713	1020.74
741.898	912.2
742.084	904.01
742.269	914.25
742.454	1008.45
742.639	1024.84
742.824	977.73
743.01	1026.89
743.195	981.83
743.38	981.83
743.565	998.21
743.75	1000.26
743.935	910.15
744.12	998.21
744.305	908.1
744.49	887.62
744.675	858.95
744.86	969.54
745.045	822.09
745.23	863.05
745.415	879.43
745.6	873.29
745.785	918.34
745.97	891.72
746.155	944.97
746.34	846.66
746.525	953.16
746.71	846.66
746.895	809.8
747.079	863.05
747.264	768.84
747.449	799.56
747.634	813.9
747.819	807.75
748.003	815.94
748.188	764.75
748.373	813.9
748.557	893.77
748.742	852.81
748.927	748.36
749.111	822.09
749.296	738.12
749.481	781.13
749.665	774.99
749.85	787.27
750.034	770.89
750.219	820.04
750.404	842.57
750.588	795.47
750.773	707.4
750.957	762.7
751.141	820.04
751.326	774.99
751.51	656.2
751.695	783.18
751.879	691.02
752.064	756.55
752.248	746.31
752.432	703.31
752.617	750.41
752.801	740.17
752.985	736.07
753.17	766.79
753.354	721.74
753.538	680.78
753.722	688.97
753.907	719.69
754.091	658.25
754.275	709.45
754.459	719.69
754.643	707.4
754.828	615.24
755.012	648.01
755.196	680.78
755.38	615.24
755.564	641.87
755.748	705.35
755.932	578.38
756.116	551.76
756.3	586.57
756.484	623.44
756.668	629.58
756.852	600.91
757.036	699.21
757.22	664.4
757.404	553.8
757.588	594.76
757.772	568.14
757.956	582.48
758.14	617.29
758.323	611.15
758.507	578.38
758.691	637.77
758.875	572.24
759.059	568.14
759.242	543.57
759.426	510.8
759.61	555.85
759.794	555.85
759.977	498.51
760.161	541.52
760.345	545.61
760.528	539.47
760.712	637.77
760.895	529.23
761.079	428.88
761.263	516.94
761.446	521.04
761.63	461.65
761.813	502.61
761.997	518.99
762.18	402.26
762.364	478.03
762.547	455.5
762.731	471.89
762.914	541.52
763.098	502.61
763.281	467.79
763.464	525.13
763.648	484.17
763.831	527.18
764.015	494.41
764.198	541.52
764.381	514.89
764.564	494.41
764.748	455.5
764.931	549.71
765.114	467.79
765.297	461.65
765.481	383.82
765.664	486.22
765.847	510.8
766.03	467.79
766.213	420.69
766.397	566.09
766.58	428.88
766.763	484.17
766.946	521.04
767.129	475.98
767.312	410.45
767.495	469.84
767.678	459.6
767.861	453.45
768.044	508.75
768.227	512.85
768.41	494.41
768.593	420.69
768.776	432.97
768.959	537.42
769.142	478.03
769.324	437.07
769.507	451.41
769.69	435.02
769.873	455.5
770.056	473.93
770.239	445.26
770.421	435.02
770.604	574.28
770.787	420.69
770.97	475.98
771.152	422.73
771.335	406.35
771.518	381.78
771.7	523.09
771.883	484.17
772.066	310.1
772.248	467.79
772.431	410.45
772.613	508.75
772.796	445.26
772.978	369.49
773.161	371.54
773.343	416.59
773.526	394.06
773.708	453.45
773.891	445.26
774.073	439.12
774.256	357.2
774.438	406.35
774.621	373.58
774.803	404.3
774.985	375.63
775.168	365.39
775.35	332.62
775.532	353.1
775.715	369.49
775.897	387.92
776.079	338.77
776.261	328.53
776.444	306
776.626	324.43
776.808	328.53
776.99	342.86
777.173	371.54
777.355	422.73
777.537	389.97
777.719	346.96
777.901	383.82
778.083	353.1
778.265	351.06
778.447	324.43
778.629	396.11
778.811	275.28
778.993	330.58
779.175	328.53
779.357	320.34
779.539	334.67
779.721	361.3
779.903	346.96
780.085	396.11
780.267	375.63
780.449	289.62
780.631	291.66
780.812	312.14
780.994	277.33
781.176	262.99
781.358	297.81
781.54	291.66
781.721	322.38
781.903	326.48
782.085	299.86
782.267	351.06
782.448	269.14
782.63	240.47
782.812	285.52
782.993	328.53
783.175	244.56
783.357	279.38
783.538	260.95
783.72	232.27
783.901	322.38
784.083	271.19
784.264	240.47
784.446	324.43
784.627	236.37
784.809	277.33
784.99	277.33
785.172	189.27
785.353	328.53
785.535	187.22
785.716	197.46
785.897	275.28
786.079	320.34
786.26	215.89
786.441	217.94
786.623	228.18
786.804	234.32
786.985	258.9
787.167	203.6
787.348	271.19
787.529	160.59
787.71	234.32
787.891	232.27
788.073	213.84
788.254	226.13
788.435	191.31
788.616	207.7
788.797	199.51
788.978	205.65
789.159	146.26
789.34	154.45
789.522	181.07
789.703	170.83
789.884	226.13
790.065	254.8
790.246	232.27
790.427	211.79
790.607	222.03
790.788	222.03
790.969	262.99
791.15	140.12
791.331	191.31
791.512	254.8
791.693	66.39
791.874	201.55
792.054	185.17
792.235	242.51
792.416	164.69
792.597	213.84
792.778	176.98
792.958	228.18
793.139	109.4
793.32	213.84
793.5	207.7
793.681	191.31
793.862	158.55
794.042	133.97
794.223	224.08
794.404	187.22
794.584	170.83
794.765	174.93
794.945	219.99
795.126	240.47
795.306	248.66
795.487	179.03
795.667	160.59
795.848	113.49
796.028	152.4
796.209	176.98
796.389	119.64
796.57	115.54
796.75	144.21
796.93	156.5
797.111	152.4
797.291	156.5
797.471	123.73
797.652	160.59
797.832	150.36
798.012	168.79
798.192	166.74
798.373	181.07
798.553	217.94
798.733	133.97
798.913	119.64
799.093	207.7
799.274	174.93
799.454	168.79
799.634	115.54
799.814	82.77
799.994	179.03
800.174	207.7
800.354	142.16
800.534	117.59
800.714	105.3
800.894	88.92
801.074	78.68
801.254	78.68
801.434	148.31
801.614	97.11
801.794	90.96
801.974	349.01
802.154	176.98
802.334	199.51
802.514	123.73
802.693	140.12
802.873	142.16
803.053	154.45
803.233	199.51
803.413	150.36
803.592	72.53
803.772	107.35
803.952	43.86
804.131	158.55
804.311	64.34
804.491	90.96
804.67	148.31
804.85	172.88
805.03	107.35
805.209	215.89
805.389	166.74
805.568	131.92
805.748	148.31
805.928	88.92
806.107	76.63
806.287	52.05
806.466	131.92
806.646	133.97
806.825	90.96
807.004	154.45
807.184	90.96
807.363	174.93
807.543	105.3
807.722	80.72
807.901	140.12
808.081	125.78
808.26	113.49
808.439	117.59
808.619	47.96
808.798	121.68
808.977	127.83
809.156	90.96
809.336	72.53
809.515	66.39
809.694	66.39
809.873	140.12
810.052	54.1
810.231	101.2
810.411	148.31
810.59	127.83
810.769	113.49
810.948	140.12
811.127	86.87
811.306	74.58
811.485	148.31
811.664	109.4
811.843	58.2
812.022	78.68
812.201	144.21
812.38	140.12
812.559	66.39
812.737	84.82
812.916	115.54
813.095	125.78
813.274	90.96
813.453	58.2
813.632	29.52
813.811	117.59
813.989	41.81
814.168	117.59
814.347	90.96
814.526	60.24
814.704	41.81
814.883	78.68
815.062	50
815.24	90.96
815.419	54.1
815.598	121.68
815.776	58.2
815.955	25.43
816.133	17.24
816.312	27.48
816.49	97.11
816.669	123.73
816.847	25.43
817.026	117.59
817.204	113.49
817.383	-13.48
817.561	101.2
817.74	99.16
817.918	136.02
818.097	21.33
818.275	52.05
818.453	156.5
818.632	27.48
818.81	150.36
818.988	90.96
819.167	101.2
819.345	35.67
819.523	80.72
819.701	111.44
819.879	115.54
820.058	35.67
820.236	82.77
820.414	41.81
820.592	113.49
820.77	93.01
820.948	33.62
821.127	25.43
821.305	117.59
821.483	76.63
821.661	123.73
821.839	45.91
822.017	33.62
822.195	62.29
822.373	47.96
822.551	-11.43
822.729	86.87
822.907	-11.43
823.085	168.79
823.262	64.34
823.44	84.82
823.618	70.48
823.796	103.25
823.974	66.39
824.152	99.16
824.329	68.44
824.507	52.05
824.685	93.01
824.863	99.16
825.04	66.39
825.218	84.82
825.396	21.33
825.574	58.2
825.751	52.05
825.929	62.29
826.107	45.91
826.284	60.24
826.462	52.05
826.639	64.34
826.817	60.24
826.994	50
827.172	-5.29
827.349	90.96
827.527	60.24
827.704	-15.53
827.882	58.2
828.059	107.35
828.237	74.58
828.414	56.15
828.591	-1.19
828.769	35.67
828.946	39.76
829.124	101.2
829.301	60.24
829.478	66.39
829.655	107.35
829.833	13.14
830.01	19.29
830.187	123.73
830.364	72.53
830.542	136.02
830.719	25.43
830.896	41.81
831.073	82.77
831.25	136.02
831.427	47.96
831.604	47.96
831.782	52.05
831.959	50
832.136	78.68
832.313	78.68
832.49	31.57
832.667	43.86
832.844	-9.39
833.021	121.68
833.198	7
833.374	109.4
833.551	62.29
833.728	27.48
833.905	66.39
834.082	37.72
834.259	45.91
834.436	0.85
834.612	72.53
834.789	4.95
834.966	-31.91
835.143	60.24
835.319	56.15
835.496	93.01
835.673	101.2
835.85	33.62
836.026	15.19
836.203	-5.29
836.38	33.62
836.556	97.11
836.733	33.62
836.909	74.58
837.086	78.68
837.262	37.72
837.439	13.14
837.616	56.15
837.792	4.95
837.968	-1.19
838.145	54.1
838.321	23.38
838.498	58.2
838.674	15.19
838.851	52.05
839.027	39.76
839.203	93.01
839.38	41.81
839.556	142.16
839.732	11.09
839.909	27.48
840.085	50
840.261	52.05
840.437	72.53
840.614	54.1
840.79	70.48
840.966	56.15
841.142	17.24
841.318	43.86
841.494	31.57
841.671	54.1
841.847	33.62
842.023	-11.43
842.199	-7.34
842.375	2.9
842.551	43.86
842.727	-27.82
842.903	37.72
843.079	66.39
843.255	13.14
843.431	-1.19
843.607	29.52
843.783	0.85
843.959	41.81
844.134	90.96
844.31	52.05
844.486	35.67
844.662	7
844.838	25.43
845.013	-23.72
845.189	64.34
845.365	74.58
845.541	31.57
845.716	45.91
845.892	27.48
846.068	50
846.244	35.67
846.419	-29.87
846.595	88.92
846.77	-31.91
846.946	72.53
847.122	64.34
847.297	52.05
847.473	78.68
847.648	78.68
847.824	4.95
847.999	41.81
848.175	11.09
848.35	-27.82
848.526	9.05
848.701	31.57
848.876	133.97
849.052	95.06
849.227	-15.53
849.403	15.19
849.578	62.29
849.753	70.48
849.929	25.43
850.104	-3.24
850.279	17.24
850.454	56.15
850.63	4.95
850.805	4.95
850.98	111.44
851.155	113.49
851.33	11.09
851.505	43.86
851.681	95.06
851.856	33.62
852.031	84.82
852.206	47.96
852.381	-7.34
852.556	17.24
852.731	70.48
852.906	7
853.081	68.44
853.256	45.91
853.431	9.05
853.606	54.1
853.781	56.15
853.956	56.15
854.131	41.81
854.305	4.95
854.48	45.91
854.655	-13.48
854.83	2.9
855.005	19.29
855.18	29.52
855.354	31.57
855.529	60.24
855.704	2.9
855.879	60.24
856.053	25.43
856.228	9.05
856.403	43.86
856.577	74.58
856.752	45.91
856.926	66.39
857.101	4.95
857.276	-1.19
857.45	-7.34
857.625	-9.39
857.799	50
857.974	97.11
858.148	95.06
858.323	78.68
858.497	-38.06
858.672	27.48
858.846	0.85
859.02	11.09
859.195	35.67
859.369	17.24
859.543	13.14
859.718	11.09
859.892	25.43
860.066	-29.87
860.241	-19.63
860.415	23.38
860.589	4.95
860.763	0.85
860.938	9.05
861.112	-27.82
861.286	-23.72
861.46	17.24
861.634	-19.63
861.808	37.72
861.982	25.43
862.157	-33.96
862.331	7
862.505	-29.87
862.679	72.53
862.853	-40.11
863.027	0.85
863.201	70.48
863.375	9.05
863.549	27.48
863.722	52.05
863.896	25.43
864.07	31.57
864.244	80.72
864.418	90.96
864.592	41.81
864.766	-13.48
864.939	103.25
865.113	15.19
865.287	-5.29
865.461	33.62
865.634	-7.34
865.808	9.05
865.982	50
866.156	-13.48
866.329	-7.34
866.503	41.81
866.676	82.77
866.85	-40.11
867.024	11.09
867.197	82.77
867.371	29.52
867.544	13.14
867.718	-48.3
867.891	60.24
868.065	56.15
868.238	-15.53
868.412	64.34
868.585	-1.19
868.759	-29.87
868.932	-13.48
869.105	-27.82
869.279	-3.24
869.452	66.39
869.625	7
869.799	13.14
869.972	19.29
870.145	13.14
870.319	52.05
870.492	35.67
870.665	-13.48
870.838	64.34
871.011	70.48
871.185	97.11
871.358	-1.19
871.531	25.43
871.704	50
871.877	74.58
872.05	72.53
872.223	68.44
872.396	64.34
872.569	29.52
872.742	-58.54
872.915	0.85
873.088	43.86
873.261	43.86
873.434	23.38
873.607	50
873.78	-56.49
873.953	-19.63
874.126	84.82
874.299	15.19
874.471	41.81
874.644	4.95
874.817	-7.34
874.99	45.91
875.163	58.2
875.335	45.91
875.508	54.1
875.681	35.67
875.853	47.96
876.026	54.1
876.199	4.95
876.371	-1.19
876.544	58.2
876.717	19.29
876.889	-7.34
877.062	-36.01
877.234	54.1
877.407	15.19
877.579	-60.59
877.752	-31.91
877.924	2.9
878.097	21.33
878.269	-40.11
878.442	37.72
878.614	17.24
878.786	25.43
878.959	9.05
879.131	56.15
879.303	11.09
879.476	0.85
879.648	17.24
879.82	43.86
879.993	-11.43
880.165	35.67
880.337	37.72
880.509	-5.29
880.681	-13.48
880.854	9.05
881.026	54.1
881.198	62.29
881.37	45.91
881.542	47.96
881.714	78.68
881.886	50
882.058	-50.35
882.23	43.86
882.402	19.29
882.574	78.68
882.746	70.48
882.918	43.86
883.09	82.77
883.262	9.05
883.434	-13.48
883.606	0.85
883.778	35.67
883.95	-31.91
884.122	-62.63
884.293	4.95
884.465	25.43
884.637	43.86
884.809	37.72
884.98	58.2
885.152	-9.39
885.324	-21.67
885.496	13.14
885.667	82.77
885.839	-15.53
886.011	21.33
886.182	68.44
886.354	80.72
886.525	21.33
886.697	0.85
886.869	4.95
887.04	45.91
887.212	-15.53
887.383	111.44
887.555	-29.87
887.726	7
887.897	-19.63
888.069	-5.29
888.24	23.38
888.412	13.14
888.583	29.52
888.754	-27.82
888.926	4.95
889.097	90.96
889.268	43.86
889.44	-23.72
889.611	25.43
889.782	74.58
889.953	25.43
890.125	60.24
890.296	-31.91
890.467	-29.87
890.638	33.62
890.809	31.57
890.98	11.09
891.151	-70.83
891.323	41.81
891.494	43.86
891.665	-5.29
891.836	58.2
892.007	13.14
892.178	37.72
892.349	-15.53
892.52	54.1
892.691	-38.06
892.862	-27.82
893.032	-62.63
893.203	0.85
893.374	7
893.545	4.95
893.716	9.05
893.887	-46.25
894.057	99.16
894.228	-27.82
894.399	2.9
894.57	9.05
894.74	25.43
894.911	-7.34
895.082	-11.43
895.253	11.09
895.423	31.57
895.594	62.29
895.764	9.05
895.935	47.96
896.106	62.29
896.276	86.87
896.447	56.15
896.617	13.14
896.788	-9.39
896.958	93.01
897.129	21.33
897.299	43.86
897.47	-29.87
897.64	64.34
897.81	17.24
897.981	17.24
898.151	7
898.322	-31.91
898.492	13.14
898.662	50
898.832	7
899.003	29.52
899.173	0.85
899.343	31.57
899.513	52.05
