Data from USB4F104151__200__13-59-41-767.txt Node

Date: Thu Mar 13 13:59:41 EDT 2025
User: louis
Spectrometer: USB4F10415
Trigger mode: 4
Integration Time (sec): 1.000000E-2
Scans to average: 1
Electric dark correction enabled: true
Nonlinearity correction enabled: false
Boxcar width: 0
XAxis mode: Wavelengths
Number of Pixels in Spectrum: 3648
>>>>>Begin Spectral Data<<<<<
178.204	-107.52
178.424	-107.52
178.644	-107.52
178.864	-41.98
179.084	-105.47
179.304	1.02
179.524	21.5
179.744	-15.36
179.964	58.37
180.184	-35.84
180.404	-33.79
180.624	-68.61
180.844	-9.22
181.064	27.65
181.283	72.7
181.503	3.07
181.723	-21.5
181.943	-54.27
182.163	31.74
182.383	1.02
182.602	89.09
182.822	95.23
183.042	54.27
183.262	70.65
183.482	-21.5
183.701	15.36
183.921	3.07
184.141	-19.46
184.361	19.46
184.58	-11.26
184.8	62.46
185.02	23.55
185.239	97.28
185.459	17.41
185.679	9.22
185.898	-9.22
186.118	37.89
186.338	9.22
186.557	31.74
186.777	1.02
186.997	29.7
187.216	35.84
187.436	21.5
187.655	-17.41
187.875	-3.07
188.095	27.65
188.314	80.89
188.534	41.98
188.753	-25.6
188.973	52.22
189.192	23.55
189.412	37.89
189.631	125.95
189.851	-3.07
190.07	44.03
190.29	3.07
190.509	-11.26
190.729	74.75
190.948	3.07
191.168	-7.17
191.387	-35.84
191.607	27.65
191.826	-33.79
192.045	44.03
192.265	39.94
192.484	15.36
192.704	-19.46
192.923	70.65
193.142	37.89
193.362	62.46
193.581	-27.65
193.8	46.08
194.02	-66.56
194.239	33.79
194.458	27.65
194.678	-1.02
194.897	13.31
195.116	-1.02
195.335	19.46
195.555	-33.79
195.774	46.08
195.993	5.12
196.212	29.7
196.432	15.36
196.651	41.98
196.87	-11.26
197.089	33.79
197.308	39.94
197.528	56.32
197.747	-3.07
197.966	29.7
198.185	74.75
198.404	-60.42
198.623	-3.07
198.842	13.31
199.062	56.32
199.281	-21.5
199.5	50.18
199.719	89.09
199.938	54.27
200.157	7.17
200.376	-7.17
200.595	105.47
200.814	21.5
201.033	25.6
201.252	-44.03
201.471	33.79
201.69	7.17
201.909	23.55
202.128	7.17
202.347	-23.55
202.566	66.56
202.785	-27.65
203.004	-44.03
203.223	13.31
203.442	9.22
203.661	-56.32
203.879	109.57
204.098	70.65
204.317	-11.26
204.536	54.27
204.755	-19.46
204.974	60.42
205.193	-17.41
205.411	91.13
205.63	125.95
205.849	9.22
206.068	23.55
206.287	74.75
206.505	1.02
206.724	87.04
206.943	44.03
207.162	146.43
207.381	13.31
207.599	-1.02
207.818	35.84
208.037	74.75
208.255	50.18
208.474	-13.31
208.693	17.41
208.911	31.74
209.13	56.32
209.349	-9.22
209.567	1.02
209.786	17.41
210.005	7.17
210.223	78.85
210.442	-11.26
210.661	-27.65
210.879	80.89
211.098	31.74
211.316	58.37
211.535	74.75
211.753	19.46
211.972	5.12
212.191	46.08
212.409	21.5
212.628	-7.17
212.846	23.55
213.065	-9.22
213.283	21.5
213.502	66.56
213.72	64.51
213.938	21.5
214.157	37.89
214.375	84.99
214.594	-33.79
214.812	48.13
215.031	-48.13
215.249	31.74
215.467	62.46
215.686	52.22
215.904	52.22
216.122	-11.26
216.341	52.22
216.559	31.74
216.778	15.36
216.996	7.17
217.214	48.13
217.432	-13.31
217.651	87.04
217.869	7.17
218.087	-3.07
218.306	-21.5
218.524	113.66
218.742	39.94
218.96	23.55
219.179	-60.42
219.397	33.79
219.615	-11.26
219.833	-9.22
220.051	82.94
220.27	-23.55
220.488	-33.79
220.706	66.56
220.924	5.12
221.142	-27.65
221.36	56.32
221.578	37.89
221.796	29.7
222.015	19.46
222.233	3.07
222.451	11.26
222.669	-1.02
222.887	19.46
223.105	-11.26
223.323	29.7
223.541	68.61
223.759	11.26
223.977	-7.17
224.195	46.08
224.413	80.89
224.631	52.22
224.849	-52.22
225.067	113.66
225.285	41.98
225.503	-35.84
225.721	3.07
225.939	78.85
226.157	58.37
226.375	-39.94
226.592	21.5
226.81	-35.84
227.028	27.65
227.246	48.13
227.464	9.22
227.682	46.08
227.9	29.7
228.117	46.08
228.335	58.37
228.553	56.32
228.771	-33.79
228.989	39.94
229.206	7.17
229.424	-11.26
229.642	46.08
229.86	-33.79
230.077	17.41
230.295	-1.02
230.513	46.08
230.731	70.65
230.948	23.55
231.166	-3.07
231.384	-33.79
231.601	87.04
231.819	46.08
232.037	-35.84
232.254	33.79
232.472	-7.17
232.689	-1.02
232.907	111.61
233.125	46.08
233.342	7.17
233.56	52.22
233.777	29.7
233.995	72.7
234.213	27.65
234.43	31.74
234.648	-19.46
234.865	21.5
235.083	48.13
235.3	25.6
235.518	70.65
235.735	46.08
235.953	31.74
236.17	-11.26
236.388	80.89
236.605	-5.12
236.822	-27.65
237.04	25.6
237.257	5.12
237.475	7.17
237.692	52.22
237.909	56.32
238.127	62.46
238.344	25.6
238.562	15.36
238.779	31.74
238.996	62.46
239.214	78.85
239.431	33.79
239.648	60.42
239.865	37.89
240.083	33.79
240.3	39.94
240.517	9.22
240.735	41.98
240.952	9.22
241.169	148.48
241.386	91.13
241.603	1.02
241.821	27.65
242.038	56.32
242.255	33.79
242.472	78.85
242.689	82.94
242.907	128
243.124	5.12
243.341	17.41
243.558	25.6
243.775	-21.5
243.992	15.36
244.209	101.37
244.426	50.18
244.643	105.47
244.86	29.7
245.078	33.79
245.295	35.84
245.512	60.42
245.729	13.31
245.946	39.94
246.163	3.07
246.38	21.5
246.597	82.94
246.814	31.74
247.031	-19.46
247.248	21.5
247.464	54.27
247.681	107.52
247.898	5.12
248.115	5.12
248.332	-41.98
248.549	64.51
248.766	15.36
248.983	54.27
249.2	37.89
249.417	70.65
249.633	27.65
249.85	29.7
250.067	9.22
250.284	60.42
250.501	17.41
250.717	23.55
250.934	-39.94
251.151	3.07
251.368	62.46
251.585	31.74
251.801	21.5
252.018	21.5
252.235	15.36
252.451	21.5
252.668	62.46
252.885	101.37
253.102	-9.22
253.318	87.04
253.535	72.7
253.752	15.36
253.968	1.02
254.185	31.74
254.401	-54.27
254.618	-3.07
254.835	41.98
255.051	9.22
255.268	60.42
255.484	41.98
255.701	44.03
255.917	44.03
256.134	23.55
256.351	95.23
256.567	99.33
256.784	9.22
257	41.98
257.217	132.09
257.433	-13.31
257.65	31.74
257.866	91.13
258.082	27.65
258.299	68.61
258.515	33.79
258.732	58.37
258.948	48.13
259.165	31.74
259.381	37.89
259.597	31.74
259.814	7.17
260.03	-7.17
260.246	13.31
260.463	15.36
260.679	64.51
260.895	52.22
261.112	101.37
261.328	91.13
261.544	-19.46
261.761	35.84
261.977	115.71
262.193	-1.02
262.409	33.79
262.626	15.36
262.842	56.32
263.058	54.27
263.274	70.65
263.49	56.32
263.707	101.37
263.923	3.07
264.139	97.28
264.355	-1.02
264.571	84.99
264.787	17.41
265.004	37.89
265.22	1.02
265.436	21.5
265.652	62.46
265.868	21.5
266.084	-29.7
266.3	130.05
266.516	80.89
266.732	46.08
266.948	-27.65
267.164	70.65
267.38	23.55
267.596	29.7
267.812	39.94
268.028	52.22
268.244	66.56
268.46	66.56
268.676	39.94
268.892	62.46
269.108	70.65
269.324	35.84
269.54	44.03
269.756	74.75
269.972	11.26
270.188	78.85
270.403	41.98
270.619	80.89
270.835	121.85
271.051	29.7
271.267	23.55
271.483	-21.5
271.698	72.7
271.914	19.46
272.13	33.79
272.346	37.89
272.562	41.98
272.777	68.61
272.993	17.41
273.209	13.31
273.425	29.7
273.64	39.94
273.856	111.61
274.072	17.41
274.287	72.7
274.503	107.52
274.719	76.8
274.934	-11.26
275.15	9.22
275.366	41.98
275.581	46.08
275.797	62.46
276.012	29.7
276.228	29.7
276.444	11.26
276.659	54.27
276.875	19.46
277.09	27.65
277.306	74.75
277.521	54.27
277.737	46.08
277.952	31.74
278.168	23.55
278.383	121.85
278.599	-39.94
278.814	52.22
279.03	-1.02
279.245	56.32
279.461	-25.6
279.676	78.85
279.892	44.03
280.107	1.02
280.322	31.74
280.538	37.89
280.753	-11.26
280.969	44.03
281.184	27.65
281.399	91.13
281.615	41.98
281.83	113.66
282.045	-11.26
282.26	87.04
282.476	3.07
282.691	111.61
282.906	41.98
283.122	25.6
283.337	33.79
283.552	99.33
283.767	95.23
283.983	87.04
284.198	64.51
284.413	17.41
284.628	-39.94
284.843	115.71
285.058	35.84
285.274	-1.02
285.489	74.75
285.704	97.28
285.919	7.17
286.134	39.94
286.349	41.98
286.564	58.37
286.779	70.65
286.995	23.55
287.21	48.13
287.425	37.89
287.64	27.65
287.855	25.6
288.07	-50.18
288.285	48.13
288.5	29.7
288.715	3.07
288.93	39.94
289.145	9.22
289.36	37.89
289.575	39.94
289.79	89.09
290.004	54.27
290.219	33.79
290.434	13.31
290.649	60.42
290.864	-5.12
291.079	-5.12
291.294	66.56
291.509	37.89
291.724	-17.41
291.938	33.79
292.153	17.41
292.368	48.13
292.583	87.04
292.798	15.36
293.012	97.28
293.227	-1.02
293.442	99.33
293.657	48.13
293.871	37.89
294.086	72.7
294.301	87.04
294.516	31.74
294.73	-7.17
294.945	33.79
295.16	46.08
295.374	25.6
295.589	111.61
295.804	37.89
296.018	29.7
296.233	31.74
296.447	11.26
296.662	17.41
296.877	91.13
297.091	44.03
297.306	58.37
297.52	7.17
297.735	-1.02
297.949	82.94
298.164	78.85
298.378	-9.22
298.593	9.22
298.807	-1.02
299.022	91.13
299.236	62.46
299.451	21.5
299.665	46.08
299.88	25.6
300.094	103.42
300.309	64.51
300.523	23.55
300.737	-39.94
300.952	41.98
301.166	93.18
301.381	46.08
301.595	62.46
301.809	-25.6
302.024	7.17
302.238	39.94
302.452	-7.17
302.667	87.04
302.881	111.61
303.095	105.47
303.309	56.32
303.524	78.85
303.738	62.46
303.952	37.89
304.166	17.41
304.381	-1.02
304.595	33.79
304.809	-1.02
305.023	62.46
305.237	99.33
305.452	80.89
305.666	48.13
305.88	78.85
306.094	33.79
306.308	66.56
306.522	37.89
306.736	29.7
306.95	52.22
307.164	46.08
307.379	60.42
307.593	35.84
307.807	46.08
308.021	35.84
308.235	54.27
308.449	-25.6
308.663	89.09
308.877	82.94
309.091	54.27
309.305	41.98
309.519	5.12
309.733	27.65
309.947	39.94
310.161	105.47
310.374	27.65
310.588	56.32
310.802	48.13
311.016	3.07
311.23	15.36
311.444	62.46
311.658	15.36
311.872	-15.36
312.085	27.65
312.299	101.37
312.513	78.85
312.727	64.51
312.941	115.71
313.154	64.51
313.368	37.89
313.582	31.74
313.796	62.46
314.009	19.46
314.223	72.7
314.437	48.13
314.651	62.46
314.864	27.65
315.078	37.89
315.292	58.37
315.505	74.75
315.719	23.55
315.933	62.46
316.146	21.5
316.36	66.56
316.573	54.27
316.787	23.55
317.001	58.37
317.214	58.37
317.428	115.71
317.641	48.13
317.855	74.75
318.068	76.8
318.282	7.17
318.495	-11.26
318.709	15.36
318.922	80.89
319.136	128
319.349	15.36
319.563	107.52
319.776	1.02
319.99	60.42
320.203	99.33
320.417	25.6
320.63	76.8
320.843	70.65
321.057	5.12
321.27	70.65
321.483	46.08
321.697	39.94
321.91	15.36
322.124	17.41
322.337	72.7
322.55	11.26
322.763	1.02
322.977	33.79
323.19	37.89
323.403	52.22
323.617	101.37
323.83	99.33
324.043	23.55
324.256	107.52
324.469	7.17
324.683	146.43
324.896	19.46
325.109	21.5
325.322	44.03
325.535	3.07
325.748	1.02
325.962	119.81
326.175	54.27
326.388	-3.07
326.601	21.5
326.814	48.13
327.027	52.22
327.24	101.37
327.453	58.37
327.666	54.27
327.879	13.31
328.092	87.04
328.305	-11.26
328.518	72.7
328.731	60.42
328.944	97.28
329.157	56.32
329.37	64.51
329.583	31.74
329.796	62.46
330.009	60.42
330.222	54.27
330.435	136.19
330.648	3.07
330.861	37.89
331.073	19.46
331.286	74.75
331.499	-3.07
331.712	80.89
331.925	46.08
332.138	33.79
332.35	35.84
332.563	76.8
332.776	95.23
332.989	68.61
333.202	41.98
333.414	3.07
333.627	95.23
333.84	56.32
334.053	87.04
334.265	37.89
334.478	-21.5
334.691	23.55
334.903	119.81
335.116	3.07
335.329	60.42
335.541	70.65
335.754	46.08
335.966	60.42
336.179	33.79
336.392	1.02
336.604	68.61
336.817	-41.98
337.029	101.37
337.242	41.98
337.454	62.46
337.667	103.42
337.88	82.94
338.092	9.22
338.305	101.37
338.517	5.12
338.729	130.05
338.942	66.56
339.154	52.22
339.367	17.41
339.579	29.7
339.792	93.18
340.004	99.33
340.217	37.89
340.429	84.99
340.641	52.22
340.854	44.03
341.066	-15.36
341.278	-3.07
341.491	113.66
341.703	101.37
341.915	39.94
342.128	89.09
342.34	-39.94
342.552	56.32
342.764	25.6
342.977	78.85
343.189	54.27
343.401	23.55
343.613	9.22
343.826	48.13
344.038	25.6
344.25	33.79
344.462	60.42
344.674	56.32
344.886	60.42
345.099	31.74
345.311	76.8
345.523	37.89
345.735	-15.36
345.947	80.89
346.159	-3.07
346.371	21.5
346.583	27.65
346.795	105.47
347.007	115.71
347.219	52.22
347.431	60.42
347.643	128
347.855	-17.41
348.067	95.23
348.279	9.22
348.491	46.08
348.703	41.98
348.915	82.94
349.127	99.33
349.339	21.5
349.551	-7.17
349.763	37.89
349.975	35.84
350.187	64.51
350.399	125.95
350.61	-35.84
350.822	89.09
351.034	103.42
351.246	101.37
351.458	41.98
351.669	58.37
351.881	78.85
352.093	7.17
352.305	50.18
352.517	41.98
352.728	93.18
352.94	84.99
353.152	50.18
353.363	46.08
353.575	72.7
353.787	50.18
353.999	21.5
354.21	44.03
354.422	-35.84
354.633	91.13
354.845	52.22
355.057	70.65
355.268	72.7
355.48	54.27
355.692	76.8
355.903	-37.89
356.115	78.85
356.326	70.65
356.538	78.85
356.749	46.08
356.961	44.03
357.172	-1.02
357.384	76.8
357.595	60.42
357.807	111.61
358.018	121.85
358.23	64.51
358.441	33.79
358.653	37.89
358.864	91.13
359.075	46.08
359.287	91.13
359.498	9.22
359.709	27.65
359.921	7.17
360.132	68.61
360.344	52.22
360.555	39.94
360.766	50.18
360.977	74.75
361.189	74.75
361.4	52.22
361.611	80.89
361.823	109.57
362.034	7.17
362.245	70.65
362.456	21.5
362.667	58.37
362.879	62.46
363.09	97.28
363.301	-50.18
363.512	89.09
363.723	17.41
363.935	3.07
364.146	72.7
364.357	-7.17
364.568	107.52
364.779	-9.22
364.99	74.75
365.201	31.74
365.412	103.42
365.623	29.7
365.834	9.22
366.045	66.56
366.256	62.46
366.467	50.18
366.678	31.74
366.889	76.8
367.1	62.46
367.311	91.13
367.522	95.23
367.733	46.08
367.944	91.13
368.155	80.89
368.366	64.51
368.577	29.7
368.788	13.31
368.999	97.28
369.209	41.98
369.42	44.03
369.631	29.7
369.842	44.03
370.053	64.51
370.264	54.27
370.474	37.89
370.685	78.85
370.896	72.7
371.107	76.8
371.317	99.33
371.528	84.99
371.739	99.33
371.95	74.75
372.16	87.04
372.371	66.56
372.582	17.41
372.792	74.75
373.003	23.55
373.214	39.94
373.424	113.66
373.635	74.75
373.846	21.5
374.056	48.13
374.267	136.19
374.477	35.84
374.688	80.89
374.898	23.55
375.109	78.85
375.319	-33.79
375.53	76.8
375.74	74.75
375.951	54.27
376.161	95.23
376.372	41.98
376.582	33.79
376.793	68.61
377.003	52.22
377.214	13.31
377.424	54.27
377.635	-37.89
377.845	84.99
378.055	89.09
378.266	35.84
378.476	82.94
378.686	62.46
378.897	25.6
379.107	99.33
379.317	70.65
379.528	80.89
379.738	103.42
379.948	13.31
380.158	62.46
380.369	21.5
380.579	52.22
380.789	123.9
380.999	52.22
381.21	46.08
381.42	87.04
381.63	150.53
381.84	66.56
382.05	82.94
382.261	60.42
382.471	95.23
382.681	13.31
382.891	76.8
383.101	123.9
383.311	48.13
383.521	91.13
383.731	74.75
383.941	107.52
384.151	76.8
384.361	25.6
384.571	46.08
384.781	56.32
384.991	111.61
385.201	115.71
385.411	35.84
385.621	68.61
385.831	39.94
386.041	101.37
386.251	99.33
386.461	52.22
386.671	95.23
386.881	111.61
387.091	97.28
387.301	95.23
387.511	107.52
387.72	105.47
387.93	56.32
388.14	52.22
388.35	115.71
388.56	144.38
388.769	91.13
388.979	58.37
389.189	128
389.399	54.27
389.609	78.85
389.818	115.71
390.028	58.37
390.238	62.46
390.447	37.89
390.657	48.13
390.867	62.46
391.076	103.42
391.286	66.56
391.496	31.74
391.705	134.14
391.915	64.51
392.125	111.61
392.334	64.51
392.544	117.76
392.753	80.89
392.963	91.13
393.172	162.81
393.382	9.22
393.591	62.46
393.801	72.7
394.01	78.85
394.22	52.22
394.429	89.09
394.639	80.89
394.848	62.46
395.058	68.61
395.267	101.37
395.477	158.72
395.686	173.05
395.895	97.28
396.105	111.61
396.314	111.61
396.524	125.95
396.733	166.91
396.942	113.66
397.152	130.05
397.361	76.8
397.57	146.43
397.78	216.06
397.989	103.42
398.198	140.29
398.407	41.98
398.617	130.05
398.826	111.61
399.035	82.94
399.244	121.85
399.453	142.33
399.663	142.33
399.872	111.61
400.081	78.85
400.29	195.58
400.499	97.28
400.708	201.72
400.917	99.33
401.127	109.57
401.336	87.04
401.545	179.2
401.754	203.77
401.963	136.19
402.172	97.28
402.381	175.1
402.59	181.25
402.799	111.61
403.008	201.72
403.217	146.43
403.426	105.47
403.635	148.48
403.844	173.05
404.053	179.2
404.262	218.11
404.471	234.49
404.68	130.05
404.888	168.96
405.097	189.44
405.306	195.58
405.515	185.34
405.724	209.92
405.933	234.49
406.142	193.53
406.35	218.11
406.559	234.49
406.768	193.53
406.977	228.35
407.185	242.68
407.394	252.92
407.603	234.49
407.812	322.56
408.02	197.63
408.229	216.06
408.438	211.96
408.646	244.73
408.855	302.08
409.064	353.27
409.272	365.56
409.481	332.79
409.69	295.93
409.898	338.94
410.107	297.98
410.315	357.37
410.524	377.85
410.733	424.95
410.941	390.14
411.15	490.49
411.358	476.15
411.567	537.59
411.775	478.2
411.984	443.39
412.192	478.2
412.401	525.3
412.609	498.68
412.818	617.46
413.026	617.46
413.234	523.26
413.443	668.66
413.651	556.02
413.86	664.57
414.068	723.96
414.276	709.62
414.485	738.29
414.693	736.24
414.901	738.29
415.11	838.64
415.318	834.55
415.526	908.27
415.734	922.61
415.943	902.13
416.151	955.38
416.359	986.1
416.567	906.23
416.776	928.75
416.984	1022.96
417.192	1086.45
417.4	1108.98
417.608	1111.02
417.817	1186.8
418.025	1258.48
418.233	1301.48
418.441	1313.77
418.649	1326.06
418.857	1432.55
419.065	1446.89
419.273	1405.93
419.481	1547.24
419.689	1702.89
419.897	1725.41
420.105	1745.89
420.313	1799.14
420.521	1813.48
420.729	1858.53
420.937	1850.34
421.145	1987.55
421.353	2114.53
421.561	2151.39
421.769	2120.67
421.977	2288.61
422.185	2331.61
422.393	2462.68
422.601	2585.56
422.809	2603.99
423.017	2536.41
423.224	2790.36
423.432	2694.1
423.64	2864.08
423.848	3011.54
424.056	2954.19
424.263	3154.9
424.471	3333.07
424.679	3150.8
424.887	3541.96
425.094	3589.07
425.302	3466.19
425.51	3613.64
425.718	3754.95
425.925	3926.98
426.133	4086.72
426.341	4115.39
426.548	4379.58
426.756	4344.77
426.964	4430.78
427.171	4707.26
427.379	4821.94
427.586	4787.13
427.794	5088.18
428.001	5325.74
428.209	5376.94
428.417	5518.25
428.624	5647.27
428.832	5987.24
429.039	5727.14
429.247	5741.48
429.454	6398.88
429.662	6607.77
429.869	6323.1
430.076	6767.51
430.284	6534.04
430.491	6820.76
430.699	7177.11
430.906	7320.46
431.114	7594.89
431.321	7715.72
431.528	7711.63
431.736	8360.83
431.943	8706.94
432.15	8272.77
432.358	8377.22
432.565	9003.89
432.772	8915.83
432.979	9390.96
433.187	9298.8
433.394	9569.13
433.601	10304.35
433.808	10287.97
434.016	10120.04
434.223	10687.32
434.43	11260.76
434.637	10892.12
434.844	11746.12
435.052	11936.59
435.259	11637.58
435.466	12116.81
435.673	11688.78
435.88	12477.25
436.087	13540.15
436.294	13208.37
436.501	12938.04
436.708	13124.41
436.915	13855.53
437.122	14127.91
437.329	14236.45
437.537	14545.7
437.743	14842.65
437.95	14971.68
438.157	15514.39
438.364	16182.03
438.571	15999.76
438.778	16120.59
438.985	17748.72
439.192	16829.18
439.399	17439.48
439.606	17255.16
439.813	17896.17
440.02	19145.44
440.227	18625.25
440.433	18590.44
440.64	19354.33
440.847	19321.56
441.054	19735.25
441.261	20755.14
441.467	20554.44
441.674	20871.87
441.881	21768.88
442.088	21981.87
442.294	21455.54
442.501	22000.3
442.708	22422.19
442.914	23521.95
443.121	24388.24
443.328	23745.17
443.534	25217.66
443.741	25025.15
443.948	24347.28
444.154	26372.72
444.361	26217.07
444.568	26049.14
444.774	26546.79
444.981	26419.82
445.187	26884.71
445.394	28224.08
445.6	28336.72
445.807	30779.95
446.013	29370.94
446.22	29751.87
446.426	30915.11
446.633	31011.37
446.839	32627.21
447.046	31498.78
447.252	32995.85
447.459	33116.68
447.665	32555.54
447.871	33954.3
448.078	35475.94
448.284	33919.48
448.491	35006.95
448.697	36207.06
448.903	36825.55
449.11	36880.85
449.316	36399.57
449.522	36880.85
449.728	38087.1
449.935	38265.27
450.141	38406.58
450.347	38990.25
450.553	37972.41
450.76	38302.14
450.966	39799.2
451.172	39131.56
451.378	40004
451.584	39444.9
451.791	40524.18
451.997	40432.02
452.203	40960.4
452.409	41150.86
452.615	40814.99
452.821	38683.06
453.027	38807.98
453.233	40892.82
453.44	39379.37
453.646	39596.45
453.852	39506.34
454.058	40884.62
454.264	39395.75
454.47	40450.45
454.676	39039.4
454.882	40444.31
455.088	37179.85
455.294	37745.09
455.5	38357.43
455.705	38445.49
455.911	36966.86
456.117	36229.59
456.323	35787.23
456.529	33796.6
456.735	35418.6
456.941	34546.16
457.147	33810.94
457.352	32909.83
457.558	32336.4
457.764	32596.49
457.97	32342.55
458.176	31060.52
458.381	31285.79
458.587	30048.82
458.793	29954.61
458.999	28572.24
459.204	30687.79
459.41	29745.72
459.616	27744.86
459.821	27687.51
460.027	27642.46
460.233	27105.89
460.438	25801.33
460.644	26157.68
460.85	24818.31
461.055	24445.58
461.261	24472.2
461.466	22629.03
461.672	22119.09
461.878	23612.06
462.083	21826.23
462.289	21547.7
462.494	21402.3
462.7	20386.5
462.905	20069.07
463.111	20861.63
463.316	20789.95
463.522	20376.27
463.727	20230.86
463.932	20220.62
464.138	19952.34
464.343	20122.32
464.549	19610.32
464.754	20298.44
464.959	20296.39
465.165	19813.07
465.37	19305.18
465.575	18735.84
465.781	19290.84
465.986	19571.41
466.191	18889.44
466.397	18340.58
466.602	17464.05
466.807	18313.96
467.012	18471.65
467.218	18318.06
467.423	17930.99
467.628	18100.97
467.833	18871.01
468.038	18086.64
468.244	17771.25
468.449	18320.1
468.654	17474.29
468.859	17455.86
469.064	17447.67
469.269	16583.43
469.474	17101.56
469.679	17543.92
469.885	16464.64
470.09	17132.28
470.295	16845.57
470.5	16567.04
470.705	16519.94
470.91	16149.26
471.115	16153.35
471.32	16128.78
471.525	15885.07
471.73	15600.4
471.935	15754
472.139	15084.31
472.344	15485.72
472.549	15178.52
472.754	15168.28
472.959	14590.75
473.164	14644
473.369	14388
473.574	15012.63
473.778	14580.51
473.983	14490.4
474.188	14498.59
474.393	13783.85
474.598	13970.22
474.802	13480.75
475.007	13527.86
475.212	13581.1
475.417	13400.88
475.621	13132.6
475.826	13421.36
476.031	13069.11
476.235	12536.64
476.44	12866.36
476.645	12522.3
476.849	12528.45
477.054	12319.56
477.259	12337.99
477.463	12366.66
477.668	12063.56
477.872	12145.48
478.077	11979.59
478.282	11547.47
478.486	11619.15
478.691	11574.1
478.895	11453.27
479.1	11094.87
479.304	11623.25
479.509	10902.36
479.713	11371.35
479.918	11121.49
480.122	10888.03
480.326	10986.33
480.531	10982.23
480.735	10804.06
480.94	10759
481.144	10857.31
481.348	10425.18
481.553	10656.61
481.757	10523.49
481.961	10529.63
482.166	10808.16
482.37	10638.17
482.574	10421.09
482.778	10535.78
482.983	10988.38
483.187	10681.18
483.391	10566.49
483.595	10404.71
483.8	10142.57
484.004	10664.8
484.208	10478.43
484.412	10529.63
484.616	10443.62
484.821	10597.21
485.025	10394.47
485.229	10593.12
485.433	10429.28
485.637	10664.8
485.841	10466.14
486.045	10492.77
486.249	10503.01
486.453	10435.42
486.657	10343.27
486.861	10750.81
487.065	10318.69
487.269	10523.49
487.473	10287.97
487.677	10625.89
487.881	10672.99
488.085	10455.9
488.289	10675.04
488.493	10523.49
488.697	10668.89
488.901	10599.26
489.105	10738.52
489.309	10732.38
489.512	10814.3
489.716	10759
489.92	10599.26
490.124	10732.38
490.328	10808.16
490.531	10769.24
490.735	10828.63
490.939	10857.31
491.143	10771.29
491.346	10746.72
491.55	11094.87
491.754	11182.93
491.958	11055.96
492.161	11156.31
492.365	11074.39
492.569	11123.54
492.772	11074.39
492.976	11197.27
493.18	11236.18
493.383	11660.11
493.587	11533.14
493.79	11486.03
493.994	11651.92
494.197	11674.45
494.401	11643.73
494.605	11918.15
494.808	12067.66
495.012	12004.17
495.215	12088.14
495.419	12299.08
495.622	12120.9
495.825	12507.97
496.029	12368.71
496.232	12712.77
496.436	12583.74
496.639	12925.75
496.843	13112.12
497.046	13288.25
497.249	13497.14
497.453	13634.35
497.656	13601.58
497.859	13665.07
498.063	13624.11
498.266	14414.63
498.469	14234.41
498.673	14377.76
498.876	14480.16
499.079	14682.91
499.282	14533.41
499.485	15166.23
499.689	14859.04
499.892	15176.47
500.095	15147.8
500.298	15639.31
500.501	15725.33
500.705	16184.07
500.908	16427.78
501.111	16444.17
501.314	16679.68
501.517	16704.26
501.72	17095.42
501.923	17142.52
502.126	17277.69
502.329	17558.26
502.532	17873.65
502.735	17867.5
502.938	18264.81
503.141	18498.28
503.344	18782.95
503.547	18520.81
503.75	19139.29
503.953	19448.54
504.156	19577.56
504.359	19708.63
504.562	20005.58
504.765	20110.03
504.968	20753.09
505.17	21070.53
505.373	20998.85
505.576	21308.09
505.779	21441.21
505.982	21662.39
506.185	22082.22
506.387	21953.2
506.59	22514.34
506.793	23268
506.996	23034.53
507.198	23734.93
507.401	23521.95
507.604	23714.45
507.807	24224.4
508.009	24373.9
508.212	24701.58
508.415	25358.97
508.617	25621.11
508.82	25694.84
509.022	25860.73
509.225	26567.27
509.428	26663.53
509.63	26776.17
509.833	27023.97
510.035	27617.88
510.238	27320.93
510.44	27912.79
510.643	28480.08
510.845	28742.22
511.048	28887.62
511.25	29502.01
511.453	29567.55
511.655	30628.4
511.858	30222.9
512.06	30865.96
512.262	31126.05
512.465	31271.46
512.667	31537.69
512.87	32125.46
513.072	31631.9
513.274	32688.65
513.477	33137.16
513.679	33389.06
513.881	34050.55
514.084	34253.3
514.286	34548.21
514.488	34695.66
514.69	35729.89
514.893	36090.33
515.095	36184.54
515.297	36395.48
515.499	36639.18
515.701	37061.07
515.904	37683.65
516.106	37953.98
516.308	38156.73
516.51	38867.37
516.712	39027.12
516.914	39272.87
517.116	39969.18
517.318	39987.61
517.52	40493.46
517.722	41007.5
517.925	41208.2
518.127	41470.34
518.329	41918.85
518.531	42072.45
518.733	42701.17
518.935	43166.06
519.136	43204.97
519.338	43891.04
519.54	43811.17
519.742	44501.34
519.944	44523.86
520.146	45582.66
520.348	45427.02
520.55	45726.02
520.752	46252.35
520.954	47016.24
521.155	46655.8
521.357	47528.23
521.559	47442.22
521.761	48298.27
521.963	48623.9
522.164	48511.26
522.366	49185.04
522.568	49582.35
522.77	49789.19
522.971	50942.2
523.173	50071.81
523.375	50047.24
523.576	50753.79
523.778	50766.07
523.98	51390.7
524.181	51929.32
524.383	51831.02
524.584	52715.74
524.786	52676.83
524.988	52191.46
525.189	53178.58
525.391	53033.17
525.592	53596.37
525.794	53823.69
525.995	53758.16
526.197	53856.46
526.398	53913.8
526.6	54493.38
526.801	54722.75
527.003	54917.31
527.204	54884.54
527.406	55271.6
527.607	55410.87
527.808	55883.95
528.01	55046.33
528.211	55689.39
528.412	56758.43
528.614	56271.01
528.815	56381.6
529.016	57088.15
529.218	55810.22
529.419	56750.24
529.62	56903.84
529.822	56813.73
530.023	56666.27
530.224	57110.68
530.425	56899.74
530.626	57094.3
530.828	56813.73
531.029	58089.61
531.23	57297.05
531.431	57276.57
531.632	58439.81
531.833	58112.14
532.035	57835.66
532.236	57723.02
532.437	58155.14
532.638	57571.47
532.839	58452.1
533.04	58079.37
533.241	57913.48
533.442	58925.18
533.643	58259.59
533.844	58200.2
534.045	58183.82
534.246	57983.12
534.447	58497.16
534.648	58149
534.849	58695.81
535.05	58255.5
535.251	58550.4
535.451	58237.06
535.652	58409.09
535.853	57903.24
536.054	58495.11
536.255	58771.58
536.456	58065.03
536.657	59076.73
536.857	58755.2
537.058	58491.01
537.259	59377.78
537.46	58646.66
537.66	58417.28
537.861	58280.07
538.062	58409.09
538.263	58984.57
538.463	58159.24
538.664	58409.09
538.865	58722.43
539.065	59158.65
539.266	58452.1
539.466	58982.52
539.667	58501.25
539.868	59326.58
540.068	58611.84
540.269	58835.07
540.469	58824.83
540.67	58261.64
540.87	58519.68
541.071	58726.53
541.271	58970.24
541.472	58675.33
541.672	58413.19
541.873	58071.18
542.073	58067.08
542.274	58611.84
542.474	58529.92
542.675	58345.61
542.875	58869.89
543.075	58577.03
543.276	57565.33
543.476	58716.29
543.676	58255.5
543.877	58787.97
544.077	58390.66
544.277	58247.3
544.478	58151.05
544.678	58968.19
544.878	58355.85
545.078	58577.03
545.279	58372.23
545.479	58204.3
545.679	58439.81
545.879	58656.9
546.079	58327.17
546.28	58091.66
546.48	58073.23
546.68	58558.59
546.88	58591.36
547.08	58421.38
547.28	58005.64
547.48	57899.15
547.68	58118.28
547.88	58046.6
548.081	58402.95
548.281	57956.49
548.481	57747.6
548.681	58300.55
548.881	58226.82
549.081	58540.16
549.28	57983.12
549.48	58214.54
549.68	57929.87
549.88	58763.39
550.08	57788.56
550.28	58435.72
550.48	57817.23
550.68	58560.64
550.88	57725.07
551.08	57768.08
551.279	58435.72
551.479	57680.02
551.679	58589.31
551.879	58093.71
552.079	58155.14
552.278	58105.99
552.478	57983.12
552.678	57749.65
552.878	58345.61
553.077	57725.07
553.277	57720.98
553.477	58290.31
553.676	57483.41
553.876	57927.82
554.076	57637.01
554.275	57745.55
554.475	56928.41
554.674	57555.09
554.874	57602.19
555.074	57202.84
555.273	57651.34
555.473	57749.65
555.672	57221.27
555.872	57208.98
556.071	57471.12
556.271	57583.76
556.47	56647.84
556.67	56717.47
556.869	57057.43
557.068	57168.02
557.268	56400.04
557.467	56696.99
557.667	57092.25
557.866	57352.34
558.065	56598.69
558.265	56066.22
558.464	56672.42
558.663	56772.77
558.863	56205.48
559.062	57229.46
559.261	56320.16
559.461	56672.42
559.66	56139.94
559.859	56522.91
560.058	55900.33
560.258	56297.64
560.457	56260.77
560.656	56152.23
560.855	55558.32
561.054	56641.7
561.253	55623.86
561.453	55720.11
561.652	56375.46
561.851	56045.74
562.05	55404.72
562.249	55206.07
562.448	55736.49
562.647	56017.07
562.846	55535.79
563.045	55630
563.244	55046.33
563.443	55601.33
563.642	54728.89
563.841	55263.41
564.04	55249.08
564.239	55675.05
564.438	54745.28
564.637	55261.36
564.836	55498.93
565.035	54722.75
565.234	54929.59
565.432	54536.38
565.631	54579.39
565.83	54540.48
566.029	54575.3
566.228	54431.94
566.427	54311.11
566.625	54227.14
566.824	53551.31
567.023	54771.9
567.222	53438.67
567.42	54053.06
567.619	53817.55
567.818	53813.45
568.016	53741.77
568.215	53745.87
568.414	53491.92
568.612	53907.66
568.811	53469.39
569.01	53721.29
569.208	52672.73
569.407	53545.17
569.605	52556
569.804	53686.48
570.002	53145.81
570.201	52955.35
570.4	52486.37
570.598	52209.89
570.797	52154.6
570.995	52537.57
571.193	52109.54
571.392	52420.83
571.59	51792.11
571.789	52193.51
571.987	51849.45
572.186	51658.99
572.384	51540.21
572.582	52033.77
572.781	51517.68
572.979	51073.27
573.177	51603.69
573.376	51110.13
573.574	50995.45
573.772	51036.41
573.971	50886.9
574.169	50862.33
574.367	50583.8
574.565	50759.93
574.763	50344.19
574.962	49918.21
575.16	50096.39
575.358	50108.68
575.556	49686.79
575.754	50188.55
575.952	49275.15
576.151	49686.79
576.349	49414.41
576.547	49162.51
576.745	49170.71
576.943	49172.75
577.141	49529.1
577.339	48679.19
577.537	48775.45
577.735	48392.48
577.933	48621.85
578.131	48855.32
578.329	48468.25
578.527	48474.4
578.725	47989.03
578.923	48328.99
579.121	47946.02
579.319	47790.37
579.516	47796.52
579.714	47907.11
579.912	47104.31
580.11	47360.3
580.308	47206.7
580.506	47057.2
580.704	46549.31
580.901	47042.87
581.099	47227.18
581.297	46297.41
581.495	46184.77
581.692	47100.21
581.89	45797.7
582.088	46485.82
582.285	45979.97
582.483	46098.75
582.681	45906.24
582.878	45785.41
583.076	45400.4
583.274	45803.85
583.471	44925.27
583.669	45312.33
583.866	44917.07
584.064	45085.01
584.262	44630.36
584.459	44816.72
584.657	44400.99
584.854	44677.46
585.052	44165.47
585.249	44499.29
585.447	44144.99
585.644	43897.19
585.841	43745.64
586.039	44333.4
586.236	43481.45
586.434	43843.94
586.631	43428.2
586.828	43907.43
587.026	43772.26
587.223	42940.78
587.42	43069.81
587.618	42891.63
587.815	42551.67
588.012	42615.16
588.21	42410.36
588.407	42889.59
588.604	42107.26
588.801	42103.17
588.999	42232.19
589.196	42332.54
589.393	41968
589.59	41511.3
589.787	41447.82
589.984	41679.24
590.182	41114
590.379	41539.97
590.576	41116.04
590.773	41337.23
590.97	40673.68
591.167	40788.37
591.364	40595.86
591.561	40814.99
591.758	40454.55
591.955	40087.96
592.152	40280.47
592.349	40159.64
592.546	40343.96
592.743	40348.06
592.94	39702.95
593.137	40243.61
593.334	40100.25
593.531	39606.69
593.727	39850.4
593.924	39684.51
594.121	39088.56
594.318	39786.91
594.515	38838.7
594.712	39326.12
594.908	38480.31
595.105	39190.95
595.302	38513.08
595.499	38846.9
595.696	38687.15
595.892	38037.95
596.089	38429.11
596.286	38459.83
596.482	38097.34
596.679	38074.81
596.876	38019.52
597.072	37730.75
597.269	37896.64
597.466	37372.36
597.662	37476.8
597.859	37325.25
598.055	37235.14
598.252	37001.68
598.448	37204.42
598.645	36858.32
598.841	36567.51
599.038	36598.23
599.234	36719.06
599.431	36223.45
599.627	36389.33
599.824	36932.04
600.02	36227.54
600.217	36131.29
600.413	35779.04
600.609	35949.02
600.806	36059.61
601.002	35830.24
601.198	35301.86
601.395	35547.62
601.591	35518.95
601.787	35310.05
601.984	34994.67
602.18	35367.4
602.376	34783.73
602.572	34593.26
602.769	35047.91
602.965	33989.11
603.161	34431.47
603.357	34279.92
603.553	34394.61
603.75	34505.2
603.946	33946.11
604.142	34066.94
604.338	33794.56
604.534	33896.95
604.73	33556.99
604.926	33458.69
605.122	33452.55
605.318	33305.09
605.514	32915.98
605.71	32967.18
605.906	33075.72
606.102	33202.69
606.298	32907.79
606.494	32932.36
606.69	32518.67
606.886	32504.34
607.082	32033.3
607.278	32510.48
607.474	31855.13
607.67	32354.83
607.866	31642.14
608.062	32107.03
608.257	31693.34
608.453	31990.3
608.649	31805.98
608.845	31439.39
609.041	31595.04
609.236	31691.29
609.432	31031.85
609.628	31097.38
609.824	30988.84
610.019	30597.68
610.215	30874.15
610.411	31050.28
610.606	30781.99
610.802	30806.57
610.998	30628.4
611.193	30861.87
611.389	30757.42
611.584	30272.05
611.78	30108.21
611.976	30415.41
612.171	30437.94
612.367	30052.92
612.562	29968.95
612.758	29735.48
612.953	29608.51
613.149	29884.98
613.344	29569.6
613.539	29887.03
613.735	29364.8
613.93	29475.39
614.126	29055.56
614.321	29927.99
614.517	29387.33
614.712	29239.87
614.907	29082.18
615.103	29239.87
615.298	28830.28
615.493	29176.39
615.688	28439.12
615.884	28926.53
616.079	28332.62
616.274	28836.42
616.47	28539.47
616.665	28729.93
616.86	28002.9
617.055	28312.14
617.25	28070.48
617.445	28199.51
617.641	27638.36
617.836	28217.94
618.031	27839.06
618.226	27648.6
618.421	27329.12
618.616	28160.59
618.811	27593.31
619.006	27707.99
619.201	26950.24
619.396	27636.31
619.591	26645.1
619.786	26876.52
619.981	26620.52
620.176	26839.65
620.371	26542.7
620.566	26530.41
620.761	26217.07
620.956	26471.02
621.151	25954.93
621.346	26276.46
621.541	25674.36
621.735	26002.04
621.93	25473.66
622.125	25571.96
622.32	25053.83
622.515	25289.34
622.709	25340.54
622.904	24945.28
623.099	24834.69
623.294	24707.72
623.488	24486.54
623.683	24451.72
623.878	24150.67
624.072	24472.2
624.267	24205.97
624.462	23853.72
624.656	23700.12
624.851	23782.04
625.046	23702.17
625.24	23065.25
625.435	22999.71
625.629	23466.65
625.824	23143.07
626.018	23124.64
626.213	22794.92
626.407	22860.45
626.602	22155.95
626.796	22557.35
626.991	22553.26
627.185	22311.6
627.38	22184.62
627.574	21768.88
627.768	21951.15
627.963	21641.91
628.157	21476.02
628.352	21537.46
628.546	21297.85
628.74	21232.32
628.935	21164.73
629.129	21240.51
629.323	20771.52
629.517	20519.62
629.712	20763.33
629.906	20581.06
630.1	20427.46
630.294	20437.7
630.489	20077.26
630.683	20378.31
630.877	19624.66
631.071	19933.9
631.265	20099.79
631.459	19935.95
631.653	19653.33
631.848	19761.87
632.042	19507.93
632.236	19649.24
632.43	19051.23
632.624	19657.43
632.818	19108.57
633.012	19002.08
633.206	18985.69
633.4	18723.55
633.594	18690.79
633.788	18764.51
633.982	18787.04
634.176	18733.79
634.369	18404.07
634.563	18447.08
634.757	18176.75
634.951	17904.37
635.145	18123.5
635.339	17953.52
635.533	17935.09
635.726	17894.13
635.92	17453.81
636.114	17781.49
636.308	17472.25
636.501	17556.21
636.695	17683.19
636.889	17242.87
637.083	17439.48
637.276	17152.76
637.47	17189.63
637.664	16835.33
637.857	16876.29
638.051	16868.09
638.244	16995.07
638.438	16681.73
638.632	16597.76
638.825	16694.02
639.019	16356.1
639.212	16169.74
639.406	16151.31
639.599	16096.01
639.793	16046.86
639.986	15971.08
640.18	15907.6
640.373	15477.52
640.567	15627.03
640.76	15645.46
640.954	15350.55
641.147	15422.23
641.34	15399.7
641.534	15207.19
641.727	15381.27
641.92	15260.44
642.114	14842.65
642.307	15170.33
642.5	15026.97
642.694	14332.71
642.887	14420.77
643.08	14502.69
643.273	14439.2
643.467	14396.2
643.66	14480.16
643.853	14345
644.046	14170.92
644.239	14381.86
644.432	14148.39
644.626	14209.83
644.819	13775.66
645.012	13785.9
645.205	13816.62
645.398	13691.7
645.591	13521.71
645.784	13695.79
645.977	13450.03
646.17	13542.19
646.363	13370.16
646.556	13177.65
646.749	13441.84
646.942	13263.67
647.135	12802.88
647.328	12948.28
647.521	12620.61
647.714	12653.37
647.907	12786.49
648.099	12571.46
648.292	12510.02
648.485	12583.74
648.678	12307.27
648.871	12268.36
649.064	12014.41
649.256	12421.95
649.449	12059.46
649.642	12161.86
649.835	12008.26
650.027	12000.07
650.22	11758.41
650.413	11891.53
650.605	11791.18
650.798	11563.86
650.991	11402.07
651.183	11541.33
651.376	11217.75
651.568	11295.57
651.761	11154.26
651.954	11107.16
652.146	11129.69
652.339	11017.05
652.531	10818.39
652.724	11027.29
652.916	10689.37
653.109	10740.57
653.301	10656.61
653.494	10914.65
653.686	10427.23
653.879	10793.82
654.071	10500.96
654.263	10351.46
654.456	10130.28
654.648	10150.76
654.84	10070.89
655.033	10171.24
655.225	9933.67
655.417	9890.67
655.61	9798.51
655.802	9941.86
655.994	9636.72
656.186	9763.69
656.379	9560.94
656.571	9659.24
656.763	9261.94
656.955	9362.29
657.148	9448.3
657.34	9335.67
657.532	8989.56
657.724	9157.49
657.916	9016.18
658.108	8940.41
658.3	8784.76
658.492	8840.06
658.684	8768.38
658.876	8817.53
659.068	8876.92
659.26	8516.48
659.452	8516.48
659.644	8471.42
659.836	8426.37
660.028	8491.9
660.22	8151.94
660.412	8192.9
660.604	8131.46
660.796	7875.46
660.988	7967.62
661.18	8051.59
661.372	7791.5
661.563	7900.04
661.755	7732.11
661.947	7746.44
662.139	7887.75
662.331	7549.84
662.522	7508.88
662.714	7650.19
662.906	7426.96
663.097	7429.01
663.289	7254.93
663.481	7318.42
663.673	7289.74
663.864	7218.07
664.056	7095.19
664.247	7031.7
664.439	6874.01
664.631	6994.84
664.822	6802.33
665.014	6896.53
665.205	6718.36
665.397	6706.07
665.588	6765.46
665.78	6575
665.971	6601.63
666.163	6568.86
666.354	6626.2
666.546	6452.13
666.737	6386.59
666.929	6421.41
667.12	6357.92
667.311	6247.33
667.503	6310.82
667.694	6402.97
667.885	6263.71
668.077	5970.85
668.268	6171.55
668.459	5927.85
668.651	6171.55
668.842	5915.56
669.033	5972.9
669.224	5854.12
669.416	5921.7
669.607	5948.33
669.798	5817.26
669.989	5936.04
670.18	5729.19
670.371	5782.44
670.563	5837.73
670.754	5630.89
670.945	5714.86
671.136	5591.98
671.327	5669.8
671.518	5403.57
671.709	5555.12
671.9	5702.57
672.091	5563.31
672.282	5477.29
672.473	5391.28
672.664	5563.31
672.855	5268.4
673.046	5307.31
673.237	5325.74
673.428	5299.12
673.619	5374.89
673.809	5215.15
674	5092.27
674.191	5149.62
674.382	5229.49
674.573	5002.16
674.764	5223.34
674.954	5192.62
675.145	5159.86
675.336	4877.24
675.527	5055.41
675.717	5018.55
675.908	4914.1
676.099	4996.02
676.289	4864.95
676.48	4971.44
676.671	4797.37
676.861	4946.87
677.052	4690.87
677.243	4862.9
677.433	4768.7
677.624	4817.85
677.814	4680.63
678.005	4828.09
678.195	4639.67
678.386	4770.74
678.576	4565.95
678.767	4611
678.957	4619.19
679.148	4791.22
679.338	4484.03
679.529	4553.66
679.719	4602.81
679.909	4635.58
680.1	4484.03
680.29	4553.66
680.481	4518.84
680.671	4457.4
680.861	4572.09
681.052	4486.08
681.242	4350.91
681.432	4447.16
681.622	4377.53
681.813	4357.05
682.003	4359.1
682.193	4228.03
682.383	4381.63
682.573	4285.37
682.764	4389.82
682.954	4277.18
683.144	4359.1
683.334	4252.61
683.524	4266.94
683.714	4158.4
683.904	4242.37
684.094	4197.31
684.284	4103.11
684.474	4359.1
684.664	4230.08
684.854	4166.59
685.044	4182.98
685.234	4115.39
685.424	4293.57
685.614	4135.87
685.804	4090.82
685.994	4178.88
686.184	4127.68
686.374	4103.11
686.564	4109.25
686.753	4146.11
686.943	4144.06
687.133	4142.02
687.323	4238.27
687.513	4041.67
687.702	4053.95
687.892	4049.86
688.082	3998.66
688.272	3947.46
688.461	4070.34
688.651	4023.23
688.841	3984.32
689.03	4035.52
689.22	4039.62
689.41	4084.67
689.599	3914.69
689.789	4109.25
689.979	4049.86
690.168	4037.57
690.358	3955.65
690.547	3890.12
690.737	4056
690.926	3982.28
691.116	3937.22
691.305	4002.75
691.495	3947.46
691.684	3992.52
691.874	3963.84
692.063	3926.98
692.252	3843.01
692.442	3744.71
692.631	3830.73
692.82	3945.41
693.01	3871.68
693.199	3980.23
693.388	3840.97
693.578	3906.5
693.767	3879.88
693.956	3929.03
694.146	3937.22
694.335	3849.16
694.524	3830.73
694.713	3935.17
694.902	4010.95
695.092	3965.89
695.281	3808.2
695.47	3906.5
695.659	3851.21
695.848	3830.73
696.037	3777.48
696.226	3822.53
696.415	3877.83
696.604	3822.53
696.793	3763.14
696.982	3838.92
697.171	3781.57
697.36	3757
697.549	3783.62
697.738	3789.77
697.927	3832.77
698.116	3675.08
698.305	3683.27
698.494	3828.68
698.683	3828.68
698.872	3797.96
699.061	3668.94
699.25	3695.56
699.438	3687.37
699.627	3707.85
699.816	3761.09
700.005	3681.22
700.193	3562.44
700.382	3644.36
700.571	3701.7
700.76	3609.54
700.948	3560.39
701.137	3474.38
701.326	3554.25
701.514	3562.44
701.703	3519.43
701.892	3642.31
702.08	3472.33
702.269	3658.7
702.457	3621.83
702.646	3408.84
702.834	3515.34
703.023	3427.28
703.212	3488.71
703.4	3421.13
703.589	3357.64
703.777	3441.61
703.965	3306.45
704.154	3462.09
704.342	3382.22
704.531	3363.79
704.719	3359.69
704.907	3242.96
705.096	3265.49
705.284	3384.27
705.472	3253.2
705.661	3251.15
705.849	3324.88
706.037	3245.01
706.226	3240.91
706.414	3054.55
706.602	3181.52
706.79	3224.53
706.979	3169.23
707.167	3220.43
707.355	3103.7
707.543	3040.21
707.731	3195.86
707.919	3077.07
708.107	2933.72
708.296	3058.64
708.484	3036.11
708.672	3017.68
708.86	3095.5
709.048	3132.37
709.236	2948.05
709.424	2925.52
709.612	2888.66
709.8	2909.14
709.988	2868.18
710.176	2880.47
710.364	2984.91
710.551	2898.9
710.739	2933.72
710.927	2925.52
711.115	2890.71
711.303	2763.73
711.491	2839.51
711.679	2704.34
711.866	2825.17
712.054	2765.78
712.242	2685.91
712.43	2755.54
712.617	2743.25
712.805	2690.01
712.993	2780.12
713.181	2720.73
713.368	2657.24
713.556	2661.34
713.744	2679.77
713.931	2765.78
714.119	2649.05
714.306	2657.24
714.494	2628.57
714.682	2595.8
714.869	2593.75
715.057	2702.29
715.244	2597.85
715.432	2538.46
715.619	2536.41
715.807	2524.12
715.994	2520.03
716.182	2491.35
716.369	2579.42
716.556	2487.26
716.744	2446.3
716.931	2515.93
717.119	2425.82
717.306	2427.87
717.493	2370.52
717.681	2376.67
717.868	2460.63
718.055	2343.9
718.242	2288.61
718.43	2333.66
718.617	2345.95
718.804	2192.35
718.991	2323.42
719.179	2266.08
719.366	2212.83
719.553	2178.01
719.74	2259.93
719.927	2192.35
720.114	2333.66
720.301	2249.69
720.488	2167.77
720.676	2194.4
720.863	2272.22
721.05	2081.76
721.237	2210.78
721.424	2132.96
721.611	2243.55
721.798	2102.24
721.985	2143.2
722.172	2063.33
722.358	1995.75
722.545	2124.77
722.732	2071.52
722.919	2069.47
723.106	2026.47
723.293	1973.22
723.48	2024.42
723.667	2022.37
723.853	2028.51
724.04	1954.79
724.227	2003.94
724.414	1952.74
724.6	1962.98
724.787	1975.27
724.974	1842.15
725.161	1940.45
725.347	1913.83
725.534	1879.01
725.72	1872.87
725.907	1944.55
726.094	1883.11
726.28	1922.02
726.467	1897.44
726.653	1881.06
726.84	1883.11
727.027	1897.44
727.213	1725.41
727.4	1831.91
727.586	1784.8
727.773	1733.61
727.959	1807.33
728.145	1784.8
728.332	1745.89
728.518	1729.51
728.705	1836
728.891	1735.65
729.077	1688.55
729.264	1768.42
729.45	1692.65
729.636	1610.73
729.823	1639.4
730.009	1733.61
730.195	1668.07
730.382	1684.45
730.568	1663.97
730.754	1629.16
730.94	1604.58
731.126	1704.93
731.313	1684.45
731.499	1586.15
731.685	1575.91
731.871	1620.97
732.057	1645.54
732.243	1577.96
732.429	1493.99
732.615	1545.19
732.801	1481.71
732.987	1459.18
733.173	1555.43
733.359	1465.32
733.545	1510.38
733.731	1471.47
733.917	1534.95
734.103	1500.14
734.289	1422.31
734.475	1465.32
734.661	1516.52
734.847	1496.04
735.033	1432.55
735.219	1401.83
735.404	1430.51
735.59	1528.81
735.776	1555.43
735.962	1483.75
736.148	1487.85
736.333	1389.55
736.519	1313.77
736.705	1498.09
736.89	1438.7
737.076	1332.2
737.262	1340.4
737.447	1350.64
737.633	1354.73
737.819	1463.27
738.004	1305.58
738.19	1381.35
738.375	1274.86
738.561	1344.49
738.747	1278.96
738.932	1254.38
739.118	1346.54
739.303	1287.15
739.489	1301.48
739.674	1332.2
739.859	1350.64
740.045	1264.62
740.23	1256.43
740.416	1274.86
740.601	1356.78
740.786	1170.41
740.972	1231.85
741.157	1283.05
741.342	1176.56
741.528	1252.33
741.713	1246.19
741.898	1217.52
742.084	1309.68
742.269	1121.26
742.454	1170.41
742.639	1254.38
742.824	1192.94
743.01	1192.94
743.195	1129.45
743.38	1205.23
743.565	1119.21
743.75	1088.5
743.935	1133.55
744.12	1174.51
744.305	1121.26
744.49	1242.09
744.675	1158.13
744.86	1078.26
745.045	1012.72
745.23	1139.69
745.415	1086.45
745.6	1127.41
745.785	1053.68
745.97	1149.93
746.155	1090.54
746.34	1018.86
746.525	1068.02
746.71	1051.63
746.895	1082.35
747.079	1012.72
747.264	1043.44
747.449	1014.77
747.634	1022.96
747.819	947.19
748.003	998.38
748.188	979.95
748.373	932.85
748.557	1016.82
748.742	914.42
748.927	957.43
749.111	859.12
749.296	936.95
749.481	1078.26
749.665	963.57
749.85	941.04
750.034	914.42
750.219	922.61
750.404	941.04
750.588	914.42
750.773	926.71
750.957	850.93
751.141	891.89
751.326	855.03
751.51	857.07
751.695	838.64
751.879	830.45
752.064	914.42
752.248	885.75
752.432	834.55
752.617	879.6
752.801	883.7
752.985	830.45
753.17	801.78
753.354	758.77
753.538	785.4
753.722	799.73
753.907	828.4
754.091	949.23
754.275	779.25
754.459	834.55
754.643	791.54
754.828	857.07
755.012	758.77
755.196	721.91
755.38	769.01
755.564	787.44
755.748	738.29
755.932	758.77
756.116	752.63
756.3	754.68
756.484	726
756.668	703.48
756.852	662.52
757.036	769.01
757.22	820.21
757.404	752.63
757.588	730.1
757.772	619.51
757.956	642.04
758.14	732.15
758.323	701.43
758.507	650.23
758.691	699.38
758.875	691.19
759.059	631.8
759.242	642.04
759.426	711.67
759.61	771.06
759.794	633.85
759.977	580.6
760.161	685.05
760.345	586.74
760.528	586.74
760.712	668.66
760.895	654.33
761.079	685.05
761.263	676.85
761.446	611.32
761.63	652.28
761.813	613.37
761.997	611.32
762.18	652.28
762.364	594.93
762.547	564.22
762.731	611.32
762.914	572.41
763.098	547.83
763.281	635.89
763.464	668.66
763.648	611.32
763.831	562.17
764.015	549.88
764.198	605.17
764.381	572.41
764.564	474.1
764.748	586.74
764.931	564.22
765.114	592.89
765.297	584.7
765.481	556.02
765.664	553.98
765.847	529.4
766.03	584.7
766.213	635.89
766.397	531.45
766.58	551.93
766.763	578.55
766.946	545.78
767.129	562.17
767.312	545.78
767.495	547.83
767.678	535.54
767.861	562.17
768.044	508.92
768.227	502.78
768.41	549.88
768.593	508.92
768.776	586.74
768.959	531.45
769.142	582.65
769.324	488.44
769.507	570.36
769.69	564.22
769.873	502.78
770.056	553.98
770.239	504.82
770.421	513.02
770.604	543.74
770.787	594.93
770.97	519.16
771.152	482.3
771.335	521.21
771.518	529.4
771.7	504.82
771.883	574.46
772.066	488.44
772.248	496.63
772.431	531.45
772.613	558.07
772.796	494.58
772.978	537.59
773.161	523.26
773.343	472.06
773.526	529.4
773.708	537.59
773.891	486.39
774.073	556.02
774.256	533.5
774.438	500.73
774.621	482.3
774.803	603.13
774.985	422.91
775.168	457.72
775.35	543.74
775.532	420.86
775.715	451.58
775.897	457.72
776.079	519.16
776.261	451.58
776.444	488.44
776.626	465.91
776.808	433.15
776.99	476.15
777.173	488.44
777.355	480.25
777.537	490.49
777.719	367.61
777.901	435.19
778.083	398.33
778.265	422.91
778.447	424.95
778.629	394.23
778.811	449.53
778.993	406.52
779.175	412.67
779.357	431.1
779.539	392.19
779.721	381.95
779.903	390.14
780.085	359.42
780.267	347.13
780.449	388.09
780.631	410.62
780.812	340.99
780.994	441.34
781.176	351.23
781.358	379.9
781.54	353.27
781.721	383.99
781.903	410.62
782.085	443.39
782.267	326.65
782.448	308.22
782.63	336.89
782.812	291.84
782.993	388.09
783.175	363.51
783.357	365.56
783.538	381.95
783.72	340.99
783.901	269.31
784.083	297.98
784.264	357.37
784.446	359.42
784.627	330.75
784.809	324.6
784.99	302.08
785.172	224.25
785.353	326.65
785.535	308.22
785.716	310.27
785.897	275.45
786.079	277.5
786.26	263.16
786.441	295.93
786.623	316.41
786.804	279.55
786.985	240.64
787.167	287.74
787.348	326.65
787.529	261.12
787.71	326.65
787.891	281.6
788.073	332.79
788.254	308.22
788.435	285.69
788.616	332.79
788.797	181.25
788.978	295.93
789.159	246.78
789.34	226.3
789.522	214.01
789.703	271.36
789.884	254.97
790.065	220.16
790.246	359.42
790.427	228.35
790.607	324.6
790.788	310.27
790.969	222.2
791.15	238.59
791.331	326.65
791.512	171.01
791.693	164.86
791.874	261.12
792.054	250.88
792.235	254.97
792.416	136.19
792.597	263.16
792.778	273.4
792.958	261.12
793.139	275.45
793.32	216.06
793.5	209.92
793.681	228.35
793.862	252.92
794.042	261.12
794.223	162.81
794.404	259.07
794.584	205.82
794.765	218.11
794.945	271.36
795.126	291.84
795.306	185.34
795.487	179.2
795.667	244.73
795.848	228.35
796.028	136.19
796.209	214.01
796.389	154.62
796.57	228.35
796.75	201.72
796.93	193.53
797.111	261.12
797.291	226.3
797.471	224.25
797.652	195.58
797.832	209.92
798.012	142.33
798.192	115.71
798.373	187.39
798.553	214.01
798.733	191.49
798.913	146.43
799.093	150.53
799.274	171.01
799.454	216.06
799.634	164.86
799.814	234.49
799.994	103.42
800.174	197.63
800.354	193.53
800.534	121.85
800.714	150.53
800.894	152.57
801.074	138.24
801.254	173.05
801.434	175.1
801.614	74.75
801.794	146.43
801.974	433.15
802.154	128
802.334	232.44
802.514	140.29
802.693	152.57
802.873	154.62
803.053	177.15
803.233	203.77
803.413	173.05
803.592	146.43
803.772	201.72
803.952	128
804.131	195.58
804.311	166.91
804.491	168.96
804.67	113.66
804.85	125.95
805.03	154.62
805.209	207.87
805.389	64.51
805.568	136.19
805.748	134.14
805.928	136.19
806.107	125.95
806.287	173.05
806.466	211.96
806.646	140.29
806.825	128
807.004	123.9
807.184	191.49
807.363	107.52
807.543	76.8
807.722	156.67
807.901	154.62
808.081	146.43
808.26	72.7
808.439	105.47
808.619	148.48
808.798	162.81
808.977	111.61
809.156	64.51
809.336	160.77
809.515	41.98
809.694	103.42
809.873	95.23
810.052	76.8
810.231	136.19
810.411	115.71
810.59	138.24
810.769	95.23
810.948	107.52
811.127	95.23
811.306	87.04
811.485	93.18
811.664	89.09
811.843	60.42
812.022	173.05
812.201	158.72
812.38	101.37
812.559	162.81
812.737	152.57
812.916	117.76
813.095	128
813.274	162.81
813.453	111.61
813.632	130.05
813.811	89.09
813.989	130.05
814.168	101.37
814.347	105.47
814.526	144.38
814.704	107.52
814.883	136.19
815.062	144.38
815.24	123.9
815.419	27.65
815.598	130.05
815.776	84.99
815.955	89.09
816.133	117.76
816.312	41.98
816.49	78.85
816.669	54.27
816.847	93.18
817.026	91.13
817.204	48.13
817.383	132.09
817.561	115.71
817.74	80.89
817.918	99.33
818.097	123.9
818.275	115.71
818.453	78.85
818.632	48.13
818.81	130.05
818.988	64.51
819.167	89.09
819.345	156.67
819.523	150.53
819.701	105.47
819.879	128
820.058	99.33
820.236	160.77
820.414	80.89
820.592	70.65
820.77	105.47
820.948	37.89
821.127	-7.17
821.305	142.33
821.483	39.94
821.661	72.7
821.839	64.51
822.017	72.7
822.195	119.81
822.373	95.23
822.551	156.67
822.729	109.57
822.907	-3.07
823.085	70.65
823.262	93.18
823.44	93.18
823.618	58.37
823.796	68.61
823.974	41.98
824.152	5.12
824.329	156.67
824.507	166.91
824.685	76.8
824.863	97.28
825.04	13.31
825.218	78.85
825.396	-17.41
825.574	62.46
825.751	175.1
825.929	80.89
826.107	17.41
826.284	115.71
826.462	58.37
826.639	80.89
826.817	72.7
826.994	64.51
827.172	119.81
827.349	97.28
827.527	56.32
827.704	97.28
827.882	111.61
828.059	136.19
828.237	95.23
828.414	66.56
828.591	17.41
828.769	29.7
828.946	95.23
829.124	121.85
829.301	66.56
829.478	95.23
829.655	95.23
829.833	136.19
830.01	78.85
830.187	84.99
830.364	48.13
830.542	119.81
830.719	62.46
830.896	31.74
831.073	39.94
831.25	35.84
831.427	54.27
831.604	31.74
831.782	52.22
831.959	48.13
832.136	37.89
832.313	97.28
832.49	56.32
832.667	58.37
832.844	50.18
833.021	78.85
833.198	97.28
833.374	128
833.551	58.37
833.728	72.7
833.905	39.94
834.082	23.55
834.259	121.85
834.436	123.9
834.612	74.75
834.789	74.75
834.966	52.22
835.143	56.32
835.319	50.18
835.496	74.75
835.673	68.61
835.85	91.13
836.026	97.28
836.203	41.98
836.38	68.61
836.556	9.22
836.733	31.74
836.909	46.08
837.086	74.75
837.262	46.08
837.439	82.94
837.616	-15.36
837.792	31.74
837.968	68.61
838.145	29.7
838.321	5.12
838.498	27.65
838.674	177.15
838.851	35.84
839.027	48.13
839.203	46.08
839.38	115.71
839.556	21.5
839.732	84.99
839.909	62.46
840.085	21.5
840.261	87.04
840.437	39.94
840.614	19.46
840.79	76.8
840.966	68.61
841.142	82.94
841.318	9.22
841.494	5.12
841.671	31.74
841.847	70.65
842.023	11.26
842.199	7.17
842.375	13.31
842.551	54.27
842.727	-7.17
842.903	89.09
843.079	50.18
843.255	52.22
843.431	60.42
843.607	89.09
843.783	9.22
843.959	80.89
844.134	-1.02
844.31	23.55
844.486	19.46
844.662	-13.31
844.838	82.94
845.013	74.75
845.189	80.89
845.365	46.08
845.541	37.89
845.716	44.03
845.892	7.17
846.068	97.28
846.244	68.61
846.419	-5.12
846.595	-15.36
846.77	50.18
846.946	7.17
847.122	60.42
847.297	46.08
847.473	136.19
847.648	21.5
847.824	46.08
847.999	-7.17
848.175	-52.22
848.35	7.17
848.526	7.17
848.701	103.42
848.876	50.18
849.052	-19.46
849.227	101.37
849.403	17.41
849.578	17.41
849.753	44.03
849.929	80.89
850.104	46.08
850.279	76.8
850.454	80.89
850.63	74.75
850.805	91.13
850.98	101.37
851.155	64.51
851.33	87.04
851.505	70.65
851.681	62.46
851.856	19.46
852.031	31.74
852.206	44.03
852.381	31.74
852.556	54.27
852.731	62.46
852.906	48.13
853.081	95.23
853.256	54.27
853.431	21.5
853.606	64.51
853.781	21.5
853.956	-27.65
854.131	-11.26
854.305	13.31
854.48	31.74
854.655	25.6
854.83	-15.36
855.005	9.22
855.18	29.7
855.354	35.84
855.529	23.55
855.704	-35.84
855.879	23.55
856.053	33.79
856.228	103.42
856.403	21.5
856.577	27.65
856.752	29.7
856.926	31.74
857.101	39.94
857.276	-5.12
857.45	29.7
857.625	95.23
857.799	-5.12
857.974	29.7
858.148	35.84
858.323	33.79
858.497	-52.22
858.672	39.94
858.846	-3.07
859.02	9.22
859.195	39.94
859.369	44.03
859.543	-13.31
859.718	89.09
859.892	37.89
860.066	-11.26
860.241	37.89
860.415	29.7
860.589	35.84
860.763	23.55
860.938	-13.31
861.112	97.28
861.286	-3.07
861.46	72.7
861.634	41.98
861.808	46.08
861.982	-7.17
862.157	-5.12
862.331	11.26
862.505	5.12
862.679	-19.46
862.853	54.27
863.027	-13.31
863.201	21.5
863.375	89.09
863.549	-1.02
863.722	35.84
863.896	64.51
864.07	54.27
864.244	-15.36
864.418	41.98
864.592	64.51
864.766	-9.22
864.939	23.55
865.113	19.46
865.287	-35.84
865.461	56.32
865.634	-3.07
865.808	64.51
865.982	64.51
866.156	-72.7
866.329	33.79
866.503	119.81
866.676	15.36
866.85	48.13
867.024	27.65
867.197	9.22
867.371	27.65
867.544	-11.26
867.718	5.12
867.891	52.22
868.065	109.57
868.238	-13.31
868.412	89.09
868.585	54.27
868.759	-41.98
868.932	13.31
869.105	-44.03
869.279	27.65
869.452	46.08
869.625	39.94
869.799	-9.22
869.972	3.07
870.145	62.46
870.319	31.74
870.492	3.07
870.665	-41.98
870.838	-1.02
871.011	31.74
871.185	-27.65
871.358	-23.55
871.531	99.33
871.704	3.07
871.877	48.13
872.05	-5.12
872.223	72.7
872.396	-23.55
872.569	41.98
872.742	23.55
872.915	41.98
873.088	41.98
873.261	7.17
873.434	-5.12
873.607	72.7
873.78	19.46
873.953	-5.12
874.126	37.89
874.299	62.46
874.471	-7.17
874.644	60.42
874.817	13.31
874.99	46.08
875.163	-35.84
875.335	41.98
875.508	5.12
875.681	50.18
875.853	29.7
876.026	123.9
876.199	54.27
876.371	9.22
876.544	101.37
876.717	41.98
876.889	33.79
877.062	31.74
877.234	-35.84
877.407	44.03
877.579	62.46
877.752	152.57
877.924	-23.55
878.097	60.42
878.269	-3.07
878.442	3.07
878.614	25.6
878.786	48.13
878.959	39.94
879.131	41.98
879.303	44.03
879.476	89.09
879.648	-13.31
879.82	29.7
879.993	15.36
880.165	-52.22
880.337	-52.22
880.509	5.12
880.681	-17.41
880.854	7.17
881.026	-39.94
881.198	54.27
881.37	17.41
881.542	35.84
881.714	13.31
881.886	37.89
882.058	35.84
882.23	50.18
882.402	-44.03
882.574	25.6
882.746	-15.36
882.918	74.75
883.09	-17.41
883.262	41.98
883.434	9.22
883.606	37.89
883.778	-33.79
883.95	5.12
884.122	-11.26
884.293	37.89
884.465	-11.26
884.637	46.08
884.809	-11.26
884.98	15.36
885.152	-37.89
885.324	15.36
885.496	56.32
885.667	41.98
885.839	9.22
886.011	1.02
886.182	-13.31
886.354	56.32
886.525	-78.85
886.697	23.55
886.869	-9.22
887.04	74.75
887.212	-27.65
887.383	31.74
887.555	15.36
887.726	44.03
887.897	35.84
888.069	39.94
888.24	48.13
888.412	5.12
888.583	54.27
888.754	27.65
888.926	-23.55
889.097	19.46
889.268	-17.41
889.44	58.37
889.611	-29.7
889.782	46.08
889.953	-23.55
890.125	-66.56
890.296	23.55
890.467	25.6
890.638	31.74
890.809	1.02
890.98	-33.79
891.151	39.94
891.323	1.02
891.494	60.42
891.665	-27.65
891.836	31.74
892.007	3.07
892.178	31.74
892.349	29.7
892.52	19.46
892.691	-27.65
892.862	41.98
893.032	27.65
893.203	-11.26
893.374	-9.22
893.545	115.71
893.716	-31.74
893.887	37.89
894.057	11.26
894.228	-31.74
894.399	33.79
894.57	31.74
894.74	29.7
894.911	-11.26
895.082	-21.5
895.253	-29.7
895.423	-19.46
895.594	15.36
895.764	78.85
895.935	21.5
896.106	-52.22
896.276	-9.22
896.447	-11.26
896.617	52.22
896.788	48.13
896.958	3.07
897.129	19.46
897.299	39.94
897.47	1.02
897.64	31.74
897.81	-15.36
897.981	44.03
898.151	-25.6
898.322	15.36
898.492	29.7
898.662	74.75
898.832	-52.22
899.003	-1.02
899.173	54.27
899.343	35.84
899.513	37.89
