Data from USB4F104151__21__13-52-36-843.txt Node

Date: Thu Mar 13 13:52:36 EDT 2025
User: louis
Spectrometer: USB4F10415
Trigger mode: 4
Integration Time (sec): 1.000000E-2
Scans to average: 1
Electric dark correction enabled: true
Nonlinearity correction enabled: false
Boxcar width: 0
XAxis mode: Wavelengths
Number of Pixels in Spectrum: 3648
>>>>>Begin Spectral Data<<<<<
178.204	12.12
178.424	12.12
178.644	12.12
178.864	-8.36
179.084	-39.08
179.304	-32.94
179.524	36.69
179.744	-22.7
179.964	-47.27
180.184	-20.65
180.404	12.12
180.624	-34.99
180.844	-10.41
181.064	53.08
181.283	32.6
181.503	8.02
181.723	26.45
181.943	61.27
182.163	67.41
182.383	-18.6
182.602	135
182.822	81.75
183.042	-6.31
183.262	42.84
183.482	98.13
183.701	98.13
183.921	-14.51
184.141	5.97
184.361	67.41
184.58	104.28
184.8	10.07
185.02	-18.6
185.239	-6.31
185.459	122.71
185.679	67.41
185.898	63.32
186.118	28.5
186.338	83.8
186.557	57.17
186.777	-32.94
186.997	40.79
187.216	16.21
187.436	53.08
187.655	81.75
187.875	120.66
188.095	24.4
188.314	55.12
188.534	32.6
188.753	102.23
188.973	36.69
189.192	77.65
189.412	59.22
189.631	130.9
189.851	18.26
190.07	42.84
190.29	67.41
190.509	36.69
190.729	116.56
190.948	40.79
191.168	61.27
191.387	38.74
191.607	-20.65
191.826	55.12
192.045	48.98
192.265	3.93
192.484	135
192.704	46.93
192.923	36.69
193.142	149.33
193.362	94.04
193.581	59.22
193.8	14.17
194.02	104.28
194.239	91.99
194.458	30.55
194.678	18.26
194.897	-57.51
195.116	-6.31
195.335	46.93
195.555	12.12
195.774	155.47
195.993	67.41
196.212	61.27
196.432	-4.27
196.651	51.03
196.87	137.04
197.089	69.46
197.308	71.51
197.528	12.12
197.747	91.99
197.966	16.21
198.185	106.32
198.404	44.88
198.623	63.32
198.842	44.88
199.062	16.21
199.281	36.69
199.5	48.98
199.719	61.27
199.938	81.75
200.157	10.07
200.376	-18.6
200.595	91.99
200.814	42.84
201.033	89.94
201.252	63.32
201.471	20.31
201.69	10.07
201.909	40.79
202.128	42.84
202.347	96.08
202.566	51.03
202.785	51.03
203.004	46.93
203.223	-59.56
203.442	106.32
203.661	61.27
203.879	-28.84
204.098	75.6
204.317	55.12
204.536	77.65
204.755	18.26
204.974	30.55
205.193	10.07
205.411	46.93
205.63	-0.17
205.849	18.26
206.068	48.98
206.287	-6.31
206.505	38.74
206.724	59.22
206.943	3.93
207.162	22.36
207.381	10.07
207.599	57.17
207.818	53.08
208.037	59.22
208.255	16.21
208.474	14.17
208.693	34.64
208.911	96.08
209.13	89.94
209.349	34.64
209.567	-16.55
209.786	-8.36
210.005	139.09
210.223	67.41
210.442	14.17
210.661	102.23
210.879	24.4
211.098	104.28
211.316	73.56
211.535	22.36
211.753	32.6
211.972	30.55
212.191	-18.6
212.409	55.12
212.628	53.08
212.846	89.94
213.065	75.6
213.283	73.56
213.502	69.46
213.72	22.36
213.938	48.98
214.157	69.46
214.375	67.41
214.594	112.47
214.812	59.22
215.031	30.55
215.249	-16.55
215.467	79.7
215.686	96.08
215.904	67.41
216.122	26.45
216.341	98.13
216.559	46.93
216.778	-26.79
216.996	106.32
217.214	108.37
217.432	71.51
217.651	20.31
217.869	16.21
218.087	24.4
218.306	22.36
218.524	69.46
218.742	91.99
218.96	46.93
219.179	28.5
219.397	51.03
219.615	65.36
219.833	57.17
220.051	40.79
220.27	118.61
220.488	71.51
220.706	42.84
220.924	40.79
221.142	16.21
221.36	122.71
221.578	24.4
221.796	75.6
222.015	69.46
222.233	89.94
222.451	71.51
222.669	-4.27
222.887	36.69
223.105	20.31
223.323	28.5
223.541	55.12
223.759	36.69
223.977	-28.84
224.195	85.84
224.413	55.12
224.631	83.8
224.849	69.46
225.067	102.23
225.285	20.31
225.503	112.47
225.721	24.4
225.939	38.74
226.157	3.93
226.375	63.32
226.592	61.27
226.81	61.27
227.028	8.02
227.246	28.5
227.464	65.36
227.682	38.74
227.9	79.7
228.117	24.4
228.335	69.46
228.553	30.55
228.771	42.84
228.989	83.8
229.206	71.51
229.424	40.79
229.642	46.93
229.86	65.36
230.077	12.12
230.295	102.23
230.513	42.84
230.731	-14.51
230.948	81.75
231.166	85.84
231.384	-12.46
231.601	48.98
231.819	-24.75
232.037	28.5
232.254	5.97
232.472	91.99
232.689	67.41
232.907	14.17
233.125	16.21
233.342	53.08
233.56	116.56
233.777	8.02
233.995	89.94
234.213	151.38
234.43	67.41
234.648	28.5
234.865	79.7
235.083	24.4
235.3	28.5
235.518	65.36
235.735	91.99
235.953	110.42
236.17	53.08
236.388	61.27
236.605	30.55
236.822	32.6
237.04	22.36
237.257	73.56
237.475	3.93
237.692	69.46
237.909	-22.7
238.127	122.71
238.344	14.17
238.562	38.74
238.779	22.36
238.996	69.46
239.214	14.17
239.431	116.56
239.648	20.31
239.865	124.76
240.083	5.97
240.3	14.17
240.517	8.02
240.735	8.02
240.952	16.21
241.169	40.79
241.386	8.02
241.603	75.6
241.821	26.45
242.038	108.37
242.255	40.79
242.472	55.12
242.689	91.99
242.907	-6.31
243.124	22.36
243.341	77.65
243.558	69.46
243.775	59.22
243.992	14.17
244.209	30.55
244.426	59.22
244.643	161.62
244.86	32.6
245.078	104.28
245.295	26.45
245.512	69.46
245.729	-24.75
245.946	44.88
246.163	81.75
246.38	44.88
246.597	94.04
246.814	75.6
247.031	57.17
247.248	116.56
247.464	63.32
247.681	108.37
247.898	22.36
248.115	67.41
248.332	32.6
248.549	163.67
248.766	102.23
248.983	61.27
249.2	77.65
249.417	59.22
249.633	10.07
249.85	38.74
250.067	57.17
250.284	28.5
250.501	1.88
250.717	38.74
250.934	63.32
251.151	53.08
251.368	94.04
251.585	-28.84
251.801	18.26
252.018	14.17
252.235	94.04
252.451	8.02
252.668	79.7
252.885	79.7
253.102	10.07
253.318	46.93
253.535	18.26
253.752	20.31
253.968	34.64
254.185	5.97
254.401	46.93
254.618	20.31
254.835	34.64
255.051	110.42
255.268	67.41
255.484	46.93
255.701	30.55
255.917	79.7
256.134	28.5
256.351	57.17
256.567	14.17
256.784	108.37
257	59.22
257.217	63.32
257.433	42.84
257.65	59.22
257.866	30.55
258.082	65.36
258.299	81.75
258.515	79.7
258.732	26.45
258.948	12.12
259.165	-14.51
259.381	67.41
259.597	91.99
259.814	122.71
260.03	139.09
260.246	96.08
260.463	38.74
260.679	63.32
260.895	42.84
261.112	14.17
261.328	30.55
261.544	65.36
261.761	44.88
261.977	79.7
262.193	38.74
262.409	-16.55
262.626	77.65
262.842	114.52
263.058	24.4
263.274	-34.99
263.49	22.36
263.707	-37.03
263.923	42.84
264.139	24.4
264.355	3.93
264.571	87.89
264.787	-24.75
265.004	34.64
265.22	34.64
265.436	32.6
265.652	46.93
265.868	20.31
266.084	104.28
266.3	48.98
266.516	28.5
266.732	112.47
266.948	28.5
267.164	91.99
267.38	139.09
267.596	46.93
267.812	126.8
268.028	53.08
268.244	124.76
268.46	83.8
268.676	44.88
268.892	55.12
269.108	34.64
269.324	73.56
269.54	69.46
269.756	61.27
269.972	46.93
270.188	85.84
270.403	22.36
270.619	112.47
270.835	28.5
271.051	69.46
271.267	10.07
271.483	114.52
271.698	44.88
271.914	102.23
272.13	53.08
272.346	106.32
272.562	-12.46
272.777	83.8
272.993	63.32
273.209	24.4
273.425	-4.27
273.64	126.8
273.856	102.23
274.072	73.56
274.287	-8.36
274.503	57.17
274.719	106.32
274.934	55.12
275.15	-4.27
275.366	46.93
275.581	22.36
275.797	40.79
276.012	53.08
276.228	65.36
276.444	3.93
276.659	94.04
276.875	79.7
277.09	110.42
277.306	34.64
277.521	61.27
277.737	32.6
277.952	79.7
278.168	18.26
278.383	38.74
278.599	28.5
278.814	63.32
279.03	71.51
279.245	1.88
279.461	-18.6
279.676	30.55
279.892	-8.36
280.107	-26.79
280.322	-6.31
280.538	73.56
280.753	34.64
280.969	155.47
281.184	79.7
281.399	46.93
281.615	20.31
281.83	87.89
282.045	22.36
282.26	81.75
282.476	-0.17
282.691	38.74
282.906	-22.7
283.122	96.08
283.337	10.07
283.552	61.27
283.767	69.46
283.983	65.36
284.198	69.46
284.413	77.65
284.628	46.93
284.843	73.56
285.058	73.56
285.274	73.56
285.489	106.32
285.704	96.08
285.919	89.94
286.134	-18.6
286.349	30.55
286.564	57.17
286.779	59.22
286.995	91.99
287.21	38.74
287.425	59.22
287.64	71.51
287.855	81.75
288.07	71.51
288.285	40.79
288.5	26.45
288.715	46.93
288.93	22.36
289.145	44.88
289.36	73.56
289.575	59.22
289.79	-2.22
290.004	14.17
290.219	98.13
290.434	55.12
290.649	12.12
290.864	85.84
291.079	-4.27
291.294	48.98
291.509	-49.32
291.724	38.74
291.938	38.74
292.153	71.51
292.368	26.45
292.583	65.36
292.798	141.14
293.012	116.56
293.227	100.18
293.442	87.89
293.657	-34.99
293.871	122.71
294.086	22.36
294.301	59.22
294.516	59.22
294.73	40.79
294.945	-2.22
295.16	10.07
295.374	81.75
295.589	100.18
295.804	106.32
296.018	89.94
296.233	67.41
296.447	20.31
296.662	46.93
296.877	63.32
297.091	110.42
297.306	114.52
297.52	14.17
297.735	10.07
297.949	44.88
298.164	40.79
298.378	44.88
298.593	65.36
298.807	77.65
299.022	106.32
299.236	57.17
299.451	34.64
299.665	73.56
299.88	26.45
300.094	59.22
300.309	112.47
300.523	-0.17
300.737	59.22
300.952	36.69
301.166	114.52
301.381	55.12
301.595	106.32
301.809	63.32
302.024	130.9
302.238	102.23
302.452	96.08
302.667	63.32
302.881	10.07
303.095	48.98
303.309	8.02
303.524	40.79
303.738	87.89
303.952	-8.36
304.166	83.8
304.381	94.04
304.595	71.51
304.809	10.07
305.023	87.89
305.237	32.6
305.452	55.12
305.666	79.7
305.88	65.36
306.094	36.69
306.308	36.69
306.522	85.84
306.736	-63.66
306.95	98.13
307.164	63.32
307.379	61.27
307.593	108.37
307.807	46.93
308.021	87.89
308.235	30.55
308.449	51.03
308.663	24.4
308.877	79.7
309.091	102.23
309.305	24.4
309.519	102.23
309.733	5.97
309.947	36.69
310.161	12.12
310.374	-0.17
310.588	85.84
310.802	-10.41
311.016	42.84
311.23	53.08
311.444	36.69
311.658	53.08
311.872	83.8
312.085	77.65
312.299	55.12
312.513	67.41
312.727	79.7
312.941	69.46
313.154	114.52
313.368	100.18
313.582	32.6
313.796	-10.41
314.009	42.84
314.223	83.8
314.437	77.65
314.651	79.7
314.864	69.46
315.078	122.71
315.292	48.98
315.505	34.64
315.719	132.95
315.933	20.31
316.146	77.65
316.36	-8.36
316.573	81.75
316.787	69.46
317.001	77.65
317.214	53.08
317.428	124.76
317.641	16.21
317.855	81.75
318.068	10.07
318.282	57.17
318.495	87.89
318.709	83.8
318.922	83.8
319.136	-18.6
319.349	26.45
319.563	81.75
319.776	34.64
319.99	120.66
320.203	149.33
320.417	24.4
320.63	116.56
320.843	69.46
321.057	116.56
321.27	75.6
321.483	81.75
321.697	59.22
321.91	94.04
322.124	108.37
322.337	85.84
322.55	94.04
322.763	40.79
322.977	94.04
323.19	77.65
323.403	-16.55
323.617	94.04
323.83	8.02
324.043	34.64
324.256	94.04
324.469	-0.17
324.683	94.04
324.896	14.17
325.109	67.41
325.322	53.08
325.535	98.13
325.748	81.75
325.962	34.64
326.175	34.64
326.388	65.36
326.601	87.89
326.814	42.84
327.027	91.99
327.24	106.32
327.453	12.12
327.666	87.89
327.879	147.28
328.092	42.84
328.305	46.93
328.518	-6.31
328.731	67.41
328.944	71.51
329.157	55.12
329.37	32.6
329.583	55.12
329.796	206.67
330.009	28.5
330.222	5.97
330.435	67.41
330.648	85.84
330.861	104.28
331.073	91.99
331.286	104.28
331.499	69.46
331.712	18.26
331.925	51.03
332.138	-20.65
332.35	137.04
332.563	55.12
332.776	89.94
332.989	59.22
333.202	83.8
333.414	8.02
333.627	12.12
333.84	8.02
334.053	69.46
334.265	69.46
334.478	12.12
334.691	61.27
334.903	79.7
335.116	-8.36
335.329	42.84
335.541	32.6
335.754	20.31
335.966	-0.17
336.179	44.88
336.392	55.12
336.604	55.12
336.817	130.9
337.029	83.8
337.242	83.8
337.454	61.27
337.667	73.56
337.88	94.04
338.092	44.88
338.305	38.74
338.517	26.45
338.729	83.8
338.942	85.84
339.154	44.88
339.367	81.75
339.579	116.56
339.792	130.9
340.004	126.8
340.217	1.88
340.429	61.27
340.641	79.7
340.854	65.36
341.066	104.28
341.278	106.32
341.491	85.84
341.703	118.61
341.915	75.6
342.128	112.47
342.34	77.65
342.552	69.46
342.764	40.79
342.977	42.84
343.189	85.84
343.401	28.5
343.613	40.79
343.826	102.23
344.038	26.45
344.25	-6.31
344.462	77.65
344.674	124.76
344.886	34.64
345.099	67.41
345.311	81.75
345.523	55.12
345.735	1.88
345.947	73.56
346.159	116.56
346.371	16.21
346.583	24.4
346.795	96.08
347.007	73.56
347.219	85.84
347.431	32.6
347.643	122.71
347.855	79.7
348.067	44.88
348.279	98.13
348.491	-0.17
348.703	71.51
348.915	75.6
349.127	116.56
349.339	10.07
349.551	53.08
349.763	102.23
349.975	24.4
350.187	94.04
350.399	163.67
350.61	83.8
350.822	36.69
351.034	10.07
351.246	26.45
351.458	75.6
351.669	28.5
351.881	102.23
352.093	48.98
352.305	108.37
352.517	55.12
352.728	108.37
352.94	104.28
353.152	77.65
353.363	118.61
353.575	44.88
353.787	77.65
353.999	48.98
354.21	48.98
354.422	89.94
354.633	67.41
354.845	34.64
355.057	106.32
355.268	65.36
355.48	51.03
355.692	98.13
355.903	46.93
356.115	89.94
356.326	40.79
356.538	65.36
356.749	3.93
356.961	128.85
357.172	44.88
357.384	61.27
357.595	94.04
357.807	79.7
358.018	14.17
358.23	42.84
358.441	28.5
358.653	67.41
358.864	48.98
359.075	-24.75
359.287	40.79
359.498	12.12
359.709	46.93
359.921	137.04
360.132	51.03
360.344	42.84
360.555	96.08
360.766	67.41
360.977	94.04
361.189	112.47
361.4	57.17
361.611	57.17
361.823	32.6
362.034	116.56
362.245	22.36
362.456	108.37
362.667	28.5
362.879	87.89
363.09	48.98
363.301	135
363.512	-37.03
363.723	42.84
363.935	110.42
364.146	-8.36
364.357	96.08
364.568	85.84
364.779	22.36
364.99	116.56
365.201	126.8
365.412	77.65
365.623	8.02
365.834	26.45
366.045	91.99
366.256	104.28
366.467	55.12
366.678	77.65
366.889	10.07
367.1	-10.41
367.311	81.75
367.522	24.4
367.733	69.46
367.944	108.37
368.155	38.74
368.366	128.85
368.577	96.08
368.788	91.99
368.999	32.6
369.209	57.17
369.42	53.08
369.631	87.89
369.842	67.41
370.053	91.99
370.264	89.94
370.474	57.17
370.685	94.04
370.896	81.75
371.107	79.7
371.317	83.8
371.528	48.98
371.739	8.02
371.95	32.6
372.16	89.94
372.371	42.84
372.582	100.18
372.792	61.27
373.003	153.43
373.214	94.04
373.424	116.56
373.635	20.31
373.846	112.47
374.056	14.17
374.267	12.12
374.477	91.99
374.688	83.8
374.898	46.93
375.109	85.84
375.319	38.74
375.53	53.08
375.74	106.32
375.951	139.09
376.161	44.88
376.372	32.6
376.582	141.14
376.793	63.32
377.003	61.27
377.214	53.08
377.424	46.93
377.635	106.32
377.845	46.93
378.055	24.4
378.266	89.94
378.476	28.5
378.686	85.84
378.897	81.75
379.107	59.22
379.317	53.08
379.528	14.17
379.738	108.37
379.948	-65.71
380.158	65.36
380.369	59.22
380.579	48.98
380.789	55.12
380.999	71.51
381.21	67.41
381.42	42.84
381.63	81.75
381.84	77.65
382.05	71.51
382.261	96.08
382.471	100.18
382.681	104.28
382.891	132.95
383.101	83.8
383.311	38.74
383.521	44.88
383.731	67.41
383.941	94.04
384.151	73.56
384.361	48.98
384.571	34.64
384.781	112.47
384.991	108.37
385.201	67.41
385.411	102.23
385.621	71.51
385.831	46.93
386.041	-6.31
386.251	91.99
386.461	114.52
386.671	42.84
386.881	38.74
387.091	79.7
387.301	18.26
387.511	126.8
387.72	132.95
387.93	75.6
388.14	106.32
388.35	98.13
388.56	96.08
388.769	38.74
388.979	51.03
389.189	130.9
389.399	110.42
389.609	98.13
389.818	59.22
390.028	87.89
390.238	98.13
390.447	44.88
390.657	53.08
390.867	24.4
391.076	106.32
391.286	100.18
391.496	124.76
391.705	-2.22
391.915	116.56
392.125	73.56
392.334	173.91
392.544	61.27
392.753	143.19
392.963	81.75
393.172	96.08
393.382	75.6
393.591	157.52
393.801	55.12
394.01	85.84
394.22	89.94
394.429	128.85
394.639	100.18
394.848	53.08
395.058	53.08
395.267	94.04
395.477	102.23
395.686	79.7
395.895	91.99
396.105	98.13
396.314	59.22
396.524	65.36
396.733	104.28
396.942	159.57
397.152	63.32
397.361	79.7
397.57	85.84
397.78	89.94
397.989	167.76
398.198	153.43
398.407	63.32
398.617	98.13
398.826	89.94
399.035	102.23
399.244	145.24
399.453	128.85
399.663	57.17
399.872	98.13
400.081	118.61
400.29	128.85
400.499	128.85
400.708	114.52
400.917	79.7
401.127	59.22
401.336	112.47
401.545	106.32
401.754	79.7
401.963	128.85
402.172	87.89
402.381	202.58
402.59	104.28
402.799	124.76
403.008	61.27
403.217	71.51
403.426	77.65
403.635	122.71
403.844	151.38
404.053	96.08
404.262	102.23
404.471	104.28
404.68	194.39
404.888	200.53
405.097	114.52
405.306	180.05
405.515	116.56
405.724	157.52
405.933	184.15
406.142	169.81
406.35	145.24
406.559	106.32
406.768	208.72
406.977	182.1
407.185	180.05
407.394	200.53
407.603	110.42
407.812	223.06
408.02	192.34
408.229	184.15
408.438	231.25
408.646	257.87
408.855	102.23
409.064	180.05
409.272	204.63
409.481	225.11
409.69	151.38
409.898	202.58
410.107	229.2
410.315	304.98
410.524	235.35
410.733	259.92
410.941	202.58
411.15	298.83
411.358	329.55
411.567	337.74
411.775	264.02
411.984	298.83
412.192	304.98
412.401	311.12
412.609	413.52
412.818	341.84
413.026	274.26
413.234	376.66
413.443	345.94
413.651	415.57
413.86	337.74
414.068	485.2
414.276	409.42
414.485	452.43
414.693	497.49
414.901	575.31
415.11	491.34
415.318	538.45
415.526	472.91
415.734	571.21
415.943	565.07
416.151	577.36
416.359	567.12
416.567	593.74
416.776	669.52
416.984	649.04
417.192	687.95
417.4	644.94
417.608	671.56
417.817	692.04
418.025	776.01
418.233	755.53
418.441	751.43
418.649	704.33
418.857	829.26
419.065	929.61
419.273	874.31
419.481	909.13
419.689	952.13
419.897	1029.96
420.105	1036.1
420.313	968.52
420.521	984.9
420.729	1072.96
420.937	1247.04
421.145	1062.73
421.353	1167.17
421.561	1189.7
421.769	1283.91
421.977	1326.91
422.185	1462.08
422.393	1427.26
422.601	1572.67
422.809	1550.14
423.017	1568.57
423.224	1701.69
423.432	1625.92
423.64	1615.68
423.848	1783.61
424.056	1660.73
424.263	1804.09
424.471	1822.52
424.679	1840.95
424.887	1920.82
425.094	2039.61
425.302	1992.5
425.51	2150.2
425.718	2164.53
425.925	2228.02
426.133	2342.71
426.341	2512.69
426.548	2471.73
426.756	2533.17
426.964	2537.26
427.171	2697
427.379	2826.03
427.586	2883.37
427.794	2996.01
428.001	2969.38
428.209	3295.01
428.417	3241.76
428.624	3344.16
428.832	3333.92
429.039	3434.27
429.247	3403.55
429.454	3655.45
429.662	3946.27
429.869	3620.64
430.076	3931.93
430.284	3749.66
430.491	4110.1
430.699	4206.36
430.906	4273.94
431.114	4165.4
431.321	4427.54
431.528	4417.3
431.736	4810.51
431.943	4990.73
432.15	4904.71
432.358	4939.53
432.565	5156.61
432.772	5068.55
432.979	5437.19
433.187	5469.95
433.394	5539.58
433.601	5949.18
433.808	5951.23
434.016	5992.19
434.223	6151.93
434.43	6553.33
434.637	6491.89
434.844	6846.19
435.052	6993.64
435.259	6645.49
435.466	7003.88
435.673	6774.51
435.88	7329.51
436.087	7640.8
436.294	7751.39
436.501	7612.13
436.708	7626.46
436.915	7968.48
437.122	8287.96
437.329	8464.08
437.537	8785.62
437.743	8627.92
437.95	8605.39
438.157	9109.19
438.364	9393.86
438.571	9465.54
438.778	9567.94
438.985	10286.78
439.192	9979.58
439.399	10260.15
439.606	9748.16
439.813	10653.36
440.02	11165.35
440.227	11099.82
440.433	10800.82
440.64	11267.75
440.847	11224.75
441.054	11484.84
441.261	12299.93
441.467	12119.71
441.674	12394.14
441.881	12752.53
442.088	12756.63
442.294	12609.17
442.501	12932.75
442.708	13389.45
442.914	13604.49
443.121	14331.51
443.328	13833.86
443.534	14827.12
443.741	14450.3
443.948	14296.7
444.154	15253.1
444.361	15507.05
444.568	15367.79
444.774	15435.37
444.981	15570.54
445.187	16047.71
445.394	16647.77
445.6	16610.9
445.807	17940.04
446.013	17299.02
446.22	17434.19
446.426	18456.12
446.633	18343.49
446.839	18880.05
447.046	18447.93
447.252	19162.67
447.459	19172.91
447.665	18988.6
447.871	20059.68
448.078	21032.47
448.284	19883.56
448.491	20358.69
448.697	21132.82
448.903	21612.04
449.11	21546.51
449.316	21548.56
449.522	21745.16
449.728	22599.16
449.935	22234.63
450.141	22330.88
450.347	22984.18
450.553	22332.93
450.76	22679.04
450.966	23035.38
451.172	22816.25
451.378	23856.62
451.584	23188.98
451.791	23674.35
451.997	23705.07
452.203	23997.93
452.409	24194.53
452.615	23723.5
452.821	23035.38
453.027	22676.99
453.233	24188.39
453.44	22613.5
453.646	22951.42
453.852	23367.15
454.058	23414.26
454.264	22904.31
454.47	23231.99
454.676	22570.49
454.882	23287.28
455.088	21683.72
455.294	21829.13
455.5	22111.75
455.705	22259.2
455.911	21278.22
456.117	20665.88
456.323	20540.96
456.529	19564.07
456.735	20684.31
456.941	19955.24
457.147	19492.4
457.352	18767.41
457.558	18718.26
457.764	18847.29
457.97	18476.6
458.176	17978.95
458.381	18042.43
458.587	17516.11
458.793	17217.1
458.999	16305.76
459.204	17454.67
459.41	16969.3
459.616	15767.14
459.821	15875.68
460.027	15720.04
460.233	15406.7
460.438	14702.2
460.644	14724.72
460.85	14204.54
461.055	14341.75
461.261	14055.04
461.466	12928.66
461.672	12566.17
461.878	13565.57
462.083	12379.8
462.289	12162.72
462.494	12185.24
462.7	11722.4
462.905	11429.54
463.111	11771.55
463.316	11781.79
463.522	11683.49
463.727	11708.07
463.932	11734.69
464.138	11769.51
464.343	11585.19
464.549	11265.71
464.754	11646.63
464.959	11341.48
465.165	11372.2
465.37	11060.91
465.575	10755.76
465.781	11122.35
465.986	11017.9
466.191	10624.69
466.397	10606.26
466.602	10155.71
466.807	10722.99
467.012	10659.51
467.218	10266.3
467.423	10266.3
467.628	10405.56
467.833	10878.64
468.038	10235.58
468.244	10018.49
468.449	10587.83
468.654	10163.9
468.859	10178.23
469.064	9961.15
469.269	9688.77
469.474	9715.39
469.679	10153.66
469.885	9684.67
470.09	9758.4
470.295	9670.34
470.5	9475.78
470.705	9508.55
470.91	9234.12
471.115	9107.15
471.32	9475.78
471.525	9189.07
471.73	9230.02
471.935	8912.59
472.139	8931.02
472.344	8904.4
472.549	8967.88
472.754	8564.43
472.959	8486.61
473.164	8326.87
473.369	8216.28
473.574	8648.4
473.778	8445.65
473.983	8220.38
474.188	8302.29
474.393	7982.81
474.598	8040.15
474.802	7970.52
475.007	7968.48
475.212	8070.87
475.417	7577.31
475.621	7534.31
475.826	7708.38
476.031	7540.45
476.235	7472.87
476.44	7419.62
476.645	7386.85
476.849	7460.58
477.054	7288.55
477.259	6907.63
477.463	7296.74
477.668	6872.81
477.872	6995.69
478.077	7065.32
478.282	6831.85
478.486	6668.02
478.691	6735.6
478.895	6571.76
479.1	6592.24
479.304	6659.82
479.509	6422.26
479.713	6625.01
479.918	6487.79
480.122	6422.26
480.326	6328.05
480.531	6409.97
480.735	6289.14
480.94	6221.56
481.144	6491.89
481.348	6221.56
481.553	6239.99
481.757	6012.67
481.961	6141.69
482.166	6176.5
482.37	6375.16
482.574	6110.97
482.778	6219.51
482.983	6319.86
483.187	6313.72
483.391	6289.14
483.595	6016.76
483.8	6233.85
484.004	6199.03
484.208	6158.07
484.412	6051.58
484.616	6184.69
484.821	6242.04
485.025	6190.84
485.229	6153.98
485.433	6149.88
485.637	6113.02
485.841	6072.06
486.045	6166.26
486.249	6076.15
486.453	6131.45
486.657	6174.46
486.861	6319.86
487.065	6139.64
487.269	6192.89
487.473	6252.28
487.677	6180.6
487.881	6217.46
488.085	6414.07
488.289	6481.65
488.493	6090.49
488.697	6422.26
488.901	6323.96
489.105	6428.4
489.309	6455.03
489.512	6393.59
489.716	6270.71
489.92	6291.19
490.124	6342.39
490.328	6481.65
490.531	6375.16
490.735	6414.07
490.939	6532.85
491.143	6495.99
491.346	6401.78
491.55	6631.15
491.754	6538.99
491.958	6682.35
492.161	6604.53
492.365	6733.55
492.569	6426.36
492.772	6774.51
492.976	6520.56
493.18	6749.93
493.383	6893.29
493.587	6805.23
493.79	6764.27
493.994	6782.7
494.197	7001.83
494.401	7198.44
494.605	7059.18
494.808	7200.49
495.012	7278.31
495.215	7266.02
495.419	7198.44
495.622	7184.1
495.825	7495.39
496.029	7356.13
496.232	7741.15
496.436	7657.18
496.639	7890.65
496.843	7898.84
497.046	7917.28
497.249	8029.91
497.453	8060.63
497.656	8142.55
497.859	8261.34
498.063	8543.95
498.266	8429.27
498.469	8451.8
498.673	8519.38
498.876	8640.21
499.079	8783.57
499.282	8756.94
499.485	9045.71
499.689	9107.15
499.892	9144.01
500.095	9152.2
500.298	9230.02
500.501	9477.83
500.705	9606.85
500.908	9926.33
501.111	9719.49
501.314	10030.78
501.517	10057.4
501.72	10292.92
501.923	10008.25
502.126	10768.05
502.329	10700.47
502.532	10716.85
502.735	10862.26
502.938	10849.97
503.141	11128.49
503.344	11325.1
503.547	11347.62
503.75	11439.78
503.953	11894.43
504.156	11828.9
504.359	12000.93
504.562	11978.4
504.765	12451.48
504.968	12342.94
505.17	12641.94
505.373	12707.48
505.576	12824.21
505.779	13184.65
505.982	13135.5
506.185	13518.47
506.387	13655.68
506.59	13534.85
506.793	13944.45
506.996	13944.45
507.198	14308.99
507.401	14155.39
507.604	14411.39
507.807	14790.26
508.009	15126.13
508.212	15246.96
508.415	15324.78
508.617	15398.51
508.82	15822.44
509.022	15652.45
509.225	16297.56
509.428	16264.8
509.63	16629.34
509.833	16555.61
510.035	17124.94
510.238	16959.06
510.44	17323.6
510.643	17473.1
510.845	17890.88
511.048	17448.52
511.25	17983.04
511.453	18126.4
511.655	18906.68
511.858	18513.47
512.06	18538.04
512.262	19332.65
512.465	19441.2
512.667	19705.38
512.87	19752.49
513.072	19895.85
513.274	20254.24
513.477	20522.52
513.679	20717.08
513.881	20950.55
514.084	21302.8
514.286	21433.87
514.488	21399.05
514.69	21964.29
514.893	22298.11
515.095	22588.92
515.297	22746.62
515.499	22896.12
515.701	23213.56
515.904	23502.32
516.106	23639.53
516.308	23879.14
516.51	24503.78
516.712	24471.01
516.914	24645.09
517.116	25009.62
517.318	25239
517.52	25503.18
517.722	25396.69
517.925	25886.15
518.127	26543.55
518.329	26656.19
518.531	26893.75
518.733	27184.57
518.935	27217.33
519.136	27534.77
519.338	27526.58
519.54	28310.95
519.742	28431.78
519.944	28347.81
520.146	29017.5
520.348	29240.73
520.55	29328.79
520.752	29724.05
520.954	30154.12
521.155	30197.13
521.357	30707.07
521.559	30754.18
521.761	31315.32
521.963	31409.53
522.164	31446.39
522.366	31909.23
522.568	32122.22
522.77	32238.95
522.971	33002.85
523.173	32615.78
523.375	33193.31
523.576	33052
523.778	33285.47
523.98	33789.27
524.181	33895.76
524.383	33914.19
524.584	34403.66
524.786	34280.78
524.988	34057.55
525.189	34776.39
525.391	34934.08
525.592	35308.86
525.794	35312.95
525.995	35677.49
526.197	35777.84
526.398	35493.18
526.6	35747.12
526.801	36226.35
527.003	36607.27
527.204	36447.53
527.406	36529.45
527.607	36818.21
527.808	37078.3
528.01	36640.04
528.211	37338.4
528.412	37616.92
528.614	37602.58
528.815	37711.13
529.016	38114.58
529.218	37694.74
529.419	37924.11
529.62	37881.11
529.822	38114.58
530.023	37944.59
530.224	38081.81
530.425	38274.32
530.626	38364.43
530.828	37954.83
531.029	39386.36
531.23	38401.29
531.431	38843.65
531.632	38868.23
531.833	38610.18
532.035	39038.21
532.236	38960.39
532.437	39257.34
532.638	38747.4
532.839	39015.68
533.04	39101.7
533.241	38962.43
533.442	39689.46
533.643	39417.08
533.844	39173.38
534.045	39572.73
534.246	38954.24
534.447	39548.15
534.648	39224.57
534.849	39496.95
535.05	38868.23
535.251	39707.9
535.451	39148.8
535.652	39494.91
535.853	39163.14
536.054	39988.47
536.255	39595.26
536.456	39449.85
536.657	40105.2
536.857	39435.52
537.058	39433.47
537.259	39716.09
537.46	39691.51
537.66	39646.46
537.861	40019.19
538.062	39548.15
538.263	39646.46
538.463	39572.73
538.664	39550.2
538.865	39857.4
539.065	39875.83
539.266	39638.26
539.466	39961.84
539.667	39034.11
539.868	39929.08
540.068	39716.09
540.269	39855.35
540.469	39755
540.67	39908.6
540.87	39654.65
541.071	39707.9
541.271	39671.03
541.472	39580.92
541.672	39683.32
541.873	39634.17
542.073	39240.96
542.274	39781.62
542.474	39994.61
542.675	39374.08
542.875	39986.42
543.075	39677.18
543.276	39458.04
543.476	39898.36
543.676	39243.01
543.877	39724.28
544.077	39662.84
544.277	39900.4
544.478	40090.87
544.678	39879.92
544.878	39601.4
545.078	39779.57
545.279	39390.46
545.479	40017.14
545.679	39593.21
545.879	39976.18
546.079	39599.35
546.28	39449.85
546.48	39257.34
546.68	40213.74
546.88	39638.26
547.08	39644.41
547.28	39437.56
547.48	39339.26
547.68	39947.51
547.88	39494.91
548.081	39562.49
548.281	39863.54
548.481	39513.34
548.681	39693.56
548.881	39718.14
549.081	39429.37
549.28	39208.19
549.48	39841.01
549.68	39494.91
549.88	39894.26
550.08	39431.42
550.28	39875.83
550.48	39728.38
550.68	39984.37
550.88	39601.4
551.08	39638.26
551.279	39757.05
551.479	39683.32
551.679	39877.88
551.879	39740.66
552.079	39744.76
552.278	39163.14
552.478	39474.43
552.678	39617.78
552.878	39787.77
553.077	39673.08
553.277	39355.64
553.477	39875.83
553.676	39232.77
553.876	39466.24
554.076	39269.63
554.275	39412.99
554.475	38647.05
554.674	39752.95
554.874	39550.2
555.074	39337.21
555.273	39673.08
555.473	39779.57
555.672	39095.55
555.872	39611.64
556.071	39634.17
556.271	39554.3
556.47	38909.19
556.67	38980.87
556.869	39001.35
557.068	39163.14
557.268	38782.21
557.467	39101.7
557.667	38782.21
557.866	38814.98
558.065	39038.21
558.265	38649.1
558.464	38485.26
558.663	38776.07
558.863	38149.39
559.062	39343.36
559.261	38184.21
559.461	38790.41
559.66	38094.1
559.859	38288.65
560.058	38286.61
560.258	38511.88
560.457	38225.17
560.656	38458.63
560.855	38196.49
561.054	38452.49
561.253	37797.14
561.453	38028.56
561.652	37958.93
561.851	38034.7
562.05	37934.35
562.249	37868.82
562.448	38112.53
562.647	37709.08
562.846	37594.39
563.045	38032.66
563.244	37262.62
563.443	37735.7
563.642	37385.5
563.841	37498.14
564.04	37788.95
564.239	37756.18
564.438	37131.55
564.637	37483.8
564.836	37412.12
565.035	36607.27
565.234	37348.64
565.432	37029.15
565.631	36818.21
565.83	37293.34
566.029	36740.39
566.228	36549.93
566.427	36623.65
566.625	36494.63
566.824	35706.16
567.023	36539.69
567.222	36209.96
567.42	36728.1
567.619	35984.69
567.818	36275.5
568.016	36259.12
568.215	36463.91
568.414	36195.63
568.612	36265.26
568.811	35878.19
569.01	35960.11
569.208	35491.13
569.407	35718.45
569.605	35132.73
569.804	35566.9
570.002	35366.2
570.201	35489.08
570.4	35292.47
570.598	35128.64
570.797	34948.42
570.995	34813.25
571.193	34641.22
571.392	35028.29
571.59	34387.27
571.789	34936.13
571.987	34594.12
572.186	34571.59
572.384	34506.05
572.582	34528.58
572.781	34047.31
572.979	33676.63
573.177	33752.4
573.376	34149.71
573.574	33746.26
573.772	33940.82
573.971	33690.96
574.169	33551.7
574.367	33582.42
574.565	33619.28
574.763	33422.68
574.962	33224.03
575.16	33162.59
575.358	33375.58
575.556	32752.99
575.754	33062.24
575.952	32785.76
576.151	32912.74
576.349	32839.01
576.547	32707.94
576.745	32595.3
576.943	32224.62
577.141	32116.08
577.339	31993.2
577.537	32179.56
577.735	31937.9
577.933	31565.17
578.131	31890.8
578.329	31593.84
578.527	31405.43
578.725	31849.84
578.923	31911.28
579.121	31128.95
579.319	31241.59
579.516	31296.89
579.714	31264.12
579.912	31227.26
580.11	31008.12
580.308	30963.07
580.506	31147.39
580.704	30535.04
580.901	31026.56
581.099	30967.16
581.297	30367.11
581.495	30197.13
581.692	30973.31
581.89	30485.89
582.088	30381.45
582.285	30092.68
582.483	30293.38
582.681	30162.31
582.878	29869.45
583.076	29537.68
583.274	30049.67
583.471	29681.04
583.669	29533.59
583.866	29328.79
584.064	29615.51
584.262	29076.89
584.459	29846.93
584.657	29144.47
584.854	29287.83
585.052	28581.28
585.249	29207.96
585.447	29068.7
585.644	28784.03
585.841	28679.58
586.039	28779.93
586.236	28560.8
586.434	28573.09
586.631	28358.05
586.828	28177.83
587.026	28046.76
587.223	28097.96
587.42	28229.03
587.618	28366.24
587.815	27727.28
588.012	27798.96
588.21	27440.56
588.407	27915.69
588.604	27790.77
588.801	27366.84
588.999	27479.47
589.196	27325.88
589.393	27551.15
589.59	27325.88
589.787	27233.72
589.984	26955.19
590.182	26785.21
590.379	26987.96
590.576	26813.88
590.773	26729.92
590.97	26326.47
591.167	26949.05
591.364	26545.6
591.561	26811.84
591.758	26260.93
591.955	26205.64
592.152	26627.52
592.349	26355.14
592.546	26269.12
592.743	26258.88
592.94	25675.21
593.137	26017.22
593.334	26054.09
593.531	25783.76
593.727	26068.42
593.924	25877.96
594.121	25523.66
594.318	25963.98
594.515	25290.2
594.712	25773.52
594.908	25038.3
595.105	25587.15
595.302	25187.8
595.499	25130.45
595.696	25048.54
595.892	24983
596.089	24978.9
596.286	24829.4
596.482	24774.11
596.679	24813.02
596.876	24835.55
597.072	24585.69
597.269	24692.19
597.466	24436.19
597.662	24376.8
597.859	24686.04
598.055	24483.3
598.252	24057.32
598.448	24055.27
598.645	24155.62
598.841	23983.59
599.038	23784.94
599.234	23834.09
599.431	23520.75
599.627	23514.61
599.824	23627.24
600.02	23477.74
600.217	23561.71
600.413	23229.94
600.609	23487.98
600.806	23150.07
601.002	22986.23
601.198	22846.97
601.395	22953.46
601.591	23160.31
601.787	22914.55
601.984	22674.94
602.18	22812.15
602.376	22846.97
602.572	22359.55
602.769	22617.6
602.965	22453.76
603.161	22445.57
603.357	22425.09
603.553	22384.13
603.75	22103.56
603.946	22025.73
604.142	22306.3
604.338	21822.98
604.534	22119.94
604.73	21634.57
604.926	21915.14
605.122	21800.46
605.318	21622.28
605.514	21773.83
605.71	21190.16
605.906	21204.5
606.102	21378.58
606.298	21470.73
606.494	21259.79
606.69	21126.67
606.886	21171.73
607.082	21059.09
607.278	20964.89
607.474	20817.43
607.67	21009.94
607.866	20532.76
608.062	20719.13
608.257	20704.79
608.453	20858.39
608.649	20475.42
608.845	20477.47
609.041	20442.65
609.236	20573.72
609.432	20225.57
609.628	20336.16
609.824	20276.77
610.019	20311.58
610.215	20014.63
610.411	20061.73
610.606	19889.7
610.802	20069.92
610.998	20096.55
611.193	19901.99
611.389	19971.62
611.584	19897.89
611.78	19670.57
611.976	19740.2
612.171	19684.9
612.367	19600.94
612.562	19854.89
612.758	19111.47
612.953	19275.31
613.149	19525.16
613.344	19000.88
613.539	19594.79
613.735	19136.05
613.93	19154.48
614.126	18953.78
614.321	19258.93
614.517	19060.27
614.712	18949.68
614.907	18914.87
615.103	18931.25
615.298	18753.08
615.493	19082.8
615.688	18521.66
615.884	18998.84
616.079	18523.71
616.274	18509.37
616.47	18624.06
616.665	18482.75
616.86	18292.29
617.055	18601.53
617.25	18460.22
617.445	18396.73
617.641	18155.07
617.836	18120.26
618.031	18087.49
618.226	18021.95
618.421	17944.13
618.616	17948.23
618.811	17606.22
619.006	18185.79
619.201	17421.9
619.396	17686.09
619.591	17450.57
619.786	17577.55
619.981	17323.6
620.176	17714.76
620.371	17206.86
620.566	17432.14
620.761	16881.24
620.956	17313.36
621.151	17028.69
621.346	16971.35
621.541	17059.41
621.735	16832.08
621.93	16359
622.125	16819.8
622.32	16377.44
622.515	16442.97
622.709	16207.45
622.904	16199.26
623.099	16156.25
623.294	16262.75
623.488	16019.04
623.683	15898.21
623.878	15947.36
624.072	15744.61
624.267	15906.4
624.462	15627.88
624.656	15345.26
624.851	15171.18
625.046	15271.53
625.24	15193.71
625.435	15083.12
625.629	14999.15
625.824	14943.86
626.018	14872.18
626.213	14462.58
626.407	14634.61
626.602	14438.01
626.796	14505.59
626.991	14657.14
627.185	14368.38
627.38	14474.87
627.574	14210.68
627.768	13962.88
627.963	14110.33
628.157	14270.08
628.352	14104.19
628.546	13878.91
628.74	13932.16
628.935	13596.29
629.129	13713.03
629.323	13373.07
629.517	13438.6
629.712	13196.94
629.906	13477.51
630.1	13409.93
630.294	13184.65
630.489	13162.12
630.683	13248.14
630.877	13022.86
631.071	12908.18
631.265	12893.84
631.459	13043.34
631.653	12793.49
631.848	12799.63
632.042	12832.4
632.236	12689.04
632.43	12414.62
632.624	12418.71
632.818	12287.64
633.012	12220.06
633.206	12220.06
633.4	12332.7
633.594	12146.33
633.788	12187.29
633.982	12017.31
634.176	11996.83
634.369	11843.23
634.563	11951.77
634.757	11820.7
634.951	11660.96
635.145	11746.98
635.339	11812.51
635.533	11452.07
635.726	11533.99
635.92	11443.88
636.114	11499.17
636.308	11433.64
636.501	11374.25
636.695	11349.67
636.889	11130.54
637.083	11151.02
637.276	11024.05
637.47	11046.57
637.664	11003.57
637.857	10964.65
638.051	10860.21
638.244	10884.78
638.438	10688.18
638.632	10720.95
638.825	10550.96
639.019	10333.88
639.212	10634.93
639.406	10346.17
639.599	10538.68
639.793	10137.27
639.986	10211
640.18	10340.02
640.373	10237.63
640.567	10122.94
640.76	10057.4
640.954	10133.18
641.147	9756.35
641.34	9813.7
641.534	9819.84
641.727	9785.02
641.92	9752.26
642.114	9690.82
642.307	9707.2
642.5	9551.56
642.694	9377.48
642.887	9473.73
643.08	9459.4
643.273	9371.33
643.467	9404.1
643.66	9309.9
643.853	9334.47
644.046	9178.83
644.239	9023.18
644.432	8937.16
644.626	9092.81
644.819	8769.23
645.012	8939.21
645.205	8797.9
645.398	8713.94
645.591	8867.53
645.784	8398.55
645.977	8818.38
646.17	8617.68
646.363	8609.49
646.556	8290.01
646.749	8447.7
646.942	8494.8
647.135	8304.34
647.328	8351.45
647.521	8197.85
647.714	7972.57
647.907	8144.6
648.099	7913.18
648.292	7999.2
648.485	7997.15
648.678	7812.83
648.871	7833.31
649.064	7771.87
649.256	7919.32
649.449	7683.81
649.642	7730.91
649.835	7679.71
650.027	7706.34
650.22	7483.11
650.413	7542.5
650.605	7513.83
650.798	7474.92
650.991	7335.65
651.183	7266.02
651.376	7302.89
651.568	7188.2
651.761	7153.38
651.954	7046.89
652.146	7079.66
652.339	7030.51
652.531	7081.71
652.724	6917.87
652.916	6930.16
653.109	6989.55
653.301	6792.94
653.494	6747.89
653.686	6704.88
653.879	6602.48
654.071	6655.73
654.263	6504.18
654.456	6641.39
654.648	6508.27
654.84	6416.12
655.033	6366.96
655.225	6358.77
655.417	6326
655.61	6362.87
655.802	6516.47
655.994	6121.21
656.186	6235.89
656.379	6203.13
656.571	6153.98
656.763	5965.56
656.955	6000.38
657.148	6094.58
657.34	5914.36
657.532	5875.45
657.724	5781.25
657.916	5873.4
658.108	5717.76
658.3	5783.29
658.492	5859.07
658.684	5646.08
658.876	5660.41
659.068	5668.61
659.26	5515.01
659.452	5525.25
659.644	5555.97
659.836	5484.29
660.028	5474.05
660.22	5357.32
660.412	5402.37
660.604	5443.33
660.796	5484.29
660.988	5281.54
661.18	5173
661.372	5185.29
661.563	5207.81
661.755	5152.52
661.947	5170.95
662.139	5127.94
662.331	5101.32
662.522	4859.66
662.714	5076.74
662.906	4951.82
663.097	4994.83
663.289	4833.04
663.481	4814.6
663.673	4822.8
663.864	4792.08
664.056	4695.82
664.247	4751.12
664.439	4712.21
664.631	4701.97
664.822	4734.73
665.014	4677.39
665.205	4570.9
665.397	4513.55
665.588	4476.69
665.78	4493.07
665.971	4509.46
666.163	4407.06
666.354	4460.31
666.546	4306.71
666.737	4282.13
666.929	4392.72
667.12	4460.31
667.311	4349.71
667.503	4163.35
667.694	4273.94
667.885	4036.38
668.077	4241.17
668.268	4273.94
668.459	4194.07
668.651	4091.67
668.842	4167.45
669.033	4069.14
669.224	4093.72
669.416	4077.34
669.607	3983.13
669.798	3952.41
669.989	3960.6
670.18	3995.42
670.371	4028.18
670.563	3831.58
670.754	3987.22
670.945	3825.43
671.136	3886.87
671.327	3944.22
671.518	3710.75
671.709	3888.92
671.9	3800.86
672.091	3929.88
672.282	3718.94
672.473	3716.89
672.664	3772.19
672.855	3860.25
673.046	3583.77
673.237	3727.13
673.428	3653.41
673.619	3690.27
673.809	3712.8
674	3612.45
674.191	3581.73
674.382	3534.62
674.573	3673.89
674.764	3532.58
674.954	3594.01
675.145	3512.1
675.336	3643.17
675.527	3475.23
675.717	3434.27
675.908	3421.99
676.099	3616.54
676.289	3497.76
676.48	3497.76
676.671	3514.14
676.861	3417.89
677.052	3354.4
677.243	3252
677.433	3411.75
677.624	3424.03
677.814	3301.15
678.005	3344.16
678.195	3393.31
678.386	3387.17
678.576	3331.87
678.767	3272.48
678.957	3338.02
679.148	3219.24
679.338	3237.67
679.529	3200.8
679.719	3241.76
679.909	3350.31
680.1	3196.71
680.29	3268.39
680.481	3249.96
680.671	3303.2
680.861	3217.19
681.052	3297.06
681.242	3133.22
681.432	3211.04
681.622	3149.61
681.813	3110.69
682.003	3172.13
682.193	3127.08
682.383	3110.69
682.573	3055.4
682.764	3139.37
682.954	3129.13
683.144	3010.34
683.334	3112.74
683.524	2959.14
683.714	3198.76
683.904	3116.84
684.094	3086.12
684.284	3045.16
684.474	3004.2
684.664	2989.86
684.854	3127.08
685.044	2975.53
685.234	3077.93
685.424	2934.57
685.614	3024.68
685.804	3034.92
685.994	3067.69
686.184	3108.65
686.374	3016.49
686.564	2924.33
686.753	3051.3
686.943	3039.01
687.133	2905.9
687.323	3008.3
687.513	3032.87
687.702	2932.52
687.892	3036.97
688.082	2996.01
688.272	2840.36
688.461	3002.15
688.651	2903.85
688.841	2873.13
689.03	2858.79
689.22	2932.52
689.41	2850.6
689.599	2871.08
689.789	2914.09
689.979	2842.41
690.168	2914.09
690.358	2909.99
690.547	2828.07
690.737	3008.3
690.926	3047.21
691.116	2881.32
691.305	2848.55
691.495	2879.27
691.684	2916.14
691.874	2862.89
692.063	2971.43
692.252	2887.47
692.442	2922.28
692.631	2946.86
692.82	2959.14
693.01	2981.67
693.199	2864.94
693.388	2727.72
693.578	2787.11
693.767	2879.27
693.956	2869.03
694.146	2946.86
694.335	2823.98
694.524	2723.63
694.713	2813.74
694.902	2809.64
695.092	2991.91
695.281	2807.59
695.47	2840.36
695.659	2770.73
695.848	2879.27
696.037	2854.7
696.226	2791.21
696.415	2828.07
696.604	2799.4
696.793	2752.3
696.982	2725.68
697.171	2887.47
697.36	2819.88
697.549	2778.92
697.738	2840.36
697.927	2731.82
698.116	2725.68
698.305	2787.11
698.494	2793.26
698.683	2778.92
698.872	2834.22
699.061	2801.45
699.25	2748.2
699.438	2819.88
699.627	2774.83
699.816	2877.23
700.005	2850.6
700.193	2744.11
700.382	2713.39
700.571	2803.5
700.76	2778.92
700.948	2805.55
701.137	2703.15
701.326	2780.97
701.514	2811.69
701.703	2688.81
701.892	2838.31
702.08	2576.17
702.269	2889.51
702.457	2668.33
702.646	2733.87
702.834	2658.09
703.023	2742.06
703.212	2705.2
703.4	2559.79
703.589	2701.1
703.777	2772.78
703.965	2592.56
704.154	2660.14
704.342	2387.76
704.531	2631.47
704.719	2504.5
704.907	2641.71
705.096	2610.99
705.284	2522.93
705.472	2463.54
705.661	2471.73
705.849	2533.17
706.037	2662.19
706.226	2543.41
706.414	2580.27
706.602	2404.14
706.79	2518.83
706.979	2543.41
707.167	2574.13
707.355	2502.45
707.543	2457.39
707.731	2410.29
707.919	2455.34
708.107	2443.06
708.296	2363.19
708.484	2432.82
708.672	2369.33
708.86	2455.34
709.048	2377.52
709.236	2285.36
709.424	2420.53
709.612	2346.8
709.8	2369.33
709.988	2404.14
710.176	2352.95
710.364	2469.68
710.551	2354.99
710.739	2348.85
710.927	2244.4
711.115	2338.61
711.303	2311.99
711.491	2309.94
711.679	2256.69
711.866	2240.31
712.054	2252.59
712.242	2193.2
712.43	2383.66
712.617	2213.68
712.805	2121.52
712.993	2086.71
713.181	2160.44
713.368	2330.42
713.556	2219.83
713.744	2072.37
713.931	2178.87
714.119	2156.34
714.306	2219.83
714.494	2166.58
714.682	1961.78
714.869	2088.76
715.057	2168.63
715.244	2139.96
715.432	2146.1
715.619	2012.98
715.807	1949.5
715.994	2162.48
716.182	2047.8
716.369	2025.27
716.556	2047.8
716.744	2037.56
716.931	2058.04
717.119	2025.27
717.306	1998.65
717.493	1998.65
717.681	2068.28
717.868	1929.02
718.055	2000.69
718.242	1908.54
718.43	1894.2
718.617	1986.36
718.804	1908.54
718.991	1984.31
719.179	1929.02
719.366	1914.68
719.553	1998.65
719.74	1888.06
719.927	1849.15
720.114	1802.04
720.301	1859.38
720.488	1781.56
720.676	1843
720.863	1857.34
721.05	1873.72
721.237	1883.96
721.424	1818.43
721.611	1804.09
721.798	1795.9
721.985	1769.27
722.172	1832.76
722.358	1724.22
722.545	1726.27
722.732	1759.03
722.919	1728.31
723.106	1642.3
723.293	1756.99
723.48	1658.68
723.667	1713.98
723.853	1740.6
724.04	1660.73
724.227	1670.97
724.414	1738.55
724.6	1683.26
724.787	1634.11
724.974	1687.36
725.161	1685.31
725.347	1648.44
725.534	1638.2
725.72	1634.11
725.907	1630.01
726.094	1711.93
726.28	1627.96
726.467	1566.53
726.653	1634.11
726.84	1593.15
727.027	1550.14
727.213	1611.58
727.4	1613.63
727.586	1621.82
727.773	1539.9
727.959	1613.63
728.145	1589.05
728.332	1582.91
728.518	1544
728.705	1580.86
728.891	1460.03
729.077	1537.85
729.264	1535.81
729.45	1490.75
729.636	1574.72
729.823	1464.13
730.009	1511.23
730.195	1451.84
730.382	1470.27
730.568	1539.9
730.754	1478.46
730.94	1396.54
731.126	1513.28
731.313	1498.94
731.499	1369.92
731.685	1419.07
731.871	1474.37
732.057	1390.4
732.243	1453.89
732.429	1396.54
732.615	1412.93
732.801	1345.34
732.987	1406.78
733.173	1367.87
733.359	1353.54
733.545	1374.02
733.731	1365.82
733.917	1388.35
734.103	1349.44
734.289	1349.44
734.475	1308.48
734.661	1347.39
734.847	1341.25
735.033	1343.3
735.219	1281.86
735.404	1359.68
735.59	1429.31
735.776	1275.71
735.962	1320.77
736.148	1328.96
736.333	1300.29
736.519	1392.45
736.705	1255.23
736.89	1281.86
737.076	1310.53
737.262	1331.01
737.447	1224.51
737.633	1265.47
737.819	1265.47
738.004	1242.95
738.19	1314.63
738.375	1165.12
738.561	1312.58
738.747	1269.57
738.932	1185.6
739.118	1185.6
739.303	1210.18
739.489	1306.43
739.674	1265.47
739.859	1115.97
740.045	1201.99
740.23	1161.03
740.416	1150.79
740.601	1185.6
740.786	1128.26
740.972	1169.22
741.157	1111.88
741.342	1107.78
741.528	1148.74
741.713	1126.21
741.898	1148.74
742.084	1068.87
742.269	1120.07
742.454	1103.68
742.639	1109.83
742.824	1105.73
743.01	1044.29
743.195	1150.79
743.38	1097.54
743.565	1109.83
743.75	1118.02
743.935	1111.88
744.12	1058.63
744.305	1132.36
744.49	1126.21
744.675	1023.81
744.86	989
745.045	1097.54
745.23	1050.44
745.415	1021.77
745.6	1048.39
745.785	1040.2
745.97	1036.1
746.155	960.33
746.34	962.37
746.525	984.9
746.71	1048.39
746.895	1015.62
747.079	909.13
747.264	1005.38
747.449	921.42
747.634	941.89
747.819	917.32
748.003	894.79
748.188	862.02
748.373	862.02
748.557	972.61
748.742	915.27
748.927	925.51
749.111	825.16
749.296	935.75
749.481	855.88
749.665	929.61
749.85	907.08
750.034	870.22
750.219	921.42
750.404	853.83
750.588	823.11
750.773	829.26
750.957	870.22
751.141	839.5
751.326	880.46
751.51	749.39
751.695	786.25
751.879	909.13
752.064	804.68
752.248	831.3
752.432	868.17
752.617	816.97
752.801	847.69
752.985	821.06
753.17	812.87
753.354	780.11
753.538	767.82
753.722	761.67
753.907	782.15
754.091	802.63
754.275	800.59
754.459	710.47
754.643	730.95
754.828	739.15
755.012	763.72
755.196	737.1
755.38	771.91
755.564	790.35
755.748	751.43
755.932	737.1
756.116	745.29
756.3	638.8
756.484	790.35
756.668	638.8
756.852	677.71
757.036	706.38
757.22	663.37
757.404	685.9
757.588	638.8
757.772	700.23
757.956	667.47
758.14	710.47
758.323	716.62
758.507	692.04
758.691	636.75
758.875	681.8
759.059	724.81
759.242	634.7
759.426	610.12
759.61	636.75
759.794	581.45
759.977	669.52
760.161	677.71
760.345	599.88
760.528	642.89
760.712	685.9
760.895	663.37
761.079	638.8
761.263	575.31
761.446	591.69
761.63	556.88
761.813	528.21
761.997	532.3
762.18	626.51
762.364	554.83
762.547	497.49
762.731	628.56
762.914	636.75
763.098	646.99
763.281	575.31
763.464	616.27
763.648	571.21
763.831	538.45
764.015	624.46
764.198	663.37
764.381	669.52
764.564	626.51
764.748	542.54
764.931	565.07
765.114	534.35
765.297	495.44
765.481	524.11
765.664	550.73
765.847	575.31
766.03	544.59
766.213	499.53
766.397	509.77
766.58	567.12
766.763	630.6
766.946	513.87
767.129	495.44
767.312	573.26
767.495	573.26
767.678	522.06
767.861	603.98
768.044	567.12
768.227	470.86
768.41	515.92
768.593	587.6
768.776	560.97
768.959	589.64
769.142	511.82
769.324	538.45
769.507	501.58
769.69	423.76
769.873	440.14
770.056	472.91
770.239	517.97
770.421	565.07
770.604	579.4
770.787	477.01
770.97	479.05
771.152	583.5
771.335	501.58
771.518	483.15
771.7	550.73
771.883	577.36
772.066	493.39
772.248	515.92
772.431	458.57
772.613	522.06
772.796	534.35
772.978	436.05
773.161	554.83
773.343	495.44
773.526	446.29
773.708	546.64
773.891	409.42
774.073	509.77
774.256	509.77
774.438	548.68
774.621	458.57
774.803	470.86
774.985	464.72
775.168	479.05
775.35	409.42
775.532	487.25
775.715	522.06
775.897	487.25
776.079	434
776.261	395.09
776.444	495.44
776.626	395.09
776.808	423.76
776.99	399.18
777.173	366.42
777.355	376.66
777.537	479.05
777.719	438.09
777.901	368.46
778.083	372.56
778.265	362.32
778.447	331.6
778.629	431.95
778.811	390.99
778.993	380.75
779.175	380.75
779.357	442.19
779.539	436.05
779.721	319.31
779.903	298.83
780.085	417.61
780.267	429.9
780.449	411.47
780.631	352.08
780.812	364.37
780.994	311.12
781.176	374.61
781.358	345.94
781.54	368.46
781.721	354.13
781.903	300.88
782.085	343.89
782.267	364.37
782.448	352.08
782.63	343.89
782.812	372.56
782.993	411.47
783.175	362.32
783.357	296.78
783.538	337.74
783.72	325.46
783.901	386.9
784.083	362.32
784.264	341.84
784.446	243.54
784.627	274.26
784.809	296.78
784.99	341.84
785.172	339.79
785.353	333.65
785.535	280.4
785.716	317.26
785.897	288.59
786.079	329.55
786.26	309.07
786.441	243.54
786.623	231.25
786.804	343.89
786.985	311.12
787.167	270.16
787.348	292.69
787.529	227.15
787.71	268.11
787.891	307.02
788.073	354.13
788.254	192.34
788.435	261.97
788.616	294.74
788.797	259.92
788.978	247.63
789.159	231.25
789.34	364.37
789.522	206.67
789.703	329.55
789.884	264.02
790.065	180.05
790.246	165.71
790.427	210.77
790.607	225.11
790.788	253.78
790.969	249.68
791.15	247.63
791.331	186.19
791.512	278.35
791.693	182.1
791.874	231.25
792.054	339.79
792.235	311.12
792.416	257.87
792.597	235.35
792.778	163.67
792.958	270.16
793.139	233.3
793.32	247.63
793.5	233.3
793.681	221.01
793.862	286.54
794.042	255.83
794.223	151.38
794.404	165.71
794.584	235.35
794.765	188.24
794.945	241.49
795.126	208.72
795.306	173.91
795.487	137.04
795.667	302.93
795.848	227.15
796.028	208.72
796.209	245.59
796.389	239.44
796.57	229.2
796.75	210.77
796.93	208.72
797.111	161.62
797.291	223.06
797.471	216.91
797.652	192.34
797.832	212.82
798.012	253.78
798.192	202.58
798.373	192.34
798.553	178
798.733	165.71
798.913	184.15
799.093	239.44
799.274	110.42
799.454	214.87
799.634	159.57
799.814	202.58
799.994	218.96
800.174	173.91
800.354	153.43
800.534	206.67
800.714	216.91
800.894	165.71
801.074	114.52
801.254	149.33
801.434	126.8
801.614	218.96
801.794	208.72
801.974	390.99
802.154	106.32
802.334	253.78
802.514	91.99
802.693	200.53
802.873	137.04
803.053	175.95
803.233	180.05
803.413	169.81
803.592	178
803.772	147.28
803.952	208.72
804.131	198.48
804.311	149.33
804.491	180.05
804.67	182.1
804.85	229.2
805.03	178
805.209	243.54
805.389	124.76
805.568	171.86
805.748	200.53
805.928	145.24
806.107	120.66
806.287	167.76
806.466	141.14
806.646	116.56
806.825	186.19
807.004	178
807.184	165.71
807.363	225.11
807.543	69.46
807.722	159.57
807.901	73.56
808.081	89.94
808.26	120.66
808.439	104.28
808.619	116.56
808.798	128.85
808.977	65.36
809.156	180.05
809.336	124.76
809.515	128.85
809.694	151.38
809.873	147.28
810.052	180.05
810.231	147.28
810.411	145.24
810.59	137.04
810.769	163.67
810.948	89.94
811.127	165.71
811.306	79.7
811.485	114.52
811.664	94.04
811.843	135
812.022	165.71
812.201	118.61
812.38	139.09
812.559	171.86
812.737	100.18
812.916	116.56
813.095	106.32
813.274	69.46
813.453	173.91
813.632	169.81
813.811	159.57
813.989	114.52
814.168	204.63
814.347	98.13
814.526	75.6
814.704	155.47
814.883	128.85
815.062	130.9
815.24	130.9
815.419	46.93
815.598	137.04
815.776	75.6
815.955	149.33
816.133	85.84
816.312	151.38
816.49	100.18
816.669	161.62
816.847	118.61
817.026	132.95
817.204	143.19
817.383	153.43
817.561	85.84
817.74	147.28
817.918	137.04
818.097	135
818.275	126.8
818.453	163.67
818.632	85.84
818.81	155.47
818.988	157.52
819.167	108.37
819.345	34.64
819.523	178
819.701	145.24
819.879	137.04
820.058	130.9
820.236	173.91
820.414	61.27
820.592	143.19
820.77	108.37
820.948	122.71
821.127	200.53
821.305	71.51
821.483	94.04
821.661	112.47
821.839	91.99
822.017	61.27
822.195	28.5
822.373	102.23
822.551	186.19
822.729	71.51
822.907	132.95
823.085	75.6
823.262	165.71
823.44	137.04
823.618	137.04
823.796	114.52
823.974	91.99
824.152	67.41
824.329	65.36
824.507	12.12
824.685	175.95
824.863	128.85
825.04	89.94
825.218	112.47
825.396	128.85
825.574	94.04
825.751	94.04
825.929	106.32
826.107	100.18
826.284	81.75
826.462	28.5
826.639	8.02
826.817	34.64
826.994	110.42
827.172	65.36
827.349	67.41
827.527	53.08
827.704	135
827.882	73.56
828.059	175.95
828.237	83.8
828.414	55.12
828.591	53.08
828.769	69.46
828.946	87.89
829.124	173.91
829.301	151.38
829.478	98.13
829.655	73.56
829.833	85.84
830.01	46.93
830.187	14.17
830.364	87.89
830.542	63.32
830.719	98.13
830.896	79.7
831.073	38.74
831.25	59.22
831.427	85.84
831.604	89.94
831.782	53.08
831.959	89.94
832.136	94.04
832.313	75.6
832.49	65.36
832.667	46.93
832.844	69.46
833.021	102.23
833.198	79.7
833.374	89.94
833.551	81.75
833.728	81.75
833.905	135
834.082	102.23
834.259	32.6
834.436	85.84
834.612	57.17
834.789	71.51
834.966	44.88
835.143	124.76
835.319	61.27
835.496	130.9
835.673	126.8
835.85	94.04
836.026	77.65
836.203	94.04
836.38	-24.75
836.556	3.93
836.733	108.37
836.909	81.75
837.086	-14.51
837.262	34.64
837.439	98.13
837.616	38.74
837.792	124.76
837.968	51.03
838.145	65.36
838.321	75.6
838.498	77.65
838.674	124.76
838.851	112.47
839.027	98.13
839.203	81.75
839.38	46.93
839.556	14.17
839.732	42.84
839.909	67.41
840.085	83.8
840.261	73.56
840.437	87.89
840.614	77.65
840.79	104.28
840.966	42.84
841.142	171.86
841.318	-12.46
841.494	118.61
841.671	77.65
841.847	71.51
842.023	-28.84
842.199	61.27
842.375	34.64
842.551	81.75
842.727	-6.31
842.903	28.5
843.079	40.79
843.255	77.65
843.431	-0.17
843.607	85.84
843.783	71.51
843.959	40.79
844.134	3.93
844.31	63.32
844.486	42.84
844.662	26.45
844.838	48.98
845.013	85.84
845.189	16.21
845.365	65.36
845.541	26.45
845.716	85.84
845.892	63.32
846.068	73.56
846.244	65.36
846.419	59.22
846.595	53.08
846.77	53.08
846.946	61.27
847.122	104.28
847.297	-8.36
847.473	94.04
847.648	-8.36
847.824	81.75
847.999	40.79
848.175	44.88
848.35	53.08
848.526	63.32
848.701	46.93
848.876	83.8
849.052	81.75
849.227	48.98
849.403	-26.79
849.578	94.04
849.753	16.21
849.929	87.89
850.104	61.27
850.279	-57.51
850.454	106.32
850.63	128.85
850.805	36.69
850.98	53.08
851.155	143.19
851.33	85.84
851.505	24.4
851.681	48.98
851.856	10.07
852.031	46.93
852.206	-22.7
852.381	1.88
852.556	36.69
852.731	53.08
852.906	108.37
853.081	81.75
853.256	32.6
853.431	67.41
853.606	22.36
853.781	32.6
853.956	69.46
854.131	108.37
854.305	-16.55
854.48	89.94
854.655	-26.79
854.83	46.93
855.005	14.17
855.18	81.75
855.354	55.12
855.529	42.84
855.704	63.32
855.879	46.93
856.053	34.64
856.228	-2.22
856.403	-14.51
856.577	44.88
856.752	5.97
856.926	89.94
857.101	30.55
857.276	63.32
857.45	36.69
857.625	61.27
857.799	108.37
857.974	-4.27
858.148	51.03
858.323	91.99
858.497	-6.31
858.672	71.51
858.846	63.32
859.02	132.95
859.195	32.6
859.369	18.26
859.543	75.6
859.718	87.89
859.892	46.93
860.066	48.98
860.241	30.55
860.415	59.22
860.589	-8.36
860.763	48.98
860.938	22.36
861.112	139.09
861.286	14.17
861.46	-4.27
861.634	28.5
861.808	73.56
861.982	48.98
862.157	63.32
862.331	-10.41
862.505	18.26
862.679	100.18
862.853	40.79
863.027	28.5
863.201	67.41
863.375	16.21
863.549	67.41
863.722	61.27
863.896	24.4
864.07	-43.18
864.244	48.98
864.418	-16.55
864.592	91.99
864.766	32.6
864.939	77.65
865.113	18.26
865.287	32.6
865.461	61.27
865.634	30.55
865.808	53.08
865.982	14.17
866.156	28.5
866.329	-0.17
866.503	-34.99
866.676	-12.46
866.85	61.27
867.024	48.98
867.197	61.27
867.371	46.93
867.544	5.97
867.718	-6.31
867.891	-30.89
868.065	116.56
868.238	40.79
868.412	108.37
868.585	14.17
868.759	51.03
868.932	91.99
869.105	63.32
869.279	63.32
869.452	42.84
869.625	120.66
869.799	1.88
869.972	132.95
870.145	14.17
870.319	79.7
870.492	34.64
870.665	67.41
870.838	30.55
871.011	16.21
871.185	38.74
871.358	34.64
871.531	63.32
871.704	59.22
871.877	28.5
872.05	12.12
872.223	106.32
872.396	46.93
872.569	36.69
872.742	116.56
872.915	77.65
873.088	34.64
873.261	38.74
873.434	79.7
873.607	79.7
873.78	40.79
873.953	57.17
874.126	-0.17
874.299	59.22
874.471	-6.31
874.644	1.88
874.817	69.46
874.99	46.93
875.163	120.66
875.335	75.6
875.508	120.66
875.681	-4.27
875.853	71.51
876.026	57.17
876.199	46.93
876.371	67.41
876.544	53.08
876.717	46.93
876.889	42.84
877.062	44.88
877.234	10.07
877.407	100.18
877.579	71.51
877.752	42.84
877.924	65.36
878.097	10.07
878.269	67.41
878.442	77.65
878.614	14.17
878.786	73.56
878.959	44.88
879.131	38.74
879.303	-6.31
879.476	14.17
879.648	40.79
879.82	3.93
879.993	36.69
880.165	87.89
880.337	57.17
880.509	38.74
880.681	-73.9
880.854	65.36
881.026	55.12
881.198	85.84
881.37	34.64
881.542	46.93
881.714	-37.03
881.886	46.93
882.058	42.84
882.23	32.6
882.402	57.17
882.574	65.36
882.746	36.69
882.918	65.36
883.09	24.4
883.262	14.17
883.434	-30.89
883.606	42.84
883.778	14.17
883.95	94.04
884.122	53.08
884.293	63.32
884.465	22.36
884.637	126.8
884.809	59.22
884.98	20.31
885.152	61.27
885.324	94.04
885.496	12.12
885.667	26.45
885.839	-6.31
886.011	40.79
886.182	77.65
886.354	89.94
886.525	-6.31
886.697	118.61
886.869	69.46
887.04	73.56
887.212	10.07
887.383	100.18
887.555	-28.84
887.726	28.5
887.897	57.17
888.069	-0.17
888.24	28.5
888.412	-0.17
888.583	-6.31
888.754	46.93
888.926	10.07
889.097	20.31
889.268	28.5
889.44	69.46
889.611	10.07
889.782	24.4
889.953	20.31
890.125	46.93
890.296	26.45
890.467	63.32
890.638	91.99
890.809	69.46
890.98	46.93
891.151	36.69
891.323	32.6
891.494	26.45
891.665	87.89
891.836	46.93
892.007	38.74
892.178	81.75
892.349	-18.6
892.52	18.26
892.691	28.5
892.862	98.13
893.032	12.12
893.203	28.5
893.374	-14.51
893.545	30.55
893.716	51.03
893.887	34.64
894.057	40.79
894.228	34.64
894.399	1.88
894.57	53.08
894.74	10.07
894.911	-8.36
895.082	-53.42
895.253	-24.75
895.423	46.93
895.594	51.03
895.764	28.5
895.935	102.23
896.106	-10.41
896.276	59.22
896.447	-8.36
896.617	51.03
896.788	44.88
896.958	28.5
897.129	73.56
897.299	77.65
897.47	112.47
897.64	38.74
897.81	20.31
897.981	73.56
898.151	20.31
898.322	85.84
898.492	32.6
898.662	48.98
898.832	126.8
899.003	36.69
899.173	34.64
899.343	-55.47
899.513	46.93
