Data from USB4F104151__279__14-02-25-499.txt Node

Date: Thu Mar 13 14:02:25 EDT 2025
User: louis
Spectrometer: USB4F10415
Trigger mode: 4
Integration Time (sec): 1.000000E-2
Scans to average: 1
Electric dark correction enabled: true
Nonlinearity correction enabled: false
Boxcar width: 0
XAxis mode: Wavelengths
Number of Pixels in Spectrum: 3648
>>>>>Begin Spectral Data<<<<<
178.204	-109.23
178.424	-109.23
178.644	-109.23
178.864	-66.22
179.084	-88.75
179.304	-2.73
179.524	44.37
179.744	-66.22
179.964	-37.55
180.184	15.7
180.404	42.32
180.624	-58.03
180.844	21.84
181.064	-21.16
181.283	48.47
181.503	-25.26
181.723	38.23
181.943	-27.31
182.163	52.56
182.383	-27.31
182.602	46.42
182.822	-62.12
183.042	58.71
183.262	77.14
183.482	-8.87
183.701	-51.88
183.921	-4.78
184.141	-4.78
184.361	-37.55
184.58	-12.97
184.8	32.08
185.02	71
185.239	-49.83
185.459	-129.7
185.679	5.46
185.898	27.99
186.118	66.9
186.338	-12.97
186.557	21.84
186.777	27.99
186.997	5.46
187.216	-6.83
187.436	56.66
187.655	21.84
187.875	3.41
188.095	-21.16
188.314	101.72
188.534	27.99
188.753	32.08
188.973	-17.07
189.192	21.84
189.412	-27.31
189.631	25.94
189.851	3.41
190.07	52.56
190.29	56.66
190.509	25.94
190.729	-31.4
190.948	40.28
191.168	52.56
191.387	7.51
191.607	-23.21
191.826	17.75
192.045	3.41
192.265	-0.68
192.484	-49.83
192.704	21.84
192.923	-53.93
193.142	38.23
193.362	-6.83
193.581	19.8
193.8	5.46
194.02	34.13
194.239	79.19
194.458	34.13
194.678	5.46
194.897	-19.11
195.116	-12.97
195.335	-2.73
195.555	58.71
195.774	25.94
195.993	11.61
196.212	21.84
196.432	-19.11
196.651	-49.83
196.87	-17.07
197.089	27.99
197.308	-0.68
197.528	85.33
197.747	-19.11
197.966	60.76
198.185	50.52
198.404	-35.5
198.623	27.99
198.842	-21.16
199.062	-33.45
199.281	-19.11
199.5	27.99
199.719	56.66
199.938	-4.78
200.157	89.43
200.376	30.04
200.595	44.37
200.814	1.37
201.033	52.56
201.252	13.65
201.471	19.8
201.69	-29.35
201.909	-78.51
202.128	62.8
202.347	-43.69
202.566	15.7
202.785	50.52
203.004	17.75
203.223	56.66
203.442	-19.11
203.661	11.61
203.879	-43.69
204.098	85.33
204.317	40.28
204.536	-2.73
204.755	11.61
204.974	40.28
205.193	-47.79
205.411	50.52
205.63	-25.26
205.849	36.18
206.068	-4.78
206.287	25.94
206.505	48.47
206.724	52.56
206.943	-47.79
207.162	11.61
207.381	-8.87
207.599	13.65
207.818	-4.78
208.037	-21.16
208.255	32.08
208.474	25.94
208.693	3.41
208.911	73.04
209.13	-0.68
209.349	27.99
209.567	32.08
209.786	23.89
210.005	71
210.223	-0.68
210.442	-58.03
210.661	-6.83
210.879	60.76
211.098	1.37
211.316	46.42
211.535	46.42
211.753	60.76
211.972	-8.87
212.191	-17.07
212.409	73.04
212.628	85.33
212.846	-23.21
213.065	-2.73
213.283	77.14
213.502	27.99
213.72	46.42
213.938	17.75
214.157	1.37
214.375	40.28
214.594	-25.26
214.812	48.47
215.031	23.89
215.249	13.65
215.467	11.61
215.686	34.13
215.904	-0.68
216.122	30.04
216.341	7.51
216.559	7.51
216.778	5.46
216.996	85.33
217.214	60.76
217.432	-53.93
217.651	64.85
217.869	-62.12
218.087	27.99
218.306	-41.64
218.524	-41.64
218.742	-12.97
218.96	11.61
219.179	-4.78
219.397	-17.07
219.615	36.18
219.833	66.9
220.051	40.28
220.27	-27.31
220.488	-55.98
220.706	-21.16
220.924	34.13
221.142	21.84
221.36	-10.92
221.578	62.8
221.796	-47.79
222.015	27.99
222.233	52.56
222.451	99.67
222.669	15.7
222.887	-12.97
223.105	5.46
223.323	11.61
223.541	36.18
223.759	21.84
223.977	32.08
224.195	62.8
224.413	46.42
224.631	27.99
224.849	-45.74
225.067	46.42
225.285	11.61
225.503	68.95
225.721	-29.35
225.939	36.18
226.157	-2.73
226.375	36.18
226.592	36.18
226.81	-41.64
227.028	23.89
227.246	46.42
227.464	56.66
227.682	19.8
227.9	40.28
228.117	30.04
228.335	11.61
228.553	44.37
228.771	85.33
228.989	56.66
229.206	9.56
229.424	30.04
229.642	-39.59
229.86	114
230.077	23.89
230.295	3.41
230.513	52.56
230.731	7.51
230.948	17.75
231.166	54.61
231.384	-27.31
231.601	-43.69
231.819	-0.68
232.037	-33.45
232.254	-53.93
232.472	103.76
232.689	-15.02
232.907	30.04
233.125	5.46
233.342	-25.26
233.56	-17.07
233.777	77.14
233.995	40.28
234.213	7.51
234.43	66.9
234.648	-37.55
234.865	-21.16
235.083	13.65
235.3	3.41
235.518	32.08
235.735	3.41
235.953	32.08
236.17	-12.97
236.388	-35.5
236.605	64.85
236.822	66.9
237.04	93.52
237.257	40.28
237.475	-4.78
237.692	111.96
237.909	-23.21
238.127	3.41
238.344	40.28
238.562	19.8
238.779	44.37
238.996	7.51
239.214	32.08
239.431	83.28
239.648	21.84
239.865	-10.92
240.083	50.52
240.3	52.56
240.517	30.04
240.735	-58.03
240.952	89.43
241.169	79.19
241.386	54.61
241.603	-19.11
241.821	3.41
242.038	42.32
242.255	42.32
242.472	-6.83
242.689	85.33
242.907	73.04
243.124	11.61
243.341	85.33
243.558	34.13
243.775	9.56
243.992	11.61
244.209	13.65
244.426	19.8
244.643	54.61
244.86	36.18
245.078	62.8
245.295	27.99
245.512	9.56
245.729	11.61
245.946	-19.11
246.163	-29.35
246.38	-19.11
246.597	23.89
246.814	-29.35
247.031	52.56
247.248	13.65
247.464	9.56
247.681	36.18
247.898	1.37
248.115	-43.69
248.332	23.89
248.549	-19.11
248.766	7.51
248.983	79.19
249.2	5.46
249.417	-8.87
249.633	19.8
249.85	36.18
250.067	-58.03
250.284	71
250.501	27.99
250.717	-4.78
250.934	-37.55
251.151	111.96
251.368	23.89
251.585	27.99
251.801	19.8
252.018	1.37
252.235	38.23
252.451	40.28
252.668	-4.78
252.885	81.24
253.102	21.84
253.318	3.41
253.535	-15.02
253.752	30.04
253.968	13.65
254.185	40.28
254.401	42.32
254.618	23.89
254.835	-86.7
255.051	81.24
255.268	30.04
255.484	27.99
255.701	-21.16
255.917	11.61
256.134	50.52
256.351	134.48
256.567	25.94
256.784	27.99
257	79.19
257.217	68.95
257.433	64.85
257.65	7.51
257.866	-27.31
258.082	54.61
258.299	-2.73
258.515	-41.64
258.732	-12.97
258.948	23.89
259.165	52.56
259.381	1.37
259.597	-51.88
259.814	52.56
260.03	50.52
260.246	25.94
260.463	48.47
260.679	68.95
260.895	-74.41
261.112	54.61
261.328	19.8
261.544	5.46
261.761	95.57
261.977	-23.21
262.193	-4.78
262.409	66.9
262.626	-35.5
262.842	-2.73
263.058	-4.78
263.274	36.18
263.49	44.37
263.707	-8.87
263.923	-29.35
264.139	-8.87
264.355	23.89
264.571	36.18
264.787	-8.87
265.004	66.9
265.22	13.65
265.436	87.38
265.652	-0.68
265.868	21.84
266.084	9.56
266.3	5.46
266.516	-72.36
266.732	34.13
266.948	34.13
267.164	38.23
267.38	48.47
267.596	9.56
267.812	97.62
268.028	30.04
268.244	-8.87
268.46	-27.31
268.676	13.65
268.892	3.41
269.108	1.37
269.324	30.04
269.54	77.14
269.756	71
269.972	5.46
270.188	-6.83
270.403	13.65
270.619	58.71
270.835	-25.26
271.051	23.89
271.267	-4.78
271.483	36.18
271.698	42.32
271.914	46.42
272.13	-15.02
272.346	54.61
272.562	-29.35
272.777	68.95
272.993	-29.35
273.209	44.37
273.425	54.61
273.64	-15.02
273.856	9.56
274.072	50.52
274.287	27.99
274.503	40.28
274.719	75.09
274.934	52.56
275.15	-12.97
275.366	56.66
275.581	-31.4
275.797	23.89
276.012	48.47
276.228	-8.87
276.444	15.7
276.659	89.43
276.875	7.51
277.09	44.37
277.306	62.8
277.521	11.61
277.737	13.65
277.952	7.51
278.168	-10.92
278.383	-19.11
278.599	58.71
278.814	-45.74
279.03	40.28
279.245	44.37
279.461	62.8
279.676	-29.35
279.892	5.46
280.107	5.46
280.322	-8.87
280.538	42.32
280.753	81.24
280.969	48.47
281.184	-2.73
281.399	11.61
281.615	-12.97
281.83	25.94
282.045	19.8
282.26	-45.74
282.476	62.8
282.691	23.89
282.906	91.48
283.122	27.99
283.337	-19.11
283.552	19.8
283.767	21.84
283.983	54.61
284.198	11.61
284.413	44.37
284.628	60.76
284.843	-21.16
285.058	-37.55
285.274	32.08
285.489	-41.64
285.704	54.61
285.919	-39.59
286.134	48.47
286.349	-8.87
286.564	11.61
286.779	27.99
286.995	25.94
287.21	64.85
287.425	27.99
287.64	-15.02
287.855	-45.74
288.07	-17.07
288.285	46.42
288.5	19.8
288.715	-55.98
288.93	5.46
289.145	34.13
289.36	3.41
289.575	-12.97
289.79	-45.74
290.004	77.14
290.219	19.8
290.434	3.41
290.649	38.23
290.864	15.7
291.079	-4.78
291.294	34.13
291.509	30.04
291.724	42.32
291.938	40.28
292.153	-8.87
292.368	19.8
292.583	-0.68
292.798	-8.87
293.012	19.8
293.227	66.9
293.442	-2.73
293.657	89.43
293.871	81.24
294.086	79.19
294.301	9.56
294.516	103.76
294.73	-19.11
294.945	36.18
295.16	52.56
295.374	40.28
295.589	46.42
295.804	-2.73
296.018	44.37
296.233	62.8
296.447	36.18
296.662	3.41
296.877	58.71
297.091	-0.68
297.306	5.46
297.52	25.94
297.735	-8.87
297.949	44.37
298.164	44.37
298.378	42.32
298.593	-33.45
298.807	-12.97
299.022	27.99
299.236	19.8
299.451	-29.35
299.665	23.89
299.88	-21.16
300.094	15.7
300.309	-17.07
300.523	25.94
300.737	23.89
300.952	9.56
301.166	52.56
301.381	3.41
301.595	-2.73
301.809	-92.84
302.024	23.89
302.238	-31.4
302.452	40.28
302.667	-37.55
302.881	58.71
303.095	-17.07
303.309	27.99
303.524	7.51
303.738	44.37
303.952	21.84
304.166	-21.16
304.381	5.46
304.595	27.99
304.809	19.8
305.023	50.52
305.237	68.95
305.452	-33.45
305.666	71
305.88	-8.87
306.094	60.76
306.308	-23.21
306.522	19.8
306.736	21.84
306.95	93.52
307.164	15.7
307.379	48.47
307.593	89.43
307.807	-10.92
308.021	-74.41
308.235	73.04
308.449	-68.27
308.663	3.41
308.877	89.43
309.091	15.7
309.305	3.41
309.519	42.32
309.733	52.56
309.947	-4.78
310.161	36.18
310.374	11.61
310.588	38.23
310.802	13.65
311.016	36.18
311.23	21.84
311.444	54.61
311.658	13.65
311.872	62.8
312.085	48.47
312.299	-2.73
312.513	9.56
312.727	23.89
312.941	36.18
313.154	40.28
313.368	19.8
313.582	9.56
313.796	30.04
314.009	-10.92
314.223	46.42
314.437	71
314.651	48.47
314.864	13.65
315.078	36.18
315.292	32.08
315.505	56.66
315.719	21.84
315.933	25.94
316.146	52.56
316.36	5.46
316.573	56.66
316.787	-19.11
317.001	3.41
317.214	56.66
317.428	-17.07
317.641	52.56
317.855	27.99
318.068	27.99
318.282	105.81
318.495	1.37
318.709	-25.26
318.922	13.65
319.136	62.8
319.349	60.76
319.563	21.84
319.776	23.89
319.99	64.85
320.203	81.24
320.417	9.56
320.63	-37.55
320.843	36.18
321.057	126.29
321.27	21.84
321.483	11.61
321.697	144.72
321.91	-33.45
322.124	36.18
322.337	-2.73
322.55	7.51
322.763	50.52
322.977	-49.83
323.19	-12.97
323.403	13.65
323.617	32.08
323.83	56.66
324.043	60.76
324.256	60.76
324.469	89.43
324.683	64.85
324.896	11.61
325.109	15.7
325.322	36.18
325.535	-2.73
325.748	60.76
325.962	68.95
326.175	15.7
326.388	19.8
326.601	68.95
326.814	23.89
327.027	-27.31
327.24	56.66
327.453	-4.78
327.666	-4.78
327.879	118.1
328.092	73.04
328.305	-49.83
328.518	-17.07
328.731	44.37
328.944	-6.83
329.157	27.99
329.37	54.61
329.583	42.32
329.796	30.04
330.009	-29.35
330.222	-25.26
330.435	19.8
330.648	62.8
330.861	81.24
331.073	44.37
331.286	-12.97
331.499	-2.73
331.712	-15.02
331.925	44.37
332.138	21.84
332.35	-2.73
332.563	42.32
332.776	79.19
332.989	42.32
333.202	56.66
333.414	56.66
333.627	58.71
333.84	62.8
334.053	21.84
334.265	36.18
334.478	-10.92
334.691	48.47
334.903	54.61
335.116	21.84
335.329	-4.78
335.541	48.47
335.754	19.8
335.966	60.76
336.179	32.08
336.392	9.56
336.604	-17.07
336.817	-43.69
337.029	23.89
337.242	19.8
337.454	27.99
337.667	46.42
337.88	21.84
338.092	3.41
338.305	66.9
338.517	66.9
338.729	-12.97
338.942	62.8
339.154	48.47
339.367	7.51
339.579	36.18
339.792	-12.97
340.004	60.76
340.217	15.7
340.429	-21.16
340.641	15.7
340.854	23.89
341.066	-15.02
341.278	48.47
341.491	38.23
341.703	34.13
341.915	38.23
342.128	40.28
342.34	13.65
342.552	48.47
342.764	23.89
342.977	40.28
343.189	54.61
343.401	109.91
343.613	32.08
343.826	-21.16
344.038	34.13
344.25	21.84
344.462	79.19
344.674	54.61
344.886	-15.02
345.099	52.56
345.311	27.99
345.523	56.66
345.735	5.46
345.947	11.61
346.159	-4.78
346.371	44.37
346.583	-23.21
346.795	60.76
347.007	21.84
347.219	40.28
347.431	19.8
347.643	19.8
347.855	56.66
348.067	87.38
348.279	-10.92
348.491	7.51
348.703	19.8
348.915	50.52
349.127	85.33
349.339	11.61
349.551	-4.78
349.763	42.32
349.975	85.33
350.187	50.52
350.399	52.56
350.61	7.51
350.822	-8.87
351.034	38.23
351.246	-0.68
351.458	-12.97
351.669	34.13
351.881	44.37
352.093	3.41
352.305	30.04
352.517	19.8
352.728	-55.98
352.94	-10.92
353.152	111.96
353.363	-119.46
353.575	64.85
353.787	56.66
353.999	38.23
354.21	27.99
354.422	-2.73
354.633	-27.31
354.845	5.46
355.057	30.04
355.268	-19.11
355.48	32.08
355.692	-37.55
355.903	-31.4
356.115	27.99
356.326	13.65
356.538	13.65
356.749	46.42
356.961	34.13
357.172	-12.97
357.384	17.75
357.595	44.37
357.807	-19.11
358.018	21.84
358.23	60.76
358.441	-0.68
358.653	32.08
358.864	42.32
359.075	30.04
359.287	19.8
359.498	27.99
359.709	21.84
359.921	21.84
360.132	62.8
360.344	-2.73
360.555	60.76
360.766	81.24
360.977	-21.16
361.189	38.23
361.4	68.95
361.611	-2.73
361.823	50.52
362.034	9.56
362.245	21.84
362.456	13.65
362.667	23.89
362.879	-4.78
363.09	109.91
363.301	52.56
363.512	-12.97
363.723	52.56
363.935	87.38
364.146	42.32
364.357	-45.74
364.568	99.67
364.779	68.95
364.99	25.94
365.201	42.32
365.412	-10.92
365.623	73.04
365.834	3.41
366.045	-70.31
366.256	13.65
366.467	58.71
366.678	23.89
366.889	81.24
367.1	30.04
367.311	77.14
367.522	30.04
367.733	-39.59
367.944	3.41
368.155	40.28
368.366	32.08
368.577	23.89
368.788	60.76
368.999	-4.78
369.209	73.04
369.42	46.42
369.631	40.28
369.842	44.37
370.053	-15.02
370.264	-8.87
370.474	-17.07
370.685	-33.45
370.896	36.18
371.107	32.08
371.317	93.52
371.528	144.72
371.739	-41.64
371.95	40.28
372.16	40.28
372.371	30.04
372.582	75.09
372.792	36.18
373.003	54.61
373.214	5.46
373.424	91.48
373.635	-4.78
373.846	101.72
374.056	30.04
374.267	36.18
374.477	40.28
374.688	62.8
374.898	71
375.109	62.8
375.319	122.2
375.53	17.75
375.74	-12.97
375.951	-15.02
376.161	54.61
376.372	52.56
376.582	15.7
376.793	-4.78
377.003	9.56
377.214	60.76
377.424	58.71
377.635	44.37
377.845	64.85
378.055	-21.16
378.266	21.84
378.476	13.65
378.686	-27.31
378.897	17.75
379.107	-4.78
379.317	44.37
379.528	85.33
379.738	95.57
379.948	21.84
380.158	77.14
380.369	13.65
380.579	56.66
380.789	32.08
380.999	68.95
381.21	-2.73
381.42	-29.35
381.63	-12.97
381.84	97.62
382.05	75.09
382.261	34.13
382.471	25.94
382.681	46.42
382.891	60.76
383.101	-4.78
383.311	52.56
383.521	30.04
383.731	60.76
383.941	62.8
384.151	118.1
384.361	66.9
384.571	-2.73
384.781	60.76
384.991	52.56
385.201	44.37
385.411	-6.83
385.621	60.76
385.831	81.24
386.041	19.8
386.251	44.37
386.461	81.24
386.671	36.18
386.881	60.76
387.091	38.23
387.301	-39.59
387.511	23.89
387.72	75.09
387.93	56.66
388.14	34.13
388.35	56.66
388.56	89.43
388.769	68.95
388.979	19.8
389.189	25.94
389.399	77.14
389.609	-15.02
389.818	13.65
390.028	19.8
390.238	32.08
390.447	60.76
390.657	7.51
390.867	11.61
391.076	79.19
391.286	-19.11
391.496	-17.07
391.705	7.51
391.915	130.39
392.125	138.58
392.334	15.7
392.544	79.19
392.753	-8.87
392.963	79.19
393.172	118.1
393.382	38.23
393.591	118.1
393.801	23.89
394.01	73.04
394.22	101.72
394.429	62.8
394.639	77.14
394.848	101.72
395.058	36.18
395.267	30.04
395.477	87.38
395.686	114
395.895	101.72
396.105	167.25
396.314	-2.73
396.524	3.41
396.733	152.91
396.942	9.56
397.152	109.91
397.361	126.29
397.57	19.8
397.78	77.14
397.989	68.95
398.198	163.15
398.407	89.43
398.617	122.2
398.826	48.47
399.035	68.95
399.244	161.11
399.453	148.82
399.663	126.29
399.872	79.19
400.081	138.58
400.29	85.33
400.499	138.58
400.708	105.81
400.917	77.14
401.127	83.28
401.336	99.67
401.545	77.14
401.754	77.14
401.963	99.67
402.172	97.62
402.381	95.57
402.59	19.8
402.799	134.48
403.008	89.43
403.217	87.38
403.426	163.15
403.635	77.14
403.844	89.43
404.053	136.53
404.262	136.53
404.471	124.24
404.68	136.53
404.888	175.44
405.097	66.9
405.306	111.96
405.515	122.2
405.724	83.28
405.933	202.07
406.142	134.48
406.35	159.06
406.559	185.68
406.768	171.35
406.977	183.63
407.185	140.63
407.394	216.4
407.603	173.39
407.812	249.17
408.02	152.91
408.229	200.02
408.438	202.07
408.646	216.4
408.855	316.75
409.064	138.58
409.272	298.32
409.481	255.31
409.69	251.22
409.898	118.1
410.107	271.7
410.315	218.45
410.524	257.36
410.733	259.41
410.941	296.27
411.15	316.75
411.358	314.7
411.567	355.66
411.775	380.24
411.984	382.29
412.192	353.62
412.401	329.04
412.609	400.72
412.818	449.87
413.026	378.19
413.234	365.9
413.443	449.87
413.651	429.39
413.86	488.78
414.068	519.5
414.276	544.08
414.485	529.74
414.693	546.12
414.901	593.23
415.11	626
415.318	644.43
415.526	560.46
415.734	687.43
415.943	648.52
416.151	746.83
416.359	619.85
416.567	666.96
416.776	714.06
416.984	742.73
417.192	775.5
417.4	834.89
417.608	855.37
417.817	859.46
418.025	857.42
418.233	925
418.441	941.38
418.649	1072.45
418.857	1025.35
419.065	1078.6
419.273	1117.51
419.481	1183.04
419.689	1125.7
419.897	1232.19
420.105	1211.71
420.313	1346.88
420.521	1324.35
420.729	1375.55
420.937	1494.33
421.145	1457.47
421.353	1535.29
421.561	1555.77
421.769	1606.97
421.977	1733.95
422.185	1701.18
422.393	1793.34
422.601	1819.96
422.809	1942.84
423.017	1959.22
423.224	2026.81
423.432	2041.14
423.64	2213.17
423.848	2215.22
424.056	2227.51
424.263	2436.4
424.471	2350.39
424.679	2383.15
424.887	2559.28
425.094	2655.53
425.302	2741.55
425.51	2749.74
425.718	2919.72
425.925	2823.47
426.133	3140.9
426.341	3140.9
426.548	3214.63
426.756	3235.11
426.964	3288.36
427.171	3444
427.379	3585.31
427.586	3700
427.794	3853.59
428.001	3808.54
428.209	4066.58
428.417	4056.34
428.624	4510.99
428.832	4291.86
429.039	4216.08
429.247	4381.97
429.454	4742.41
429.662	4896.01
429.869	4689.17
430.076	5074.18
430.284	4943.11
430.491	5096.71
430.699	5321.99
430.906	5494.02
431.114	5459.2
431.321	5829.88
431.528	5819.64
431.736	6147.32
431.943	6362.36
432.15	6069.5
432.358	6272.25
432.565	6749.42
432.772	6714.61
432.979	7085.29
433.187	7113.96
433.394	7107.82
433.601	7605.47
433.808	7595.23
434.016	7529.7
434.223	7871.71
434.43	8320.21
434.637	8010.97
434.844	8709.33
435.052	8631.51
435.259	8783.06
435.466	8893.65
435.673	8754.38
435.88	9540.8
436.087	9913.53
436.294	9813.18
436.501	9569.48
436.708	9966.78
436.915	10198.2
437.122	10491.06
437.329	10423.48
437.537	11056.3
437.743	11234.47
437.95	10859.7
438.157	11566.24
438.364	11981.98
438.571	12063.9
438.778	12139.68
438.985	12954.77
439.192	12600.47
439.399	13032.59
439.606	12790.93
439.813	13585.54
440.02	14294.14
440.227	14103.68
440.433	13747.33
440.64	14283.9
440.847	14363.77
441.054	14572.66
441.261	15547.5
441.467	15340.65
441.674	15594.6
441.881	16411.74
442.088	16092.26
442.294	16153.69
442.501	16313.44
442.708	16796.76
442.914	17628.23
443.121	18144.32
443.328	17501.26
443.534	19024.95
443.741	18500.67
443.948	18324.54
444.154	19606.57
444.361	19350.57
444.568	19487.79
444.774	19538.99
444.981	19794.98
445.187	20202.53
445.394	20982.81
445.6	20773.91
445.807	22764.54
446.013	21906.44
446.22	22338.56
446.426	23204.85
446.633	23432.18
446.839	23997.42
447.046	23073.78
447.252	24194.02
447.459	24591.33
447.665	24179.68
447.871	25564.11
448.078	26305.48
448.284	25072.6
448.491	25744.33
448.697	27093.94
448.903	27165.62
449.11	27239.35
449.316	27128.76
449.522	27313.08
449.728	28349.35
449.935	28410.79
450.141	28576.67
450.347	29330.33
450.553	28283.81
450.76	28478.37
450.966	29707.15
451.172	29133.72
451.378	29713.3
451.584	29123.48
451.791	29744.02
451.997	29690.77
452.203	30434.18
452.409	30630.79
452.615	30147.47
452.821	29113.24
453.027	28808.09
453.233	30421.89
453.44	29350.81
453.646	29719.44
453.852	29361.05
454.058	30004.11
454.264	29002.65
454.47	29645.71
454.676	28687.26
454.882	29946.76
455.088	27184.05
455.294	27757.49
455.5	28105.64
455.705	28617.63
455.911	27212.73
456.117	27022.26
456.323	26588.1
456.529	25197.52
456.735	26198.98
456.941	25510.86
457.147	25101.27
457.352	24519.65
457.558	23892.97
457.764	24198.12
457.97	23579.63
458.176	23112.69
458.381	23096.31
458.587	22082.56
458.793	22074.37
458.999	20896.79
459.204	22414.34
459.41	21529.61
459.616	20313.12
459.821	20182.05
460.027	20141.09
460.233	19733.54
460.438	18830.39
460.644	19143.73
460.85	18254.91
461.055	17798.21
461.261	18005.06
461.466	16309.34
461.672	16016.48
461.878	17208.4
462.083	16075.87
462.289	15758.44
462.494	15682.66
462.7	15195.25
462.905	14474.36
463.111	15109.23
463.316	15055.98
463.522	14953.59
463.727	14720.12
463.932	14851.19
464.138	14593.14
464.343	14701.68
464.549	14204.03
464.754	14673.01
464.959	14498.94
465.165	14525.56
465.37	13696.13
465.575	13458.57
465.781	13997.18
465.986	14097.53
466.191	13472.9
466.397	13296.78
466.602	12651.67
466.807	13384.84
467.012	13102.22
467.218	13251.72
467.423	13032.59
467.628	13014.16
467.833	13784.19
468.038	13057.17
468.244	12651.67
468.449	13085.84
468.654	12917.9
468.859	12635.28
469.064	12514.45
469.269	12158.11
469.474	12338.33
469.679	12295.32
469.885	12137.63
470.09	12274.84
470.295	12035.23
470.5	12117.15
470.705	11945.12
470.91	11805.86
471.115	11633.83
471.32	11891.87
471.525	11793.57
471.73	11433.13
471.935	11392.17
472.139	11027.63
472.344	11259.05
472.549	10937.52
472.754	10876.08
472.959	10960.05
473.164	10355.9
473.369	10130.62
473.574	10808.5
473.778	10550.45
473.983	10513.59
474.188	10550.45
474.393	9974.97
474.598	9929.92
474.802	9891.01
475.007	9692.35
475.212	9854.14
475.417	9407.69
475.621	9397.45
475.826	9723.07
476.031	9149.64
476.235	9223.37
476.44	9213.13
476.645	8965.32
476.849	9301.19
477.054	8907.98
477.259	8905.93
477.463	8830.16
477.668	8654.03
477.872	8785.1
478.077	8781.01
478.282	8420.56
478.486	8410.32
478.691	8129.75
478.895	8342.74
479.1	8195.29
479.304	8334.55
479.509	8115.42
479.713	8252.63
479.918	7959.77
480.122	7877.85
480.326	7912.67
480.531	7967.96
480.735	7832.8
480.94	7787.74
481.144	7980.25
481.348	7562.47
481.553	7965.92
481.757	7474.4
481.961	7795.93
482.166	7834.85
482.37	7736.54
482.574	7597.28
482.778	7648.48
482.983	7810.27
483.187	7646.43
483.391	7580.9
483.595	7503.07
483.8	7546.08
484.004	7605.47
484.208	7691.49
484.412	7488.74
484.616	7726.3
484.821	7472.36
485.025	7494.88
485.229	7736.54
485.433	7519.46
485.637	7498.98
485.841	7494.88
486.045	7472.36
486.249	7752.93
486.453	7513.31
486.657	7435.49
486.861	7648.48
487.065	7202.02
487.269	7482.6
487.473	7415.01
487.677	7513.31
487.881	7705.82
488.085	7480.55
488.289	7531.75
488.493	7546.08
488.697	7664.86
488.901	7648.48
489.105	7779.55
489.309	7584.99
489.512	7865.57
489.716	7781.6
489.92	7640.29
490.124	7572.71
490.328	7746.78
490.531	7890.14
490.735	7908.57
490.939	7781.6
491.143	7791.84
491.346	7679.2
491.55	7933.15
491.754	7957.72
491.958	7963.87
492.161	7836.89
492.365	8010.97
492.569	8121.56
492.772	7976.16
492.976	8183
493.18	8178.9
493.383	8391.89
493.587	8572.11
493.79	8516.82
493.994	8303.83
494.197	8451.28
494.401	8494.29
494.605	8420.56
494.808	8627.41
495.012	8766.67
495.215	8541.39
495.419	8910.03
495.622	8711.38
495.825	8914.13
496.029	8881.36
496.232	9190.6
496.436	9061.58
496.639	9284.81
496.843	9348.29
497.046	9348.29
497.249	9475.27
497.453	9747.65
497.656	9583.81
497.859	9571.52
498.063	9729.22
498.266	10040.51
498.469	9753.79
498.673	10185.91
498.876	10153.15
499.079	10237.11
499.282	10409.14
499.485	10685.62
499.689	10853.55
499.892	10736.82
500.095	10712.24
500.298	11117.74
500.501	10951.85
500.705	11537.57
500.908	11566.24
501.111	11586.72
501.314	11711.65
501.517	11906.21
501.72	12119.2
501.923	11930.78
502.126	12285.08
502.329	12457.11
502.532	12483.73
502.735	12311.71
502.938	12713.11
503.141	12915.86
503.344	13225.1
503.547	13038.73
503.75	13501.58
503.953	13466.76
504.156	13839.49
504.359	13831.3
504.562	14079.1
504.765	14382.2
504.968	14341.24
505.17	14615.67
505.373	14611.57
505.576	14822.52
505.779	15316.08
505.982	15107.18
506.185	15283.31
506.387	15793.25
506.59	15744.1
506.793	16079.97
506.996	15936.61
507.198	16362.59
507.401	16276.57
507.604	16696.41
507.807	16929.88
508.009	17155.15
508.212	17034.32
508.415	17484.87
508.617	17443.92
508.82	17732.68
509.022	17650.76
509.225	18261.05
509.428	18566.2
509.63	18783.29
509.833	18824.25
510.035	19250.22
510.238	19153.97
510.44	19584.04
510.643	19797.03
510.845	19862.57
511.048	20110.37
511.25	20399.13
511.453	20569.12
511.655	21326.86
511.858	20728.86
512.06	21019.67
512.262	21615.63
512.465	21578.76
512.667	21820.42
512.87	22158.34
513.072	22305.79
513.274	22879.22
513.477	22862.84
513.679	23055.35
513.881	23307.25
514.084	23813.1
514.286	23610.35
514.488	23849.96
514.69	24642.53
514.893	24732.64
515.095	24802.27
515.297	25097.17
515.499	25447.38
515.701	25664.46
515.904	26006.47
516.106	26125.25
516.308	26569.66
516.51	26661.82
516.712	26663.87
516.914	27274.17
517.116	27831.21
517.318	27843.5
517.52	28068.78
517.722	27960.23
517.925	28607.39
518.127	29207.45
518.329	29215.64
518.531	28922.78
518.733	29883.28
518.935	29963.15
519.136	29969.29
519.338	30595.97
519.54	30878.59
519.742	30743.42
519.944	31044.48
520.146	31867.76
520.348	32131.95
520.55	31927.15
520.752	32213.87
520.954	33110.88
521.155	32723.81
521.357	33344.34
521.559	33606.48
521.761	34065.23
521.963	34130.76
522.164	34462.54
522.366	34280.27
522.568	34870.08
522.77	34822.98
522.971	35556.15
523.173	35414.84
523.375	35947.31
523.576	35785.52
523.778	35595.06
523.98	36268.84
524.181	36709.16
524.383	36739.88
524.584	37227.29
524.786	37432.09
524.988	37280.54
525.189	37845.78
525.391	37757.72
525.592	37851.92
525.794	38011.67
525.995	38175.5
526.197	38544.14
526.398	38632.2
526.6	38736.65
526.801	39176.96
527.003	38914.82
527.204	39461.63
527.406	39750.39
527.607	39672.57
527.808	39860.98
528.01	39557.88
528.211	40137.46
528.412	40608.49
528.614	40723.18
528.815	40467.18
529.016	41356
529.218	40588.01
529.419	40635.11
529.62	40708.84
529.822	40860.39
530.023	40829.67
530.224	40942.31
530.425	41429.73
530.626	40817.38
530.828	40753.9
531.029	42132.18
531.23	40897.25
531.431	41231.07
531.632	41681.63
531.833	41597.66
532.035	41525.98
532.236	41820.89
532.437	41888.47
532.638	41822.94
532.839	42293.97
533.04	42007.25
533.241	41374.43
533.442	42435.28
533.643	42181.33
533.844	42433.23
534.045	42445.52
534.246	41804.5
534.447	42678.99
534.648	42234.58
534.849	42201.81
535.05	42511.05
535.251	42611.4
535.451	42148.56
535.652	42207.95
535.853	41931.48
536.054	42402.51
536.255	42488.52
536.456	41859.8
536.657	42810.06
536.857	42275.54
537.058	41962.2
537.259	42760.9
537.46	42685.13
537.66	42386.13
537.861	42851.02
538.062	42156.75
538.263	42322.64
538.463	42003.16
538.664	42416.85
538.865	42599.12
539.065	42314.45
539.266	41884.37
539.466	43049.67
539.667	42060.5
539.868	42617.55
540.068	42193.62
540.269	42324.69
540.469	42808.01
540.67	42101.46
540.87	42455.76
541.071	42425.04
541.271	42611.4
541.472	42422.99
541.672	42353.36
541.873	42613.45
542.073	41863.89
542.274	42470.09
542.474	42498.76
542.675	42277.58
542.875	42721.99
543.075	42449.61
543.276	41988.82
543.476	42226.38
543.676	42169.04
543.877	42603.21
544.077	42748.62
544.277	42187.47
544.478	42392.27
544.678	42156.75
544.878	42203.86
545.078	42429.13
545.279	42336.98
545.479	42173.14
545.679	42361.55
545.879	41804.5
546.079	42250.96
546.28	42025.68
546.48	41908.95
546.68	42308.3
546.88	42447.57
547.08	42136.27
547.28	42558.16
547.48	42029.78
547.68	42253.01
547.88	42150.61
548.081	42003.16
548.281	42150.61
548.481	42023.64
548.681	42324.69
548.881	41841.37
549.081	42250.96
549.28	42050.26
549.48	42521.29
549.68	42382.03
549.88	42363.6
550.08	42187.47
550.28	42158.8
550.48	41958.1
550.68	42158.8
550.88	42056.4
551.08	42074.84
551.279	41997.01
551.479	42205.91
551.679	41642.71
551.879	42033.88
552.079	42060.5
552.278	42336.98
552.478	42472.14
552.678	42148.56
552.878	42101.46
553.077	41892.57
553.277	41599.71
553.477	42879.69
553.676	41620.19
553.876	41769.69
554.076	41810.65
554.275	41589.47
554.475	41163.49
554.674	41487.07
554.874	41714.39
555.074	41351.9
555.273	41528.03
555.473	41482.97
555.672	41143.01
555.872	41491.16
556.071	41489.12
556.271	41603.8
556.47	41339.61
556.67	40827.62
556.869	41335.52
557.068	41312.99
557.268	40809.19
557.467	41153.25
557.667	41233.12
557.866	40999.65
558.065	40686.31
558.265	40899.3
558.464	40467.18
558.663	41259.74
558.863	40352.49
559.062	40964.84
559.261	40248.05
559.461	41009.89
559.66	40315.63
559.859	40344.3
560.058	40377.07
560.258	40512.24
560.457	39914.23
560.656	40145.65
560.855	40248.05
561.054	40418.03
561.253	39860.98
561.453	39865.08
561.652	40004.34
561.851	40362.73
562.05	39813.88
562.249	39797.49
562.448	39846.65
562.647	39871.22
562.846	40008.43
563.045	39559.93
563.244	39164.67
563.443	39613.18
563.642	38609.67
563.841	39330.56
564.04	39351.04
564.239	39635.7
564.438	39285.5
564.637	39029.51
564.836	39381.76
565.035	39127.81
565.234	39142.14
565.432	38742.79
565.631	38578.95
565.83	38636.3
566.029	38675.21
566.228	38587.14
566.427	38701.83
566.625	38370.06
566.824	37759.77
567.023	38288.14
567.222	37671.7
567.42	38757.13
567.619	38320.91
567.818	37929.75
568.016	37954.32
568.215	38107.92
568.414	37688.09
568.612	38124.3
568.811	37780.24
569.01	37577.5
569.208	37333.79
569.407	37665.56
569.605	37012.26
569.804	37313.31
570.002	36739.88
570.201	37249.82
570.4	36481.83
570.598	36909.86
570.797	36729.64
570.995	36803.36
571.193	36150.06
571.392	36555.56
571.59	36229.93
571.789	36426.54
571.987	36098.86
572.186	36002.61
572.384	36076.33
572.582	36229.93
572.781	36152.11
572.979	35572.53
573.177	35619.64
573.376	35799.86
573.574	35238.72
573.772	35521.34
573.971	35457.85
574.169	35058.49
574.367	34880.32
574.565	35255.1
574.763	34564.93
574.962	34630.47
575.16	34696
575.358	34468.68
575.556	34159.44
575.754	34513.73
575.952	34018.13
576.151	34319.18
576.349	34007.89
576.547	34257.74
576.745	34263.88
576.943	33801.04
577.141	33543
577.339	33780.56
577.537	33407.83
577.735	33514.33
577.933	33184.6
578.131	33612.63
578.329	33215.32
578.527	33082.2
578.725	32617.32
578.923	33078.11
579.121	32965.47
579.319	32684.9
579.516	32631.65
579.714	32541.54
579.912	32742.24
580.11	32463.72
580.308	32373.61
580.506	32027.5
580.704	31796.08
580.901	32140.14
581.099	32580.45
581.297	31439.73
581.495	31505.27
581.692	31861.62
581.89	31525.75
582.088	32013.16
582.285	31267.7
582.483	31257.46
582.681	30987.13
582.878	31054.72
583.076	30622.59
583.274	31443.83
583.471	30512
583.669	31001.47
583.866	30407.56
584.064	30671.75
584.262	30432.13
584.459	30282.63
584.657	30288.78
584.854	30544.77
585.052	29768.59
585.249	30096.27
585.447	29973.39
585.644	29557.65
585.841	29881.23
586.039	29971.34
586.236	29629.33
586.434	29604.75
586.631	29563.79
586.828	29498.26
587.026	29326.23
587.223	29436.82
587.42	29070.23
587.618	29229.98
587.815	28758.94
588.012	28760.99
588.21	28941.21
588.407	29021.08
588.604	28709.79
588.801	28541.86
588.999	28593.06
589.196	28537.76
589.393	27976.62
589.59	28478.37
589.787	28093.35
589.984	27952.04
590.182	27847.6
590.379	27669.42
590.576	27689.9
590.773	27868.08
590.97	27790.25
591.167	27734.96
591.364	27481.01
591.561	27386.8
591.758	27306.93
591.955	27472.82
592.152	27245.49
592.349	27233.21
592.546	27018.17
592.743	27149.24
592.94	26719.17
593.137	26842.04
593.334	26891.19
593.531	26274.76
593.727	26788.8
593.924	26829.76
594.121	26405.83
594.318	26729.41
594.515	26047.43
594.712	26649.53
594.908	26196.93
595.105	26059.72
595.302	26192.84
595.499	26112.97
595.696	25818.06
595.892	25742.28
596.089	25777.1
596.286	25600.97
596.482	25336.79
596.679	25463.76
596.876	25342.93
597.072	25123.8
597.269	25287.64
597.466	25150.42
597.662	24718.3
597.859	25007.06
598.055	25066.45
598.252	24712.16
598.448	25045.98
598.645	24767.45
598.841	24503.26
599.038	24783.84
599.234	24429.54
599.431	24136.68
599.627	24370.15
599.824	24280.03
600.02	24124.39
600.217	24314.85
600.413	23981.03
600.609	23835.63
600.806	23630.83
601.002	23868.39
601.198	23981.03
601.395	23524.33
601.591	23337.97
601.787	23473.14
601.984	23485.42
602.18	23858.15
602.376	23507.95
602.572	23055.35
602.769	23266.29
602.965	23151.6
603.161	23147.51
603.357	23012.34
603.553	22500.35
603.75	22715.39
603.946	22713.34
604.142	22772.73
604.338	22494.21
604.534	22557.69
604.73	22352.9
604.926	21857.29
605.122	22776.83
605.318	22010.89
605.514	21754.89
605.71	21990.41
605.906	21869.58
606.102	21959.69
606.298	22035.46
606.494	21941.25
606.69	21826.57
606.886	21783.56
607.082	21498.89
607.278	21621.77
607.474	21101.59
607.67	21685.26
607.866	20984.85
608.062	21347.34
608.257	20974.61
608.453	21269.52
608.649	21464.08
608.845	20872.21
609.041	21064.72
609.236	20810.78
609.432	20569.12
609.628	21097.49
609.824	20505.63
610.019	20659.23
610.215	20685.85
610.411	20712.47
610.606	20444.19
610.802	20569.12
610.998	20212.77
611.193	20405.28
611.389	20120.61
611.584	20128.8
611.78	20100.13
611.976	20329.5
612.171	20134.95
612.367	19975.2
612.562	19899.43
612.758	19778.6
612.953	19639.34
613.149	19862.57
613.344	19674.15
613.539	19889.19
613.735	19807.27
613.93	19690.54
614.126	19506.22
614.321	19817.51
614.517	19559.47
614.712	19330.09
614.907	19428.4
615.103	19637.29
615.298	19258.42
615.493	19307.57
615.688	19131.44
615.884	19631.15
616.079	18865.21
616.274	19037.23
616.47	19051.57
616.665	19035.19
616.86	18824.25
617.055	18994.23
617.25	18879.54
617.445	18979.89
617.641	18512.95
617.836	19014.71
618.031	18537.53
618.226	18639.93
618.421	18416.7
618.616	18938.93
618.811	18207.81
619.006	18342.97
619.201	17972.29
619.396	18046.02
619.591	17796.17
619.786	18166.85
619.981	17869.89
620.176	17972.29
620.371	17675.34
620.566	17603.66
620.761	17474.63
620.956	17728.58
621.151	17222.73
621.346	17378.38
621.541	17304.65
621.735	17232.97
621.93	17093.71
622.125	17122.38
622.32	16675.93
622.515	16852.05
622.709	16927.83
622.904	16763.99
623.099	16669.78
623.294	16573.53
623.488	16374.88
623.683	16464.99
623.878	16141.41
624.072	16120.93
624.267	16135.26
624.462	16106.59
624.656	15838.31
624.851	15993.95
625.046	15580.26
625.24	15811.68
625.435	15324.27
625.629	15404.14
625.824	15434.86
626.018	15445.1
626.213	15101.04
626.407	15246.44
626.602	14922.87
626.796	14969.97
626.991	14779.51
627.185	14804.08
627.38	14972.02
627.574	14580.85
627.768	14560.38
627.963	14398.59
628.157	14410.87
628.352	14445.69
628.546	14351.48
628.74	14351.48
628.935	14255.23
629.129	14156.93
629.323	14120.06
629.517	14072.96
629.712	13868.16
629.906	13792.39
630.1	13474.95
630.294	13626.5
630.489	13481.1
630.683	13487.24
630.877	13520.01
631.071	13126.8
631.265	13474.95
631.459	13341.83
631.653	13198.48
631.848	13302.92
632.042	12962.96
632.236	13087.89
632.43	12815.51
632.624	13022.35
632.818	12833.94
633.012	12799.12
633.206	12623
633.4	12731.54
633.594	12448.92
633.788	12479.64
633.982	12229.79
634.176	12323.99
634.369	12016.8
634.563	12467.35
634.757	11971.74
634.951	12133.53
635.145	11914.4
635.339	12061.85
635.533	11885.73
635.726	11654.31
635.92	11760.8
636.114	11740.32
636.308	11531.43
636.501	11570.34
636.695	11357.35
636.889	11371.69
637.083	11451.56
637.276	11453.61
637.47	11175.08
637.664	11136.17
637.857	11041.96
638.051	11054.25
638.244	10806.45
638.438	10927.28
638.632	10728.63
638.825	10892.46
639.019	10755.25
639.212	10740.91
639.406	10575.03
639.599	10527.92
639.793	10704.05
639.986	10374.33
640.18	10486.97
640.373	10212.54
640.567	10431.67
640.76	10132.67
640.954	10120.38
641.147	10210.49
641.34	10022.08
641.534	9874.62
641.727	10013.88
641.92	9856.19
642.114	9774.27
642.307	9843.9
642.5	9858.24
642.694	9606.34
642.887	9514.18
643.08	9643.2
643.273	9471.17
643.467	9497.8
643.66	9350.34
643.853	9444.55
644.046	9186.51
644.239	9243.85
644.432	9065.67
644.626	9127.11
644.819	8881.36
645.012	9088.2
645.205	8914.13
645.398	8858.83
645.591	8563.92
645.784	8598.74
645.977	8580.31
646.17	8738
646.363	8629.46
646.556	8395.99
646.749	8445.14
646.942	8547.54
647.135	8381.65
647.328	8328.41
647.521	8318.17
647.714	8266.97
647.907	8219.86
648.099	8015.07
648.292	8269.02
648.485	8199.38
648.678	7959.77
648.871	7918.81
649.064	7886.05
649.256	7988.44
649.449	7818.46
649.642	7757.02
649.835	7795.93
650.027	7619.81
650.22	7591.14
650.413	7658.72
650.605	7474.4
650.798	7415.01
650.991	7402.72
651.183	7392.48
651.376	7285.99
651.568	7406.82
651.761	7283.94
651.954	7136.49
652.146	7236.84
652.339	7093.48
652.531	7216.36
652.724	7111.91
652.916	7132.39
653.109	7029.99
653.301	7052.52
653.494	7179.5
653.686	6737.13
653.879	6860.01
654.071	6776.05
654.263	6669.55
654.456	6819.05
654.648	6814.96
654.84	6499.57
655.033	6548.72
655.225	6679.79
655.417	6614.26
655.61	6614.26
655.802	6450.42
655.994	6370.55
656.186	6532.34
656.379	6161.66
656.571	6307.06
656.763	6225.14
656.955	6264.05
657.148	6343.92
657.34	6106.36
657.532	5911.8
657.724	6157.56
657.916	6118.65
658.108	6081.78
658.3	5932.28
658.492	5936.38
658.684	5815.55
658.876	5819.64
659.068	5782.78
659.26	5793.02
659.452	5942.52
659.644	5852.41
659.836	5682.43
660.028	5555.46
660.22	5590.27
660.412	5512.45
660.604	5563.65
660.796	5547.26
660.988	5491.97
661.18	5508.35
661.372	5455.11
661.563	5479.68
661.755	5330.18
661.947	5385.48
662.139	5231.88
662.331	5403.91
662.522	5201.16
662.714	5203.21
662.906	5082.38
663.097	4906.25
663.289	5059.85
663.481	5022.98
663.673	5029.13
663.864	4814.09
664.056	4936.97
664.247	5031.18
664.439	4910.35
664.631	4971.79
664.822	4891.91
665.014	4930.83
665.205	4795.66
665.397	4832.52
665.588	4967.69
665.78	4662.54
665.971	4525.33
666.163	4789.52
666.354	4631.82
666.546	4558.1
666.737	4484.37
666.929	4621.58
667.12	4504.85
667.311	4531.47
667.503	4496.66
667.694	4312.34
667.885	4533.52
668.077	4320.53
668.268	4420.88
668.459	4482.32
668.651	4295.96
668.842	4373.78
669.033	4285.72
669.224	4218.13
669.416	4336.92
669.607	4201.75
669.798	4287.76
669.989	4273.43
670.18	4179.22
670.371	4125.97
670.563	4216.08
670.754	4087.06
670.945	3972.38
671.136	4070.68
671.327	4148.5
671.518	4042.01
671.709	4072.73
671.9	4074.78
672.091	3888.41
672.282	4033.82
672.473	3880.22
672.664	3962.14
672.855	3845.4
673.046	4085.01
673.237	3804.44
673.428	3894.55
673.619	3867.93
673.809	3863.83
674	3763.48
674.191	3847.45
674.382	3781.92
674.573	3743
674.764	3673.37
674.954	3837.21
675.145	3841.31
675.336	3708.19
675.527	3642.65
675.717	3869.98
675.908	3656.99
676.099	3656.99
676.289	3687.71
676.48	3765.53
676.671	3669.28
676.861	3663.13
677.052	3570.97
677.243	3626.27
677.433	3613.98
677.624	3616.03
677.814	3546.4
678.005	3491.1
678.195	3487.01
678.386	3577.12
678.576	3513.63
678.767	3487.01
678.957	3525.92
679.148	3437.86
679.338	3464.48
679.529	3394.85
679.719	3366.18
679.909	3415.33
680.1	3390.75
680.29	3501.34
680.481	3329.31
680.671	3382.56
680.861	3390.75
681.052	3302.69
681.242	3284.26
681.432	3304.74
681.622	3437.86
681.813	3325.22
682.003	3228.96
682.193	3398.95
682.383	3306.79
682.573	3300.64
682.764	3351.84
682.954	3360.03
683.144	3288.36
683.334	3231.01
683.524	3171.62
683.714	3249.44
683.904	3155.24
684.094	3321.12
684.284	3271.97
684.474	3347.75
684.664	3159.33
684.854	3196.2
685.044	3243.3
685.234	3155.24
685.424	3255.59
685.614	3222.82
685.804	3138.85
685.994	3101.99
686.184	3224.87
686.374	3237.16
686.564	3192.1
686.753	3235.11
686.943	3112.23
687.133	3149.09
687.323	3136.81
687.513	3048.74
687.702	3122.47
687.892	3132.71
688.082	3145
688.272	3101.99
688.461	3085.61
688.651	3083.56
688.841	3124.52
689.03	2995.5
689.22	3009.83
689.41	2995.5
689.599	2979.11
689.789	3071.27
689.979	3009.83
690.168	2995.5
690.358	2932.01
690.547	2889
690.737	3007.78
690.926	2997.54
691.116	2977.06
691.305	2952.49
691.495	2981.16
691.684	2878.76
691.874	2903.34
692.063	3020.07
692.252	3011.88
692.442	2946.34
692.631	2960.68
692.82	3032.36
693.01	3048.74
693.199	3034.41
693.388	2825.51
693.578	2995.5
693.767	2915.62
693.956	2921.77
694.146	2938.15
694.335	2907.43
694.524	2921.77
694.713	2882.86
694.902	2960.68
695.092	2805.03
695.281	2866.47
695.47	2845.99
695.659	2938.15
695.848	2872.62
696.037	2921.77
696.226	2866.47
696.415	2907.43
696.604	2796.84
696.793	2880.81
696.982	2942.25
697.171	2938.15
697.36	2796.84
697.549	2925.86
697.738	2841.9
697.927	2860.33
698.116	2985.26
698.305	2952.49
698.494	2805.03
698.683	2966.82
698.872	2909.48
699.061	2975.02
699.25	2809.13
699.438	2811.18
699.627	2866.47
699.816	3034.41
700.005	2833.71
700.193	2751.79
700.382	2745.64
700.571	2766.12
700.76	2739.5
700.948	2704.68
701.137	2753.84
701.326	2874.67
701.514	2768.17
701.703	2747.69
701.892	2813.23
702.08	2835.75
702.269	2747.69
702.457	2755.88
702.646	2850.09
702.834	2798.89
703.023	2704.68
703.212	2759.98
703.4	2673.96
703.589	2751.79
703.777	2792.75
703.965	2546.99
704.154	2749.74
704.342	2649.39
704.531	2762.03
704.719	2764.08
704.907	2768.17
705.096	2651.44
705.284	2710.83
705.472	2630.96
705.661	2719.02
705.849	2608.43
706.037	2630.96
706.226	2678.06
706.414	2733.36
706.602	2536.75
706.79	2657.58
706.979	2723.12
707.167	2579.76
707.355	2626.86
707.543	2559.28
707.731	2610.48
707.919	2493.74
708.107	2440.5
708.296	2563.37
708.484	2411.82
708.672	2612.53
708.86	2534.7
709.048	2479.41
709.236	2530.61
709.424	2567.47
709.612	2639.15
709.8	2536.75
709.988	2432.3
710.176	2467.12
710.364	2446.64
710.551	2415.92
710.739	2387.25
710.927	2460.98
711.115	2424.11
711.303	2465.07
711.491	2508.08
711.679	2432.3
711.866	2311.47
712.054	2424.11
712.242	2362.67
712.43	2344.24
712.617	2409.78
712.805	2229.56
712.993	2252.08
713.181	2235.7
713.368	2299.19
713.556	2354.48
713.744	2331.95
713.931	2334
714.119	2340.15
714.306	2282.8
714.494	2354.48
714.682	2231.6
714.869	2274.61
715.057	2280.75
715.244	2272.56
715.432	2299.19
715.619	2272.56
715.807	2225.46
715.994	2293.04
716.182	2149.68
716.369	2116.92
716.556	2213.17
716.744	2200.88
716.931	2170.16
717.119	2215.22
717.306	2153.78
717.493	2149.68
717.681	2108.73
717.868	2133.3
718.055	2141.49
718.242	2164.02
718.43	2053.43
718.617	2059.57
718.804	2043.19
718.991	2030.9
719.179	2110.77
719.366	2047.29
719.553	2028.85
719.74	1975.61
719.927	2026.81
720.114	2035
720.301	1918.26
720.488	2012.47
720.676	1975.61
720.863	1998.13
721.05	2010.42
721.237	1946.94
721.424	1918.26
721.611	1977.66
721.798	1928.5
721.985	1989.94
722.172	2045.24
722.358	1891.64
722.545	2075.96
722.732	1875.26
722.919	1871.16
723.106	1826.11
723.293	1908.02
723.48	1897.78
723.667	1905.98
723.853	1832.25
724.04	1928.5
724.227	1776.95
724.414	1846.59
724.6	1789.24
724.787	1789.24
724.974	1776.95
725.161	1897.78
725.347	1678.65
725.534	1815.87
725.72	1854.78
725.907	1760.57
726.094	1830.2
726.28	1766.71
726.467	1797.43
726.653	1830.2
726.84	1746.23
727.027	1750.33
727.213	1707.32
727.4	1750.33
727.586	1740.09
727.773	1756.47
727.959	1750.33
728.145	1797.43
728.332	1738.04
728.518	1625.4
728.705	1742.14
728.891	1770.81
729.077	1760.57
729.264	1670.46
729.45	1602.88
729.636	1719.61
729.823	1641.79
730.009	1695.04
730.195	1690.94
730.382	1637.69
730.568	1510.72
730.754	1613.12
730.94	1611.07
731.126	1625.4
731.313	1672.51
731.499	1457.47
731.685	1572.16
731.871	1617.21
732.057	1580.35
732.243	1606.97
732.429	1637.69
732.615	1600.83
732.801	1584.45
732.987	1539.39
733.173	1598.78
733.359	1557.82
733.545	1525.05
733.731	1512.77
733.917	1592.64
734.103	1502.53
734.289	1570.11
734.475	1539.39
734.661	1533.25
734.847	1457.47
735.033	1496.38
735.219	1514.81
735.404	1396.03
735.59	1502.53
735.776	1512.77
735.962	1580.35
736.148	1523.01
736.333	1553.73
736.519	1453.38
736.705	1447.23
736.89	1402.18
737.076	1463.61
737.262	1412.42
737.447	1449.28
737.633	1455.42
737.819	1477.95
738.004	1426.75
738.19	1400.13
738.375	1391.94
738.561	1404.22
738.747	1393.98
738.932	1441.09
739.118	1379.65
739.303	1418.56
739.489	1396.03
739.674	1371.46
739.859	1398.08
740.045	1359.17
740.23	1422.66
740.416	1314.11
740.601	1371.46
740.786	1334.59
740.972	1418.56
741.157	1383.74
741.342	1398.08
741.528	1428.8
741.713	1326.4
741.898	1396.03
742.084	1307.97
742.269	1326.4
742.454	1271.11
742.639	1267.01
742.824	1248.58
743.01	1277.25
743.195	1324.35
743.38	1285.44
743.565	1281.35
743.75	1371.46
743.935	1224
744.12	1316.16
744.305	1252.67
744.49	1209.67
744.675	1215.81
744.86	1140.04
745.045	1228.1
745.23	1246.53
745.415	1174.85
745.6	1215.81
745.785	1187.14
745.97	1226.05
746.155	1205.57
746.34	1166.66
746.525	1119.56
746.71	1133.89
746.895	1144.13
747.079	1174.85
747.264	1076.55
747.449	1066.31
747.634	1140.04
747.819	1054.02
748.003	1137.99
748.188	1203.52
748.373	1088.84
748.557	1092.93
748.742	1094.98
748.927	1051.97
749.111	963.91
749.296	1035.59
749.481	1078.6
749.665	1015.11
749.85	970.05
750.034	1072.45
750.219	1045.83
750.404	1142.08
750.588	1029.45
750.773	1031.49
750.957	955.72
751.141	1078.6
751.326	1004.87
751.51	978.25
751.695	943.43
751.879	898.38
752.064	1002.82
752.248	939.33
752.432	914.76
752.617	990.53
752.801	916.81
752.985	918.86
753.17	857.42
753.354	929.1
753.538	941.38
753.722	849.22
753.907	800.07
754.091	939.33
754.275	793.93
754.459	867.66
754.643	886.09
754.828	826.7
755.012	925
755.196	881.99
755.38	849.22
755.564	781.64
755.748	812.36
755.932	818.5
756.116	816.46
756.3	836.94
756.484	808.26
756.668	824.65
756.852	814.41
757.036	773.45
757.22	818.5
757.404	724.3
757.588	742.73
757.772	755.02
757.956	726.35
758.14	742.73
758.323	806.22
758.507	857.42
758.691	726.35
758.875	722.25
759.059	740.68
759.242	773.45
759.426	755.02
759.61	822.6
759.794	685.39
759.977	720.2
760.161	798.03
760.345	726.35
760.528	740.68
760.712	669
760.895	707.91
761.079	679.24
761.263	775.5
761.446	671.05
761.63	691.53
761.813	691.53
761.997	642.38
762.18	544.08
762.364	718.15
762.547	664.91
762.731	712.01
762.914	652.62
763.098	716.11
763.281	611.66
763.464	636.24
763.648	664.91
763.831	689.48
764.015	638.28
764.198	615.76
764.381	589.13
764.564	679.24
764.748	605.52
764.931	603.47
765.114	671.05
765.297	726.35
765.481	626
765.664	560.46
765.847	591.18
766.03	609.61
766.213	630.09
766.397	560.46
766.58	562.51
766.763	513.36
766.946	638.28
767.129	679.24
767.312	562.51
767.495	585.04
767.678	634.19
767.861	593.23
768.044	535.89
768.227	593.23
768.41	550.22
768.593	554.32
768.776	486.73
768.959	601.42
769.142	519.5
769.324	535.89
769.507	529.74
769.69	611.66
769.873	496.97
770.056	560.46
770.239	556.36
770.421	564.56
770.604	531.79
770.787	554.32
770.97	593.23
771.152	535.89
771.335	568.65
771.518	587.08
771.7	525.65
771.883	560.46
772.066	609.61
772.248	566.6
772.431	572.75
772.613	505.17
772.796	556.36
772.978	535.89
773.161	515.41
773.343	511.31
773.526	443.73
773.708	425.29
773.891	507.21
774.073	464.21
774.256	499.02
774.438	486.73
774.621	509.26
774.803	564.56
774.985	519.5
775.168	494.93
775.35	478.54
775.532	458.06
775.715	433.49
775.897	437.58
776.079	521.55
776.261	527.69
776.444	421.2
776.626	507.21
776.808	404.82
776.99	435.53
777.173	396.62
777.355	517.45
777.537	433.49
777.719	517.45
777.901	443.73
778.083	509.26
778.265	413.01
778.447	404.82
778.629	404.82
778.811	515.41
778.993	404.82
779.175	456.01
779.357	447.82
779.539	339.28
779.721	425.29
779.903	382.29
780.085	384.34
780.267	372.05
780.449	431.44
780.631	427.34
780.812	386.38
780.994	376.14
781.176	423.25
781.358	382.29
781.54	386.38
781.721	402.77
781.903	415.05
782.085	365.9
782.267	429.39
782.448	402.77
782.63	333.14
782.812	417.1
782.993	339.28
783.175	382.29
783.357	415.05
783.538	339.28
783.72	290.13
783.901	286.03
784.083	363.86
784.264	429.39
784.446	304.46
784.627	314.7
784.809	322.9
784.99	357.71
785.172	324.94
785.353	345.42
785.535	351.57
785.716	359.76
785.897	238.93
786.079	232.79
786.26	290.13
786.441	298.32
786.623	324.94
786.804	318.8
786.985	257.36
787.167	271.7
787.348	269.65
787.529	253.27
787.71	261.46
787.891	202.07
788.073	251.22
788.254	269.65
788.435	312.66
788.616	257.36
788.797	263.51
788.978	277.84
789.159	234.83
789.34	308.56
789.522	320.85
789.703	200.02
789.884	202.07
790.065	249.17
790.246	191.83
790.427	294.22
790.607	226.64
790.788	255.31
790.969	177.49
791.15	296.27
791.331	232.79
791.512	261.46
791.693	183.63
791.874	226.64
792.054	179.54
792.235	306.51
792.416	144.72
792.597	152.91
792.778	238.93
792.958	228.69
793.139	236.88
793.32	150.87
793.5	134.48
793.681	275.79
793.862	224.59
794.042	193.87
794.223	122.2
794.404	116.05
794.584	136.53
794.765	161.11
794.945	218.45
795.126	165.2
795.306	200.02
795.487	206.16
795.667	56.66
795.848	193.87
796.028	200.02
796.209	226.64
796.389	249.17
796.57	161.11
796.75	202.07
796.93	122.2
797.111	249.17
797.291	204.11
797.471	197.97
797.652	202.07
797.832	191.83
798.012	189.78
798.192	179.54
798.373	128.34
798.553	202.07
798.733	185.68
798.913	185.68
799.093	202.07
799.274	238.93
799.454	161.11
799.634	171.35
799.814	152.91
799.994	197.97
800.174	193.87
800.354	240.98
800.534	142.68
800.714	161.11
800.894	167.25
801.074	118.1
801.254	167.25
801.434	171.35
801.614	177.49
801.794	116.05
801.974	396.62
802.154	159.06
802.334	202.07
802.514	122.2
802.693	118.1
802.873	118.1
803.053	187.73
803.233	159.06
803.413	126.29
803.592	187.73
803.772	197.97
803.952	251.22
804.131	134.48
804.311	157.01
804.491	150.87
804.67	114
804.85	134.48
805.03	154.96
805.209	154.96
805.389	54.61
805.568	144.72
805.748	183.63
805.928	109.91
806.107	118.1
806.287	109.91
806.466	101.72
806.646	152.91
806.825	146.77
807.004	161.11
807.184	91.48
807.363	157.01
807.543	171.35
807.722	77.14
807.901	62.8
808.081	73.04
808.26	142.68
808.439	150.87
808.619	15.7
808.798	95.57
808.977	97.62
809.156	171.35
809.336	75.09
809.515	89.43
809.694	144.72
809.873	93.52
810.052	204.11
810.231	163.15
810.411	165.2
810.59	171.35
810.769	93.52
810.948	93.52
811.127	89.43
811.306	142.68
811.485	177.49
811.664	105.81
811.843	157.01
812.022	109.91
812.201	56.66
812.38	128.34
812.559	99.67
812.737	132.44
812.916	85.33
813.095	114
813.274	40.28
813.453	126.29
813.632	126.29
813.811	64.85
813.989	124.24
814.168	66.9
814.347	77.14
814.526	103.76
814.704	101.72
814.883	148.82
815.062	89.43
815.24	130.39
815.419	116.05
815.598	99.67
815.776	85.33
815.955	36.18
816.133	75.09
816.312	134.48
816.49	81.24
816.669	134.48
816.847	15.7
817.026	93.52
817.204	32.08
817.383	83.28
817.561	1.37
817.74	62.8
817.918	95.57
818.097	-2.73
818.275	109.91
818.453	101.72
818.632	81.24
818.81	77.14
818.988	34.13
819.167	60.76
819.345	38.23
819.523	118.1
819.701	85.33
819.879	54.61
820.058	19.8
820.236	109.91
820.414	87.38
820.592	111.96
820.77	79.19
820.948	152.91
821.127	111.96
821.305	50.52
821.483	36.18
821.661	87.38
821.839	101.72
822.017	142.68
822.195	38.23
822.373	124.24
822.551	46.42
822.729	60.76
822.907	21.84
823.085	71
823.262	101.72
823.44	58.71
823.618	38.23
823.796	64.85
823.974	79.19
824.152	68.95
824.329	-4.78
824.507	95.57
824.685	-17.07
824.863	75.09
825.04	95.57
825.218	124.24
825.396	77.14
825.574	93.52
825.751	36.18
825.929	56.66
826.107	1.37
826.284	95.57
826.462	93.52
826.639	27.99
826.817	91.48
826.994	60.76
827.172	58.71
827.349	11.61
827.527	54.61
827.704	93.52
827.882	30.04
828.059	73.04
828.237	118.1
828.414	89.43
828.591	13.65
828.769	62.8
828.946	19.8
829.124	30.04
829.301	71
829.478	19.8
829.655	-17.07
829.833	79.19
830.01	32.08
830.187	124.24
830.364	21.84
830.542	56.66
830.719	46.42
830.896	32.08
831.073	-2.73
831.25	89.43
831.427	101.72
831.604	111.96
831.782	21.84
831.959	19.8
832.136	30.04
832.313	48.47
832.49	107.86
832.667	-2.73
832.844	62.8
833.021	-12.97
833.198	97.62
833.374	77.14
833.551	60.76
833.728	48.47
833.905	87.38
834.082	46.42
834.259	77.14
834.436	64.85
834.612	-10.92
834.789	58.71
834.966	13.65
835.143	95.57
835.319	64.85
835.496	21.84
835.673	32.08
835.85	97.62
836.026	9.56
836.203	-10.92
836.38	75.09
836.556	23.89
836.733	-21.16
836.909	87.38
837.086	-37.55
837.262	-19.11
837.439	52.56
837.616	5.46
837.792	75.09
837.968	79.19
838.145	77.14
838.321	77.14
838.498	-51.88
838.674	79.19
838.851	-25.26
839.027	44.37
839.203	132.44
839.38	52.56
839.556	56.66
839.732	79.19
839.909	46.42
840.085	87.38
840.261	99.67
840.437	54.61
840.614	11.61
840.79	44.37
840.966	23.89
841.142	87.38
841.318	11.61
841.494	23.89
841.671	23.89
841.847	7.51
842.023	36.18
842.199	21.84
842.375	21.84
842.551	-8.87
842.727	81.24
842.903	68.95
843.079	21.84
843.255	105.81
843.431	83.28
843.607	77.14
843.783	-60.07
843.959	71
844.134	-51.88
844.31	34.13
844.486	101.72
844.662	48.47
844.838	44.37
845.013	7.51
845.189	85.33
845.365	66.9
845.541	23.89
845.716	32.08
845.892	54.61
846.068	9.56
846.244	-37.55
846.419	46.42
846.595	-41.64
846.77	-72.36
846.946	-2.73
847.122	21.84
847.297	42.32
847.473	54.61
847.648	-66.22
847.824	-0.68
847.999	-43.69
848.175	68.95
848.35	75.09
848.526	66.9
848.701	64.85
848.876	120.15
849.052	36.18
849.227	64.85
849.403	7.51
849.578	-29.35
849.753	25.94
849.929	91.48
850.104	-4.78
850.279	58.71
850.454	40.28
850.63	52.56
850.805	64.85
850.98	60.76
851.155	-10.92
851.33	48.47
851.505	30.04
851.681	5.46
851.856	21.84
852.031	-27.31
852.206	-2.73
852.381	-45.74
852.556	30.04
852.731	77.14
852.906	36.18
853.081	-37.55
853.256	85.33
853.431	30.04
853.606	-10.92
853.781	19.8
853.956	-17.07
854.131	11.61
854.305	-29.35
854.48	23.89
854.655	-35.5
854.83	11.61
855.005	27.99
855.18	11.61
855.354	34.13
855.529	60.76
855.704	-25.26
855.879	19.8
856.053	-41.64
856.228	66.9
856.403	-49.83
856.577	-12.97
856.752	23.89
856.926	34.13
857.101	-60.07
857.276	25.94
857.45	23.89
857.625	36.18
857.799	15.7
857.974	56.66
858.148	11.61
858.323	54.61
858.497	-23.21
858.672	-21.16
858.846	17.75
859.02	-12.97
859.195	-39.59
859.369	7.51
859.543	32.08
859.718	1.37
859.892	87.38
860.066	11.61
860.241	-37.55
860.415	13.65
860.589	36.18
860.763	-8.87
860.938	62.8
861.112	9.56
861.286	30.04
861.46	-2.73
861.634	-39.59
861.808	-12.97
861.982	-35.5
862.157	-35.5
862.331	21.84
862.505	30.04
862.679	11.61
862.853	38.23
863.027	-4.78
863.201	85.33
863.375	3.41
863.549	11.61
863.722	-27.31
863.896	-12.97
864.07	-17.07
864.244	-4.78
864.418	-51.88
864.592	116.05
864.766	38.23
864.939	83.28
865.113	-15.02
865.287	9.56
865.461	-37.55
865.634	11.61
865.808	-0.68
865.982	19.8
866.156	-8.87
866.329	46.42
866.503	27.99
866.676	-0.68
866.85	-10.92
867.024	-23.21
867.197	-2.73
867.371	-15.02
867.544	40.28
867.718	-66.22
867.891	44.37
868.065	19.8
868.238	-23.21
868.412	38.23
868.585	46.42
868.759	5.46
868.932	38.23
869.105	-12.97
869.279	17.75
869.452	-43.69
869.625	-51.88
869.799	60.76
869.972	-53.93
870.145	44.37
870.319	-8.87
870.492	-17.07
870.665	32.08
870.838	-2.73
871.011	-2.73
871.185	64.85
871.358	-10.92
871.531	52.56
871.704	17.75
871.877	-12.97
872.05	-55.98
872.223	-4.78
872.396	-15.02
872.569	30.04
872.742	118.1
872.915	-10.92
873.088	-19.11
873.261	-0.68
873.434	3.41
873.607	11.61
873.78	77.14
873.953	-39.59
874.126	-25.26
874.299	52.56
874.471	-37.55
874.644	15.7
874.817	44.37
874.99	66.9
875.163	52.56
875.335	13.65
875.508	-2.73
875.681	19.8
875.853	87.38
876.026	32.08
876.199	32.08
876.371	-29.35
876.544	-8.87
876.717	60.76
876.889	52.56
877.062	48.47
877.234	46.42
877.407	60.76
877.579	-19.11
877.752	50.52
877.924	-33.45
878.097	56.66
878.269	50.52
878.442	54.61
878.614	30.04
878.786	23.89
878.959	19.8
879.131	30.04
879.303	-21.16
879.476	101.72
879.648	-21.16
879.82	19.8
879.993	-31.4
880.165	46.42
880.337	-17.07
880.509	-35.5
880.681	13.65
880.854	-72.36
881.026	5.46
881.198	77.14
881.37	66.9
881.542	-12.97
881.714	46.42
881.886	-49.83
882.058	-58.03
882.23	-0.68
882.402	52.56
882.574	42.32
882.746	40.28
882.918	32.08
883.09	-15.02
883.262	89.43
883.434	-51.88
883.606	-27.31
883.778	3.41
883.95	13.65
884.122	15.7
884.293	62.8
884.465	-25.26
884.637	52.56
884.809	-47.79
884.98	23.89
885.152	5.46
885.324	44.37
885.496	13.65
885.667	42.32
885.839	-4.78
886.011	42.32
886.182	7.51
886.354	95.57
886.525	-29.35
886.697	19.8
886.869	17.75
887.04	19.8
887.212	44.37
887.383	23.89
887.555	36.18
887.726	-4.78
887.897	15.7
888.069	62.8
888.24	-2.73
888.412	-17.07
888.583	34.13
888.754	5.46
888.926	38.23
889.097	42.32
889.268	25.94
889.44	71
889.611	11.61
889.782	-12.97
889.953	-27.31
890.125	13.65
890.296	-35.5
890.467	-94.89
890.638	-47.79
890.809	21.84
890.98	-2.73
891.151	-19.11
891.323	44.37
891.494	11.61
891.665	-4.78
891.836	-47.79
892.007	60.76
892.178	-17.07
892.349	36.18
892.52	27.99
892.691	-17.07
892.862	7.51
893.032	3.41
893.203	23.89
893.374	-66.22
893.545	52.56
893.716	32.08
893.887	17.75
894.057	-41.64
894.228	-10.92
894.399	-2.73
894.57	40.28
894.74	7.51
894.911	3.41
895.082	-68.27
895.253	27.99
895.423	-10.92
895.594	11.61
895.764	38.23
895.935	-17.07
896.106	44.37
896.276	-49.83
896.447	-29.35
896.617	32.08
896.788	-2.73
896.958	-4.78
897.129	-6.83
897.299	25.94
897.47	17.75
897.64	68.95
897.81	15.7
897.981	5.46
898.151	64.85
898.322	-2.73
898.492	-2.73
898.662	11.61
898.832	-17.07
899.003	-31.4
899.173	-68.27
899.343	23.89
899.513	-33.45
