Data from USB4F104151__265__14-01-58-681.txt Node

Date: Thu Mar 13 14:01:58 EDT 2025
User: louis
Spectrometer: USB4F10415
Trigger mode: 4
Integration Time (sec): 1.000000E-2
Scans to average: 1
Electric dark correction enabled: true
Nonlinearity correction enabled: false
Boxcar width: 0
XAxis mode: Wavelengths
Number of Pixels in Spectrum: 3648
>>>>>Begin Spectral Data<<<<<
178.204	-54.44
178.424	-54.44
178.644	-54.44
178.864	-46.25
179.084	-52.39
179.304	-25.77
179.524	19.29
179.744	52.05
179.964	27.48
180.184	-29.87
180.404	29.52
180.624	-29.87
180.844	29.52
181.064	-7.34
181.283	-46.25
181.503	-29.87
181.723	11.09
181.943	13.14
182.163	93.01
182.383	50
182.602	27.48
182.822	84.82
183.042	21.33
183.262	-21.67
183.482	-21.67
183.701	99.16
183.921	52.05
184.141	0.85
184.361	52.05
184.58	52.05
184.8	13.14
185.02	25.43
185.239	39.76
185.459	-33.96
185.679	11.09
185.898	76.63
186.118	58.2
186.338	62.29
186.557	7
186.777	45.91
186.997	-7.34
187.216	-52.39
187.436	19.29
187.655	47.96
187.875	7
188.095	43.86
188.314	19.29
188.534	-21.67
188.753	78.68
188.973	39.76
189.192	103.25
189.412	66.39
189.631	72.53
189.851	-5.29
190.07	41.81
190.29	-15.53
190.509	50
190.729	82.77
190.948	41.81
191.168	129.88
191.387	21.33
191.607	13.14
191.826	43.86
192.045	-11.43
192.265	111.44
192.484	76.63
192.704	56.15
192.923	-9.39
193.142	41.81
193.362	52.05
193.581	80.72
193.8	76.63
194.02	41.81
194.239	50
194.458	21.33
194.678	54.1
194.897	-5.29
195.116	68.44
195.335	84.82
195.555	47.96
195.774	37.72
195.993	21.33
196.212	74.58
196.432	4.95
196.651	39.76
196.87	70.48
197.089	37.72
197.308	-3.24
197.528	35.67
197.747	-11.43
197.966	-17.58
198.185	93.01
198.404	64.34
198.623	60.24
198.842	25.43
199.062	47.96
199.281	47.96
199.5	43.86
199.719	15.19
199.938	-7.34
200.157	25.43
200.376	23.38
200.595	-42.15
200.814	-5.29
201.033	82.77
201.252	21.33
201.471	33.62
201.69	25.43
201.909	58.2
202.128	29.52
202.347	74.58
202.566	21.33
202.785	-95.4
203.004	45.91
203.223	109.4
203.442	19.29
203.661	31.57
203.879	52.05
204.098	-7.34
204.317	45.91
204.536	117.59
204.755	-5.29
204.974	21.33
205.193	37.72
205.411	39.76
205.63	109.4
205.849	90.96
206.068	29.52
206.287	-11.43
206.505	23.38
206.724	43.86
206.943	58.2
207.162	66.39
207.381	23.38
207.599	52.05
207.818	60.24
208.037	-21.67
208.255	78.68
208.474	23.38
208.693	27.48
208.911	88.92
209.13	64.34
209.349	70.48
209.567	37.72
209.786	35.67
210.005	84.82
210.223	82.77
210.442	47.96
210.661	-7.34
210.879	-17.58
211.098	35.67
211.316	60.24
211.535	58.2
211.753	-5.29
211.972	-19.63
212.191	2.9
212.409	125.78
212.628	27.48
212.846	68.44
213.065	21.33
213.283	76.63
213.502	-3.24
213.72	78.68
213.938	74.58
214.157	68.44
214.375	62.29
214.594	37.72
214.812	19.29
215.031	37.72
215.249	-19.63
215.467	19.29
215.686	-1.19
215.904	-5.29
216.122	19.29
216.341	82.77
216.559	58.2
216.778	29.52
216.996	15.19
217.214	-25.77
217.432	17.24
217.651	-25.77
217.869	-21.67
218.087	93.01
218.306	23.38
218.524	19.29
218.742	31.57
218.96	43.86
219.179	19.29
219.397	21.33
219.615	35.67
219.833	99.16
220.051	45.91
220.27	86.87
220.488	2.9
220.706	35.67
220.924	33.62
221.142	39.76
221.36	21.33
221.578	-29.87
221.796	41.81
222.015	52.05
222.233	25.43
222.451	52.05
222.669	-42.15
222.887	84.82
223.105	-27.82
223.323	35.67
223.541	-29.87
223.759	15.19
223.977	21.33
224.195	56.15
224.413	93.01
224.631	-42.15
224.849	76.63
225.067	-19.63
225.285	2.9
225.503	23.38
225.721	-50.35
225.939	74.58
226.157	35.67
226.375	64.34
226.592	2.9
226.81	4.95
227.028	50
227.246	39.76
227.464	-11.43
227.682	-38.06
227.9	4.95
228.117	76.63
228.335	45.91
228.553	2.9
228.771	2.9
228.989	-27.82
229.206	103.25
229.424	68.44
229.642	-7.34
229.86	95.06
230.077	-25.77
230.295	-33.96
230.513	15.19
230.731	21.33
230.948	56.15
231.166	-11.43
231.384	-33.96
231.601	66.39
231.819	-5.29
232.037	58.2
232.254	-1.19
232.472	29.52
232.689	78.68
232.907	33.62
233.125	56.15
233.342	101.2
233.56	43.86
233.777	86.87
233.995	-13.48
234.213	4.95
234.43	11.09
234.648	74.58
234.865	101.2
235.083	80.72
235.3	-7.34
235.518	-21.67
235.735	113.49
235.953	86.87
236.17	41.81
236.388	21.33
236.605	58.2
236.822	103.25
237.04	93.01
237.257	-13.48
237.475	21.33
237.692	4.95
237.909	74.58
238.127	4.95
238.344	78.68
238.562	56.15
238.779	4.95
238.996	-1.19
239.214	97.11
239.431	84.82
239.648	33.62
239.865	56.15
240.083	39.76
240.3	76.63
240.517	68.44
240.735	103.25
240.952	72.53
241.169	43.86
241.386	-1.19
241.603	11.09
241.821	-38.06
242.038	-46.25
242.255	56.15
242.472	80.72
242.689	39.76
242.907	21.33
243.124	7
243.341	45.91
243.558	105.3
243.775	37.72
243.992	-5.29
244.209	60.24
244.426	19.29
244.643	107.35
244.86	74.58
245.078	21.33
245.295	72.53
245.512	72.53
245.729	9.05
245.946	101.2
246.163	33.62
246.38	54.1
246.597	35.67
246.814	23.38
247.031	-46.25
247.248	54.1
247.464	-5.29
247.681	19.29
247.898	64.34
248.115	78.68
248.332	11.09
248.549	15.19
248.766	43.86
248.983	54.1
249.2	21.33
249.417	47.96
249.633	-13.48
249.85	72.53
250.067	29.52
250.284	127.83
250.501	-1.19
250.717	101.2
250.934	4.95
251.151	-9.39
251.368	27.48
251.585	23.38
251.801	150.36
252.018	-66.73
252.235	70.48
252.451	2.9
252.668	-52.39
252.885	27.48
253.102	33.62
253.318	56.15
253.535	-9.39
253.752	72.53
253.968	119.64
254.185	15.19
254.401	17.24
254.618	31.57
254.835	54.1
255.051	-11.43
255.268	62.29
255.484	31.57
255.701	50
255.917	80.72
256.134	-36.01
256.351	19.29
256.567	-44.2
256.784	43.86
257	-29.87
257.217	43.86
257.433	90.96
257.65	0.85
257.866	31.57
258.082	84.82
258.299	31.57
258.515	99.16
258.732	99.16
258.948	27.48
259.165	144.21
259.381	39.76
259.597	-7.34
259.814	41.81
260.03	7
260.246	60.24
260.463	9.05
260.679	33.62
260.895	11.09
261.112	72.53
261.328	52.05
261.544	21.33
261.761	25.43
261.977	15.19
262.193	43.86
262.409	119.64
262.626	29.52
262.842	70.48
263.058	-9.39
263.274	70.48
263.49	43.86
263.707	68.44
263.923	76.63
264.139	-19.63
264.355	35.67
264.571	-9.39
264.787	0.85
265.004	19.29
265.22	50
265.436	11.09
265.652	68.44
265.868	76.63
266.084	2.9
266.3	54.1
266.516	-9.39
266.732	136.02
266.948	43.86
267.164	52.05
267.38	58.2
267.596	11.09
267.812	47.96
268.028	140.12
268.244	37.72
268.46	70.48
268.676	95.06
268.892	2.9
269.108	27.48
269.324	35.67
269.54	15.19
269.756	88.92
269.972	41.81
270.188	-23.72
270.403	76.63
270.619	88.92
270.835	76.63
271.051	4.95
271.267	86.87
271.483	72.53
271.698	70.48
271.914	101.2
272.13	47.96
272.346	88.92
272.562	58.2
272.777	43.86
272.993	62.29
273.209	84.82
273.425	93.01
273.64	0.85
273.856	56.15
274.072	140.12
274.287	43.86
274.503	78.68
274.719	64.34
274.934	70.48
275.15	-7.34
275.366	58.2
275.581	45.91
275.797	9.05
276.012	13.14
276.228	95.06
276.444	78.68
276.659	21.33
276.875	35.67
277.09	21.33
277.306	7
277.521	107.35
277.737	33.62
277.952	43.86
278.168	95.06
278.383	11.09
278.599	-11.43
278.814	43.86
279.03	-5.29
279.245	-21.67
279.461	58.2
279.676	56.15
279.892	41.81
280.107	-9.39
280.322	27.48
280.538	41.81
280.753	-23.72
280.969	52.05
281.184	19.29
281.399	129.88
281.615	19.29
281.83	97.11
282.045	-13.48
282.26	93.01
282.476	-15.53
282.691	62.29
282.906	84.82
283.122	15.19
283.337	2.9
283.552	39.76
283.767	7
283.983	21.33
284.198	82.77
284.413	47.96
284.628	-1.19
284.843	70.48
285.058	37.72
285.274	45.91
285.489	-13.48
285.704	68.44
285.919	113.49
286.134	-3.24
286.349	52.05
286.564	56.15
286.779	37.72
286.995	58.2
287.21	21.33
287.425	41.81
287.64	9.05
287.855	0.85
288.07	-31.91
288.285	45.91
288.5	4.95
288.715	13.14
288.93	-40.11
289.145	56.15
289.36	-7.34
289.575	-13.48
289.79	41.81
290.004	86.87
290.219	23.38
290.434	107.35
290.649	13.14
290.864	-52.39
291.079	37.72
291.294	2.9
291.509	68.44
291.724	56.15
291.938	68.44
292.153	-17.58
292.368	52.05
292.583	37.72
292.798	27.48
293.012	39.76
293.227	66.39
293.442	33.62
293.657	64.34
293.871	84.82
294.086	50
294.301	50
294.516	60.24
294.73	21.33
294.945	17.24
295.16	68.44
295.374	62.29
295.589	9.05
295.804	43.86
296.018	101.2
296.233	23.38
296.447	66.39
296.662	90.96
296.877	19.29
297.091	95.06
297.306	4.95
297.52	15.19
297.735	93.01
297.949	43.86
298.164	21.33
298.378	-29.87
298.593	101.2
298.807	80.72
299.022	13.14
299.236	78.68
299.451	-13.48
299.665	21.33
299.88	84.82
300.094	37.72
300.309	97.11
300.523	54.1
300.737	76.63
300.952	35.67
301.166	62.29
301.381	37.72
301.595	23.38
301.809	45.91
302.024	52.05
302.238	35.67
302.452	33.62
302.667	29.52
302.881	19.29
303.095	-3.24
303.309	101.2
303.524	15.19
303.738	2.9
303.952	-29.87
304.166	43.86
304.381	80.72
304.595	39.76
304.809	54.1
305.023	31.57
305.237	62.29
305.452	-64.68
305.666	93.01
305.88	62.29
306.094	115.54
306.308	97.11
306.522	7
306.736	62.29
306.95	47.96
307.164	27.48
307.379	54.1
307.593	2.9
307.807	13.14
308.021	82.77
308.235	88.92
308.449	45.91
308.663	86.87
308.877	66.39
309.091	21.33
309.305	2.9
309.519	21.33
309.733	93.01
309.947	41.81
310.161	62.29
310.374	45.91
310.588	37.72
310.802	15.19
311.016	13.14
311.23	109.4
311.444	78.68
311.658	68.44
311.872	4.95
312.085	103.25
312.299	43.86
312.513	62.29
312.727	54.1
312.941	35.67
313.154	19.29
313.368	29.52
313.582	84.82
313.796	86.87
314.009	23.38
314.223	52.05
314.437	23.38
314.651	60.24
314.864	33.62
315.078	-15.53
315.292	-27.82
315.505	56.15
315.719	111.44
315.933	37.72
316.146	29.52
316.36	31.57
316.573	74.58
316.787	45.91
317.001	47.96
317.214	72.53
317.428	84.82
317.641	-5.29
317.855	-23.72
318.068	11.09
318.282	95.06
318.495	70.48
318.709	74.58
318.922	103.25
319.136	107.35
319.349	105.3
319.563	47.96
319.776	64.34
319.99	-36.01
320.203	52.05
320.417	21.33
320.63	21.33
320.843	60.24
321.057	127.83
321.27	62.29
321.483	109.4
321.697	54.1
321.91	68.44
322.124	52.05
322.337	19.29
322.55	45.91
322.763	21.33
322.977	35.67
323.19	35.67
323.403	70.48
323.617	2.9
323.83	45.91
324.043	82.77
324.256	58.2
324.469	101.2
324.683	37.72
324.896	72.53
325.109	52.05
325.322	13.14
325.535	23.38
325.748	45.91
325.962	115.54
326.175	72.53
326.388	66.39
326.601	154.45
326.814	142.16
327.027	27.48
327.24	39.76
327.453	25.43
327.666	31.57
327.879	80.72
328.092	97.11
328.305	43.86
328.518	62.29
328.731	52.05
328.944	45.91
329.157	58.2
329.37	60.24
329.583	0.85
329.796	101.2
330.009	11.09
330.222	148.31
330.435	41.81
330.648	7
330.861	74.58
331.073	33.62
331.286	31.57
331.499	54.1
331.712	19.29
331.925	7
332.138	13.14
332.35	66.39
332.563	29.52
332.776	31.57
332.989	11.09
333.202	-3.24
333.414	21.33
333.627	109.4
333.84	58.2
334.053	25.43
334.265	47.96
334.478	2.9
334.691	47.96
334.903	64.34
335.116	37.72
335.329	66.39
335.541	-11.43
335.754	50
335.966	76.63
336.179	47.96
336.392	68.44
336.604	93.01
336.817	72.53
337.029	35.67
337.242	58.2
337.454	-29.87
337.667	11.09
337.88	21.33
338.092	86.87
338.305	72.53
338.517	21.33
338.729	7
338.942	121.68
339.154	31.57
339.367	68.44
339.579	-7.34
339.792	84.82
340.004	88.92
340.217	2.9
340.429	21.33
340.641	-13.48
340.854	43.86
341.066	-1.19
341.278	-13.48
341.491	103.25
341.703	64.34
341.915	4.95
342.128	64.34
342.34	11.09
342.552	31.57
342.764	29.52
342.977	109.4
343.189	95.06
343.401	37.72
343.613	50
343.826	76.63
344.038	-5.29
344.25	56.15
344.462	-23.72
344.674	50
344.886	58.2
345.099	21.33
345.311	39.76
345.523	60.24
345.735	93.01
345.947	11.09
346.159	19.29
346.371	54.1
346.583	7
346.795	66.39
347.007	7
347.219	11.09
347.431	-13.48
347.643	33.62
347.855	2.9
348.067	70.48
348.279	37.72
348.491	60.24
348.703	101.2
348.915	25.43
349.127	-17.58
349.339	160.59
349.551	50
349.763	101.2
349.975	-1.19
350.187	-23.72
350.399	146.26
350.61	86.87
350.822	-33.96
351.034	136.02
351.246	62.29
351.458	66.39
351.669	31.57
351.881	146.26
352.093	41.81
352.305	45.91
352.517	19.29
352.728	-29.87
352.94	68.44
353.152	52.05
353.363	27.48
353.575	119.64
353.787	29.52
353.999	43.86
354.21	88.92
354.422	50
354.633	-19.63
354.845	-44.2
355.057	-9.39
355.268	45.91
355.48	90.96
355.692	84.82
355.903	0.85
356.115	37.72
356.326	66.39
356.538	62.29
356.749	88.92
356.961	60.24
357.172	-5.29
357.384	9.05
357.595	23.38
357.807	13.14
358.018	41.81
358.23	70.48
358.441	23.38
358.653	86.87
358.864	54.1
359.075	84.82
359.287	60.24
359.498	56.15
359.709	80.72
359.921	62.29
360.132	70.48
360.344	60.24
360.555	133.97
360.766	86.87
360.977	21.33
361.189	93.01
361.4	56.15
361.611	52.05
361.823	43.86
362.034	33.62
362.245	17.24
362.456	80.72
362.667	62.29
362.879	64.34
363.09	19.29
363.301	80.72
363.512	15.19
363.723	62.29
363.935	41.81
364.146	101.2
364.357	105.3
364.568	136.02
364.779	86.87
364.99	47.96
365.201	93.01
365.412	33.62
365.623	21.33
365.834	37.72
366.045	21.33
366.256	117.59
366.467	13.14
366.678	31.57
366.889	39.76
367.1	86.87
367.311	60.24
367.522	-5.29
367.733	146.26
367.944	70.48
368.155	60.24
368.366	84.82
368.577	23.38
368.788	93.01
368.999	37.72
369.209	29.52
369.42	33.62
369.631	70.48
369.842	60.24
370.053	84.82
370.264	78.68
370.474	23.38
370.685	19.29
370.896	47.96
371.107	78.68
371.317	58.2
371.528	74.58
371.739	19.29
371.95	45.91
372.16	47.96
372.371	4.95
372.582	52.05
372.792	23.38
373.003	9.05
373.214	60.24
373.424	43.86
373.635	54.1
373.846	84.82
374.056	119.64
374.267	-13.48
374.477	127.83
374.688	103.25
374.898	117.59
375.109	76.63
375.319	72.53
375.53	105.3
375.74	54.1
375.951	62.29
376.161	52.05
376.372	35.67
376.582	56.15
376.793	41.81
377.003	-7.34
377.214	105.3
377.424	29.52
377.635	78.68
377.845	15.19
378.055	109.4
378.266	35.67
378.476	37.72
378.686	45.91
378.897	72.53
379.107	35.67
379.317	52.05
379.528	84.82
379.738	23.38
379.948	97.11
380.158	76.63
380.369	72.53
380.579	76.63
380.789	93.01
380.999	101.2
381.21	56.15
381.42	76.63
381.63	-33.96
381.84	136.02
382.05	52.05
382.261	193.36
382.471	72.53
382.681	35.67
382.891	129.88
383.101	13.14
383.311	117.59
383.521	45.91
383.731	4.95
383.941	76.63
384.151	86.87
384.361	62.29
384.571	56.15
384.781	107.35
384.991	39.76
385.201	60.24
385.411	52.05
385.621	133.97
385.831	68.44
386.041	90.96
386.251	4.95
386.461	150.36
386.671	-17.58
386.881	-5.29
387.091	68.44
387.301	72.53
387.511	50
387.72	117.59
387.93	93.01
388.14	70.48
388.35	-36.01
388.56	117.59
388.769	115.54
388.979	35.67
389.189	62.29
389.399	64.34
389.609	39.76
389.818	62.29
390.028	13.14
390.238	29.52
390.447	37.72
390.657	60.24
390.867	68.44
391.076	93.01
391.286	60.24
391.496	52.05
391.705	33.62
391.915	119.64
392.125	-38.06
392.334	97.11
392.544	76.63
392.753	31.57
392.963	117.59
393.172	60.24
393.382	31.57
393.591	54.1
393.801	78.68
394.01	119.64
394.22	84.82
394.429	150.36
394.639	29.52
394.848	111.44
395.058	101.2
395.267	119.64
395.477	117.59
395.686	103.25
395.895	109.4
396.105	86.87
396.314	74.58
396.524	60.24
396.733	60.24
396.942	97.11
397.152	68.44
397.361	93.01
397.57	52.05
397.78	35.67
397.989	70.48
398.198	109.4
398.407	105.3
398.617	103.25
398.826	93.01
399.035	133.97
399.244	74.58
399.453	66.39
399.663	80.72
399.872	90.96
400.081	82.77
400.29	129.88
400.499	60.24
400.708	68.44
400.917	86.87
401.127	52.05
401.336	158.55
401.545	103.25
401.754	105.3
401.963	109.4
402.172	84.82
402.381	129.88
402.59	99.16
402.799	156.5
403.008	103.25
403.217	84.82
403.426	127.83
403.635	93.01
403.844	113.49
404.053	228.18
404.262	60.24
404.471	138.07
404.68	129.88
404.888	224.08
405.097	99.16
405.306	183.12
405.515	107.35
405.724	230.23
405.933	150.36
406.142	189.27
406.35	224.08
406.559	205.65
406.768	209.75
406.977	138.07
407.185	232.27
407.394	224.08
407.603	119.64
407.812	203.6
408.02	232.27
408.229	205.65
408.438	240.47
408.646	201.55
408.855	248.66
409.064	195.41
409.272	209.75
409.481	265.04
409.69	267.09
409.898	275.28
410.107	357.2
410.315	310.1
410.524	338.77
410.733	340.82
410.941	365.39
411.15	334.67
411.358	379.73
411.567	359.25
411.775	351.06
411.984	402.26
412.192	361.3
412.401	400.21
412.609	383.82
412.818	396.11
413.026	437.07
413.234	490.32
413.443	371.54
413.651	494.41
413.86	475.98
414.068	564.04
414.276	506.7
414.485	580.43
414.693	547.66
414.901	600.91
415.11	621.39
415.318	633.68
415.526	555.85
415.734	660.3
415.943	674.64
416.151	734.03
416.359	703.31
416.567	752.46
416.776	785.23
416.984	764.75
417.192	779.08
417.4	904.01
417.608	887.62
417.817	938.82
418.025	1018.69
418.233	1090.37
418.441	879.43
418.649	1010.5
418.857	1063.75
419.065	1069.89
419.273	1028.93
419.481	1157.96
419.689	1250.11
419.897	1198.92
420.105	1276.74
420.313	1284.93
420.521	1297.22
420.729	1336.13
420.937	1348.42
421.145	1530.69
421.353	1471.29
421.561	1624.89
421.769	1708.86
421.977	1813.31
422.185	1717.05
422.393	1880.89
422.601	1876.79
422.809	2007.86
423.017	1999.67
423.224	2059.06
423.432	2091.83
423.64	2161.46
423.848	2394.93
424.056	2282.29
424.263	2335.54
424.471	2405.17
424.679	2435.89
424.887	2751.28
425.094	2663.21
425.302	2706.22
425.51	2747.18
425.718	2943.78
425.925	2915.11
426.133	3001.13
426.341	3107.62
426.548	3353.38
426.756	3226.4
426.964	3332.9
427.171	3570.46
427.379	3611.42
427.586	3732.25
427.794	3777.31
428.001	4016.92
428.209	4258.58
428.417	4098.84
428.624	4332.31
428.832	4524.82
429.039	4336.4
429.247	4412.18
429.454	4803.34
429.662	5057.29
429.869	4717.33
430.076	5194.5
430.284	4948.75
430.491	5106.44
430.699	5272.32
430.906	5405.44
431.114	5481.22
431.321	5708.54
431.528	5903.1
431.736	6208.25
431.943	6380.28
432.15	6327.03
432.358	6411
432.565	6707.95
432.772	6945.52
432.979	7080.68
433.187	7113.45
433.394	7301.86
433.601	7748.32
433.808	7662.3
434.016	7613.15
434.223	7916.25
434.43	8532.69
434.637	8432.34
434.844	8786.64
435.052	8950.48
435.259	8817.36
435.466	8987.34
435.673	8874.7
435.88	9409.22
436.087	10123.96
436.294	10070.72
436.501	9611.97
436.708	10013.37
436.915	10422.97
437.122	10918.57
437.329	10656.43
437.537	11082.41
437.743	11356.84
437.95	11170.47
438.157	11729.57
438.364	12180.12
438.571	12108.44
438.778	12264.09
438.985	13308.55
439.192	12774.03
439.399	13179.53
439.606	12964.5
439.813	13712
440.02	14381.69
440.227	14103.17
440.433	13992.58
440.64	14369.4
440.847	14183.04
441.054	14860.91
441.261	15667.81
441.467	15221.36
441.674	16018.02
441.881	16636.5
442.088	16368.22
442.294	16284.25
442.501	16814.68
442.708	17099.34
442.914	17836.61
443.121	18360.89
443.328	17859.14
443.534	19038.77
443.741	18758.2
443.948	18352.7
444.154	19880.49
444.361	19763.75
444.568	19870.25
444.774	19769.9
444.981	20023.84
445.187	20759.06
445.394	21410.32
445.6	20996.63
445.807	23237.11
446.013	22163.97
446.22	23005.69
446.426	23630.32
446.633	23706.09
446.839	24556
447.046	23314.93
447.252	25018.84
447.459	24752.6
447.665	24527.33
447.871	26057.16
448.078	26728.89
448.284	25758.16
448.491	26413.51
448.697	26964.41
448.903	27726.25
449.11	27564.46
449.316	27453.87
449.522	28148.14
449.728	28473.76
449.935	28823.97
450.141	28821.92
450.347	29456.79
450.553	28586.4
450.76	28973.47
450.966	29845.9
451.172	29487.51
451.378	30339.46
451.584	29174.17
451.791	30478.72
451.997	30220.68
452.203	30683.52
452.409	30468.48
452.615	30509.44
452.821	29458.84
453.027	28942.75
453.233	30296.46
453.44	29340.05
453.646	29747.6
453.852	29925.77
454.058	30224.78
454.264	29227.42
454.47	30017.93
454.676	29055.39
454.882	30062.99
455.088	27625.9
455.294	28045.74
455.5	28314.02
455.705	28610.98
455.911	27580.85
456.117	26538.43
456.323	26702.27
456.529	25199.06
456.735	26419.65
456.941	25715.15
457.147	25092.57
457.352	24334.82
457.558	24166.88
457.764	23884.26
457.97	23691.76
458.176	23120.37
458.381	23239.15
458.587	22512.13
458.793	22172.16
458.999	21277.2
459.204	22440.45
459.41	21760.52
459.616	20367.9
459.821	20431.39
460.027	20593.18
460.233	20038.18
460.438	19049.01
460.644	19212.85
460.85	18426.43
461.055	17857.09
461.261	18223.68
461.466	16613.98
461.672	16314.97
461.878	17191.5
462.083	16065.12
462.289	15704.68
462.494	15712.87
462.7	15100.53
462.905	14660.21
463.111	15278.7
463.316	15061.62
463.522	14920.31
463.727	14822
463.932	14815.86
464.138	14649.97
464.343	14721.65
464.549	14412.41
464.754	14688.89
464.959	14783.09
465.165	14678.65
465.37	14107.26
465.575	13478.54
465.781	14377.59
465.986	14201.47
466.191	13716.1
466.397	13486.73
466.602	12970.64
466.807	13390.47
467.012	13191.82
467.218	13142.67
467.423	13152.91
467.628	13144.72
467.833	13699.72
468.038	13171.34
468.244	12884.62
468.449	13238.92
468.654	12919.44
468.859	12929.68
469.064	13005.45
469.269	12223.13
469.474	12190.36
469.679	12577.43
469.885	12255.9
470.09	12253.85
470.295	12323.48
470.5	11977.37
470.705	12219.03
470.91	11954.85
471.115	11555.49
471.32	12096.16
471.525	11674.28
471.73	11582.12
471.935	11471.53
472.139	11252.39
472.344	11258.54
472.549	11256.49
472.754	11045.55
472.959	10980.01
473.164	10377.91
473.369	10422.97
473.574	10992.3
473.778	10756.79
473.983	10662.58
474.188	10705.59
474.393	10111.68
474.598	10003.13
474.802	9999.04
475.007	10013.37
475.212	10042.04
475.417	9724.61
475.621	9628.35
475.826	9685.7
476.031	9515.72
476.235	9374.41
476.44	9390.79
476.645	9419.46
476.849	9165.51
477.054	9149.13
477.259	8882.89
477.463	9226.95
477.668	9001.68
477.872	8786.64
478.077	8805.07
478.282	8669.91
478.486	8422.1
478.691	8506.07
478.895	8409.81
479.1	8375
479.304	8344.28
479.509	8159.96
479.713	8170.2
479.918	8065.75
480.122	7963.36
480.326	8131.29
480.531	8051.42
480.735	7959.26
480.94	8047.32
481.144	8155.86
481.348	7809.76
481.553	7903.96
481.757	7647.97
481.961	8090.33
482.166	8059.61
482.37	7963.36
482.574	7863.01
482.778	7719.65
482.983	7928.54
483.187	7889.63
483.391	7869.15
483.595	7856.86
483.8	7662.3
484.004	7846.62
484.208	7946.97
484.412	7865.05
484.616	7912.16
484.821	7797.47
485.025	7766.75
485.229	7846.62
485.433	7688.93
485.637	7830.24
485.841	7654.11
486.045	7617.25
486.249	7684.83
486.453	7686.88
486.657	7877.34
486.861	7805.66
487.065	7695.07
487.269	7885.53
487.473	7754.46
487.677	7652.06
487.881	8082.14
488.085	7598.82
488.289	8026.84
488.493	7856.86
488.697	7955.16
488.901	7801.57
489.105	7830.24
489.309	8024.79
489.512	7877.34
489.716	7789.28
489.92	7893.72
490.124	8018.65
490.328	8080.09
490.531	7936.73
490.735	8018.65
490.939	8035.03
491.143	7936.73
491.346	8090.33
491.55	8030.94
491.754	8182.49
491.958	8143.58
492.161	8176.34
492.365	8252.12
492.569	7971.55
492.772	8477.4
492.976	8358.61
493.18	8448.72
493.383	8692.43
493.587	8512.21
493.79	8518.36
493.994	8493.78
494.197	8630.99
494.401	8692.43
494.605	8444.63
494.808	8878.8
495.012	8870.61
495.215	8876.75
495.419	9028.3
495.622	8880.85
495.825	9046.73
496.029	9224.9
496.232	9272.01
496.436	9325.26
496.639	9622.21
496.843	9542.34
497.046	9618.11
497.249	9638.59
497.453	9771.71
497.656	9962.17
497.859	9919.17
498.063	9933.5
498.266	10336.95
498.469	10220.22
498.673	10304.18
498.876	10568.37
499.079	10506.93
499.282	10617.52
499.485	10855.09
499.689	10957.49
499.892	11104.94
500.095	11231.91
500.298	11512.49
500.501	11197.1
500.705	11369.13
500.908	11578.02
501.111	11838.11
501.314	11840.16
501.517	11891.36
501.72	12020.38
501.923	12188.32
502.126	12470.94
502.329	12675.73
502.532	12745.36
502.735	12788.37
502.938	12946.06
503.141	13187.72
503.344	13357.71
503.547	13234.83
503.75	13656.71
503.953	13855.36
504.156	13623.94
504.359	13996.67
504.562	14144.13
504.765	14408.31
504.968	14670.45
505.17	14649.97
505.373	14715.51
505.576	15125.1
505.779	15008.37
505.982	15350.38
506.185	15624.81
506.387	15579.75
506.59	15823.46
506.793	16138.85
506.996	16192.09
507.198	16679.51
507.401	16290.4
507.604	16149.09
507.807	16960.08
508.009	16953.94
508.212	17226.32
508.415	17504.84
508.617	17836.61
508.82	17728.07
509.022	17607.24
509.225	18418.24
509.428	18274.88
509.63	18575.93
509.833	18461.24
510.035	19067.44
510.238	18913.84
510.44	19415.6
510.643	19483.18
510.845	19773.99
511.048	19690.02
511.25	20236.83
511.453	20374.05
511.655	20916.76
511.858	20709.91
512.06	20779.54
512.262	21211.67
512.465	21250.58
512.667	21776.91
512.87	21766.67
513.072	21723.66
513.274	22594.04
513.477	22671.87
513.679	22897.14
513.881	23237.11
514.084	23263.73
514.286	23405.04
514.488	23392.75
514.69	23718.38
514.893	24136.17
515.095	24388.07
515.297	24478.18
515.499	24768.99
515.701	24801.75
515.904	25309.65
516.106	25543.12
516.308	25434.58
516.51	25962.95
516.712	26030.54
516.914	26372.55
517.116	26837.44
517.318	26894.78
517.52	27007.42
517.722	27281.85
517.925	27228.6
518.127	27740.59
518.329	27957.67
518.531	28303.78
518.733	28193.19
518.935	28553.63
519.136	28750.24
519.338	29489.56
519.54	29598.1
519.742	29694.35
519.944	29831.57
520.146	30378.37
520.348	30681.47
520.55	30605.7
520.752	30568.83
520.954	31463.8
521.155	31226.23
521.357	31725.94
521.559	32133.48
521.761	32754.02
521.963	32035.18
522.164	32422.25
522.366	32749.92
522.568	32708.96
522.77	32903.52
522.971	33562.97
523.173	33677.65
523.375	33968.46
523.576	33739.09
523.778	33960.27
523.98	34230.6
524.181	34453.83
524.383	34761.03
524.584	35107.13
524.786	34953.54
524.988	34937.15
525.189	35281.21
525.391	36006.19
525.592	35694.9
525.794	36268.33
525.995	36188.46
526.197	36258.09
526.398	36352.3
526.6	36548.9
526.801	36655.4
527.003	36731.17
527.204	36673.83
527.406	37091.62
527.607	37398.81
527.808	37544.22
528.01	36899.11
528.211	37488.92
528.412	37929.23
528.614	37699.86
528.815	37681.43
529.016	37984.53
529.218	37589.27
529.419	37871.89
529.62	38086.93
529.822	37992.72
530.023	38332.68
530.224	38293.77
530.425	38426.89
530.626	37892.37
530.828	38224.14
531.029	39217.41
531.23	38459.66
531.431	38363.4
531.632	38869.25
531.833	38822.15
532.035	38846.72
532.236	38689.03
532.437	39096.58
532.638	38689.03
532.839	38904.07
533.04	39100.67
533.241	38603.02
533.442	39497.98
533.643	39061.76
533.844	38773
534.045	39170.3
534.246	38527.24
534.447	38992.13
534.648	38807.81
534.849	39225.6
535.05	38889.73
535.251	38936.84
535.451	39133.44
535.652	39174.4
535.853	39289.09
536.054	39190.78
536.255	39188.74
536.456	39057.67
536.657	39655.67
536.857	39063.81
537.058	39344.38
537.259	39291.13
537.46	39246.08
537.66	39026.95
537.861	39792.89
538.062	38992.13
538.263	39426.3
538.463	39168.26
538.664	39231.74
538.865	39190.78
539.065	39694.58
539.266	38637.83
539.466	39430.4
539.667	38883.59
539.868	39467.26
540.068	39061.76
540.269	38807.81
540.469	39676.15
540.67	38836.48
540.87	39069.95
541.071	38885.64
541.271	39168.26
541.472	39317.76
541.672	39020.8
541.873	38904.07
542.073	38697.22
542.274	39428.35
542.474	39123.2
542.675	38461.71
542.875	39631.1
543.075	39563.51
543.276	38504.71
543.476	39854.33
543.676	39133.44
543.877	39035.14
544.077	39182.59
544.277	39028.99
544.478	38965.51
544.678	39000.32
544.878	39084.29
545.078	39270.65
545.279	38887.68
545.479	38689.03
545.679	39182.59
545.879	38717.7
546.079	39239.93
546.28	38783.24
546.48	39018.75
546.68	38922.5
546.88	38856.96
547.08	38846.72
547.28	39131.39
547.48	38533.39
547.68	38711.56
547.88	38605.06
548.081	39026.95
548.281	39180.54
548.481	38672.65
548.681	39504.12
548.881	38908.16
549.081	39158.02
549.28	38818.05
549.48	39059.71
549.68	38973.7
549.88	39811.32
550.08	38684.94
550.28	38938.88
550.48	38859.01
550.68	39274.75
550.88	38648.07
551.08	38738.18
551.279	38934.79
551.479	38617.35
551.679	38703.37
551.879	38711.56
552.079	39086.34
552.278	38437.13
552.478	38895.88
552.678	38822.15
552.878	38809.86
553.077	38451.47
553.277	38019.35
553.477	39016.71
553.676	38744.33
553.876	38457.61
554.076	38488.33
554.275	38365.45
554.475	37980.43
554.674	38600.97
554.874	38646.02
555.074	38232.33
555.273	38281.49
555.473	38711.56
555.672	37925.14
555.872	38514.95
556.071	38588.68
556.271	38637.83
556.47	38140.18
556.67	38238.48
556.869	38349.07
557.068	38095.12
557.268	37775.64
557.467	38234.38
557.667	38387.98
557.866	37943.57
558.065	38099.22
558.265	37765.4
558.464	37667.09
558.663	38105.36
558.863	37841.17
559.062	37718.29
559.261	37382.43
559.461	37947.67
559.66	37083.42
559.859	37732.63
560.058	37159.2
560.258	37669.14
560.457	36864.29
560.656	37841.17
560.855	37357.85
561.054	37583.13
561.253	36915.49
561.453	37126.43
561.652	37060.9
561.851	37318.94
562.05	37009.7
562.249	36985.12
562.448	37007.65
562.647	36907.3
562.846	36809
563.045	36835.62
563.244	36231.47
563.443	36972.83
563.642	36290.86
563.841	36720.93
564.04	35944.75
564.239	37179.68
564.438	36102.45
564.637	36618.53
564.836	36763.94
565.035	35961.14
565.234	36221.23
565.432	36288.81
565.631	36378.92
565.83	36454.7
566.029	36018.48
566.228	36084.01
566.427	35805.49
566.625	35385.66
566.824	35651.89
567.023	35635.51
567.222	35268.92
567.42	36243.76
567.619	35420.47
567.818	35383.61
568.016	35576.12
568.215	35518.78
568.414	35344.7
568.612	35475.77
568.811	35129.66
569.01	35139.9
569.208	34615.62
569.407	35334.46
569.605	35107.13
569.804	35043.65
570.002	34378.06
570.201	34924.86
570.4	34130.25
570.598	34267.47
570.797	34736.45
570.995	34406.73
571.193	33896.78
571.392	34146.64
571.59	34064.72
571.789	33931.6
571.987	33782.1
572.186	33954.13
572.384	33804.63
572.582	34107.72
572.781	33734.99
572.979	33575.25
573.177	33476.95
573.376	33716.56
573.574	33438.04
573.772	33646.93
573.971	33081.69
574.169	33005.92
574.367	32733.54
574.565	33136.99
574.763	32764.26
574.962	32598.37
575.16	32876.9
575.358	32573.8
575.556	32346.47
575.754	32739.68
575.952	32008.56
576.151	32397.67
576.349	31875.44
576.547	31951.21
576.745	32205.16
576.943	31811.95
577.141	32026.99
577.339	31973.74
577.537	31598.96
577.735	31512.95
577.933	31314.3
578.131	31555.96
578.329	31527.28
578.527	31027.58
578.725	31281.53
578.923	31414.65
579.121	31254.9
579.319	31058.3
579.516	31052.16
579.714	31349.11
579.912	30687.62
580.11	30818.69
580.308	30980.48
580.506	30966.14
580.704	29950.35
580.901	30286.22
581.099	30638.47
581.297	30093.71
581.495	30038.41
581.692	30314.89
581.89	29770.13
582.088	30011.79
582.285	29966.73
582.483	30128.52
582.681	29983.12
582.878	29708.69
583.076	29634.96
583.274	29794.7
583.471	29114.78
583.669	29677.97
583.866	29084.06
584.064	29417.88
584.262	28664.22
584.459	29546.9
584.657	29002.14
584.854	29034.91
585.052	28445.09
585.249	29010.33
585.447	28748.19
585.644	28594.59
585.841	28594.59
586.039	28662.18
586.236	28295.59
586.434	28311.97
586.631	28322.21
586.828	28520.87
587.026	28551.59
587.223	27992.49
587.42	28021.16
587.618	27877.8
587.815	27353.52
588.012	27447.73
588.21	27668.91
588.407	27697.58
588.604	27275.7
588.801	27333.04
588.999	27302.32
589.196	27273.65
589.393	27285.94
589.59	27183.54
589.787	26888.64
589.984	26806.72
590.182	26606.02
590.379	26896.83
590.576	26898.87
590.773	26685.89
590.97	26495.43
591.167	26591.68
591.364	26532.29
591.561	26624.45
591.758	26110.41
591.955	26608.06
592.152	26282.44
592.349	26137.03
592.546	26012.1
592.743	26089.93
592.94	25803.21
593.137	25698.77
593.334	26034.63
593.531	25297.36
593.727	25717.2
593.924	25412.05
594.121	25588.17
594.318	25606.61
594.515	24863.19
594.712	25485.78
594.908	24852.95
595.105	25299.41
595.302	24986.07
595.499	25055.7
595.696	24832.47
595.892	24504.8
596.089	24789.47
596.286	24900.06
596.482	24617.44
596.679	24287.71
596.876	24394.21
597.072	24259.04
597.269	24529.38
597.466	24058.34
597.662	23835.11
597.859	24087.01
598.055	24181.22
598.252	23951.85
598.448	23861.74
598.645	24033.77
598.841	23570.93
599.038	23730.67
599.234	23798.25
599.431	23359.98
599.627	23450.1
599.824	23667.18
600.02	23402.99
600.217	23568.88
600.413	23126.52
600.609	23259.63
600.806	23165.43
601.002	23218.68
601.198	22999.54
601.395	22962.68
601.591	22592
601.787	22630.91
601.984	22665.72
602.18	22585.85
602.376	22528.51
602.572	22518.27
602.769	22446.59
602.965	22176.26
603.161	22301.19
603.357	22047.24
603.553	21957.13
603.75	22037
603.946	22030.85
604.142	22057.48
604.338	21627.4
604.534	21756.43
604.73	21359.12
604.926	21346.83
605.122	21676.55
605.318	21498.38
605.514	21553.68
605.71	21271.06
605.906	21287.44
606.102	21299.73
606.298	21252.63
606.494	21131.79
606.69	21326.35
606.886	21049.88
607.082	20726.3
607.278	21178.9
607.474	20562.46
607.67	20859.42
607.866	20634.14
608.062	20621.85
608.257	20603.42
608.453	20451.87
608.649	20677.15
608.845	20415.01
609.041	20267.55
609.236	20595.23
609.432	20447.77
609.628	20126.24
609.824	20140.58
610.019	20103.71
610.215	20372
610.411	20101.67
610.606	20187.68
610.802	20064.8
610.998	19798.57
611.193	20001.32
611.389	19845.67
611.584	19638.83
611.78	19618.35
611.976	19712.55
612.171	19720.74
612.367	19716.65
612.562	19528.24
612.758	19278.38
612.953	19288.62
613.149	19704.36
613.344	19016.24
613.539	19466.8
613.735	19323.44
613.93	19507.76
614.126	19530.28
614.321	19016.24
614.517	19288.62
614.712	19218.99
614.907	19411.5
615.103	19298.86
615.298	18960.95
615.493	18905.65
615.688	18768.44
615.884	19018.29
616.079	18836.02
616.274	18887.22
616.47	18715.19
616.665	18864.69
616.86	18469.44
617.055	18580.03
617.25	18666.04
617.445	18713.14
617.641	18201.15
617.836	18561.59
618.031	18360.89
618.226	18301.5
618.421	18309.69
618.616	18248.25
618.811	17760.84
619.006	18219.58
619.201	17703.5
619.396	18047.55
619.591	17828.42
619.786	17793.61
619.981	17447.5
620.176	17859.14
620.371	17527.37
620.566	17617.48
620.761	17517.13
620.956	17490.51
621.151	16990.8
621.346	16996.95
621.541	16822.87
621.735	16949.84
621.93	16689.75
622.125	16853.59
622.32	16640.6
622.515	16820.82
622.709	16605.78
622.904	16601.69
623.099	16368.22
623.294	16257.63
623.488	16118.37
623.683	16179.81
623.878	15856.23
624.072	16218.72
624.267	15841.89
624.462	15653.48
624.656	15778.4
624.851	15968.87
625.046	15329.9
625.24	15485.55
625.435	15428.2
625.629	15440.49
625.824	15139.44
626.018	15157.87
626.213	14723.7
626.407	14969.46
626.602	14641.78
626.796	14977.65
626.991	14912.11
627.185	14525.05
627.38	14596.73
627.574	14559.86
627.768	14371.45
627.963	14402.17
628.157	14301.82
628.352	14314.11
628.546	14060.16
628.74	14103.17
628.935	13972.1
629.129	14262.91
629.323	13767.3
629.517	13832.83
629.712	13691.52
629.906	13683.33
630.1	13677.19
630.294	13570.69
630.489	13386.38
630.683	13406.86
630.877	13296.27
631.071	13187.72
631.265	13396.62
631.459	13150.86
631.653	12964.5
631.848	13142.67
632.042	12884.62
632.236	12882.58
632.43	12698.26
632.624	12681.88
632.818	12731.03
633.012	12407.45
633.206	12493.46
633.4	12464.79
633.594	12372.63
633.788	12266.14
633.982	12151.45
634.176	12151.45
634.369	12118.68
634.563	12198.56
634.757	11881.12
634.951	12071.58
635.145	11926.18
635.339	11954.85
635.533	11704.99
635.726	11743.91
635.92	11502.25
636.114	11629.22
636.308	11475.62
636.501	11651.75
636.695	11440.81
636.889	11131.56
637.083	11119.28
637.276	11111.08
637.47	11025.07
637.664	11238.06
637.857	10994.35
638.051	10984.11
638.244	10820.27
638.438	10779.31
638.632	10916.53
638.825	10740.4
639.019	10799.79
639.212	10832.56
639.406	10459.83
639.599	10719.92
639.793	10521.27
639.986	10377.91
640.18	10222.27
640.373	10345.14
640.567	10310.33
640.76	10187.45
640.954	10101.44
641.147	10058.43
641.34	10201.79
641.534	9870.01
641.727	9800.38
641.92	9953.98
642.114	9878.21
642.307	9792.19
642.5	9738.94
642.694	9517.76
642.887	9558.72
643.08	9595.59
643.273	9564.87
643.467	9441.99
643.66	9464.52
643.853	9407.17
644.046	9237.19
644.239	9327.3
644.432	9138.89
644.626	9183.95
644.819	9067.21
645.012	8940.24
645.205	9106.12
645.398	9069.26
645.591	8829.65
645.784	8917.71
645.977	8800.98
646.17	8725.2
646.363	8684.24
646.556	8495.83
646.749	8518.36
646.942	8604.37
647.135	8426.2
647.328	8358.61
647.521	8411.86
647.714	8090.33
647.907	8245.98
648.099	8174.3
648.292	8288.98
648.485	8190.68
648.678	8123.1
648.871	8104.67
649.064	8032.99
649.256	7930.59
649.449	7949.02
649.642	7946.97
649.835	8030.94
650.027	7652.06
650.22	7643.87
650.413	7580.39
650.605	7789.28
650.798	7490.28
650.991	7566.05
651.183	7555.81
651.376	7420.64
651.568	7428.84
651.761	7338.73
651.954	7381.73
652.146	7207.66
652.339	7228.14
652.531	7428.84
652.724	7301.86
652.916	7258.85
653.109	7099.11
653.301	7068.39
653.494	7277.29
653.686	6982.38
653.879	6949.61
654.071	6984.43
654.263	6832.88
654.456	6888.17
654.648	6732.53
654.84	6787.82
655.033	6703.86
655.225	6806.25
655.417	6650.61
655.61	6474.48
655.802	6556.4
655.994	6511.35
656.186	6677.23
656.379	6386.42
656.571	6419.19
656.763	6449.91
656.955	6406.9
657.148	6513.39
657.34	6226.68
657.532	6152.95
657.724	6241.01
657.916	6198.01
658.108	6114.04
658.3	6081.27
658.492	6034.17
658.684	6015.74
658.876	5966.59
659.068	6099.7
659.26	6122.23
659.452	5839.61
659.644	5956.35
659.836	5712.64
660.028	5899
660.22	5653.25
660.412	5804.8
660.604	5651.2
660.796	5542.66
660.988	5581.57
661.18	5450.5
661.372	5548.8
661.563	5491.46
661.755	5333.76
661.947	5466.88
662.139	5495.55
662.331	5325.57
662.522	5401.35
662.714	5516.03
662.906	5423.87
663.097	5184.26
663.289	5419.78
663.481	5262.09
663.673	5116.68
663.864	5180.17
664.056	5120.78
664.247	5081.86
664.439	5083.91
664.631	5053.19
664.822	5180.17
665.014	4918.03
665.205	4985.61
665.397	4883.21
665.588	4967.18
665.78	4907.79
665.971	4797.2
666.163	4766.48
666.354	4657.93
666.546	4801.29
666.737	4782.86
666.929	4811.53
667.12	4772.62
667.311	4680.46
667.503	4598.54
667.694	4604.69
667.885	4571.92
668.077	4559.63
668.268	4569.87
668.459	4635.41
668.651	4490
668.842	4467.47
669.033	4410.13
669.224	4350.74
669.416	4457.23
669.607	4504.34
669.798	4461.33
669.989	4277.01
670.18	4387.6
670.371	4461.33
670.563	4346.64
670.754	4227.86
670.945	4360.98
671.136	4021.02
671.327	4209.43
671.518	4258.58
671.709	4127.51
671.9	4170.52
672.091	4250.39
672.282	4309.78
672.473	3975.96
672.664	4051.74
672.855	4156.18
673.046	4131.61
673.237	4184.85
673.428	3986.2
673.619	3918.62
673.809	3955.48
674	3947.29
674.191	4029.21
674.382	3873.56
674.573	3939.1
674.764	3820.32
674.954	3838.75
675.145	3691.29
675.336	3842.84
675.527	3767.07
675.717	3707.68
675.908	3746.59
676.099	3664.67
676.289	3642.14
676.48	3670.81
676.671	3746.59
676.861	3629.85
677.052	3636
677.243	3597.09
677.433	3629.85
677.624	3601.18
677.814	3603.23
678.005	3566.37
678.195	3466.02
678.386	3580.7
678.576	3533.6
678.767	3447.58
678.957	3423.01
679.148	3504.93
679.338	3410.72
679.529	3531.55
679.719	3470.11
679.909	3521.31
680.1	3443.49
680.29	3466.02
680.481	3427.11
680.671	3308.32
680.861	3443.49
681.052	3435.3
681.242	3283.75
681.432	3126.05
681.622	3414.82
681.813	3308.32
682.003	3255.08
682.193	3283.75
682.383	3279.65
682.573	3193.64
682.764	3318.56
682.954	3210.02
683.144	3201.83
683.334	3269.41
683.524	3296.04
683.714	3107.62
683.904	3210.02
684.094	3250.98
684.284	3175.2
684.474	3099.43
684.664	3205.92
684.854	3193.64
685.044	3177.25
685.234	3216.16
685.424	3144.49
685.614	3152.68
685.804	3164.97
685.994	3183.4
686.184	3142.44
686.374	3197.73
686.564	3005.22
686.753	3173.16
686.943	3042.09
687.133	3066.66
687.323	3001.13
687.513	3091.24
687.702	3089.19
687.892	3005.22
688.082	3009.32
688.272	2941.74
688.461	2927.4
688.651	2964.26
688.841	2972.46
689.03	3021.61
689.22	2775.85
689.41	3019.56
689.599	2872.11
689.789	2818.86
689.979	2872.11
690.168	2990.89
690.358	2810.67
690.547	2775.85
690.737	2847.53
690.926	2796.33
691.116	2900.78
691.305	2810.67
691.495	2702.12
691.684	2894.63
691.874	2882.35
692.063	2796.33
692.252	2751.28
692.442	2781.99
692.631	2691.88
692.82	2736.94
693.01	2695.98
693.199	2777.9
693.388	2677.55
693.578	2775.85
693.767	2657.07
693.956	2695.98
694.146	2665.26
694.335	2698.03
694.524	2736.94
694.713	2732.84
694.902	2652.97
695.092	2708.27
695.281	2722.6
695.47	2650.92
695.659	2700.08
695.848	2659.12
696.037	2644.78
696.226	2601.77
696.415	2558.77
696.604	2747.18
696.793	2743.08
696.982	2704.17
697.171	2710.32
697.36	2642.73
697.549	2589.49
697.738	2691.88
697.927	2605.87
698.116	2603.82
698.305	2607.92
698.494	2710.32
698.683	2646.83
698.872	2569.01
699.061	2716.46
699.25	2616.11
699.438	2636.59
699.627	2728.75
699.816	2562.86
700.005	2648.88
700.193	2581.29
700.382	2575.15
700.571	2612.01
700.76	2634.54
700.948	2517.81
701.137	2472.75
701.326	2620.21
701.514	2460.46
701.703	2603.82
701.892	2472.75
702.08	2507.57
702.269	2566.96
702.457	2515.76
702.646	2454.32
702.834	2546.48
703.023	2526
703.212	2489.14
703.4	2390.83
703.589	2433.84
703.777	2452.27
703.965	2419.5
704.154	2482.99
704.342	2448.18
704.531	2427.7
704.719	2380.59
704.907	2435.89
705.096	2476.85
705.284	2362.16
705.472	2470.7
705.661	2460.46
705.849	2491.18
706.037	2403.12
706.226	2431.79
706.414	2333.49
706.602	2390.83
706.79	2370.35
706.979	2423.6
707.167	2257.71
707.355	2272.05
707.543	2308.91
707.731	2349.87
707.919	2118.45
708.107	2321.2
708.296	2267.95
708.484	2216.76
708.672	2302.77
708.86	2259.76
709.048	2259.76
709.236	2304.82
709.424	2171.7
709.612	2247.48
709.8	2095.93
709.988	2360.11
710.176	2116.41
710.364	2356.02
710.551	2136.88
710.739	2149.17
710.927	2233.14
711.115	2134.84
711.303	2192.18
711.491	2167.6
711.679	1971
711.866	2118.45
712.054	2112.31
712.242	2042.68
712.43	2138.93
712.617	2116.41
712.805	2120.5
712.993	2138.93
713.181	2026.29
713.368	1985.34
713.556	2007.86
713.744	2026.29
713.931	2026.29
714.119	2001.72
714.306	2026.29
714.494	1989.43
714.682	2061.11
714.869	1915.7
715.057	2007.86
715.244	2032.44
715.432	1921.85
715.619	2011.96
715.807	1991.48
715.994	1821.5
716.182	1856.31
716.369	1954.62
716.556	1915.7
716.744	1831.74
716.931	1868.6
717.119	1944.38
717.306	1895.22
717.493	1944.38
717.681	1774.39
717.868	1944.38
718.055	1770.3
718.242	1880.89
718.43	1762.11
718.617	1755.96
718.804	1788.73
718.991	1823.55
719.179	1846.07
719.366	1821.5
719.553	1764.15
719.74	1786.68
719.927	1809.21
720.114	1825.59
720.301	1741.63
720.488	1659.71
720.676	1594.17
720.863	1727.29
721.05	1641.28
721.237	1626.94
721.424	1788.73
721.611	1745.72
721.798	1669.95
721.985	1661.76
722.172	1702.72
722.358	1649.47
722.545	1641.28
722.732	1649.47
722.919	1551.17
723.106	1596.22
723.293	1620.8
723.48	1647.42
723.667	1592.13
723.853	1596.22
724.04	1559.36
724.227	1643.32
724.414	1667.9
724.6	1459.01
724.787	1628.99
724.974	1712.96
725.161	1633.08
725.347	1577.79
725.534	1469.25
725.72	1536.83
725.907	1583.93
726.094	1542.97
726.28	1606.46
726.467	1506.11
726.653	1475.39
726.84	1567.55
727.027	1477.44
727.213	1534.78
727.4	1631.04
727.586	1434.43
727.773	1475.39
727.959	1557.31
728.145	1461.06
728.332	1346.37
728.518	1465.15
728.705	1452.86
728.891	1379.14
729.077	1454.91
729.264	1473.34
729.45	1452.86
729.636	1364.8
729.823	1389.38
730.009	1323.84
730.195	1397.57
730.382	1512.25
730.568	1346.37
730.754	1372.99
730.94	1344.32
731.126	1459.01
731.313	1344.32
731.499	1325.89
731.685	1375.04
731.871	1243.97
732.057	1473.34
732.243	1360.7
732.429	1256.26
732.615	1375.04
732.801	1403.71
732.987	1389.38
733.173	1368.9
733.359	1354.56
733.545	1231.68
733.731	1272.64
733.917	1362.75
734.103	1297.22
734.289	1276.74
734.475	1303.36
734.661	1264.45
734.847	1342.27
735.033	1303.36
735.219	1323.84
735.404	1246.02
735.59	1252.16
735.776	1254.21
735.962	1350.46
736.148	1194.82
736.333	1289.03
736.519	1198.92
736.705	1262.4
736.89	1221.44
737.076	1241.92
737.262	1252.16
737.447	1256.26
737.633	1168.2
737.819	1203.01
738.004	1223.49
738.19	1223.49
738.375	1268.55
738.561	1203.01
738.747	1250.11
738.932	1162.05
739.118	1180.48
739.303	1166.15
739.489	1207.11
739.674	1188.68
739.859	1069.89
740.045	1112.9
740.23	1121.09
740.416	1180.48
740.601	1141.57
740.786	1104.71
740.972	1086.28
741.157	1151.81
741.342	1127.24
741.528	1080.13
741.713	1078.08
741.898	1012.55
742.084	1123.14
742.269	1053.51
742.454	1123.14
742.639	1035.08
742.824	1141.57
743.01	1168.2
743.195	1119.04
743.38	1059.65
743.565	1123.14
743.75	1018.69
743.935	1043.27
744.12	1057.61
744.305	1026.89
744.49	971.59
744.675	1035.08
744.86	1004.36
745.045	977.73
745.23	987.97
745.415	1028.93
745.6	1020.74
745.785	951.11
745.97	990.02
746.155	1049.41
746.34	992.07
746.525	1008.45
746.71	899.91
746.895	971.59
747.079	842.57
747.264	990.02
747.449	953.16
747.634	852.81
747.819	875.34
748.003	953.16
748.188	875.34
748.373	959.3
748.557	895.82
748.742	914.25
748.927	875.34
749.111	920.39
749.296	928.58
749.481	987.97
749.665	799.56
749.85	826.18
750.034	897.86
750.219	906.06
750.404	893.77
750.588	824.14
750.773	863.05
750.957	895.82
751.141	867.14
751.326	863.05
751.51	817.99
751.695	815.94
751.879	891.72
752.064	852.81
752.248	846.66
752.432	797.51
752.617	817.99
752.801	813.9
752.985	846.66
753.17	748.36
753.354	791.37
753.538	748.36
753.722	709.45
753.907	858.95
754.091	797.51
754.275	738.12
754.459	691.02
754.643	791.37
754.828	711.5
755.012	699.21
755.196	701.26
755.38	740.17
755.564	674.64
755.748	725.83
755.932	742.22
756.116	736.07
756.3	678.73
756.484	654.16
756.668	625.48
756.852	711.5
757.036	680.78
757.22	611.15
757.404	723.79
757.588	676.68
757.772	701.26
757.956	715.59
758.14	584.52
758.323	652.11
758.507	633.68
758.691	629.58
758.875	691.02
759.059	684.87
759.242	643.92
759.426	619.34
759.61	553.8
759.794	674.64
759.977	594.76
760.161	699.21
760.345	615.24
760.528	686.92
760.712	535.37
760.895	543.57
761.079	645.96
761.263	643.92
761.446	650.06
761.63	625.48
761.813	547.66
761.997	588.62
762.18	572.24
762.364	615.24
762.547	568.14
762.731	555.85
762.914	514.89
763.098	562
763.281	625.48
763.464	572.24
763.648	559.95
763.831	549.71
764.015	570.19
764.198	535.37
764.381	486.22
764.564	553.8
764.748	553.8
764.931	555.85
765.114	533.33
765.297	547.66
765.481	537.42
765.664	588.62
765.847	533.33
766.03	564.04
766.213	523.09
766.397	572.24
766.58	486.22
766.763	543.57
766.946	535.37
767.129	500.56
767.312	537.42
767.495	543.57
767.678	498.51
767.861	545.61
768.044	518.99
768.227	498.51
768.41	527.18
768.593	564.04
768.776	496.46
768.959	527.18
769.142	506.7
769.324	523.09
769.507	420.69
769.69	494.41
769.873	455.5
770.056	437.07
770.239	457.55
770.421	496.46
770.604	455.5
770.787	443.21
770.97	471.89
771.152	414.54
771.335	439.12
771.518	494.41
771.7	414.54
771.883	496.46
772.066	502.61
772.248	412.5
772.431	412.5
772.613	408.4
772.796	447.31
772.978	471.89
773.161	467.79
773.343	406.35
773.526	488.27
773.708	420.69
773.891	473.93
774.073	404.3
774.256	389.97
774.438	447.31
774.621	406.35
774.803	392.02
774.985	441.17
775.168	437.07
775.35	422.73
775.532	518.99
775.715	447.31
775.897	445.26
776.079	396.11
776.261	486.22
776.444	408.4
776.626	494.41
776.808	385.87
776.99	363.34
777.173	402.26
777.355	406.35
777.537	428.88
777.719	494.41
777.901	373.58
778.083	404.3
778.265	381.78
778.447	437.07
778.629	441.17
778.811	424.78
778.993	445.26
779.175	416.59
779.357	365.39
779.539	330.58
779.721	295.76
779.903	367.44
780.085	383.82
780.267	363.34
780.449	336.72
780.631	373.58
780.812	361.3
780.994	461.65
781.176	340.82
781.358	291.66
781.54	340.82
781.721	332.62
781.903	314.19
782.085	363.34
782.267	262.99
782.448	279.38
782.63	299.86
782.812	342.86
782.993	303.95
783.175	273.23
783.357	267.09
783.538	322.38
783.72	326.48
783.901	330.58
784.083	254.8
784.264	293.71
784.446	226.13
784.627	332.62
784.809	275.28
784.99	248.66
785.172	295.76
785.353	236.37
785.535	238.42
785.716	293.71
785.897	197.46
786.079	306
786.26	242.51
786.441	299.86
786.623	275.28
786.804	260.95
786.985	318.29
787.167	258.9
787.348	189.27
787.529	289.62
787.71	232.27
787.891	252.75
788.073	256.85
788.254	260.95
788.435	219.99
788.616	154.45
788.797	283.47
788.978	330.58
789.159	232.27
789.34	215.89
789.522	260.95
789.703	205.65
789.884	322.38
790.065	250.71
790.246	185.17
790.427	232.27
790.607	314.19
790.788	219.99
790.969	185.17
791.15	240.47
791.331	179.03
791.512	242.51
791.693	289.62
791.874	230.23
792.054	242.51
792.235	219.99
792.416	224.08
792.597	265.04
792.778	189.27
792.958	127.83
793.139	244.56
793.32	199.51
793.5	199.51
793.681	187.22
793.862	197.46
794.042	172.88
794.223	246.61
794.404	213.84
794.584	160.59
794.765	183.12
794.945	160.59
795.126	191.31
795.306	152.4
795.487	174.93
795.667	187.22
795.848	228.18
796.028	146.26
796.209	211.79
796.389	219.99
796.57	148.31
796.75	172.88
796.93	219.99
797.111	156.5
797.291	109.4
797.471	140.12
797.652	201.55
797.832	230.23
798.012	185.17
798.192	97.11
798.373	172.88
798.553	131.92
798.733	172.88
798.913	201.55
799.093	142.16
799.274	82.77
799.454	269.14
799.634	207.7
799.814	189.27
799.994	211.79
800.174	115.54
800.354	136.02
800.534	174.93
800.714	142.16
800.894	158.55
801.074	183.12
801.254	160.59
801.434	148.31
801.614	146.26
801.794	109.4
801.974	338.77
802.154	140.12
802.334	166.74
802.514	201.55
802.693	185.17
802.873	160.59
803.053	185.17
803.233	111.44
803.413	105.3
803.592	129.88
803.772	160.59
803.952	138.07
804.131	117.59
804.311	207.7
804.491	150.36
804.67	125.78
804.85	45.91
805.03	111.44
805.209	158.55
805.389	101.2
805.568	140.12
805.748	152.4
805.928	127.83
806.107	86.87
806.287	207.7
806.466	136.02
806.646	150.36
806.825	76.63
807.004	131.92
807.184	205.65
807.363	158.55
807.543	138.07
807.722	138.07
807.901	242.51
808.081	166.74
808.26	125.78
808.439	123.73
808.619	133.97
808.798	39.76
808.977	62.29
809.156	86.87
809.336	158.55
809.515	93.01
809.694	58.2
809.873	131.92
810.052	138.07
810.231	133.97
810.411	56.15
810.59	160.59
810.769	88.92
810.948	179.03
811.127	88.92
811.306	103.25
811.485	105.3
811.664	142.16
811.843	99.16
812.022	131.92
812.201	174.93
812.38	82.77
812.559	95.06
812.737	142.16
812.916	125.78
813.095	123.73
813.274	117.59
813.453	129.88
813.632	113.49
813.811	174.93
813.989	109.4
814.168	127.83
814.347	107.35
814.526	72.53
814.704	164.69
814.883	56.15
815.062	115.54
815.24	80.72
815.419	95.06
815.598	111.44
815.776	76.63
815.955	119.64
816.133	93.01
816.312	136.02
816.49	140.12
816.669	109.4
816.847	13.14
817.026	185.17
817.204	15.19
817.383	101.2
817.561	35.67
817.74	99.16
817.918	109.4
818.097	158.55
818.275	107.35
818.453	115.54
818.632	117.59
818.81	86.87
818.988	45.91
819.167	90.96
819.345	76.63
819.523	82.77
819.701	82.77
819.879	82.77
820.058	37.72
820.236	80.72
820.414	97.11
820.592	142.16
820.77	33.62
820.948	105.3
821.127	66.39
821.305	72.53
821.483	99.16
821.661	68.44
821.839	70.48
822.017	113.49
822.195	-1.19
822.373	95.06
822.551	90.96
822.729	174.93
822.907	39.76
823.085	123.73
823.262	70.48
823.44	56.15
823.618	84.82
823.796	43.86
823.974	146.26
824.152	-19.63
824.329	27.48
824.507	121.68
824.685	47.96
824.863	47.96
825.04	76.63
825.218	109.4
825.396	142.16
825.574	-5.29
825.751	-5.29
825.929	129.88
826.107	37.72
826.284	21.33
826.462	13.14
826.639	37.72
826.817	109.4
826.994	37.72
827.172	80.72
827.349	119.64
827.527	-17.58
827.704	109.4
827.882	93.01
828.059	11.09
828.237	29.52
828.414	99.16
828.591	66.39
828.769	140.12
828.946	33.62
829.124	125.78
829.301	41.81
829.478	33.62
829.655	68.44
829.833	-5.29
830.01	15.19
830.187	52.05
830.364	70.48
830.542	111.44
830.719	80.72
830.896	86.87
831.073	54.1
831.25	35.67
831.427	52.05
831.604	13.14
831.782	103.25
831.959	35.67
832.136	9.05
832.313	88.92
832.49	97.11
832.667	70.48
832.844	25.43
833.021	-3.24
833.198	95.06
833.374	125.78
833.551	82.77
833.728	80.72
833.905	117.59
834.082	93.01
834.259	80.72
834.436	13.14
834.612	64.34
834.789	131.92
834.966	50
835.143	70.48
835.319	47.96
835.496	52.05
835.673	142.16
835.85	103.25
836.026	-27.82
836.203	54.1
836.38	43.86
836.556	50
836.733	-11.43
836.909	68.44
837.086	27.48
837.262	23.38
837.439	64.34
837.616	19.29
837.792	136.02
837.968	21.33
838.145	60.24
838.321	27.48
838.498	72.53
838.674	31.57
838.851	23.38
839.027	-11.43
839.203	7
839.38	60.24
839.556	9.05
839.732	78.68
839.909	58.2
840.085	123.73
840.261	70.48
840.437	54.1
840.614	47.96
840.79	70.48
840.966	64.34
841.142	39.76
841.318	37.72
841.494	97.11
841.671	133.97
841.847	37.72
842.023	29.52
842.199	11.09
842.375	88.92
842.551	78.68
842.727	11.09
842.903	27.48
843.079	52.05
843.255	-15.53
843.431	29.52
843.607	29.52
843.783	41.81
843.959	37.72
844.134	52.05
844.31	109.4
844.486	29.52
844.662	13.14
844.838	45.91
845.013	88.92
845.189	33.62
845.365	80.72
845.541	72.53
845.716	-27.82
845.892	-40.11
846.068	41.81
846.244	29.52
846.419	25.43
846.595	35.67
846.77	70.48
846.946	111.44
847.122	27.48
847.297	47.96
847.473	43.86
847.648	-27.82
847.824	68.44
847.999	2.9
848.175	11.09
848.35	-1.19
848.526	101.2
848.701	19.29
848.876	-1.19
849.052	-11.43
849.227	-9.39
849.403	58.2
849.578	47.96
849.753	70.48
849.929	115.54
850.104	31.57
850.279	60.24
850.454	37.72
850.63	-7.34
850.805	64.34
850.98	56.15
851.155	15.19
851.33	39.76
851.505	56.15
851.681	64.34
851.856	-17.58
852.031	90.96
852.206	41.81
852.381	60.24
852.556	97.11
852.731	74.58
852.906	43.86
853.081	27.48
853.256	-7.34
853.431	-3.24
853.606	27.48
853.781	56.15
853.956	86.87
854.131	64.34
854.305	0.85
854.48	60.24
854.655	43.86
854.83	60.24
855.005	54.1
855.18	86.87
855.354	-13.48
855.529	117.59
855.704	56.15
855.879	4.95
856.053	25.43
856.228	88.92
856.403	68.44
856.577	47.96
856.752	54.1
856.926	58.2
857.101	45.91
857.276	31.57
857.45	70.48
857.625	62.29
857.799	62.29
857.974	37.72
858.148	37.72
858.323	-5.29
858.497	37.72
858.672	13.14
858.846	64.34
859.02	31.57
859.195	19.29
859.369	64.34
859.543	23.38
859.718	68.44
859.892	7
860.066	72.53
860.241	15.19
860.415	-29.87
860.589	58.2
860.763	-29.87
860.938	-52.39
861.112	45.91
861.286	-3.24
861.46	60.24
861.634	50
861.808	56.15
861.982	15.19
862.157	-23.72
862.331	-21.67
862.505	41.81
862.679	-21.67
862.853	21.33
863.027	7
863.201	47.96
863.375	-27.82
863.549	27.48
863.722	-38.06
863.896	78.68
864.07	2.9
864.244	-13.48
864.418	-13.48
864.592	21.33
864.766	45.91
864.939	25.43
865.113	23.38
865.287	43.86
865.461	-11.43
865.634	33.62
865.808	25.43
865.982	17.24
866.156	39.76
866.329	80.72
866.503	43.86
866.676	-40.11
866.85	47.96
867.024	66.39
867.197	11.09
867.371	78.68
867.544	37.72
867.718	52.05
867.891	13.14
868.065	43.86
868.238	25.43
868.412	23.38
868.585	27.48
868.759	52.05
868.932	7
869.105	52.05
869.279	-19.63
869.452	54.1
869.625	-36.01
869.799	27.48
869.972	0.85
870.145	9.05
870.319	101.2
870.492	39.76
870.665	43.86
870.838	56.15
871.011	-33.96
871.185	19.29
871.358	84.82
871.531	52.05
871.704	7
871.877	2.9
872.05	23.38
872.223	-7.34
872.396	-27.82
872.569	-68.78
872.742	-46.25
872.915	-29.87
873.088	-54.44
873.261	17.24
873.434	70.48
873.607	35.67
873.78	2.9
873.953	19.29
874.126	2.9
874.299	23.38
874.471	2.9
874.644	-11.43
874.817	84.82
874.99	-3.24
875.163	11.09
875.335	82.77
875.508	56.15
875.681	68.44
875.853	13.14
876.026	17.24
876.199	15.19
876.371	64.34
876.544	0.85
876.717	78.68
876.889	17.24
877.062	9.05
877.234	80.72
877.407	17.24
877.579	123.73
877.752	15.19
877.924	11.09
878.097	11.09
878.269	60.24
878.442	-9.39
878.614	23.38
878.786	93.01
878.959	62.29
879.131	-15.53
879.303	39.76
879.476	-46.25
879.648	25.43
879.82	43.86
879.993	23.38
880.165	78.68
880.337	-5.29
880.509	29.52
880.681	33.62
880.854	29.52
881.026	-19.63
881.198	29.52
881.37	13.14
881.542	15.19
881.714	117.59
881.886	45.91
882.058	43.86
882.23	107.35
882.402	19.29
882.574	47.96
882.746	21.33
882.918	-29.87
883.09	35.67
883.262	39.76
883.434	-50.35
883.606	41.81
883.778	-25.77
883.95	31.57
884.122	27.48
884.293	62.29
884.465	17.24
884.637	-15.53
884.809	25.43
884.98	-17.58
885.152	-93.35
885.324	37.72
885.496	-25.77
885.667	35.67
885.839	70.48
886.011	11.09
886.182	68.44
886.354	93.01
886.525	29.52
886.697	-11.43
886.869	-38.06
887.04	105.3
887.212	-13.48
887.383	-29.87
887.555	13.14
887.726	43.86
887.897	39.76
888.069	60.24
888.24	86.87
888.412	-5.29
888.583	21.33
888.754	62.29
888.926	15.19
889.097	7
889.268	4.95
889.44	19.29
889.611	60.24
889.782	33.62
889.953	37.72
890.125	68.44
890.296	50
890.467	-13.48
890.638	-11.43
890.809	9.05
890.98	52.05
891.151	52.05
891.323	0.85
891.494	-21.67
891.665	21.33
891.836	56.15
892.007	4.95
892.178	35.67
892.349	60.24
892.52	76.63
892.691	35.67
892.862	29.52
893.032	60.24
893.203	23.38
893.374	74.58
893.545	25.43
893.716	-5.29
893.887	19.29
894.057	23.38
894.228	52.05
894.399	13.14
894.57	4.95
894.74	-36.01
894.911	41.81
895.082	4.95
895.253	56.15
895.423	19.29
895.594	105.3
895.764	25.43
895.935	7
896.106	31.57
896.276	7
896.447	9.05
896.617	47.96
896.788	-3.24
896.958	35.67
897.129	31.57
897.299	-17.58
897.47	11.09
897.64	31.57
897.81	-46.25
897.981	41.81
898.151	7
898.322	56.15
898.492	33.62
898.662	-27.82
898.832	41.81
899.003	4.95
899.173	37.72
899.343	54.1
899.513	43.86
