Data from USB4F104151__182__13-59-05-750.txt Node

Date: Thu Mar 13 13:59:05 EDT 2025
User: louis
Spectrometer: USB4F10415
Trigger mode: 4
Integration Time (sec): 1.000000E-2
Scans to average: 1
Electric dark correction enabled: true
Nonlinearity correction enabled: false
Boxcar width: 0
XAxis mode: Wavelengths
Number of Pixels in Spectrum: 3648
>>>>>Begin Spectral Data<<<<<
178.204	0.68
178.424	0.68
178.644	0.68
178.864	-109.91
179.084	-40.28
179.304	76.46
179.524	2.73
179.744	8.87
179.964	45.74
180.184	0.68
180.404	-71
180.624	19.11
180.844	-1.37
181.064	-58.71
181.283	33.45
181.503	-38.23
181.723	-17.75
181.943	2.73
182.163	78.51
182.383	19.11
182.602	60.07
182.822	88.75
183.042	-3.41
183.262	-17.75
183.482	15.02
183.701	29.35
183.921	-34.13
184.141	-17.75
184.361	78.51
184.58	49.83
184.8	58.03
185.02	6.83
185.239	31.4
185.459	41.64
185.679	33.45
185.898	31.4
186.118	6.83
186.338	-17.75
186.557	51.88
186.777	101.03
186.997	33.45
187.216	53.93
187.436	66.22
187.655	-5.46
187.875	55.98
188.095	-5.46
188.314	0.68
188.534	-34.13
188.753	37.55
188.973	55.98
189.192	-9.56
189.412	-19.8
189.631	15.02
189.851	0.68
190.07	86.7
190.29	-9.56
190.509	64.17
190.729	55.98
190.948	-27.99
191.168	41.64
191.387	53.93
191.607	-99.67
191.826	-1.37
192.045	-48.47
192.265	47.79
192.484	47.79
192.704	-5.46
192.923	45.74
193.142	94.89
193.362	39.59
193.581	29.35
193.8	80.55
194.02	-1.37
194.239	23.21
194.458	64.17
194.678	15.02
194.897	15.02
195.116	55.98
195.335	15.02
195.555	12.97
195.774	80.55
195.993	45.74
196.212	-15.7
196.432	49.83
196.651	-1.37
196.87	-21.85
197.089	39.59
197.308	8.87
197.528	23.21
197.747	41.64
197.966	31.4
198.185	55.98
198.404	-1.37
198.623	47.79
198.842	39.59
199.062	45.74
199.281	43.69
199.5	15.02
199.719	31.4
199.938	-13.65
200.157	15.02
200.376	25.26
200.595	25.26
200.814	47.79
201.033	-50.52
201.252	17.07
201.471	10.92
201.69	55.98
201.909	43.69
202.128	60.07
202.347	0.68
202.566	70.31
202.785	113.32
203.004	19.11
203.223	55.98
203.442	37.55
203.661	115.37
203.879	-38.23
204.098	41.64
204.317	2.73
204.536	23.21
204.755	82.6
204.974	82.6
205.193	-46.42
205.411	39.59
205.63	-19.8
205.849	-11.61
206.068	21.16
206.287	-15.7
206.505	29.35
206.724	37.55
206.943	-19.8
207.162	53.93
207.381	0.68
207.599	23.21
207.818	-42.32
208.037	39.59
208.255	-7.51
208.474	-23.89
208.693	-66.9
208.911	43.69
209.13	-25.94
209.349	-21.85
209.567	39.59
209.786	58.03
210.005	15.02
210.223	-7.51
210.442	-23.89
210.661	25.26
210.879	4.78
211.098	10.92
211.316	55.98
211.535	8.87
211.753	55.98
211.972	-5.46
212.191	66.22
212.409	58.03
212.628	23.21
212.846	21.16
213.065	6.83
213.283	96.94
213.502	17.07
213.72	68.27
213.938	21.16
214.157	25.26
214.375	37.55
214.594	-27.99
214.812	2.73
215.031	17.07
215.249	80.55
215.467	2.73
215.686	43.69
215.904	12.97
216.122	21.16
216.341	-5.46
216.559	25.26
216.778	55.98
216.996	47.79
217.214	25.26
217.432	8.87
217.651	-17.75
217.869	27.31
218.087	-58.71
218.306	35.5
218.524	37.55
218.742	33.45
218.96	-17.75
219.179	10.92
219.397	27.31
219.615	37.55
219.833	6.83
220.051	-30.04
220.27	103.08
220.488	29.35
220.706	15.02
220.924	19.11
221.142	45.74
221.36	31.4
221.578	15.02
221.796	21.16
222.015	10.92
222.233	31.4
222.451	88.75
222.669	4.78
222.887	-7.51
223.105	-15.7
223.323	23.21
223.541	6.83
223.759	49.83
223.977	15.02
224.195	31.4
224.413	-21.85
224.631	45.74
224.849	92.84
225.067	74.41
225.285	-5.46
225.503	33.45
225.721	-17.75
225.939	10.92
226.157	-21.85
226.375	148.14
226.592	-1.37
226.81	96.94
227.028	-1.37
227.246	-15.7
227.464	33.45
227.682	64.17
227.9	-38.23
228.117	107.18
228.335	27.31
228.553	8.87
228.771	64.17
228.989	55.98
229.206	15.02
229.424	25.26
229.642	8.87
229.86	72.36
230.077	23.21
230.295	41.64
230.513	86.7
230.731	29.35
230.948	66.22
231.166	64.17
231.384	8.87
231.601	62.12
231.819	29.35
232.037	62.12
232.254	43.69
232.472	4.78
232.689	27.31
232.907	15.02
233.125	-1.37
233.342	25.26
233.56	-60.76
233.777	-3.41
233.995	43.69
234.213	88.75
234.43	-11.61
234.648	-32.08
234.865	47.79
235.083	-46.42
235.3	-46.42
235.518	43.69
235.735	10.92
235.953	19.11
236.17	23.21
236.388	60.07
236.605	-38.23
236.822	66.22
237.04	23.21
237.257	10.92
237.475	49.83
237.692	62.12
237.909	27.31
238.127	23.21
238.344	41.64
238.562	35.5
238.779	19.11
238.996	45.74
239.214	-3.41
239.431	10.92
239.648	64.17
239.865	-34.13
240.083	-50.52
240.3	33.45
240.517	-34.13
240.735	55.98
240.952	-11.61
241.169	39.59
241.386	55.98
241.603	19.11
241.821	47.79
242.038	43.69
242.255	-68.95
242.472	12.97
242.689	55.98
242.907	-50.52
243.124	62.12
243.341	10.92
243.558	51.88
243.775	47.79
243.992	76.46
244.209	74.41
244.426	70.31
244.643	6.83
244.86	-19.8
245.078	15.02
245.295	33.45
245.512	49.83
245.729	33.45
245.946	31.4
246.163	-44.37
246.38	-15.7
246.597	-7.51
246.814	-7.51
247.031	23.21
247.248	80.55
247.464	41.64
247.681	74.41
247.898	33.45
248.115	-15.7
248.332	-46.42
248.549	23.21
248.766	70.31
248.983	-17.75
249.2	39.59
249.417	80.55
249.633	33.45
249.85	41.64
250.067	58.03
250.284	55.98
250.501	23.21
250.717	17.07
250.934	0.68
251.151	33.45
251.368	-25.94
251.585	-27.99
251.801	-5.46
252.018	-52.56
252.235	76.46
252.451	10.92
252.668	2.73
252.885	37.55
253.102	12.97
253.318	-7.51
253.535	45.74
253.752	-5.46
253.968	-9.56
254.185	-42.32
254.401	23.21
254.618	51.88
254.835	-19.8
255.051	74.41
255.268	23.21
255.484	33.45
255.701	-15.7
255.917	10.92
256.134	-25.94
256.351	-11.61
256.567	-32.08
256.784	49.83
257	55.98
257.217	72.36
257.433	45.74
257.65	127.66
257.866	31.4
258.082	-1.37
258.299	62.12
258.515	12.97
258.732	33.45
258.948	-23.89
259.165	41.64
259.381	33.45
259.597	39.59
259.814	60.07
260.03	-1.37
260.246	17.07
260.463	8.87
260.679	60.07
260.895	6.83
261.112	92.84
261.328	41.64
261.544	15.02
261.761	74.41
261.977	121.51
262.193	15.02
262.409	72.36
262.626	-19.8
262.842	31.4
263.058	-21.85
263.274	-27.99
263.49	37.55
263.707	31.4
263.923	2.73
264.139	10.92
264.355	33.45
264.571	51.88
264.787	-44.37
265.004	19.11
265.22	53.93
265.436	49.83
265.652	41.64
265.868	60.07
266.084	39.59
266.3	103.08
266.516	-30.04
266.732	53.93
266.948	70.31
267.164	33.45
267.38	96.94
267.596	66.22
267.812	39.59
268.028	33.45
268.244	72.36
268.46	-5.46
268.676	19.11
268.892	37.55
269.108	-23.89
269.324	8.87
269.54	27.31
269.756	96.94
269.972	-46.42
270.188	88.75
270.403	10.92
270.619	-21.85
270.835	31.4
271.051	92.84
271.267	19.11
271.483	33.45
271.698	80.55
271.914	60.07
272.13	51.88
272.346	47.79
272.562	-3.41
272.777	6.83
272.993	-7.51
273.209	39.59
273.425	33.45
273.64	27.31
273.856	53.93
274.072	23.21
274.287	23.21
274.503	80.55
274.719	88.75
274.934	-9.56
275.15	-34.13
275.366	0.68
275.581	-56.66
275.797	35.5
276.012	-60.76
276.228	29.35
276.444	8.87
276.659	-30.04
276.875	49.83
277.09	29.35
277.306	51.88
277.521	39.59
277.737	-17.75
277.952	60.07
278.168	49.83
278.383	39.59
278.599	4.78
278.814	25.26
279.03	0.68
279.245	31.4
279.461	62.12
279.676	96.94
279.892	94.89
280.107	43.69
280.322	6.83
280.538	29.35
280.753	19.11
280.969	23.21
281.184	-17.75
281.399	23.21
281.615	6.83
281.83	74.41
282.045	66.22
282.26	-1.37
282.476	64.17
282.691	6.83
282.906	105.13
283.122	82.6
283.337	41.64
283.552	15.02
283.767	-5.46
283.983	31.4
284.198	-30.04
284.413	64.17
284.628	-52.56
284.843	101.03
285.058	10.92
285.274	66.22
285.489	-5.46
285.704	25.26
285.919	66.22
286.134	53.93
286.349	0.68
286.564	55.98
286.779	58.03
286.995	-5.46
287.21	47.79
287.425	64.17
287.64	-42.32
287.855	96.94
288.07	35.5
288.285	74.41
288.5	62.12
288.715	47.79
288.93	15.02
289.145	-5.46
289.36	-34.13
289.575	58.03
289.79	51.88
290.004	47.79
290.219	107.18
290.434	23.21
290.649	19.11
290.864	35.5
291.079	31.4
291.294	55.98
291.509	15.02
291.724	-9.56
291.938	0.68
292.153	78.51
292.368	8.87
292.583	6.83
292.798	88.75
293.012	10.92
293.227	86.7
293.442	23.21
293.657	49.83
293.871	80.55
294.086	-17.75
294.301	80.55
294.516	82.6
294.73	29.35
294.945	-25.94
295.16	35.5
295.374	37.55
295.589	15.02
295.804	-5.46
296.018	94.89
296.233	-21.85
296.447	78.51
296.662	66.22
296.877	-23.89
297.091	94.89
297.306	53.93
297.52	-1.37
297.735	21.16
297.949	-11.61
298.164	55.98
298.378	25.26
298.593	33.45
298.807	2.73
299.022	-56.66
299.236	55.98
299.451	72.36
299.665	-7.51
299.88	121.51
300.094	25.26
300.309	58.03
300.523	35.5
300.737	23.21
300.952	76.46
301.166	17.07
301.381	78.51
301.595	72.36
301.809	41.64
302.024	43.69
302.238	27.31
302.452	82.6
302.667	43.69
302.881	53.93
303.095	25.26
303.309	35.5
303.524	49.83
303.738	-7.51
303.952	33.45
304.166	39.59
304.381	23.21
304.595	31.4
304.809	-17.75
305.023	33.45
305.237	37.55
305.452	43.69
305.666	47.79
305.88	15.02
306.094	21.16
306.308	2.73
306.522	-54.61
306.736	66.22
306.95	68.27
307.164	45.74
307.379	60.07
307.593	105.13
307.807	-7.51
308.021	33.45
308.235	-5.46
308.449	8.87
308.663	58.03
308.877	25.26
309.091	29.35
309.305	64.17
309.519	98.99
309.733	43.69
309.947	-5.46
310.161	41.64
310.374	84.65
310.588	80.55
310.802	6.83
311.016	49.83
311.23	39.59
311.444	6.83
311.658	72.36
311.872	4.78
312.085	66.22
312.299	35.5
312.513	58.03
312.727	31.4
312.941	29.35
313.154	96.94
313.368	55.98
313.582	74.41
313.796	68.27
314.009	6.83
314.223	74.41
314.437	43.69
314.651	0.68
314.864	-42.32
315.078	51.88
315.292	-17.75
315.505	15.02
315.719	-64.85
315.933	15.02
316.146	-7.51
316.36	-32.08
316.573	51.88
316.787	60.07
317.001	-5.46
317.214	15.02
317.428	-17.75
317.641	37.55
317.855	111.27
318.068	17.07
318.282	92.84
318.495	23.21
318.709	0.68
318.922	37.55
319.136	-13.65
319.349	58.03
319.563	-32.08
319.776	55.98
319.99	-1.37
320.203	55.98
320.417	10.92
320.63	39.59
320.843	47.79
321.057	-11.61
321.27	39.59
321.483	70.31
321.697	88.75
321.91	60.07
322.124	10.92
322.337	43.69
322.55	2.73
322.763	58.03
322.977	49.83
323.19	-1.37
323.403	39.59
323.617	-1.37
323.83	121.51
324.043	-1.37
324.256	-9.56
324.469	33.45
324.683	45.74
324.896	17.07
325.109	39.59
325.322	-79.19
325.535	96.94
325.748	68.27
325.962	90.79
326.175	27.31
326.388	51.88
326.601	25.26
326.814	68.27
327.027	4.78
327.24	92.84
327.453	-9.56
327.666	51.88
327.879	43.69
328.092	-1.37
328.305	68.27
328.518	82.6
328.731	-30.04
328.944	64.17
329.157	27.31
329.37	148.14
329.583	-17.75
329.796	19.11
330.009	4.78
330.222	39.59
330.435	35.5
330.648	84.65
330.861	27.31
331.073	27.31
331.286	39.59
331.499	51.88
331.712	31.4
331.925	58.03
332.138	101.03
332.35	21.16
332.563	47.79
332.776	-3.41
332.989	17.07
333.202	35.5
333.414	39.59
333.627	25.26
333.84	-25.94
334.053	15.02
334.265	47.79
334.478	43.69
334.691	17.07
334.903	41.64
335.116	33.45
335.329	39.59
335.541	117.42
335.754	70.31
335.966	15.02
336.179	43.69
336.392	-1.37
336.604	82.6
336.817	72.36
337.029	117.42
337.242	31.4
337.454	53.93
337.667	-30.04
337.88	72.36
338.092	68.27
338.305	17.07
338.517	80.55
338.729	49.83
338.942	45.74
339.154	96.94
339.367	25.26
339.579	74.41
339.792	39.59
340.004	51.88
340.217	-17.75
340.429	55.98
340.641	66.22
340.854	55.98
341.066	60.07
341.278	49.83
341.491	17.07
341.703	-1.37
341.915	27.31
342.128	-34.13
342.34	98.99
342.552	53.93
342.764	27.31
342.977	-3.41
343.189	27.31
343.401	33.45
343.613	0.68
343.826	45.74
344.038	-19.8
344.25	41.64
344.462	-32.08
344.674	47.79
344.886	96.94
345.099	74.41
345.311	-38.23
345.523	60.07
345.735	10.92
345.947	76.46
346.159	-38.23
346.371	10.92
346.583	66.22
346.795	101.03
347.007	0.68
347.219	96.94
347.431	55.98
347.643	17.07
347.855	25.26
348.067	78.51
348.279	39.59
348.491	84.65
348.703	123.56
348.915	49.83
349.127	127.66
349.339	51.88
349.551	-1.37
349.763	25.26
349.975	84.65
350.187	19.11
350.399	53.93
350.61	82.6
350.822	-25.94
351.034	74.41
351.246	33.45
351.458	117.42
351.669	10.92
351.881	43.69
352.093	98.99
352.305	60.07
352.517	27.31
352.728	37.55
352.94	125.61
353.152	62.12
353.363	43.69
353.575	12.97
353.787	6.83
353.999	6.83
354.21	70.31
354.422	31.4
354.633	-1.37
354.845	49.83
355.057	0.68
355.268	101.03
355.48	10.92
355.692	39.59
355.903	55.98
356.115	82.6
356.326	21.16
356.538	21.16
356.749	19.11
356.961	37.55
357.172	33.45
357.384	25.26
357.595	162.47
357.807	33.45
358.018	33.45
358.23	64.17
358.441	35.5
358.653	6.83
358.864	4.78
359.075	60.07
359.287	0.68
359.498	41.64
359.709	74.41
359.921	-11.61
360.132	15.02
360.344	94.89
360.555	31.4
360.766	45.74
360.977	70.31
361.189	15.02
361.4	23.21
361.611	53.93
361.823	64.17
362.034	49.83
362.245	21.16
362.456	53.93
362.667	6.83
362.879	53.93
363.09	-9.56
363.301	53.93
363.512	-5.46
363.723	49.83
363.935	45.74
364.146	82.6
364.357	-30.04
364.568	76.46
364.779	41.64
364.99	41.64
365.201	37.55
365.412	80.55
365.623	-9.56
365.834	60.07
366.045	45.74
366.256	45.74
366.467	60.07
366.678	60.07
366.889	-19.8
367.1	-27.99
367.311	82.6
367.522	41.64
367.733	72.36
367.944	23.21
368.155	74.41
368.366	-1.37
368.577	88.75
368.788	47.79
368.999	6.83
369.209	17.07
369.42	37.55
369.631	76.46
369.842	6.83
370.053	58.03
370.264	62.12
370.474	55.98
370.685	109.22
370.896	94.89
371.107	19.11
371.317	35.5
371.528	62.12
371.739	58.03
371.95	74.41
372.16	121.51
372.371	19.11
372.582	-54.61
372.792	33.45
373.003	0.68
373.214	68.27
373.424	107.18
373.635	66.22
373.846	74.41
374.056	68.27
374.267	47.79
374.477	33.45
374.688	15.02
374.898	41.64
375.109	82.6
375.319	107.18
375.53	96.94
375.74	43.69
375.951	76.46
376.161	68.27
376.372	103.08
376.582	21.16
376.793	82.6
377.003	12.97
377.214	45.74
377.424	27.31
377.635	27.31
377.845	60.07
378.055	80.55
378.266	-30.04
378.476	109.22
378.686	76.46
378.897	53.93
379.107	47.79
379.317	88.75
379.528	105.13
379.738	70.31
379.948	64.17
380.158	68.27
380.369	33.45
380.579	125.61
380.789	72.36
380.999	2.73
381.21	19.11
381.42	74.41
381.63	2.73
381.84	23.21
382.05	39.59
382.261	66.22
382.471	68.27
382.681	35.5
382.891	29.35
383.101	45.74
383.311	29.35
383.521	53.93
383.731	103.08
383.941	66.22
384.151	31.4
384.361	107.18
384.571	90.79
384.781	6.83
384.991	119.46
385.201	78.51
385.411	51.88
385.621	23.21
385.831	19.11
386.041	74.41
386.251	74.41
386.461	141.99
386.671	-25.94
386.881	76.46
387.091	35.5
387.301	17.07
387.511	80.55
387.72	86.7
387.93	80.55
388.14	68.27
388.35	-13.65
388.56	60.07
388.769	51.88
388.979	66.22
389.189	55.98
389.399	51.88
389.609	-21.85
389.818	12.97
390.028	80.55
390.238	109.22
390.447	64.17
390.657	121.51
390.867	25.26
391.076	68.27
391.286	39.59
391.496	55.98
391.705	47.79
391.915	88.75
392.125	84.65
392.334	105.13
392.544	47.79
392.753	88.75
392.963	17.07
393.172	98.99
393.382	68.27
393.591	129.7
393.801	39.59
394.01	148.14
394.22	74.41
394.429	113.32
394.639	74.41
394.848	98.99
395.058	31.4
395.267	131.75
395.477	94.89
395.686	37.55
395.895	84.65
396.105	82.6
396.314	58.03
396.524	49.83
396.733	107.18
396.942	131.75
397.152	133.8
397.361	98.99
397.57	72.36
397.78	78.51
397.989	115.37
398.198	107.18
398.407	84.65
398.617	105.13
398.826	88.75
399.035	168.62
399.244	80.55
399.453	146.09
399.663	107.18
399.872	105.13
400.081	45.74
400.29	121.51
400.499	58.03
400.708	76.46
400.917	144.04
401.127	109.22
401.336	88.75
401.545	152.23
401.754	88.75
401.963	125.61
402.172	39.59
402.381	125.61
402.59	139.94
402.799	164.52
403.008	96.94
403.217	66.22
403.426	115.37
403.635	141.99
403.844	55.98
404.053	164.52
404.262	105.13
404.471	185
404.68	150.18
404.888	158.38
405.097	113.32
405.306	156.33
405.515	139.94
405.724	166.57
405.933	164.52
406.142	141.99
406.35	168.62
406.559	215.72
406.768	168.62
406.977	203.43
407.185	182.95
407.394	246.44
407.603	166.57
407.812	209.58
408.02	201.38
408.229	213.67
408.438	240.29
408.646	193.19
408.855	211.62
409.064	262.82
409.272	203.43
409.481	262.82
409.69	287.4
409.898	268.97
410.107	324.26
410.315	262.82
410.524	309.93
410.733	346.79
410.941	334.5
411.15	336.55
411.358	301.73
411.567	400.04
411.775	326.31
411.984	322.21
412.192	428.71
412.401	428.71
412.609	461.48
412.818	418.47
413.026	453.28
413.234	488.1
413.443	506.53
413.651	524.96
413.86	533.15
414.068	549.54
414.276	506.53
414.485	608.93
414.693	547.49
414.901	719.52
415.11	635.55
415.318	684.7
415.526	674.46
415.734	721.57
415.943	678.56
416.151	830.11
416.359	768.67
416.567	821.92
416.776	770.72
416.984	860.83
417.192	909.98
417.4	879.26
417.608	893.6
417.817	942.75
418.025	899.74
418.233	1055.39
418.441	1082.01
418.649	1120.92
418.857	1186.46
419.065	1190.55
419.273	1196.7
419.481	1208.98
419.689	1235.61
419.897	1325.72
420.105	1487.51
420.313	1338.01
420.521	1530.52
420.729	1479.32
420.937	1530.52
421.145	1598.1
421.353	1632.91
421.561	1620.63
421.769	1759.89
421.977	1829.52
422.185	1823.37
422.393	2003.6
422.601	2103.95
422.809	2048.65
423.017	2054.8
423.224	2171.53
423.432	2265.74
423.64	2247.3
423.848	2445.96
424.056	2294.41
424.263	2605.7
424.471	2599.55
424.679	2558.6
424.887	2757.25
425.094	2749.06
425.302	2912.89
425.51	2976.38
425.718	2937.47
425.925	2998.91
426.133	3146.36
426.341	3357.3
426.548	3601.01
426.756	3584.63
426.964	3566.2
427.171	3783.28
427.379	3986.03
427.586	3914.35
427.794	3955.31
428.001	4233.83
428.209	4424.3
428.417	4401.77
428.624	4596.32
428.832	4688.48
429.039	4602.47
429.247	4717.15
429.454	5030.49
429.662	5384.79
429.869	4999.77
430.076	5413.46
430.284	5180
430.491	5466.71
430.699	5825.11
430.906	5778
431.114	5839.44
431.321	6122.06
431.528	6171.21
431.736	6486.6
431.943	6826.56
432.15	6709.83
432.358	6853.19
432.565	7111.23
432.772	7170.62
432.979	7352.89
433.187	7758.39
433.394	7514.68
433.601	8047.15
433.808	8210.99
434.016	8153.65
434.223	8438.31
434.43	8878.63
434.637	8718.89
434.844	9245.21
435.052	9286.17
435.259	9323.04
435.466	9572.89
435.673	9378.33
435.88	10230.29
436.087	10805.77
436.294	10598.92
436.501	10267.15
436.708	10576.39
436.915	10906.12
437.122	11215.36
437.329	11262.46
437.537	11790.84
437.743	12016.12
437.95	11854.33
438.157	12415.47
438.364	12851.69
438.571	12810.73
438.778	12882.41
438.985	13961.69
439.192	13443.55
439.399	14225.87
439.606	13457.89
439.813	14449.1
440.02	15331.78
440.227	14991.81
440.433	14977.48
440.64	15315.39
440.847	15423.94
441.054	15772.09
441.261	16654.76
441.467	16345.52
441.674	16859.56
441.881	17389.99
442.088	17494.43
442.294	17258.92
442.501	17889.69
442.708	18233.75
442.914	18653.58
443.121	19538.3
443.328	19032.46
443.534	20253.05
443.741	19616.13
443.948	19523.97
444.154	20996.46
444.361	20697.45
444.568	20842.86
444.774	21029.23
444.981	21565.79
445.187	21539.17
445.394	22663.5
445.6	22565.2
445.807	24473.91
446.013	23431.49
446.22	23869.76
446.426	24869.17
446.633	25272.62
446.839	26046.75
447.046	24807.73
447.252	26317.08
447.459	25997.6
447.665	26491.16
447.871	27293.96
448.078	28498.17
448.284	27027.73
448.491	27996.42
448.697	29217
448.903	29593.83
449.11	29622.5
449.316	28969.2
449.522	29511.91
449.728	30793.94
449.935	30671.06
450.141	30869.72
450.347	31723.72
450.553	30458.07
450.76	30470.36
450.966	31824.07
451.172	31633.61
451.378	32626.87
451.584	31615.18
451.791	32329.92
451.997	32516.28
452.203	33030.32
452.409	33173.68
452.615	32991.41
452.821	31504.59
453.027	31379.66
453.233	33003.7
453.44	31420.62
453.646	31776.97
453.852	31975.62
454.058	32544.95
454.264	31451.34
454.47	32168.13
454.676	31361.23
454.882	32563.39
455.088	29864.16
455.294	29743.33
455.5	30660.82
455.705	31025.36
455.911	30025.95
456.117	29307.12
456.323	28965.1
456.529	27171.08
456.735	28547.32
456.941	27863.3
457.147	27228.43
457.352	26255.64
457.558	26028.32
457.764	26169.63
457.97	25809.18
458.176	25112.88
458.381	24910.13
458.587	23923.01
458.793	23945.53
458.999	22845.77
459.204	24467.77
459.41	23568.71
459.616	22018.39
459.821	22145.37
460.027	22315.35
460.233	21772.64
460.438	20623.73
460.644	20816.24
460.85	19714.43
461.055	19519.87
461.261	19472.77
461.466	18149.78
461.672	17537.44
461.878	19171.72
462.083	17822.11
462.289	17422.75
462.494	17090.98
462.7	16402.86
462.905	16163.25
463.111	16480.69
463.316	16601.52
463.522	16396.72
463.727	16210.36
463.932	16148.92
464.138	16271.79
464.343	16181.68
464.549	15555.01
464.754	16239.03
464.959	15919.54
465.165	15915.45
465.37	15212.99
465.575	14883.27
465.781	15335.87
465.986	15643.07
466.191	15047.11
466.397	14858.7
466.602	14057.94
466.807	14516.69
467.012	14461.39
467.218	14639.56
467.423	14264.78
467.628	14299.6
467.833	14891.46
468.038	14426.57
468.244	14070.23
468.449	14625.23
468.654	14180.82
468.859	14160.34
469.064	14068.18
469.269	13597.15
469.474	13605.34
469.679	13672.92
469.885	13373.92
470.09	13703.64
470.295	13455.84
470.5	12925.41
470.705	13152.74
470.91	12741.1
471.115	12818.92
471.32	13056.48
471.525	13029.86
471.73	12691.94
471.935	12364.27
472.139	12063.22
472.344	12460.52
472.549	12356.08
472.754	12022.26
472.959	11999.73
473.164	11629.05
473.369	11231.74
473.574	11874.81
473.778	11780.6
473.983	11590.14
474.188	11534.84
474.393	10846.73
474.598	11178.5
474.802	11063.81
475.007	10881.54
475.212	10889.73
475.417	10500.62
475.621	10656.26
475.826	10658.31
476.031	10330.64
476.235	10060.31
476.44	10338.83
476.645	10265.1
476.849	10197.52
477.054	9943.57
477.259	9830.93
477.463	9853.46
477.668	9572.89
477.872	9779.73
478.077	9681.43
478.282	9404.96
478.486	9388.57
478.691	9339.42
478.895	9404.96
479.1	9234.97
479.304	9206.3
479.509	8878.63
479.713	9142.82
479.918	8870.44
480.122	8841.76
480.326	8905.25
480.531	8976.93
480.735	8645.16
480.94	8567.34
481.144	8890.92
481.348	8530.47
481.553	8632.87
481.757	8432.17
481.961	8583.72
482.166	8780.32
482.37	8720.93
482.574	8321.58
482.778	8413.74
482.983	8651.3
483.187	8579.62
483.391	8520.23
483.595	8550.95
483.8	8426.03
484.004	8321.58
484.208	8626.73
484.412	8387.11
484.616	8477.23
484.821	8495.66
485.025	8479.27
485.229	8581.67
485.433	8512.04
485.637	8624.68
485.841	8358.44
486.045	8456.75
486.249	8514.09
486.453	8489.51
486.657	8483.37
486.861	8647.21
487.065	8309.29
487.269	8479.27
487.473	8391.21
487.677	8458.79
487.881	8698.41
488.085	8354.35
488.289	8579.62
488.493	8567.34
488.697	8557.1
488.901	8571.43
489.105	8796.71
489.309	8651.3
489.512	8647.21
489.716	8698.41
489.92	8794.66
490.124	8643.11
490.328	8620.58
490.531	8675.88
490.735	8636.97
490.939	8833.57
491.143	8821.28
491.346	8712.74
491.55	8989.22
491.754	8821.28
491.958	8960.55
492.161	8946.21
492.365	9028.13
492.569	9028.13
492.772	8911.39
492.976	9187.87
493.18	9175.58
493.383	9323.04
493.587	9533.98
493.79	9265.69
493.994	9341.47
494.197	9404.96
494.401	9724.44
494.605	9478.68
494.808	9939.48
495.012	9941.52
495.215	9976.34
495.419	9904.66
495.622	9857.56
495.825	10215.95
496.029	10226.19
496.232	10433.04
496.436	10240.53
496.639	10650.12
496.843	10580.49
497.046	10867.2
497.249	10945.03
497.453	11041.28
497.656	10897.92
497.859	11069.95
498.063	11188.74
498.266	11430.4
498.469	11350.53
498.673	11518.46
498.876	11678.2
499.079	11981.3
499.282	11622.91
499.485	12321.26
499.689	12067.31
499.892	12503.53
500.095	12509.68
500.298	12790.25
500.501	12833.25
500.705	13036
500.908	13130.21
501.111	13531.61
501.314	13365.73
501.517	13566.43
501.72	13677.02
501.923	13658.59
502.126	14000.6
502.329	14424.53
502.532	14399.95
502.735	14559.69
502.938	14758.35
503.141	15053.25
503.344	15370.69
503.547	15288.77
503.75	15327.68
503.953	15767.99
504.156	15794.62
504.359	16224.69
504.562	16069.05
504.765	16660.91
504.968	16898.47
505.17	16957.86
505.373	17299.87
505.576	17473.95
505.779	17783.2
505.982	17801.63
506.185	18393.49
506.387	18268.56
506.59	18694.54
506.793	19028.36
506.996	18686.35
507.198	19308.93
507.401	19243.4
507.604	19536.26
507.807	19988.86
508.009	19941.75
508.212	20263.29
508.415	20472.18
508.617	21152.1
508.82	21240.17
509.022	21082.47
509.225	21641.57
509.428	22014.3
509.63	22126.94
509.833	22180.18
510.035	22626.64
510.238	22765.9
510.44	23431.49
510.643	23486.79
510.845	23939.39
511.048	23890.24
511.25	24215.87
511.453	24195.39
511.655	25313.58
511.858	24846.64
512.06	25254.19
512.262	25549.09
512.465	25887.01
512.667	25938.21
512.87	26638.61
513.072	26908.94
513.274	27052.3
513.477	27375.88
513.679	27646.21
513.881	28080.38
514.084	28561.65
514.286	28477.69
514.488	28535.03
514.69	29769.96
514.893	29538.54
515.095	29976.8
515.297	30308.57
515.499	30378.2
515.701	30855.38
515.904	31297.74
516.106	31371.47
516.308	31985.86
516.51	32561.34
516.712	32559.29
516.914	32639.16
517.116	33556.65
517.318	33231.02
517.52	33851.56
517.722	33636.52
517.925	34701.47
518.127	34906.26
518.329	35266.7
518.531	35035.28
518.733	35782.79
518.935	36075.65
519.136	36102.28
519.338	36909.18
519.54	37197.94
519.742	37621.87
519.944	37509.23
520.146	38211.68
520.348	38545.5
520.55	38324.32
520.752	38805.59
520.954	39739.47
521.155	39331.92
521.357	40065.1
521.559	40163.4
521.761	40943.67
521.963	40833.08
522.164	41013.3
522.366	41343.03
522.568	41463.86
522.77	42240.04
522.971	42770.46
523.173	42227.75
523.375	42942.49
523.576	43221.02
523.778	43151.38
523.98	43730.96
524.181	44578.82
524.383	44300.29
524.584	44937.21
524.786	44939.26
524.988	44224.52
525.189	45203.45
525.391	45195.26
525.592	45729.78
525.794	45813.74
525.995	46133.23
526.197	46045.16
526.398	46125.03
526.6	46610.4
526.801	46946.27
527.003	46725.09
527.204	47253.47
527.406	47613.91
527.607	47394.78
527.808	48322.51
528.01	47157.21
528.211	47706.07
528.412	48959.42
528.614	48420.81
528.815	48504.77
529.016	48793.54
529.218	48521.16
529.419	49024.96
529.62	49029.05
529.822	48773.06
530.023	49166.27
530.224	49096.64
530.425	49190.84
530.626	49379.26
530.828	48959.42
531.029	49721.27
531.23	49727.41
531.431	49051.58
531.632	49366.97
531.833	50132.91
532.035	50190.25
532.236	49952.69
532.437	50624.42
532.638	49790.9
532.839	50413.48
533.04	50587.56
533.241	49371.07
533.442	50972.58
533.643	50210.73
533.844	50388.91
534.045	50442.15
534.246	49641.4
534.447	50665.38
534.648	50190.25
534.849	50368.43
535.05	50057.13
535.251	50644.9
535.451	50366.38
535.652	50517.93
535.853	50608.04
536.054	50659.24
536.255	50763.68
536.456	50401.19
536.657	51421.08
536.857	50784.16
537.058	50603.94
537.259	50935.71
537.46	50462.63
537.66	50821.03
537.861	50941.86
538.062	50745.25
538.263	50884.51
538.463	50765.73
538.664	50569.13
538.865	50861.99
539.065	51199.9
539.266	50229.16
539.466	50706.34
539.667	50522.02
539.868	51476.38
540.068	50923.43
540.269	50784.16
540.469	50853.79
540.67	50968.48
540.87	50509.74
541.071	50689.96
541.271	51314.59
541.472	50669.48
541.672	50427.82
541.873	50370.47
542.073	50237.36
542.274	51099.55
542.474	50591.65
542.675	50522.02
542.875	51027.87
543.075	50421.67
543.276	50417.58
543.476	51062.69
543.676	50519.98
543.877	50945.95
544.077	50470.82
544.277	50339.75
544.478	50646.95
544.678	50997.15
544.878	51103.65
545.078	51292.06
545.279	50409.39
545.479	50210.73
545.679	50737.06
545.879	50761.64
546.079	50589.61
546.28	50673.57
546.48	50233.26
546.68	50665.38
546.88	50710.44
547.08	50515.88
547.28	50452.39
547.48	50575.27
547.68	50423.72
547.88	50206.64
548.081	50722.72
548.281	50503.59
548.481	50210.73
548.681	50845.6
548.881	50476.97
549.081	50304.94
549.28	50534.31
549.48	50380.71
549.68	50192.3
549.88	51222.43
550.08	50255.79
550.28	50442.15
550.48	49903.54
550.68	50945.95
550.88	50278.32
551.08	50507.69
551.279	50298.8
551.479	50186.16
551.679	50425.77
551.879	50335.66
552.079	50515.88
552.278	50120.62
552.478	50360.23
552.678	50255.79
552.878	50601.89
553.077	49815.47
553.277	50159.53
553.477	50687.91
553.676	49985.46
553.876	50063.28
554.076	49866.67
554.275	49926.06
554.475	49670.07
554.674	49700.79
554.874	50212.78
555.074	49596.34
555.273	50005.94
555.473	49840.05
555.672	49473.46
555.872	49645.49
556.071	49541.05
556.271	49680.31
556.47	49524.66
556.67	49409.98
556.869	49557.43
557.068	49926.06
557.268	49045.44
557.467	49375.16
557.667	49317.82
557.866	49336.25
558.065	49008.57
558.265	49274.81
558.464	49094.59
558.663	49149.88
558.863	48760.77
559.062	49483.7
559.261	48932.8
559.461	49211.32
559.66	48467.91
559.859	49147.84
560.058	48332.75
560.258	48957.38
560.457	47810.51
560.656	48500.68
560.855	48195.53
561.054	48547.78
561.253	47917.01
561.453	48320.46
561.652	48484.29
561.851	48148.43
562.05	48295.88
562.249	47796.18
562.448	48515.01
562.647	47865.81
562.846	47882.19
563.045	48371.66
563.244	47343.58
563.443	48197.58
563.642	47300.57
563.841	47857.62
564.04	47402.97
564.239	47663.06
564.438	47550.42
564.637	47531.99
564.836	47620.05
565.035	47079.39
565.234	47548.37
565.432	46913.5
565.631	47380.44
565.83	47034.33
566.029	46974.94
566.228	46624.74
566.427	46962.65
566.625	46534.63
566.824	46327.78
567.023	46733.28
567.222	46045.16
567.42	46884.83
567.619	46491.62
567.818	46608.36
568.016	45934.57
568.215	46270.44
568.414	45897.71
568.612	46450.66
568.811	45950.96
569.01	45920.24
569.208	44965.88
569.407	45658.1
569.605	45156.35
569.804	45912.05
570.002	44982.27
570.201	45524.98
570.4	44859.39
570.598	44953.6
570.797	44861.44
570.995	44832.77
571.193	44331.01
571.392	45170.68
571.59	44277.77
571.789	44525.57
571.987	44195.85
572.186	44206.09
572.384	44466.18
572.582	44341.25
572.781	44457.99
572.979	43511.83
573.177	43669.52
573.376	43841.55
573.574	42917.92
573.772	43800.59
573.971	43276.31
574.169	42885.15
574.367	42616.86
574.565	43266.07
574.763	42809.37
574.962	42764.32
575.16	42381.35
575.358	42772.51
575.556	42383.4
575.754	43061.27
575.952	42098.73
576.151	41986.09
576.349	41771.05
576.547	41967.66
576.745	41807.92
576.943	42084.39
577.141	41748.53
577.339	41580.59
577.537	41513.01
577.735	41070.65
577.933	41109.56
578.131	41130.04
578.329	40605.76
578.527	40888.38
578.725	40851.52
578.923	40917.05
579.121	40388.67
579.319	40364.1
579.516	40482.88
579.714	40286.28
579.912	39936.07
580.11	40003.66
580.308	39958.6
580.506	39958.6
580.704	39551.06
580.901	39667.79
581.099	39958.6
581.297	39503.95
581.495	39282.77
581.692	39469.14
581.89	39211.09
582.088	39202.9
582.285	38883.42
582.483	39057.49
582.681	38529.12
582.878	38643.8
583.076	38148.2
583.274	38414.43
583.471	37873.77
583.669	38064.23
583.866	37877.86
584.064	38053.99
584.262	37662.83
584.459	38062.18
584.657	37525.61
584.854	37896.3
585.052	37204.08
585.249	37517.42
585.447	37634.16
585.644	37148.79
585.841	36894.84
586.039	37484.65
586.236	36753.53
586.434	36933.75
586.631	36393.09
586.828	36460.67
587.026	36655.23
587.223	36489.34
587.42	36098.18
587.618	36413.57
587.815	36061.32
588.012	36034.69
588.21	35758.22
588.407	35960.97
588.604	35530.89
588.801	35223.7
588.999	35704.97
589.196	35582.09
589.393	35692.68
589.59	35098.77
589.787	35018.9
589.984	34803.86
590.182	34130.08
590.379	35059.86
590.576	34637.98
590.773	35035.28
590.97	34148.51
591.167	34504.86
591.364	34238.62
591.561	34533.53
591.758	33900.71
591.955	33816.74
592.152	34244.77
592.349	33464.49
592.546	33941.67
592.743	34009.25
592.94	33173.68
593.137	33695.91
593.334	33476.78
593.531	33247.41
593.727	33196.21
593.924	33200.3
594.121	32835.77
594.318	32659.64
594.515	32624.82
594.712	32608.44
594.908	32391.36
595.105	32733.37
595.302	32157.89
595.499	32680.12
595.696	32139.46
595.892	31787.21
596.089	32084.16
596.286	32086.21
596.482	31774.92
596.679	31793.35
596.876	32008.39
597.072	31502.54
597.269	31776.97
597.466	31652.04
597.662	31205.58
597.859	31508.68
598.055	31181.01
598.252	31109.33
598.448	31183.05
598.645	30632.15
598.841	30597.34
599.038	31021.27
599.234	30701.78
599.431	30580.95
599.627	30374.11
599.824	30494.94
600.02	30320.86
600.217	30589.14
600.413	30320.86
600.609	30267.61
600.806	29993.18
601.002	29984.99
601.198	29751.52
601.395	29477.1
601.591	29812.96
601.787	29487.34
601.984	29366.51
602.18	29524.2
602.376	29599.97
602.572	29210.86
602.769	28946.67
602.965	28764.4
603.161	28868.85
603.357	28909.81
603.553	28752.12
603.75	28598.52
603.946	28619
604.142	28340.47
604.338	28080.38
604.534	28315.9
604.73	27771.14
604.926	27982.08
605.122	28027.13
605.318	27623.69
605.514	27621.64
605.71	28010.75
605.906	27650.31
606.102	27848.96
606.298	27418.89
606.494	27083.02
606.69	27517.19
606.886	27226.38
607.082	26478.87
607.278	27359.5
607.474	26808.59
607.67	26880.27
607.866	26382.62
608.062	26900.75
608.257	26693.91
608.453	26622.23
608.649	26638.61
608.845	26396.95
609.041	26208.54
609.236	26136.86
609.432	26069.28
609.628	25897.25
609.824	25680.16
610.019	26138.91
610.215	25854.24
610.411	25690.4
610.606	25475.37
610.802	25921.82
610.998	25694.5
611.193	25844
611.389	25303.34
611.584	25354.54
611.78	24969.52
611.976	25354.54
612.171	24981.81
612.367	24959.28
612.562	24783.15
612.758	24459.57
612.953	24676.66
613.149	25004.33
613.344	24594.74
613.539	25280.81
613.735	24426.81
613.93	24359.22
614.126	24488.24
614.321	24652.08
614.517	24400.18
614.712	24150.33
614.907	24039.74
615.103	24170.81
615.298	23945.53
615.493	24215.87
615.688	23820.61
615.884	24254.78
616.079	23634.24
616.274	23718.21
616.47	23642.43
616.665	23585.09
616.86	23390.53
617.055	23486.79
617.25	23261.51
617.445	23355.72
617.641	23165.26
617.836	23234.89
618.031	22778.19
618.226	23060.81
618.421	22804.81
618.616	23298.38
618.811	22733.14
619.006	22946.12
619.201	22434.13
619.396	22571.35
619.591	22305.11
619.786	22317.4
619.981	22149.46
620.176	22083.93
620.371	21684.58
620.566	21985.63
620.761	21864.8
620.956	21877.08
621.151	21545.31
621.346	21619.04
621.541	21281.13
621.735	21516.64
621.93	20758.89
622.125	21215.59
622.32	20611.44
622.515	20892.01
622.709	20519.28
622.904	20707.69
623.099	20511.09
623.294	20543.86
623.488	20158.84
623.683	20400.5
623.878	20199.8
624.072	20095.35
624.267	19990.91
624.462	19696
624.656	19552.64
624.851	19865.98
625.046	19509.63
625.24	19358.08
625.435	19192.2
625.629	19261.83
625.824	18866.57
626.018	18960.78
626.213	18385.3
626.407	18921.87
626.602	18573.71
626.796	18604.43
626.991	18575.76
627.185	18420.11
627.38	18323.86
627.574	18033.05
627.768	17791.39
627.963	18041.24
628.157	17752.48
628.352	17953.18
628.546	17654.17
628.74	17709.47
628.935	17361.31
629.129	17500.58
629.323	17041.83
629.517	17220
629.712	17355.17
629.906	16884.14
630.1	16834.99
630.294	16972.2
630.489	16738.73
630.683	16845.23
630.877	16466.35
631.071	16468.4
631.265	16372.14
631.459	16411.06
631.653	16128.44
631.848	16372.14
632.042	16193.97
632.236	16107.96
632.43	15903.16
632.624	15995.32
632.818	15767.99
633.012	15749.56
633.206	15550.91
633.4	15690.17
633.594	15458.75
633.788	15407.55
633.982	15430.08
634.176	15333.82
634.369	15454.65
634.563	15010.25
634.757	14909.9
634.951	15182.28
635.145	14862.79
635.339	15067.59
635.533	14522.83
635.726	14635.47
635.92	14557.64
636.114	14553.55
636.308	14500.3
636.501	14344.66
636.695	14195.15
636.889	14041.56
637.083	14215.63
637.276	14121.43
637.47	13955.54
637.664	13939.16
637.857	13941.21
638.051	13787.61
638.244	13593.05
638.438	13677.02
638.632	13695.45
638.825	13486.56
639.019	13513.18
639.212	13486.56
639.406	13433.31
639.599	13238.75
639.793	13332.96
639.986	13111.78
640.18	13048.29
640.373	12986.85
640.567	12714.47
640.76	12802.54
640.954	12593.64
641.147	12620.27
641.34	12646.89
641.534	12462.57
641.727	12415.47
641.92	12431.85
642.114	12198.38
642.307	12296.69
642.5	12323.31
642.694	12061.17
642.887	12163.57
643.08	12030.45
643.273	12141.04
643.467	11997.68
643.66	11528.7
643.853	11803.13
644.046	11719.16
644.239	11624.95
644.432	11354.62
644.626	11594.23
644.819	11280.89
645.012	11454.97
645.205	11301.37
645.398	11215.36
645.591	10992.13
645.784	10969.6
645.977	10922.5
646.17	11090.43
646.363	10719.75
646.556	10658.31
646.749	10760.71
646.942	10746.37
647.135	10650.12
647.328	10453.52
647.521	10447.37
647.714	10414.6
647.907	10279.44
648.099	10265.1
648.292	10230.29
648.485	10152.46
648.678	9824.79
648.871	10123.79
649.064	10023.44
649.256	10050.07
649.449	9730.58
649.642	9949.71
649.835	9710.1
650.027	9652.76
650.22	9474.59
650.413	9564.7
650.605	9542.17
650.798	9470.49
650.991	9415.19
651.183	9329.18
651.376	9126.43
651.568	9310.75
651.761	9138.72
651.954	9071.14
652.146	9042.46
652.339	8925.73
652.531	9083.42
652.724	8759.84
652.916	8772.13
653.109	8706.6
653.301	8794.66
653.494	8716.84
653.686	8436.27
653.879	8395.31
654.071	8479.27
654.263	8516.14
654.456	8411.69
654.648	8260.14
654.84	7938.61
655.033	8000.05
655.225	7995.95
655.417	8034.86
655.61	7887.41
655.802	8104.49
655.994	8020.53
656.186	7879.22
656.379	7868.98
656.571	7922.23
656.763	7703.09
656.955	7750.2
657.148	7658.04
657.34	7594.55
657.532	7488.06
657.724	7584.31
657.916	7526.97
658.108	7252.54
658.3	7287.36
658.492	7227.96
658.684	7125.57
658.876	7037.5
659.068	7051.84
659.26	7168.57
659.452	6969.92
659.644	6971.97
659.836	6787.65
660.028	6842.95
660.22	6679.11
660.412	6724.16
660.604	6732.36
660.796	6619.72
660.988	6660.68
661.18	6523.46
661.372	6478.41
661.563	6496.84
661.755	6484.55
661.947	6470.22
662.139	6265.42
662.331	6238.8
662.522	6203.98
662.714	6265.42
662.906	6160.97
663.097	6072.91
663.289	6040.14
663.481	5892.69
663.673	6013.52
663.864	5845.59
664.056	5794.39
664.247	5794.39
664.439	5704.28
664.631	5773.91
664.822	5786.19
665.014	5716.56
665.205	5722.71
665.397	5524.05
665.588	5624.4
665.78	5499.48
665.971	5515.86
666.163	5392.98
666.354	5282.39
666.546	5390.94
666.737	5249.63
666.929	5368.41
667.12	5270.11
667.311	5186.14
667.503	5089.88
667.694	5286.49
667.885	5161.56
668.077	5093.98
668.268	5032.54
668.459	5102.17
668.651	5171.8
668.842	4762.21
669.033	4835.94
669.224	4815.46
669.416	4924
669.607	4958.81
669.798	4835.94
669.989	4909.66
670.18	4743.78
670.371	4840.03
670.563	4694.63
670.754	4696.67
670.945	4729.44
671.136	4668
671.327	4618.85
671.518	4633.19
671.709	4555.37
671.9	4670.05
672.091	4577.89
672.282	4514.41
672.473	4412.01
672.664	4627.04
672.855	4375.14
673.046	4549.22
673.237	4510.31
673.428	4481.64
673.619	4440.68
673.809	4321.9
674	4350.57
674.191	4401.77
674.382	4289.13
674.573	4346.47
674.764	4371.05
674.954	4313.7
675.145	4135.53
675.336	4289.13
675.527	4297.32
675.717	4321.9
675.908	4246.12
676.099	4070
676.289	4057.71
676.48	4043.37
676.671	4088.43
676.861	4133.48
677.052	3943.02
677.243	3949.17
677.433	4104.81
677.624	4000.37
677.814	4031.09
678.005	3963.5
678.195	3945.07
678.386	3947.12
678.576	3947.12
678.767	3930.73
678.957	3875.44
679.148	3924.59
679.338	3805.81
679.529	3795.57
679.719	3930.73
679.909	3918.45
680.1	3873.39
680.29	3879.54
680.481	3912.3
680.671	3793.52
680.861	3793.52
681.052	3828.34
681.242	3881.58
681.432	3875.44
681.622	3678.83
681.813	3672.69
682.003	3760.75
682.193	3740.27
682.383	3693.17
682.573	3676.79
682.764	3676.79
682.954	3660.4
683.144	3621.49
683.334	3752.56
683.524	3691.12
683.714	3680.88
683.904	3598.96
684.094	3545.72
684.284	3719.79
684.474	3568.24
684.664	3648.11
684.854	3687.03
685.044	3588.72
685.234	3494.52
685.424	3693.17
685.614	3560.05
685.804	3451.51
685.994	3508.85
686.184	3592.82
686.374	3674.74
686.564	3496.57
686.753	3555.96
686.943	3461.75
687.133	3545.72
687.323	3555.96
687.513	3570.29
687.702	3508.85
687.892	3515
688.082	3574.39
688.272	3629.68
688.461	3431.03
688.651	3605.11
688.841	3537.52
689.03	3385.97
689.22	3455.61
689.41	3498.61
689.599	3555.96
689.789	3490.42
689.979	3439.22
690.168	3508.85
690.358	3531.38
690.547	3439.22
690.737	3371.64
690.926	3441.27
691.116	3400.31
691.305	3424.89
691.495	3580.53
691.684	3555.96
691.874	3476.09
692.063	3416.69
692.252	3564.15
692.442	3502.71
692.631	3441.27
692.82	3402.36
693.01	3363.45
693.199	3467.89
693.388	3336.82
693.578	3431.03
693.767	3349.11
693.956	3551.86
694.146	3594.87
694.335	3447.41
694.524	3396.21
694.713	3498.61
694.902	3492.47
695.092	3543.67
695.281	3359.35
695.47	3377.78
695.659	3406.45
695.848	3529.33
696.037	3431.03
696.226	3349.11
696.415	3418.74
696.604	3316.34
696.793	3385.97
696.982	3365.5
697.171	3383.93
697.36	3461.75
697.549	3263.1
697.738	3320.44
697.927	3318.39
698.116	3410.55
698.305	3302.01
698.494	3297.91
698.683	3320.44
698.872	3398.26
699.061	3269.24
699.25	3340.92
699.438	3367.54
699.627	3271.29
699.816	3269.24
700.005	3222.14
700.193	3185.27
700.382	3342.97
700.571	3084.92
700.76	3193.47
700.948	3170.94
701.137	3213.95
701.326	3179.13
701.514	3074.68
701.703	3259
701.892	3254.9
702.08	3267.19
702.269	3287.67
702.457	3148.41
702.646	3115.64
702.834	3136.12
703.023	3240.57
703.212	3074.68
703.4	3082.88
703.589	3129.98
703.777	3121.79
703.965	3070.59
704.154	3086.97
704.342	3056.25
704.531	3160.7
704.719	3066.49
704.907	3015.29
705.096	2966.14
705.284	3009.15
705.472	3005.05
705.661	2941.57
705.849	3070.59
706.037	2910.85
706.226	2986.62
706.414	2955.9
706.602	2974.33
706.79	2937.47
706.979	2857.6
707.167	2906.75
707.355	2921.09
707.543	2841.22
707.731	2867.84
707.919	2943.61
708.107	2857.6
708.296	2873.98
708.484	2755.2
708.672	2931.33
708.86	2839.17
709.048	2845.31
709.236	2820.74
709.424	2665.09
709.612	2634.37
709.8	2691.71
709.988	2761.34
710.176	2704
710.364	2751.1
710.551	2609.79
710.739	2671.23
710.927	2665.09
711.115	2597.51
711.303	2663.04
711.491	2656.9
711.679	2630.27
711.866	2697.86
712.054	2630.27
712.242	2640.51
712.43	2595.46
712.617	2534.02
712.805	2458.25
712.993	2636.42
713.181	2380.42
713.368	2501.25
713.556	2529.92
713.744	2517.64
713.931	2495.11
714.119	2484.87
714.306	2460.29
714.494	2396.81
714.682	2443.91
714.869	2210.44
715.057	2425.48
715.244	2300.55
715.432	2335.37
715.619	2333.32
715.807	2359.94
715.994	2433.67
716.182	2308.74
716.369	2243.21
716.556	2257.54
716.744	2212.49
716.931	2187.91
717.119	2308.74
717.306	2232.97
717.493	2290.31
717.681	2185.87
717.868	2206.35
718.055	2165.39
718.242	2204.3
718.43	2228.87
718.617	2177.67
718.804	2005.64
718.991	2110.09
719.179	2149
719.366	2093.71
719.553	2198.15
719.74	2052.75
719.927	2044.56
720.114	2116.23
720.301	1979.02
720.488	2118.28
720.676	1991.31
720.863	2105.99
721.05	2001.55
721.237	2032.27
721.424	1987.21
721.611	2044.56
721.798	1942.16
721.985	2026.12
722.172	1942.16
722.358	1880.72
722.545	1915.53
722.732	1843.85
722.919	1886.86
723.106	1845.9
723.293	1956.49
723.48	1876.62
723.667	1919.63
723.853	1890.96
724.04	1950.35
724.227	1786.51
724.414	1874.57
724.6	1841.81
724.787	1831.57
724.974	1802.9
725.161	1784.46
725.347	1862.29
725.534	1772.18
725.72	1747.6
725.907	1751.7
726.094	1825.42
726.28	1763.98
726.467	1780.37
726.653	1780.37
726.84	1813.13
727.027	1768.08
727.213	1778.32
727.4	1747.6
727.586	1686.16
727.773	1659.54
727.959	1710.74
728.145	1743.5
728.332	1618.58
728.518	1618.58
728.705	1774.22
728.891	1720.98
729.077	1653.39
729.264	1641.11
729.45	1596.05
729.636	1622.67
729.823	1682.06
730.009	1598.1
730.195	1655.44
730.382	1618.58
730.568	1497.75
730.754	1630.87
730.94	1544.85
731.126	1507.99
731.313	1571.47
731.499	1553.04
731.685	1594
731.871	1456.79
732.057	1534.61
732.243	1434.26
732.429	1419.92
732.615	1512.08
732.801	1507.99
732.987	1479.32
733.173	1524.37
733.359	1360.53
733.545	1446.55
733.731	1514.13
733.917	1444.5
734.103	1505.94
734.289	1374.87
734.475	1444.5
734.661	1452.69
734.847	1389.21
735.033	1358.49
735.219	1413.78
735.404	1333.91
735.59	1430.16
735.776	1462.93
735.962	1290.9
736.148	1401.49
736.333	1428.12
736.519	1350.29
736.705	1358.49
736.89	1342.1
737.076	1366.68
737.262	1272.47
737.447	1254.04
737.633	1358.49
737.819	1233.56
738.004	1342.1
738.19	1305.24
738.375	1319.57
738.561	1350.29
738.747	1251.99
738.932	1233.56
739.118	1356.44
739.303	1321.62
739.489	1221.27
739.674	1268.38
739.859	1317.53
740.045	1194.65
740.23	1317.53
740.416	1223.32
740.601	1198.74
740.786	1231.51
740.972	1274.52
741.157	1170.07
741.342	1190.55
741.528	1215.13
741.713	1233.56
741.898	1125.02
742.084	1163.93
742.269	1139.35
742.454	1143.45
742.639	1086.11
742.824	1088.15
743.01	1256.09
743.195	1204.89
743.38	1098.39
743.565	1036.95
743.75	1104.54
743.935	1071.77
744.12	1153.69
744.305	1028.76
744.49	1057.43
744.675	1061.53
744.86	1073.82
745.045	1088.15
745.23	1163.93
745.415	1157.79
745.6	1063.58
745.785	979.61
745.97	1098.39
746.155	1075.87
746.34	955.04
746.525	969.37
746.71	1043.1
746.895	1055.39
747.079	991.9
747.264	1022.62
747.449	998.04
747.634	1032.86
747.819	996
748.003	973.47
748.188	973.47
748.373	993.95
748.557	920.22
748.742	957.08
748.927	899.74
749.111	891.55
749.296	948.89
749.481	959.13
749.665	918.17
749.85	907.93
750.034	948.89
750.219	942.75
750.404	871.07
750.588	922.27
750.773	916.12
750.957	875.17
751.141	912.03
751.326	828.06
751.51	873.12
751.695	893.6
751.879	842.4
752.064	866.97
752.248	811.68
752.432	844.45
752.617	928.41
752.801	760.48
752.985	821.92
753.17	801.44
753.354	858.78
753.538	778.91
753.722	772.77
753.907	799.39
754.091	799.39
754.275	776.86
754.459	754.34
754.643	793.25
754.828	694.94
755.012	828.06
755.196	729.76
755.38	783.01
755.564	750.24
755.748	721.57
755.932	727.71
756.116	617.12
756.3	596.64
756.484	748.19
756.668	768.67
756.852	672.42
757.036	703.14
757.22	678.56
757.404	707.23
757.588	707.23
757.772	703.14
757.956	752.29
758.14	703.14
758.323	645.79
758.507	660.13
758.691	647.84
758.875	643.74
759.059	668.32
759.242	662.18
759.426	641.7
759.61	559.78
759.794	610.98
759.977	666.27
760.161	651.94
760.345	625.31
760.528	590.5
760.712	572.07
760.895	586.4
761.079	582.31
761.263	596.64
761.446	658.08
761.63	662.18
761.813	610.98
761.997	576.16
762.18	602.79
762.364	594.59
762.547	553.63
762.731	604.83
762.914	645.79
763.098	572.07
763.281	529.06
763.464	535.2
763.648	582.31
763.831	567.97
764.015	621.22
764.198	584.35
764.381	555.68
764.564	541.35
764.748	629.41
764.931	565.92
765.114	557.73
765.297	555.68
765.481	588.45
765.664	596.64
765.847	510.63
766.03	574.11
766.213	527.01
766.397	623.27
766.58	492.2
766.763	572.07
766.946	539.3
767.129	580.26
767.312	453.28
767.495	549.54
767.678	506.53
767.861	512.67
768.044	486.05
768.227	524.96
768.41	584.35
768.593	547.49
768.776	486.05
768.959	613.03
769.142	486.05
769.324	584.35
769.507	486.05
769.69	490.15
769.873	535.2
770.056	531.11
770.239	469.67
770.421	600.74
770.604	559.78
770.787	510.63
770.97	539.3
771.152	481.96
771.335	531.11
771.518	557.73
771.7	449.19
771.883	449.19
772.066	467.62
772.248	459.43
772.431	447.14
772.613	512.67
772.796	502.43
772.978	563.87
773.161	524.96
773.343	453.28
773.526	590.5
773.708	418.47
773.891	385.7
774.073	496.29
774.256	447.14
774.438	414.37
774.621	408.23
774.803	481.96
774.985	420.52
775.168	451.24
775.35	506.53
775.532	416.42
775.715	430.76
775.897	434.85
776.079	506.53
776.261	428.71
776.444	475.81
776.626	514.72
776.808	379.56
776.99	447.14
777.173	406.18
777.355	424.61
777.537	410.28
777.719	387.75
777.901	438.95
778.083	369.32
778.265	340.65
778.447	393.89
778.629	375.46
778.811	424.61
778.993	391.84
779.175	445.09
779.357	424.61
779.539	342.69
779.721	404.13
779.903	330.41
780.085	314.02
780.267	416.42
780.449	318.12
780.631	322.21
780.812	373.41
780.994	404.13
781.176	260.77
781.358	402.08
781.54	342.69
781.721	381.6
781.903	359.08
782.085	289.45
782.267	252.58
782.448	326.31
782.63	326.31
782.812	277.16
782.993	293.54
783.175	271.01
783.357	299.69
783.538	367.27
783.72	252.58
783.901	279.21
784.083	369.32
784.264	254.63
784.446	334.5
784.627	277.16
784.809	258.73
784.99	283.3
785.172	350.89
785.353	258.73
785.535	297.64
785.716	234.15
785.897	283.3
786.079	258.73
786.26	271.01
786.441	289.45
786.623	328.36
786.804	277.16
786.985	244.39
787.167	232.1
787.348	322.21
787.529	281.25
787.71	336.55
787.891	244.39
788.073	258.73
788.254	258.73
788.435	303.78
788.616	246.44
788.797	252.58
788.978	291.49
789.159	225.96
789.34	230.06
789.522	258.73
789.703	236.2
789.884	285.35
790.065	189.1
790.246	180.9
790.427	205.48
790.607	268.97
790.788	219.82
790.969	205.48
791.15	330.41
791.331	205.48
791.512	250.53
791.693	191.14
791.874	277.16
792.054	195.24
792.235	215.72
792.416	189.1
792.597	211.62
792.778	144.04
792.958	199.34
793.139	199.34
793.32	191.14
793.5	211.62
793.681	291.49
793.862	185
794.042	197.29
794.223	266.92
794.404	174.76
794.584	221.86
794.765	154.28
794.945	254.63
795.126	172.71
795.306	170.66
795.487	221.86
795.667	195.24
795.848	129.7
796.028	150.18
796.209	219.82
796.389	217.77
796.57	248.49
796.75	197.29
796.93	180.9
797.111	158.38
797.291	174.76
797.471	301.73
797.652	187.05
797.832	164.52
798.012	139.94
798.192	137.9
798.373	111.27
798.553	203.43
798.733	207.53
798.913	105.13
799.093	150.18
799.274	166.57
799.454	146.09
799.634	174.76
799.814	211.62
799.994	164.52
800.174	238.25
800.354	174.76
800.534	178.86
800.714	176.81
800.894	129.7
801.074	121.51
801.254	213.67
801.434	133.8
801.614	158.38
801.794	152.23
801.974	311.97
802.154	180.9
802.334	80.55
802.514	144.04
802.693	156.33
802.873	234.15
803.053	148.14
803.233	123.56
803.413	168.62
803.592	160.42
803.772	105.13
803.952	139.94
804.131	117.42
804.311	170.66
804.491	66.22
804.67	170.66
804.85	133.8
805.03	148.14
805.209	154.28
805.389	127.66
805.568	105.13
805.748	109.22
805.928	94.89
806.107	150.18
806.287	160.42
806.466	133.8
806.646	137.9
806.825	115.37
807.004	180.9
807.184	68.27
807.363	113.32
807.543	127.66
807.722	98.99
807.901	109.22
808.081	96.94
808.26	101.03
808.439	98.99
808.619	148.14
808.798	115.37
808.977	129.7
809.156	146.09
809.336	109.22
809.515	78.51
809.694	205.48
809.873	84.65
810.052	78.51
810.231	98.99
810.411	96.94
810.59	170.66
810.769	66.22
810.948	187.05
811.127	80.55
811.306	80.55
811.485	103.08
811.664	51.88
811.843	133.8
812.022	115.37
812.201	119.46
812.38	55.98
812.559	23.21
812.737	64.17
812.916	119.46
813.095	82.6
813.274	82.6
813.453	39.59
813.632	94.89
813.811	80.55
813.989	80.55
814.168	88.75
814.347	154.28
814.526	94.89
814.704	141.99
814.883	139.94
815.062	78.51
815.24	107.18
815.419	35.5
815.598	84.65
815.776	76.46
815.955	156.33
816.133	88.75
816.312	43.69
816.49	17.07
816.669	64.17
816.847	39.59
817.026	129.7
817.204	64.17
817.383	105.13
817.561	98.99
817.74	156.33
817.918	90.79
818.097	80.55
818.275	29.35
818.453	80.55
818.632	92.84
818.81	29.35
818.988	62.12
819.167	92.84
819.345	58.03
819.523	58.03
819.701	131.75
819.879	15.02
820.058	35.5
820.236	111.27
820.414	43.69
820.592	47.79
820.77	21.16
820.948	90.79
821.127	-32.08
821.305	139.94
821.483	27.31
821.661	41.64
821.839	76.46
822.017	80.55
822.195	105.13
822.373	15.02
822.551	62.12
822.729	43.69
822.907	115.37
823.085	60.07
823.262	64.17
823.44	35.5
823.618	74.41
823.796	137.9
823.974	51.88
824.152	109.22
824.329	70.31
824.507	53.93
824.685	12.97
824.863	156.33
825.04	60.07
825.218	98.99
825.396	29.35
825.574	68.27
825.751	31.4
825.929	15.02
826.107	55.98
826.284	66.22
826.462	121.51
826.639	-27.99
826.817	84.65
826.994	39.59
827.172	146.09
827.349	55.98
827.527	76.46
827.704	58.03
827.882	10.92
828.059	10.92
828.237	58.03
828.414	105.13
828.591	76.46
828.769	23.21
828.946	58.03
829.124	-17.75
829.301	6.83
829.478	70.31
829.655	60.07
829.833	43.69
830.01	90.79
830.187	66.22
830.364	43.69
830.542	90.79
830.719	101.03
830.896	33.45
831.073	74.41
831.25	53.93
831.427	139.94
831.604	25.26
831.782	35.5
831.959	10.92
832.136	84.65
832.313	49.83
832.49	53.93
832.667	125.61
832.844	64.17
833.021	88.75
833.198	-27.99
833.374	-5.46
833.551	101.03
833.728	27.31
833.905	47.79
834.082	33.45
834.259	31.4
834.436	47.79
834.612	19.11
834.789	23.21
834.966	-5.46
835.143	66.22
835.319	72.36
835.496	45.74
835.673	94.89
835.85	121.51
836.026	72.36
836.203	90.79
836.38	51.88
836.556	-5.46
836.733	39.59
836.909	90.79
837.086	80.55
837.262	-15.7
837.439	119.46
837.616	55.98
837.792	25.26
837.968	-5.46
838.145	23.21
838.321	98.99
838.498	-42.32
838.674	25.26
838.851	-13.65
839.027	90.79
839.203	47.79
839.38	96.94
839.556	15.02
839.732	47.79
839.909	-30.04
840.085	86.7
840.261	4.78
840.437	64.17
840.614	51.88
840.79	41.64
840.966	-15.7
841.142	47.79
841.318	-40.28
841.494	58.03
841.671	29.35
841.847	51.88
842.023	2.73
842.199	58.03
842.375	64.17
842.551	-5.46
842.727	66.22
842.903	2.73
843.079	-5.46
843.255	6.83
843.431	55.98
843.607	29.35
843.783	6.83
843.959	29.35
844.134	64.17
844.31	-1.37
844.486	0.68
844.662	39.59
844.838	55.98
845.013	15.02
845.189	0.68
845.365	-1.37
845.541	21.16
845.716	39.59
845.892	84.65
846.068	51.88
846.244	-42.32
846.419	6.83
846.595	45.74
846.77	131.75
846.946	64.17
847.122	49.83
847.297	-58.71
847.473	84.65
847.648	60.07
847.824	47.79
847.999	15.02
848.175	29.35
848.35	27.31
848.526	45.74
848.701	15.02
848.876	58.03
849.052	39.59
849.227	53.93
849.403	-5.46
849.578	64.17
849.753	66.22
849.929	88.75
850.104	60.07
850.279	-21.85
850.454	41.64
850.63	62.12
850.805	43.69
850.98	55.98
851.155	43.69
851.33	27.31
851.505	-13.65
851.681	98.99
851.856	98.99
852.031	4.78
852.206	-30.04
852.381	6.83
852.556	64.17
852.731	10.92
852.906	0.68
853.081	82.6
853.256	47.79
853.431	64.17
853.606	0.68
853.781	23.21
853.956	-5.46
854.131	82.6
854.305	39.59
854.48	23.21
854.655	19.11
854.83	-40.28
855.005	37.55
855.18	39.59
855.354	-34.13
855.529	80.55
855.704	51.88
855.879	47.79
856.053	15.02
856.228	27.31
856.403	47.79
856.577	-25.94
856.752	-9.56
856.926	76.46
857.101	-3.41
857.276	8.87
857.45	-13.65
857.625	90.79
857.799	39.59
857.974	10.92
858.148	4.78
858.323	47.79
858.497	-15.7
858.672	31.4
858.846	-1.37
859.02	60.07
859.195	-19.8
859.369	0.68
859.543	29.35
859.718	64.17
859.892	72.36
860.066	82.6
860.241	17.07
860.415	-38.23
860.589	-9.56
860.763	23.21
860.938	33.45
861.112	66.22
861.286	2.73
861.46	55.98
861.634	37.55
861.808	0.68
861.982	74.41
862.157	8.87
862.331	-38.23
862.505	29.35
862.679	64.17
862.853	21.16
863.027	6.83
863.201	47.79
863.375	-23.89
863.549	-3.41
863.722	12.97
863.896	60.07
864.07	6.83
864.244	-17.75
864.418	45.74
864.592	-25.94
864.766	37.55
864.939	0.68
865.113	-9.56
865.287	96.94
865.461	31.4
865.634	39.59
865.808	6.83
865.982	15.02
866.156	10.92
866.329	35.5
866.503	33.45
866.676	62.12
866.85	2.73
867.024	101.03
867.197	29.35
867.371	19.11
867.544	84.65
867.718	43.69
867.891	55.98
868.065	-75.09
868.238	-1.37
868.412	-15.7
868.585	49.83
868.759	68.27
868.932	-52.56
869.105	72.36
869.279	80.55
869.452	8.87
869.625	35.5
869.799	8.87
869.972	17.07
870.145	15.02
870.319	33.45
870.492	6.83
870.665	-5.46
870.838	-7.51
871.011	-3.41
871.185	33.45
871.358	29.35
871.531	-7.51
871.704	43.69
871.877	74.41
872.05	66.22
872.223	-30.04
872.396	78.51
872.569	41.64
872.742	-9.56
872.915	29.35
873.088	12.97
873.261	82.6
873.434	-7.51
873.607	37.55
873.78	0.68
873.953	-11.61
874.126	47.79
874.299	-32.08
874.471	-32.08
874.644	15.02
874.817	-44.37
874.99	39.59
875.163	17.07
875.335	0.68
875.508	-17.75
875.681	43.69
875.853	-36.18
876.026	43.69
876.199	58.03
876.371	98.99
876.544	72.36
876.717	12.97
876.889	-7.51
877.062	29.35
877.234	0.68
877.407	64.17
877.579	27.31
877.752	78.51
877.924	37.55
878.097	4.78
878.269	80.55
878.442	-25.94
878.614	-30.04
878.786	-3.41
878.959	-5.46
879.131	70.31
879.303	6.83
879.476	-3.41
879.648	12.97
879.82	-1.37
879.993	-34.13
880.165	-15.7
880.337	23.21
880.509	60.07
880.681	51.88
880.854	4.78
881.026	39.59
881.198	51.88
881.37	-23.89
881.542	49.83
881.714	12.97
881.886	23.21
882.058	-38.23
882.23	31.4
882.402	25.26
882.574	41.64
882.746	-30.04
882.918	49.83
883.09	66.22
883.262	43.69
883.434	82.6
883.606	86.7
883.778	12.97
883.95	101.03
884.122	29.35
884.293	6.83
884.465	39.59
884.637	80.55
884.809	55.98
884.98	33.45
885.152	-32.08
885.324	94.89
885.496	64.17
885.667	76.46
885.839	21.16
886.011	12.97
886.182	2.73
886.354	25.26
886.525	23.21
886.697	39.59
886.869	47.79
887.04	-17.75
887.212	23.21
887.383	-7.51
887.555	0.68
887.726	47.79
887.897	43.69
888.069	-50.52
888.24	66.22
888.412	33.45
888.583	49.83
888.754	-52.56
888.926	-17.75
889.097	10.92
889.268	33.45
889.44	-3.41
889.611	31.4
889.782	33.45
889.953	-38.23
890.125	76.46
890.296	107.18
890.467	15.02
890.638	17.07
890.809	23.21
890.98	39.59
891.151	47.79
891.323	23.21
891.494	33.45
891.665	25.26
891.836	2.73
892.007	39.59
892.178	43.69
892.349	96.94
892.52	37.55
892.691	23.21
892.862	-30.04
893.032	-1.37
893.203	10.92
893.374	8.87
893.545	-9.56
893.716	-83.28
893.887	96.94
894.057	2.73
894.228	64.17
894.399	10.92
894.57	31.4
894.74	12.97
894.911	-17.75
895.082	-38.23
895.253	0.68
895.423	6.83
895.594	41.64
895.764	15.02
895.935	43.69
896.106	15.02
896.276	-68.95
896.447	53.93
896.617	68.27
896.788	-19.8
896.958	51.88
897.129	17.07
897.299	-42.32
897.47	-7.51
897.64	12.97
897.81	-87.38
897.981	55.98
898.151	-5.46
898.322	-54.61
898.492	86.7
898.662	-62.8
898.832	27.31
899.003	39.59
899.173	-9.56
899.343	15.02
899.513	8.87
