Data from USB4F104151__295__14-02-52-616.txt Node

Date: Thu Mar 13 14:02:52 EDT 2025
User: louis
Spectrometer: USB4F10415
Trigger mode: 4
Integration Time (sec): 1.000000E-2
Scans to average: 1
Electric dark correction enabled: true
Nonlinearity correction enabled: false
Boxcar width: 0
XAxis mode: Wavelengths
Number of Pixels in Spectrum: 3648
>>>>>Begin Spectral Data<<<<<
178.204	-25.6
178.424	-25.6
178.644	-25.6
178.864	-91.13
179.084	-3.07
179.304	-7.17
179.524	7.17
179.744	-21.5
179.964	-3.07
180.184	17.41
180.404	29.7
180.624	-5.12
180.844	5.12
181.064	-1.02
181.283	17.41
181.503	13.31
181.723	-52.22
181.943	-25.6
182.163	7.17
182.383	-7.17
182.602	-64.51
182.822	-29.7
183.042	35.84
183.262	66.56
183.482	-17.41
183.701	-39.94
183.921	74.75
184.141	-62.46
184.361	-13.31
184.58	21.5
184.8	-25.6
185.02	-15.36
185.239	-56.32
185.459	-1.02
185.679	29.7
185.898	9.22
186.118	56.32
186.338	-64.51
186.557	41.98
186.777	-7.17
186.997	-37.89
187.216	5.12
187.436	25.6
187.655	27.65
187.875	-11.26
188.095	3.07
188.314	-9.22
188.534	-21.5
188.753	-13.31
188.973	13.31
189.192	5.12
189.412	5.12
189.631	21.5
189.851	3.07
190.07	82.94
190.29	-19.46
190.509	-5.12
190.729	-33.79
190.948	-21.5
191.168	11.26
191.387	-35.84
191.607	44.03
191.826	-11.26
192.045	-39.94
192.265	-66.56
192.484	-13.31
192.704	9.22
192.923	52.22
193.142	-19.46
193.362	35.84
193.581	37.89
193.8	-19.46
194.02	-33.79
194.239	19.46
194.458	15.36
194.678	-31.74
194.897	74.75
195.116	1.02
195.335	-9.22
195.555	-15.36
195.774	19.46
195.993	-31.74
196.212	33.79
196.432	-52.22
196.651	39.94
196.87	78.85
197.089	29.7
197.308	37.89
197.528	-13.31
197.747	-19.46
197.966	74.75
198.185	41.98
198.404	-39.94
198.623	-9.22
198.842	37.89
199.062	62.46
199.281	31.74
199.5	-21.5
199.719	35.84
199.938	-33.79
200.157	-17.41
200.376	17.41
200.595	15.36
200.814	7.17
201.033	-15.36
201.252	52.22
201.471	-37.89
201.69	27.65
201.909	-3.07
202.128	29.7
202.347	21.5
202.566	31.74
202.785	54.27
203.004	11.26
203.223	62.46
203.442	19.46
203.661	25.6
203.879	33.79
204.098	17.41
204.317	5.12
204.536	17.41
204.755	-11.26
204.974	-46.08
205.193	50.18
205.411	17.41
205.63	39.94
205.849	5.12
206.068	-13.31
206.287	37.89
206.505	-52.22
206.724	-41.98
206.943	-5.12
207.162	17.41
207.381	-3.07
207.599	-3.07
207.818	-68.61
208.037	11.26
208.255	-7.17
208.474	62.46
208.693	9.22
208.911	15.36
209.13	19.46
209.349	13.31
209.567	-5.12
209.786	11.26
210.005	-35.84
210.223	19.46
210.442	15.36
210.661	-5.12
210.879	-13.31
211.098	-62.46
211.316	9.22
211.535	27.65
211.753	7.17
211.972	37.89
212.191	41.98
212.409	125.95
212.628	29.7
212.846	-5.12
213.065	78.85
213.283	25.6
213.502	-58.37
213.72	-13.31
213.938	-27.65
214.157	52.22
214.375	-56.32
214.594	-7.17
214.812	39.94
215.031	-46.08
215.249	68.61
215.467	-7.17
215.686	-74.75
215.904	54.27
216.122	-3.07
216.341	-11.26
216.559	44.03
216.778	44.03
216.996	3.07
217.214	-15.36
217.432	60.42
217.651	1.02
217.869	-23.55
218.087	41.98
218.306	17.41
218.524	58.37
218.742	-5.12
218.96	-11.26
219.179	9.22
219.397	21.5
219.615	99.33
219.833	3.07
220.051	37.89
220.27	66.56
220.488	-21.5
220.706	-31.74
220.924	3.07
221.142	76.8
221.36	15.36
221.578	60.42
221.796	29.7
222.015	9.22
222.233	29.7
222.451	7.17
222.669	-31.74
222.887	-7.17
223.105	7.17
223.323	-21.5
223.541	-29.7
223.759	-7.17
223.977	-11.26
224.195	74.75
224.413	-13.31
224.631	19.46
224.849	7.17
225.067	70.65
225.285	-15.36
225.503	-19.46
225.721	-11.26
225.939	19.46
226.157	31.74
226.375	58.37
226.592	-25.6
226.81	-64.51
227.028	5.12
227.246	19.46
227.464	58.37
227.682	46.08
227.9	-5.12
228.117	-37.89
228.335	13.31
228.553	17.41
228.771	-5.12
228.989	5.12
229.206	-62.46
229.424	-35.84
229.642	-78.85
229.86	29.7
230.077	-19.46
230.295	-7.17
230.513	-76.8
230.731	33.79
230.948	-9.22
231.166	13.31
231.384	-60.42
231.601	5.12
231.819	125.95
232.037	-23.55
232.254	-15.36
232.472	19.46
232.689	1.02
232.907	44.03
233.125	48.13
233.342	-5.12
233.56	-35.84
233.777	70.65
233.995	3.07
234.213	29.7
234.43	-15.36
234.648	11.26
234.865	-27.65
235.083	21.5
235.3	-56.32
235.518	-46.08
235.735	-23.55
235.953	-39.94
236.17	3.07
236.388	44.03
236.605	9.22
236.822	11.26
237.04	-13.31
237.257	68.61
237.475	21.5
237.692	50.18
237.909	66.56
238.127	-31.74
238.344	9.22
238.562	41.98
238.779	17.41
238.996	29.7
239.214	5.12
239.431	93.18
239.648	19.46
239.865	-35.84
240.083	-5.12
240.3	25.6
240.517	-15.36
240.735	11.26
240.952	21.5
241.169	3.07
241.386	54.27
241.603	5.12
241.821	-5.12
242.038	17.41
242.255	-1.02
242.472	-3.07
242.689	19.46
242.907	50.18
243.124	9.22
243.341	-56.32
243.558	41.98
243.775	62.46
243.992	-19.46
244.209	-89.09
244.426	82.94
244.643	-11.26
244.86	-27.65
245.078	31.74
245.295	29.7
245.512	5.12
245.729	-29.7
245.946	50.18
246.163	62.46
246.38	11.26
246.597	17.41
246.814	-31.74
247.031	-62.46
247.248	39.94
247.464	64.51
247.681	46.08
247.898	-72.7
248.115	50.18
248.332	25.6
248.549	66.56
248.766	-29.7
248.983	33.79
249.2	35.84
249.417	142.33
249.633	17.41
249.85	-3.07
250.067	-41.98
250.284	-15.36
250.501	25.6
250.717	31.74
250.934	5.12
251.151	1.02
251.368	-60.42
251.585	46.08
251.801	1.02
252.018	-31.74
252.235	-56.32
252.451	-46.08
252.668	-3.07
252.885	-17.41
253.102	-41.98
253.318	52.22
253.535	62.46
253.752	1.02
253.968	35.84
254.185	-70.65
254.401	99.33
254.618	37.89
254.835	-82.94
255.051	31.74
255.268	37.89
255.484	13.31
255.701	58.37
255.917	5.12
256.134	54.27
256.351	11.26
256.567	-33.79
256.784	-39.94
257	25.6
257.217	41.98
257.433	-9.22
257.65	72.7
257.866	23.55
258.082	-5.12
258.299	25.6
258.515	17.41
258.732	7.17
258.948	13.31
259.165	-1.02
259.381	-48.13
259.597	-27.65
259.814	23.55
260.03	-5.12
260.246	87.04
260.463	3.07
260.679	64.51
260.895	27.65
261.112	35.84
261.328	41.98
261.544	76.8
261.761	25.6
261.977	39.94
262.193	-5.12
262.409	25.6
262.626	27.65
262.842	-58.37
263.058	52.22
263.274	-13.31
263.49	66.56
263.707	62.46
263.923	-1.02
264.139	62.46
264.355	19.46
264.571	37.89
264.787	41.98
265.004	-7.17
265.22	35.84
265.436	5.12
265.652	-31.74
265.868	11.26
266.084	52.22
266.3	-9.22
266.516	27.65
266.732	-25.6
266.948	29.7
267.164	11.26
267.38	-46.08
267.596	68.61
267.812	66.56
268.028	21.5
268.244	-5.12
268.46	-19.46
268.676	19.46
268.892	-56.32
269.108	50.18
269.324	29.7
269.54	-39.94
269.756	-3.07
269.972	-19.46
270.188	-13.31
270.403	1.02
270.619	-31.74
270.835	60.42
271.051	-5.12
271.267	1.02
271.483	-7.17
271.698	17.41
271.914	33.79
272.13	21.5
272.346	-23.55
272.562	-37.89
272.777	9.22
272.993	35.84
273.209	-35.84
273.425	-17.41
273.64	-62.46
273.856	41.98
274.072	-19.46
274.287	-27.65
274.503	41.98
274.719	46.08
274.934	21.5
275.15	-44.03
275.366	9.22
275.581	15.36
275.797	-7.17
276.012	13.31
276.228	56.32
276.444	-31.74
276.659	17.41
276.875	25.6
277.09	-23.55
277.306	58.37
277.521	25.6
277.737	-21.5
277.952	58.37
278.168	54.27
278.383	29.7
278.599	39.94
278.814	-3.07
279.03	9.22
279.245	91.13
279.461	-56.32
279.676	25.6
279.892	1.02
280.107	-48.13
280.322	46.08
280.538	19.46
280.753	62.46
280.969	-52.22
281.184	-37.89
281.399	58.37
281.615	-3.07
281.83	60.42
282.045	21.5
282.26	1.02
282.476	11.26
282.691	41.98
282.906	-44.03
283.122	-25.6
283.337	-48.13
283.552	33.79
283.767	72.7
283.983	15.36
284.198	-7.17
284.413	-44.03
284.628	-35.84
284.843	-72.7
285.058	-3.07
285.274	13.31
285.489	-15.36
285.704	-3.07
285.919	50.18
286.134	-7.17
286.349	15.36
286.564	-37.89
286.779	35.84
286.995	27.65
287.21	-19.46
287.425	74.75
287.64	50.18
287.855	31.74
288.07	-15.36
288.285	27.65
288.5	1.02
288.715	1.02
288.93	-15.36
289.145	-31.74
289.36	-46.08
289.575	68.61
289.79	-1.02
290.004	74.75
290.219	25.6
290.434	9.22
290.649	-35.84
290.864	-13.31
291.079	46.08
291.294	-19.46
291.509	-52.22
291.724	-11.26
291.938	-5.12
292.153	54.27
292.368	5.12
292.583	35.84
292.798	101.37
293.012	1.02
293.227	-15.36
293.442	-7.17
293.657	23.55
293.871	27.65
294.086	33.79
294.301	76.8
294.516	39.94
294.73	-23.55
294.945	-7.17
295.16	11.26
295.374	35.84
295.589	33.79
295.804	-1.02
296.018	-37.89
296.233	9.22
296.447	13.31
296.662	37.89
296.877	78.85
297.091	66.56
297.306	21.5
297.52	-74.75
297.735	-15.36
297.949	-41.98
298.164	25.6
298.378	-25.6
298.593	19.46
298.807	1.02
299.022	19.46
299.236	35.84
299.451	13.31
299.665	-56.32
299.88	101.37
300.094	-35.84
300.309	-15.36
300.523	11.26
300.737	115.71
300.952	-25.6
301.166	66.56
301.381	39.94
301.595	-66.56
301.809	7.17
302.024	17.41
302.238	82.94
302.452	21.5
302.667	74.75
302.881	44.03
303.095	50.18
303.309	33.79
303.524	1.02
303.738	50.18
303.952	58.37
304.166	58.37
304.381	-56.32
304.595	-7.17
304.809	21.5
305.023	82.94
305.237	7.17
305.452	-11.26
305.666	-3.07
305.88	58.37
306.094	7.17
306.308	-99.33
306.522	13.31
306.736	66.56
306.95	-17.41
307.164	13.31
307.379	-1.02
307.593	13.31
307.807	-11.26
308.021	-35.84
308.235	15.36
308.449	-17.41
308.663	27.65
308.877	25.6
309.091	9.22
309.305	66.56
309.519	-19.46
309.733	13.31
309.947	50.18
310.161	-7.17
310.374	44.03
310.588	62.46
310.802	-84.99
311.016	5.12
311.23	-19.46
311.444	39.94
311.658	11.26
311.872	5.12
312.085	-1.02
312.299	17.41
312.513	54.27
312.727	-7.17
312.941	1.02
313.154	50.18
313.368	-39.94
313.582	1.02
313.796	-31.74
314.009	25.6
314.223	54.27
314.437	37.89
314.651	27.65
314.864	74.75
315.078	41.98
315.292	-3.07
315.505	-48.13
315.719	80.89
315.933	97.28
316.146	56.32
316.36	27.65
316.573	39.94
316.787	-21.5
317.001	50.18
317.214	-33.79
317.428	48.13
317.641	-1.02
317.855	46.08
318.068	29.7
318.282	23.55
318.495	33.79
318.709	-5.12
318.922	27.65
319.136	33.79
319.349	130.05
319.563	68.61
319.776	39.94
319.99	-31.74
320.203	-27.65
320.417	21.5
320.63	-9.22
320.843	3.07
321.057	27.65
321.27	76.8
321.483	-11.26
321.697	76.8
321.91	50.18
322.124	33.79
322.337	13.31
322.55	101.37
322.763	66.56
322.977	-35.84
323.19	7.17
323.403	66.56
323.617	37.89
323.83	97.28
324.043	9.22
324.256	7.17
324.469	-7.17
324.683	66.56
324.896	9.22
325.109	19.46
325.322	13.31
325.535	11.26
325.748	58.37
325.962	46.08
326.175	-3.07
326.388	25.6
326.601	-7.17
326.814	29.7
327.027	7.17
327.24	62.46
327.453	50.18
327.666	70.65
327.879	-41.98
328.092	27.65
328.305	-52.22
328.518	-1.02
328.731	-78.85
328.944	60.42
329.157	-46.08
329.37	-3.07
329.583	68.61
329.796	107.52
330.009	-44.03
330.222	54.27
330.435	-3.07
330.648	-48.13
330.861	58.37
331.073	-5.12
331.286	-35.84
331.499	15.36
331.712	62.46
331.925	-11.26
332.138	25.6
332.35	89.09
332.563	-11.26
332.776	76.8
332.989	29.7
333.202	-21.5
333.414	39.94
333.627	78.85
333.84	17.41
334.053	13.31
334.265	46.08
334.478	35.84
334.691	-29.7
334.903	13.31
335.116	25.6
335.329	35.84
335.541	5.12
335.754	41.98
335.966	-64.51
336.179	13.31
336.392	-31.74
336.604	11.26
336.817	17.41
337.029	19.46
337.242	17.41
337.454	60.42
337.667	29.7
337.88	44.03
338.092	23.55
338.305	-11.26
338.517	-3.07
338.729	58.37
338.942	39.94
339.154	5.12
339.367	7.17
339.579	39.94
339.792	11.26
340.004	58.37
340.217	-11.26
340.429	25.6
340.641	37.89
340.854	-11.26
341.066	7.17
341.278	3.07
341.491	29.7
341.703	33.79
341.915	5.12
342.128	3.07
342.34	19.46
342.552	60.42
342.764	-66.56
342.977	41.98
343.189	11.26
343.401	56.32
343.613	62.46
343.826	48.13
344.038	-7.17
344.25	1.02
344.462	-15.36
344.674	93.18
344.886	17.41
345.099	-52.22
345.311	56.32
345.523	3.07
345.735	21.5
345.947	1.02
346.159	19.46
346.371	58.37
346.583	17.41
346.795	15.36
347.007	46.08
347.219	66.56
347.431	15.36
347.643	27.65
347.855	29.7
348.067	111.61
348.279	39.94
348.491	-13.31
348.703	21.5
348.915	54.27
349.127	7.17
349.339	9.22
349.551	-15.36
349.763	19.46
349.975	50.18
350.187	76.8
350.399	54.27
350.61	72.7
350.822	35.84
351.034	21.5
351.246	-23.55
351.458	11.26
351.669	-52.22
351.881	11.26
352.093	-5.12
352.305	37.89
352.517	50.18
352.728	35.84
352.94	3.07
353.152	-23.55
353.363	5.12
353.575	17.41
353.787	27.65
353.999	21.5
354.21	27.65
354.422	33.79
354.633	74.75
354.845	-29.7
355.057	-27.65
355.268	50.18
355.48	25.6
355.692	9.22
355.903	19.46
356.115	-29.7
356.326	78.85
356.538	70.65
356.749	27.65
356.961	-29.7
357.172	37.89
357.384	-15.36
357.595	80.89
357.807	50.18
358.018	-1.02
358.23	68.61
358.441	3.07
358.653	29.7
358.864	-27.65
359.075	46.08
359.287	1.02
359.498	-33.79
359.709	-19.46
359.921	48.13
360.132	21.5
360.344	80.89
360.555	-52.22
360.766	50.18
360.977	-5.12
361.189	-17.41
361.4	31.74
361.611	44.03
361.823	46.08
362.034	-60.42
362.245	35.84
362.456	15.36
362.667	82.94
362.879	5.12
363.09	44.03
363.301	56.32
363.512	-13.31
363.723	-11.26
363.935	-23.55
364.146	66.56
364.357	-17.41
364.568	17.41
364.779	-35.84
364.99	78.85
365.201	72.7
365.412	111.61
365.623	-25.6
365.834	-21.5
366.045	89.09
366.256	27.65
366.467	41.98
366.678	125.95
366.889	44.03
367.1	35.84
367.311	50.18
367.522	99.33
367.733	54.27
367.944	33.79
368.155	-37.89
368.366	66.56
368.577	-23.55
368.788	39.94
368.999	50.18
369.209	44.03
369.42	25.6
369.631	52.22
369.842	58.37
370.053	41.98
370.264	23.55
370.474	76.8
370.685	115.71
370.896	7.17
371.107	29.7
371.317	5.12
371.528	-23.55
371.739	111.61
371.95	52.22
372.16	19.46
372.371	-46.08
372.582	-19.46
372.792	13.31
373.003	27.65
373.214	58.37
373.424	70.65
373.635	-35.84
373.846	13.31
374.056	35.84
374.267	58.37
374.477	52.22
374.688	-37.89
374.898	11.26
375.109	21.5
375.319	-27.65
375.53	39.94
375.74	-7.17
375.951	27.65
376.161	9.22
376.372	-11.26
376.582	27.65
376.793	58.37
377.003	1.02
377.214	54.27
377.424	1.02
377.635	9.22
377.845	68.61
378.055	11.26
378.266	15.36
378.476	58.37
378.686	1.02
378.897	68.61
379.107	62.46
379.317	54.27
379.528	-7.17
379.738	50.18
379.948	91.13
380.158	95.23
380.369	50.18
380.579	44.03
380.789	54.27
380.999	44.03
381.21	15.36
381.42	123.9
381.63	-21.5
381.84	17.41
382.05	48.13
382.261	29.7
382.471	15.36
382.681	35.84
382.891	37.89
383.101	103.42
383.311	-1.02
383.521	3.07
383.731	-35.84
383.941	95.23
384.151	44.03
384.361	101.37
384.571	56.32
384.781	46.08
384.991	56.32
385.201	62.46
385.411	17.41
385.621	9.22
385.831	76.8
386.041	-5.12
386.251	-13.31
386.461	25.6
386.671	1.02
386.881	66.56
387.091	-48.13
387.301	66.56
387.511	37.89
387.72	62.46
387.93	58.37
388.14	-56.32
388.35	35.84
388.56	41.98
388.769	19.46
388.979	68.61
389.189	41.98
389.399	-27.65
389.609	3.07
389.818	121.85
390.028	33.79
390.238	48.13
390.447	17.41
390.657	101.37
390.867	5.12
391.076	23.55
391.286	91.13
391.496	72.7
391.705	-29.7
391.915	89.09
392.125	74.75
392.334	37.89
392.544	68.61
392.753	74.75
392.963	11.26
393.172	82.94
393.382	78.85
393.591	19.46
393.801	82.94
394.01	117.76
394.22	-3.07
394.429	66.56
394.639	7.17
394.848	58.37
395.058	105.47
395.267	48.13
395.477	91.13
395.686	58.37
395.895	-15.36
396.105	95.23
396.314	93.18
396.524	97.28
396.733	84.99
396.942	140.29
397.152	1.02
397.361	52.22
397.57	35.84
397.78	115.71
397.989	60.42
398.198	62.46
398.407	33.79
398.617	78.85
398.826	78.85
399.035	80.89
399.244	-31.74
399.453	74.75
399.663	128
399.872	64.51
400.081	125.95
400.29	58.37
400.499	27.65
400.708	136.19
400.917	27.65
401.127	58.37
401.336	66.56
401.545	91.13
401.754	109.57
401.963	25.6
402.172	115.71
402.381	52.22
402.59	50.18
402.799	66.56
403.008	82.94
403.217	91.13
403.426	107.52
403.635	25.6
403.844	21.5
404.053	142.33
404.262	78.85
404.471	62.46
404.68	66.56
404.888	93.18
405.097	41.98
405.306	97.28
405.515	107.52
405.724	113.66
405.933	107.52
406.142	82.94
406.35	125.95
406.559	150.53
406.768	54.27
406.977	107.52
407.185	125.95
407.394	134.14
407.603	72.7
407.812	109.57
408.02	158.72
408.229	195.58
408.438	195.58
408.646	89.09
408.855	181.25
409.064	117.76
409.272	130.05
409.481	160.77
409.69	146.43
409.898	179.2
410.107	123.9
410.315	238.59
410.524	203.77
410.733	297.98
410.941	246.78
411.15	209.92
411.358	304.12
411.567	312.32
411.775	185.34
411.984	295.93
412.192	271.36
412.401	359.42
412.609	263.16
412.818	261.12
413.026	353.27
413.234	279.55
413.443	328.7
413.651	402.43
413.86	359.42
414.068	357.37
414.276	427
414.485	379.9
414.693	451.58
414.901	449.53
415.11	429.05
415.318	498.68
415.526	515.06
415.734	576.5
415.943	506.87
416.151	551.93
416.359	574.46
416.567	543.74
416.776	623.61
416.984	599.03
417.192	588.79
417.4	760.82
417.608	666.61
417.817	715.77
418.025	738.29
418.233	855.03
418.441	685.05
418.649	871.41
418.857	781.3
419.065	898.03
419.273	830.45
419.481	967.67
419.689	926.71
419.897	1059.82
420.105	926.71
420.313	1102.83
420.521	1100.78
420.729	1025.01
420.937	1119.21
421.145	1238
421.353	1266.67
421.561	1305.58
421.769	1319.92
421.977	1444.84
422.185	1416.17
422.393	1407.98
422.601	1594.34
422.809	1526.76
423.017	1498.09
423.224	1569.77
423.432	1602.54
423.64	1651.69
423.848	1741.8
424.056	1741.8
424.263	1926.11
424.471	1833.96
424.679	1928.16
424.887	2059.23
425.094	2089.95
425.302	2216.93
425.51	2171.87
425.718	2188.25
425.925	2229.21
426.133	2376.67
426.341	2550.75
426.548	2536.41
426.756	2642.9
426.964	2616.28
427.171	2800.6
427.379	2927.57
427.586	2851.8
427.794	3009.49
428.001	3165.14
428.209	3343.31
428.417	3107.79
428.624	3371.98
428.832	3326.93
429.039	3335.12
429.247	3331.02
429.454	3785.67
429.662	3951.56
429.869	3771.33
430.076	4060.1
430.284	3855.3
430.491	4053.95
430.699	4240.32
430.906	4244.42
431.114	4391.87
431.321	4418.49
431.528	4576.19
431.736	4889.53
431.943	5106.61
432.15	5098.42
432.358	4969.4
432.565	5389.23
432.772	5194.67
432.979	5415.85
433.187	5741.48
433.394	5661.61
433.601	5972.9
433.808	5942.18
434.016	6208.42
434.223	6384.54
434.43	6689.69
434.637	6466.46
434.844	7013.27
435.052	7062.42
435.259	7150.48
435.466	7199.63
435.673	6992.79
435.88	7324.56
436.087	7861.13
436.294	7832.46
436.501	7670.67
436.708	7881.61
436.915	7963.53
437.122	8426.37
437.329	8436.61
437.537	8622.97
437.743	8790.91
437.95	8817.53
438.157	9249.65
438.364	9405.3
438.571	9493.36
438.778	9431.92
438.985	10421.09
439.192	10021.74
439.399	10175.33
439.606	10120.04
439.813	10675.04
440.02	11191.13
440.227	11141.97
440.433	11000.66
440.64	11311.96
440.847	11240.28
441.054	11543.38
441.261	12452.67
441.467	12065.61
441.674	12532.54
441.881	12954.43
442.088	13181.75
442.294	12919.61
442.501	13198.13
442.708	13503.28
442.914	13935.4
443.121	14402.34
443.328	14031.66
443.534	14961.44
443.741	14537.51
443.948	14621.47
444.154	15557.39
444.361	15442.71
444.568	15459.09
444.774	15479.57
444.981	15438.61
445.187	16253.7
445.394	16843.52
445.6	16519.94
445.807	18252.52
446.013	17279.74
446.22	17644.27
446.426	18490.09
446.633	18713.31
446.839	19354.33
447.046	18500.33
447.252	19784.4
447.459	19438.3
447.665	19305.18
447.871	20363.98
448.078	21086.91
448.284	20069.07
448.491	20865.73
448.697	21525.18
448.903	21877.43
449.11	22076.08
449.316	21680.82
449.522	22276.78
449.728	22227.63
449.935	22669.99
450.141	22651.56
450.347	23368.35
450.553	22516.39
450.76	22964.9
450.966	23757.46
451.172	23200.41
451.378	23777.94
451.584	23079.58
451.791	24007.31
451.997	23859.86
452.203	24476.3
452.409	24101.52
452.615	24238.73
452.821	23233.18
453.027	22915.75
453.233	24158.86
453.44	23138.97
453.646	23227.04
453.852	23507.61
454.058	24093.33
454.264	23212.7
454.47	23958.16
454.676	23018.14
454.882	24119.95
455.088	21873.33
455.294	22002.35
455.5	22690.47
455.705	22719.14
455.911	21463.74
456.117	21539.51
456.323	20947.65
456.529	20083.41
456.735	20964.03
456.941	20327.11
457.147	19659.48
457.352	19391.19
457.558	19192.54
457.764	19260.12
457.97	18871.01
458.176	18494.18
458.381	18430.69
458.587	17564.4
458.793	17732.34
458.999	16573.19
459.204	17933.04
459.41	17507.06
459.616	16177.93
459.821	16196.36
460.027	16196.36
460.233	15778.58
460.438	15196.95
460.644	15094.55
460.85	14228.26
461.055	14400.29
461.261	14398.24
461.466	13247.29
461.672	13071.16
461.878	13796.14
462.083	12935.99
462.289	12499.78
462.494	12694.33
462.7	11744.08
462.905	11518.8
463.111	11971.4
463.316	12219.21
463.522	11830.09
463.727	11889.48
463.932	11942.73
464.138	11633.49
464.343	11864.91
464.549	11363.15
464.754	11553.62
464.959	11668.3
465.165	11592.53
465.37	11207.51
465.575	10928.99
465.781	11268.95
465.986	11301.72
466.191	10830.68
466.397	10740.57
466.602	10150.76
466.807	10646.37
467.012	10623.84
467.218	10509.15
467.423	10357.6
467.628	10330.98
467.833	10808.16
468.038	10384.23
468.244	10099.56
468.449	10421.09
468.654	10134.37
468.859	10134.37
469.064	9872.23
469.269	9835.37
469.474	9804.65
469.679	9960.3
469.885	9927.53
470.09	9866.09
470.295	9724.78
470.5	9638.76
470.705	9620.33
470.91	9286.51
471.115	9241.46
471.32	9591.66
471.525	9134.96
471.73	9022.33
471.935	9122.68
472.139	8878.97
472.344	9171.83
472.549	8831.87
472.754	8774.52
472.959	8676.22
473.164	8323.97
473.369	8420.22
473.574	8672.12
473.778	8715.13
473.983	8500.09
474.188	8463.23
474.393	8106.88
474.598	8061.83
474.802	7850.89
475.007	8049.54
475.212	7916.42
475.417	7764.87
475.621	7705.48
475.826	7586.7
476.031	7383.95
476.235	7287.7
476.44	7586.7
476.645	7236.5
476.849	7394.19
477.054	7332.75
477.259	7193.49
477.463	7269.27
477.668	7013.27
477.872	7342.99
478.077	7072.66
478.282	6831
478.486	6859.67
478.691	6806.42
478.895	6661.02
479.1	6609.82
479.304	6566.81
479.509	6509.47
479.713	6646.68
479.918	6472.61
480.122	6603.68
480.326	6484.89
480.531	6517.66
480.735	6374.3
480.94	6382.49
481.144	6513.56
481.348	6292.38
481.553	6415.26
481.757	6259.62
481.961	6312.86
482.166	6308.77
482.37	6333.34
482.574	6091.68
482.778	6314.91
482.983	6359.97
483.187	6138.79
483.391	6341.54
483.595	6165.41
483.8	6038.44
484.004	6306.72
484.208	6343.58
484.412	6167.46
484.616	6300.58
484.821	6005.67
485.025	6015.91
485.229	6273.95
485.433	6175.65
485.637	6126.5
485.841	6067.11
486.045	6075.3
486.249	6114.21
486.453	6405.02
486.657	6273.95
486.861	6181.79
487.065	6081.44
487.269	6194.08
487.473	6001.57
487.677	6247.33
487.881	6343.58
488.085	6179.75
488.289	6431.65
488.493	6296.48
488.697	6304.67
488.901	6153.12
489.105	6329.25
489.309	6325.15
489.512	6357.92
489.716	6271.9
489.92	6257.57
490.124	6278.05
490.328	6419.36
490.531	6269.86
490.735	6415.26
490.939	6349.73
491.143	6419.36
491.346	6407.07
491.55	6488.99
491.754	6562.72
491.958	6615.96
492.161	6534.04
492.365	6480.8
492.569	6572.96
492.772	6532
492.976	6687.64
493.18	6812.57
493.383	6765.46
493.587	6837.14
493.79	6833.05
493.994	6912.92
494.197	6925.21
494.401	6876.06
494.605	6843.29
494.808	6902.68
495.012	7123.86
495.215	7082.9
495.419	7103.38
495.622	7185.3
495.825	7410.57
496.029	7312.27
496.232	7414.67
496.436	7533.45
496.639	7728.01
496.843	7598.99
497.046	7807.88
497.249	7936.9
497.453	7824.26
497.656	8049.54
497.859	8041.35
498.063	7996.29
498.266	8342.4
498.469	8399.74
498.673	8211.33
498.876	8559.49
499.079	8512.38
499.282	8487.81
499.485	8835.96
499.689	8780.67
499.892	8790.91
500.095	8975.22
500.298	9270.13
500.501	9124.72
500.705	9388.91
500.908	9692.01
501.111	9743.21
501.314	9495.41
501.517	9806.7
501.72	9872.23
501.923	9712.49
502.126	10220.39
502.329	10359.65
502.532	10546.02
502.735	10498.91
502.938	10654.56
503.141	10838.87
503.344	10789.72
503.547	10971.99
503.75	11094.87
503.953	11363.15
504.156	11322.2
504.359	11455.31
504.562	11453.27
504.765	11754.32
504.968	11766.6
505.17	12086.09
505.373	12256.07
505.576	12510.02
505.779	12499.78
505.982	12688.19
506.185	12845.88
506.387	12862.27
506.59	13099.83
506.793	13181.75
506.996	13476.66
507.198	13536.05
507.401	13525.81
507.604	13833
507.807	14015.27
508.009	14201.64
508.212	14148.39
508.415	14418.72
508.617	14766.88
508.82	15000.35
509.022	14777.12
509.225	15264.54
509.428	15213.34
509.63	15440.66
509.833	15643.41
510.035	15799.05
510.238	15643.41
510.44	15989.52
510.643	16438.02
510.845	16659.2
511.048	16323.33
511.25	16741.12
511.453	17251.06
511.655	17556.21
511.858	17449.72
512.06	17679.09
512.262	18180.84
512.465	17920.75
512.667	18012.91
512.87	18440.93
513.072	18512.61
513.274	19061.47
513.477	19184.35
513.679	19290.84
513.881	19270.36
514.084	19704.53
514.286	19667.67
514.488	19804.88
514.69	20447.94
514.893	20624.07
515.095	20705.99
515.297	21181.12
515.499	21328.57
515.701	21297.85
515.904	21385.91
516.106	22092.46
516.308	22145.71
516.51	22248.11
516.712	22233.77
516.914	22862.5
517.116	22925.99
517.318	23360.16
517.52	23319.2
517.722	23536.28
517.925	23880.34
518.127	24265.36
518.329	24320.65
518.531	24306.32
518.733	25041.54
518.935	24824.45
519.136	25090.69
519.338	25526.91
519.54	25332.35
519.742	25848.44
519.944	25883.25
520.146	26436.2
520.348	26610.28
520.55	26831.46
520.752	26894.95
520.954	27261.54
521.155	27390.56
521.357	27820.63
521.559	28226.13
521.761	28420.69
521.963	28467.79
522.164	28461.65
522.366	28459.6
522.568	29229.63
522.77	29180.48
522.971	29715
523.173	29297.22
523.375	29893.18
523.576	29884.98
523.778	30020.15
523.98	30458.42
524.181	30644.78
524.383	30509.61
524.584	31140.39
524.786	30937.64
524.988	31021.61
525.189	31423.01
525.391	31810.07
525.592	31865.37
525.794	32346.64
525.995	31898.14
526.197	32272.92
526.398	32203.28
526.6	32610.83
526.801	32467.47
527.003	32979.46
527.204	32975.37
527.406	33178.12
527.607	33018.38
527.808	33137.16
528.01	32918.03
528.211	33323.52
528.412	34331.12
528.614	33694.21
528.815	33767.93
529.016	34249.21
529.218	33749.5
529.419	33931.77
529.62	34488.82
529.822	34314.74
530.023	34374.13
530.224	34441.71
530.425	34230.77
530.626	34417.14
530.828	34304.5
531.029	34841.07
531.23	34363.89
531.431	34718.19
531.632	34759.15
531.833	34888.17
532.035	34927.08
532.236	35121.64
532.437	35080.68
532.638	35049.96
532.839	35492.32
533.04	35269.09
533.241	34922.99
533.442	35826.14
533.643	35328.48
533.844	35340.77
534.045	35678.69
534.246	35246.57
534.447	35650.02
534.648	34931.18
534.849	35539.43
535.05	35439.08
535.251	35459.55
535.451	35363.3
535.652	35633.63
535.853	35494.37
536.054	35805.66
536.255	35680.74
536.456	35285.48
536.657	36100.57
536.857	35746.27
537.058	36028.89
537.259	35815.9
537.46	35887.58
537.66	35781.09
537.861	35846.62
538.062	35637.73
538.263	35715.55
538.463	35422.69
538.664	35365.35
538.865	35781.09
539.065	36049.37
539.266	35375.59
539.466	36219.35
539.667	35308.01
539.868	36139.48
540.068	35873.24
540.269	35643.87
540.469	36049.37
540.67	35432.93
540.87	35617.25
541.071	35434.98
541.271	35858.91
541.472	35527.14
541.672	35824.09
541.873	35412.45
542.073	34929.13
542.274	35891.68
542.474	35836.38
542.675	35580.39
542.875	35789.28
543.075	35893.72
543.276	35455.46
543.476	35922.4
543.676	35836.38
543.877	35506.66
544.077	35525.09
544.277	35391.97
544.478	35434.98
544.678	35625.44
544.878	35576.29
545.078	35959.26
545.279	35578.34
545.479	35504.61
545.679	35609.06
545.879	35531.23
546.079	35326.44
546.28	35277.29
546.48	35148.26
546.68	35723.74
546.88	35848.67
547.08	35647.97
547.28	35516.9
547.48	35314.15
547.68	35467.75
547.88	35353.06
548.081	35695.07
548.281	35592.67
548.481	35432.93
548.681	35938.78
548.881	35719.65
549.081	35371.49
549.28	35439.08
549.48	35670.5
549.68	35695.07
549.88	36022.75
550.08	35361.25
550.28	35619.3
550.48	35494.37
550.68	35910.11
550.88	35760.61
551.08	35312.1
551.279	35783.13
551.479	35234.28
551.679	35580.39
551.879	35439.08
552.079	35699.17
552.278	35725.79
552.478	35770.85
552.678	35236.33
552.878	35686.88
553.077	35107.3
553.277	35068.39
553.477	35531.23
553.676	35371.49
553.876	35502.56
554.076	35074.54
554.275	35090.92
554.475	34865.64
554.674	35643.87
554.874	35162.6
555.074	35215.85
555.273	34998.76
555.473	35518.95
555.672	35146.22
555.872	35101.16
556.071	35371.49
556.271	35017.19
556.47	34710
556.67	34697.71
556.869	34939.37
557.068	35074.54
557.268	34810.35
557.467	34763.25
557.667	34515.44
557.866	34597.36
558.065	34497.01
558.265	34689.52
558.464	34501.11
558.663	34847.21
558.863	34136.57
559.062	34755.05
559.261	34091.51
559.461	34540.02
559.66	33827.32
559.859	33847.8
560.058	34005.5
560.258	34175.48
560.457	33919.48
560.656	34091.51
560.855	33890.81
561.054	34120.18
561.253	33835.52
561.453	33815.04
561.652	34058.74
561.851	33821.18
562.05	33434.11
562.249	33726.97
562.448	33667.58
562.647	33649.15
562.846	33370.63
563.045	33788.41
563.244	33421.83
563.443	33808.89
563.642	33255.94
563.841	33311.24
564.04	33276.42
564.239	33714.69
564.438	33141.25
564.637	33403.39
564.836	33507.84
565.035	32940.55
565.234	33178.12
565.432	32754.19
565.631	32967.18
565.83	32602.64
566.029	32735.76
566.228	32678.41
566.427	32750.09
566.625	32363.03
566.824	32236.05
567.023	32494.1
567.222	31625.76
567.42	32324.11
567.619	32078.36
567.818	32025.11
568.016	32064.02
568.215	32315.92
568.414	32125.46
568.612	32338.45
568.811	31244.84
569.01	31756.83
569.208	31257.12
569.407	31646.24
569.605	31205.92
569.804	31670.81
570.002	31355.43
570.201	31730.2
570.4	31003.17
570.598	30646.83
570.797	31027.75
570.995	30951.98
571.193	30562.86
571.392	30781.99
571.59	30755.37
571.789	30640.68
571.987	30407.22
572.186	30571.05
572.384	30454.32
572.582	30687.79
572.781	30390.83
572.979	30028.34
573.177	30267.95
573.376	30112.31
573.574	29588.03
573.772	29946.42
573.971	29792.83
574.169	29825.59
574.367	29487.68
574.565	29856.31
574.763	29600.32
574.962	29405.76
575.16	29078.08
575.358	29420.1
575.556	29127.24
575.754	29139.52
575.952	28807.75
576.151	29213.25
576.349	28654.15
576.547	28613.2
576.745	28848.71
576.943	28623.44
577.141	28445.26
577.339	28840.52
577.537	28242.51
577.735	28248.66
577.933	28021.33
578.131	28056.15
578.329	28164.69
578.527	27873.88
578.725	27732.57
578.923	27742.81
579.121	28011.09
579.319	27918.93
579.516	27751
579.714	27644.51
579.912	27445.85
580.11	27542.11
580.308	27322.98
580.506	27241.06
580.704	26956.39
580.901	27038.31
581.099	27310.69
581.297	26913.38
581.495	26741.35
581.692	26935.91
581.89	26831.46
582.088	27013.73
582.285	26784.36
582.483	26595.95
582.681	26466.92
582.878	26288.75
583.076	26436.2
583.274	26675.82
583.471	26120.82
583.669	26116.72
583.866	25668.22
584.064	26292.85
584.262	25787
584.459	26067.57
584.657	25494.14
584.854	25854.58
585.052	25502.33
585.249	25651.83
585.447	25686.65
585.644	25287.29
585.841	25453.18
586.039	25240.19
586.236	25188.99
586.434	25096.83
586.631	25117.31
586.828	24926.85
587.026	24767.11
587.223	24842.88
587.42	24672.9
587.618	24785.54
587.815	24361.61
588.012	24658.57
588.21	24402.57
588.407	24365.71
588.604	24193.68
588.801	23992.98
588.999	24343.18
589.196	24500.87
589.393	24197.77
589.59	23984.79
589.787	23870.1
589.984	23894.68
590.182	23519.9
590.379	23483.03
590.576	23583.38
590.773	23567
590.97	23663.25
591.167	23319.2
591.364	23263.9
591.561	23540.38
591.758	23165.6
591.955	23112.35
592.152	23321.24
592.349	22952.61
592.546	22833.83
592.743	22993.57
592.94	22500.01
593.137	22975.14
593.334	22801.06
593.531	22332.08
593.727	22547.11
593.924	22635.17
594.121	22346.41
594.318	22647.46
594.515	22373.03
594.712	22080.18
594.908	22198.96
595.105	22276.78
595.302	21678.77
595.499	22182.57
595.696	22016.69
595.892	21998.26
596.089	22104.75
596.286	21969.58
596.482	21934.77
596.679	21459.64
596.876	21660.34
597.072	21578.42
597.269	21578.42
597.466	21400.25
597.662	21187.26
597.859	21291.71
598.055	21000.9
598.252	20759.24
598.448	21078.72
598.645	20824.77
598.841	20941.5
599.038	21183.16
599.234	21021.38
599.431	20550.34
599.627	20673.22
599.824	20804.29
600.02	20579.01
600.217	20493
600.413	20480.71
600.609	20226.76
600.806	20196.04
601.002	20464.33
601.198	20271.82
601.395	20191.95
601.591	19946.19
601.787	20222.67
601.984	20064.97
602.18	20157.13
602.376	19729.11
602.572	19626.71
602.769	19690.2
602.965	19618.52
603.161	19620.56
603.357	19532.5
603.553	19323.61
603.75	19294.94
603.946	19358.42
604.142	19196.64
604.338	18926.3
604.534	19276.51
604.73	19069.66
604.926	18588.39
605.122	19198.68
605.318	18866.91
605.514	19006.17
605.71	18856.67
605.906	18703.07
606.102	18754.27
606.298	18715.36
606.494	18496.23
606.69	18584.29
606.886	18488.04
607.082	18123.5
607.278	18340.58
607.474	18137.84
607.67	18201.32
607.866	18068.2
608.062	18068.2
608.257	18008.81
608.453	18205.42
608.649	18053.87
608.845	17982.19
609.041	18090.73
609.236	17873.65
609.432	17859.31
609.628	17935.09
609.824	17855.22
610.019	17744.63
610.215	17593.08
610.411	17715.95
610.606	17629.94
610.802	17371.89
610.998	17429.24
611.193	17382.13
611.389	17345.27
611.584	17371.89
611.78	17314.55
611.976	17156.86
612.171	17341.18
612.367	17089.28
612.562	17023.74
612.758	16917.25
612.953	16960.25
613.149	17285.88
613.344	16872.19
613.539	16964.35
613.735	16935.68
613.93	17072.89
614.126	17013.5
614.321	16820.99
614.517	16919.29
614.712	16409.35
614.907	16458.5
615.103	16671.49
615.298	16476.93
615.493	16530.18
615.688	16360.2
615.884	16812.8
616.079	16130.83
616.274	16491.27
616.47	16136.97
616.665	16378.63
616.86	16227.08
617.055	16139.02
617.25	16278.28
617.445	16274.18
617.641	15758.1
617.836	16155.4
618.031	15788.82
618.226	15973.13
618.421	15794.96
618.616	15872.78
618.811	15518.48
619.006	15872.78
619.201	15526.68
619.396	15598.35
619.591	15442.71
619.786	15325.97
619.981	15391.51
620.176	15510.29
620.371	15299.35
620.566	15078.17
620.761	14873.37
620.956	15303.45
621.151	14639.9
621.346	15049.5
621.541	14762.78
621.735	14840.61
621.93	14555.94
622.125	14648.1
622.32	14494.5
622.515	14455.59
622.709	14394.15
622.904	14443.3
623.099	14183.21
623.294	14318.37
623.488	13779.76
623.683	14095.14
623.878	13777.71
624.072	13583.15
624.267	13847.34
624.462	13601.58
624.656	13613.87
624.851	13511.47
625.046	13476.66
625.24	13472.56
625.435	13239.09
625.629	13239.09
625.824	13161.27
626.018	13017.91
626.213	12784.44
626.407	13044.54
626.602	12811.07
626.796	12923.71
626.991	12925.75
627.185	12694.33
627.38	12796.73
627.574	12579.65
627.768	12632.9
627.963	12364.61
628.157	12161.86
628.352	12432.19
628.546	12299.08
628.74	12245.83
628.935	12008.26
629.129	11930.44
629.323	11955.02
629.517	11897.67
629.712	11934.54
629.906	11948.87
630.1	11647.82
630.294	11731.79
630.489	11596.62
630.683	11434.83
630.877	11613.01
631.071	11504.46
631.265	11422.55
631.459	11410.26
631.653	11129.69
631.848	11133.78
632.042	11178.84
632.236	11289.43
632.43	10984.28
632.624	11033.43
632.818	11074.39
633.012	10802.01
633.206	11023.19
633.4	10683.23
633.594	10971.99
633.788	10795.87
633.982	10832.73
634.176	10646.37
634.369	10572.64
634.563	10392.42
634.757	10398.56
634.951	10398.56
635.145	10208.1
635.339	10363.75
635.533	10126.18
635.726	10046.31
635.92	10140.52
636.114	10050.41
636.308	9982.82
636.501	9855.85
636.695	9853.8
636.889	9741.16
637.083	9810.79
637.276	9917.29
637.47	9710.44
637.664	9569.13
637.857	9683.82
638.051	9565.04
638.244	9253.75
638.438	9601.9
638.632	9378.67
638.825	9347.95
639.019	9335.67
639.212	9241.46
639.406	9020.28
639.599	9352.05
639.793	9317.23
639.986	8725.37
640.18	9112.44
640.373	8926.07
640.567	8885.11
640.76	8715.13
640.954	8758.14
641.147	8610.68
641.34	8762.23
641.534	8586.11
641.727	8483.71
641.92	8469.37
642.114	8491.9
642.307	8424.32
642.5	8383.36
642.694	8147.84
642.887	8387.46
643.08	8444.8
643.273	8405.89
643.467	8371.07
643.66	8043.4
643.853	8078.21
644.046	7916.42
644.239	8008.58
644.432	7922.57
644.626	7857.03
644.819	7674.76
645.012	7766.92
645.205	7693.19
645.398	7682.95
645.591	7637.9
645.784	7572.36
645.977	7342.99
646.17	7637.9
646.363	7431.05
646.556	7332.75
646.749	7332.75
646.942	7443.34
647.135	7277.46
647.328	7353.23
647.521	7138.2
647.714	7089.04
647.907	7101.33
648.099	7019.41
648.292	7062.42
648.485	7099.28
648.678	6921.11
648.871	6826.9
649.064	6828.95
649.256	6837.14
649.449	6941.59
649.642	6843.29
649.835	6695.83
650.027	6730.65
650.22	6611.87
650.413	6701.98
650.605	6689.69
650.798	6435.74
650.991	6480.8
651.183	6542.24
651.376	6378.4
651.568	6427.55
651.761	6319.01
651.954	6392.73
652.146	6230.94
652.339	6230.94
652.531	6181.79
652.724	6153.12
652.916	6050.72
653.109	6048.68
653.301	6114.21
653.494	6144.93
653.686	5886.89
653.879	6171.55
654.071	6040.48
654.263	5936.04
654.456	5903.27
654.648	5946.28
654.84	5786.54
655.033	5782.44
655.225	5624.75
655.417	5835.69
655.61	5632.94
655.802	5575.59
655.994	5643.18
656.186	5694.38
656.379	5555.12
656.571	5508.01
656.763	5383.09
656.955	5510.06
657.148	5514.16
657.34	5262.26
657.532	5362.61
657.724	5372.85
657.916	5204.91
658.108	5374.89
658.3	5129.14
658.492	5254.06
658.684	5219.25
658.876	5079.99
659.068	5045.17
659.26	5004.21
659.452	5075.89
659.644	5120.95
659.836	4932.53
660.028	4809.65
660.22	4807.61
660.412	4873.14
660.604	4836.28
660.796	4768.7
660.988	4838.33
661.18	4754.36
661.372	4862.9
661.563	4721.59
661.755	4678.58
661.947	4590.52
662.139	4580.28
662.331	4619.19
662.522	4490.17
662.714	4604.86
662.906	4438.97
663.097	4402.11
663.289	4230.08
663.481	4498.36
663.673	4318.14
663.864	4328.38
664.056	4250.56
664.247	4248.51
664.439	4234.18
664.631	4260.8
664.822	4250.56
665.014	4219.84
665.205	4137.92
665.397	4070.34
665.588	4125.63
665.78	4201.41
665.971	4072.39
666.163	4096.96
666.354	4148.16
666.546	3824.58
666.737	4062.15
666.929	4053.95
667.12	4205.5
667.311	3957.7
667.503	3843.01
667.694	3883.97
667.885	3812.29
668.077	3851.21
668.268	3695.56
668.459	3761.09
668.651	3830.73
668.842	3713.99
669.033	3892.16
669.224	3683.27
669.416	3726.28
669.607	3783.62
669.798	3765.19
669.989	3630.02
670.18	3611.59
670.371	3677.13
670.563	3666.89
670.754	3531.72
670.945	3632.07
671.136	3560.39
671.327	3378.12
671.518	3601.35
671.709	3531.72
671.9	3515.34
672.091	3535.82
672.282	3511.24
672.473	3455.95
672.664	3503.05
672.855	3531.72
673.046	3435.47
673.237	3433.42
673.428	3351.5
673.619	3435.47
673.809	3328.97
674	3341.26
674.191	3310.54
674.382	3394.51
674.573	3277.77
674.764	3296.21
674.954	3310.54
675.145	3199.95
675.336	3257.29
675.527	3349.45
675.717	3208.14
675.908	3228.62
676.099	3245.01
676.289	3290.06
676.48	3138.51
676.671	3109.84
676.861	3058.64
677.052	3138.51
677.243	3148.75
677.433	3257.29
677.624	3154.9
677.814	3152.85
678.005	3148.75
678.195	2927.57
678.386	3146.7
678.576	2927.57
678.767	3136.46
678.957	3048.4
679.148	3040.21
679.338	3044.31
679.529	2999.25
679.719	3034.07
679.909	3068.88
680.1	2886.61
680.29	3052.5
680.481	3046.35
680.671	2943.96
680.861	2837.46
681.052	2880.47
681.242	2876.37
681.432	2921.43
681.622	3048.4
681.813	2827.22
682.003	2917.33
682.193	2958.29
682.383	2927.57
682.573	2808.79
682.764	2833.36
682.954	2941.91
683.144	2909.14
683.334	2886.61
683.524	2708.44
683.714	2839.51
683.904	2855.89
684.094	2751.45
684.284	2739.16
684.474	2888.66
684.664	2714.58
684.854	2812.89
685.044	2798.55
685.234	2681.82
685.424	2843.6
685.614	2730.97
685.804	2745.3
685.994	2821.08
686.184	2755.54
686.374	2706.39
686.564	2782.17
686.753	2675.67
686.943	2569.18
687.133	2679.77
687.323	2585.56
687.513	2632.66
687.702	2614.23
687.892	2647
688.082	2712.53
688.272	2608.09
688.461	2620.38
688.651	2708.44
688.841	2640.86
689.03	2647
689.22	2749.4
689.41	2665.43
689.599	2638.81
689.789	2524.12
689.979	2520.03
690.168	2704.34
690.358	2638.81
690.547	2522.07
690.737	2663.38
690.926	2448.35
691.116	2427.87
691.305	2558.94
691.495	2558.94
691.684	2479.07
691.874	2616.28
692.063	2634.71
692.252	2581.46
692.442	2526.17
692.631	2554.84
692.82	2479.07
693.01	2497.5
693.199	2544.6
693.388	2544.6
693.578	2565.08
693.767	2573.27
693.956	2491.35
694.146	2370.52
694.335	2462.68
694.524	2542.55
694.713	2415.58
694.902	2501.59
695.092	2483.16
695.281	2491.35
695.47	2581.46
695.659	2507.74
695.848	2429.91
696.037	2495.45
696.226	2542.55
696.415	2589.66
696.604	2487.26
696.793	2493.4
696.982	2401.24
697.171	2520.03
697.36	2550.75
697.549	2339.8
697.738	2444.25
697.927	2509.79
698.116	2581.46
698.305	2352.09
698.494	2487.26
698.683	2419.68
698.872	2544.6
699.061	2472.92
699.25	2444.25
699.438	2339.8
699.627	2458.59
699.816	2376.67
700.005	2415.58
700.193	2511.83
700.382	2423.77
700.571	2288.61
700.76	2382.81
700.948	2599.9
701.137	2415.58
701.326	2411.48
701.514	2452.44
701.703	2511.83
701.892	2425.82
702.08	2405.34
702.269	2460.63
702.457	2333.66
702.646	2460.63
702.834	2288.61
703.023	2323.42
703.212	2327.52
703.4	2411.48
703.589	2395.1
703.777	2419.68
703.965	2268.13
704.154	2333.66
704.342	2188.25
704.531	2368.48
704.719	2237.41
704.907	2261.98
705.096	2356.19
705.284	2339.8
705.472	2393.05
705.661	2270.17
705.849	2264.03
706.037	2276.32
706.226	2221.02
706.414	2298.84
706.602	2251.74
706.79	2278.37
706.979	2257.89
707.167	2229.21
707.355	2196.45
707.543	2200.54
707.731	2309.08
707.919	2331.61
708.107	2286.56
708.296	2237.41
708.484	2098.14
708.672	2241.5
708.86	2161.63
709.048	2161.63
709.236	2059.23
709.424	2257.89
709.612	2180.06
709.8	2143.2
709.988	2216.93
710.176	2239.45
710.364	2171.87
710.551	2175.97
710.739	2071.52
710.927	1960.93
711.115	1995.75
711.303	2040.8
711.491	2155.49
711.679	2098.14
711.866	2008.03
712.054	2139.1
712.242	2216.93
712.43	2114.53
712.617	2042.85
712.805	1999.84
712.993	2008.03
713.181	2053.09
713.368	2092
713.556	2018.27
713.744	2001.89
713.931	2034.66
714.119	1985.51
714.306	2065.38
714.494	1909.73
714.682	1909.73
714.869	1977.31
715.057	2053.09
715.244	1940.45
715.432	1932.26
715.619	1991.65
715.807	1907.68
715.994	1969.12
716.182	1848.29
716.369	1870.82
716.556	1905.63
716.744	1885.16
716.931	1768.42
717.119	1895.4
717.306	1825.76
717.493	1821.67
717.681	1762.28
717.868	1836
718.055	1772.52
718.242	1836
718.43	1854.44
718.617	1752.04
718.804	1764.33
718.991	1754.09
719.179	1762.28
719.366	1795.04
719.553	1690.6
719.74	1653.73
719.927	1846.24
720.114	1700.84
720.301	1737.7
720.488	1729.51
720.676	1752.04
720.863	1700.84
721.05	1643.49
721.237	1631.21
721.424	1686.5
721.611	1758.18
721.798	1725.41
721.985	1643.49
722.172	1762.28
722.358	1668.07
722.545	1602.54
722.732	1559.53
722.919	1588.2
723.106	1532.9
723.293	1596.39
723.48	1690.6
723.667	1639.4
723.853	1641.45
724.04	1588.2
724.227	1620.97
724.414	1553.38
724.6	1629.16
724.787	1592.3
724.974	1598.44
725.161	1561.58
725.347	1559.53
725.534	1541.1
725.72	1612.78
725.907	1573.86
726.094	1573.86
726.28	1461.23
726.467	1526.76
726.653	1467.37
726.84	1541.1
727.027	1594.34
727.213	1412.07
727.4	1608.68
727.586	1467.37
727.773	1473.51
727.959	1559.53
728.145	1524.71
728.332	1543.14
728.518	1467.37
728.705	1444.84
728.891	1493.99
729.077	1438.7
729.264	1500.14
729.45	1434.6
729.636	1502.19
729.823	1446.89
730.009	1338.35
730.195	1461.23
730.382	1401.83
730.568	1414.12
730.754	1377.26
730.94	1397.74
731.126	1434.6
731.313	1373.16
731.499	1311.72
731.685	1383.4
731.871	1395.69
732.057	1330.16
732.243	1289.2
732.429	1342.44
732.615	1381.35
732.801	1268.72
732.987	1305.58
733.173	1356.78
733.359	1516.52
733.545	1264.62
733.731	1240.05
733.917	1358.83
734.103	1362.92
734.289	1338.35
734.475	1379.31
734.661	1305.58
734.847	1377.26
735.033	1364.97
735.219	1319.92
735.404	1309.68
735.59	1326.06
735.776	1266.67
735.962	1270.76
736.148	1311.72
736.333	1313.77
736.519	1184.75
736.705	1205.23
736.89	1242.09
737.076	1270.76
737.262	1238
737.447	1229.81
737.633	1303.53
737.819	1201.13
738.004	1309.68
738.19	1238
738.375	1207.28
738.561	1223.66
738.747	1227.76
738.932	1225.71
739.118	1139.69
739.303	1264.62
739.489	1190.89
739.674	1119.21
739.859	1170.41
740.045	1176.56
740.23	1164.27
740.416	1068.02
740.601	1297.39
740.786	1102.83
740.972	1186.8
741.157	1127.41
741.342	1168.37
741.528	1106.93
741.713	1121.26
741.898	1129.45
742.084	1113.07
742.269	1135.6
742.454	1051.63
742.639	1149.93
742.824	1111.02
743.01	1106.93
743.195	1039.34
743.38	1078.26
743.565	1108.98
743.75	1076.21
743.935	1131.5
744.12	1117.17
744.305	1051.63
744.49	1008.62
744.675	1020.91
744.86	1061.87
745.045	1057.78
745.23	975.86
745.415	1008.62
745.6	1014.77
745.785	1012.72
745.97	1010.67
746.155	943.09
746.34	1068.02
746.525	996.34
746.71	887.79
746.895	949.23
747.079	920.56
747.264	869.36
747.449	904.18
747.634	934.9
747.819	1002.48
748.003	934.9
748.188	982
748.373	961.52
748.557	895.99
748.742	1012.72
748.927	895.99
749.111	959.47
749.296	953.33
749.481	918.51
749.665	869.36
749.85	834.55
750.034	910.32
750.219	850.93
750.404	814.07
750.588	994.29
750.773	816.12
750.957	822.26
751.141	795.64
751.326	828.4
751.51	795.64
751.695	805.88
751.879	887.79
752.064	828.4
752.248	746.48
752.432	740.34
752.617	785.4
752.801	740.34
752.985	803.83
753.17	762.87
753.354	887.79
753.538	807.92
753.722	666.61
753.907	771.06
754.091	707.57
754.275	701.43
754.459	816.12
754.643	652.28
754.828	746.48
755.012	742.39
755.196	719.86
755.38	730.1
755.564	723.96
755.748	592.89
755.932	779.25
756.116	680.95
756.3	683
756.484	654.33
756.668	748.53
756.852	592.89
757.036	689.14
757.22	695.29
757.404	705.53
757.588	648.18
757.772	662.52
757.956	646.13
758.14	656.37
758.323	639.99
758.507	586.74
758.691	656.37
758.875	660.47
759.059	611.32
759.242	607.22
759.426	683
759.61	648.18
759.794	594.93
759.977	642.04
760.161	601.08
760.345	541.69
760.528	529.4
760.712	588.79
760.895	568.31
761.079	664.57
761.263	558.07
761.446	504.82
761.63	623.61
761.813	576.5
761.997	517.11
762.18	578.55
762.364	633.85
762.547	562.17
762.731	678.9
762.914	551.93
763.098	543.74
763.281	539.64
763.464	572.41
763.648	625.65
763.831	599.03
764.015	549.88
764.198	629.75
764.381	562.17
764.564	572.41
764.748	574.46
764.931	519.16
765.114	592.89
765.297	476.15
765.481	566.26
765.664	531.45
765.847	476.15
766.03	513.02
766.213	539.64
766.397	529.4
766.58	463.86
766.763	529.4
766.946	549.88
767.129	541.69
767.312	429.05
767.495	562.17
767.678	537.59
767.861	545.78
768.044	506.87
768.227	545.78
768.41	474.1
768.593	519.16
768.776	510.97
768.959	533.5
769.142	474.1
769.324	474.1
769.507	429.05
769.69	480.25
769.873	486.39
770.056	558.07
770.239	453.63
770.421	523.26
770.604	429.05
770.787	472.06
770.97	427
771.152	427
771.335	545.78
771.518	445.43
771.7	453.63
771.883	459.77
772.066	470.01
772.248	394.23
772.431	484.34
772.613	410.62
772.796	443.39
772.978	404.47
773.161	443.39
773.343	547.83
773.526	457.72
773.708	379.9
773.891	349.18
774.073	400.38
774.256	427
774.438	429.05
774.621	375.8
774.803	388.09
774.985	396.28
775.168	463.86
775.35	465.91
775.532	437.24
775.715	435.19
775.897	386.04
776.079	451.58
776.261	390.14
776.444	422.91
776.626	402.43
776.808	388.09
776.99	388.09
777.173	412.67
777.355	334.84
777.537	443.39
777.719	388.09
777.901	427
778.083	318.46
778.265	365.56
778.447	431.1
778.629	363.51
778.811	375.8
778.993	351.23
779.175	312.32
779.357	306.17
779.539	334.84
779.721	308.22
779.903	445.43
780.085	345.08
780.267	326.65
780.449	394.23
780.631	332.79
780.812	316.41
780.994	334.84
781.176	254.97
781.358	349.18
781.54	289.79
781.721	310.27
781.903	300.03
782.085	336.89
782.267	326.65
782.448	351.23
782.63	244.73
782.812	388.09
782.993	291.84
783.175	332.79
783.357	293.88
783.538	371.71
783.72	320.51
783.901	257.02
784.083	267.26
784.264	295.93
784.446	285.69
784.627	214.01
784.809	287.74
784.99	220.16
785.172	281.6
785.353	328.7
785.535	336.89
785.716	336.89
785.897	300.03
786.079	259.07
786.26	295.93
786.441	316.41
786.623	211.96
786.804	244.73
786.985	248.83
787.167	214.01
787.348	193.53
787.529	310.27
787.71	246.78
787.891	254.97
788.073	218.11
788.254	259.07
788.435	224.25
788.616	171.01
788.797	183.29
788.978	246.78
789.159	222.2
789.34	267.26
789.522	189.44
789.703	242.68
789.884	175.1
790.065	281.6
790.246	257.02
790.427	156.67
790.607	209.92
790.788	246.78
790.969	132.09
791.15	148.48
791.331	154.62
791.512	238.59
791.693	173.05
791.874	230.4
792.054	189.44
792.235	177.15
792.416	142.33
792.597	166.91
792.778	197.63
792.958	207.87
793.139	246.78
793.32	279.55
793.5	144.38
793.681	209.92
793.862	140.29
794.042	162.81
794.223	207.87
794.404	109.57
794.584	138.24
794.765	187.39
794.945	205.82
795.126	201.72
795.306	166.91
795.487	177.15
795.667	119.81
795.848	125.95
796.028	166.91
796.209	222.2
796.389	136.19
796.57	273.4
796.75	193.53
796.93	257.02
797.111	130.05
797.291	156.67
797.471	93.18
797.652	125.95
797.832	142.33
798.012	146.43
798.192	144.38
798.373	134.14
798.553	195.58
798.733	173.05
798.913	173.05
799.093	115.71
799.274	168.96
799.454	119.81
799.634	164.86
799.814	156.67
799.994	121.85
800.174	156.67
800.354	121.85
800.534	66.56
800.714	119.81
800.894	168.96
801.074	117.76
801.254	107.52
801.434	197.63
801.614	72.7
801.794	115.71
801.974	431.1
802.154	183.29
802.334	111.61
802.514	144.38
802.693	97.28
802.873	130.05
803.053	144.38
803.233	183.29
803.413	99.33
803.592	84.99
803.772	166.91
803.952	115.71
804.131	140.29
804.311	50.18
804.491	119.81
804.67	156.67
804.85	160.77
805.03	117.76
805.209	136.19
805.389	35.84
805.568	134.14
805.748	125.95
805.928	41.98
806.107	105.47
806.287	99.33
806.466	119.81
806.646	158.72
806.825	123.9
807.004	117.76
807.184	84.99
807.363	146.43
807.543	128
807.722	97.28
807.901	109.57
808.081	148.48
808.26	-1.02
808.439	33.79
808.619	181.25
808.798	119.81
808.977	105.47
809.156	91.13
809.336	142.33
809.515	64.51
809.694	84.99
809.873	144.38
810.052	52.22
810.231	123.9
810.411	54.27
810.59	60.42
810.769	84.99
810.948	109.57
811.127	31.74
811.306	44.03
811.485	82.94
811.664	44.03
811.843	15.36
812.022	-5.12
812.201	91.13
812.38	142.33
812.559	29.7
812.737	150.53
812.916	84.99
813.095	64.51
813.274	117.76
813.453	82.94
813.632	99.33
813.811	142.33
813.989	58.37
814.168	117.76
814.347	23.55
814.526	56.32
814.704	25.6
814.883	140.29
815.062	82.94
815.24	21.5
815.419	148.48
815.598	50.18
815.776	93.18
815.955	50.18
816.133	95.23
816.312	99.33
816.49	68.61
816.669	117.76
816.847	33.79
817.026	46.08
817.204	78.85
817.383	97.28
817.561	109.57
817.74	109.57
817.918	29.7
818.097	93.18
818.275	136.19
818.453	93.18
818.632	50.18
818.81	87.04
818.988	107.52
819.167	76.8
819.345	58.37
819.523	66.56
819.701	29.7
819.879	29.7
820.058	66.56
820.236	111.61
820.414	58.37
820.592	68.61
820.77	41.98
820.948	76.8
821.127	62.46
821.305	70.65
821.483	62.46
821.661	68.61
821.839	140.29
822.017	72.7
822.195	82.94
822.373	74.75
822.551	19.46
822.729	76.8
822.907	68.61
823.085	31.74
823.262	74.75
823.44	33.79
823.618	25.6
823.796	66.56
823.974	107.52
824.152	130.05
824.329	78.85
824.507	78.85
824.685	76.8
824.863	91.13
825.04	58.37
825.218	93.18
825.396	27.65
825.574	146.43
825.751	13.31
825.929	82.94
826.107	27.65
826.284	84.99
826.462	9.22
826.639	97.28
826.817	19.46
826.994	44.03
827.172	58.37
827.349	78.85
827.527	82.94
827.704	44.03
827.882	1.02
828.059	3.07
828.237	9.22
828.414	109.57
828.591	44.03
828.769	19.46
828.946	84.99
829.124	41.98
829.301	101.37
829.478	64.51
829.655	35.84
829.833	-5.12
830.01	33.79
830.187	44.03
830.364	11.26
830.542	74.75
830.719	91.13
830.896	56.32
831.073	7.17
831.25	-7.17
831.427	84.99
831.604	37.89
831.782	-7.17
831.959	80.89
832.136	-31.74
832.313	-25.6
832.49	41.98
832.667	78.85
832.844	9.22
833.021	72.7
833.198	54.27
833.374	33.79
833.551	-23.55
833.728	31.74
833.905	15.36
834.082	-1.02
834.259	50.18
834.436	123.9
834.612	1.02
834.789	29.7
834.966	25.6
835.143	19.46
835.319	-19.46
835.496	44.03
835.673	-7.17
835.85	29.7
836.026	64.51
836.203	33.79
836.38	21.5
836.556	-1.02
836.733	54.27
836.909	44.03
837.086	3.07
837.262	68.61
837.439	50.18
837.616	-11.26
837.792	-27.65
837.968	35.84
838.145	-13.31
838.321	31.74
838.498	41.98
838.674	41.98
838.851	56.32
839.027	31.74
839.203	13.31
839.38	44.03
839.556	35.84
839.732	11.26
839.909	68.61
840.085	56.32
840.261	54.27
840.437	37.89
840.614	-3.07
840.79	56.32
840.966	50.18
841.142	56.32
841.318	39.94
841.494	87.04
841.671	37.89
841.847	50.18
842.023	-7.17
842.199	-5.12
842.375	58.37
842.551	-29.7
842.727	-31.74
842.903	152.57
843.079	1.02
843.255	46.08
843.431	27.65
843.607	17.41
843.783	-39.94
843.959	39.94
844.134	-64.51
844.31	5.12
844.486	-46.08
844.662	-7.17
844.838	105.47
845.013	119.81
845.189	-35.84
845.365	31.74
845.541	15.36
845.716	29.7
845.892	15.36
846.068	19.46
846.244	70.65
846.419	25.6
846.595	-29.7
846.77	33.79
846.946	35.84
847.122	15.36
847.297	21.5
847.473	21.5
847.648	13.31
847.824	82.94
847.999	-46.08
848.175	3.07
848.35	-48.13
848.526	29.7
848.701	82.94
848.876	82.94
849.052	44.03
849.227	41.98
849.403	35.84
849.578	37.89
849.753	-66.56
849.929	50.18
850.104	-80.89
850.279	3.07
850.454	60.42
850.63	19.46
850.805	17.41
850.98	-17.41
851.155	-80.89
851.33	17.41
851.505	21.5
851.681	13.31
851.856	-25.6
852.031	-19.46
852.206	35.84
852.381	50.18
852.556	56.32
852.731	23.55
852.906	19.46
853.081	-9.22
853.256	17.41
853.431	-17.41
853.606	25.6
853.781	33.79
853.956	48.13
854.131	5.12
854.305	17.41
854.48	-89.09
854.655	13.31
854.83	-7.17
855.005	-29.7
855.18	-13.31
855.354	7.17
855.529	15.36
855.704	25.6
855.879	13.31
856.053	3.07
856.228	25.6
856.403	37.89
856.577	50.18
856.752	1.02
856.926	99.33
857.101	25.6
857.276	33.79
857.45	-23.55
857.625	29.7
857.799	-7.17
857.974	1.02
858.148	27.65
858.323	25.6
858.497	9.22
858.672	82.94
858.846	-52.22
859.02	-9.22
859.195	1.02
859.369	-25.6
859.543	9.22
859.718	-23.55
859.892	-25.6
860.066	27.65
860.241	58.37
860.415	25.6
860.589	17.41
860.763	3.07
860.938	-25.6
861.112	-7.17
861.286	-41.98
861.46	27.65
861.634	-7.17
861.808	72.7
861.982	33.79
862.157	93.18
862.331	25.6
862.505	17.41
862.679	33.79
862.853	87.04
863.027	-3.07
863.201	-23.55
863.375	21.5
863.549	80.89
863.722	-62.46
863.896	46.08
864.07	1.02
864.244	-39.94
864.418	-15.36
864.592	66.56
864.766	-19.46
864.939	29.7
865.113	-21.5
865.287	33.79
865.461	9.22
865.634	91.13
865.808	-21.5
865.982	3.07
866.156	1.02
866.329	-41.98
866.503	62.46
866.676	27.65
866.85	1.02
867.024	-60.42
867.197	-11.26
867.371	11.26
867.544	-3.07
867.718	31.74
867.891	17.41
868.065	-29.7
868.238	52.22
868.412	-5.12
868.585	60.42
868.759	50.18
868.932	-11.26
869.105	-78.85
869.279	-11.26
869.452	25.6
869.625	60.42
869.799	-13.31
869.972	3.07
870.145	3.07
870.319	97.28
870.492	11.26
870.665	37.89
870.838	-5.12
871.011	-11.26
871.185	9.22
871.358	-60.42
871.531	-15.36
871.704	-46.08
871.877	50.18
872.05	-21.5
872.223	-23.55
872.396	1.02
872.569	48.13
872.742	3.07
872.915	5.12
873.088	11.26
873.261	-58.37
873.434	-23.55
873.607	-25.6
873.78	3.07
873.953	23.55
874.126	5.12
874.299	64.51
874.471	35.84
874.644	-1.02
874.817	29.7
874.99	33.79
875.163	33.79
875.335	25.6
875.508	-1.02
875.681	-15.36
875.853	23.55
876.026	41.98
876.199	17.41
876.371	-44.03
876.544	-19.46
876.717	17.41
876.889	-19.46
877.062	33.79
877.234	-64.51
877.407	11.26
877.579	-3.07
877.752	41.98
877.924	13.31
878.097	17.41
878.269	1.02
878.442	33.79
878.614	-5.12
878.786	-23.55
878.959	41.98
879.131	15.36
879.303	-37.89
879.476	101.37
879.648	50.18
879.82	9.22
879.993	70.65
880.165	52.22
880.337	5.12
880.509	-15.36
880.681	-37.89
880.854	44.03
881.026	-37.89
881.198	7.17
881.37	33.79
881.542	-64.51
881.714	-13.31
881.886	-56.32
882.058	-44.03
882.23	3.07
882.402	-46.08
882.574	-15.36
882.746	-35.84
882.918	9.22
883.09	9.22
883.262	-62.46
883.434	-76.8
883.606	-56.32
883.778	-15.36
883.95	56.32
884.122	-5.12
884.293	9.22
884.465	5.12
884.637	-15.36
884.809	-11.26
884.98	-35.84
885.152	-15.36
885.324	-21.5
885.496	-7.17
885.667	-5.12
885.839	-44.03
886.011	-11.26
886.182	-41.98
886.354	-13.31
886.525	-19.46
886.697	1.02
886.869	-41.98
887.04	-21.5
887.212	-5.12
887.383	-56.32
887.555	19.46
887.726	5.12
887.897	5.12
888.069	-5.12
888.24	19.46
888.412	15.36
888.583	29.7
888.754	-25.6
888.926	-76.8
889.097	-7.17
889.268	-15.36
889.44	-58.37
889.611	-46.08
889.782	23.55
889.953	-23.55
890.125	-27.65
890.296	3.07
890.467	56.32
890.638	-11.26
890.809	9.22
890.98	-48.13
891.151	35.84
891.323	-33.79
891.494	7.17
891.665	19.46
891.836	44.03
892.007	-74.75
892.178	-31.74
892.349	-5.12
892.52	1.02
892.691	-66.56
892.862	54.27
893.032	-23.55
893.203	84.99
893.374	66.56
893.545	15.36
893.716	-23.55
893.887	-56.32
894.057	-19.46
894.228	60.42
894.399	-68.61
894.57	3.07
894.74	3.07
894.911	-5.12
895.082	29.7
895.253	3.07
895.423	31.74
895.594	25.6
895.764	3.07
895.935	21.5
896.106	-56.32
896.276	27.65
896.447	-29.7
896.617	13.31
896.788	3.07
896.958	-68.61
897.129	3.07
897.299	-1.02
897.47	50.18
897.64	-13.31
897.81	-29.7
897.981	-56.32
898.151	50.18
898.322	1.02
898.492	-52.22
898.662	-13.31
898.832	52.22
899.003	-62.46
899.173	37.89
899.343	52.22
899.513	-50.18
