Data from USB4F104151__15__13-52-21-844.txt Node

Date: Thu Mar 13 13:52:21 EDT 2025
User: louis
Spectrometer: USB4F10415
Trigger mode: 4
Integration Time (sec): 1.000000E-2
Scans to average: 1
Electric dark correction enabled: true
Nonlinearity correction enabled: false
Boxcar width: 0
XAxis mode: Wavelengths
Number of Pixels in Spectrum: 3648
>>>>>Begin Spectral Data<<<<<
178.204	-34.64
178.424	-34.64
178.644	-34.64
178.864	-53.08
179.084	-71.51
179.304	-8.02
179.524	-5.97
179.744	0.17
179.964	82.09
180.184	-26.45
180.404	-5.97
180.624	84.14
180.844	-53.08
181.064	-22.36
181.283	10.41
181.503	-38.74
181.723	-16.21
181.943	-44.88
182.163	37.03
182.383	28.84
182.602	0.17
182.822	16.55
183.042	4.27
183.262	-3.93
183.482	73.9
183.701	75.95
183.921	43.18
184.141	12.46
184.361	75.95
184.58	-28.5
184.8	2.22
185.02	-8.02
185.239	-5.97
185.459	24.75
185.679	67.75
185.898	0.17
186.118	37.03
186.338	-34.64
186.557	26.79
186.777	-12.12
186.997	-22.36
187.216	24.75
187.436	47.27
187.655	-1.88
187.875	69.8
188.095	-20.31
188.314	43.18
188.534	6.31
188.753	20.65
188.973	37.03
189.192	12.46
189.412	6.31
189.631	22.7
189.851	-26.45
190.07	45.23
190.29	22.7
190.509	-55.12
190.729	8.36
190.948	-3.93
191.168	51.37
191.387	32.94
191.607	39.08
191.826	32.94
192.045	-34.64
192.265	18.6
192.484	39.08
192.704	26.79
192.923	32.94
193.142	41.13
193.362	45.23
193.581	71.85
193.8	-20.31
194.02	37.03
194.239	-14.17
194.458	71.85
194.678	-10.07
194.897	41.13
195.116	59.56
195.335	53.42
195.555	41.13
195.774	-18.26
195.993	-10.07
196.212	-8.02
196.432	-26.45
196.651	0.17
196.87	-32.6
197.089	71.85
197.308	49.32
197.528	30.89
197.747	-28.5
197.966	-26.45
198.185	12.46
198.404	12.46
198.623	28.84
198.842	-5.97
199.062	18.6
199.281	28.84
199.5	2.22
199.719	6.31
199.938	6.31
200.157	4.27
200.376	-20.31
200.595	37.03
200.814	45.23
201.033	30.89
201.252	41.13
201.471	-5.97
201.69	-91.99
201.909	12.46
202.128	-14.17
202.347	77.99
202.566	-14.17
202.785	-5.97
203.004	-20.31
203.223	8.36
203.442	18.6
203.661	32.94
203.879	24.75
204.098	-1.88
204.317	28.84
204.536	0.17
204.755	-10.07
204.974	73.9
205.193	61.61
205.411	-10.07
205.63	18.6
205.849	-14.17
206.068	47.27
206.287	-46.93
206.505	61.61
206.724	2.22
206.943	28.84
207.162	53.42
207.381	-1.88
207.599	32.94
207.818	-18.26
208.037	-1.88
208.255	129.19
208.474	-42.84
208.693	18.6
208.911	22.7
209.13	20.65
209.349	43.18
209.567	55.47
209.786	14.51
210.005	24.75
210.223	57.51
210.442	94.38
210.661	57.51
210.879	28.84
211.098	47.27
211.316	47.27
211.535	55.47
211.753	6.31
211.972	20.65
212.191	16.55
212.409	-28.5
212.628	20.65
212.846	-20.31
213.065	49.32
213.283	37.03
213.502	43.18
213.72	-32.6
213.938	-16.21
214.157	41.13
214.375	-5.97
214.594	-42.84
214.812	59.56
215.031	57.51
215.249	8.36
215.467	6.31
215.686	-8.02
215.904	71.85
216.122	-18.26
216.341	0.17
216.559	-40.79
216.778	12.46
216.996	39.08
217.214	4.27
217.432	10.41
217.651	43.18
217.869	84.14
218.087	20.65
218.306	24.75
218.524	8.36
218.742	-14.17
218.96	82.09
219.179	39.08
219.397	30.89
219.615	16.55
219.833	2.22
220.051	37.03
220.27	-12.12
220.488	30.89
220.706	-18.26
220.924	-12.12
221.142	77.99
221.36	22.7
221.578	43.18
221.796	-5.97
222.015	-3.93
222.233	24.75
222.451	116.9
222.669	24.75
222.887	-3.93
223.105	-10.07
223.323	8.36
223.541	-55.12
223.759	2.22
223.977	-59.22
224.195	37.03
224.413	88.23
224.631	-5.97
224.849	14.51
225.067	133.29
225.285	-10.07
225.503	39.08
225.721	8.36
225.939	-1.88
226.157	75.95
226.375	53.42
226.592	12.46
226.81	77.99
227.028	57.51
227.246	-8.02
227.464	47.27
227.682	71.85
227.9	-1.88
228.117	-12.12
228.335	49.32
228.553	-3.93
228.771	-32.6
228.989	41.13
229.206	-24.4
229.424	71.85
229.642	-53.08
229.86	28.84
230.077	22.7
230.295	-18.26
230.513	22.7
230.731	32.94
230.948	-22.36
231.166	84.14
231.384	-55.12
231.601	-46.93
231.819	30.89
232.037	84.14
232.254	-10.07
232.472	63.66
232.689	-61.27
232.907	45.23
233.125	-20.31
233.342	41.13
233.56	-34.64
233.777	24.75
233.995	57.51
234.213	28.84
234.43	4.27
234.648	61.61
234.865	-71.51
235.083	43.18
235.3	-3.93
235.518	10.41
235.735	-22.36
235.953	10.41
236.17	12.46
236.388	28.84
236.605	-24.4
236.822	26.79
237.04	51.37
237.257	-20.31
237.475	14.51
237.692	77.99
237.909	-10.07
238.127	20.65
238.344	96.43
238.562	-48.98
238.779	20.65
238.996	24.75
239.214	67.75
239.431	37.03
239.648	-30.55
239.865	12.46
240.083	47.27
240.3	12.46
240.517	73.9
240.735	18.6
240.952	20.65
241.169	0.17
241.386	26.79
241.603	39.08
241.821	-30.55
242.038	69.8
242.255	39.08
242.472	32.94
242.689	20.65
242.907	53.42
243.124	26.79
243.341	14.51
243.558	57.51
243.775	24.75
243.992	-55.12
244.209	-1.88
244.426	51.37
244.643	-16.21
244.86	57.51
245.078	2.22
245.295	-40.79
245.512	-10.07
245.729	14.51
245.946	94.38
246.163	39.08
246.38	20.65
246.597	49.32
246.814	-16.21
247.031	26.79
247.248	123.05
247.464	24.75
247.681	61.61
247.898	-48.98
248.115	69.8
248.332	-87.89
248.549	-38.74
248.766	2.22
248.983	12.46
249.2	-18.26
249.417	2.22
249.633	-26.45
249.85	71.85
250.067	26.79
250.284	37.03
250.501	-8.02
250.717	80.04
250.934	-3.93
251.151	4.27
251.368	96.43
251.585	80.04
251.801	4.27
252.018	-20.31
252.235	20.65
252.451	30.89
252.668	-36.69
252.885	77.99
253.102	-3.93
253.318	49.32
253.535	14.51
253.752	94.38
253.968	71.85
254.185	55.47
254.401	-3.93
254.618	34.99
254.835	-32.6
255.051	55.47
255.268	-61.27
255.484	53.42
255.701	6.31
255.917	86.19
256.134	12.46
256.351	18.6
256.567	39.08
256.784	32.94
257	16.55
257.217	51.37
257.433	4.27
257.65	24.75
257.866	32.94
258.082	69.8
258.299	-42.84
258.515	-30.55
258.732	26.79
258.948	67.75
259.165	41.13
259.381	26.79
259.597	55.47
259.814	63.66
260.03	41.13
260.246	10.41
260.463	90.28
260.679	18.6
260.895	84.14
261.112	32.94
261.328	49.32
261.544	75.95
261.761	43.18
261.977	24.75
262.193	2.22
262.409	49.32
262.626	43.18
262.842	20.65
263.058	-1.88
263.274	104.62
263.49	45.23
263.707	-30.55
263.923	37.03
264.139	-32.6
264.355	51.37
264.571	55.47
264.787	49.32
265.004	-8.02
265.22	88.23
265.436	59.56
265.652	-5.97
265.868	125.1
266.084	20.65
266.3	86.19
266.516	45.23
266.732	69.8
266.948	6.31
267.164	-8.02
267.38	34.99
267.596	41.13
267.812	12.46
268.028	18.6
268.244	26.79
268.46	96.43
268.676	51.37
268.892	53.42
269.108	-48.98
269.324	-1.88
269.54	-10.07
269.756	-16.21
269.972	43.18
270.188	43.18
270.403	4.27
270.619	-28.5
270.835	-20.31
271.051	-34.64
271.267	71.85
271.483	22.7
271.698	-3.93
271.914	12.46
272.13	28.84
272.346	2.22
272.562	-77.65
272.777	92.33
272.993	-24.4
273.209	43.18
273.425	-3.93
273.64	61.61
273.856	39.08
274.072	51.37
274.287	4.27
274.503	0.17
274.719	0.17
274.934	45.23
275.15	10.41
275.366	-16.21
275.581	24.75
275.797	30.89
276.012	53.42
276.228	18.6
276.444	-30.55
276.659	-67.41
276.875	32.94
277.09	61.61
277.306	63.66
277.521	80.04
277.737	-8.02
277.952	4.27
278.168	39.08
278.383	28.84
278.599	-55.12
278.814	90.28
279.03	6.31
279.245	-26.45
279.461	69.8
279.676	57.51
279.892	55.47
280.107	18.6
280.322	20.65
280.538	45.23
280.753	45.23
280.969	57.51
281.184	-24.4
281.399	88.23
281.615	-18.26
281.83	49.32
282.045	-16.21
282.26	-5.97
282.476	121
282.691	39.08
282.906	45.23
283.122	18.6
283.337	71.85
283.552	-26.45
283.767	12.46
283.983	39.08
284.198	92.33
284.413	-1.88
284.628	14.51
284.843	0.17
285.058	-3.93
285.274	-59.22
285.489	28.84
285.704	30.89
285.919	-12.12
286.134	80.04
286.349	6.31
286.564	-10.07
286.779	28.84
286.995	-8.02
287.21	-18.26
287.425	53.42
287.64	112.81
287.855	45.23
288.07	-22.36
288.285	28.84
288.5	-12.12
288.715	-28.5
288.93	82.09
289.145	84.14
289.36	12.46
289.575	10.41
289.79	63.66
290.004	-5.97
290.219	61.61
290.434	-28.5
290.649	22.7
290.864	20.65
291.079	59.56
291.294	22.7
291.509	0.17
291.724	37.03
291.938	77.99
292.153	67.75
292.368	63.66
292.583	45.23
292.798	-14.17
293.012	-3.93
293.227	18.6
293.442	39.08
293.657	47.27
293.871	16.55
294.086	32.94
294.301	37.03
294.516	10.41
294.73	34.99
294.945	12.46
295.16	88.23
295.374	-16.21
295.589	-34.64
295.804	80.04
296.018	55.47
296.233	61.61
296.447	-24.4
296.662	22.7
296.877	45.23
297.091	22.7
297.306	147.62
297.52	-22.36
297.735	75.95
297.949	-30.55
298.164	37.03
298.378	-14.17
298.593	32.94
298.807	22.7
299.022	34.99
299.236	6.31
299.451	-14.17
299.665	-14.17
299.88	28.84
300.094	-40.79
300.309	80.04
300.523	63.66
300.737	37.03
300.952	10.41
301.166	123.05
301.381	14.51
301.595	-3.93
301.809	94.38
302.024	49.32
302.238	39.08
302.452	75.95
302.667	43.18
302.881	82.09
303.095	2.22
303.309	63.66
303.524	45.23
303.738	39.08
303.952	-63.32
304.166	-8.02
304.381	-20.31
304.595	34.99
304.809	6.31
305.023	108.71
305.237	57.51
305.452	41.13
305.666	0.17
305.88	53.42
306.094	4.27
306.308	82.09
306.522	61.61
306.736	57.51
306.95	6.31
307.164	110.76
307.379	-10.07
307.593	30.89
307.807	20.65
308.021	32.94
308.235	10.41
308.449	-55.12
308.663	55.47
308.877	-3.93
309.091	10.41
309.305	71.85
309.519	-1.88
309.733	92.33
309.947	80.04
310.161	67.75
310.374	12.46
310.588	129.19
310.802	14.51
311.016	43.18
311.23	0.17
311.444	6.31
311.658	43.18
311.872	28.84
312.085	32.94
312.299	67.75
312.513	41.13
312.727	57.51
312.941	41.13
313.154	71.85
313.368	47.27
313.582	30.89
313.796	116.9
314.009	67.75
314.223	10.41
314.437	84.14
314.651	45.23
314.864	125.1
315.078	65.71
315.292	24.75
315.505	102.57
315.719	26.79
315.933	63.66
316.146	32.94
316.36	26.79
316.573	34.99
316.787	43.18
317.001	-1.88
317.214	49.32
317.428	24.75
317.641	12.46
317.855	41.13
318.068	57.51
318.282	-59.22
318.495	63.66
318.709	80.04
318.922	69.8
319.136	-16.21
319.349	8.36
319.563	30.89
319.776	67.75
319.99	45.23
320.203	59.56
320.417	2.22
320.63	2.22
320.843	6.31
321.057	8.36
321.27	20.65
321.483	63.66
321.697	61.61
321.91	104.62
322.124	45.23
322.337	90.28
322.55	8.36
322.763	26.79
322.977	96.43
323.19	22.7
323.403	8.36
323.617	2.22
323.83	49.32
324.043	-10.07
324.256	55.47
324.469	37.03
324.683	65.71
324.896	73.9
325.109	14.51
325.322	10.41
325.535	28.84
325.748	49.32
325.962	34.99
326.175	24.75
326.388	18.6
326.601	18.6
326.814	-8.02
327.027	-12.12
327.24	123.05
327.453	-34.64
327.666	10.41
327.879	14.51
328.092	108.71
328.305	65.71
328.518	-10.07
328.731	2.22
328.944	53.42
329.157	77.99
329.37	112.81
329.583	82.09
329.796	10.41
330.009	-61.27
330.222	41.13
330.435	-5.97
330.648	92.33
330.861	90.28
331.073	59.56
331.286	2.22
331.499	37.03
331.712	14.51
331.925	43.18
332.138	-18.26
332.35	16.55
332.563	96.43
332.776	-16.21
332.989	69.8
333.202	84.14
333.414	10.41
333.627	45.23
333.84	14.51
334.053	18.6
334.265	39.08
334.478	34.99
334.691	26.79
334.903	53.42
335.116	-40.79
335.329	80.04
335.541	47.27
335.754	69.8
335.966	12.46
336.179	20.65
336.392	22.7
336.604	16.55
336.817	22.7
337.029	-24.4
337.242	32.94
337.454	96.43
337.667	-3.93
337.88	69.8
338.092	6.31
338.305	47.27
338.517	-3.93
338.729	10.41
338.942	53.42
339.154	-16.21
339.367	43.18
339.579	43.18
339.792	18.6
340.004	59.56
340.217	69.8
340.429	67.75
340.641	71.85
340.854	39.08
341.066	-3.93
341.278	49.32
341.491	34.99
341.703	14.51
341.915	71.85
342.128	57.51
342.34	37.03
342.552	61.61
342.764	-18.26
342.977	94.38
343.189	37.03
343.401	43.18
343.613	37.03
343.826	-36.69
344.038	10.41
344.25	65.71
344.462	12.46
344.674	53.42
344.886	77.99
345.099	73.9
345.311	51.37
345.523	63.66
345.735	12.46
345.947	45.23
346.159	47.27
346.371	12.46
346.583	0.17
346.795	135.34
347.007	34.99
347.219	110.76
347.431	49.32
347.643	47.27
347.855	57.51
348.067	92.33
348.279	-10.07
348.491	24.75
348.703	24.75
348.915	98.47
349.127	96.43
349.339	39.08
349.551	59.56
349.763	32.94
349.975	39.08
350.187	123.05
350.399	18.6
350.61	49.32
350.822	-5.97
351.034	16.55
351.246	28.84
351.458	37.03
351.669	53.42
351.881	67.75
352.093	26.79
352.305	51.37
352.517	123.05
352.728	6.31
352.94	43.18
353.152	16.55
353.363	47.27
353.575	67.75
353.787	28.84
353.999	63.66
354.21	20.65
354.422	14.51
354.633	14.51
354.845	2.22
355.057	10.41
355.268	49.32
355.48	55.47
355.692	14.51
355.903	2.22
356.115	73.9
356.326	-44.88
356.538	47.27
356.749	18.6
356.961	57.51
357.172	45.23
357.384	57.51
357.595	20.65
357.807	28.84
358.018	80.04
358.23	67.75
358.441	63.66
358.653	51.37
358.864	14.51
359.075	24.75
359.287	18.6
359.498	59.56
359.709	22.7
359.921	57.51
360.132	57.51
360.344	61.61
360.555	28.84
360.766	14.51
360.977	30.89
361.189	30.89
361.4	41.13
361.611	57.51
361.823	20.65
362.034	16.55
362.245	12.46
362.456	20.65
362.667	108.71
362.879	96.43
363.09	-3.93
363.301	75.95
363.512	16.55
363.723	6.31
363.935	34.99
364.146	82.09
364.357	12.46
364.568	18.6
364.779	86.19
364.99	8.36
365.201	30.89
365.412	94.38
365.623	94.38
365.834	102.57
366.045	-10.07
366.256	45.23
366.467	6.31
366.678	69.8
366.889	41.13
367.1	34.99
367.311	75.95
367.522	71.85
367.733	75.95
367.944	24.75
368.155	71.85
368.366	96.43
368.577	41.13
368.788	43.18
368.999	53.42
369.209	98.47
369.42	92.33
369.631	77.99
369.842	92.33
370.053	118.95
370.264	77.99
370.474	-28.5
370.685	67.75
370.896	14.51
371.107	67.75
371.317	43.18
371.528	34.99
371.739	20.65
371.95	116.9
372.16	75.95
372.371	10.41
372.582	51.37
372.792	20.65
373.003	145.58
373.214	28.84
373.424	43.18
373.635	71.85
373.846	82.09
374.056	20.65
374.267	18.6
374.477	6.31
374.688	123.05
374.898	-1.88
375.109	18.6
375.319	2.22
375.53	94.38
375.74	47.27
375.951	28.84
376.161	-12.12
376.372	55.47
376.582	-3.93
376.793	34.99
377.003	30.89
377.214	43.18
377.424	20.65
377.635	84.14
377.845	-34.64
378.055	37.03
378.266	-1.88
378.476	77.99
378.686	53.42
378.897	75.95
379.107	77.99
379.317	96.43
379.528	10.41
379.738	22.7
379.948	51.37
380.158	106.67
380.369	34.99
380.579	34.99
380.789	41.13
380.999	73.9
381.21	135.34
381.42	4.27
381.63	106.67
381.84	82.09
382.05	49.32
382.261	98.47
382.471	55.47
382.681	20.65
382.891	100.52
383.101	24.75
383.311	22.7
383.521	16.55
383.731	20.65
383.941	108.71
384.151	24.75
384.361	43.18
384.571	63.66
384.781	125.1
384.991	61.61
385.201	88.23
385.411	-1.88
385.621	47.27
385.831	22.7
386.041	55.47
386.251	37.03
386.461	67.75
386.671	75.95
386.881	49.32
387.091	71.85
387.301	108.71
387.511	16.55
387.72	71.85
387.93	123.05
388.14	67.75
388.35	47.27
388.56	24.75
388.769	63.66
388.979	16.55
389.189	53.42
389.399	28.84
389.609	51.37
389.818	102.57
390.028	127.14
390.238	55.47
390.447	30.89
390.657	49.32
390.867	47.27
391.076	106.67
391.286	84.14
391.496	80.04
391.705	98.47
391.915	112.81
392.125	57.51
392.334	84.14
392.544	131.24
392.753	127.14
392.963	18.6
393.172	75.95
393.382	47.27
393.591	69.8
393.801	123.05
394.01	151.72
394.22	61.61
394.429	116.9
394.639	108.71
394.848	80.04
395.058	96.43
395.267	73.9
395.477	65.71
395.686	102.57
395.895	92.33
396.105	92.33
396.314	194.73
396.524	94.38
396.733	143.53
396.942	84.14
397.152	129.19
397.361	96.43
397.57	69.8
397.78	157.86
397.989	65.71
398.198	166.06
398.407	8.36
398.617	145.58
398.826	92.33
399.035	116.9
399.244	34.99
399.453	102.57
399.663	24.75
399.872	104.62
400.081	121
400.29	57.51
400.499	92.33
400.708	143.53
400.917	57.51
401.127	151.72
401.336	104.62
401.545	153.77
401.754	114.86
401.963	184.49
402.172	161.96
402.381	47.27
402.59	41.13
402.799	147.62
403.008	108.71
403.217	106.67
403.426	155.82
403.635	110.76
403.844	149.67
404.053	116.9
404.262	143.53
404.471	180.39
404.68	192.68
404.888	106.67
405.097	84.14
405.306	190.63
405.515	110.76
405.724	192.68
405.933	211.11
406.142	186.54
406.35	102.57
406.559	245.93
406.768	239.78
406.977	182.44
407.185	247.97
407.394	188.58
407.603	135.34
407.812	243.88
408.02	164.01
408.229	288.93
408.438	209.06
408.646	231.59
408.855	227.5
409.064	260.26
409.272	268.45
409.481	329.89
409.69	247.97
409.898	286.89
410.107	323.75
410.315	198.82
410.524	325.8
410.733	389.28
410.941	352.42
411.15	374.95
411.358	364.71
411.567	387.24
411.775	372.9
411.984	407.72
412.192	354.47
412.401	424.1
412.609	409.76
412.818	557.22
413.026	518.31
413.234	491.68
413.443	518.31
413.651	485.54
413.86	557.22
414.068	690.34
414.276	653.47
414.485	626.85
414.693	673.95
414.901	680.1
415.11	678.05
415.318	632.99
415.526	774.3
415.734	766.11
415.943	817.31
416.151	825.5
416.359	745.63
416.567	829.6
416.776	915.61
416.984	919.71
417.192	999.58
417.4	964.76
417.608	954.52
417.817	1067.16
418.025	1097.88
418.233	1153.18
418.441	1153.18
418.649	1265.82
418.857	1335.45
419.065	1253.53
419.273	1274.01
419.481	1245.34
419.689	1407.13
419.897	1454.23
420.105	1454.23
420.313	1542.29
420.521	1484.95
420.729	1626.26
420.937	1716.37
421.145	1734.8
421.353	1781.9
421.561	1847.44
421.769	1945.74
421.977	2017.42
422.185	1960.08
422.393	2181.26
422.601	2154.63
422.809	2265.22
423.017	2281.61
423.224	2439.3
423.432	2490.5
423.64	2498.69
423.848	2654.34
424.056	2672.77
424.263	2828.42
424.471	2893.95
424.679	2822.27
424.887	3106.94
425.094	3178.62
425.302	3111.04
425.51	3287.16
425.718	3424.37
425.925	3250.3
426.133	3596.4
426.341	3727.47
426.548	3817.58
426.756	3907.7
426.964	3930.22
427.171	4233.32
427.379	4237.42
427.586	4386.92
427.794	4483.17
428.001	4714.59
428.209	4835.42
428.417	4728.93
428.624	4890.72
428.832	5218.4
429.039	5107.8
429.247	5120.09
429.454	5705.81
429.662	5869.65
429.869	5566.55
430.076	6152.27
430.284	5611.61
430.491	6041.68
430.699	6373.45
430.906	6281.29
431.114	6498.38
431.321	6797.38
431.528	7012.42
431.736	7254.08
431.943	7505.98
432.15	7379
432.358	7567.42
432.565	8048.69
432.772	7802.93
432.979	8257.58
433.187	8364.08
433.394	8345.64
433.601	8990.75
433.808	9173.02
434.016	8929.31
434.223	9408.54
434.43	9969.68
434.637	9783.32
434.844	10274.83
435.052	10596.36
435.259	10330.13
435.466	10561.55
435.673	10485.77
435.88	11298.81
436.087	11829.24
436.294	11675.64
436.501	11595.77
436.708	11767.8
436.915	12161.01
437.122	12744.68
437.329	12591.08
437.537	13096.93
437.743	13271.01
437.95	13277.15
438.157	13785.05
438.364	14219.22
438.571	14098.39
438.778	14333.9
438.985	15439.81
439.192	15089.6
439.399	15384.51
439.606	15181.76
439.813	15994.81
440.02	17047.46
440.227	16861.1
440.433	16367.54
440.64	17227.68
440.847	16983.98
441.054	17557.41
441.261	18579.34
441.467	18220.95
441.674	18861.96
441.881	19380.1
442.088	19597.18
442.294	19136.39
442.501	19767.17
442.708	20141.94
442.914	20828.01
443.121	21555.04
443.328	21061.48
443.534	22820.69
443.741	22075.23
443.948	21899.1
444.154	23162.7
444.361	23209.8
444.568	23248.71
444.774	23408.45
444.981	23627.59
445.187	24399.67
445.394	25204.52
445.6	24936.24
445.807	27567.88
446.013	26244.89
446.22	26625.81
446.426	27772.67
446.633	28081.92
446.839	28608.25
447.046	27936.51
447.252	29181.68
447.459	29310.7
447.665	29093.61
447.871	30629.59
448.078	31520.46
448.284	30199.52
448.491	31000.27
448.697	31829.7
448.903	32306.88
449.11	33134.26
449.316	32227.01
449.522	32913.08
449.728	33840.81
449.935	34320.03
450.141	33879.72
450.347	34819.74
450.553	33488.56
450.76	33885.86
450.966	35020.44
451.172	34838.17
451.378	35085.97
451.584	34614.94
451.791	35696.27
451.997	35423.89
452.203	35860.1
452.409	35868.3
452.615	35929.73
452.821	34195.1
453.027	33961.64
453.233	35806.86
453.44	34225.82
453.646	34700.95
453.852	34633.37
454.058	35393.17
454.264	34037.41
454.47	34729.62
454.676	34125.47
454.882	35212.95
455.088	32454.33
455.294	32773.81
455.5	32929.46
455.705	33466.03
455.911	32233.15
456.117	31305.42
456.323	31055.57
456.529	29474.54
456.735	30631.64
456.941	29818.6
457.147	29169.39
457.352	28337.91
457.558	27969.28
457.764	28112.64
457.97	27655.94
458.176	26838.8
458.381	27045.65
458.587	25515.81
458.793	25880.35
458.999	24700.72
459.204	26001.18
459.41	25546.53
459.616	23619.39
459.821	23639.87
460.027	23621.44
460.233	22990.67
460.438	21958.49
460.644	22398.8
460.85	21032.81
461.055	20551.54
461.261	20907.88
461.466	19185.54
461.672	18810.76
461.878	20035.45
462.083	18700.17
462.289	18470.8
462.494	18288.53
462.7	17414.05
462.905	17137.57
463.111	17500.06
463.316	17618.85
463.522	17334.18
463.727	17063.85
463.932	17244.07
464.138	17129.38
464.343	17045.41
464.549	16813.99
464.754	17156
464.959	17129.38
465.165	17031.08
465.37	16396.21
465.575	15931.32
465.781	16381.87
465.986	16566.19
466.191	15845.3
466.397	15462.33
466.602	14852.04
466.807	15431.62
467.012	15458.24
467.218	15378.37
467.423	15030.21
467.628	15310.79
467.833	15796.15
468.038	15378.37
468.244	14979.01
468.449	15581.12
468.654	14964.68
468.859	14860.23
469.064	14696.39
469.269	14168.02
469.474	14499.79
469.679	14563.28
469.885	14239.7
470.09	14360.53
470.295	14274.51
470.5	13762.52
470.705	13869.02
470.91	13766.62
471.115	13484
471.32	13901.78
471.525	13746.14
471.73	13211.62
471.935	13068.26
472.139	12851.17
472.344	12924.9
472.549	12632.04
472.754	12750.82
472.959	12652.52
473.164	12271.6
473.369	11913.2
473.574	12537.84
473.778	12193.78
473.983	12240.88
474.188	12044.27
474.393	11546.62
474.598	11784.18
474.802	11487.23
475.007	11331.58
475.212	11444.22
475.417	10999.81
475.621	11069.44
475.826	10885.12
476.031	10846.21
476.235	10749.96
476.44	10795.01
476.645	10643.46
476.849	10534.92
477.054	10436.62
477.259	10438.67
477.463	10166.29
477.668	9932.82
477.872	10164.24
478.077	9889.81
478.282	9908.24
478.486	9646.1
478.691	9918.48
478.895	9715.73
479.1	9771.03
479.304	9637.91
479.509	9265.18
479.713	9525.27
479.918	9367.58
480.122	9136.16
480.326	9201.69
480.531	9463.83
480.735	9263.13
480.94	8917.03
481.144	9463.83
481.348	8923.17
481.553	8919.07
481.757	8947.75
481.961	8824.87
482.166	9021.47
482.37	9140.26
482.574	8800.29
482.778	8894.5
482.983	9062.43
483.187	8923.17
483.391	9025.57
483.595	8900.64
483.8	8783.91
484.004	8751.14
484.208	8790.05
484.412	8869.92
484.616	8843.3
484.821	8849.44
485.025	8669.22
485.229	8957.99
485.433	8605.74
485.637	8886.31
485.841	8900.64
486.045	8556.58
486.249	8595.5
486.453	8716.33
486.657	9029.66
486.861	8841.25
487.065	8618.02
487.269	8888.36
487.473	8765.48
487.677	8943.65
487.881	8865.83
488.085	8896.55
488.289	8992.8
488.493	8900.64
488.697	8845.35
488.901	8970.27
489.105	9037.86
489.309	8841.25
489.512	8863.78
489.716	8847.4
489.92	9101.34
490.124	9146.4
490.328	9111.58
490.531	9000.99
490.735	9082.91
490.939	9130.02
491.143	9144.35
491.346	9177.12
491.55	9373.72
491.754	9232.41
491.958	9312.28
492.161	9424.92
492.365	9422.87
492.569	9213.98
492.772	9543.71
492.976	9572.38
493.18	9508.89
493.383	9693.21
493.587	9730.07
493.79	9783.32
493.994	9773.08
494.197	9762.84
494.401	10031.12
494.605	9787.41
494.808	10106.9
495.012	10254.35
495.215	10045.46
495.419	9988.11
495.622	10164.24
495.825	10491.91
496.029	10471.43
496.232	10709
496.436	10618.89
496.639	10977.28
496.843	10696.71
497.046	11026.43
497.249	11311.1
497.453	11173.89
497.656	11393.02
497.859	11374.59
498.063	11505.66
498.266	11845.62
498.469	11636.73
498.673	11827.19
498.876	11870.2
499.079	12144.63
499.282	12232.69
499.485	12589.03
499.689	12656.62
499.892	12724.2
500.095	12707.82
500.298	13035.49
500.501	12896.23
500.705	13172.71
500.908	13481.95
501.111	13586.4
501.314	13727.71
501.517	13965.27
501.72	14110.68
501.923	13977.56
502.126	14143.44
502.329	14858.18
502.532	14708.68
502.735	14690.25
502.938	15083.46
503.141	15259.59
503.344	15552.45
503.547	15663.04
503.75	15665.08
503.953	16086.97
504.156	16189.36
504.359	16291.76
504.562	16488.37
504.765	16910.25
504.968	16836.52
505.17	17379.23
505.373	17225.64
505.576	17489.82
505.779	17766.3
505.982	17723.29
506.185	18352.02
506.387	18290.58
506.59	18208.66
506.793	19036.04
506.996	18780.04
507.198	19451.78
507.401	19431.3
507.604	19623.81
507.807	19732.35
508.009	20197.24
508.212	20363.12
508.415	20541.3
508.617	20516.72
508.82	20830.06
509.022	20787.05
509.225	21548.9
509.428	21872.48
509.63	21960.54
509.833	21968.73
510.035	22493.01
510.238	22314.84
510.44	22906.7
510.643	23377.73
510.845	23574.34
511.048	23109.45
511.25	23799.62
511.453	23838.53
511.655	25089.84
511.858	24479.54
512.06	24682.29
512.262	25075.5
512.465	25194.28
512.667	25816.86
512.87	26058.53
513.072	25974.56
513.274	26810.13
513.477	27049.74
513.679	27248.39
513.881	27141.9
514.084	27823.87
514.286	27811.59
514.488	27963.14
514.69	28856.05
514.893	28870.39
515.095	29062.9
515.297	29327.08
515.499	29425.39
515.701	29968.1
515.904	30394.07
516.106	30437.08
516.308	31020.75
516.51	31260.37
516.712	31241.93
516.914	31545.03
517.116	31909.57
517.318	32095.94
517.52	32865.97
517.722	32976.56
517.925	33767.08
518.127	33828.52
518.329	33951.4
518.531	34027.17
518.733	34692.76
518.935	34995.86
519.136	34901.65
519.338	35559.05
519.54	35565.2
519.742	35978.89
519.944	36447.87
520.146	36912.76
520.348	37199.48
520.55	37252.72
520.752	37387.89
520.954	38260.32
521.155	38205.03
521.357	38690.4
521.559	39009.88
521.761	39427.67
521.963	39474.77
522.164	39523.92
522.366	39824.97
522.568	40427.07
522.77	40476.23
522.971	41561.65
523.173	41076.28
523.375	41457.2
523.576	41530.93
523.778	41727.53
523.98	41891.37
524.181	42180.14
524.383	42372.64
524.584	42821.15
524.786	43073.05
524.988	43073.05
525.189	43402.77
525.391	43658.77
525.592	44070.41
525.794	44424.71
525.995	44381.7
526.197	43920.91
526.398	44320.26
526.6	44998.14
526.801	45247.99
527.003	45149.69
527.204	45360.63
527.406	45917.68
527.607	45497.84
527.808	46126.57
528.01	45104.63
528.211	45563.38
528.412	46415.33
528.614	46577.12
528.815	46538.21
529.016	46935.52
529.218	46751.2
529.419	46568.93
529.62	47142.36
529.822	47078.88
530.023	46865.89
530.224	47123.93
530.425	47246.81
530.626	46786.02
530.828	47052.25
531.029	48192.97
531.23	47291.87
531.431	47625.68
531.632	47674.84
531.833	48104.91
532.035	48106.96
532.236	48012.75
532.437	48045.52
532.638	47947.22
532.839	48106.96
533.04	48381.38
533.241	47627.73
533.442	48680.39
533.643	47926.74
533.844	48487.88
534.045	48319.95
534.246	48285.13
534.447	48692.68
534.648	48264.65
534.849	48534.98
535.05	48350.66
535.251	48551.37
535.451	48043.47
535.652	48491.97
535.853	48260.55
536.054	48743.87
536.255	48621
536.456	48082.38
536.657	49270.2
536.857	48268.75
537.058	48424.39
537.259	49046.97
537.46	48850.37
537.66	48403.91
537.861	48377.29
538.062	48829.89
538.263	48643.52
538.463	48463.3
538.664	48516.55
538.865	48137.68
539.065	48872.9
539.266	48293.32
539.466	48971.2
539.667	48207.31
539.868	48997.82
540.068	48547.27
540.269	48348.62
540.469	48829.89
540.67	48332.23
540.87	48408.01
541.071	48252.36
541.271	48289.23
541.472	47959.5
541.672	48252.36
541.873	48231.88
542.073	47842.77
542.274	48569.8
542.474	48252.36
542.675	48258.51
542.875	48582.09
543.075	48487.88
543.276	47893.97
543.476	48483.78
543.676	48244.17
543.877	48731.59
544.077	48276.94
544.277	48231.88
544.478	48283.08
544.678	48537.03
544.878	48184.78
545.078	48283.08
545.279	48344.52
545.479	47764.95
545.679	48582.09
545.879	48244.17
546.079	48139.72
546.28	48295.37
546.48	47721.94
546.68	48063.95
546.88	48698.82
547.08	48248.27
547.28	48408.01
547.48	47728.08
547.68	48022.99
547.88	47644.12
548.081	48084.43
548.281	48281.03
548.481	48012.75
548.681	48385.48
548.881	48156.11
549.081	47807.95
549.28	47805.91
549.48	48283.08
549.68	48164.3
549.88	48559.56
550.08	47787.47
550.28	47801.81
550.48	47701.46
550.68	48410.06
550.88	47666.64
551.08	48059.85
551.279	48375.24
551.479	47580.63
551.679	47902.16
551.879	47893.97
552.079	48195.02
552.278	47709.65
552.478	47623.64
552.678	48244.17
552.878	47969.74
553.077	48051.66
553.277	47666.64
553.477	47975.89
553.676	47345.11
553.876	47810
554.076	47410.65
554.275	47805.91
554.475	46931.42
554.674	47592.92
554.874	47347.16
555.074	47445.46
555.273	47513.05
555.473	47642.07
555.672	47115.74
555.872	47070.68
556.071	46992.86
556.271	47363.54
556.47	47013.34
556.67	46360.04
556.869	46980.57
557.068	47300.06
557.268	46169.58
557.467	46783.97
557.667	46763.49
557.866	47054.3
558.065	46560.74
558.265	46222.83
558.464	46327.27
558.663	46974.43
558.863	45835.76
559.062	46943.71
559.261	45870.57
559.461	46941.66
559.66	45444.6
559.859	46093.8
560.058	45655.54
560.258	45891.05
560.457	45483.51
560.656	46110.19
560.855	45618.67
561.054	46128.62
561.253	45704.69
561.453	46151.15
561.652	46007.79
561.851	45907.44
562.05	45831.66
562.249	45161.98
562.448	45774.32
562.647	45471.22
562.846	45270.52
563.045	45190.65
563.244	45139.45
563.443	45612.53
563.642	44529.16
563.841	45104.63
564.04	44805.63
564.239	45190.65
564.438	44817.92
564.637	45026.81
564.836	45293.05
565.035	44172.81
565.234	44459.52
565.432	44629.51
565.631	44142.09
565.83	44647.94
566.029	44342.79
566.228	44221.96
566.427	44011.02
566.625	43773.45
566.824	43202.07
567.023	43929.1
567.222	43419.16
567.42	44090.89
567.619	43490.84
567.818	43732.5
568.016	42995.23
568.215	43933.2
568.414	43124.25
568.612	43574.8
568.811	42831.39
569.01	43003.42
569.208	42540.58
569.407	42925.6
569.605	42540.58
569.804	42831.39
570.002	42366.5
570.201	42673.7
570.4	42100.26
570.598	42438.18
570.797	41897.52
570.995	41823.79
571.193	41618.99
571.392	41764.4
571.59	41375.28
571.789	41625.14
571.987	41139.77
572.186	41692.72
572.384	41328.18
572.582	41420.34
572.781	41543.22
572.979	40934.97
573.177	40951.35
573.376	41557.55
573.574	40205.89
573.772	40726.08
573.971	40005.19
574.169	40353.35
574.367	40107.59
574.565	40369.73
574.763	40078.92
574.962	39986.76
575.16	39953.99
575.358	39972.42
575.556	39650.89
575.754	39765.58
575.952	39224.92
576.151	39599.69
576.349	38792.79
576.547	38588
576.745	38895.19
576.943	39353.94
577.141	38606.43
577.339	39099.99
577.537	38411.87
577.735	38583.9
577.933	37881.45
578.131	38438.5
578.329	38266.47
578.527	38008.42
578.725	37875.3
578.923	38397.54
579.121	37867.11
579.319	37516.91
579.516	37693.04
579.714	37711.47
579.912	37078.64
580.11	37406.32
580.308	37480.05
580.506	36931.19
580.704	36609.66
580.901	36849.27
581.099	37316.21
581.297	36851.32
581.495	36646.52
581.692	36646.52
581.89	36073.09
582.088	36765.31
582.285	36216.45
582.483	36290.18
582.681	36007.56
582.878	35497.61
583.076	35909.25
583.274	36025.99
583.471	35315.34
583.669	35681.93
583.866	35196.56
584.064	35540.62
584.262	35184.27
584.459	35528.33
584.657	34842.26
584.854	35450.51
585.052	34844.31
585.249	35110.55
585.447	34762.39
585.644	34467.48
585.841	34408.09
586.039	34897.56
586.236	34317.98
586.434	34008.74
586.631	33941.16
586.828	34248.35
587.026	33877.67
587.223	33693.35
587.42	33695.4
587.618	33732.26
587.815	33568.43
588.012	33361.58
588.21	33574.57
588.407	33603.24
588.604	32927.41
588.801	32976.56
588.999	32990.9
589.196	32714.42
589.393	33017.52
589.59	32394.94
589.787	32528.06
589.984	32220.86
590.182	32190.14
590.379	32153.28
590.576	32179.9
590.773	32310.97
590.97	32097.98
591.167	32036.55
591.364	31530.7
591.561	31968.96
591.758	31301.33
591.955	31461.07
592.152	31909.57
592.349	31362.76
592.546	31434.44
592.743	31209.17
592.94	30887.64
593.137	31184.59
593.334	30918.35
593.531	30795.48
593.727	30807.76
593.924	31092.43
594.121	30598.87
594.318	30783.19
594.515	30275.29
594.712	30815.96
594.908	30095.07
595.105	30443.23
595.302	29789.92
595.499	30344.92
595.696	29619.94
595.892	29923.04
596.089	29818.6
596.286	29931.23
596.482	29417.19
596.679	29206.25
596.876	29751.01
597.072	29443.82
597.269	29394.67
597.466	28997.36
597.662	29058.8
597.859	29023.98
598.055	28894.96
598.252	28538.62
598.448	28759.8
598.645	28851.95
598.841	27987.71
599.038	28944.11
599.234	28563.19
599.431	28337.91
599.627	28292.86
599.824	28479.22
600.02	28112.64
600.217	28118.78
600.413	27930.37
600.609	27612.93
600.806	27506.44
601.002	27797.25
601.198	27713.28
601.395	27533.06
601.591	27350.79
601.787	27549.45
601.984	26967.82
602.18	27242.25
602.376	26877.71
602.572	27082.51
602.769	26920.72
602.965	26486.55
603.161	26846.99
603.357	26623.76
603.553	26588.95
603.75	26390.3
603.946	26281.75
604.142	26330.9
604.338	25931.55
604.534	26208.03
604.73	25921.31
604.926	25716.51
605.122	25949.98
605.318	25790.24
605.514	25693.99
605.71	25468.71
605.906	25476.9
606.102	25405.22
606.298	25421.61
606.494	25288.49
606.69	25444.13
606.886	25179.95
607.082	25046.83
607.278	25241.39
607.474	24799.02
607.67	24829.74
607.866	24854.32
608.062	24723.25
608.257	24473.4
608.453	24936.24
608.649	24846.13
608.845	24426.29
609.041	24264.5
609.236	24336.18
609.432	24067.9
609.628	24497.97
609.824	24340.28
610.019	24100.67
610.215	23973.69
610.411	23932.73
610.606	23822.14
610.802	23967.55
610.998	23592.77
611.193	23662.4
611.389	23576.39
611.584	23428.93
611.78	23443.27
611.976	23590.72
612.171	23342.92
612.367	23326.53
612.562	23220.04
612.758	22638.42
612.953	23154.51
613.149	23263.05
613.344	22906.7
613.539	23197.51
613.735	22837.07
613.93	23019.34
614.126	22454.1
614.321	22724.43
614.517	22695.76
614.712	22648.66
614.907	22861.65
615.103	22812.49
615.298	22245.21
615.493	22538.07
615.688	22196.06
615.884	22558.55
616.079	22302.55
616.274	22228.82
616.47	22163.29
616.665	22359.89
616.86	21692.26
617.055	21950.3
617.25	21823.33
617.445	22140.76
617.641	21585.76
617.836	21839.71
618.031	21397.35
618.226	22136.66
618.421	21231.46
618.616	21604.19
618.811	21190.5
619.006	21315.43
619.201	21094.25
619.396	21391.2
619.591	20647.79
619.786	21059.43
619.981	20612.98
620.176	20785.01
620.371	20459.38
620.566	20557.68
620.761	20436.85
620.956	20512.63
621.151	19990.39
621.346	20434.8
621.541	19791.74
621.735	20168.57
621.93	19556.22
622.125	19791.74
622.32	19373.96
622.515	19509.12
622.709	19615.62
622.904	19455.87
623.099	19230.6
623.294	19285.89
623.488	19197.83
623.683	18988.94
623.878	18526.1
624.072	18716.56
624.267	18483.09
624.462	18620.3
624.656	18225.04
624.851	18276.24
625.046	18354.07
625.24	18261.91
625.435	18069.4
625.629	18151.32
625.824	17782.68
626.018	17602.46
626.213	17452.96
626.407	17651.61
626.602	17457.06
626.796	17373.09
626.991	17162.15
627.185	17082.28
627.38	17276.84
627.574	17080.23
627.768	16906.15
627.963	16668.59
628.157	16480.18
628.352	16621.49
628.546	16502.7
628.74	16615.34
628.935	16187.32
629.129	16293.81
629.323	15902.65
629.517	15970.23
629.712	15996.85
629.906	15929.27
630.1	15525.82
630.294	15652.8
630.489	15747
630.683	15804.35
630.877	15478.72
631.071	15355.84
631.265	15525.82
631.459	15177.67
631.653	15202.24
631.848	15075.27
632.042	15204.29
632.236	15091.65
632.43	14792.65
632.624	14954.44
632.818	14903.24
633.012	14530.51
633.206	14684.11
633.4	14712.78
633.594	14194.64
633.788	14243.79
633.982	14297.04
634.176	14145.49
634.369	13995.99
634.563	14057.43
634.757	13991.89
634.951	13752.28
635.145	13936.6
635.339	13809.62
635.533	13674.46
635.726	13596.64
635.92	13514.72
636.114	13465.57
636.308	13363.17
636.501	13211.62
636.695	13264.86
636.889	13389.79
637.083	13129.7
637.276	13062.12
637.47	12877.8
637.664	12924.9
637.857	12926.95
638.051	12720.1
638.244	12711.91
638.438	12722.15
638.632	12560.36
638.825	12488.68
639.019	12488.68
639.212	12427.25
639.406	12222.45
639.599	12386.29
639.793	12148.72
639.986	11730.94
640.18	12089.33
640.373	11960.31
640.567	11755.51
640.76	11980.79
640.954	11827.19
641.147	11773.94
641.34	11702.26
641.534	11431.93
641.727	11433.98
641.92	11601.91
642.114	11421.69
642.307	11419.64
642.5	11167.74
642.694	11124.74
642.887	10932.23
643.08	11063.3
643.273	11075.59
643.467	10819.59
643.66	10917.89
643.853	10582.03
644.046	10475.53
644.239	10821.64
644.432	10602.5
644.626	10463.24
644.819	10506.25
645.012	10432.52
645.205	10360.84
645.398	10258.45
645.591	10266.64
645.784	10178.58
645.977	9975.83
646.17	10235.92
646.363	9877.52
646.556	9805.85
646.749	9947.15
646.942	9752.6
647.135	9621.53
647.328	9605.14
647.521	9599
647.714	9619.48
647.907	9592.86
648.099	9386.01
648.292	9422.87
648.485	9373.72
648.678	9295.9
648.871	9375.77
649.064	9289.76
649.256	9254.94
649.449	9033.76
649.642	8949.79
649.835	9076.77
650.027	8986.66
650.22	8794.15
650.413	8740.9
650.605	8738.85
650.798	8691.75
650.991	8441.9
651.183	8728.61
651.376	8476.71
651.568	8538.15
651.761	8468.52
651.954	8548.39
652.146	8478.76
652.339	8296.49
652.531	8230.96
652.724	8200.24
652.916	8103.98
653.109	8091.7
653.301	7888.95
653.494	8026.16
653.686	7856.18
653.879	7860.27
654.071	7948.34
654.263	7788.6
654.456	7792.69
654.648	7669.81
654.84	7620.66
655.033	7454.78
655.225	7671.86
655.417	7610.42
655.61	7581.75
655.802	7522.36
655.994	7260.22
656.186	7276.6
656.379	7225.4
656.571	7391.29
656.763	7155.77
656.955	7249.98
657.148	6969.41
657.34	6965.31
657.532	7192.64
657.724	6938.69
657.916	6985.79
658.108	6934.59
658.3	6678.6
658.492	6723.65
658.684	6801.47
658.876	6723.65
659.068	6699.08
659.26	6617.16
659.452	6469.7
659.644	6608.97
659.836	6369.35
660.028	6600.77
660.22	6514.76
660.412	6469.7
660.604	6072.4
660.796	6430.79
660.988	6545.48
661.18	6236.24
661.372	6226
661.563	6119.5
661.755	6060.11
661.947	6056.01
662.139	5988.43
662.331	5990.48
662.522	5949.52
662.714	5677.14
662.906	5959.76
663.097	5929.04
663.289	5761.11
663.481	5701.72
663.673	5691.48
663.864	5775.44
664.056	5482.58
664.247	5525.59
664.439	5435.48
664.631	5517.4
664.822	5419.1
665.014	5527.64
665.205	5511.25
665.397	5439.58
665.588	5455.96
665.78	5285.98
665.971	5300.31
666.163	5314.65
666.354	5265.5
666.546	5224.54
666.737	5128.28
666.929	5122.14
667.12	5197.92
667.311	5202.01
667.503	5001.31
667.694	5070.94
667.885	4943.97
668.077	4962.4
668.268	5038.17
668.459	5032.03
668.651	4890.72
668.842	4989.02
669.033	4759.65
669.224	4923.49
669.416	4878.43
669.607	4778.08
669.798	4679.78
669.989	4980.83
670.18	4714.59
670.371	4745.31
670.563	4665.44
670.754	4741.22
670.945	4606.05
671.136	4608.1
671.327	4544.61
671.518	4481.13
671.709	4507.75
671.9	4483.17
672.091	4470.89
672.282	4405.35
672.473	4495.46
672.664	4495.46
672.855	4388.97
673.046	4356.2
673.237	4399.21
673.428	4440.17
673.619	4345.96
673.809	4292.71
674	4194.41
674.191	4175.98
674.382	4397.16
674.573	4212.84
674.764	4298.86
674.954	4151.4
675.145	4126.83
675.336	4192.36
675.527	4151.4
675.717	4202.6
675.908	4135.02
676.099	4063.34
676.289	4112.49
676.48	3993.71
676.671	3930.22
676.861	4069.48
677.052	3983.47
677.243	4032.62
677.433	3934.32
677.624	3985.52
677.814	3950.7
678.005	3907.7
678.195	3915.89
678.386	3829.87
678.576	3930.22
678.767	3936.37
678.957	3731.57
679.148	3854.45
679.338	3870.83
679.529	3764.34
679.719	3786.86
679.909	3817.58
680.1	3780.72
680.29	3778.67
680.481	3725.43
680.671	3737.71
680.861	3713.14
681.052	3698.8
681.242	3764.34
681.432	3663.99
681.622	3537.01
681.813	3733.62
682.003	3594.36
682.193	3496.05
682.383	3592.31
682.573	3670.13
682.764	3649.65
682.954	3616.88
683.144	3532.92
683.334	3594.36
683.524	3625.08
683.714	3489.91
683.904	3604.6
684.094	3512.44
684.284	3551.35
684.474	3530.87
684.664	3432.57
684.854	3541.11
685.044	3403.89
685.234	3442.81
685.424	3557.49
685.614	3500.15
685.804	3442.81
685.994	3389.56
686.184	3557.49
686.374	3442.81
686.564	3395.7
686.753	3451
686.943	3328.12
687.133	3401.85
687.323	3297.4
687.513	3426.42
687.702	3373.18
687.892	3379.32
688.082	3324.02
688.272	3414.13
688.461	3315.83
688.651	3270.78
688.841	3354.74
689.03	3434.61
689.22	3344.5
689.41	3401.85
689.599	3377.27
689.789	3293.3
689.979	3336.31
690.168	3215.48
690.358	3254.39
690.547	3250.3
690.737	3244.15
690.926	3264.63
691.116	3231.87
691.305	3328.12
691.495	3231.87
691.684	3266.68
691.874	3297.4
692.063	3256.44
692.252	3139.71
692.442	3123.32
692.631	3238.01
692.82	3195
693.01	3217.53
693.199	3223.67
693.388	3162.23
693.578	3039.36
693.767	3242.11
693.956	3147.9
694.146	3252.35
694.335	3225.72
694.524	3051.64
694.713	3160.19
694.902	3248.25
695.092	3135.61
695.281	3147.9
695.47	3041.4
695.659	3014.78
695.848	3131.51
696.037	3135.61
696.226	3037.31
696.415	2969.73
696.604	3186.81
696.793	3111.04
696.982	3108.99
697.171	3057.79
697.36	3137.66
697.549	3096.7
697.738	3041.4
697.927	3160.19
698.116	3184.76
698.305	3137.66
698.494	3125.37
698.683	3209.34
698.872	3108.99
699.061	3092.6
699.25	3094.65
699.438	3135.61
699.627	3094.65
699.816	3127.42
700.005	3133.56
700.193	3035.26
700.382	2988.16
700.571	2959.49
700.76	3070.08
700.948	2986.11
701.137	3016.83
701.326	3004.54
701.514	2906.24
701.703	3092.6
701.892	2906.24
702.08	2990.21
702.269	2965.63
702.457	2963.58
702.646	2902.14
702.834	2957.44
703.023	2953.34
703.212	2934.91
703.4	3018.88
703.589	2848.9
703.777	2957.44
703.965	2902.14
704.154	2881.66
704.342	3016.83
704.531	2803.84
704.719	2830.46
704.907	2861.18
705.096	2812.03
705.284	2801.79
705.472	2701.44
705.661	2818.18
705.849	2736.26
706.037	2818.18
706.226	2902.14
706.414	2789.5
706.602	2779.26
706.79	2769.02
706.979	2719.87
707.167	2668.67
707.355	2740.35
707.543	2726.02
707.731	2662.53
707.919	2697.35
708.107	2730.11
708.296	2742.4
708.484	2822.27
708.672	2699.39
708.86	2611.33
709.048	2672.77
709.236	2664.58
709.424	2629.76
709.612	2676.87
709.8	2635.91
709.988	2574.47
710.176	2635.91
710.364	2553.99
710.551	2582.66
710.739	2584.71
710.927	2594.95
711.115	2441.35
711.303	2564.23
711.491	2441.35
711.679	2494.6
711.866	2605.19
712.054	2533.51
712.242	2490.5
712.43	2390.15
712.617	2543.75
712.805	2519.17
712.993	2408.58
713.181	2470.02
713.368	2465.93
713.556	2441.35
713.744	2443.4
713.931	2437.25
714.119	2361.48
714.306	2338.95
714.494	2328.71
714.682	2355.33
714.869	2320.52
715.057	2388.1
715.244	2246.79
715.432	2322.57
715.619	2357.38
715.807	2203.79
715.994	2302.09
716.182	2234.5
716.369	2187.4
716.556	2275.46
716.744	2287.75
716.931	2173.07
717.119	2254.98
717.306	2197.64
717.493	2173.07
717.681	2103.43
717.868	2144.39
718.055	2177.16
718.242	2185.35
718.43	2168.97
718.617	2095.24
718.804	2019.47
718.991	2117.77
719.179	2150.54
719.366	2197.64
719.553	2062.48
719.74	2009.23
719.927	2023.56
720.114	2078.86
720.301	2011.28
720.488	2058.38
720.676	2046.09
720.863	1939.6
721.05	2103.43
721.237	2001.04
721.424	1919.12
721.611	1994.89
721.798	1960.08
721.985	1908.88
722.172	2025.61
722.358	1876.11
722.545	1958.03
722.732	1915.02
722.919	1880.21
723.106	1857.68
723.293	1872.01
723.48	1876.11
723.667	1843.34
723.853	1908.88
724.04	1921.17
724.227	1906.83
724.414	1937.55
724.6	1888.4
724.787	1824.91
724.974	1779.86
725.161	1779.86
725.347	1820.81
725.534	1773.71
725.72	1775.76
725.907	1691.79
726.094	1845.39
726.28	1806.48
726.467	1749.14
726.653	1720.46
726.84	1726.61
727.027	1779.86
727.213	1699.98
727.4	1691.79
727.586	1681.55
727.773	1812.62
727.959	1601.68
728.145	1650.83
728.332	1683.6
728.518	1765.52
728.705	1845.39
728.891	1685.65
729.077	1734.8
729.264	1667.22
729.45	1722.51
729.636	1634.45
729.823	1589.39
730.009	1597.59
730.195	1532.05
730.382	1708.18
730.568	1513.62
730.754	1515.67
730.94	1616.02
731.126	1599.63
731.313	1667.22
731.499	1648.79
731.685	1491.09
731.871	1652.88
732.057	1648.79
732.243	1487
732.429	1417.37
732.615	1616.02
732.801	1491.09
732.987	1601.68
733.173	1452.18
733.359	1439.89
733.545	1525.91
733.731	1530
733.917	1491.09
734.103	1554.58
734.289	1456.28
734.475	1456.28
734.661	1601.68
734.847	1546.39
735.033	1423.51
735.219	1517.72
735.404	1491.09
735.59	1493.14
735.776	1390.74
735.962	1433.75
736.148	1497.24
736.333	1392.79
736.519	1345.69
736.705	1372.31
736.89	1374.36
737.076	1353.88
737.262	1415.32
737.447	1380.5
737.633	1394.84
737.819	1317.01
738.004	1386.65
738.19	1362.07
738.375	1374.36
738.561	1446.04
738.747	1331.35
738.932	1366.17
739.118	1280.15
739.303	1292.44
739.489	1351.83
739.674	1366.17
739.859	1329.3
740.045	1331.35
740.23	1253.53
740.416	1265.82
740.601	1317.01
740.786	1321.11
740.972	1370.26
741.157	1163.42
741.342	1222.81
741.528	1218.71
741.713	1210.52
741.898	1261.72
742.084	1302.68
742.269	1239.19
742.454	1169.56
742.639	1255.58
742.824	1169.56
743.01	1157.27
743.195	1190.04
743.38	1218.71
743.565	1253.53
743.75	1144.99
743.935	1245.34
744.12	1239.19
744.305	1134.75
744.49	1149.08
744.675	1126.55
744.86	1202.33
745.045	1097.88
745.23	1097.88
745.415	1153.18
745.6	1206.42
745.785	1036.44
745.97	1114.27
746.155	1089.69
746.34	1153.18
746.525	1173.66
746.71	1157.27
746.895	997.53
747.079	1144.99
747.264	1142.94
747.449	1081.5
747.634	1153.18
747.819	1134.75
748.003	1063.07
748.188	1079.45
748.373	987.29
748.557	995.48
748.742	1003.68
748.927	954.52
749.111	1032.35
749.296	999.58
749.481	934.04
749.665	950.43
749.85	1065.11
750.034	1036.44
750.219	917.66
750.404	985.24
750.588	921.76
750.773	985.24
750.957	952.48
751.141	929.95
751.326	929.95
751.51	905.37
751.695	909.47
751.879	1011.87
752.064	948.38
752.248	975
752.432	952.48
752.617	872.61
752.801	905.37
752.985	776.35
753.17	915.61
753.354	825.5
753.538	839.84
753.722	934.04
753.907	825.5
754.091	821.41
754.275	811.17
754.459	841.89
754.643	876.7
754.828	835.74
755.012	815.26
755.196	848.03
755.38	757.92
755.564	780.45
755.748	796.83
755.932	751.78
756.116	759.97
756.3	727.2
756.484	813.21
756.668	813.21
756.852	719.01
757.036	774.3
757.22	688.29
757.404	764.06
757.588	673.95
757.772	739.49
757.956	729.25
758.14	745.63
758.323	704.67
758.507	667.81
758.691	710.82
758.875	800.93
759.059	747.68
759.242	747.68
759.426	735.39
759.61	635.04
759.794	721.06
759.977	657.57
760.161	676
760.345	690.34
760.528	704.67
760.712	702.62
760.895	645.28
761.079	649.38
761.263	704.67
761.446	604.32
761.63	665.76
761.813	663.71
761.997	671.9
762.18	641.18
762.364	661.66
762.547	592.03
762.731	667.81
762.914	602.27
763.098	608.42
763.281	647.33
763.464	608.42
763.648	561.31
763.831	579.75
764.015	612.51
764.198	678.05
764.381	628.9
764.564	577.7
764.748	606.37
764.931	616.61
765.114	632.99
765.297	565.41
765.481	639.14
765.664	602.27
765.847	618.66
766.03	630.95
766.213	594.08
766.397	512.16
766.58	524.45
766.763	643.23
766.946	549.03
767.129	581.79
767.312	581.79
767.495	596.13
767.678	630.95
767.861	608.42
768.044	569.51
768.227	641.18
768.41	532.64
768.593	499.88
768.776	596.13
768.959	585.89
769.142	426.15
769.324	538.79
769.507	501.92
769.69	530.59
769.873	479.4
770.056	659.62
770.239	639.14
770.421	530.59
770.604	551.07
770.787	663.71
770.97	532.64
771.152	567.46
771.335	503.97
771.518	477.35
771.7	538.79
771.883	514.21
772.066	622.75
772.248	528.55
772.431	499.88
772.613	526.5
772.796	481.44
772.978	520.35
773.161	499.88
773.343	477.35
773.526	456.87
773.708	438.44
773.891	487.59
774.073	493.73
774.256	487.59
774.438	534.69
774.621	516.26
774.803	454.82
774.985	397.48
775.168	512.16
775.35	448.68
775.532	551.07
775.715	489.64
775.897	446.63
776.079	450.72
776.261	506.02
776.444	413.86
776.626	510.11
776.808	411.81
776.99	458.92
777.173	393.38
777.355	426.15
777.537	403.62
777.719	477.35
777.901	377
778.083	506.02
778.265	424.1
778.447	401.57
778.629	377
778.811	503.97
778.993	293.03
779.175	374.95
779.357	417.96
779.539	424.1
779.721	407.72
779.903	370.85
780.085	387.24
780.267	352.42
780.449	467.11
780.631	413.86
780.812	456.87
780.994	342.18
781.176	356.52
781.358	358.57
781.54	299.17
781.721	428.2
781.903	372.9
782.085	368.81
782.267	336.04
782.448	264.36
782.63	356.52
782.812	370.85
782.993	350.37
783.175	346.28
783.357	356.52
783.538	288.93
783.72	284.84
783.901	340.13
784.083	284.84
784.264	329.89
784.446	323.75
784.627	278.69
784.809	250.02
784.99	276.65
785.172	321.7
785.353	280.74
785.535	321.7
785.716	311.46
785.897	270.5
786.079	329.89
786.26	293.03
786.441	301.22
786.623	342.18
786.804	362.66
786.985	329.89
787.167	280.74
787.348	235.69
787.529	260.26
787.71	317.61
787.891	295.08
788.073	358.57
788.254	288.93
788.435	309.41
788.616	297.13
788.797	276.65
788.978	250.02
789.159	348.33
789.34	325.8
789.522	288.93
789.703	327.85
789.884	180.39
790.065	323.75
790.246	268.45
790.427	288.93
790.607	252.07
790.788	217.26
790.969	235.69
791.15	284.84
791.331	243.88
791.512	288.93
791.693	262.31
791.874	225.45
792.054	200.87
792.235	221.35
792.416	274.6
792.597	250.02
792.778	229.54
792.958	188.58
793.139	204.97
793.32	186.54
793.5	286.89
793.681	229.54
793.862	192.68
794.042	252.07
794.223	264.36
794.404	252.07
794.584	176.3
794.765	221.35
794.945	219.3
795.126	182.44
795.306	166.06
795.487	243.88
795.667	137.38
795.848	106.67
796.028	147.62
796.209	110.76
796.389	233.64
796.57	190.63
796.75	155.82
796.93	118.95
797.111	125.1
797.291	305.32
797.471	168.1
797.652	200.87
797.832	186.54
798.012	239.78
798.192	141.48
798.373	159.91
798.553	211.11
798.733	182.44
798.913	112.81
799.093	174.25
799.274	147.62
799.454	145.58
799.634	231.59
799.814	106.67
799.994	153.77
800.174	161.96
800.354	166.06
800.534	188.58
800.714	147.62
800.894	141.48
801.074	170.15
801.254	157.86
801.434	147.62
801.614	121
801.794	178.34
801.974	290.98
802.154	86.19
802.334	166.06
802.514	123.05
802.693	186.54
802.873	100.52
803.053	211.11
803.233	108.71
803.413	135.34
803.592	153.77
803.772	186.54
803.952	153.77
804.131	102.57
804.311	229.54
804.491	125.1
804.67	123.05
804.85	151.72
805.03	184.49
805.209	121
805.389	75.95
805.568	125.1
805.748	178.34
805.928	204.97
806.107	145.58
806.287	139.43
806.466	145.58
806.646	141.48
806.825	170.15
807.004	180.39
807.184	92.33
807.363	92.33
807.543	161.96
807.722	198.82
807.901	121
808.081	121
808.26	55.47
808.439	170.15
808.619	102.57
808.798	139.43
808.977	96.43
809.156	116.9
809.336	84.14
809.515	114.86
809.694	121
809.873	123.05
810.052	102.57
810.231	102.57
810.411	141.48
810.59	67.75
810.769	149.67
810.948	116.9
811.127	112.81
811.306	131.24
811.485	59.56
811.664	106.67
811.843	118.95
812.022	145.58
812.201	121
812.38	123.05
812.559	57.51
812.737	125.1
812.916	121
813.095	116.9
813.274	86.19
813.453	63.66
813.632	77.99
813.811	90.28
813.989	133.29
814.168	112.81
814.347	141.48
814.526	80.04
814.704	121
814.883	153.77
815.062	55.47
815.24	90.28
815.419	104.62
815.598	123.05
815.776	75.95
815.955	139.43
816.133	104.62
816.312	137.38
816.49	131.24
816.669	98.47
816.847	102.57
817.026	82.09
817.204	143.53
817.383	135.34
817.561	80.04
817.74	67.75
817.918	151.72
818.097	92.33
818.275	86.19
818.453	98.47
818.632	67.75
818.81	112.81
818.988	65.71
819.167	75.95
819.345	67.75
819.523	166.06
819.701	131.24
819.879	59.56
820.058	73.9
820.236	84.14
820.414	112.81
820.592	98.47
820.77	114.86
820.948	75.95
821.127	98.47
821.305	121
821.483	69.8
821.661	73.9
821.839	88.23
822.017	73.9
822.195	106.67
822.373	63.66
822.551	86.19
822.729	104.62
822.907	61.61
823.085	155.82
823.262	106.67
823.44	59.56
823.618	118.95
823.796	47.27
823.974	94.38
824.152	53.42
824.329	102.57
824.507	28.84
824.685	63.66
824.863	84.14
825.04	77.99
825.218	100.52
825.396	82.09
825.574	149.67
825.751	10.41
825.929	127.14
826.107	75.95
826.284	86.19
826.462	59.56
826.639	51.37
826.817	69.8
826.994	98.47
827.172	34.99
827.349	145.58
827.527	51.37
827.704	180.39
827.882	75.95
828.059	71.85
828.237	59.56
828.414	88.23
828.591	77.99
828.769	69.8
828.946	59.56
829.124	20.65
829.301	86.19
829.478	125.1
829.655	71.85
829.833	116.9
830.01	18.6
830.187	-16.21
830.364	20.65
830.542	51.37
830.719	-22.36
830.896	57.51
831.073	-5.97
831.25	108.71
831.427	63.66
831.604	61.61
831.782	67.75
831.959	77.99
832.136	22.7
832.313	61.61
832.49	39.08
832.667	10.41
832.844	63.66
833.021	55.47
833.198	34.99
833.374	86.19
833.551	39.08
833.728	-14.17
833.905	71.85
834.082	51.37
834.259	63.66
834.436	69.8
834.612	-22.36
834.789	75.95
834.966	4.27
835.143	26.79
835.319	8.36
835.496	92.33
835.673	43.18
835.85	22.7
836.026	28.84
836.203	96.43
836.38	77.99
836.556	90.28
836.733	104.62
836.909	129.19
837.086	24.75
837.262	4.27
837.439	-18.26
837.616	39.08
837.792	41.13
837.968	22.7
838.145	55.47
838.321	73.9
838.498	34.99
838.674	67.75
838.851	77.99
839.027	55.47
839.203	39.08
839.38	82.09
839.556	65.71
839.732	90.28
839.909	-5.97
840.085	-22.36
840.261	71.85
840.437	34.99
840.614	12.46
840.79	-12.12
840.966	22.7
841.142	49.32
841.318	-1.88
841.494	90.28
841.671	61.61
841.847	96.43
842.023	-22.36
842.199	77.99
842.375	67.75
842.551	-28.5
842.727	45.23
842.903	61.61
843.079	24.75
843.255	34.99
843.431	51.37
843.607	77.99
843.783	39.08
843.959	86.19
844.134	37.03
844.31	71.85
844.486	49.32
844.662	53.42
844.838	6.31
845.013	16.55
845.189	77.99
845.365	-5.97
845.541	-24.4
845.716	67.75
845.892	39.08
846.068	22.7
846.244	73.9
846.419	26.79
846.595	30.89
846.77	43.18
846.946	-5.97
847.122	59.56
847.297	-3.93
847.473	65.71
847.648	-46.93
847.824	32.94
847.999	-18.26
848.175	-18.26
848.35	32.94
848.526	-10.07
848.701	30.89
848.876	28.84
849.052	24.75
849.227	24.75
849.403	0.17
849.578	45.23
849.753	104.62
849.929	8.36
850.104	26.79
850.279	34.99
850.454	77.99
850.63	57.51
850.805	20.65
850.98	-8.02
851.155	53.42
851.33	34.99
851.505	-36.69
851.681	-20.31
851.856	4.27
852.031	37.03
852.206	30.89
852.381	28.84
852.556	18.6
852.731	32.94
852.906	28.84
853.081	88.23
853.256	-22.36
853.431	71.85
853.606	61.61
853.781	112.81
853.956	16.55
854.131	28.84
854.305	22.7
854.48	16.55
854.655	-10.07
854.83	18.6
855.005	4.27
855.18	43.18
855.354	16.55
855.529	-8.02
855.704	0.17
855.879	94.38
856.053	43.18
856.228	22.7
856.403	6.31
856.577	100.52
856.752	51.37
856.926	47.27
857.101	16.55
857.276	14.51
857.45	-12.12
857.625	26.79
857.799	61.61
857.974	-12.12
858.148	-3.93
858.323	96.43
858.497	-20.31
858.672	61.61
858.846	49.32
859.02	-24.4
859.195	-59.22
859.369	16.55
859.543	67.75
859.718	75.95
859.892	80.04
860.066	6.31
860.241	-12.12
860.415	8.36
860.589	26.79
860.763	73.9
860.938	30.89
861.112	75.95
861.286	34.99
861.46	71.85
861.634	-14.17
861.808	12.46
861.982	-8.02
862.157	37.03
862.331	47.27
862.505	0.17
862.679	-46.93
862.853	8.36
863.027	-44.88
863.201	51.37
863.375	14.51
863.549	24.75
863.722	28.84
863.896	55.47
864.07	-14.17
864.244	-1.88
864.418	8.36
864.592	61.61
864.766	4.27
864.939	41.13
865.113	-32.6
865.287	67.75
865.461	8.36
865.634	-16.21
865.808	77.99
865.982	16.55
866.156	4.27
866.329	10.41
866.503	6.31
866.676	-26.45
866.85	6.31
867.024	-20.31
867.197	24.75
867.371	-26.45
867.544	-42.84
867.718	-40.79
867.891	4.27
868.065	75.95
868.238	-20.31
868.412	6.31
868.585	37.03
868.759	47.27
868.932	24.75
869.105	51.37
869.279	-57.17
869.452	22.7
869.625	-12.12
869.799	4.27
869.972	39.08
870.145	26.79
870.319	16.55
870.492	14.51
870.665	82.09
870.838	26.79
871.011	6.31
871.185	59.56
871.358	10.41
871.531	-12.12
871.704	14.51
871.877	-14.17
872.05	20.65
872.223	-28.5
872.396	-24.4
872.569	57.51
872.742	-36.69
872.915	20.65
873.088	-8.02
873.261	-1.88
873.434	51.37
873.607	-32.6
873.78	51.37
873.953	2.22
874.126	43.18
874.299	0.17
874.471	4.27
874.644	-5.97
874.817	-5.97
874.99	63.66
875.163	4.27
875.335	43.18
875.508	2.22
875.681	28.84
875.853	24.75
876.026	84.14
876.199	-22.36
876.371	51.37
876.544	-5.97
876.717	43.18
876.889	-51.03
877.062	102.57
877.234	-38.74
877.407	-12.12
877.579	39.08
877.752	32.94
877.924	39.08
878.097	-34.64
878.269	-42.84
878.442	20.65
878.614	-1.88
878.786	94.38
878.959	4.27
879.131	80.04
879.303	8.36
879.476	20.65
879.648	34.99
879.82	-51.03
879.993	51.37
880.165	39.08
880.337	10.41
880.509	24.75
880.681	-67.41
880.854	28.84
881.026	-8.02
881.198	43.18
881.37	6.31
881.542	71.85
881.714	4.27
881.886	-65.36
882.058	-63.32
882.23	26.79
882.402	-40.79
882.574	-18.26
882.746	-69.46
882.918	61.61
883.09	-28.5
883.262	-1.88
883.434	26.79
883.606	63.66
883.778	-30.55
883.95	37.03
884.122	-1.88
884.293	-22.36
884.465	4.27
884.637	28.84
884.809	30.89
884.98	24.75
885.152	39.08
885.324	14.51
885.496	22.7
885.667	-10.07
885.839	-30.55
886.011	20.65
886.182	24.75
886.354	75.95
886.525	-40.79
886.697	-51.03
886.869	-30.55
887.04	-18.26
887.212	24.75
887.383	32.94
887.555	-24.4
887.726	55.47
887.897	-5.97
888.069	-24.4
888.24	32.94
888.412	-12.12
888.583	2.22
888.754	-8.02
888.926	37.03
889.097	10.41
889.268	-71.51
889.44	-5.97
889.611	-18.26
889.782	-12.12
889.953	30.89
890.125	-24.4
890.296	-16.21
890.467	37.03
890.638	-8.02
890.809	28.84
890.98	-12.12
891.151	-3.93
891.323	-14.17
891.494	30.89
891.665	-18.26
891.836	12.46
892.007	2.22
892.178	0.17
892.349	10.41
892.52	24.75
892.691	-5.97
892.862	-46.93
893.032	-3.93
893.203	-61.27
893.374	2.22
893.545	94.38
893.716	-8.02
893.887	-8.02
894.057	45.23
894.228	100.52
894.399	-34.64
894.57	88.23
894.74	-12.12
894.911	14.51
895.082	57.51
895.253	8.36
895.423	6.31
895.594	-63.32
895.764	-18.26
895.935	-3.93
896.106	0.17
896.276	6.31
896.447	18.6
896.617	0.17
896.788	82.09
896.958	8.36
897.129	-10.07
897.299	-20.31
897.47	67.75
897.64	6.31
897.81	12.46
897.981	-1.88
898.151	88.23
898.322	22.7
898.492	24.75
898.662	-34.64
898.832	22.7
899.003	69.8
899.173	-51.03
899.343	34.99
899.513	-32.6
