Data from USB4F104151__13__13-52-20-004.txt Node

Date: Thu Mar 13 13:52:20 EDT 2025
User: louis
Spectrometer: USB4F10415
Trigger mode: 4
Integration Time (sec): 1.000000E-2
Scans to average: 1
Electric dark correction enabled: true
Nonlinearity correction enabled: false
Boxcar width: 0
XAxis mode: Wavelengths
Number of Pixels in Spectrum: 3648
>>>>>Begin Spectral Data<<<<<
178.204	-37.89
178.424	-37.89
178.644	-37.89
178.864	-15.36
179.084	3.07
179.304	15.36
179.524	9.22
179.744	-7.17
179.964	54.27
180.184	-35.84
180.404	-37.89
180.624	1.02
180.844	1.02
181.064	17.41
181.283	1.02
181.503	1.02
181.723	-19.46
181.943	-56.32
182.163	74.75
182.383	-60.42
182.602	-3.07
182.822	48.13
183.042	27.65
183.262	21.5
183.482	62.46
183.701	13.31
183.921	-31.74
184.141	56.32
184.361	13.31
184.58	15.36
184.8	21.5
185.02	-11.26
185.239	-80.89
185.459	60.42
185.679	89.09
185.898	3.07
186.118	33.79
186.338	1.02
186.557	9.22
186.777	-21.5
186.997	64.51
187.216	11.26
187.436	68.61
187.655	50.18
187.875	39.94
188.095	-15.36
188.314	35.84
188.534	-29.7
188.753	82.94
188.973	1.02
189.192	48.13
189.412	-5.12
189.631	66.56
189.851	21.5
190.07	70.65
190.29	-29.7
190.509	19.46
190.729	-27.65
190.948	50.18
191.168	89.09
191.387	11.26
191.607	80.89
191.826	23.55
192.045	19.46
192.265	-11.26
192.484	29.7
192.704	3.07
192.923	-52.22
193.142	9.22
193.362	21.5
193.581	78.85
193.8	39.94
194.02	109.57
194.239	29.7
194.458	25.6
194.678	60.42
194.897	66.56
195.116	29.7
195.335	64.51
195.555	-3.07
195.774	50.18
195.993	29.7
196.212	56.32
196.432	68.61
196.651	-68.61
196.87	1.02
197.089	-31.74
197.308	9.22
197.528	17.41
197.747	-7.17
197.966	17.41
198.185	33.79
198.404	-35.84
198.623	-17.41
198.842	-44.03
199.062	62.46
199.281	-31.74
199.5	-9.22
199.719	3.07
199.938	-72.7
200.157	31.74
200.376	-68.61
200.595	5.12
200.814	33.79
201.033	-95.23
201.252	84.99
201.471	23.55
201.69	-33.79
201.909	84.99
202.128	9.22
202.347	13.31
202.566	1.02
202.785	-78.85
203.004	-29.7
203.223	46.08
203.442	-15.36
203.661	3.07
203.879	58.37
204.098	7.17
204.317	31.74
204.536	82.94
204.755	29.7
204.974	48.13
205.193	7.17
205.411	76.8
205.63	-25.6
205.849	5.12
206.068	-54.27
206.287	11.26
206.505	99.33
206.724	46.08
206.943	-54.27
207.162	19.46
207.381	-39.94
207.599	9.22
207.818	54.27
208.037	99.33
208.255	5.12
208.474	27.65
208.693	99.33
208.911	-7.17
209.13	54.27
209.349	1.02
209.567	35.84
209.786	17.41
210.005	7.17
210.223	1.02
210.442	-13.31
210.661	-11.26
210.879	15.36
211.098	17.41
211.316	7.17
211.535	-19.46
211.753	48.13
211.972	1.02
212.191	-48.13
212.409	25.6
212.628	-3.07
212.846	70.65
213.065	7.17
213.283	29.7
213.502	-23.55
213.72	-25.6
213.938	-41.98
214.157	13.31
214.375	-11.26
214.594	11.26
214.812	48.13
215.031	29.7
215.249	46.08
215.467	-11.26
215.686	33.79
215.904	31.74
216.122	50.18
216.341	76.8
216.559	62.46
216.778	68.61
216.996	-7.17
217.214	-62.46
217.432	1.02
217.651	21.5
217.869	-44.03
218.087	31.74
218.306	-15.36
218.524	-29.7
218.742	11.26
218.96	1.02
219.179	-60.42
219.397	-25.6
219.615	13.31
219.833	19.46
220.051	50.18
220.27	-1.02
220.488	66.56
220.706	19.46
220.924	19.46
221.142	41.98
221.36	-9.22
221.578	17.41
221.796	62.46
222.015	25.6
222.233	-35.84
222.451	27.65
222.669	7.17
222.887	5.12
223.105	-19.46
223.323	25.6
223.541	74.75
223.759	52.22
223.977	62.46
224.195	44.03
224.413	54.27
224.631	-11.26
224.849	23.55
225.067	19.46
225.285	-7.17
225.503	74.75
225.721	25.6
225.939	64.51
226.157	62.46
226.375	19.46
226.592	-25.6
226.81	56.32
227.028	48.13
227.246	-7.17
227.464	-13.31
227.682	41.98
227.9	9.22
228.117	-31.74
228.335	-56.32
228.553	5.12
228.771	29.7
228.989	-37.89
229.206	37.89
229.424	-3.07
229.642	64.51
229.86	11.26
230.077	-5.12
230.295	15.36
230.513	54.27
230.731	58.37
230.948	13.31
231.166	101.37
231.384	54.27
231.601	25.6
231.819	-1.02
232.037	21.5
232.254	62.46
232.472	23.55
232.689	5.12
232.907	3.07
233.125	7.17
233.342	19.46
233.56	25.6
233.777	1.02
233.995	-23.55
234.213	11.26
234.43	25.6
234.648	91.13
234.865	21.5
235.083	82.94
235.3	-17.41
235.518	-23.55
235.735	5.12
235.953	37.89
236.17	11.26
236.388	54.27
236.605	56.32
236.822	93.18
237.04	-23.55
237.257	82.94
237.475	48.13
237.692	41.98
237.909	37.89
238.127	60.42
238.344	-19.46
238.562	21.5
238.779	-37.89
238.996	29.7
239.214	37.89
239.431	105.47
239.648	39.94
239.865	3.07
240.083	41.98
240.3	7.17
240.517	-11.26
240.735	48.13
240.952	44.03
241.169	11.26
241.386	44.03
241.603	74.75
241.821	5.12
242.038	1.02
242.255	1.02
242.472	7.17
242.689	-11.26
242.907	50.18
243.124	-31.74
243.341	82.94
243.558	46.08
243.775	-19.46
243.992	-19.46
244.209	46.08
244.426	-21.5
244.643	31.74
244.86	-72.7
245.078	-15.36
245.295	80.89
245.512	50.18
245.729	-87.04
245.946	-1.02
246.163	-17.41
246.38	-3.07
246.597	54.27
246.814	25.6
247.031	56.32
247.248	39.94
247.464	-1.02
247.681	15.36
247.898	89.09
248.115	97.28
248.332	13.31
248.549	-1.02
248.766	31.74
248.983	-33.79
249.2	66.56
249.417	3.07
249.633	-33.79
249.85	27.65
250.067	35.84
250.284	-89.09
250.501	1.02
250.717	74.75
250.934	-9.22
251.151	91.13
251.368	23.55
251.585	103.42
251.801	9.22
252.018	58.37
252.235	37.89
252.451	13.31
252.668	-9.22
252.885	117.76
253.102	13.31
253.318	52.22
253.535	48.13
253.752	82.94
253.968	9.22
254.185	-5.12
254.401	-9.22
254.618	87.04
254.835	7.17
255.051	37.89
255.268	-7.17
255.484	-25.6
255.701	-1.02
255.917	13.31
256.134	62.46
256.351	-66.56
256.567	91.13
256.784	68.61
257	-21.5
257.217	37.89
257.433	-3.07
257.65	54.27
257.866	-9.22
258.082	-9.22
258.299	80.89
258.515	54.27
258.732	35.84
258.948	-5.12
259.165	-21.5
259.381	15.36
259.597	-23.55
259.814	-5.12
260.03	1.02
260.246	68.61
260.463	-27.65
260.679	48.13
260.895	54.27
261.112	35.84
261.328	7.17
261.544	35.84
261.761	48.13
261.977	-1.02
262.193	1.02
262.409	31.74
262.626	-3.07
262.842	62.46
263.058	21.5
263.274	46.08
263.49	33.79
263.707	39.94
263.923	50.18
264.139	-9.22
264.355	37.89
264.571	-17.41
264.787	-3.07
265.004	48.13
265.22	-44.03
265.436	-23.55
265.652	33.79
265.868	29.7
266.084	29.7
266.3	68.61
266.516	17.41
266.732	11.26
266.948	72.7
267.164	33.79
267.38	31.74
267.596	25.6
267.812	76.8
268.028	27.65
268.244	33.79
268.46	-15.36
268.676	74.75
268.892	-25.6
269.108	21.5
269.324	31.74
269.54	17.41
269.756	132.09
269.972	-3.07
270.188	48.13
270.403	-3.07
270.619	33.79
270.835	46.08
271.051	44.03
271.267	-7.17
271.483	-21.5
271.698	66.56
271.914	21.5
272.13	27.65
272.346	-17.41
272.562	29.7
272.777	64.51
272.993	23.55
273.209	-44.03
273.425	115.71
273.64	15.36
273.856	11.26
274.072	46.08
274.287	58.37
274.503	50.18
274.719	70.65
274.934	58.37
275.15	37.89
275.366	29.7
275.581	58.37
275.797	54.27
276.012	-1.02
276.228	70.65
276.444	3.07
276.659	33.79
276.875	27.65
277.09	70.65
277.306	15.36
277.521	-3.07
277.737	50.18
277.952	117.76
278.168	-29.7
278.383	37.89
278.599	-39.94
278.814	76.8
279.03	-13.31
279.245	5.12
279.461	66.56
279.676	80.89
279.892	15.36
280.107	27.65
280.322	37.89
280.538	5.12
280.753	9.22
280.969	25.6
281.184	21.5
281.399	11.26
281.615	17.41
281.83	72.7
282.045	95.23
282.26	44.03
282.476	19.46
282.691	115.71
282.906	-37.89
283.122	-21.5
283.337	117.76
283.552	15.36
283.767	-37.89
283.983	17.41
284.198	-17.41
284.413	41.98
284.628	37.89
284.843	5.12
285.058	31.74
285.274	48.13
285.489	-9.22
285.704	7.17
285.919	52.22
286.134	46.08
286.349	74.75
286.564	64.51
286.779	44.03
286.995	29.7
287.21	-5.12
287.425	7.17
287.64	62.46
287.855	78.85
288.07	-5.12
288.285	48.13
288.5	-58.37
288.715	27.65
288.93	37.89
289.145	5.12
289.36	-27.65
289.575	78.85
289.79	-5.12
290.004	64.51
290.219	54.27
290.434	113.66
290.649	17.41
290.864	58.37
291.079	-25.6
291.294	25.6
291.509	-33.79
291.724	62.46
291.938	13.31
292.153	56.32
292.368	44.03
292.583	80.89
292.798	93.18
293.012	44.03
293.227	-15.36
293.442	46.08
293.657	1.02
293.871	3.07
294.086	-11.26
294.301	48.13
294.516	19.46
294.73	23.55
294.945	-37.89
295.16	68.61
295.374	23.55
295.589	62.46
295.804	-37.89
296.018	37.89
296.233	41.98
296.447	-3.07
296.662	95.23
296.877	17.41
297.091	37.89
297.306	-5.12
297.52	-25.6
297.735	46.08
297.949	54.27
298.164	31.74
298.378	62.46
298.593	13.31
298.807	-21.5
299.022	-3.07
299.236	60.42
299.451	-5.12
299.665	58.37
299.88	1.02
300.094	33.79
300.309	68.61
300.523	7.17
300.737	50.18
300.952	-1.02
301.166	46.08
301.381	5.12
301.595	-33.79
301.809	-35.84
302.024	13.31
302.238	-1.02
302.452	60.42
302.667	9.22
302.881	144.38
303.095	-29.7
303.309	-25.6
303.524	-9.22
303.738	35.84
303.952	7.17
304.166	78.85
304.381	33.79
304.595	15.36
304.809	46.08
305.023	-11.26
305.237	1.02
305.452	17.41
305.666	39.94
305.88	52.22
306.094	25.6
306.308	37.89
306.522	9.22
306.736	15.36
306.95	44.03
307.164	70.65
307.379	62.46
307.593	82.94
307.807	54.27
308.021	99.33
308.235	121.85
308.449	1.02
308.663	70.65
308.877	9.22
309.091	33.79
309.305	39.94
309.519	9.22
309.733	-3.07
309.947	9.22
310.161	31.74
310.374	13.31
310.588	-3.07
310.802	41.98
311.016	48.13
311.23	95.23
311.444	-9.22
311.658	-13.31
311.872	84.99
312.085	15.36
312.299	-19.46
312.513	48.13
312.727	41.98
312.941	11.26
313.154	82.94
313.368	9.22
313.582	66.56
313.796	-11.26
314.009	-17.41
314.223	-13.31
314.437	60.42
314.651	21.5
314.864	5.12
315.078	54.27
315.292	29.7
315.505	29.7
315.719	27.65
315.933	-13.31
316.146	-7.17
316.36	-1.02
316.573	76.8
316.787	44.03
317.001	-7.17
317.214	-13.31
317.428	31.74
317.641	33.79
317.855	25.6
318.068	72.7
318.282	146.43
318.495	52.22
318.709	-29.7
318.922	66.56
319.136	-9.22
319.349	-11.26
319.563	29.7
319.776	27.65
319.99	-19.46
320.203	52.22
320.417	-37.89
320.63	68.61
320.843	25.6
321.057	7.17
321.27	87.04
321.483	107.52
321.697	39.94
321.91	91.13
322.124	31.74
322.337	44.03
322.55	54.27
322.763	-7.17
322.977	-29.7
323.19	-11.26
323.403	58.37
323.617	54.27
323.83	76.8
324.043	19.46
324.256	21.5
324.469	-17.41
324.683	74.75
324.896	-13.31
325.109	50.18
325.322	-31.74
325.535	74.75
325.748	-1.02
325.962	-13.31
326.175	35.84
326.388	48.13
326.601	-31.74
326.814	21.5
327.027	11.26
327.24	33.79
327.453	-31.74
327.666	35.84
327.879	33.79
328.092	1.02
328.305	19.46
328.518	76.8
328.731	-21.5
328.944	84.99
329.157	-13.31
329.37	19.46
329.583	19.46
329.796	48.13
330.009	29.7
330.222	105.47
330.435	-1.02
330.648	58.37
330.861	-35.84
331.073	27.65
331.286	44.03
331.499	35.84
331.712	29.7
331.925	37.89
332.138	23.55
332.35	50.18
332.563	97.28
332.776	87.04
332.989	78.85
333.202	21.5
333.414	21.5
333.627	87.04
333.84	33.79
334.053	5.12
334.265	-1.02
334.478	95.23
334.691	-9.22
334.903	37.89
335.116	23.55
335.329	-27.65
335.541	50.18
335.754	9.22
335.966	-3.07
336.179	31.74
336.392	74.75
336.604	-25.6
336.817	62.46
337.029	-27.65
337.242	35.84
337.454	44.03
337.667	-13.31
337.88	35.84
338.092	1.02
338.305	95.23
338.517	48.13
338.729	31.74
338.942	58.37
339.154	80.89
339.367	13.31
339.579	35.84
339.792	62.46
340.004	44.03
340.217	1.02
340.429	95.23
340.641	19.46
340.854	48.13
341.066	17.41
341.278	31.74
341.491	80.89
341.703	54.27
341.915	37.89
342.128	50.18
342.34	-11.26
342.552	29.7
342.764	44.03
342.977	54.27
343.189	70.65
343.401	35.84
343.613	5.12
343.826	70.65
344.038	62.46
344.25	136.19
344.462	97.28
344.674	56.32
344.886	11.26
345.099	19.46
345.311	5.12
345.523	119.81
345.735	64.51
345.947	15.36
346.159	-44.03
346.371	48.13
346.583	-19.46
346.795	74.75
347.007	25.6
347.219	17.41
347.431	-46.08
347.643	107.52
347.855	48.13
348.067	52.22
348.279	54.27
348.491	70.65
348.703	76.8
348.915	66.56
349.127	7.17
349.339	70.65
349.551	1.02
349.763	62.46
349.975	62.46
350.187	89.09
350.399	44.03
350.61	78.85
350.822	39.94
351.034	7.17
351.246	89.09
351.458	46.08
351.669	31.74
351.881	52.22
352.093	15.36
352.305	19.46
352.517	82.94
352.728	87.04
352.94	136.19
353.152	52.22
353.363	-48.13
353.575	46.08
353.787	50.18
353.999	48.13
354.21	25.6
354.422	70.65
354.633	-13.31
354.845	52.22
355.057	31.74
355.268	72.7
355.48	-39.94
355.692	52.22
355.903	29.7
356.115	7.17
356.326	64.51
356.538	35.84
356.749	115.71
356.961	-25.6
357.172	56.32
357.384	48.13
357.595	-1.02
357.807	54.27
358.018	-35.84
358.23	13.31
358.441	52.22
358.653	44.03
358.864	7.17
359.075	5.12
359.287	1.02
359.498	74.75
359.709	-3.07
359.921	52.22
360.132	68.61
360.344	70.65
360.555	3.07
360.766	111.61
360.977	52.22
361.189	44.03
361.4	39.94
361.611	37.89
361.823	78.85
362.034	50.18
362.245	17.41
362.456	33.79
362.667	64.51
362.879	66.56
363.09	5.12
363.301	11.26
363.512	66.56
363.723	66.56
363.935	9.22
364.146	3.07
364.357	13.31
364.568	105.47
364.779	37.89
364.99	37.89
365.201	72.7
365.412	80.89
365.623	54.27
365.834	97.28
366.045	19.46
366.256	-9.22
366.467	-13.31
366.678	9.22
366.889	-9.22
367.1	19.46
367.311	5.12
367.522	21.5
367.733	37.89
367.944	39.94
368.155	33.79
368.366	35.84
368.577	33.79
368.788	56.32
368.999	3.07
369.209	54.27
369.42	93.18
369.631	95.23
369.842	37.89
370.053	23.55
370.264	5.12
370.474	93.18
370.685	-7.17
370.896	89.09
371.107	25.6
371.317	60.42
371.528	35.84
371.739	11.26
371.95	13.31
372.16	89.09
372.371	50.18
372.582	44.03
372.792	1.02
373.003	35.84
373.214	66.56
373.424	27.65
373.635	70.65
373.846	78.85
374.056	64.51
374.267	95.23
374.477	58.37
374.688	-17.41
374.898	121.85
375.109	87.04
375.319	66.56
375.53	70.65
375.74	27.65
375.951	84.99
376.161	87.04
376.372	99.33
376.582	64.51
376.793	46.08
377.003	48.13
377.214	72.7
377.424	68.61
377.635	37.89
377.845	35.84
378.055	-19.46
378.266	39.94
378.476	48.13
378.686	76.8
378.897	93.18
379.107	60.42
379.317	140.29
379.528	27.65
379.738	76.8
379.948	66.56
380.158	82.94
380.369	-1.02
380.579	80.89
380.789	7.17
380.999	35.84
381.21	76.8
381.42	80.89
381.63	7.17
381.84	11.26
382.05	70.65
382.261	101.37
382.471	123.9
382.681	-19.46
382.891	54.27
383.101	46.08
383.311	-7.17
383.521	54.27
383.731	78.85
383.941	130.05
384.151	1.02
384.361	-23.55
384.571	76.8
384.781	132.09
384.991	115.71
385.201	-7.17
385.411	35.84
385.621	7.17
385.831	19.46
386.041	91.13
386.251	33.79
386.461	25.6
386.671	56.32
386.881	62.46
387.091	89.09
387.301	84.99
387.511	25.6
387.72	117.76
387.93	64.51
388.14	-7.17
388.35	33.79
388.56	93.18
388.769	64.51
388.979	19.46
389.189	52.22
389.399	58.37
389.609	97.28
389.818	107.52
390.028	-9.22
390.238	78.85
390.447	7.17
390.657	37.89
390.867	91.13
391.076	25.6
391.286	54.27
391.496	19.46
391.705	50.18
391.915	17.41
392.125	19.46
392.334	156.67
392.544	109.57
392.753	60.42
392.963	136.19
393.172	27.65
393.382	74.75
393.591	70.65
393.801	58.37
394.01	31.74
394.22	207.87
394.429	93.18
394.639	109.57
394.848	78.85
395.058	27.65
395.267	93.18
395.477	44.03
395.686	72.7
395.895	44.03
396.105	123.9
396.314	68.61
396.524	54.27
396.733	33.79
396.942	54.27
397.152	74.75
397.361	97.28
397.57	128
397.78	130.05
397.989	74.75
398.198	95.23
398.407	134.14
398.617	132.09
398.826	91.13
399.035	87.04
399.244	76.8
399.453	62.46
399.663	136.19
399.872	140.29
400.081	82.94
400.29	97.28
400.499	183.29
400.708	84.99
400.917	87.04
401.127	142.33
401.336	115.71
401.545	168.96
401.754	66.56
401.963	121.85
402.172	107.52
402.381	130.05
402.59	50.18
402.799	68.61
403.008	138.24
403.217	132.09
403.426	105.47
403.635	173.05
403.844	103.42
404.053	105.47
404.262	99.33
404.471	95.23
404.68	87.04
404.888	105.47
405.097	121.85
405.306	107.52
405.515	183.29
405.724	218.11
405.933	146.43
406.142	189.44
406.35	193.53
406.559	195.58
406.768	257.02
406.977	238.59
407.185	211.96
407.394	230.4
407.603	164.86
407.812	234.49
408.02	254.97
408.229	134.14
408.438	234.49
408.646	250.88
408.855	257.02
409.064	291.84
409.272	267.26
409.481	250.88
409.69	283.64
409.898	322.56
410.107	306.17
410.315	314.36
410.524	322.56
410.733	461.82
410.941	328.7
411.15	383.99
411.358	429.05
411.567	402.43
411.775	381.95
411.984	424.95
412.192	386.04
412.401	474.1
412.609	490.49
412.818	545.78
413.026	535.54
413.234	517.11
413.443	496.63
413.651	541.69
413.86	535.54
414.068	623.61
414.276	592.89
414.485	545.78
414.693	576.5
414.901	648.18
415.11	678.9
415.318	631.8
415.526	719.86
415.734	775.16
415.943	828.4
416.151	797.68
416.359	832.5
416.567	924.66
416.776	867.31
416.984	914.42
417.192	1025.01
417.4	986.1
417.608	990.19
417.817	986.1
418.025	1123.31
418.233	1190.89
418.441	1135.6
418.649	1164.27
418.857	1272.81
419.065	1231.85
419.273	1293.29
419.481	1364.97
419.689	1346.54
419.897	1508.33
420.105	1512.42
420.313	1586.15
420.521	1594.34
420.729	1571.82
420.937	1704.93
421.145	1809.38
421.353	1842.15
421.561	1919.97
421.769	2028.51
421.977	2063.33
422.185	2020.32
422.393	2178.01
422.601	2231.26
422.809	2356.19
423.017	2251.74
423.224	2319.32
423.432	2446.3
423.64	2454.49
423.848	2683.86
424.056	2649.05
424.263	2896.85
424.471	2735.06
424.679	2888.66
424.887	3126.22
425.094	3077.07
425.302	3158.99
425.51	3202
425.718	3302.35
425.925	3417.04
426.133	3445.71
426.341	3761.09
426.548	3840.97
426.756	3855.3
426.964	3888.07
427.171	4043.71
427.379	4324.29
427.586	4512.7
427.794	4477.88
428.001	4686.78
428.209	4785.08
428.417	4899.77
428.624	5034.93
428.832	5270.45
429.039	5215.15
429.247	5151.67
429.454	5602.22
429.662	6036.39
429.869	5591.98
430.076	6120.35
430.284	5815.21
430.491	6120.35
430.699	6345.63
430.906	6493.08
431.114	6396.83
431.321	6755.22
431.528	6869.91
431.736	7369.62
431.943	7488.4
432.15	7351.18
432.358	7521.17
432.565	8166.28
432.772	7975.81
432.979	8256.39
433.187	8547.2
433.394	8504.19
433.601	8979.32
433.808	8893.3
434.016	9012.09
434.223	9431.92
434.43	10210.15
434.637	9837.42
434.844	10455.9
435.052	10861.4
435.259	10537.82
435.466	10636.13
435.673	10670.94
435.88	11164.5
436.087	12071.75
436.294	11901.77
436.501	11680.59
436.708	11821.9
436.915	12448.58
437.122	12645.18
437.329	12714.81
437.537	13001.53
437.743	13323.06
437.95	13286.2
438.157	14005.03
438.364	14279.46
438.571	14443.3
438.778	14500.64
438.985	15858.45
439.192	15072.03
439.399	15569.68
439.606	15377.17
439.813	16261.9
440.02	17199.87
440.227	16929.53
440.433	16372.49
440.64	17199.87
440.847	17105.66
441.054	17523.44
441.261	18698.98
441.467	18289.38
441.674	18756.32
441.881	19448.54
442.088	19409.62
442.294	19233.5
442.501	19823.31
442.708	20189.9
442.914	20878.02
443.121	21697.2
443.328	21416.63
443.534	22938.27
443.741	22348.46
443.948	21820.08
444.154	23491.23
444.361	23460.51
444.568	23028.38
444.774	23413.4
444.981	23739.03
445.187	24406.67
445.394	25649.78
445.6	25178.75
445.807	27642.46
446.013	26409.58
446.22	26745.45
446.426	28058.2
446.633	27873.88
446.839	29203.01
447.046	27683.42
447.252	29489.73
447.459	29332.03
447.665	29413.95
447.871	30622.25
448.078	31636
448.284	30472.75
448.491	31345.19
448.697	32571.92
448.903	32766.48
449.11	32977.42
449.316	32033.3
449.522	33194.5
449.728	33925.63
449.935	33757.69
450.141	33837.56
450.347	35052.01
450.553	33739.26
450.76	34241.01
450.966	35217.89
451.172	34841.07
451.378	35801.57
451.584	34750.96
451.791	35949.02
451.997	35660.26
452.203	36352.47
452.409	36108.76
452.615	36000.22
452.821	34210.29
453.027	34111.99
453.233	35850.72
453.44	34320.88
453.646	34963.95
453.852	34941.42
454.058	35676.64
454.264	34161.14
454.47	35170.79
454.676	34060.79
454.882	35303.91
455.088	32145.94
455.294	32756.24
455.5	33098.25
455.705	33393.15
455.911	31791.64
456.117	31642.14
456.323	31128.1
456.529	29475.39
456.735	30861.87
456.941	30042.68
457.147	29049.41
457.352	28295.76
457.558	28312.14
457.764	28469.84
457.97	27335.26
458.176	27077.22
458.381	27009.64
458.587	25588.35
458.793	25639.54
458.999	24521.35
459.204	26167.92
459.41	25664.12
459.616	23947.92
459.821	23610.01
460.027	23892.63
460.233	23050.91
460.438	22129.33
460.644	22487.72
460.85	21340.86
461.055	21162.69
461.261	20951.74
461.466	19563.22
461.672	18768.61
461.878	20304.59
462.083	18924.26
462.289	18279.15
462.494	18508.52
462.7	17464.05
462.905	17222.39
463.111	17212.15
463.316	17881.84
463.522	17394.42
463.727	17316.6
463.932	17249.02
464.138	17218.3
464.343	17351.42
464.549	16524.04
464.754	17357.56
464.959	17130.23
465.165	17208.06
465.37	16464.64
465.575	15995.66
465.781	16780.03
465.986	16653.06
466.191	16096.01
466.397	15713.04
466.602	14848.8
466.807	15223.58
467.012	15500.05
467.218	15491.86
467.423	15160.09
467.628	15330.07
467.833	15747.86
468.038	15250.2
468.244	14959.39
468.449	15541.01
468.654	15280.92
468.859	14930.72
469.064	15133.47
469.269	14287.65
469.474	14414.63
469.679	14541.6
469.885	14205.74
470.09	14101.29
470.295	14148.39
470.5	13941.55
470.705	13921.07
470.91	13787.95
471.115	13419.32
471.32	13873.96
471.525	13591.34
471.73	13658.93
471.935	13398.84
472.139	12698.43
472.344	13206.33
472.549	12950.33
472.754	12593.98
472.959	12577.6
473.164	12342.08
473.369	11942.73
473.574	12591.94
473.778	12458.82
473.983	12174.15
474.188	12139.33
474.393	11578.19
474.598	11715.41
474.802	11545.42
475.007	11647.82
475.212	11578.19
475.417	11090.77
475.621	11152.21
475.826	11103.06
476.031	10920.79
476.235	10785.63
476.44	10906.46
476.645	10640.22
476.849	10672.99
477.054	10404.71
477.259	10279.78
477.463	10357.6
477.668	9999.21
477.872	10220.39
478.077	10079.08
478.282	9839.47
478.486	9851.75
478.691	9671.53
478.895	9769.83
479.1	9579.37
479.304	9673.58
479.509	9352.05
479.713	9444.21
479.918	9393.01
480.122	9218.93
480.326	9317.23
480.531	9382.77
480.735	9282.42
480.94	9311.09
481.144	9503.6
481.348	9042.81
481.553	9061.24
481.757	8858.49
481.961	9288.56
482.166	9104.25
482.37	8979.32
482.574	8784.76
482.778	8831.87
482.983	9198.45
483.187	9081.72
483.391	9110.39
483.595	8829.82
483.8	8672.12
484.004	8942.46
484.208	9139.06
484.412	8842.11
484.616	8835.96
484.821	8954.74
485.025	8846.2
485.229	9096.05
485.433	8817.53
485.637	8883.06
485.841	8868.73
486.045	8946.55
486.249	8889.21
486.453	8805.24
486.657	8897.4
486.861	9020.28
487.065	8725.37
487.269	8831.87
487.473	8719.23
487.677	8795
487.881	9055.09
488.085	8926.07
488.289	9032.57
488.493	8833.91
488.697	9059.19
488.901	9010.04
489.105	8856.44
489.309	8946.55
489.512	9065.33
489.716	8977.27
489.92	9079.67
490.124	9110.39
490.328	9137.01
490.531	9075.57
490.735	9266.03
490.939	9055.09
491.143	9204.6
491.346	9120.63
491.55	9331.57
491.754	9415.54
491.958	9380.72
492.161	9255.79
492.365	9370.48
492.569	9567.09
492.772	9335.67
492.976	9474.93
493.18	9499.5
493.383	9589.61
493.587	9868.14
493.79	9792.36
493.994	9855.85
494.197	9997.16
494.401	9913.19
494.605	10115.94
494.808	10281.83
495.012	10306.4
495.215	10023.78
495.419	10398.56
495.622	10484.58
495.825	10509.15
496.029	10447.71
496.232	10644.32
496.436	10720.09
496.639	10896.22
496.843	10789.72
497.046	11184.98
497.249	11262.8
497.453	11191.13
497.656	11291.48
497.859	11381.59
498.063	11440.98
498.266	11688.78
498.469	11668.3
498.673	11852.62
498.876	12038.98
499.079	12108.62
499.282	12260.16
499.485	12591.94
499.689	12649.28
499.892	12561.22
500.095	12763.97
500.298	13179.7
500.501	13019.96
500.705	13314.87
500.908	13542.19
501.111	13646.64
501.314	13880.11
501.517	13951.79
501.72	14363.43
501.923	14111.53
502.126	14289.7
502.329	14627.62
502.532	14820.13
502.735	14889.76
502.938	15131.42
503.141	15223.58
503.344	15377.17
503.547	15465.24
503.75	15866.64
503.953	16012.04
504.156	16519.94
504.359	16487.17
504.562	16540.42
504.765	16585.47
504.968	16683.78
505.17	17134.33
505.373	17345.27
505.576	17513.2
505.779	17892.08
505.982	17953.52
506.185	18266.86
506.387	18258.67
506.59	18365.16
506.793	18879.2
506.996	19022.56
507.198	19716.82
507.401	19583.7
507.604	19903.18
507.807	20230.86
508.009	20142.8
508.212	20337.35
508.415	20628.17
508.617	20845.25
508.82	20970.18
509.022	20712.13
509.225	21379.77
509.428	22084.27
509.63	21711.54
509.833	21924.53
510.035	22590.12
510.238	22522.54
510.44	22844.07
510.643	23190.17
510.845	23712.41
511.048	23364.25
511.25	24124.05
511.453	23925.39
511.655	24820.36
511.858	24787.59
512.06	25021.06
512.262	25418.36
512.465	25383.55
512.667	25846.39
512.87	25924.21
513.072	26223.22
513.274	26606.19
513.477	27060.84
513.679	27171.43
513.881	27533.92
514.084	27978.33
514.286	27585.12
514.488	28027.48
514.69	28998.21
514.893	28836.42
515.095	28990.02
515.297	29635.13
515.499	29801.02
515.701	30532.14
515.904	30614.06
516.106	30730.8
516.308	31085.09
516.51	31306.27
516.712	31515.17
516.914	31820.31
517.116	32510.48
517.318	32594.45
517.52	32520.72
517.722	32764.43
517.925	33843.71
518.127	34038.26
518.329	34451.95
518.531	34130.42
518.733	34732.53
518.935	35095.02
519.136	35351.01
519.338	35740.13
519.54	35834.33
519.742	36530.64
519.944	36497.88
520.146	37038.54
520.348	37325.25
520.55	37464.52
520.752	37704.13
520.954	38427.06
521.155	38230.46
521.357	39014.83
521.559	39414.18
521.761	39387.56
521.963	39442.85
522.164	39684.51
522.366	40270.23
522.568	40393.11
522.77	40716.69
522.971	41175.44
523.173	41247.11
523.375	41859.46
523.576	41607.56
523.778	41716.1
523.98	42422.65
524.181	42391.93
524.383	42676.6
524.584	42989.94
524.786	43241.84
524.988	42875.25
525.189	43813.22
525.391	44427.61
525.592	44341.6
525.794	44390.75
525.995	44335.45
526.197	44396.89
526.398	44538.2
526.6	45001.04
526.801	44998.99
527.003	46053.7
527.204	45478.22
527.406	46104.9
527.607	45857.09
527.808	46500.15
528.01	45365.58
528.211	45787.46
528.412	47315.25
528.614	46616.89
528.815	46637.37
529.016	47466.8
529.218	46778.68
529.419	47558.95
529.62	47329.58
529.822	47321.39
530.023	47362.35
530.224	47448.36
530.425	47470.89
530.626	47171.89
530.828	47474.99
531.029	48302.37
531.23	47450.41
531.431	47837.48
531.632	47919.4
531.833	48136.48
532.035	48044.32
532.236	48382.24
532.437	48195.87
532.638	47878.44
532.839	48214.3
533.04	48464.16
533.241	47710.5
533.442	48982.29
533.643	48736.54
533.844	48177.44
534.045	48359.71
534.246	48206.11
534.447	48451.87
534.648	47978.79
534.849	48714.01
535.05	48013.6
535.251	48650.52
535.451	48310.56
535.652	48648.47
535.853	48478.49
536.054	48726.3
536.255	48623.9
536.456	47968.55
536.657	49015.06
536.857	48060.71
537.058	48398.62
537.259	48630.04
537.46	48961.81
537.66	48734.49
537.861	48924.95
538.062	48437.53
538.263	48761.11
538.463	48607.51
538.664	48818.46
538.865	48746.78
539.065	48859.41
539.266	48527.64
539.466	48916.76
539.667	48582.94
539.868	48802.07
540.068	48550.17
540.269	48658.71
540.469	48904.47
540.67	48292.13
540.87	48615.71
541.071	48277.79
541.271	48482.59
541.472	48933.14
541.672	48445.72
541.873	48433.44
542.073	48134.43
542.274	48927
542.474	48959.76
542.675	48269.6
542.875	48580.89
543.075	48810.26
543.276	48234.78
543.476	48404.77
543.676	48462.11
543.877	48535.84
544.077	48396.57
544.277	48539.93
544.478	48013.6
544.678	48587.03
544.878	48845.08
545.078	48455.96
545.279	48498.97
545.479	47913.25
545.679	48632.09
545.879	48040.23
546.079	48488.73
546.28	48474.4
546.48	47933.73
546.68	48566.55
546.88	48759.06
547.08	48498.97
547.28	48343.33
547.48	47843.62
547.68	48275.74
547.88	47817
548.081	48697.62
548.281	48449.82
548.481	48314.65
548.681	48544.03
548.881	48384.29
549.081	48025.89
549.28	47931.68
549.48	48505.12
549.68	48351.52
549.88	48447.77
550.08	48247.07
550.28	48552.22
550.48	48146.72
550.68	48267.55
550.88	47847.72
551.08	48202.02
551.279	48032.04
551.479	47706.41
551.679	48288.03
551.879	47831.33
552.079	47946.02
552.278	47972.64
552.478	48193.82
552.678	48072.99
552.878	48251.17
553.077	47966.5
553.277	47577.39
553.477	48179.49
553.676	47679.78
553.876	47675.69
554.076	47997.22
554.275	47417.64
554.475	47239.47
554.674	47724.84
554.874	47649.06
555.074	47323.44
555.273	47477.04
555.473	47647.02
555.672	47319.34
555.872	47585.58
556.071	47419.69
556.271	47442.22
556.47	47382.83
556.67	46926.13
556.869	46803.25
557.068	47526.19
557.268	46940.47
557.467	47046.96
557.667	47036.72
557.866	47235.38
558.065	46647.61
558.265	46780.73
558.464	46416.19
558.663	47229.23
558.863	46410.04
559.062	47038.77
559.261	46526.78
559.461	46772.53
559.66	46006.59
559.859	46369.08
560.058	46152
560.258	46164.29
560.457	45744.45
560.656	46268.73
560.855	46356.8
561.054	46041.41
561.253	46166.34
561.453	46125.38
561.652	46002.5
561.851	45965.63
562.05	45934.92
562.249	45373.77
562.448	46016.83
562.647	45566.28
562.846	45384.01
563.045	45793.61
563.244	45019.47
563.443	45222.22
563.642	44749.14
563.841	45349.2
564.04	44820.82
564.239	45158.73
564.438	44558.68
564.637	45134.16
564.836	45154.64
565.035	44228.96
565.234	44530.01
565.432	44347.74
565.631	44343.64
565.83	44595.54
566.029	44566.87
566.228	44345.69
566.427	44280.16
566.625	44042.59
566.824	43880.8
567.023	44362.08
567.222	43276.65
567.42	44284.25
567.619	43731.3
567.818	43665.77
568.016	43125.1
568.215	43798.88
568.414	43596.13
568.612	43207.02
568.811	42977.65
569.01	43194.73
569.208	42686.84
569.407	43383.15
569.605	42680.69
569.804	43278.7
570.002	42367.35
570.201	43227.5
570.4	42561.91
570.598	42332.54
570.797	42459.51
570.995	42137.98
571.193	41208.2
571.392	42199.42
571.59	41912.7
571.789	41535.88
571.987	41486.73
572.186	41826.69
572.384	41218.44
572.582	41335.18
572.781	41593.22
572.979	40984.97
573.177	41161.1
573.376	41101.71
573.574	40675.73
573.772	41111.95
573.971	40675.73
574.169	40784.27
574.367	39901.6
574.565	40380.82
574.763	40372.63
574.962	40237.47
575.16	39829.92
575.358	39922.08
575.556	39602.6
575.754	39553.44
575.952	39473.57
576.151	39944.61
576.349	39149.99
576.547	39305.64
576.745	39186.86
576.943	39358.89
577.141	39049.64
577.339	39106.99
577.537	38459.83
577.735	38873.52
577.933	38365.62
578.131	38529.46
578.329	38080.95
578.527	37910.97
578.725	37906.88
578.923	38123.96
579.121	38121.91
579.319	37865.92
579.516	38005.18
579.714	37554.63
579.912	37337.54
580.11	37556.67
580.308	37587.39
580.506	37317.06
580.704	36721.1
580.901	37292.49
581.099	37276.1
581.297	36874.7
581.495	36817.36
581.692	36805.07
581.89	36305.37
582.088	36817.36
582.285	36288.98
582.483	36567.51
582.681	36370.9
582.878	35938.78
583.076	35740.13
583.274	35908.06
583.471	35791.33
583.669	35764.7
583.866	35224.04
584.064	35547.62
584.262	35248.61
584.459	35637.73
584.657	35207.65
584.854	35449.32
585.052	34466.29
585.249	35015.15
585.447	35068.39
585.644	34454
585.841	34509.3
586.039	34861.55
586.236	34159.09
586.434	34187.77
586.631	34077.18
586.828	34509.3
587.026	34122.23
587.223	33804.8
587.42	33690.11
587.618	33933.82
587.815	33393.15
588.012	33135.11
588.21	33456.64
588.407	33466.88
588.604	33073.67
588.801	33180.17
588.999	33131.01
589.196	32987.66
589.393	32834.06
589.59	32752.14
589.787	32518.67
589.984	32356.88
590.182	32338.45
590.379	32641.55
590.576	32246.29
590.773	32229.91
590.97	32252.44
591.167	32078.36
591.364	31828.51
591.561	31930.9
591.758	31351.33
591.955	31728.16
592.152	31793.69
592.349	31265.31
592.546	31664.67
592.743	31697.44
592.94	31021.61
593.137	31101.48
593.334	31339.04
593.531	31283.75
593.727	30767.66
593.924	30888.49
594.121	30835.24
594.318	31250.98
594.515	30259.76
594.712	30798.38
594.908	30153.27
595.105	30634.54
595.302	29995.57
595.499	30325.3
595.696	29835.83
595.892	29833.78
596.089	30038.58
596.286	29981.24
596.482	29577.79
596.679	29616.7
596.876	29694.52
597.072	29772.35
597.269	29696.57
597.466	29090.37
597.662	29211.2
597.859	29106.76
598.055	29203.01
598.252	28899.91
598.448	28947.01
598.645	28500.56
598.841	28518.99
599.038	28332.62
599.234	28789.32
599.431	28226.13
599.627	28289.62
599.824	28291.66
600.02	28207.7
600.217	28088.92
600.413	28283.47
600.609	27953.75
600.806	27687.51
601.002	28095.06
601.198	27675.23
601.395	27279.97
601.591	27427.42
601.787	27302.5
601.984	27163.23
602.18	27593.31
602.376	27230.82
602.572	27241.06
602.769	26966.63
602.965	26940
603.161	26720.87
603.357	26853.99
603.553	26430.06
603.75	26561.13
603.946	26399.34
604.142	26258.03
604.338	26167.92
604.534	26278.51
604.73	25899.64
604.926	25893.49
605.122	26118.77
605.318	25807.48
605.514	25780.85
605.71	25703.03
605.906	25672.31
606.102	25305.73
606.298	25498.23
606.494	25494.14
606.69	25422.46
606.886	25428.6
607.082	25035.39
607.278	25588.35
607.474	25035.39
607.67	25162.37
607.866	24531.59
608.062	24873.6
608.257	25076.35
608.453	24789.64
608.649	24711.81
608.845	24361.61
609.041	24662.66
609.236	24605.32
609.432	24439.44
609.628	24326.8
609.824	24224.4
610.019	24113.81
610.215	24083.09
610.411	23917.2
610.606	23653.02
610.802	24296.08
610.998	23931.54
611.193	23970.45
611.389	23779.99
611.584	23698.07
611.78	23298.72
611.976	23311
612.171	23655.06
612.367	23276.19
612.562	23007.9
612.758	23087.78
612.953	22866.6
613.149	23300.76
613.344	22745.76
613.539	23229.09
613.735	23333.53
613.93	23392.92
614.126	22813.35
614.321	23120.54
614.517	22880.93
614.712	22731.43
614.907	22442.67
615.103	22741.67
615.298	22518.44
615.493	22817.44
615.688	22035.12
615.884	22624.93
616.079	22321.84
616.274	22254.25
616.47	22182.57
616.665	22192.81
616.86	22002.35
617.055	22022.83
617.25	22213.29
617.445	21981.87
617.641	21613.24
617.836	21969.58
618.031	21717.68
618.226	21574.33
618.421	21412.54
618.616	21381.82
618.811	21492.41
619.006	21686.97
619.201	20898.5
619.396	21269.18
619.591	20830.91
619.786	21045.95
619.981	20484.81
620.176	20951.74
620.371	20648.64
620.566	20783.81
620.761	20550.34
620.956	20564.68
621.151	20196.04
621.346	20400.84
621.541	20239.05
621.735	20161.23
621.93	19925.71
622.125	19978.96
622.32	19567.32
622.515	19522.26
622.709	19665.62
622.904	19430.1
623.099	19436.25
623.294	19167.96
623.488	19206.87
623.683	18969.31
623.878	18903.78
624.072	18535.14
624.267	18729.7
624.462	18557.67
624.656	18418.41
624.851	18641.64
625.046	18442.98
625.24	18619.11
625.435	18027.24
625.629	17971.95
625.824	18051.82
626.018	17834.74
626.213	17310.46
626.407	17455.86
626.602	17388.28
626.796	17414.9
626.991	17345.27
627.185	17312.5
627.38	17119.99
627.574	16704.26
627.768	16763.65
627.963	16831.23
628.157	16745.22
628.352	16706.31
628.546	16503.56
628.74	16608
628.935	16352.01
629.129	16669.44
629.323	16016.14
629.517	15973.13
629.712	15805.2
629.906	15880.97
630.1	15665.94
630.294	15751.95
630.489	15518.48
630.683	15760.14
630.877	15498
631.071	15176.47
631.265	15588.11
631.459	15356.69
631.653	15188.76
631.848	15317.78
632.042	14906.14
632.236	14918.43
632.43	15100.7
632.624	14813.98
632.818	14750.49
633.012	14551.84
633.206	14431.01
633.4	14850.85
633.594	14363.43
633.788	14447.4
633.982	14592.8
634.176	14345
634.369	14209.83
634.563	14050.09
634.757	14183.21
634.951	14162.73
635.145	13806.38
635.339	13845.29
635.533	13507.38
635.726	13886.25
635.92	13591.34
636.114	13570.86
636.308	13617.97
636.501	13310.77
636.695	13259.57
636.889	13114.17
637.083	13122.36
637.276	13083.45
637.47	13015.87
637.664	12831.55
637.857	12952.38
638.051	12835.64
638.244	12743.49
638.438	12821.31
638.632	12450.63
638.825	12548.93
639.019	12170.05
639.212	12491.59
639.406	12221.25
639.599	12372.8
639.793	12337.99
639.986	12094.28
640.18	11760.46
640.373	11909.96
640.567	12012.36
640.76	12010.31
640.954	11334.48
641.147	11729.74
641.34	11656.01
641.534	11570
641.727	11721.55
641.92	11416.4
642.114	11354.96
642.307	11416.4
642.5	11203.41
642.694	11131.73
642.887	11031.38
643.08	11015
643.273	10931.03
643.467	11117.4
643.66	10720.09
643.853	10851.16
644.046	10689.37
644.239	10589.02
644.432	10517.34
644.626	10568.54
644.819	10521.44
645.012	10586.97
645.205	10416.99
645.398	10277.73
645.591	10351.46
645.784	10328.93
645.977	10308.45
646.17	10117.99
646.363	10056.55
646.556	9882.47
646.749	9825.13
646.942	9939.82
647.135	9767.79
647.328	9753.45
647.521	9646.96
647.714	9626.48
647.907	9472.88
648.099	9499.5
648.292	9620.33
648.485	9562.99
648.678	9526.13
648.871	9300.85
649.064	9220.98
649.256	9401.2
649.449	9255.79
649.642	9134.96
649.835	9001.85
650.027	8989.56
650.22	9030.52
650.413	8760.19
650.605	8854.39
650.798	8694.65
650.991	8713.08
651.183	8655.74
651.376	8508.29
651.568	8481.66
651.761	8514.43
651.954	8436.61
652.146	8256.39
652.339	8348.54
652.531	8401.79
652.724	8280.96
652.916	8133.51
653.109	8002.44
653.301	7998.34
653.494	8035.21
653.686	7818.12
653.879	8000.39
654.071	7861.13
654.263	7781.26
654.456	7869.32
654.648	7807.88
654.84	7678.86
655.033	7525.26
655.225	7549.84
655.417	7660.43
655.61	7605.13
655.802	7457.68
655.994	7480.21
656.186	7414.67
656.379	7132.05
656.571	7250.83
656.763	7363.47
656.955	7342.99
657.148	6978.45
657.34	7140.24
657.532	6865.82
657.724	6988.69
657.916	7142.29
658.108	6783.9
658.3	6964.12
658.492	6982.55
658.684	6650.78
658.876	6806.42
659.068	6804.38
659.26	6785.94
659.452	6595.48
659.644	6601.63
659.836	6443.93
660.028	6585.24
660.22	6458.27
660.412	6509.47
660.604	6478.75
660.796	6491.04
660.988	6278.05
661.18	6235.04
661.372	6116.26
661.563	6273.95
661.755	6108.07
661.947	6140.83
662.139	5929.89
662.331	6108.07
662.522	6169.51
662.714	6001.57
662.906	5915.56
663.097	5960.61
663.289	5850.02
663.481	5571.5
663.673	5809.06
663.864	5684.14
664.056	5671.85
664.247	5522.35
664.439	5491.63
664.631	5481.39
664.822	5524.4
665.014	5512.11
665.205	5671.85
665.397	5493.68
665.588	5391.28
665.78	5356.46
665.971	5448.62
666.163	5346.22
666.354	5274.54
666.546	5196.72
666.737	5141.43
666.929	5012.4
667.12	5120.95
667.311	5174.19
667.503	5094.32
667.694	5030.84
667.885	4932.53
668.077	5084.08
668.268	5026.74
668.459	4887.48
668.651	5012.4
668.842	4955.06
669.033	4985.78
669.224	4832.18
669.416	4785.08
669.607	4748.22
669.798	4721.59
669.989	4871.09
670.18	4666.3
670.371	4551.61
670.563	4600.76
670.754	4711.35
670.945	4449.21
671.136	4717.5
671.327	4740.02
671.518	4529.08
671.709	4580.28
671.9	4768.7
672.091	4451.26
672.282	4522.94
672.473	4381.63
672.664	4385.73
672.855	4250.56
673.046	4408.25
673.237	4242.37
673.428	4496.32
673.619	4361.15
673.809	4301.76
674	4416.44
674.191	4498.36
674.382	4295.61
674.573	4228.03
674.764	4330.43
674.954	4168.64
675.145	4254.66
675.336	4174.78
675.527	4199.36
675.717	4094.91
675.908	3965.89
676.099	4172.74
676.289	4082.63
676.48	4094.91
676.671	3992.52
676.861	3947.46
677.052	4066.24
677.243	3969.99
677.433	4094.91
677.624	4109.25
677.814	3900.36
678.005	3838.92
678.195	3886.02
678.386	3949.51
678.576	3730.38
678.767	3898.31
678.957	3750.85
679.148	3769.29
679.338	3959.75
679.529	3843.01
679.719	3718.09
679.909	3732.42
680.1	3877.83
680.29	3711.94
680.481	3904.45
680.671	3818.44
680.861	3713.99
681.052	3906.5
681.242	3806.15
681.432	3763.14
681.622	3673.03
681.813	3662.79
682.003	3744.71
682.193	3554.25
682.383	3564.49
682.573	3515.34
682.764	3611.59
682.954	3560.39
683.144	3572.68
683.334	3638.22
683.524	3634.12
683.714	3681.22
683.904	3605.45
684.094	3597.26
684.284	3724.23
684.474	3595.21
684.664	3638.22
684.854	3537.87
685.044	3544.01
685.234	3318.73
685.424	3527.63
685.614	3482.57
685.804	3591.11
685.994	3484.62
686.184	3478.47
686.374	3414.99
686.564	3378.12
686.753	3535.82
686.943	3365.84
687.133	3425.23
687.323	3464.14
687.513	3431.37
687.702	3402.7
687.892	3388.36
688.082	3163.09
688.272	3419.08
688.461	3271.63
688.651	3408.84
688.841	3337.17
689.03	3251.15
689.22	3316.69
689.41	3259.34
689.599	3304.4
689.789	3392.46
689.979	3421.13
690.168	3283.92
690.358	3380.17
690.547	3240.91
690.737	3392.46
690.926	3245.01
691.116	3226.57
691.305	3187.66
691.495	3277.77
691.684	3369.93
691.874	3107.79
692.063	3242.96
692.252	3302.35
692.442	3302.35
692.631	3134.42
692.82	3234.77
693.01	3247.05
693.199	3271.63
693.388	3242.96
693.578	3197.9
693.767	3197.9
693.956	3167.18
694.146	3132.37
694.335	3132.37
694.524	3183.57
694.713	3146.7
694.902	3197.9
695.092	3152.85
695.281	3099.6
695.47	3232.72
695.659	3062.74
695.848	3150.8
696.037	3228.62
696.226	3236.81
696.415	3150.8
696.604	3294.16
696.793	3134.42
696.982	3101.65
697.171	3277.77
697.36	3087.31
697.549	3128.27
697.738	3156.94
697.927	3089.36
698.116	3089.36
698.305	3142.61
698.494	3189.71
698.683	3023.83
698.872	3169.23
699.061	3183.57
699.25	3204.05
699.438	3066.83
699.627	3210.19
699.816	3083.22
700.005	3027.92
700.193	3050.45
700.382	3103.7
700.571	3046.35
700.76	3025.87
700.948	3126.22
701.137	2972.63
701.326	3150.8
701.514	3001.3
701.703	2946
701.892	2995.15
702.08	3077.07
702.269	2939.86
702.457	2898.9
702.646	3013.59
702.834	2868.18
703.023	2962.39
703.212	3036.11
703.4	3025.87
703.589	2956.24
703.777	2982.87
703.965	2855.89
704.154	2980.82
704.342	3081.17
704.531	2892.76
704.719	2886.61
704.907	2927.57
705.096	2853.84
705.284	2880.47
705.472	2853.84
705.661	2943.96
705.849	2868.18
706.037	2900.95
706.226	2823.12
706.414	2780.12
706.602	2864.08
706.79	2796.5
706.979	2782.17
707.167	2763.73
707.355	2620.38
707.543	2708.44
707.731	2718.68
707.919	2771.93
708.107	2739.16
708.296	2644.95
708.484	2616.28
708.672	2608.09
708.86	2749.4
709.048	2681.82
709.236	2741.21
709.424	2651.1
709.612	2599.9
709.8	2696.15
709.988	2554.84
710.176	2634.71
710.364	2579.42
710.551	2493.4
710.739	2647
710.927	2563.03
711.115	2593.75
711.303	2534.36
711.491	2448.35
711.679	2560.98
711.866	2491.35
712.054	2470.87
712.242	2489.31
712.43	2487.26
712.617	2522.07
712.805	2464.73
712.993	2419.68
713.181	2376.67
713.368	2438.11
713.556	2556.89
713.744	2442.2
713.931	2509.79
714.119	2368.48
714.306	2376.67
714.494	2436.06
714.682	2370.52
714.869	2296.8
715.057	2286.56
715.244	2302.94
715.432	2431.96
715.619	2286.56
715.807	2358.24
715.994	2348
716.182	2247.65
716.369	2237.41
716.556	2288.61
716.744	2272.22
716.931	2264.03
717.119	2253.79
717.306	2282.46
717.493	2196.45
717.681	2153.44
717.868	2270.17
718.055	2239.45
718.242	2208.73
718.43	2190.3
718.617	2200.54
718.804	2145.25
718.991	2083.81
719.179	2186.21
719.366	2098.14
719.553	2130.91
719.74	2096.1
719.927	2042.85
720.114	2018.27
720.301	2055.14
720.488	1989.6
720.676	2051.04
720.863	2069.47
721.05	1991.65
721.237	1979.36
721.424	1983.46
721.611	2028.51
721.798	1932.26
721.985	1954.79
722.172	1940.45
722.358	1883.11
722.545	2003.94
722.732	1954.79
722.919	1956.83
723.106	1874.92
723.293	1950.69
723.48	1860.58
723.667	1831.91
723.853	1879.01
724.04	1874.92
724.227	1874.92
724.414	1807.33
724.6	1962.98
724.787	1762.28
724.974	1807.33
725.161	1868.77
725.347	1860.58
725.534	1852.39
725.72	1797.09
725.907	1739.75
726.094	1858.53
726.28	1682.41
726.467	1758.18
726.653	1786.85
726.84	1768.42
727.027	1768.42
727.213	1733.61
727.4	1653.73
727.586	1713.13
727.773	1663.97
727.959	1713.13
728.145	1616.87
728.332	1694.69
728.518	1745.89
728.705	1678.31
728.891	1670.12
729.077	1721.32
729.264	1676.26
729.45	1639.4
729.636	1651.69
729.823	1655.78
730.009	1633.26
730.195	1686.5
730.382	1547.24
730.568	1674.21
730.754	1643.49
730.94	1481.71
731.126	1614.82
731.313	1655.78
731.499	1590.25
731.685	1496.04
731.871	1653.73
732.057	1569.77
732.243	1588.2
732.429	1553.38
732.615	1555.43
732.801	1610.73
732.987	1479.66
733.173	1684.45
733.359	1491.95
733.545	1506.28
733.731	1555.43
733.917	1481.71
734.103	1496.04
734.289	1428.46
734.475	1436.65
734.661	1500.14
734.847	1420.27
735.033	1446.89
735.219	1526.76
735.404	1430.51
735.59	1432.55
735.776	1461.23
735.962	1420.27
736.148	1438.7
736.333	1381.35
736.519	1369.07
736.705	1424.36
736.89	1465.32
737.076	1410.03
737.262	1348.59
737.447	1393.64
737.633	1493.99
737.819	1321.96
738.004	1424.36
738.19	1424.36
738.375	1299.44
738.561	1309.68
738.747	1233.9
738.932	1354.73
739.118	1461.23
739.303	1410.03
739.489	1313.77
739.674	1276.91
739.859	1231.85
740.045	1334.25
740.23	1311.72
740.416	1205.23
740.601	1270.76
740.786	1301.48
740.972	1379.31
741.157	1246.19
741.342	1250.28
741.528	1258.48
741.713	1260.52
741.898	1244.14
742.084	1254.38
742.269	1287.15
742.454	1141.74
742.639	1264.62
742.824	1221.61
743.01	1141.74
743.195	1176.56
743.38	1244.14
743.565	1178.61
743.75	1205.23
743.935	1037.3
744.12	1137.65
744.305	1188.85
744.49	1182.7
744.675	1223.66
744.86	1205.23
745.045	1188.85
745.23	1102.83
745.415	1094.64
745.6	1086.45
745.785	1051.63
745.97	1147.89
746.155	1039.34
746.34	1166.32
746.525	1156.08
746.71	1070.06
746.895	1139.69
747.079	1117.17
747.264	1143.79
747.449	1092.59
747.634	1010.67
747.819	1082.35
748.003	1010.67
748.188	1113.07
748.373	1094.64
748.557	1063.92
748.742	1123.31
748.927	1004.53
749.111	1053.68
749.296	1049.58
749.481	949.23
749.665	1039.34
749.85	951.28
750.034	1027.06
750.219	1037.3
750.404	912.37
750.588	1000.43
750.773	928.75
750.957	969.71
751.141	1020.91
751.326	986.1
751.51	961.52
751.695	824.31
751.879	895.99
752.064	904.18
752.248	926.71
752.432	914.42
752.617	848.88
752.801	904.18
752.985	918.51
753.17	820.21
753.354	906.23
753.538	775.16
753.722	967.67
753.907	756.72
754.091	844.79
754.275	807.92
754.459	857.07
754.643	818.16
754.828	762.87
755.012	805.88
755.196	875.51
755.38	789.49
755.564	805.88
755.748	760.82
755.932	754.68
756.116	789.49
756.3	738.29
756.484	756.72
756.668	705.53
756.852	754.68
757.036	752.63
757.22	764.92
757.404	824.31
757.588	787.44
757.772	789.49
757.956	705.53
758.14	799.73
758.323	740.34
758.507	670.71
758.691	711.67
758.875	680.95
759.059	611.32
759.242	736.24
759.426	699.38
759.61	629.75
759.794	639.99
759.977	660.47
760.161	730.1
760.345	603.13
760.528	693.24
760.712	646.13
760.895	707.57
761.079	648.18
761.263	588.79
761.446	617.46
761.63	703.48
761.813	658.42
761.997	564.22
762.18	666.61
762.364	654.33
762.547	719.86
762.731	568.31
762.914	582.65
763.098	707.57
763.281	603.13
763.464	603.13
763.648	619.51
763.831	660.47
764.015	619.51
764.198	478.2
764.381	658.42
764.564	629.75
764.748	623.61
764.931	699.38
765.114	648.18
765.297	664.57
765.481	596.98
765.664	564.22
765.847	662.52
766.03	633.85
766.213	527.35
766.397	607.22
766.58	609.27
766.763	531.45
766.946	545.78
767.129	504.82
767.312	560.12
767.495	613.37
767.678	533.5
767.861	570.36
768.044	527.35
768.227	611.32
768.41	521.21
768.593	508.92
768.776	594.93
768.959	547.83
769.142	605.17
769.324	529.4
769.507	529.4
769.69	543.74
769.873	568.31
770.056	594.93
770.239	558.07
770.421	529.4
770.604	455.67
770.787	582.65
770.97	594.93
771.152	547.83
771.335	517.11
771.518	504.82
771.7	570.36
771.883	510.97
772.066	574.46
772.248	461.82
772.431	574.46
772.613	510.97
772.796	502.78
772.978	472.06
773.161	525.3
773.343	474.1
773.526	492.54
773.708	521.21
773.891	451.58
774.073	506.87
774.256	498.68
774.438	517.11
774.621	447.48
774.803	492.54
774.985	451.58
775.168	472.06
775.35	474.1
775.532	531.45
775.715	537.59
775.897	474.1
776.079	420.86
776.261	486.39
776.444	527.35
776.626	435.19
776.808	414.71
776.99	494.58
777.173	476.15
777.355	467.96
777.537	433.15
777.719	457.72
777.901	439.29
778.083	416.76
778.265	394.23
778.447	424.95
778.629	383.99
778.811	424.95
778.993	396.28
779.175	396.28
779.357	343.03
779.539	400.38
779.721	427
779.903	433.15
780.085	388.09
780.267	353.27
780.449	392.19
780.631	338.94
780.812	490.49
780.994	394.23
781.176	371.71
781.358	316.41
781.54	439.29
781.721	398.33
781.903	353.27
782.085	306.17
782.267	381.95
782.448	369.66
782.63	386.04
782.812	367.61
782.993	363.51
783.175	306.17
783.357	322.56
783.538	281.6
783.72	359.42
783.901	267.26
784.083	332.79
784.264	297.98
784.446	330.75
784.627	267.26
784.809	369.66
784.99	312.32
785.172	246.78
785.353	347.13
785.535	375.8
785.716	254.97
785.897	289.79
786.079	308.22
786.26	336.89
786.441	261.12
786.623	312.32
786.804	326.65
786.985	261.12
787.167	279.55
787.348	230.4
787.529	361.47
787.71	156.67
787.891	312.32
788.073	261.12
788.254	250.88
788.435	240.64
788.616	287.74
788.797	230.4
788.978	240.64
789.159	285.69
789.34	218.11
789.522	343.03
789.703	234.49
789.884	281.6
790.065	222.2
790.246	279.55
790.427	254.97
790.607	250.88
790.788	261.12
790.969	275.45
791.15	187.39
791.331	166.91
791.512	234.49
791.693	220.16
791.874	236.54
792.054	279.55
792.235	230.4
792.416	238.59
792.597	314.36
792.778	214.01
792.958	250.88
793.139	205.82
793.32	236.54
793.5	183.29
793.681	228.35
793.862	236.54
794.042	158.72
794.223	183.29
794.404	185.34
794.584	175.1
794.765	199.68
794.945	267.26
795.126	162.81
795.306	193.53
795.487	297.98
795.667	228.35
795.848	209.92
796.028	166.91
796.209	187.39
796.389	267.26
796.57	162.81
796.75	195.58
796.93	136.19
797.111	175.1
797.291	175.1
797.471	289.79
797.652	105.47
797.832	222.2
798.012	181.25
798.192	177.15
798.373	242.68
798.553	144.38
798.733	175.1
798.913	187.39
799.093	175.1
799.274	91.13
799.454	205.82
799.634	152.57
799.814	222.2
799.994	160.77
800.174	119.81
800.354	99.33
800.534	168.96
800.714	138.24
800.894	125.95
801.074	134.14
801.254	156.67
801.434	197.63
801.614	203.77
801.794	123.9
801.974	324.6
802.154	115.71
802.334	211.96
802.514	148.48
802.693	76.8
802.873	136.19
803.053	144.38
803.233	58.37
803.413	121.85
803.592	144.38
803.772	201.72
803.952	146.43
804.131	209.92
804.311	89.09
804.491	177.15
804.67	123.9
804.85	177.15
805.03	144.38
805.209	113.66
805.389	111.61
805.568	123.9
805.748	115.71
805.928	140.29
806.107	236.54
806.287	89.09
806.466	128
806.646	125.95
806.825	72.7
807.004	168.96
807.184	136.19
807.363	113.66
807.543	121.85
807.722	136.19
807.901	121.85
808.081	101.37
808.26	125.95
808.439	107.52
808.619	89.09
808.798	62.46
808.977	37.89
809.156	64.51
809.336	187.39
809.515	41.98
809.694	54.27
809.873	160.77
810.052	138.24
810.231	160.77
810.411	91.13
810.59	123.9
810.769	89.09
810.948	101.37
811.127	44.03
811.306	115.71
811.485	29.7
811.664	185.34
811.843	113.66
812.022	134.14
812.201	87.04
812.38	152.57
812.559	115.71
812.737	117.76
812.916	84.99
813.095	138.24
813.274	136.19
813.453	91.13
813.632	103.42
813.811	140.29
813.989	33.79
814.168	181.25
814.347	78.85
814.526	37.89
814.704	148.48
814.883	121.85
815.062	121.85
815.24	84.99
815.419	138.24
815.598	113.66
815.776	99.33
815.955	15.36
816.133	87.04
816.312	68.61
816.49	72.7
816.669	50.18
816.847	107.52
817.026	109.57
817.204	46.08
817.383	82.94
817.561	76.8
817.74	84.99
817.918	125.95
818.097	105.47
818.275	68.61
818.453	11.26
818.632	76.8
818.81	101.37
818.988	58.37
819.167	80.89
819.345	107.52
819.523	123.9
819.701	80.89
819.879	91.13
820.058	99.33
820.236	68.61
820.414	91.13
820.592	60.42
820.77	101.37
820.948	56.32
821.127	44.03
821.305	54.27
821.483	82.94
821.661	138.24
821.839	130.05
822.017	1.02
822.195	103.42
822.373	160.77
822.551	50.18
822.729	123.9
822.907	95.23
823.085	93.18
823.262	123.9
823.44	-29.7
823.618	105.47
823.796	76.8
823.974	60.42
824.152	19.46
824.329	62.46
824.507	64.51
824.685	48.13
824.863	62.46
825.04	62.46
825.218	76.8
825.396	-5.12
825.574	15.36
825.751	60.42
825.929	52.22
826.107	58.37
826.284	87.04
826.462	84.99
826.639	87.04
826.817	35.84
826.994	82.94
827.172	-7.17
827.349	82.94
827.527	99.33
827.704	37.89
827.882	109.57
828.059	74.75
828.237	68.61
828.414	9.22
828.591	-15.36
828.769	130.05
828.946	19.46
829.124	60.42
829.301	70.65
829.478	29.7
829.655	-19.46
829.833	35.84
830.01	46.08
830.187	29.7
830.364	37.89
830.542	119.81
830.719	62.46
830.896	109.57
831.073	56.32
831.25	9.22
831.427	19.46
831.604	-1.02
831.782	-21.5
831.959	76.8
832.136	76.8
832.313	41.98
832.49	50.18
832.667	62.46
832.844	82.94
833.021	-29.7
833.198	33.79
833.374	25.6
833.551	95.23
833.728	117.76
833.905	138.24
834.082	13.31
834.259	97.28
834.436	171.01
834.612	46.08
834.789	-9.22
834.966	-21.5
835.143	9.22
835.319	58.37
835.496	11.26
835.673	70.65
835.85	56.32
836.026	50.18
836.203	-7.17
836.38	17.41
836.556	-3.07
836.733	31.74
836.909	56.32
837.086	50.18
837.262	19.46
837.439	66.56
837.616	23.55
837.792	19.46
837.968	19.46
838.145	52.22
838.321	70.65
838.498	72.7
838.674	37.89
838.851	-60.42
839.027	91.13
839.203	74.75
839.38	44.03
839.556	62.46
839.732	142.33
839.909	37.89
840.085	41.98
840.261	25.6
840.437	33.79
840.614	13.31
840.79	17.41
840.966	50.18
841.142	54.27
841.318	29.7
841.494	41.98
841.671	7.17
841.847	54.27
842.023	62.46
842.199	134.14
842.375	13.31
842.551	5.12
842.727	-3.07
842.903	87.04
843.079	54.27
843.255	23.55
843.431	78.85
843.607	-27.65
843.783	1.02
843.959	15.36
844.134	-17.41
844.31	23.55
844.486	7.17
844.662	27.65
844.838	84.99
845.013	5.12
845.189	101.37
845.365	48.13
845.541	-31.74
845.716	80.89
845.892	21.5
846.068	46.08
846.244	25.6
846.419	-5.12
846.595	44.03
846.77	80.89
846.946	50.18
847.122	66.56
847.297	-17.41
847.473	1.02
847.648	3.07
847.824	58.37
847.999	37.89
848.175	-13.31
848.35	103.42
848.526	31.74
848.701	-11.26
848.876	17.41
849.052	48.13
849.227	-39.94
849.403	11.26
849.578	84.99
849.753	78.85
849.929	35.84
850.104	11.26
850.279	23.55
850.454	7.17
850.63	-19.46
850.805	15.36
850.98	70.65
851.155	33.79
851.33	33.79
851.505	17.41
851.681	54.27
851.856	-41.98
852.031	54.27
852.206	46.08
852.381	23.55
852.556	5.12
852.731	17.41
852.906	1.02
853.081	-74.75
853.256	7.17
853.431	7.17
853.606	-15.36
853.781	54.27
853.956	-3.07
854.131	25.6
854.305	-9.22
854.48	9.22
854.655	50.18
854.83	31.74
855.005	-41.98
855.18	29.7
855.354	5.12
855.529	80.89
855.704	-37.89
855.879	19.46
856.053	91.13
856.228	74.75
856.403	-50.18
856.577	-54.27
856.752	-21.5
856.926	-44.03
857.101	74.75
857.276	11.26
857.45	-62.46
857.625	29.7
857.799	9.22
857.974	35.84
858.148	58.37
858.323	-7.17
858.497	31.74
858.672	-39.94
858.846	3.07
859.02	50.18
859.195	-15.36
859.369	-66.56
859.543	46.08
859.718	1.02
859.892	-41.98
860.066	70.65
860.241	17.41
860.415	35.84
860.589	27.65
860.763	23.55
860.938	-25.6
861.112	5.12
861.286	7.17
861.46	103.42
861.634	35.84
861.808	21.5
861.982	37.89
862.157	50.18
862.331	21.5
862.505	9.22
862.679	33.79
862.853	-11.26
863.027	29.7
863.201	1.02
863.375	39.94
863.549	56.32
863.722	27.65
863.896	46.08
864.07	-3.07
864.244	39.94
864.418	29.7
864.592	-23.55
864.766	60.42
864.939	66.56
865.113	27.65
865.287	5.12
865.461	93.18
865.634	91.13
865.808	29.7
865.982	-27.65
866.156	13.31
866.329	50.18
866.503	5.12
866.676	119.81
866.85	17.41
867.024	-15.36
867.197	-15.36
867.371	82.94
867.544	37.89
867.718	-33.79
867.891	7.17
868.065	9.22
868.238	-39.94
868.412	41.98
868.585	-19.46
868.759	-21.5
868.932	29.7
869.105	5.12
869.279	27.65
869.452	-46.08
869.625	25.6
869.799	21.5
869.972	-13.31
870.145	-5.12
870.319	-15.36
870.492	-33.79
870.665	13.31
870.838	50.18
871.011	33.79
871.185	-25.6
871.358	66.56
871.531	25.6
871.704	21.5
871.877	-17.41
872.05	17.41
872.223	19.46
872.396	17.41
872.569	5.12
872.742	-76.8
872.915	-5.12
873.088	-1.02
873.261	21.5
873.434	-37.89
873.607	-11.26
873.78	21.5
873.953	-82.94
874.126	41.98
874.299	5.12
874.471	-52.22
874.644	1.02
874.817	-7.17
874.99	5.12
875.163	48.13
875.335	-15.36
875.508	-66.56
875.681	29.7
875.853	-5.12
876.026	-39.94
876.199	13.31
876.371	11.26
876.544	17.41
876.717	15.36
876.889	17.41
877.062	23.55
877.234	-89.09
877.407	35.84
877.579	13.31
877.752	78.85
877.924	46.08
878.097	11.26
878.269	29.7
878.442	33.79
878.614	-66.56
878.786	-11.26
878.959	-3.07
879.131	80.89
879.303	-31.74
879.476	17.41
879.648	9.22
879.82	54.27
879.993	-7.17
880.165	-13.31
880.337	7.17
880.509	-19.46
880.681	-17.41
880.854	-82.94
881.026	3.07
881.198	35.84
881.37	-60.42
881.542	31.74
881.714	21.5
881.886	-37.89
882.058	56.32
882.23	37.89
882.402	23.55
882.574	62.46
882.746	-17.41
882.918	15.36
883.09	7.17
883.262	-31.74
883.434	-27.65
883.606	5.12
883.778	37.89
883.95	54.27
884.122	-13.31
884.293	-44.03
884.465	-23.55
884.637	-35.84
884.809	37.89
884.98	27.65
885.152	37.89
885.324	9.22
885.496	-17.41
885.667	35.84
885.839	19.46
886.011	39.94
886.182	-70.65
886.354	27.65
886.525	-87.04
886.697	-33.79
886.869	-9.22
887.04	-5.12
887.212	7.17
887.383	21.5
887.555	58.37
887.726	7.17
887.897	7.17
888.069	33.79
888.24	-52.22
888.412	-27.65
888.583	19.46
888.754	-9.22
888.926	9.22
889.097	-44.03
889.268	-33.79
889.44	7.17
889.611	-35.84
889.782	-56.32
889.953	13.31
890.125	-5.12
890.296	23.55
890.467	-48.13
890.638	-7.17
890.809	17.41
890.98	21.5
891.151	3.07
891.323	89.09
891.494	1.02
891.665	37.89
891.836	-25.6
892.007	-23.55
892.178	52.22
892.349	-82.94
892.52	-31.74
892.691	41.98
892.862	27.65
893.032	23.55
893.203	-37.89
893.374	46.08
893.545	7.17
893.716	-15.36
893.887	13.31
894.057	-3.07
894.228	29.7
894.399	3.07
894.57	19.46
894.74	-29.7
894.911	62.46
895.082	-19.46
895.253	27.65
895.423	-37.89
895.594	5.12
895.764	7.17
895.935	27.65
896.106	7.17
896.276	-37.89
896.447	21.5
896.617	-15.36
896.788	-58.37
896.958	7.17
897.129	9.22
897.299	25.6
897.47	-50.18
897.64	1.02
897.81	-5.12
897.981	35.84
898.151	-48.13
898.322	-1.02
898.492	-11.26
898.662	23.55
898.832	-1.02
899.003	52.22
899.173	-13.31
899.343	15.36
899.513	3.07
