Data from USB4F104151__299__14-03-03-664.txt Node

Date: Thu Mar 13 14:03:03 EDT 2025
User: louis
Spectrometer: USB4F10415
Trigger mode: 4
Integration Time (sec): 1.000000E-2
Scans to average: 1
Electric dark correction enabled: true
Nonlinearity correction enabled: false
Boxcar width: 0
XAxis mode: Wavelengths
Number of Pixels in Spectrum: 3648
>>>>>Begin Spectral Data<<<<<
178.204	3.75
178.424	3.75
178.644	3.75
178.864	-14.68
179.084	-94.55
179.304	-67.92
179.524	-61.78
179.744	-14.68
179.964	11.95
180.184	-18.77
180.404	-12.63
180.624	32.43
180.844	57
181.064	-31.06
181.283	75.43
181.503	-6.49
181.723	36.52
181.943	-29.01
182.163	-8.53
182.383	79.53
182.602	18.09
182.822	22.19
183.042	42.67
183.262	-22.87
183.482	34.47
183.701	-0.34
183.921	32.43
184.141	-14.68
184.361	-4.44
184.58	28.33
184.8	-10.58
185.02	34.47
185.239	18.09
185.459	52.91
185.679	3.75
185.898	-2.39
186.118	54.95
186.338	16.04
186.557	36.52
186.777	3.75
186.997	26.28
187.216	9.9
187.436	34.47
187.655	65.19
187.875	67.24
188.095	-33.11
188.314	1.71
188.534	34.47
188.753	36.52
188.973	50.86
189.192	9.9
189.412	16.04
189.631	24.23
189.851	36.52
190.07	28.33
190.29	24.23
190.509	69.29
190.729	54.95
190.948	5.8
191.168	75.43
191.387	122.54
191.607	18.09
191.826	59.05
192.045	3.75
192.265	-0.34
192.484	20.14
192.704	36.52
192.923	-55.64
193.142	57
193.362	34.47
193.581	5.8
193.8	-0.34
194.02	87.72
194.239	-29.01
194.458	63.15
194.678	61.1
194.897	-22.87
195.116	61.1
195.335	-45.4
195.555	-8.53
195.774	50.86
195.993	52.91
196.212	42.67
196.432	46.76
196.651	-12.63
196.87	83.63
197.089	71.34
197.308	7.85
197.528	40.62
197.747	-31.06
197.966	22.19
198.185	38.57
198.404	-47.44
198.623	40.62
198.842	24.23
199.062	32.43
199.281	36.52
199.5	36.52
199.719	63.15
199.938	-12.63
200.157	38.57
200.376	-6.49
200.595	57
200.814	-35.16
201.033	7.85
201.252	-35.16
201.471	22.19
201.69	-12.63
201.909	85.67
202.128	-53.59
202.347	26.28
202.566	-0.34
202.785	1.71
203.004	1.71
203.223	77.48
203.442	79.53
203.661	20.14
203.879	-8.53
204.098	108.2
204.317	52.91
204.536	-10.58
204.755	-39.25
204.974	83.63
205.193	36.52
205.411	34.47
205.63	5.8
205.849	5.8
206.068	104.11
206.287	-65.88
206.505	-0.34
206.724	28.33
206.943	-29.01
207.162	40.62
207.381	75.43
207.599	-10.58
207.818	-4.44
208.037	13.99
208.255	5.8
208.474	-6.49
208.693	91.82
208.911	40.62
209.13	3.75
209.349	-24.92
209.567	50.86
209.786	9.9
210.005	50.86
210.223	16.04
210.442	40.62
210.661	95.91
210.879	63.15
211.098	22.19
211.316	91.82
211.535	50.86
211.753	5.8
211.972	34.47
212.191	1.71
212.409	-12.63
212.628	-8.53
212.846	7.85
213.065	104.11
213.283	-6.49
213.502	57
213.72	20.14
213.938	44.71
214.157	32.43
214.375	50.86
214.594	-10.58
214.812	-10.58
215.031	9.9
215.249	30.38
215.467	18.09
215.686	36.52
215.904	-22.87
216.122	-43.35
216.341	46.76
216.559	-12.63
216.778	54.95
216.996	40.62
217.214	9.9
217.432	69.29
217.651	-31.06
217.869	-6.49
218.087	-37.2
218.306	44.71
218.524	52.91
218.742	83.63
218.96	11.95
219.179	3.75
219.397	63.15
219.615	-22.87
219.833	67.24
220.051	-2.39
220.27	50.86
220.488	157.35
220.706	11.95
220.924	128.68
221.142	28.33
221.36	54.95
221.578	38.57
221.796	-72.02
222.015	-6.49
222.233	-6.49
222.451	71.34
222.669	75.43
222.887	61.1
223.105	20.14
223.323	-16.73
223.541	30.38
223.759	26.28
223.977	44.71
224.195	69.29
224.413	9.9
224.631	81.58
224.849	13.99
225.067	59.05
225.285	28.33
225.503	-31.06
225.721	5.8
225.939	122.54
226.157	18.09
226.375	-55.64
226.592	87.72
226.81	54.95
227.028	3.75
227.246	36.52
227.464	-33.11
227.682	50.86
227.9	83.63
228.117	3.75
228.335	-14.68
228.553	-4.44
228.771	-6.49
228.989	9.9
229.206	9.9
229.424	32.43
229.642	-8.53
229.86	65.19
230.077	-43.35
230.295	-61.78
230.513	11.95
230.731	42.67
230.948	1.71
231.166	36.52
231.384	61.1
231.601	36.52
231.819	67.24
232.037	67.24
232.254	69.29
232.472	-18.77
232.689	48.81
232.907	-51.54
233.125	87.72
233.342	87.72
233.56	-63.83
233.777	-45.4
233.995	46.76
234.213	54.95
234.43	48.81
234.648	-39.25
234.865	-4.44
235.083	-51.54
235.3	71.34
235.518	-24.92
235.735	83.63
235.953	77.48
236.17	54.95
236.388	67.24
236.605	13.99
236.822	9.9
237.04	44.71
237.257	145.06
237.475	-82.26
237.692	67.24
237.909	3.75
238.127	104.11
238.344	-16.73
238.562	-31.06
238.779	13.99
238.996	1.71
239.214	32.43
239.431	3.75
239.648	36.52
239.865	-8.53
240.083	-22.87
240.3	73.39
240.517	91.82
240.735	13.99
240.952	5.8
241.169	-2.39
241.386	18.09
241.603	50.86
241.821	22.19
242.038	54.95
242.255	16.04
242.472	54.95
242.689	50.86
242.907	42.67
243.124	36.52
243.341	-18.77
243.558	52.91
243.775	30.38
243.992	38.57
244.209	13.99
244.426	54.95
244.643	44.71
244.86	38.57
245.078	-6.49
245.295	1.71
245.512	34.47
245.729	11.95
245.946	22.19
246.163	38.57
246.38	-24.92
246.597	-16.73
246.814	3.75
247.031	28.33
247.248	26.28
247.464	13.99
247.681	50.86
247.898	40.62
248.115	24.23
248.332	22.19
248.549	30.38
248.766	18.09
248.983	57
249.2	54.95
249.417	9.9
249.633	-12.63
249.85	-24.92
250.067	71.34
250.284	54.95
250.501	24.23
250.717	34.47
250.934	104.11
251.151	83.63
251.368	-14.68
251.585	1.71
251.801	59.05
252.018	-6.49
252.235	54.95
252.451	73.39
252.668	42.67
252.885	-6.49
253.102	52.91
253.318	38.57
253.535	34.47
253.752	67.24
253.968	85.67
254.185	22.19
254.401	-10.58
254.618	28.33
254.835	-29.01
255.051	75.43
255.268	34.47
255.484	52.91
255.701	42.67
255.917	93.87
256.134	-22.87
256.351	97.96
256.567	34.47
256.784	-4.44
257	5.8
257.217	59.05
257.433	44.71
257.65	-4.44
257.866	20.14
258.082	18.09
258.299	-72.02
258.515	69.29
258.732	7.85
258.948	-18.77
259.165	75.43
259.381	3.75
259.597	9.9
259.814	24.23
260.03	34.47
260.246	22.19
260.463	42.67
260.679	91.82
260.895	44.71
261.112	85.67
261.328	54.95
261.544	34.47
261.761	83.63
261.977	9.9
262.193	36.52
262.409	40.62
262.626	22.19
262.842	59.05
263.058	30.38
263.274	11.95
263.49	93.87
263.707	16.04
263.923	38.57
264.139	-69.97
264.355	26.28
264.571	44.71
264.787	48.81
265.004	59.05
265.22	3.75
265.436	20.14
265.652	-4.44
265.868	40.62
266.084	81.58
266.3	-45.4
266.516	-26.96
266.732	28.33
266.948	87.72
267.164	75.43
267.38	-22.87
267.596	77.48
267.812	34.47
268.028	52.91
268.244	-31.06
268.46	50.86
268.676	48.81
268.892	13.99
269.108	3.75
269.324	11.95
269.54	20.14
269.756	18.09
269.972	-2.39
270.188	50.86
270.403	-14.68
270.619	93.87
270.835	3.75
271.051	3.75
271.267	5.8
271.483	-43.35
271.698	-37.2
271.914	38.57
272.13	38.57
272.346	30.38
272.562	20.14
272.777	7.85
272.993	20.14
273.209	28.33
273.425	83.63
273.64	26.28
273.856	-10.58
274.072	28.33
274.287	42.67
274.503	134.82
274.719	7.85
274.934	59.05
275.15	48.81
275.366	52.91
275.581	52.91
275.797	-45.4
276.012	46.76
276.228	69.29
276.444	-2.39
276.659	20.14
276.875	-43.35
277.09	75.43
277.306	-22.87
277.521	-4.44
277.737	-8.53
277.952	26.28
278.168	-6.49
278.383	81.58
278.599	44.71
278.814	91.82
279.03	-31.06
279.245	81.58
279.461	83.63
279.676	3.75
279.892	-4.44
280.107	18.09
280.322	50.86
280.538	34.47
280.753	11.95
280.969	54.95
281.184	-6.49
281.399	48.81
281.615	38.57
281.83	59.05
282.045	26.28
282.26	61.1
282.476	-57.68
282.691	91.82
282.906	-6.49
283.122	75.43
283.337	61.1
283.552	24.23
283.767	-37.2
283.983	34.47
284.198	13.99
284.413	30.38
284.628	3.75
284.843	-26.96
285.058	16.04
285.274	-2.39
285.489	36.52
285.704	-39.25
285.919	87.72
286.134	-6.49
286.349	9.9
286.564	46.76
286.779	32.43
286.995	59.05
287.21	42.67
287.425	-14.68
287.64	-10.58
287.855	50.86
288.07	44.71
288.285	-45.4
288.5	-16.73
288.715	3.75
288.93	-24.92
289.145	114.34
289.36	71.34
289.575	38.57
289.79	9.9
290.004	9.9
290.219	26.28
290.434	34.47
290.649	5.8
290.864	13.99
291.079	20.14
291.294	69.29
291.509	81.58
291.724	28.33
291.938	18.09
292.153	-74.07
292.368	11.95
292.583	42.67
292.798	30.38
293.012	18.09
293.227	-20.82
293.442	-10.58
293.657	36.52
293.871	75.43
294.086	34.47
294.301	26.28
294.516	18.09
294.73	13.99
294.945	-8.53
295.16	65.19
295.374	20.14
295.589	61.1
295.804	3.75
296.018	44.71
296.233	26.28
296.447	46.76
296.662	13.99
296.877	40.62
297.091	46.76
297.306	63.15
297.52	9.9
297.735	44.71
297.949	32.43
298.164	34.47
298.378	1.71
298.593	11.95
298.807	3.75
299.022	42.67
299.236	3.75
299.451	-10.58
299.665	44.71
299.88	28.33
300.094	28.33
300.309	59.05
300.523	5.8
300.737	63.15
300.952	63.15
301.166	-16.73
301.381	-24.92
301.595	13.99
301.809	20.14
302.024	3.75
302.238	28.33
302.452	18.09
302.667	16.04
302.881	42.67
303.095	44.71
303.309	20.14
303.524	42.67
303.738	16.04
303.952	42.67
304.166	44.71
304.381	16.04
304.595	67.24
304.809	24.23
305.023	50.86
305.237	9.9
305.452	24.23
305.666	18.09
305.88	67.24
306.094	85.67
306.308	-2.39
306.522	24.23
306.736	3.75
306.95	38.57
307.164	44.71
307.379	42.67
307.593	46.76
307.807	77.48
308.021	52.91
308.235	52.91
308.449	36.52
308.663	-35.16
308.877	34.47
309.091	44.71
309.305	75.43
309.519	-18.77
309.733	18.09
309.947	18.09
310.161	48.81
310.374	63.15
310.588	32.43
310.802	18.09
311.016	36.52
311.23	50.86
311.444	13.99
311.658	38.57
311.872	-22.87
312.085	59.05
312.299	93.87
312.513	13.99
312.727	95.91
312.941	16.04
313.154	100.01
313.368	-0.34
313.582	104.11
313.796	34.47
314.009	-22.87
314.223	-26.96
314.437	69.29
314.651	-26.96
314.864	46.76
315.078	71.34
315.292	13.99
315.505	52.91
315.719	-47.44
315.933	-12.63
316.146	30.38
316.36	5.8
316.573	52.91
316.787	83.63
317.001	42.67
317.214	48.81
317.428	59.05
317.641	-37.2
317.855	75.43
318.068	26.28
318.282	57
318.495	85.67
318.709	97.96
318.922	46.76
319.136	102.06
319.349	63.15
319.563	-0.34
319.776	50.86
319.99	28.33
320.203	-53.59
320.417	22.19
320.63	5.8
320.843	24.23
321.057	7.85
321.27	-6.49
321.483	36.52
321.697	16.04
321.91	-4.44
322.124	44.71
322.337	59.05
322.55	100.01
322.763	63.15
322.977	-53.59
323.19	44.71
323.403	13.99
323.617	-20.82
323.83	132.78
324.043	46.76
324.256	18.09
324.469	-20.82
324.683	91.82
324.896	102.06
325.109	-4.44
325.322	9.9
325.535	16.04
325.748	36.52
325.962	73.39
326.175	1.71
326.388	73.39
326.601	22.19
326.814	71.34
327.027	83.63
327.24	83.63
327.453	46.76
327.666	-18.77
327.879	-47.44
328.092	42.67
328.305	59.05
328.518	79.53
328.731	-31.06
328.944	50.86
329.157	57
329.37	16.04
329.583	124.58
329.796	85.67
330.009	20.14
330.222	46.76
330.435	46.76
330.648	54.95
330.861	95.91
331.073	34.47
331.286	38.57
331.499	50.86
331.712	-0.34
331.925	22.19
332.138	91.82
332.35	-47.44
332.563	59.05
332.776	77.48
332.989	50.86
333.202	71.34
333.414	-37.2
333.627	69.29
333.84	32.43
334.053	112.3
334.265	48.81
334.478	52.91
334.691	40.62
334.903	89.77
335.116	-14.68
335.329	61.1
335.541	36.52
335.754	118.44
335.966	1.71
336.179	75.43
336.392	-14.68
336.604	87.72
336.817	-12.63
337.029	9.9
337.242	26.28
337.454	71.34
337.667	3.75
337.88	124.58
338.092	77.48
338.305	61.1
338.517	50.86
338.729	16.04
338.942	36.52
339.154	-22.87
339.367	44.71
339.579	71.34
339.792	28.33
340.004	22.19
340.217	-6.49
340.429	-31.06
340.641	-47.44
340.854	16.04
341.066	18.09
341.278	102.06
341.491	71.34
341.703	75.43
341.915	61.1
342.128	-6.49
342.34	87.72
342.552	59.05
342.764	42.67
342.977	18.09
343.189	-10.58
343.401	9.9
343.613	67.24
343.826	-20.82
344.038	-20.82
344.25	34.47
344.462	-16.73
344.674	77.48
344.886	54.95
345.099	-6.49
345.311	102.06
345.523	79.53
345.735	100.01
345.947	106.15
346.159	-10.58
346.371	-12.63
346.583	59.05
346.795	36.52
347.007	-8.53
347.219	65.19
347.431	59.05
347.643	108.2
347.855	11.95
348.067	73.39
348.279	44.71
348.491	75.43
348.703	9.9
348.915	-6.49
349.127	18.09
349.339	-2.39
349.551	-33.11
349.763	67.24
349.975	-22.87
350.187	42.67
350.399	-12.63
350.61	83.63
350.822	32.43
351.034	9.9
351.246	38.57
351.458	32.43
351.669	1.71
351.881	11.95
352.093	38.57
352.305	46.76
352.517	52.91
352.728	102.06
352.94	7.85
353.152	50.86
353.363	83.63
353.575	16.04
353.787	81.58
353.999	42.67
354.21	32.43
354.422	-14.68
354.633	1.71
354.845	5.8
355.057	59.05
355.268	85.67
355.48	63.15
355.692	63.15
355.903	30.38
356.115	36.52
356.326	61.1
356.538	-31.06
356.749	108.2
356.961	75.43
357.172	50.86
357.384	42.67
357.595	85.67
357.807	13.99
358.018	24.23
358.23	100.01
358.441	63.15
358.653	34.47
358.864	22.19
359.075	50.86
359.287	120.49
359.498	48.81
359.709	7.85
359.921	61.1
360.132	-18.77
360.344	42.67
360.555	75.43
360.766	83.63
360.977	73.39
361.189	61.1
361.4	36.52
361.611	71.34
361.823	67.24
362.034	36.52
362.245	11.95
362.456	28.33
362.667	65.19
362.879	69.29
363.09	20.14
363.301	28.33
363.512	-0.34
363.723	7.85
363.935	42.67
364.146	9.9
364.357	26.28
364.568	9.9
364.779	91.82
364.99	81.58
365.201	-16.73
365.412	71.34
365.623	34.47
365.834	63.15
366.045	59.05
366.256	38.57
366.467	24.23
366.678	7.85
366.889	61.1
367.1	42.67
367.311	26.28
367.522	-4.44
367.733	71.34
367.944	38.57
368.155	50.86
368.366	34.47
368.577	30.38
368.788	67.24
368.999	16.04
369.209	48.81
369.42	16.04
369.631	50.86
369.842	26.28
370.053	40.62
370.264	13.99
370.474	77.48
370.685	77.48
370.896	34.47
371.107	52.91
371.317	85.67
371.528	110.25
371.739	7.85
371.95	71.34
372.16	87.72
372.371	112.3
372.582	67.24
372.792	-10.58
373.003	73.39
373.214	81.58
373.424	-22.87
373.635	59.05
373.846	-6.49
374.056	50.86
374.267	42.67
374.477	85.67
374.688	46.76
374.898	-6.49
375.109	83.63
375.319	-20.82
375.53	81.58
375.74	20.14
375.951	40.62
376.161	26.28
376.372	-31.06
376.582	28.33
376.793	63.15
377.003	42.67
377.214	18.09
377.424	9.9
377.635	28.33
377.845	-31.06
378.055	1.71
378.266	24.23
378.476	46.76
378.686	50.86
378.897	7.85
379.107	57
379.317	124.58
379.528	20.14
379.738	102.06
379.948	5.8
380.158	93.87
380.369	-0.34
380.579	73.39
380.789	42.67
380.999	114.34
381.21	-0.34
381.42	102.06
381.63	-35.16
381.84	69.29
382.05	30.38
382.261	1.71
382.471	75.43
382.681	28.33
382.891	71.34
383.101	67.24
383.311	77.48
383.521	-6.49
383.731	42.67
383.941	67.24
384.151	11.95
384.361	1.71
384.571	18.09
384.781	5.8
384.991	69.29
385.201	28.33
385.411	79.53
385.621	77.48
385.831	110.25
386.041	79.53
386.251	-41.3
386.461	42.67
386.671	9.9
386.881	116.39
387.091	100.01
387.301	81.58
387.511	36.52
387.72	38.57
387.93	63.15
388.14	71.34
388.35	-51.54
388.56	108.2
388.769	48.81
388.979	24.23
389.189	85.67
389.399	59.05
389.609	75.43
389.818	77.48
390.028	63.15
390.238	91.82
390.447	22.19
390.657	38.57
390.867	22.19
391.076	36.52
391.286	79.53
391.496	128.68
391.705	132.78
391.915	110.25
392.125	67.24
392.334	-6.49
392.544	36.52
392.753	52.91
392.963	100.01
393.172	69.29
393.382	11.95
393.591	91.82
393.801	59.05
394.01	71.34
394.22	79.53
394.429	65.19
394.639	52.91
394.848	42.67
395.058	20.14
395.267	79.53
395.477	67.24
395.686	95.91
395.895	87.72
396.105	100.01
396.314	85.67
396.524	138.92
396.733	124.58
396.942	108.2
397.152	104.11
397.361	59.05
397.57	38.57
397.78	9.9
397.989	132.78
398.198	61.1
398.407	3.75
398.617	79.53
398.826	18.09
399.035	50.86
399.244	140.97
399.453	50.86
399.663	28.33
399.872	71.34
400.081	110.25
400.29	155.3
400.499	59.05
400.708	126.63
400.917	81.58
401.127	42.67
401.336	81.58
401.545	177.83
401.754	81.58
401.963	69.29
402.172	124.58
402.381	20.14
402.59	83.63
402.799	126.63
403.008	120.49
403.217	63.15
403.426	100.01
403.635	143.02
403.844	77.48
404.053	87.72
404.262	116.39
404.471	171.69
404.68	77.48
404.888	128.68
405.097	67.24
405.306	145.06
405.515	102.06
405.724	95.91
405.933	136.87
406.142	83.63
406.35	93.87
406.559	114.34
406.768	147.11
406.977	140.97
407.185	138.92
407.394	132.78
407.603	102.06
407.812	155.3
408.02	124.58
408.229	149.16
408.438	173.74
408.646	136.87
408.855	112.3
409.064	149.16
409.272	183.98
409.481	200.36
409.69	124.58
409.898	237.22
410.107	243.37
410.315	218.79
410.524	190.12
410.733	200.36
410.941	204.46
411.15	233.13
411.358	196.26
411.567	249.51
411.775	341.67
411.984	274.09
412.192	325.29
412.401	306.85
412.609	222.89
412.818	308.9
413.026	269.99
413.234	378.53
413.443	337.57
413.651	335.53
413.86	296.61
414.068	300.71
414.276	425.64
414.485	429.73
414.693	370.34
414.901	423.59
415.11	370.34
415.318	478.88
415.526	464.55
415.734	435.88
415.943	495.27
416.151	458.4
416.359	536.23
416.567	525.99
416.776	552.61
416.984	550.56
417.192	603.81
417.4	616.1
417.608	571.04
417.817	648.86
418.025	681.63
418.233	734.88
418.441	659.1
418.649	665.25
418.857	781.98
419.065	724.64
419.273	798.37
419.481	808.61
419.689	941.72
419.897	1050.27
420.105	956.06
420.313	970.4
420.521	960.16
420.729	968.35
420.937	986.78
421.145	1087.13
421.353	1093.27
421.561	1169.05
421.769	1197.72
421.977	1205.91
422.185	1183.38
422.393	1253.02
422.601	1320.6
422.809	1316.5
423.017	1404.57
423.224	1470.1
423.432	1506.96
423.64	1554.07
423.848	1554.07
424.056	1592.98
424.263	1814.16
424.471	1830.54
424.679	1773.2
424.887	1834.64
425.094	1803.92
425.302	1982.09
425.51	1959.56
425.718	1982.09
425.925	2047.63
426.133	2160.27
426.341	2233.99
426.548	2297.48
426.756	2311.82
426.964	2387.59
427.171	2502.28
427.379	2616.96
427.586	2659.97
427.794	2827.9
428.001	2754.18
428.209	3032.7
428.417	2901.63
428.624	3190.39
428.832	3165.82
429.039	3151.48
429.247	3106.43
429.454	3376.76
429.662	3597.94
429.869	3358.33
430.076	3591.8
430.284	3630.71
430.491	3548.79
430.699	3894.9
430.906	4001.39
431.114	4032.11
431.321	4120.17
431.528	4236.91
431.736	4476.52
431.943	4591.2
432.15	4726.37
432.358	4634.21
432.565	4699.75
432.772	4865.63
432.979	4916.83
433.187	5031.52
433.394	5041.76
433.601	5563.99
433.808	5422.68
434.016	5598.81
434.223	5662.29
434.43	5942.86
434.637	5981.78
434.844	6321.74
435.052	6413.9
435.259	6264.4
435.466	6301.26
435.673	6338.12
435.88	6809.15
436.087	7061.05
436.294	7136.83
436.501	7007.81
436.708	7061.05
436.915	7427.64
437.122	7755.32
437.329	7616.05
437.537	7927.35
437.743	8152.62
437.95	7921.2
438.157	8578.6
438.364	8611.37
438.571	8945.19
438.778	8594.98
438.985	9455.13
439.192	9186.85
439.399	9301.53
439.606	9127.46
439.813	9725.46
440.02	10208.78
440.227	10259.98
440.433	9879.06
440.64	10296.85
440.847	10259.98
441.054	10399.24
441.261	11105.79
441.467	10999.3
441.674	11425.28
441.881	11785.72
442.088	11525.63
442.294	11611.64
442.501	11867.64
442.708	12129.78
442.914	12707.3
443.121	13211.11
443.328	12623.34
443.534	13813.21
443.741	13233.63
443.948	13000.16
444.154	14040.53
444.361	13911.51
444.568	13839.83
444.774	14128.6
444.981	14190.03
445.187	14708.17
445.394	15308.23
445.6	15214.02
445.807	16567.73
446.013	15857.08
446.22	16104.88
446.426	16831.91
446.633	16811.43
446.839	17554.85
447.046	16586.16
447.252	17751.45
447.459	17634.72
447.665	17460.64
447.871	18345.36
448.078	19406.21
448.284	18453.91
448.491	18634.13
448.697	19420.55
448.903	19772.8
449.11	19914.11
449.316	19721.6
449.522	19907.96
449.728	20557.17
449.935	20643.18
450.141	20624.75
450.347	21067.11
450.553	20575.6
450.76	20546.93
450.966	21392.74
451.172	21378.4
451.378	21517.67
451.584	21261.67
451.791	21607.78
451.997	21618.02
452.203	22017.37
452.409	21992.8
452.615	21671.26
452.821	20985.19
453.027	20815.21
453.233	21699.94
453.44	20831.6
453.646	21321.06
453.852	21581.15
454.058	21564.77
454.264	21067.11
454.47	21523.81
454.676	20960.62
454.882	21505.38
455.088	19799.42
455.294	20206.97
455.5	20407.67
455.705	20454.77
455.911	19858.81
456.117	19385.73
456.323	19240.33
456.529	18050.46
456.735	18800.01
456.941	18138.52
457.147	18034.07
457.352	17522.08
457.558	17483.17
457.764	17288.61
457.97	16969.13
458.176	16453.04
458.381	16879.02
458.587	15705.53
458.793	15795.64
458.999	15087.04
459.204	16051.64
459.41	15486.4
459.616	14632.4
459.821	14742.99
460.027	14534.09
460.233	14493.13
460.438	13659.61
460.644	13907.41
460.85	12963.3
461.055	12830.18
461.261	13045.22
461.466	12043.76
461.672	11503.1
461.878	12484.08
462.083	11421.18
462.289	11302.4
462.494	11415.04
462.7	10948.1
462.905	10423.82
463.111	11109.89
463.316	10888.71
463.522	10849.8
463.727	10909.19
463.932	10810.89
464.138	10745.35
464.343	10743.3
464.549	10358.28
464.754	10704.39
464.959	10640.9
465.165	10546.7
465.37	10024.47
465.575	10112.53
465.781	10186.26
465.986	10161.68
466.191	9791
466.397	9774.61
466.602	9485.85
466.807	9598.49
467.012	9602.58
467.218	9719.32
467.423	9491.99
467.628	9661.98
467.833	10092.05
468.038	9606.68
468.244	9319.96
468.449	9539.1
468.654	9563.67
468.859	9473.56
469.064	9309.72
469.269	8916.51
469.474	8908.32
469.679	9025.06
469.885	8916.51
470.09	8846.88
470.295	8943.14
470.5	8762.92
470.705	8883.75
470.91	8693.29
471.115	8568.36
471.32	8652.33
471.525	8767.01
471.73	8611.37
471.935	8228.4
472.139	8019.5
472.344	8113.71
472.549	8136.24
472.754	8005.17
472.959	7693.88
473.164	7738.93
473.369	7724.6
473.574	7984.69
473.778	7759.41
473.983	7738.93
474.188	7620.15
474.393	7607.86
474.598	7358.01
474.802	7173.69
475.007	7312.96
475.212	7433.79
475.417	6843.97
475.621	7120.45
475.826	6872.64
476.031	6979.14
476.235	6735.43
476.44	6741.57
476.645	6702.66
476.849	6790.72
477.054	6620.74
477.259	6579.78
477.463	6440.52
477.668	6338.12
477.872	6350.41
478.077	6448.71
478.282	6221.39
478.486	6356.55
478.691	6088.27
478.895	6137.42
479.1	6174.28
479.304	6008.4
479.509	5912.14
479.713	6026.83
479.918	5652.05
480.122	5987.92
480.326	5989.97
480.531	6047.31
480.735	5719.64
480.94	5717.59
481.144	6045.26
481.348	5752.4
481.553	5910.1
481.757	5662.29
481.961	5926.48
482.166	5807.7
482.37	5832.27
482.574	5598.81
482.778	5707.35
482.983	5701.2
483.187	5686.87
483.391	5707.35
483.595	5762.64
483.8	5693.01
484.004	5721.68
484.208	5703.25
484.412	5613.14
484.616	5711.44
484.821	5596.76
485.025	5658.2
485.229	5686.87
485.433	5736.02
485.637	5772.88
485.841	5727.83
486.045	5674.58
486.249	5766.74
486.453	5607
486.657	5660.24
486.861	5668.44
487.065	5641.81
487.269	5662.29
487.473	5607
487.677	5811.79
487.881	5875.28
488.085	5723.73
488.289	5920.34
488.493	5795.41
488.697	5748.31
488.901	5752.4
489.105	5633.62
489.309	5817.94
489.512	5783.12
489.716	5875.28
489.92	5690.96
490.124	5916.24
490.328	5897.81
490.531	5766.74
490.735	5959.25
490.939	5916.24
491.143	5920.34
491.346	5887.57
491.55	5981.78
491.754	6092.37
491.958	6080.08
492.161	5965.39
492.365	6082.13
492.569	6164.04
492.772	6030.93
492.976	6078.03
493.18	6219.34
493.383	6243.92
493.587	6305.35
493.79	6348.36
493.994	6291.02
494.197	6372.94
494.401	6383.18
494.605	6483.53
494.808	6628.93
495.012	6469.19
495.215	6540.87
495.419	6776.39
495.622	6663.75
495.825	6874.69
496.029	6819.39
496.232	7030.34
496.436	6942.27
496.639	7018.05
496.843	7145.02
497.046	7210.56
497.249	7308.86
497.453	7312.96
497.656	7458.36
497.859	7444.03
498.063	7394.87
498.266	7687.73
498.469	7724.6
498.673	7757.36
498.876	7632.44
499.079	8099.38
499.282	7947.83
499.485	8087.09
499.689	8205.87
499.892	8396.33
500.095	8242.73
500.298	8590.89
500.501	8582.7
500.705	8791.59
500.908	8920.61
501.111	8881.7
501.314	8891.94
501.517	9070.11
501.72	8988.19
501.923	9244.19
502.126	9565.72
502.329	9240.09
502.532	9709.08
502.735	9778.71
502.938	9913.88
503.141	9852.44
503.344	9965.07
503.547	10247.69
503.75	10233.36
503.953	10391.05
504.156	10597.9
504.359	10667.53
504.562	10776.07
504.765	11027.97
504.968	11265.53
505.17	11042.31
505.373	11177.47
505.576	11601.4
505.779	11406.84
505.982	11580.92
506.185	12094.96
506.387	12068.34
506.59	12035.57
506.793	12344.81
506.996	12459.5
507.198	12789.22
507.401	12494.32
507.604	12914.15
507.807	13159.91
508.009	13198.82
508.212	13280.74
508.415	13290.98
508.617	13739.48
508.82	13614.55
509.022	13817.3
509.225	13962.71
509.428	14177.75
509.63	14267.86
509.833	14454.22
510.035	14716.36
510.238	14876.1
510.44	15128
510.643	15097.28
510.845	15185.35
511.048	15297.99
511.25	15693.24
511.453	15568.32
511.655	16432.56
511.858	16448.94
512.06	16108.98
512.262	16549.29
512.465	16399.79
512.667	16756.14
512.87	16985.51
513.072	17116.58
513.274	17427.87
513.477	17839.51
513.679	17933.72
513.881	18027.93
514.084	18101.65
514.286	18544.02
514.488	18318.74
514.69	19037.58
514.893	18871.69
515.095	19148.17
515.297	19506.56
515.499	19684.73
515.701	19770.75
515.904	20274.55
516.106	20419.96
516.308	20415.86
516.51	20843.88
516.712	20731.25
516.914	21034.35
517.116	21228.9
517.318	21280.1
517.52	21368.16
517.722	21769.57
517.925	22250.84
518.127	22363.48
518.329	22588.75
518.531	22531.41
518.733	22924.62
518.935	23137.61
519.136	23397.7
519.338	23407.94
519.54	23596.35
519.742	23907.65
519.944	24335.67
520.146	24239.42
520.348	24563
520.55	24925.49
520.752	25029.93
520.954	25222.44
521.155	25169.19
521.357	25550.12
521.559	25761.06
521.761	26139.93
521.963	26311.96
522.164	26350.87
522.366	26862.86
522.568	27038.99
522.77	26856.72
522.971	27450.63
523.173	27198.73
523.375	27747.59
523.576	27661.57
523.778	27747.59
523.98	28038.4
524.181	27974.91
524.383	28431.61
524.584	28710.13
524.786	28554.49
524.988	28663.03
525.189	29095.15
525.391	29275.37
525.592	29334.76
525.794	29453.55
525.995	29347.05
526.197	29857
526.398	29959.39
526.6	30127.33
526.801	30069.98
527.003	30373.08
527.204	30373.08
527.406	30481.63
527.607	30469.34
527.808	31001.81
528.01	30571.74
528.211	30622.94
528.412	31417.55
528.614	31284.43
528.815	31108.3
529.016	31581.38
529.218	31222.99
529.419	31171.79
529.62	31610.06
529.822	31507.66
530.023	31945.92
530.224	31931.59
530.425	31900.87
530.626	31587.53
530.828	31739.08
531.029	32038.08
531.23	31849.67
531.431	31888.58
531.632	32130.24
531.833	32398.52
532.035	32195.78
532.236	32386.24
532.437	32887.99
532.638	32062.66
532.839	32486.59
533.04	32890.04
533.241	32308.41
533.442	32873.65
533.643	32681.14
533.844	32726.2
534.045	32793.78
534.246	32324.8
534.447	33162.42
534.648	32677.05
534.849	32752.82
535.05	32582.84
535.251	32937.14
535.451	32765.11
535.652	32818.36
535.853	32859.32
536.054	32748.73
536.255	32978.1
536.456	32459.96
536.657	33186.99
536.857	32462.01
537.058	32353.47
537.259	33019.06
537.46	33201.33
537.66	32828.6
537.861	32705.72
538.062	32887.99
538.263	32922.8
538.463	32613.56
538.664	32814.26
538.865	33146.03
539.065	32994.48
539.266	32875.7
539.466	33174.7
539.667	32873.65
539.868	33379.5
540.068	33105.07
540.269	33002.68
540.469	33096.88
540.67	32586.94
540.87	32924.85
541.071	32951.48
541.271	32707.77
541.472	33094.83
541.672	32752.82
541.873	32330.94
542.073	32703.67
542.274	32994.48
542.474	32978.1
542.675	32386.24
542.875	33180.85
543.075	33006.77
543.276	32646.33
543.476	33281.2
543.676	32867.51
543.877	33240.24
544.077	32947.38
544.277	32912.56
544.478	32898.23
544.678	33086.64
544.878	32820.41
545.078	32783.54
545.279	32799.93
545.479	32908.47
545.679	32836.79
545.879	32978.1
546.079	32959.67
546.28	33072.31
546.48	32629.94
546.68	32863.41
546.88	33053.87
547.08	32978.1
547.28	32711.86
547.48	32804.02
547.68	33201.33
547.88	32744.63
548.081	33019.06
548.281	32824.5
548.481	32971.96
548.681	33303.73
548.881	32978.1
549.081	32564.41
549.28	33025.2
549.48	33062.07
549.68	32515.26
549.88	33463.47
550.08	32638.14
550.28	33123.51
550.48	32939.19
550.68	33209.52
550.88	32515.26
551.08	32844.98
551.279	32804.02
551.479	32984.24
551.679	32898.23
551.879	32773.3
552.079	32869.56
552.278	32742.58
552.478	32777.4
552.678	32634.04
552.878	32775.35
553.077	32621.75
553.277	32672.95
553.477	32988.34
553.676	32871.61
553.876	32707.77
554.076	32947.38
554.275	32597.18
554.475	32273.6
554.674	32935.09
554.874	32472.25
555.074	32384.19
555.273	32355.52
555.473	32466.11
555.672	32472.25
555.872	32238.78
556.071	32439.48
556.271	32275.65
556.47	32163.01
556.67	32519.35
556.869	32367.8
557.068	32349.37
557.268	32312.51
557.467	32185.54
557.667	32218.3
557.866	32347.33
558.065	31909.06
558.265	31972.55
558.464	31734.98
558.663	32117.95
558.863	31679.69
559.062	32380.09
559.261	31589.58
559.461	32214.21
559.66	31696.07
559.859	31972.55
560.058	31804.61
560.258	31771.85
560.457	31470.79
560.656	31833.28
560.855	31626.44
561.054	31417.55
561.253	31298.77
561.453	31704.26
561.652	31315.15
561.851	31517.9
562.05	31497.42
562.249	31122.64
562.448	31476.94
562.647	31204.56
562.846	31231.18
563.045	31212.75
563.244	31079.63
563.443	31278.29
563.642	30794.96
563.841	30704.85
564.04	30784.72
564.239	31202.51
564.438	30643.42
564.637	30973.14
564.836	30758.1
565.035	30641.37
565.234	30760.15
565.432	30641.37
565.631	30205.15
565.83	30622.94
566.029	30387.42
566.228	30127.33
566.427	30366.94
566.625	30246.11
566.824	29615.33
567.023	30166.24
567.222	29768.93
567.42	30307.55
567.619	30211.29
567.818	29678.82
568.016	29963.49
568.215	30063.84
568.414	30002.4
568.612	29803.75
568.811	29523.18
569.01	29773.03
569.208	29408.49
569.407	29271.28
569.605	29431.02
569.804	29736.16
570.002	29105.39
570.201	29281.52
570.4	28765.43
570.598	28863.73
570.797	29005.04
570.995	28790
571.193	28583.16
571.392	29123.82
571.59	28564.73
571.789	28429.56
571.987	28443.9
572.186	28343.55
572.384	28361.98
572.582	28525.82
572.781	28378.36
572.979	27794.69
573.177	28335.35
573.376	28384.51
573.574	27804.93
573.772	27862.27
573.971	27741.44
574.169	27677.96
574.367	27886.85
574.565	27661.57
574.763	27589.89
574.962	27391.24
575.16	27258.12
575.358	27374.86
575.556	27217.16
575.754	27254.03
575.952	27233.55
576.151	27389.19
576.349	27272.46
576.547	26653.97
576.745	26924.3
576.943	26649.88
577.141	26668.31
577.339	26752.27
577.537	26465.56
577.735	26352.92
577.933	26381.59
578.131	26328.34
578.329	26031.39
578.527	26440.98
578.725	26158.36
578.923	26227.99
579.121	25935.13
579.319	25877.79
579.516	26297.63
579.714	25814.3
579.912	25838.88
580.11	25324.84
580.308	25640.23
580.506	25343.27
580.704	25031.98
580.901	25828.64
581.099	25453.86
581.297	25146.67
581.495	25060.65
581.692	25392.42
581.89	25087.28
582.088	25236.78
582.285	25056.56
582.483	25230.63
582.681	24950.06
582.878	24642.87
583.076	24515.89
583.274	25070.89
583.471	24421.69
583.669	24620.34
583.866	24403.25
584.064	24694.07
584.262	24319.29
584.459	24431.93
584.657	24102.2
584.854	24446.26
585.052	23967.04
585.249	24100.15
585.447	23924.03
585.644	23455.04
585.841	23885.12
586.039	23582.02
586.236	23524.68
586.434	23512.39
586.631	23725.38
586.828	23467.33
587.026	23625.03
587.223	23385.41
587.42	23401.8
587.618	23633.22
587.815	23373.13
588.012	23168.33
588.21	23006.54
588.407	23323.97
588.604	22693.2
588.801	22838.61
588.999	22656.34
589.196	22484.31
589.393	22787.41
589.59	22441.3
589.787	22580.56
589.984	22492.5
590.182	22498.64
590.379	22527.31
590.576	22209.88
590.773	22193.5
590.97	21990.75
591.167	22132.06
591.364	21951.84
591.561	22084.95
591.758	21898.59
591.955	21618.02
592.152	22291.8
592.349	21949.79
592.546	21374.31
592.743	21767.52
592.94	21550.43
593.137	21722.46
593.334	21638.5
593.531	21171.56
593.727	21382.5
593.924	21380.45
594.121	21058.92
594.318	21355.88
594.515	21005.67
594.712	21185.9
594.908	20993.39
595.105	21187.94
595.302	20800.88
595.499	20731.25
595.696	20749.68
595.892	20766.06
596.089	20817.26
596.286	20548.98
596.482	20325.75
596.679	20428.15
596.876	20342.13
597.072	20252.02
597.269	20301.17
597.466	20110.71
597.662	20161.91
597.859	20292.98
598.055	20362.61
598.252	19983.74
598.448	19912.06
598.645	19928.44
598.841	19654.01
599.038	19850.62
599.234	19873.15
599.431	19436.93
599.627	19367.3
599.824	19840.38
600.02	19379.59
600.217	19336.58
600.413	19580.29
600.609	19242.37
600.806	19230.09
601.002	19455.36
601.198	19357.06
601.395	18845.07
601.591	18836.88
601.787	18947.47
601.984	18849.16
602.18	18945.42
602.376	18761.1
602.572	18576.78
602.769	18845.07
602.965	18646.41
603.161	18695.57
603.357	18535.82
603.553	18380.18
603.75	18552.21
603.946	18249.11
604.142	18392.47
604.338	18003.35
604.534	18113.94
604.73	17921.43
604.926	18269.59
605.122	18134.42
605.318	17868.19
605.514	17952.15
605.71	17819.03
605.906	18040.22
606.102	17700.25
606.298	17481.12
606.494	17868.19
606.69	17878.43
606.886	17350.05
607.082	17446.3
607.278	17714.59
607.474	17378.72
607.67	17354.15
607.866	17106.34
608.062	17264.04
608.257	17376.67
608.453	17008.04
608.649	17264.04
608.845	17040.81
609.041	17237.41
609.236	17014.18
609.432	17206.69
609.628	16817.58
609.824	16854.44
610.019	16721.32
610.215	16608.69
610.411	16938.41
610.606	16565.68
610.802	16475.57
610.998	16672.17
611.193	16721.32
611.389	16377.26
611.584	16526.77
611.78	16561.58
611.976	16483.76
612.171	16330.16
612.367	16444.85
612.562	16139.7
612.758	15988.15
612.953	15994.29
613.149	15973.81
613.344	15904.18
613.539	16291.25
613.735	15963.58
613.93	16098.74
614.126	15916.47
614.321	16031.16
614.517	16002.49
614.712	15844.79
614.907	15611.32
615.103	15680.96
615.298	15836.6
615.493	15803.83
615.688	15287.75
615.884	15963.58
616.079	15611.32
616.274	15728.06
616.47	15603.13
616.665	15451.58
616.86	15181.25
617.055	15361.47
617.25	15097.28
617.445	15551.93
617.641	15199.68
617.836	15177.16
618.031	15013.32
618.226	15289.79
618.421	15068.61
618.616	14919.11
618.811	15029.7
619.006	15197.63
619.201	14771.66
619.396	14525.9
619.591	14712.27
619.786	14912.97
619.981	14484.94
620.176	14742.99
620.371	14376.4
620.566	14388.69
620.761	14394.83
620.956	14185.94
621.151	14007.76
621.346	14400.97
621.541	13927.89
621.735	14259.67
621.93	13999.57
622.125	14142.93
622.32	13749.72
622.515	13891.03
622.709	13528.54
622.904	13809.11
623.099	13508.06
623.294	13606.36
623.488	13454.81
623.683	13475.29
623.878	13350.37
624.072	13192.67
624.267	12963.3
624.462	13374.94
624.656	12979.68
624.851	13086.18
625.046	12854.76
625.24	13037.03
625.435	12760.55
625.629	12813.8
625.824	12674.54
626.018	12557.8
626.213	12504.56
626.407	12379.63
626.602	12250.61
626.796	12576.23
626.991	12234.22
627.185	12088.82
627.38	11949.56
627.574	12260.85
627.768	11904.5
627.963	11855.35
628.157	11795.96
628.352	11994.61
628.546	11628.03
628.74	11701.75
628.935	11511.29
629.129	11699.7
629.323	11249.15
629.517	11419.13
629.712	11240.96
629.906	11116.03
630.1	11427.32
630.294	11300.35
630.489	10968.58
630.683	11343.36
630.877	10980.87
631.071	11079.17
631.265	11097.6
631.459	10987.01
631.653	10759.69
631.848	10690.06
632.042	10565.13
632.236	10655.24
632.43	10526.22
632.624	10728.97
632.818	10626.57
633.012	10421.77
633.206	10323.47
633.4	10466.83
633.594	10114.58
633.788	10257.93
633.982	10272.27
634.176	10100.24
634.369	9958.93
634.563	9991.7
634.757	10081.81
634.951	10051.09
635.145	9948.69
635.339	9909.78
635.533	9854.48
635.726	9819.67
635.92	9573.91
636.114	9528.86
636.308	9563.67
636.501	9467.42
636.695	9559.58
636.889	9340.44
637.083	9365.02
637.276	9258.53
637.47	9578.01
637.664	9266.72
637.857	9264.67
638.051	9115.17
638.244	9072.16
638.438	9080.35
638.632	9160.22
638.825	8869.41
639.019	9070.11
639.212	8754.73
639.406	8789.54
639.599	8801.83
639.793	8721.96
639.986	8513.06
640.18	8814.12
640.373	8515.11
640.567	8461.87
640.76	8416.81
640.954	8488.49
641.147	8480.3
641.34	8402.47
641.534	8357.42
641.727	8242.73
641.92	8238.64
642.114	8097.33
642.307	8019.5
642.5	8156.72
642.694	7923.25
642.887	8031.79
643.08	8001.07
643.273	7894.58
643.467	7945.78
643.66	7757.36
643.853	7788.08
644.046	7652.92
644.239	7609.91
644.432	7669.3
644.626	7562.81
644.819	7345.72
645.012	7493.18
645.205	7620.15
645.398	7484.98
645.591	7472.7
645.784	7265.85
645.977	7306.81
646.17	7394.87
646.363	7157.31
646.556	7261.76
646.749	7185.98
646.942	7192.12
647.135	6981.18
647.328	6970.94
647.521	6874.69
647.714	6948.42
647.907	6932.03
648.099	6876.74
648.292	6950.46
648.485	6755.91
648.678	6729.28
648.871	6649.41
649.064	6571.59
649.256	6651.46
649.449	6630.98
649.642	6489.67
649.835	6747.72
650.027	6491.72
650.22	6331.98
650.413	6319.69
650.605	6323.79
650.798	6129.23
650.991	6198.86
651.183	6334.03
651.376	6192.72
651.568	6215.24
651.761	6188.62
651.954	6075.98
652.146	6080.08
652.339	5955.15
652.531	5957.2
652.724	5883.47
652.916	5809.75
653.109	5879.38
653.301	5916.24
653.494	5795.41
653.686	5643.86
653.879	6018.64
654.071	5883.47
654.263	5688.92
654.456	5705.3
654.648	5846.61
654.84	5584.47
655.033	5731.92
655.225	5717.59
655.417	5500.5
655.61	5609.05
655.802	5482.07
655.994	5418.58
656.186	5408.34
656.379	5277.27
656.571	5463.64
656.763	5080.67
656.955	5230.17
657.148	5324.38
657.34	5217.88
657.532	5062.24
657.724	5002.85
657.916	5115.48
658.108	5015.13
658.3	5133.92
658.492	4912.74
658.684	4910.69
658.876	4978.27
659.068	4922.98
659.26	4820.58
659.452	4947.55
659.644	4765.28
659.836	4650.6
660.028	4767.33
660.22	4752.99
660.412	4720.23
660.604	4736.61
660.796	4814.43
660.988	4607.59
661.18	4617.83
661.372	4664.93
661.563	4583.01
661.755	4427.37
661.947	4603.49
662.139	4494.95
662.331	4357.74
662.522	4353.64
662.714	4406.89
662.906	4415.08
663.097	4370.02
663.289	4329.06
663.481	4210.28
663.673	4228.71
663.864	4171.37
664.056	4150.89
664.247	4294.25
664.439	4306.54
664.631	4255.34
664.822	4097.64
665.014	4064.88
665.205	4120.17
665.397	4007.53
665.588	4015.73
665.78	3950.19
665.971	3933.81
666.163	3913.33
666.354	4064.88
666.546	3946.09
666.737	3831.41
666.929	3970.67
667.12	3982.96
667.311	3946.09
667.503	3647.09
667.694	3851.89
667.885	3698.29
668.077	3835.5
668.268	3753.59
668.459	3673.71
668.651	3698.29
668.842	3784.3
669.033	3575.41
669.224	3708.53
669.416	3651.19
669.607	3669.62
669.798	3411.57
669.989	3511.93
670.18	3532.4
670.371	3548.79
670.563	3423.86
670.754	3569.27
670.945	3518.07
671.136	3577.46
671.327	3497.59
671.518	3284.6
671.709	3272.31
671.9	3513.97
672.091	3384.95
672.282	3499.64
672.473	3485.3
672.664	3434.1
672.855	3206.78
673.046	3413.62
673.237	3343.99
673.428	3233.4
673.619	3249.79
673.809	3212.92
674	3237.5
674.191	3225.21
674.382	3176.06
674.573	3235.45
674.764	3165.82
674.954	3171.96
675.145	3024.51
675.336	3165.82
675.527	3194.49
675.717	3165.82
675.908	3075.71
676.099	3040.89
676.289	3065.47
676.48	2985.6
676.671	3069.56
676.861	3114.62
677.052	3008.12
677.243	2909.82
677.433	3026.56
677.624	2928.25
677.814	2967.17
678.005	2913.92
678.195	2999.93
678.386	2979.45
678.576	2905.73
678.767	2852.48
678.957	2911.87
679.148	2991.74
679.338	2811.52
679.529	2930.3
679.719	2879.1
679.909	2809.47
680.1	2926.21
680.29	2848.38
680.481	2780.8
680.671	2844.29
680.861	2762.37
681.052	2797.18
681.242	2805.38
681.432	2838.14
681.622	2776.7
681.813	2766.46
682.003	2809.47
682.193	2676.35
682.383	2637.44
682.573	2696.83
682.764	2778.75
682.954	2739.84
683.144	2723.46
683.334	2778.75
683.524	2619.01
683.714	2702.98
683.904	2711.17
684.094	2764.42
684.284	2623.11
684.474	2623.11
684.664	2717.31
684.854	2674.31
685.044	2641.54
685.234	2600.58
685.424	2500.23
685.614	2619.01
685.804	2619.01
685.994	2619.01
686.184	2573.96
686.374	2625.15
686.564	2578.05
686.753	2600.58
686.943	2473.6
687.133	2559.62
687.323	2598.53
687.513	2537.09
687.702	2571.91
687.892	2514.56
688.082	2496.13
688.272	2545.28
688.461	2500.23
688.651	2600.58
688.841	2516.61
689.03	2473.6
689.22	2537.09
689.41	2442.89
689.599	2522.76
689.789	2563.72
689.979	2524.8
690.168	2553.48
690.358	2545.28
690.547	2346.63
690.737	2471.56
690.926	2471.56
691.116	2324.1
691.305	2375.3
691.495	2430.6
691.684	2422.41
691.874	2371.21
692.063	2352.77
692.252	2395.78
692.442	2385.54
692.631	2535.04
692.82	2494.08
693.01	2444.93
693.199	2406.02
693.388	2393.73
693.578	2363.01
693.767	2352.77
693.956	2365.06
694.146	2444.93
694.335	2336.39
694.524	2426.5
694.713	2336.39
694.902	2453.13
695.092	2385.54
695.281	2424.45
695.47	2440.84
695.659	2459.27
695.848	2373.25
696.037	2340.49
696.226	2406.02
696.415	2303.62
696.604	2383.49
696.793	2199.18
696.982	2381.45
697.171	2375.3
697.36	2459.27
697.549	2352.77
697.738	2360.97
697.927	2385.54
698.116	2399.88
698.305	2354.82
698.494	2238.09
698.683	2297.48
698.872	2336.39
699.061	2311.82
699.25	2305.67
699.438	2303.62
699.627	2158.22
699.816	2231.94
700.005	2221.7
700.193	2223.75
700.382	2279.05
700.571	2143.88
700.76	2281.1
700.948	2270.86
701.137	2344.58
701.326	2305.67
701.514	2303.62
701.703	2393.73
701.892	2213.51
702.08	2264.71
702.269	2186.89
702.457	2176.65
702.646	2262.66
702.834	2254.47
703.023	2205.32
703.212	2195.08
703.4	2264.71
703.589	2207.37
703.777	2143.88
703.965	2129.55
704.154	2225.8
704.342	2217.61
704.531	2262.66
704.719	2100.87
704.907	2102.92
705.096	2211.46
705.284	2084.49
705.472	2291.34
705.661	2100.87
705.849	2205.32
706.037	2147.98
706.226	2158.22
706.414	2215.56
706.602	2074.25
706.79	2131.59
706.979	2070.16
707.167	2078.35
707.355	2033.29
707.543	2045.58
707.731	2094.73
707.919	2086.54
708.107	2094.73
708.296	1982.09
708.484	2078.35
708.672	2051.72
708.86	2041.48
709.048	2037.39
709.236	2094.73
709.424	2064.01
709.612	1943.18
709.8	2004.62
709.988	2041.48
710.176	1922.7
710.364	2027.15
710.551	2098.83
710.739	2055.82
710.927	1912.46
711.115	1986.19
711.303	2057.87
711.491	1894.03
711.679	1928.85
711.866	1951.37
712.054	1879.69
712.242	2012.81
712.43	1879.69
712.617	1826.45
712.805	1848.97
712.993	1904.27
713.181	1863.31
713.368	1953.42
713.556	1914.51
713.744	1797.78
713.931	1838.73
714.119	1877.65
714.306	1787.54
714.494	1793.68
714.682	1863.31
714.869	1828.49
715.057	1742.48
715.244	1756.82
715.432	1781.39
715.619	1795.73
715.807	1799.82
715.994	1783.44
716.182	1746.58
716.369	1701.52
716.556	1660.56
716.744	1703.57
716.931	1701.52
717.119	1740.43
717.306	1801.87
717.493	1799.82
717.681	1609.36
717.868	1664.66
718.055	1644.18
718.242	1664.66
718.43	1691.28
718.617	1590.93
718.804	1623.7
718.991	1580.69
719.179	1754.77
719.366	1572.5
719.553	1810.06
719.74	1619.6
719.927	1597.07
720.114	1588.88
720.301	1744.53
720.488	1640.08
720.676	1578.64
720.863	1617.55
721.05	1521.3
721.237	1556.11
721.424	1560.21
721.611	1609.36
721.798	1547.92
721.985	1509.01
722.172	1590.93
722.358	1492.63
722.545	1570.45
722.732	1509.01
722.919	1552.02
723.106	1580.69
723.293	1445.52
723.48	1457.81
723.667	1560.21
723.853	1482.39
724.04	1478.29
724.227	1513.11
724.414	1478.29
724.6	1543.83
724.787	1367.7
724.974	1406.61
725.161	1414.81
725.347	1412.76
725.534	1394.33
725.72	1451.67
725.907	1457.81
726.094	1488.53
726.28	1384.09
726.467	1312.41
726.653	1435.28
726.84	1404.57
727.027	1398.42
727.213	1298.07
727.4	1437.33
727.586	1336.98
727.773	1320.6
727.959	1410.71
728.145	1363.61
728.332	1347.22
728.518	1328.79
728.705	1379.99
728.891	1367.7
729.077	1308.31
729.264	1359.51
729.45	1365.65
729.636	1312.41
729.823	1330.84
730.009	1312.41
730.195	1287.83
730.382	1345.17
730.568	1271.45
730.754	1277.59
730.94	1283.74
731.126	1242.78
731.313	1332.89
731.499	1283.74
731.685	1310.36
731.871	1187.48
732.057	1236.63
732.243	1296.02
732.429	1142.43
732.615	1220.25
732.801	1232.54
732.987	1181.34
733.173	1265.3
733.359	1181.34
733.545	1171.1
733.731	1199.77
733.917	1230.49
734.103	1238.68
734.289	1246.87
734.475	1195.67
734.661	1283.74
734.847	1203.86
735.033	1142.43
735.219	1203.86
735.404	1195.67
735.59	1191.58
735.776	1195.67
735.962	1150.62
736.148	1169.05
736.333	1109.66
736.519	1173.14
736.705	1101.47
736.89	1179.29
737.076	1193.62
737.262	1183.38
737.447	1107.61
737.633	1222.3
737.819	1085.08
738.004	1103.51
738.19	1183.38
738.375	1115.8
738.561	1091.23
738.747	1148.57
738.932	1093.27
739.118	1058.46
739.303	1199.77
739.489	1117.85
739.674	1093.27
739.859	1095.32
740.045	1056.41
740.23	1050.27
740.416	1111.71
740.601	994.97
740.786	1060.51
740.972	966.3
741.157	1076.89
741.342	1050.27
741.528	1066.65
741.713	994.97
741.898	1017.5
742.084	976.54
742.269	904.86
742.454	863.9
742.639	1035.93
742.824	997.02
743.01	1017.5
743.195	966.3
743.38	911
743.565	962.2
743.75	1011.36
743.935	1119.9
744.12	1025.69
744.305	925.34
744.49	960.16
744.675	984.73
744.86	927.39
745.045	943.77
745.23	872.09
745.415	988.83
745.6	980.64
745.785	882.33
745.97	1011.36
746.155	927.39
746.34	960.16
746.525	861.85
746.71	941.72
746.895	931.48
747.079	861.85
747.264	894.62
747.449	771.74
747.634	911
747.819	870.05
748.003	888.48
748.188	853.66
748.373	863.9
748.557	759.46
748.742	878.24
748.927	806.56
749.111	851.61
749.296	816.8
749.481	855.71
749.665	784.03
749.85	788.13
750.034	788.13
750.219	827.04
750.404	804.51
750.588	777.89
750.773	698.02
750.957	804.51
751.141	781.98
751.326	806.56
751.51	698.02
751.695	741.02
751.879	706.21
752.064	747.17
752.248	702.11
752.432	802.46
752.617	698.02
752.801	767.65
752.985	665.25
753.17	810.65
753.354	691.87
753.538	763.55
753.722	693.92
753.907	702.11
754.091	714.4
754.275	722.59
754.459	634.53
754.643	741.02
754.828	716.45
755.012	712.35
755.196	632.48
755.38	673.44
755.564	577.19
755.748	726.69
755.932	704.16
756.116	626.34
756.3	700.06
756.484	681.63
756.668	636.58
756.852	609.95
757.036	554.66
757.22	663.2
757.404	691.87
757.588	562.85
757.772	605.86
757.956	571.04
758.14	583.33
758.323	552.61
758.507	618.15
758.691	499.36
758.875	626.34
759.059	577.19
759.242	534.18
759.426	581.28
759.61	599.71
759.794	634.53
759.977	587.43
760.161	689.82
760.345	605.86
760.528	534.18
760.712	550.56
760.895	558.75
761.079	599.71
761.263	501.41
761.446	540.32
761.63	528.03
761.813	534.18
761.997	560.8
762.18	556.71
762.364	509.6
762.547	521.89
762.731	507.55
762.914	573.09
763.098	497.32
763.281	493.22
763.464	523.94
763.648	487.08
763.831	444.07
764.015	505.51
764.198	550.56
764.381	462.5
764.564	458.4
764.748	525.99
764.931	501.41
765.114	536.23
765.297	482.98
765.481	528.03
765.664	419.49
765.847	458.4
766.03	437.92
766.213	542.37
766.397	468.64
766.58	542.37
766.763	456.36
766.946	505.51
767.129	499.36
767.312	456.36
767.495	462.5
767.678	495.27
767.861	528.03
768.044	478.88
768.227	501.41
768.41	435.88
768.593	536.23
768.776	415.4
768.959	493.22
769.142	489.12
769.324	458.4
769.507	456.36
769.69	419.49
769.873	452.26
770.056	448.16
770.239	493.22
770.421	423.59
770.604	423.59
770.787	476.84
770.97	423.59
771.152	468.64
771.335	444.07
771.518	501.41
771.7	470.69
771.883	392.87
772.066	456.36
772.248	456.36
772.431	411.3
772.613	378.53
772.796	358.05
772.978	501.41
773.161	413.35
773.343	394.92
773.526	448.16
773.708	403.11
773.891	313
774.073	374.44
774.256	452.26
774.438	421.54
774.621	386.72
774.803	435.88
774.985	335.53
775.168	435.88
775.35	429.73
775.532	468.64
775.715	386.72
775.897	452.26
776.079	437.92
776.261	368.29
776.444	319.14
776.626	364.2
776.808	329.38
776.99	323.24
777.173	353.96
777.355	437.92
777.537	382.63
777.719	378.53
777.901	390.82
778.083	356.01
778.265	347.81
778.447	284.33
778.629	302.76
778.811	325.29
778.993	315.05
779.175	362.15
779.357	384.68
779.539	349.86
779.721	321.19
779.903	341.67
780.085	374.44
780.267	329.38
780.449	317.09
780.631	372.39
780.812	296.61
780.994	411.3
781.176	323.24
781.358	290.47
781.54	241.32
781.721	313
781.903	310.95
782.085	218.79
782.267	263.85
782.448	224.94
782.63	308.9
782.812	313
782.993	292.52
783.175	386.72
783.357	284.33
783.538	290.47
783.72	267.94
783.901	233.13
784.083	233.13
784.264	231.08
784.446	161.45
784.627	280.23
784.809	327.33
784.99	251.56
785.172	218.79
785.353	235.18
785.535	298.66
785.716	208.55
785.897	245.41
786.079	243.37
786.26	241.32
786.441	239.27
786.623	272.04
786.804	259.75
786.985	249.51
787.167	214.7
787.348	253.61
787.529	235.18
787.71	255.65
787.891	231.08
788.073	263.85
788.254	224.94
788.435	233.13
788.616	218.79
788.797	222.89
788.978	313
789.159	257.7
789.34	200.36
789.522	214.7
789.703	214.7
789.884	265.89
790.065	175.78
790.246	190.12
790.427	165.54
790.607	284.33
790.788	181.93
790.969	175.78
791.15	239.27
791.331	140.97
791.512	192.17
791.693	224.94
791.874	114.34
792.054	212.65
792.235	210.6
792.416	177.83
792.597	218.79
792.778	149.16
792.958	157.35
793.139	239.27
793.32	239.27
793.5	122.54
793.681	163.5
793.862	208.55
794.042	169.64
794.223	216.74
794.404	181.93
794.584	122.54
794.765	216.74
794.945	163.5
795.126	220.84
795.306	210.6
795.487	181.93
795.667	198.31
795.848	169.64
796.028	214.7
796.209	175.78
796.389	206.5
796.57	108.2
796.75	171.69
796.93	249.51
797.111	173.74
797.291	218.79
797.471	54.95
797.652	181.93
797.832	102.06
798.012	132.78
798.192	132.78
798.373	153.26
798.553	145.06
798.733	116.39
798.913	186.02
799.093	210.6
799.274	134.82
799.454	222.89
799.634	169.64
799.814	190.12
799.994	108.2
800.174	206.5
800.354	145.06
800.534	100.01
800.714	181.93
800.894	138.92
801.074	108.2
801.254	173.74
801.434	140.97
801.614	159.4
801.794	75.43
801.974	394.92
802.154	91.82
802.334	106.15
802.514	118.44
802.693	93.87
802.873	149.16
803.053	140.97
803.233	159.4
803.413	161.45
803.592	198.31
803.772	165.54
803.952	77.48
804.131	67.24
804.311	161.45
804.491	173.74
804.67	163.5
804.85	106.15
805.03	24.23
805.209	136.87
805.389	71.34
805.568	116.39
805.748	100.01
805.928	134.82
806.107	97.96
806.287	91.82
806.466	108.2
806.646	71.34
806.825	122.54
807.004	71.34
807.184	77.48
807.363	97.96
807.543	126.63
807.722	69.29
807.901	175.78
808.081	171.69
808.26	89.77
808.439	149.16
808.619	77.48
808.798	57
808.977	100.01
809.156	114.34
809.336	42.67
809.515	159.4
809.694	143.02
809.873	81.58
810.052	118.44
810.231	124.58
810.411	100.01
810.59	136.87
810.769	24.23
810.948	48.81
811.127	79.53
811.306	69.29
811.485	134.82
811.664	138.92
811.843	112.3
812.022	165.54
812.201	1.71
812.38	54.95
812.559	106.15
812.737	118.44
812.916	104.11
813.095	69.29
813.274	128.68
813.453	110.25
813.632	87.72
813.811	143.02
813.989	73.39
814.168	95.91
814.347	40.62
814.526	120.49
814.704	108.2
814.883	73.39
815.062	81.58
815.24	112.3
815.419	46.76
815.598	134.82
815.776	67.24
815.955	108.2
816.133	100.01
816.312	106.15
816.49	63.15
816.669	7.85
816.847	-2.39
817.026	159.4
817.204	132.78
817.383	69.29
817.561	32.43
817.74	79.53
817.918	134.82
818.097	100.01
818.275	63.15
818.453	93.87
818.632	46.76
818.81	85.67
818.988	20.14
819.167	100.01
819.345	108.2
819.523	136.87
819.701	85.67
819.879	50.86
820.058	118.44
820.236	112.3
820.414	106.15
820.592	120.49
820.77	75.43
820.948	75.43
821.127	-20.82
821.305	87.72
821.483	69.29
821.661	26.28
821.839	106.15
822.017	91.82
822.195	36.52
822.373	77.48
822.551	126.63
822.729	87.72
822.907	102.06
823.085	91.82
823.262	42.67
823.44	67.24
823.618	145.06
823.796	85.67
823.974	30.38
824.152	63.15
824.329	9.9
824.507	124.58
824.685	128.68
824.863	-4.44
825.04	151.21
825.218	32.43
825.396	-8.53
825.574	108.2
825.751	85.67
825.929	38.57
826.107	18.09
826.284	114.34
826.462	63.15
826.639	110.25
826.817	91.82
826.994	3.75
827.172	100.01
827.349	38.57
827.527	5.8
827.704	40.62
827.882	73.39
828.059	69.29
828.237	110.25
828.414	20.14
828.591	-12.63
828.769	42.67
828.946	59.05
829.124	65.19
829.301	77.48
829.478	42.67
829.655	52.91
829.833	-14.68
830.01	130.73
830.187	75.43
830.364	-14.68
830.542	91.82
830.719	120.49
830.896	50.86
831.073	24.23
831.25	85.67
831.427	77.48
831.604	11.95
831.782	9.9
831.959	83.63
832.136	77.48
832.313	63.15
832.49	69.29
832.667	65.19
832.844	79.53
833.021	57
833.198	59.05
833.374	26.28
833.551	95.91
833.728	79.53
833.905	61.1
834.082	50.86
834.259	44.71
834.436	54.95
834.612	93.87
834.789	-2.39
834.966	108.2
835.143	93.87
835.319	28.33
835.496	-10.58
835.673	50.86
835.85	108.2
836.026	42.67
836.203	73.39
836.38	9.9
836.556	108.2
836.733	59.05
836.909	28.33
837.086	59.05
837.262	46.76
837.439	22.19
837.616	59.05
837.792	97.96
837.968	-29.01
838.145	-29.01
838.321	79.53
838.498	9.9
838.674	69.29
838.851	26.28
839.027	75.43
839.203	63.15
839.38	1.71
839.556	91.82
839.732	52.91
839.909	44.71
840.085	59.05
840.261	71.34
840.437	-12.63
840.614	48.81
840.79	50.86
840.966	36.52
841.142	48.81
841.318	59.05
841.494	-4.44
841.671	91.82
841.847	7.85
842.023	50.86
842.199	34.47
842.375	57
842.551	75.43
842.727	18.09
842.903	87.72
843.079	104.11
843.255	16.04
843.431	63.15
843.607	100.01
843.783	28.33
843.959	50.86
844.134	-24.92
844.31	69.29
844.486	50.86
844.662	26.28
844.838	87.72
845.013	9.9
845.189	73.39
845.365	9.9
845.541	-55.64
845.716	100.01
845.892	13.99
846.068	-4.44
846.244	95.91
846.419	116.39
846.595	30.38
846.77	83.63
846.946	38.57
847.122	73.39
847.297	40.62
847.473	77.48
847.648	38.57
847.824	61.1
847.999	-6.49
848.175	63.15
848.35	20.14
848.526	65.19
848.701	42.67
848.876	83.63
849.052	104.11
849.227	83.63
849.403	9.9
849.578	59.05
849.753	18.09
849.929	50.86
850.104	-22.87
850.279	24.23
850.454	40.62
850.63	-6.49
850.805	5.8
850.98	32.43
851.155	48.81
851.33	34.47
851.505	7.85
851.681	69.29
851.856	-35.16
852.031	-4.44
852.206	11.95
852.381	3.75
852.556	48.81
852.731	57
852.906	26.28
853.081	11.95
853.256	69.29
853.431	3.75
853.606	13.99
853.781	-20.82
853.956	48.81
854.131	85.67
854.305	-22.87
854.48	13.99
854.655	-8.53
854.83	18.09
855.005	42.67
855.18	24.23
855.354	30.38
855.529	3.75
855.704	71.34
855.879	104.11
856.053	-6.49
856.228	67.24
856.403	-2.39
856.577	36.52
856.752	28.33
856.926	7.85
857.101	36.52
857.276	42.67
857.45	13.99
857.625	100.01
857.799	26.28
857.974	-2.39
858.148	28.33
858.323	95.91
858.497	59.05
858.672	59.05
858.846	30.38
859.02	83.63
859.195	-2.39
859.369	38.57
859.543	22.19
859.718	36.52
859.892	36.52
860.066	42.67
860.241	-14.68
860.415	50.86
860.589	1.71
860.763	26.28
860.938	11.95
861.112	-2.39
861.286	1.71
861.46	40.62
861.634	-12.63
861.808	18.09
861.982	-14.68
862.157	-29.01
862.331	3.75
862.505	-22.87
862.679	85.67
862.853	110.25
863.027	59.05
863.201	36.52
863.375	7.85
863.549	59.05
863.722	-2.39
863.896	36.52
864.07	-2.39
864.244	30.38
864.418	-18.77
864.592	81.58
864.766	48.81
864.939	20.14
865.113	-6.49
865.287	18.09
865.461	-33.11
865.634	9.9
865.808	-20.82
865.982	-10.58
866.156	13.99
866.329	11.95
866.503	28.33
866.676	87.72
866.85	46.76
867.024	71.34
867.197	-43.35
867.371	-24.92
867.544	61.1
867.718	46.76
867.891	50.86
868.065	-8.53
868.238	-10.58
868.412	67.24
868.585	-16.73
868.759	-18.77
868.932	57
869.105	7.85
869.279	85.67
869.452	61.1
869.625	83.63
869.799	30.38
869.972	1.71
870.145	91.82
870.319	69.29
870.492	18.09
870.665	-22.87
870.838	13.99
871.011	-10.58
871.185	61.1
871.358	-35.16
871.531	28.33
871.704	-102.74
871.877	46.76
872.05	50.86
872.223	71.34
872.396	-14.68
872.569	75.43
872.742	-18.77
872.915	-2.39
873.088	9.9
873.261	18.09
873.434	16.04
873.607	9.9
873.78	-4.44
873.953	54.95
874.126	3.75
874.299	71.34
874.471	32.43
874.644	79.53
874.817	11.95
874.99	9.9
875.163	83.63
875.335	36.52
875.508	-14.68
875.681	71.34
875.853	-45.4
876.026	11.95
876.199	34.47
876.371	-96.6
876.544	-4.44
876.717	9.9
876.889	9.9
877.062	18.09
877.234	1.71
877.407	26.28
877.579	48.81
877.752	-12.63
877.924	-6.49
878.097	-6.49
878.269	28.33
878.442	-22.87
878.614	36.52
878.786	26.28
878.959	7.85
879.131	59.05
879.303	9.9
879.476	69.29
879.648	77.48
879.82	16.04
879.993	38.57
880.165	75.43
880.337	30.38
880.509	48.81
880.681	40.62
880.854	-6.49
881.026	40.62
881.198	40.62
881.37	87.72
881.542	13.99
881.714	5.8
881.886	26.28
882.058	20.14
882.23	22.19
882.402	-57.68
882.574	-2.39
882.746	-29.01
882.918	-6.49
883.09	50.86
883.262	26.28
883.434	-35.16
883.606	-18.77
883.778	-2.39
883.95	59.05
884.122	-45.4
884.293	7.85
884.465	-37.2
884.637	50.86
884.809	-14.68
884.98	71.34
885.152	5.8
885.324	9.9
885.496	22.19
885.667	18.09
885.839	7.85
886.011	34.47
886.182	-14.68
886.354	83.63
886.525	13.99
886.697	38.57
886.869	30.38
887.04	-26.96
887.212	36.52
887.383	-12.63
887.555	-31.06
887.726	30.38
887.897	-35.16
888.069	13.99
888.24	-22.87
888.412	24.23
888.583	83.63
888.754	-53.59
888.926	3.75
889.097	-20.82
889.268	46.76
889.44	-4.44
889.611	-18.77
889.782	79.53
889.953	-26.96
890.125	61.1
890.296	-35.16
890.467	32.43
890.638	34.47
890.809	5.8
890.98	-31.06
891.151	59.05
891.323	1.71
891.494	-12.63
891.665	38.57
891.836	-6.49
892.007	79.53
892.178	-59.73
892.349	71.34
892.52	-20.82
892.691	11.95
892.862	3.75
893.032	-2.39
893.203	-31.06
893.374	69.29
893.545	57
893.716	16.04
893.887	-0.34
894.057	30.38
894.228	-20.82
894.399	73.39
894.57	28.33
894.74	50.86
894.911	77.48
895.082	26.28
895.253	1.71
895.423	36.52
895.594	52.91
895.764	-20.82
895.935	-55.64
896.106	24.23
896.276	26.28
896.447	-63.83
896.617	-4.44
896.788	-59.73
896.958	1.71
897.129	3.75
897.299	36.52
897.47	-0.34
897.64	-26.96
897.81	32.43
897.981	5.8
898.151	36.52
898.322	18.09
898.492	-12.63
898.662	-0.34
898.832	11.95
899.003	-12.63
899.173	63.15
899.343	28.33
899.513	-0.34
