Data from USB4F104151__31__13-52-49-282.txt Node

Date: Thu Mar 13 13:52:49 EDT 2025
User: louis
Spectrometer: USB4F10415
Trigger mode: 4
Integration Time (sec): 1.000000E-2
Scans to average: 1
Electric dark correction enabled: true
Nonlinearity correction enabled: false
Boxcar width: 0
XAxis mode: Wavelengths
Number of Pixels in Spectrum: 3648
>>>>>Begin Spectral Data<<<<<
178.204	-26.11
178.424	-26.11
178.644	-26.11
178.864	-22.02
179.084	-48.64
179.304	-3.58
179.524	-24.06
179.744	18.94
179.964	8.7
180.184	4.61
180.404	12.8
180.624	29.18
180.844	-22.02
181.064	4.61
181.283	-5.63
181.503	-22.02
181.723	-1.54
181.943	-13.82
182.163	16.9
182.383	-40.45
182.602	10.75
182.822	-75.26
183.042	23.04
183.262	45.57
183.482	29.18
183.701	-60.93
183.921	41.47
184.141	-52.74
184.361	-11.78
184.58	8.7
184.8	37.38
185.02	-17.92
185.239	4.61
185.459	-24.06
185.679	-13.82
185.898	-42.5
186.118	47.62
186.338	-28.16
186.557	10.75
186.777	-26.11
186.997	-5.63
187.216	-19.97
187.436	59.9
187.655	-5.63
187.875	90.62
188.095	-65.02
188.314	37.38
188.534	-22.02
188.753	-36.35
188.973	41.47
189.192	-15.87
189.412	-17.92
189.631	-50.69
189.851	12.8
190.07	66.05
190.29	-32.26
190.509	57.86
190.729	4.61
190.948	-24.06
191.168	70.14
191.387	2.56
191.607	-60.93
191.826	-15.87
192.045	2.56
192.265	74.24
192.484	47.62
192.704	16.9
192.923	-42.5
193.142	53.76
193.362	80.38
193.581	6.66
193.8	-13.82
194.02	92.67
194.239	-65.02
194.458	-50.69
194.678	-30.21
194.897	47.62
195.116	-11.78
195.335	27.14
195.555	31.23
195.774	-36.35
195.993	-11.78
196.212	-38.4
196.432	-69.12
196.651	27.14
196.87	16.9
197.089	-9.73
197.308	27.14
197.528	-11.78
197.747	18.94
197.966	39.42
198.185	49.66
198.404	6.66
198.623	-17.92
198.842	113.15
199.062	-28.16
199.281	25.09
199.5	-91.65
199.719	59.9
199.938	-34.3
200.157	-13.82
200.376	41.47
200.595	-30.21
200.814	39.42
201.033	4.61
201.252	98.81
201.471	14.85
201.69	-67.07
201.909	76.29
202.128	27.14
202.347	2.56
202.566	27.14
202.785	0.51
203.004	-62.98
203.223	74.24
203.442	-15.87
203.661	10.75
203.879	18.94
204.098	-36.35
204.317	-77.31
204.536	-62.98
204.755	8.7
204.974	88.57
205.193	23.04
205.411	20.99
205.63	49.66
205.849	0.51
206.068	10.75
206.287	-46.59
206.505	4.61
206.724	74.24
206.943	2.56
207.162	33.28
207.381	-42.5
207.599	25.09
207.818	-1.54
208.037	49.66
208.255	-15.87
208.474	-54.78
208.693	-73.21
208.911	-13.82
209.13	20.99
209.349	-15.87
209.567	-38.4
209.786	45.57
210.005	43.52
210.223	-7.68
210.442	-13.82
210.661	31.23
210.879	31.23
211.098	27.14
211.316	-32.26
211.535	12.8
211.753	70.14
211.972	-5.63
212.191	6.66
212.409	-9.73
212.628	41.47
212.846	-42.5
213.065	84.48
213.283	-9.73
213.502	-3.58
213.72	70.14
213.938	-79.36
214.157	-26.11
214.375	66.05
214.594	53.76
214.812	27.14
215.031	102.91
215.249	10.75
215.467	14.85
215.686	-79.36
215.904	25.09
216.122	-42.5
216.341	4.61
216.559	23.04
216.778	-9.73
216.996	33.28
217.214	49.66
217.432	23.04
217.651	-17.92
217.869	55.81
218.087	37.38
218.306	-44.54
218.524	47.62
218.742	20.99
218.96	43.52
219.179	47.62
219.397	-15.87
219.615	80.38
219.833	41.47
220.051	68.09
220.27	59.9
220.488	-52.74
220.706	64
220.924	-19.97
221.142	18.94
221.36	-11.78
221.578	55.81
221.796	35.33
222.015	20.99
222.233	59.9
222.451	-22.02
222.669	-46.59
222.887	33.28
223.105	20.99
223.323	47.62
223.541	12.8
223.759	4.61
223.977	31.23
224.195	23.04
224.413	16.9
224.631	66.05
224.849	47.62
225.067	-38.4
225.285	-26.11
225.503	6.66
225.721	10.75
225.939	37.38
226.157	8.7
226.375	-7.68
226.592	16.9
226.81	-32.26
227.028	-46.59
227.246	66.05
227.464	43.52
227.682	-7.68
227.9	-5.63
228.117	4.61
228.335	-42.5
228.553	-11.78
228.771	-38.4
228.989	16.9
229.206	8.7
229.424	-40.45
229.642	-44.54
229.86	0.51
230.077	-13.82
230.295	12.8
230.513	-75.26
230.731	84.48
230.948	35.33
231.166	33.28
231.384	-11.78
231.601	-30.21
231.819	43.52
232.037	-32.26
232.254	-83.45
232.472	25.09
232.689	-34.3
232.907	31.23
233.125	-9.73
233.342	-56.83
233.56	53.76
233.777	8.7
233.995	-17.92
234.213	90.62
234.43	12.8
234.648	-15.87
234.865	-19.97
235.083	68.09
235.3	12.8
235.518	37.38
235.735	-9.73
235.953	104.96
236.17	10.75
236.388	4.61
236.605	-15.87
236.822	41.47
237.04	29.18
237.257	-79.36
237.475	33.28
237.692	49.66
237.909	-13.82
238.127	-9.73
238.344	29.18
238.562	-38.4
238.779	43.52
238.996	-65.02
239.214	6.66
239.431	23.04
239.648	-5.63
239.865	76.29
240.083	-50.69
240.3	59.9
240.517	-22.02
240.735	10.75
240.952	-19.97
241.169	-7.68
241.386	16.9
241.603	-9.73
241.821	0.51
242.038	-1.54
242.255	-108.03
242.472	-34.3
242.689	14.85
242.907	64
243.124	-7.68
243.341	33.28
243.558	78.33
243.775	-17.92
243.992	-11.78
244.209	-7.68
244.426	-42.5
244.643	53.76
244.86	4.61
245.078	-5.63
245.295	4.61
245.512	35.33
245.729	14.85
245.946	29.18
246.163	16.9
246.38	80.38
246.597	49.66
246.814	53.76
247.031	27.14
247.248	25.09
247.464	72.19
247.681	-46.59
247.898	12.8
248.115	35.33
248.332	-11.78
248.549	18.94
248.766	31.23
248.983	2.56
249.2	8.7
249.417	47.62
249.633	53.76
249.85	-38.4
250.067	-22.02
250.284	-15.87
250.501	33.28
250.717	-1.54
250.934	-60.93
251.151	31.23
251.368	51.71
251.585	-9.73
251.801	-17.92
252.018	-40.45
252.235	4.61
252.451	59.9
252.668	47.62
252.885	33.28
253.102	76.29
253.318	20.99
253.535	51.71
253.752	18.94
253.968	33.28
254.185	-36.35
254.401	-17.92
254.618	37.38
254.835	4.61
255.051	20.99
255.268	0.51
255.484	25.09
255.701	45.57
255.917	-46.59
256.134	2.56
256.351	-15.87
256.567	43.52
256.784	57.86
257	33.28
257.217	2.56
257.433	-26.11
257.65	16.9
257.866	47.62
258.082	-38.4
258.299	16.9
258.515	-32.26
258.732	16.9
258.948	68.09
259.165	-40.45
259.381	2.56
259.597	18.94
259.814	-22.02
260.03	-24.06
260.246	-3.58
260.463	55.81
260.679	-9.73
260.895	8.7
261.112	55.81
261.328	-7.68
261.544	41.47
261.761	-22.02
261.977	20.99
262.193	-67.07
262.409	14.85
262.626	27.14
262.842	23.04
263.058	6.66
263.274	35.33
263.49	27.14
263.707	18.94
263.923	0.51
264.139	-5.63
264.355	-5.63
264.571	72.19
264.787	-5.63
265.004	-32.26
265.22	20.99
265.436	41.47
265.652	-19.97
265.868	-71.17
266.084	-22.02
266.3	10.75
266.516	-32.26
266.732	78.33
266.948	31.23
267.164	18.94
267.38	43.52
267.596	51.71
267.812	68.09
268.028	-19.97
268.244	-7.68
268.46	31.23
268.676	-32.26
268.892	-62.98
269.108	66.05
269.324	49.66
269.54	12.8
269.756	14.85
269.972	-34.3
270.188	-38.4
270.403	59.9
270.619	70.14
270.835	0.51
271.051	100.86
271.267	18.94
271.483	0.51
271.698	6.66
271.914	-50.69
272.13	-26.11
272.346	14.85
272.562	-13.82
272.777	45.57
272.993	-46.59
273.209	70.14
273.425	51.71
273.64	-3.58
273.856	-38.4
274.072	41.47
274.287	35.33
274.503	61.95
274.719	-26.11
274.934	-22.02
275.15	33.28
275.366	-13.82
275.581	-56.83
275.797	-13.82
276.012	-28.16
276.228	29.18
276.444	-15.87
276.659	-40.45
276.875	-58.88
277.09	-15.87
277.306	68.09
277.521	16.9
277.737	29.18
277.952	57.86
278.168	70.14
278.383	14.85
278.599	-42.5
278.814	2.56
279.03	37.38
279.245	33.28
279.461	10.75
279.676	41.47
279.892	45.57
280.107	-19.97
280.322	25.09
280.538	25.09
280.753	-32.26
280.969	117.25
281.184	23.04
281.399	27.14
281.615	0.51
281.83	20.99
282.045	66.05
282.26	53.76
282.476	41.47
282.691	0.51
282.906	-87.55
283.122	86.53
283.337	-46.59
283.552	-13.82
283.767	-13.82
283.983	68.09
284.198	29.18
284.413	8.7
284.628	20.99
284.843	113.15
285.058	57.86
285.274	2.56
285.489	47.62
285.704	-38.4
285.919	0.51
286.134	29.18
286.349	82.43
286.564	-9.73
286.779	0.51
286.995	29.18
287.21	33.28
287.425	49.66
287.64	-30.21
287.855	-48.64
288.07	2.56
288.285	-22.02
288.5	31.23
288.715	49.66
288.93	29.18
289.145	59.9
289.36	31.23
289.575	6.66
289.79	29.18
290.004	39.42
290.219	39.42
290.434	-3.58
290.649	4.61
290.864	18.94
291.079	-19.97
291.294	6.66
291.509	-50.69
291.724	16.9
291.938	23.04
292.153	37.38
292.368	-7.68
292.583	-5.63
292.798	-30.21
293.012	-24.06
293.227	33.28
293.442	59.9
293.657	18.94
293.871	78.33
294.086	49.66
294.301	-56.83
294.516	33.28
294.73	25.09
294.945	-32.26
295.16	57.86
295.374	-42.5
295.589	-5.63
295.804	-7.68
296.018	68.09
296.233	45.57
296.447	-26.11
296.662	33.28
296.877	57.86
297.091	-3.58
297.306	10.75
297.52	59.9
297.735	-7.68
297.949	-62.98
298.164	10.75
298.378	53.76
298.593	29.18
298.807	10.75
299.022	18.94
299.236	-11.78
299.451	-17.92
299.665	-40.45
299.88	29.18
300.094	6.66
300.309	57.86
300.523	8.7
300.737	0.51
300.952	-11.78
301.166	10.75
301.381	41.47
301.595	35.33
301.809	-19.97
302.024	10.75
302.238	-36.35
302.452	-42.5
302.667	-26.11
302.881	49.66
303.095	23.04
303.309	90.62
303.524	51.71
303.738	33.28
303.952	-34.3
304.166	23.04
304.381	23.04
304.595	35.33
304.809	12.8
305.023	70.14
305.237	18.94
305.452	39.42
305.666	72.19
305.88	-44.54
306.094	-62.98
306.308	-36.35
306.522	88.57
306.736	-7.68
306.95	104.96
307.164	-24.06
307.379	66.05
307.593	43.52
307.807	-9.73
308.021	57.86
308.235	-13.82
308.449	39.42
308.663	39.42
308.877	68.09
309.091	-9.73
309.305	43.52
309.519	-24.06
309.733	-5.63
309.947	-50.69
310.161	-1.54
310.374	-28.16
310.588	78.33
310.802	-1.54
311.016	25.09
311.23	4.61
311.444	-50.69
311.658	-52.74
311.872	31.23
312.085	27.14
312.299	92.67
312.513	31.23
312.727	25.09
312.941	66.05
313.154	47.62
313.368	66.05
313.582	-44.54
313.796	-11.78
314.009	-13.82
314.223	-32.26
314.437	29.18
314.651	70.14
314.864	-15.87
315.078	2.56
315.292	43.52
315.505	2.56
315.719	4.61
315.933	2.56
316.146	66.05
316.36	51.71
316.573	33.28
316.787	59.9
317.001	57.86
317.214	33.28
317.428	117.25
317.641	-11.78
317.855	-44.54
318.068	57.86
318.282	16.9
318.495	49.66
318.709	-28.16
318.922	-3.58
319.136	33.28
319.349	41.47
319.563	31.23
319.776	45.57
319.99	35.33
320.203	-7.68
320.417	74.24
320.63	10.75
320.843	37.38
321.057	-1.54
321.27	-7.68
321.483	25.09
321.697	16.9
321.91	-15.87
322.124	55.81
322.337	-44.54
322.55	-22.02
322.763	-71.17
322.977	86.53
323.19	-22.02
323.403	-13.82
323.617	10.75
323.83	68.09
324.043	47.62
324.256	10.75
324.469	20.99
324.683	82.43
324.896	-5.63
325.109	12.8
325.322	25.09
325.535	20.99
325.748	16.9
325.962	-9.73
326.175	45.57
326.388	82.43
326.601	-15.87
326.814	0.51
327.027	-116.22
327.24	31.23
327.453	-19.97
327.666	25.09
327.879	10.75
328.092	18.94
328.305	10.75
328.518	55.81
328.731	23.04
328.944	-3.58
329.157	14.85
329.37	-9.73
329.583	70.14
329.796	-5.63
330.009	-7.68
330.222	72.19
330.435	-26.11
330.648	41.47
330.861	31.23
331.073	70.14
331.286	74.24
331.499	33.28
331.712	-7.68
331.925	35.33
332.138	-40.45
332.35	37.38
332.563	61.95
332.776	-38.4
332.989	14.85
333.202	20.99
333.414	-34.3
333.627	20.99
333.84	20.99
334.053	-24.06
334.265	-58.88
334.478	-24.06
334.691	-13.82
334.903	45.57
335.116	80.38
335.329	8.7
335.541	-11.78
335.754	-3.58
335.966	8.7
336.179	-5.63
336.392	20.99
336.604	23.04
336.817	-1.54
337.029	-13.82
337.242	-13.82
337.454	-34.3
337.667	12.8
337.88	6.66
338.092	2.56
338.305	33.28
338.517	0.51
338.729	53.76
338.942	23.04
339.154	70.14
339.367	53.76
339.579	-5.63
339.792	18.94
340.004	43.52
340.217	-1.54
340.429	43.52
340.641	59.9
340.854	37.38
341.066	49.66
341.278	31.23
341.491	33.28
341.703	-7.68
341.915	59.9
342.128	-32.26
342.34	-22.02
342.552	27.14
342.764	4.61
342.977	49.66
343.189	10.75
343.401	12.8
343.613	31.23
343.826	35.33
344.038	-40.45
344.25	14.85
344.462	35.33
344.674	94.72
344.886	35.33
345.099	35.33
345.311	-3.58
345.523	59.9
345.735	-40.45
345.947	49.66
346.159	49.66
346.371	53.76
346.583	20.99
346.795	45.57
347.007	76.29
347.219	18.94
347.431	-7.68
347.643	2.56
347.855	-28.16
348.067	92.67
348.279	8.7
348.491	-24.06
348.703	-13.82
348.915	68.09
349.127	74.24
349.339	33.28
349.551	94.72
349.763	23.04
349.975	2.56
350.187	119.29
350.399	-22.02
350.61	55.81
350.822	2.56
351.034	31.23
351.246	33.28
351.458	4.61
351.669	16.9
351.881	25.09
352.093	41.47
352.305	29.18
352.517	-5.63
352.728	43.52
352.94	35.33
353.152	8.7
353.363	6.66
353.575	68.09
353.787	14.85
353.999	23.04
354.21	12.8
354.422	-1.54
354.633	-13.82
354.845	86.53
355.057	-32.26
355.268	39.42
355.48	-5.63
355.692	82.43
355.903	14.85
356.115	12.8
356.326	16.9
356.538	100.86
356.749	-7.68
356.961	55.81
357.172	88.57
357.384	51.71
357.595	-3.58
357.807	23.04
358.018	-40.45
358.23	14.85
358.441	14.85
358.653	29.18
358.864	37.38
359.075	43.52
359.287	-1.54
359.498	39.42
359.709	27.14
359.921	-38.4
360.132	-44.54
360.344	-32.26
360.555	70.14
360.766	4.61
360.977	8.7
361.189	66.05
361.4	31.23
361.611	47.62
361.823	53.76
362.034	-17.92
362.245	-1.54
362.456	2.56
362.667	8.7
362.879	109.05
363.09	59.9
363.301	-32.26
363.512	16.9
363.723	94.72
363.935	61.95
364.146	53.76
364.357	25.09
364.568	72.19
364.779	31.23
364.99	72.19
365.201	12.8
365.412	121.34
365.623	33.28
365.834	23.04
366.045	-15.87
366.256	61.95
366.467	14.85
366.678	16.9
366.889	-40.45
367.1	20.99
367.311	111.1
367.522	-44.54
367.733	31.23
367.944	16.9
368.155	16.9
368.366	82.43
368.577	33.28
368.788	12.8
368.999	0.51
369.209	41.47
369.42	27.14
369.631	107.01
369.842	25.09
370.053	14.85
370.264	59.9
370.474	12.8
370.685	78.33
370.896	-3.58
371.107	90.62
371.317	25.09
371.528	-13.82
371.739	4.61
371.95	-7.68
372.16	35.33
372.371	-32.26
372.582	-9.73
372.792	-3.58
373.003	43.52
373.214	20.99
373.424	8.7
373.635	16.9
373.846	4.61
374.056	70.14
374.267	49.66
374.477	-7.68
374.688	10.75
374.898	27.14
375.109	35.33
375.319	72.19
375.53	12.8
375.74	6.66
375.951	59.9
376.161	41.47
376.372	66.05
376.582	61.95
376.793	109.05
377.003	-28.16
377.214	43.52
377.424	-3.58
377.635	125.44
377.845	-32.26
378.055	74.24
378.266	2.56
378.476	16.9
378.686	6.66
378.897	-5.63
379.107	10.75
379.317	33.28
379.528	51.71
379.738	76.29
379.948	10.75
380.158	4.61
380.369	10.75
380.579	115.2
380.789	14.85
380.999	18.94
381.21	27.14
381.42	61.95
381.63	66.05
381.84	16.9
382.05	-1.54
382.261	18.94
382.471	76.29
382.681	0.51
382.891	27.14
383.101	51.71
383.311	125.44
383.521	18.94
383.731	10.75
383.941	49.66
384.151	88.57
384.361	61.95
384.571	39.42
384.781	-28.16
384.991	51.71
385.201	-19.97
385.411	51.71
385.621	18.94
385.831	25.09
386.041	25.09
386.251	-32.26
386.461	29.18
386.671	2.56
386.881	-28.16
387.091	72.19
387.301	55.81
387.511	18.94
387.72	18.94
387.93	6.66
388.14	92.67
388.35	-7.68
388.56	80.38
388.769	20.99
388.979	64
389.189	8.7
389.399	-44.54
389.609	-26.11
389.818	66.05
390.028	8.7
390.238	61.95
390.447	2.56
390.657	14.85
390.867	70.14
391.076	49.66
391.286	16.9
391.496	-5.63
391.705	55.81
391.915	57.86
392.125	23.04
392.334	20.99
392.544	-13.82
392.753	2.56
392.963	2.56
393.172	94.72
393.382	61.95
393.591	-15.87
393.801	53.76
394.01	88.57
394.22	76.29
394.429	119.29
394.639	104.96
394.848	66.05
395.058	-9.73
395.267	64
395.477	72.19
395.686	86.53
395.895	55.81
396.105	78.33
396.314	4.61
396.524	43.52
396.733	45.57
396.942	88.57
397.152	2.56
397.361	6.66
397.57	-9.73
397.78	39.42
397.989	61.95
398.198	96.77
398.407	12.8
398.617	43.52
398.826	16.9
399.035	66.05
399.244	47.62
399.453	-26.11
399.663	82.43
399.872	86.53
400.081	53.76
400.29	47.62
400.499	37.38
400.708	59.9
400.917	47.62
401.127	18.94
401.336	27.14
401.545	117.25
401.754	113.15
401.963	133.63
402.172	78.33
402.381	76.29
402.59	-1.54
402.799	102.91
403.008	39.42
403.217	43.52
403.426	61.95
403.635	-24.06
403.844	72.19
404.053	154.11
404.262	98.81
404.471	147.97
404.68	68.09
404.888	59.9
405.097	141.82
405.306	96.77
405.515	88.57
405.724	84.48
405.933	29.18
406.142	74.24
406.35	127.49
406.559	96.77
406.768	168.45
406.977	129.53
407.185	178.69
407.394	90.62
407.603	70.14
407.812	135.68
408.02	121.34
408.229	203.26
408.438	174.59
408.646	182.78
408.855	164.35
409.064	158.21
409.272	156.16
409.481	164.35
409.69	188.93
409.898	199.16
410.107	164.35
410.315	236.03
410.524	209.4
410.733	231.93
410.941	147.97
411.15	180.73
411.358	205.31
411.567	180.73
411.775	363
411.984	287.23
412.192	217.6
412.401	295.42
412.609	322.04
412.818	309.76
413.026	365.05
413.234	317.95
413.443	348.67
413.651	344.57
413.86	358.91
414.068	305.66
414.276	395.77
414.485	414.2
414.693	453.11
414.901	420.35
415.11	449.02
415.318	465.4
415.526	541.18
415.734	473.59
415.943	420.35
416.151	543.22
416.359	477.69
416.567	569.85
416.776	563.7
416.984	569.85
417.192	578.04
417.4	641.53
417.608	627.19
417.817	696.82
418.025	692.73
418.233	758.26
418.441	731.64
418.649	735.73
418.857	807.41
419.065	831.99
419.273	780.79
419.481	807.41
419.689	893.43
419.897	948.72
420.105	995.82
420.313	940.53
420.521	1010.16
420.729	1038.83
420.937	1163.76
421.145	1153.52
421.353	1241.58
421.561	1249.77
421.769	1167.85
421.977	1393.13
422.185	1206.77
422.393	1354.22
422.601	1341.93
422.809	1473
423.017	1485.29
423.224	1477.1
423.432	1712.61
423.64	1544.68
423.848	1855.97
424.056	1782.24
424.263	1819.11
424.471	1872.36
424.679	1960.42
424.887	2001.38
425.094	1886.69
425.302	2052.58
425.51	2109.92
425.718	2122.21
425.925	2304.48
426.133	2267.61
426.341	2523.61
426.548	2425.31
426.756	2404.83
426.964	2480.6
427.171	2521.56
427.379	2841.04
427.586	2873.81
427.794	2783.7
428.001	2882
428.209	3275.21
428.417	3092.94
428.624	3361.23
428.832	3281.36
429.039	3246.54
429.247	3217.87
429.454	3697.1
429.662	3865.03
429.869	3549.64
430.076	3807.69
430.284	3744.2
430.491	3850.69
430.699	4118.98
430.906	4196.8
431.114	4188.61
431.321	4288.96
431.528	4508.09
431.736	4684.22
431.943	4841.91
432.15	4676.02
432.358	4880.82
432.565	5122.48
432.772	5075.38
432.979	5384.62
433.187	5401.01
433.394	5390.77
433.601	5788.07
433.808	5857.7
434.016	5841.32
434.223	5984.68
434.43	6547.87
434.637	6289.82
434.844	6769.05
435.052	6797.72
435.259	6848.92
435.466	6936.98
435.673	6979.99
435.88	7053.72
436.087	7588.24
436.294	7604.62
436.501	7465.36
436.708	7659.92
436.915	7668.11
437.122	8212.87
437.329	8122.76
437.537	8458.62
437.743	8571.26
437.95	8456.57
438.157	8917.37
438.364	9372.02
438.571	9116.02
438.778	9402.74
438.985	10144.1
439.192	9793.9
439.399	9982.31
439.606	9787.75
439.813	10355.04
440.02	11202.9
440.227	10625.37
440.433	10686.81
440.64	11100.5
440.847	10801.5
441.054	11221.33
441.261	12034.38
441.467	11893.07
441.674	12044.62
441.881	12648.77
442.088	12644.67
442.294	12325.19
442.501	12790.08
442.708	12849.47
442.914	13347.12
443.121	14037.29
443.328	13590.83
443.534	14543.14
443.741	14090.54
443.948	14147.88
444.154	15083.8
444.361	14932.25
444.568	15034.65
444.774	15135
444.981	15214.87
445.187	15810.83
445.394	16353.54
445.6	16214.28
445.807	17660.15
446.013	16982.27
446.22	17129.72
446.426	17918.19
446.633	17944.81
446.839	18723.04
447.046	18002.16
447.252	18727.14
447.459	18901.22
447.665	18587.88
447.871	19650.77
448.078	20742.34
448.284	19572.95
448.491	20121.8
448.697	20629.7
448.903	21215.42
449.11	21209.28
449.316	21223.61
449.522	21534.9
449.728	21688.5
449.935	21805.24
450.141	21670.07
450.347	22513.83
450.553	21733.56
450.76	21940.4
450.966	22714.53
451.172	22743.2
451.378	23025.82
451.584	22481.06
451.791	23034.02
451.997	22948
452.203	23695.51
452.409	23367.84
452.615	23206.05
452.821	22384.81
453.027	22190.25
453.233	23400.6
453.44	22274.22
453.646	22753.44
453.852	22442.15
454.058	23126.18
454.264	22042.8
454.47	22679.72
454.676	22368.43
454.882	22692.01
455.088	21033.15
455.294	21498.04
455.5	21434.55
455.705	21659.83
455.911	21096.64
456.117	20512.97
456.323	20295.88
456.529	19163.36
456.735	19865.81
456.941	19663.06
457.147	19022.05
457.352	18403.56
457.558	18182.38
457.764	18571.49
457.97	17930.48
458.176	17367.29
458.381	17649.91
458.587	16435.46
458.793	16867.58
458.999	15696.14
459.204	16888.06
459.41	16410.89
459.616	15460.63
459.821	15571.22
460.027	15481.11
460.233	14919.96
460.438	14336.29
460.644	14575.91
460.85	13789.49
461.055	13545.78
461.261	13461.81
461.466	12605.76
461.672	12390.72
461.878	12906.81
462.083	12368.2
462.289	11974.99
462.494	11858.25
462.7	11467.09
462.905	10957.14
463.111	11485.52
463.316	11598.16
463.522	11264.34
463.727	11159.89
463.932	11063.64
464.138	11264.34
464.343	11153.75
464.549	10871.13
464.754	11250
464.959	11192.66
465.165	10889.56
465.37	10660.19
465.575	10291.55
465.781	10873.18
465.986	10705.24
466.191	10432.86
466.397	10178.92
466.602	9689.45
466.807	10088.81
467.012	10117.48
467.218	9949.54
467.423	9814.38
467.628	9929.06
467.833	10482.02
468.038	10060.13
468.244	9746.8
468.449	10416.48
468.654	9748.84
468.859	9714.03
469.064	9593.2
469.269	9376.11
469.474	9337.2
469.679	9535.85
469.885	9240.95
470.09	9632.11
470.295	9367.92
470.5	9109.88
470.705	9060.73
470.91	9048.44
471.115	8876.41
471.32	8900.98
471.525	8847.74
471.73	8616.32
471.935	8647.04
472.139	8503.68
472.344	8542.59
472.549	8538.49
472.754	8139.14
472.959	8151.43
473.164	7883.14
473.369	7938.44
473.574	8085.89
473.778	7920.01
473.983	7969.16
474.188	7821.7
474.393	7735.69
474.598	7539.08
474.802	7592.33
475.007	7625.1
475.212	7332.24
475.417	7317.9
475.621	7256.47
475.826	7305.62
476.031	7229.84
476.235	7066
476.44	7061.91
476.645	7018.9
476.849	6986.13
477.054	6930.84
477.259	6685.08
477.463	6865.3
477.668	6678.94
477.872	6744.47
478.077	6709.66
478.282	6400.41
478.486	6465.95
478.691	6519.2
478.895	6310.3
479.1	6326.69
479.304	6302.11
479.509	6142.37
479.713	6257.06
479.918	6144.42
480.122	6011.3
480.326	6216.1
480.531	6255.01
480.735	6048.16
480.94	5990.82
481.144	6386.08
481.348	6001.06
481.553	5867.94
481.757	5708.2
481.961	6013.35
482.166	5929.38
482.37	6017.44
482.574	5935.53
482.778	5837.22
482.983	5929.38
483.187	5927.33
483.391	6044.07
483.595	5798.31
483.8	5792.17
484.004	5908.9
484.208	5915.05
484.412	5888.42
484.616	5925.29
484.821	5908.9
485.025	5761.45
485.229	6029.73
485.433	5898.66
485.637	5857.7
485.841	5876.13
486.045	5808.55
486.249	5947.81
486.453	5935.53
486.657	5882.28
486.861	5972.39
487.065	5777.83
487.269	5812.65
487.473	5851.56
487.677	6019.49
487.881	5849.51
488.085	5960.1
488.289	6037.92
488.493	5935.53
488.697	6064.55
488.901	5923.24
489.105	5880.23
489.309	6015.4
489.512	5884.33
489.716	6029.73
489.92	6076.84
490.124	5863.85
490.328	6183.33
490.531	5869.99
490.735	6074.79
490.939	6025.64
491.143	6025.64
491.346	6035.88
491.55	6273.44
491.754	6310.3
491.958	6285.73
492.161	6177.19
492.365	6224.29
492.569	6257.06
492.772	6242.72
492.976	6275.49
493.18	6279.58
493.383	6642.07
493.587	6498.72
493.79	6545.82
493.994	6560.16
494.197	6689.18
494.401	6568.35
494.605	6875.54
494.808	7000.47
495.012	6867.35
495.215	6703.51
495.419	6982.04
495.622	6936.98
495.825	6865.3
496.029	6996.37
496.232	7252.37
496.436	7004.57
496.639	7481.74
496.843	7233.94
497.046	7395.73
497.249	7590.28
497.453	7424.4
497.656	7709.07
497.859	7473.55
498.063	7915.91
498.266	7774.6
498.469	7967.11
498.673	8079.75
498.876	8153.48
499.079	8259.97
499.282	8253.83
499.485	8581.5
499.689	8425.86
499.892	8825.21
500.095	8708.48
500.298	8931.7
500.501	8796.54
500.705	8956.28
500.908	9271.67
501.111	9361.78
501.314	9300.34
501.517	9431.41
501.72	9642.35
501.923	9519.47
502.126	9754.99
502.329	10142.05
502.532	10084.71
502.735	10203.49
502.938	10488.16
503.141	10246.5
503.344	10656.09
503.547	10525.02
503.75	10856.79
503.953	11149.65
504.156	11028.82
504.359	11225.43
504.562	11323.73
504.765	11499.86
504.968	11665.74
505.17	11827.53
505.373	11927.88
505.576	12357.96
505.779	12280.13
505.982	12276.04
506.185	12734.78
506.387	12411.2
506.59	12681.53
506.793	13244.73
506.996	12880.19
507.198	13373.75
507.401	13277.49
507.604	13451.57
507.807	13953.32
508.009	14074.15
508.212	13981.99
508.415	14405.92
508.617	14524.71
508.82	14922.01
509.022	14493.99
509.225	15182.1
509.428	15247.64
509.63	15493.4
509.833	15696.14
510.035	16007.44
510.238	15931.66
510.44	16158.99
510.643	16707.84
510.845	16703.75
511.048	16613.63
511.25	16886.01
511.453	17137.91
511.655	17684.72
511.858	17727.73
512.06	17744.11
512.262	17832.18
512.465	17989.87
512.667	18462.95
512.87	18794.72
513.072	18567.4
513.274	19206.36
513.477	19132.64
513.679	19581.14
513.881	19914.96
514.084	19927.25
514.286	20037.84
514.488	20086.99
514.69	20660.42
514.893	20926.66
515.095	21133.5
515.297	21536.95
515.499	21559.48
515.701	21827.76
515.904	22155.44
516.106	22319.28
516.308	22634.66
516.51	22876.32
516.712	22855.84
516.914	23294.11
517.116	23654.55
517.318	23947.41
517.52	24062.1
517.722	24189.07
517.925	24508.55
518.127	25034.88
518.329	24987.78
518.531	24897.67
518.733	25626.74
518.935	26079.35
519.136	25829.49
519.338	26329.2
519.54	26443.88
519.742	27039.84
519.944	27222.11
520.146	27672.67
520.348	27553.88
520.55	27957.33
520.752	27949.14
520.954	28381.26
521.155	28719.18
521.357	28981.32
521.559	29476.93
521.761	29708.35
521.963	29745.21
522.164	29880.38
522.366	30189.62
522.568	30343.22
522.77	30582.83
522.971	31203.36
523.173	31041.57
523.375	31359.01
523.576	31729.69
523.778	31322.15
523.98	32122.9
524.181	32460.82
524.383	32491.54
524.584	32296.98
524.786	33038.34
524.988	32964.62
525.189	33370.11
525.391	33951.74
525.592	33617.92
525.794	33699.84
525.995	33970.17
526.197	34029.56
526.398	34177.01
526.6	34410.48
526.801	34666.48
527.003	34725.87
527.204	34547.7
527.406	35381.22
527.607	35182.57
527.808	35530.72
528.01	35086.31
528.211	35360.74
528.412	36679.63
528.614	35983.32
528.815	35958.75
529.016	36286.42
529.218	36415.44
529.419	36501.46
529.62	36788.17
529.822	36519.89
530.023	36716.5
530.224	36628.43
530.425	36849.61
530.626	36784.08
530.828	36593.62
531.029	37386.18
531.23	36945.87
531.431	36829.13
531.632	37015.5
531.833	37042.12
532.035	37038.03
532.236	37760.96
532.437	37421
532.638	37015.5
532.839	38174.65
533.04	37795.78
533.241	37377.99
533.442	38109.11
533.643	37400.52
533.844	37713.86
534.045	37879.74
534.246	37752.77
534.447	38031.29
534.648	37767.1
534.849	38170.55
535.05	37832.64
535.251	38268.86
535.451	37830.59
535.652	37916.61
535.853	37992.38
536.054	38082.49
536.255	38238.14
536.456	38172.6
536.657	38287.29
536.857	37842.88
537.058	37666.75
537.259	38272.95
537.46	38307.77
537.66	37769.15
537.861	37789.63
538.062	38246.33
538.263	38170.55
538.463	38324.15
538.664	38127.55
538.865	38223.8
539.065	38502.32
539.266	37785.54
539.466	38250.42
539.667	37826.49
539.868	38397.88
540.068	37980.09
540.269	38348.73
540.469	38571.96
540.67	37681.09
540.87	38506.42
541.071	37734.34
541.271	38399.93
541.472	37969.85
541.672	38188.99
541.873	38340.53
542.073	37539.78
542.274	38289.34
542.474	38213.56
542.675	38170.55
542.875	38623.15
543.075	38170.55
543.276	37775.3
543.476	38711.22
543.676	37904.32
543.877	38223.8
544.077	37996.48
544.277	37953.47
544.478	38174.65
544.678	38309.82
544.878	37775.3
545.078	38289.34
545.279	38277.05
545.479	38027.2
545.679	37814.21
545.879	38115.26
546.079	37935.04
546.28	38492.08
546.48	37826.49
546.68	38150.07
546.88	38105.02
547.08	38135.74
547.28	38135.74
547.48	37529.54
547.68	38727.6
547.88	37699.52
548.081	38487.99
548.281	37943.23
548.481	38098.87
548.681	38293.43
548.881	38098.87
549.081	37494.72
549.28	37666.75
549.48	38098.87
549.68	37801.92
549.88	38148.03
550.08	38019
550.28	38152.12
550.48	38062.01
550.68	38639.54
550.88	37687.23
551.08	38094.78
551.279	38467.51
551.479	37773.25
551.679	38143.93
551.879	37998.52
552.079	38442.93
552.278	38201.27
552.478	37793.73
552.678	38016.96
552.878	37965.76
553.077	37920.7
553.277	37668.8
553.477	38365.11
553.676	37646.27
553.876	37922.75
554.076	37691.33
554.275	37730.24
554.475	37296.07
554.674	37478.34
554.874	37695.42
555.074	37720
555.273	37994.43
555.473	37715.9
555.672	37351.37
555.872	37713.86
556.071	38072.25
556.271	37775.3
556.47	37017.55
556.67	36874.19
556.869	37214.15
557.068	37433.28
557.268	37095.37
557.467	37046.22
557.667	37582.79
557.866	37238.73
558.065	37054.41
558.265	36773.84
558.464	36706.26
558.663	37332.93
558.863	36884.43
559.062	37279.69
559.261	36282.33
559.461	37013.45
559.66	36495.32
559.859	36904.91
560.058	36282.33
560.258	36259.8
560.457	36218.84
560.656	36528.08
560.855	35966.94
561.054	36366.29
561.253	36042.71
561.453	36478.93
561.652	36110.3
561.851	36042.71
562.05	36065.24
562.249	35930.08
562.448	36030.43
562.647	36138.97
562.846	36024.28
563.045	35690.46
563.244	35418.08
563.443	35878.88
563.642	35282.92
563.841	35588.06
564.04	35571.68
564.239	36071.39
564.438	35108.84
564.637	35246.05
564.836	35264.49
565.035	34772.97
565.234	35241.96
565.432	35176.42
565.631	34746.35
565.83	35051.5
566.029	35035.11
566.228	34619.38
566.427	34695.15
566.625	34840.56
566.824	34365.43
567.023	34275.32
567.222	33937.4
567.42	34547.7
567.619	34297.84
567.818	34344.95
568.016	34086.9
568.215	34226.17
568.414	33861.63
568.612	34199.54
568.811	33845.24
569.01	34037.75
569.208	33337.35
569.407	33837.05
569.605	33476.61
569.804	33634.3
570.002	33120.26
570.201	33468.42
570.4	33280
570.598	32575.5
570.797	32811.02
570.995	32870.41
571.193	32753.68
571.392	32798.73
571.59	32655.37
571.789	32380.95
571.987	32419.86
572.186	32628.75
572.384	32129.05
572.582	32221.2
572.781	32368.66
572.979	31844.38
573.177	32004.12
573.376	32110.61
573.574	31885.34
573.772	31741.98
573.971	31258.66
574.169	31264.8
574.367	31293.47
574.565	31692.83
574.763	30892.07
574.962	30896.17
575.16	30699.56
575.358	31424.54
575.556	30607.4
575.754	30996.52
575.952	30582.83
576.151	30756.91
576.349	30122.04
576.547	30232.63
576.745	30359.6
576.943	30179.38
577.141	30128.18
577.339	30128.18
577.537	29837.37
577.735	29968.44
577.933	29571.13
578.131	29863.99
578.329	29608
578.527	29634.62
578.725	29462.59
578.923	29681.72
579.121	28997.7
579.319	29259.84
579.516	29132.87
579.714	29239.36
579.912	29048.9
580.11	28784.71
580.308	28737.61
580.506	28401.74
580.704	28248.14
580.901	28829.77
581.099	28514.38
581.297	28014.68
581.495	28256.34
581.692	28209.23
581.89	27719.77
582.088	27897.94
582.285	27859.03
582.483	27850.84
582.681	27713.63
582.878	27766.87
583.076	27576.41
583.274	27828.31
583.471	27332.7
583.669	27508.83
583.866	27039.84
584.064	27480.16
584.262	26923.11
584.459	27132
584.657	27088.99
584.854	26912.87
585.052	26466.41
585.249	26773.61
585.447	27035.75
585.644	26372.21
585.841	26722.41
586.039	26562.67
586.236	26222.7
586.434	25852.02
586.631	26038.39
586.828	26230.9
587.026	25852.02
587.223	26024.05
587.42	25593.98
587.618	25653.37
587.815	25401.47
588.012	25475.2
588.21	25524.35
588.407	25561.21
588.604	25260.16
588.801	25538.68
588.999	25077.89
589.196	25051.27
589.393	25393.28
589.59	25127.04
589.787	25100.42
589.984	24938.63
590.182	24332.43
590.379	24580.23
590.576	24676.49
590.773	24811.65
590.97	24625.29
591.167	24440.97
591.364	24443.02
591.561	23990.42
591.758	24029.33
591.955	24291.47
592.152	24232.08
592.349	23765.14
592.546	24060.05
592.743	23955.6
592.94	23527.58
593.137	23685.27
593.334	23795.86
593.531	23146.65
593.727	23683.22
593.924	23429.27
594.121	23167.13
594.318	23603.35
594.515	23046.3
594.712	23478.43
594.908	23343.26
595.105	23234.72
595.302	23050.4
595.499	22933.67
595.696	22780.07
595.892	22685.86
596.089	22759.59
596.286	22413.48
596.482	22448.3
596.679	22583.46
596.876	22429.87
597.072	22122.67
597.269	22515.88
597.466	22067.38
597.662	22229.16
597.859	22206.64
598.055	22216.88
598.252	21987.5
598.448	21993.65
598.645	21905.59
598.841	21651.64
599.038	21723.32
599.234	21692.6
599.431	21649.59
599.627	21590.2
599.824	21647.54
600.02	21389.5
600.217	21547.19
600.413	21235.9
600.609	21115.07
600.806	21106.88
601.002	20984
601.198	21020.86
601.395	20838.59
601.591	21072.06
601.787	20670.66
601.984	20834.5
602.18	20771.01
602.376	20467.91
602.572	20326.6
602.769	20349.13
602.965	20244.68
603.161	20385.99
603.357	20037.84
603.553	20418.76
603.75	20385.99
603.946	19996.88
604.142	20156.62
604.338	19710.16
604.534	20066.51
604.73	19675.35
604.926	19808.47
605.122	20056.27
605.318	19531.99
605.514	19529.94
605.71	19509.46
605.906	19427.54
606.102	19241.18
606.298	19265.75
606.494	19103.96
606.69	19300.57
606.886	19116.25
607.082	18921.7
607.278	19085.53
607.474	18800.87
607.67	19052.77
607.866	18858.21
608.062	18958.56
608.257	18905.31
608.453	18895.07
608.649	18436.33
608.845	18378.98
609.041	18161.9
609.236	18469.09
609.432	18043.12
609.628	18407.66
609.824	18497.77
610.019	18436.33
610.215	17998.06
610.411	18333.93
610.606	17957.1
610.802	18024.68
610.998	17797.36
611.193	17975.53
611.389	17572.08
611.584	17879.28
611.78	17414.39
611.976	17604.85
612.171	17645.81
612.367	17375.48
612.562	17512.69
612.758	17535.22
612.953	17432.82
613.149	17465.59
613.344	17092.86
613.539	17355
613.735	17350.9
613.93	17355
614.126	17250.55
614.321	17074.43
614.517	17072.38
614.712	17244.41
614.907	16920.83
615.103	16890.11
615.298	16853.25
615.493	17096.96
615.688	16693.51
615.884	16840.96
616.079	16558.34
616.274	16773.38
616.47	16593.15
616.665	16783.62
616.86	16838.91
617.055	16429.32
617.25	16402.69
617.445	16474.37
617.641	16197.9
617.836	16374.02
618.031	16120.07
618.226	16158.99
618.421	15995.15
618.616	16156.94
618.811	15900.94
619.006	16077.07
619.201	15708.43
619.396	15776.02
619.591	15657.23
619.786	15649.04
619.981	15335.7
620.176	15700.24
620.371	15438.1
620.566	15274.26
620.761	15206.68
620.956	15431.96
621.151	15153.43
621.346	15151.38
621.541	14924.06
621.735	15001.88
621.93	14836
622.125	14700.83
622.32	14594.34
622.515	14623.01
622.709	14326.05
622.904	14379.3
623.099	14389.54
623.294	14299.43
623.488	14088.49
623.683	14047.53
623.878	13920.56
624.072	13957.42
624.267	14027.05
624.462	13887.79
624.656	13750.57
624.851	13773.1
625.046	13701.42
625.24	13459.76
625.435	13431.09
625.629	13437.23
625.824	13353.27
626.018	13187.38
626.213	13048.12
626.407	12910.91
626.602	12839.23
626.796	13003.07
626.991	12878.14
627.185	12566.85
627.38	12724.54
627.574	12452.16
627.768	12568.9
627.963	12572.99
628.157	12581.18
628.352	12536.13
628.546	12155.21
628.74	12267.84
628.935	12048.71
629.129	12099.91
629.323	12124.49
629.517	12087.62
629.712	12028.23
629.906	11737.42
630.1	11727.18
630.294	11995.46
630.489	11786.57
630.683	11858.25
630.877	11389.27
631.071	11497.81
631.265	11604.3
631.459	11422.03
631.653	11340.11
631.848	11323.73
632.042	11168.09
632.236	11245.91
632.43	11053.4
632.624	11100.5
632.818	10899.8
633.012	10936.67
633.206	10891.61
633.4	10817.88
633.594	10705.24
633.788	10617.18
633.982	10600.8
634.176	10633.57
634.369	10582.37
634.563	10760.54
634.757	10242.4
634.951	10543.46
635.145	10277.22
635.339	10369.38
635.533	10246.5
635.726	10178.92
635.92	10113.38
636.114	10193.25
636.308	9974.12
636.501	9875.82
636.695	10002.79
636.889	9990.5
637.083	9843.05
637.276	9593.2
637.47	9707.88
637.664	9515.37
637.857	9597.29
638.051	9666.92
638.244	9271.67
638.438	9372.02
638.632	9298.29
638.825	9425.26
639.019	9214.32
639.212	9302.39
639.406	9204.08
639.599	9134.45
639.793	8952.18
639.986	8864.12
640.18	9085.3
640.373	8956.28
640.567	8814.97
640.76	8843.64
640.954	8814.97
641.147	8632.7
641.34	8745.34
641.534	8741.24
641.727	8571.26
641.92	8601.98
642.114	8642.94
642.307	8528.25
642.5	8286.59
642.694	8249.73
642.887	8249.73
643.08	8436.1
643.273	8268.16
643.467	8003.97
643.66	8145.28
643.853	8022.41
644.046	7977.35
644.239	8038.79
644.432	7901.58
644.626	8053.13
644.819	7741.83
645.012	7741.83
645.205	7543.18
645.398	7715.21
645.591	7768.46
645.784	7446.93
645.977	7315.86
646.17	7623.05
646.363	7371.15
646.556	7422.35
646.749	7375.25
646.942	7344.53
647.135	7109.01
647.328	7231.89
647.521	7139.73
647.714	7156.11
647.907	7061.91
648.099	6957.46
648.292	7106.96
648.485	7096.72
648.678	6881.69
648.871	6646.17
649.064	6791.58
649.256	6767
649.449	6613.4
649.642	6633.88
649.835	6779.29
650.027	6627.74
650.22	6400.41
650.413	6664.6
650.605	6627.74
650.798	6306.21
650.991	6373.79
651.183	6322.59
651.376	6361.5
651.568	6222.24
651.761	6138.27
651.954	6091.17
652.146	6191.52
652.339	6091.17
652.531	6052.26
652.724	6048.16
652.916	5896.61
653.109	5970.34
653.301	5818.79
653.494	5775.78
653.686	5900.71
653.879	5820.84
654.071	5695.91
654.263	5609.9
654.456	5657
654.648	5759.4
654.84	5558.7
655.033	5616.04
655.225	5392.81
655.417	5495.21
655.61	5474.73
655.802	5417.39
655.994	5384.62
656.186	5353.9
656.379	5321.13
656.571	5407.15
656.763	5368.24
656.955	5099.95
657.148	5280.18
657.34	5147.06
657.532	5149.11
657.724	5181.87
657.916	5136.82
658.108	4989.36
658.3	5054.9
658.492	5075.38
658.684	4966.84
658.876	4954.55
659.068	4987.32
659.26	4878.77
659.452	4774.33
659.644	4737.46
659.836	4841.91
660.028	4803
660.22	4524.47
660.412	4508.09
660.604	4506.04
660.796	4714.94
660.988	4452.8
661.18	4485.56
661.372	4506.04
661.563	4391.36
661.755	4526.52
661.947	4518.33
662.139	4260.29
662.331	4383.17
662.522	4235.71
662.714	4291.01
662.906	4227.52
663.097	4057.54
663.289	4149.7
663.481	4098.5
663.673	4022.72
663.864	4059.59
664.056	4071.87
664.247	3963.33
664.439	4092.35
664.631	4116.93
664.822	3996.1
665.014	3901.89
665.205	3908.04
665.397	3867.08
665.588	3862.98
665.78	3844.55
665.971	3869.12
666.163	3801.54
666.354	3693
666.546	3854.79
666.737	3725.77
666.929	3840.45
667.12	3717.58
667.311	3688.9
667.503	3586.51
667.694	3627.46
667.885	3836.36
668.077	3412.43
668.268	3541.45
668.459	3432.91
668.651	3480.01
668.842	3469.77
669.033	3494.35
669.224	3533.26
669.416	3518.92
669.607	3437
669.798	3355.08
669.989	3592.65
670.18	3439.05
670.371	3346.89
670.563	3412.43
670.754	3463.63
670.945	3232.21
671.136	3350.99
671.327	3203.54
671.518	3312.08
671.709	3240.4
671.9	3396.04
672.091	3293.65
672.282	3228.11
672.473	3115.47
672.664	3156.43
672.855	3195.34
673.046	3189.2
673.237	3217.87
673.428	3158.48
673.619	3191.25
673.809	3076.56
674	3156.43
674.191	3144.14
674.382	3006.93
674.573	3152.34
674.764	3027.41
674.954	3002.83
675.145	2988.5
675.336	2994.64
675.527	3008.98
675.717	3070.42
675.908	2908.63
676.099	2931.16
676.289	3062.23
676.48	3033.55
676.671	2865.62
676.861	2912.72
677.052	2877.91
677.243	2859.48
677.433	2976.21
677.624	2865.62
677.814	2906.58
678.005	2988.5
678.195	2970.07
678.386	2970.07
678.576	2757.08
678.767	2822.61
678.957	2910.68
679.148	2894.29
679.338	2925.01
679.529	2859.48
679.719	2808.28
679.909	2904.53
680.1	2963.92
680.29	2943.44
680.481	2814.42
680.671	2769.37
680.861	2697.69
681.052	2716.12
681.242	2775.51
681.432	2765.27
681.622	2738.65
681.813	2804.18
682.003	2669.02
682.193	2599.38
682.383	2703.83
682.573	2693.59
682.764	2556.38
682.954	2701.78
683.144	2685.4
683.334	2669.02
683.524	2728.41
683.714	2634.2
683.904	2673.11
684.094	2759.13
684.284	2757.08
684.474	2742.74
684.664	2539.99
684.854	2597.34
685.044	2628.06
685.234	2763.22
685.424	2689.49
685.614	2716.12
685.804	2662.87
685.994	2632.15
686.184	2621.91
686.374	2591.19
686.564	2650.58
686.753	2617.82
686.943	2740.69
687.133	2664.92
687.323	2576.86
687.513	2562.52
687.702	2558.42
687.892	2628.06
688.082	2542.04
688.272	2654.68
688.461	2630.1
688.651	2505.18
688.841	2476.51
689.03	2492.89
689.22	2566.62
689.41	2664.92
689.599	2660.82
689.789	2488.79
689.979	2560.47
690.168	2630.1
690.358	2523.61
690.547	2609.62
690.737	2664.92
690.926	2568.66
691.116	2503.13
691.305	2587.1
691.495	2511.32
691.684	2486.75
691.874	2564.57
692.063	2564.57
692.252	2566.62
692.442	2619.86
692.631	2558.42
692.82	2550.23
693.01	2511.32
693.199	2634.2
693.388	2486.75
693.578	2658.78
693.767	2490.84
693.956	2583
694.146	2511.32
694.335	2521.56
694.524	2669.02
694.713	2591.19
694.902	2535.9
695.092	2607.58
695.281	2503.13
695.47	2564.57
695.659	2556.38
695.848	2533.85
696.037	2539.99
696.226	2537.95
696.415	2554.33
696.604	2437.59
696.793	2572.76
696.982	2564.57
697.171	2626.01
697.36	2595.29
697.549	2529.75
697.738	2464.22
697.927	2556.38
698.116	2413.02
698.305	2560.47
698.494	2648.54
698.683	2619.86
698.872	2521.56
699.061	2509.27
699.25	2402.78
699.438	2636.25
699.627	2583
699.816	2460.12
700.005	2658.78
700.193	2509.27
700.382	2462.17
700.571	2562.52
700.76	2533.85
700.948	2539.99
701.137	2542.04
701.326	2583
701.514	2476.51
701.703	2517.47
701.892	2617.82
702.08	2554.33
702.269	2466.27
702.457	2318.81
702.646	2456.03
702.834	2587.1
703.023	2466.27
703.212	2494.94
703.4	2494.94
703.589	2458.07
703.777	2413.02
703.965	2546.14
704.154	2474.46
704.342	2558.42
704.531	2345.44
704.719	2484.7
704.907	2351.58
705.096	2365.92
705.284	2458.07
705.472	2433.5
705.661	2324.96
705.849	2441.69
706.037	2425.31
706.226	2488.79
706.414	2421.21
706.602	2370.01
706.79	2392.54
706.979	2376.16
707.167	2394.59
707.355	2337.24
707.543	2435.55
707.731	2353.63
707.919	2247.13
708.107	2138.59
708.296	2257.37
708.484	2322.91
708.672	2286.05
708.86	2167.26
709.048	2337.24
709.236	2259.42
709.424	2206.17
709.612	2249.18
709.8	2249.18
709.988	2273.76
710.176	2275.81
710.364	2255.33
710.551	2214.37
710.739	2284
710.927	2281.95
711.115	2306.52
711.303	2154.98
711.491	2197.98
711.679	2138.59
711.866	2152.93
712.054	2234.85
712.242	2208.22
712.43	2163.17
712.617	2195.93
712.805	2177.5
712.993	2238.94
713.181	2015.71
713.368	2097.63
713.556	2152.93
713.744	2073.06
713.931	2091.49
714.119	2152.93
714.306	2101.73
714.494	2075.1
714.682	2068.96
714.869	2011.62
715.057	2093.54
715.244	1935.84
715.432	1921.51
715.619	2126.3
715.807	2114.02
715.994	1921.51
716.182	1982.95
716.369	1960.42
716.556	2060.77
716.744	1968.61
716.931	1954.27
717.119	1991.14
717.306	1968.61
717.493	1972.71
717.681	1964.51
717.868	1892.84
718.055	1980.9
718.242	2036.19
718.43	1792.48
718.617	1866.21
718.804	1870.31
718.991	1866.21
719.179	1935.84
719.366	1919.46
719.553	1853.92
719.74	1827.3
719.927	1843.68
720.114	1808.87
720.301	1704.42
720.488	1839.59
720.676	1804.77
720.863	1786.34
721.05	1729
721.237	1808.87
721.424	1776.1
721.611	1798.63
721.798	1878.5
721.985	1747.43
722.172	1690.09
722.358	1749.48
722.545	1688.04
722.732	1753.57
722.919	1634.79
723.106	1681.89
723.293	1714.66
723.48	1675.75
723.667	1720.81
723.853	1704.42
724.04	1708.52
724.227	1575.4
724.414	1630.7
724.6	1681.89
724.787	1716.71
724.974	1595.88
725.161	1556.97
725.347	1671.65
725.534	1556.97
725.72	1622.5
725.907	1542.63
726.094	1630.7
726.28	1489.39
726.467	1624.55
726.653	1573.35
726.84	1618.41
727.027	1647.08
727.213	1567.21
727.4	1468.91
727.586	1626.6
727.773	1575.4
727.959	1552.87
728.145	1509.86
728.332	1518.06
728.518	1567.21
728.705	1442.28
728.891	1489.39
729.077	1511.91
729.264	1579.5
729.45	1415.66
729.636	1524.2
729.823	1511.91
730.009	1518.06
730.195	1450.47
730.382	1425.9
730.568	1495.53
730.754	1411.56
730.94	1417.71
731.126	1499.63
731.313	1468.91
731.499	1456.62
731.685	1419.75
731.871	1454.57
732.057	1352.17
732.243	1323.5
732.429	1409.51
732.615	1370.6
732.801	1397.23
732.987	1466.86
733.173	1378.79
733.359	1397.23
733.545	1311.21
733.731	1341.93
733.917	1366.51
734.103	1286.64
734.289	1374.7
734.475	1331.69
734.661	1362.41
734.847	1292.78
735.033	1391.08
735.219	1378.79
735.404	1329.64
735.59	1321.45
735.776	1305.07
735.962	1249.77
736.148	1329.64
736.333	1262.06
736.519	1303.02
736.705	1323.5
736.89	1260.01
737.076	1286.64
737.262	1231.34
737.447	1280.49
737.633	1227.25
737.819	1311.21
738.004	1208.81
738.19	1264.11
738.375	1096.18
738.561	1305.07
738.747	1278.44
738.932	1182.19
739.118	1292.78
739.303	1270.25
739.489	1241.58
739.674	1227.25
739.859	1210.86
740.045	1169.9
740.23	1243.63
740.416	1120.75
740.601	1114.61
740.786	1198.57
740.972	1206.77
741.157	1202.67
741.342	1159.66
741.528	1200.62
741.713	1139.18
741.898	1102.32
742.084	1206.77
742.269	1110.51
742.454	1169.9
742.639	1169.9
742.824	1071.6
743.01	1083.89
743.195	1090.03
743.38	1112.56
743.565	1061.36
743.75	1073.65
743.935	1100.27
744.12	1030.64
744.305	1038.83
744.49	1010.16
744.675	1092.08
744.86	1065.46
745.045	1018.35
745.23	1030.64
745.415	1087.98
745.6	946.67
745.785	989.68
745.97	950.77
746.155	977.39
746.34	1077.74
746.525	1006.06
746.71	1008.11
746.895	1006.06
747.079	977.39
747.264	1008.11
747.449	1014.26
747.634	920.05
747.819	975.35
748.003	907.76
748.188	856.56
748.373	874.99
748.557	911.86
748.742	954.87
748.927	866.8
749.111	924.15
749.296	879.09
749.481	950.77
749.665	872.95
749.85	801.27
750.034	913.91
750.219	866.8
750.404	883.19
750.588	795.12
750.773	752.12
750.957	838.13
751.141	848.37
751.326	909.81
751.51	819.7
751.695	786.93
751.879	797.17
752.064	879.09
752.248	856.56
752.432	799.22
752.617	819.7
752.801	834.04
752.985	788.98
753.17	797.17
753.354	813.56
753.538	801.27
753.722	741.88
753.907	788.98
754.091	729.59
754.275	707.06
754.459	623.09
754.643	768.5
754.828	684.53
755.012	780.79
755.196	727.54
755.38	780.79
755.564	682.49
755.748	739.83
755.932	729.59
756.116	707.06
756.3	678.39
756.484	659.96
756.668	647.67
756.852	610.81
757.036	709.11
757.22	688.63
757.404	670.2
757.588	672.25
757.772	621.05
757.956	575.99
758.14	727.54
758.323	678.39
758.507	707.06
758.691	588.28
758.875	680.44
759.059	647.67
759.242	582.14
759.426	702.97
759.61	580.09
759.794	596.47
759.977	586.23
760.161	602.61
760.345	608.76
760.528	635.38
760.712	543.22
760.895	551.42
761.079	586.23
761.263	627.19
761.446	571.9
761.63	639.48
761.813	553.46
761.997	655.86
762.18	639.48
762.364	600.57
762.547	537.08
762.731	612.85
762.914	596.47
763.098	537.08
763.281	594.42
763.464	549.37
763.648	563.7
763.831	526.84
764.015	535.03
764.198	557.56
764.381	590.33
764.564	559.61
764.748	516.6
764.931	565.75
765.114	446.97
765.297	561.66
765.481	504.31
765.664	524.79
765.847	573.94
766.03	580.09
766.213	520.7
766.397	539.13
766.58	565.75
766.763	580.09
766.946	508.41
767.129	616.95
767.312	535.03
767.495	510.46
767.678	532.98
767.861	489.98
768.044	526.84
768.227	492.02
768.41	457.21
768.593	500.22
768.776	555.51
768.959	500.22
769.142	461.3
769.324	524.79
769.507	428.54
769.69	518.65
769.873	461.3
770.056	498.17
770.239	553.46
770.421	471.54
770.604	449.02
770.787	412.15
770.97	459.26
771.152	481.78
771.335	485.88
771.518	426.49
771.7	514.55
771.883	432.63
772.066	514.55
772.248	537.08
772.431	522.74
772.613	455.16
772.796	383.48
772.978	543.22
773.161	432.63
773.343	422.39
773.526	383.48
773.708	485.88
773.891	403.96
774.073	412.15
774.256	547.32
774.438	416.25
774.621	426.49
774.803	434.68
774.985	444.92
775.168	320
775.35	342.52
775.532	418.3
775.715	406.01
775.897	383.48
776.079	426.49
776.261	373.24
776.444	397.82
776.626	399.87
776.808	383.48
776.99	371.19
777.173	426.49
777.355	354.81
777.537	383.48
777.719	354.81
777.901	422.39
778.083	330.23
778.265	352.76
778.447	303.61
778.629	420.35
778.811	326.14
778.993	342.52
779.175	322.04
779.357	311.8
779.539	369.15
779.721	393.72
779.903	432.63
780.085	375.29
780.267	352.76
780.449	340.47
780.631	379.39
780.812	309.76
780.994	342.52
781.176	297.47
781.358	356.86
781.54	313.85
781.721	389.63
781.903	324.09
782.085	354.81
782.267	336.38
782.448	301.56
782.63	291.32
782.812	270.84
782.993	219.64
783.175	293.37
783.357	330.23
783.538	338.43
783.72	256.51
783.901	260.6
784.083	330.23
784.264	276.99
784.446	264.7
784.627	311.8
784.809	281.08
784.99	291.32
785.172	276.99
785.353	250.36
785.535	252.41
785.716	293.37
785.897	285.18
786.079	305.66
786.26	233.98
786.441	260.6
786.623	285.18
786.804	229.88
786.985	205.31
787.167	270.84
787.348	174.59
787.529	238.08
787.71	313.85
787.891	182.78
788.073	246.27
788.254	217.6
788.435	272.89
788.616	248.32
788.797	158.21
788.978	309.76
789.159	215.55
789.34	233.98
789.522	207.36
789.703	223.74
789.884	303.61
790.065	172.54
790.246	256.51
790.427	215.55
790.607	178.69
790.788	166.4
790.969	102.91
791.15	240.12
791.331	193.02
791.512	223.74
791.693	137.73
791.874	219.64
792.054	188.93
792.235	236.03
792.416	201.21
792.597	221.69
792.778	203.26
792.958	147.97
793.139	203.26
793.32	143.87
793.5	147.97
793.681	141.82
793.862	180.73
794.042	147.97
794.223	158.21
794.404	209.4
794.584	180.73
794.765	160.25
794.945	248.32
795.126	162.3
795.306	213.5
795.487	131.58
795.667	152.06
795.848	152.06
796.028	115.2
796.209	115.2
796.389	158.21
796.57	57.86
796.75	123.39
796.93	162.3
797.111	111.1
797.291	80.38
797.471	158.21
797.652	137.73
797.832	147.97
798.012	199.16
798.192	111.1
798.373	178.69
798.553	180.73
798.733	119.29
798.913	180.73
799.093	127.49
799.274	176.64
799.454	150.01
799.634	158.21
799.814	127.49
799.994	195.07
800.174	59.9
800.354	152.06
800.534	147.97
800.714	109.05
800.894	102.91
801.074	127.49
801.254	238.08
801.434	92.67
801.614	131.58
801.794	74.24
801.974	309.76
802.154	145.92
802.334	162.3
802.514	74.24
802.693	137.73
802.873	143.87
803.053	166.4
803.233	152.06
803.413	160.25
803.592	162.3
803.772	123.39
803.952	96.77
804.131	125.44
804.311	53.76
804.491	119.29
804.67	104.96
804.85	111.1
805.03	90.62
805.209	109.05
805.389	145.92
805.568	147.97
805.748	53.76
805.928	76.29
806.107	117.25
806.287	-3.58
806.466	84.48
806.646	123.39
806.825	119.29
807.004	119.29
807.184	20.99
807.363	195.07
807.543	152.06
807.722	133.63
807.901	47.62
808.081	96.77
808.26	23.04
808.439	88.57
808.619	41.47
808.798	107.01
808.977	109.05
809.156	74.24
809.336	90.62
809.515	145.92
809.694	72.19
809.873	68.09
810.052	109.05
810.231	135.68
810.411	119.29
810.59	53.76
810.769	137.73
810.948	68.09
811.127	72.19
811.306	84.48
811.485	96.77
811.664	100.86
811.843	66.05
812.022	74.24
812.201	76.29
812.38	96.77
812.559	117.25
812.737	115.2
812.916	170.49
813.095	57.86
813.274	102.91
813.453	14.85
813.632	119.29
813.811	8.7
813.989	125.44
814.168	33.28
814.347	78.33
814.526	88.57
814.704	64
814.883	78.33
815.062	111.1
815.24	102.91
815.419	55.81
815.598	86.53
815.776	92.67
815.955	92.67
816.133	16.9
816.312	96.77
816.49	127.49
816.669	27.14
816.847	55.81
817.026	111.1
817.204	14.85
817.383	117.25
817.561	45.57
817.74	86.53
817.918	66.05
818.097	74.24
818.275	-26.11
818.453	78.33
818.632	70.14
818.81	90.62
818.988	92.67
819.167	27.14
819.345	43.52
819.523	70.14
819.701	76.29
819.879	29.18
820.058	59.9
820.236	68.09
820.414	-26.11
820.592	133.63
820.77	57.86
820.948	88.57
821.127	64
821.305	66.05
821.483	113.15
821.661	94.72
821.839	55.81
822.017	20.99
822.195	57.86
822.373	98.81
822.551	127.49
822.729	55.81
822.907	43.52
823.085	39.42
823.262	-58.88
823.44	92.67
823.618	78.33
823.796	49.66
823.974	49.66
824.152	98.81
824.329	113.15
824.507	88.57
824.685	31.23
824.863	104.96
825.04	84.48
825.218	-38.4
825.396	18.94
825.574	57.86
825.751	10.75
825.929	37.38
826.107	113.15
826.284	8.7
826.462	53.76
826.639	59.9
826.817	41.47
826.994	64
827.172	49.66
827.349	70.14
827.527	88.57
827.704	51.71
827.882	49.66
828.059	53.76
828.237	2.56
828.414	133.63
828.591	59.9
828.769	4.61
828.946	39.42
829.124	68.09
829.301	86.53
829.478	80.38
829.655	0.51
829.833	55.81
830.01	70.14
830.187	92.67
830.364	25.09
830.542	16.9
830.719	59.9
830.896	20.99
831.073	47.62
831.25	53.76
831.427	53.76
831.604	12.8
831.782	117.25
831.959	68.09
832.136	27.14
832.313	37.38
832.49	76.29
832.667	-28.16
832.844	57.86
833.021	61.95
833.198	31.23
833.374	35.33
833.551	57.86
833.728	-24.06
833.905	98.81
834.082	86.53
834.259	98.81
834.436	25.09
834.612	23.04
834.789	80.38
834.966	45.57
835.143	80.38
835.319	78.33
835.496	53.76
835.673	74.24
835.85	107.01
836.026	4.61
836.203	39.42
836.38	113.15
836.556	6.66
836.733	43.52
836.909	76.29
837.086	-13.82
837.262	29.18
837.439	104.96
837.616	10.75
837.792	4.61
837.968	-38.4
838.145	18.94
838.321	6.66
838.498	23.04
838.674	59.9
838.851	-3.58
839.027	27.14
839.203	100.86
839.38	43.52
839.556	-5.63
839.732	-30.21
839.909	49.66
840.085	37.38
840.261	6.66
840.437	-9.73
840.614	31.23
840.79	35.33
840.966	-40.45
841.142	41.47
841.318	29.18
841.494	37.38
841.671	68.09
841.847	76.29
842.023	27.14
842.199	92.67
842.375	18.94
842.551	29.18
842.727	41.47
842.903	76.29
843.079	64
843.255	47.62
843.431	51.71
843.607	-28.16
843.783	72.19
843.959	16.9
844.134	6.66
844.31	76.29
844.486	39.42
844.662	29.18
844.838	20.99
845.013	23.04
845.189	6.66
845.365	-54.78
845.541	35.33
845.716	84.48
845.892	18.94
846.068	6.66
846.244	76.29
846.419	14.85
846.595	-3.58
846.77	-22.02
846.946	-22.02
847.122	-58.88
847.297	70.14
847.473	59.9
847.648	82.43
847.824	2.56
847.999	12.8
848.175	20.99
848.35	29.18
848.526	37.38
848.701	-30.21
848.876	35.33
849.052	70.14
849.227	43.52
849.403	51.71
849.578	172.54
849.753	27.14
849.929	66.05
850.104	-11.78
850.279	43.52
850.454	-54.78
850.63	-56.83
850.805	-24.06
850.98	14.85
851.155	-40.45
851.33	49.66
851.505	12.8
851.681	-19.97
851.856	23.04
852.031	20.99
852.206	16.9
852.381	-9.73
852.556	0.51
852.731	57.86
852.906	64
853.081	78.33
853.256	2.56
853.431	-15.87
853.606	68.09
853.781	12.8
853.956	-7.68
854.131	43.52
854.305	35.33
854.48	14.85
854.655	29.18
854.83	-36.35
855.005	23.04
855.18	-24.06
855.354	-22.02
855.529	16.9
855.704	98.81
855.879	47.62
856.053	-1.54
856.228	51.71
856.403	27.14
856.577	6.66
856.752	29.18
856.926	43.52
857.101	39.42
857.276	-26.11
857.45	16.9
857.625	-9.73
857.799	18.94
857.974	33.28
858.148	59.9
858.323	31.23
858.497	23.04
858.672	45.57
858.846	72.19
859.02	2.56
859.195	-54.78
859.369	-56.83
859.543	-5.63
859.718	-13.82
859.892	47.62
860.066	-32.26
860.241	12.8
860.415	10.75
860.589	8.7
860.763	16.9
860.938	33.28
861.112	84.48
861.286	-22.02
861.46	-3.58
861.634	-3.58
861.808	41.47
861.982	-22.02
862.157	-56.83
862.331	10.75
862.505	16.9
862.679	55.81
862.853	35.33
863.027	78.33
863.201	29.18
863.375	0.51
863.549	29.18
863.722	-34.3
863.896	57.86
864.07	-24.06
864.244	-56.83
864.418	-30.21
864.592	35.33
864.766	70.14
864.939	-11.78
865.113	-15.87
865.287	31.23
865.461	25.09
865.634	74.24
865.808	37.38
865.982	25.09
866.156	41.47
866.329	-19.97
866.503	-11.78
866.676	25.09
866.85	74.24
867.024	-50.69
867.197	37.38
867.371	-7.68
867.544	41.47
867.718	-38.4
867.891	-34.3
868.065	-32.26
868.238	23.04
868.412	47.62
868.585	-17.92
868.759	14.85
868.932	61.95
869.105	6.66
869.279	27.14
869.452	-15.87
869.625	-17.92
869.799	27.14
869.972	-13.82
870.145	-11.78
870.319	-71.17
870.492	-65.02
870.665	25.09
870.838	0.51
871.011	-58.88
871.185	2.56
871.358	-60.93
871.531	59.9
871.704	-13.82
871.877	8.7
872.05	35.33
872.223	33.28
872.396	-1.54
872.569	39.42
872.742	-9.73
872.915	2.56
873.088	39.42
873.261	-24.06
873.434	4.61
873.607	6.66
873.78	-116.22
873.953	-44.54
874.126	14.85
874.299	4.61
874.471	-22.02
874.644	47.62
874.817	2.56
874.99	10.75
875.163	20.99
875.335	-36.35
875.508	12.8
875.681	12.8
875.853	0.51
876.026	18.94
876.199	-42.5
876.371	-50.69
876.544	-15.87
876.717	-9.73
876.889	-99.84
877.062	23.04
877.234	51.71
877.407	59.9
877.579	18.94
877.752	-42.5
877.924	-15.87
878.097	12.8
878.269	23.04
878.442	-46.59
878.614	18.94
878.786	43.52
878.959	-60.93
879.131	20.99
879.303	-60.93
879.476	12.8
879.648	39.42
879.82	-77.31
879.993	-22.02
880.165	33.28
880.337	68.09
880.509	8.7
880.681	-89.6
880.854	35.33
881.026	-15.87
881.198	80.38
881.37	59.9
881.542	-50.69
881.714	6.66
881.886	-30.21
882.058	-13.82
882.23	43.52
882.402	29.18
882.574	-9.73
882.746	-36.35
882.918	43.52
883.09	27.14
883.262	-38.4
883.434	23.04
883.606	39.42
883.778	-15.87
883.95	-15.87
884.122	29.18
884.293	14.85
884.465	2.56
884.637	20.99
884.809	33.28
884.98	4.61
885.152	-24.06
885.324	92.67
885.496	59.9
885.667	18.94
885.839	-26.11
886.011	-1.54
886.182	-11.78
886.354	-34.3
886.525	-36.35
886.697	31.23
886.869	-46.59
887.04	-17.92
887.212	10.75
887.383	12.8
887.555	-5.63
887.726	6.66
887.897	-30.21
888.069	20.99
888.24	47.62
888.412	-9.73
888.583	-28.16
888.754	-1.54
888.926	35.33
889.097	-19.97
889.268	-17.92
889.44	-19.97
889.611	14.85
889.782	2.56
889.953	10.75
890.125	-9.73
890.296	-22.02
890.467	2.56
890.638	-40.45
890.809	-22.02
890.98	31.23
891.151	33.28
891.323	45.57
891.494	14.85
891.665	-11.78
891.836	-3.58
892.007	53.76
892.178	-22.02
892.349	-11.78
892.52	6.66
892.691	-38.4
892.862	25.09
893.032	-11.78
893.203	-28.16
893.374	-60.93
893.545	41.47
893.716	-42.5
893.887	4.61
894.057	10.75
894.228	-15.87
894.399	-69.12
894.57	37.38
894.74	-71.17
894.911	49.66
895.082	-17.92
895.253	47.62
895.423	-58.88
895.594	-11.78
895.764	-30.21
895.935	47.62
896.106	12.8
896.276	0.51
896.447	20.99
896.617	-67.07
896.788	-30.21
896.958	16.9
897.129	-22.02
897.299	29.18
897.47	-48.64
897.64	-83.45
897.81	2.56
897.981	-30.21
898.151	12.8
898.322	0.51
898.492	8.7
898.662	35.33
898.832	10.75
899.003	12.8
899.173	96.77
899.343	-32.26
899.513	27.14
