Data from USB4F104151__43__13-53-18-238.txt Node

Date: Thu Mar 13 13:53:18 EDT 2025
User: louis
Spectrometer: USB4F10415
Trigger mode: 4
Integration Time (sec): 1.000000E-2
Scans to average: 1
Electric dark correction enabled: true
Nonlinearity correction enabled: false
Boxcar width: 0
XAxis mode: Wavelengths
Number of Pixels in Spectrum: 3648
>>>>>Begin Spectral Data<<<<<
178.204	15.7
178.424	15.7
178.644	15.7
178.864	-17.07
179.084	-29.35
179.304	-55.98
179.524	-8.87
179.744	27.99
179.964	17.75
180.184	-0.68
180.404	64.85
180.624	-23.21
180.844	-2.73
181.064	9.56
181.283	-8.87
181.503	-6.83
181.723	-12.97
181.943	-51.88
182.163	77.14
182.383	-43.69
182.602	13.65
182.822	-33.45
183.042	-29.35
183.262	-62.12
183.482	17.75
183.701	-23.21
183.921	19.8
184.141	42.32
184.361	17.75
184.58	62.8
184.8	-21.16
185.02	-37.55
185.239	-19.11
185.459	19.8
185.679	-4.78
185.898	-23.21
186.118	-6.83
186.338	-8.87
186.557	1.37
186.777	50.52
186.997	-25.26
187.216	25.94
187.436	40.28
187.655	-6.83
187.875	21.85
188.095	7.51
188.314	-0.68
188.534	-0.68
188.753	13.65
188.973	-6.83
189.192	1.37
189.412	-17.07
189.631	-27.31
189.851	30.04
190.07	-6.83
190.29	-62.12
190.509	91.48
190.729	1.37
190.948	-43.69
191.168	42.32
191.387	-17.07
191.607	66.9
191.826	-21.16
192.045	9.56
192.265	-15.02
192.484	52.56
192.704	-37.55
192.923	-0.68
193.142	62.8
193.362	-27.31
193.581	-12.97
193.8	-82.6
194.02	3.41
194.239	-15.02
194.458	-15.02
194.678	87.38
194.897	1.37
195.116	42.32
195.335	-60.07
195.555	17.75
195.774	-25.26
195.993	-19.11
196.212	-53.93
196.432	-35.5
196.651	9.56
196.87	25.94
197.089	50.52
197.308	-2.73
197.528	40.28
197.747	3.41
197.966	27.99
198.185	7.51
198.404	-29.35
198.623	-43.69
198.842	50.52
199.062	50.52
199.281	52.56
199.5	32.08
199.719	30.04
199.938	50.52
200.157	30.04
200.376	-10.92
200.595	-21.16
200.814	25.94
201.033	-19.11
201.252	15.7
201.471	-53.93
201.69	40.28
201.909	-25.26
202.128	-15.02
202.347	-27.31
202.566	19.8
202.785	3.41
203.004	-27.31
203.223	60.76
203.442	19.8
203.661	5.46
203.879	-23.21
204.098	-41.64
204.317	44.37
204.536	7.51
204.755	19.8
204.974	3.41
205.193	-2.73
205.411	17.75
205.63	-6.83
205.849	25.94
206.068	-70.31
206.287	95.57
206.505	9.56
206.724	46.42
206.943	1.37
207.162	42.32
207.381	34.13
207.599	-45.74
207.818	3.41
208.037	13.65
208.255	-19.11
208.474	58.71
208.693	-37.55
208.911	-19.11
209.13	-6.83
209.349	-88.75
209.567	15.7
209.786	34.13
210.005	7.51
210.223	34.13
210.442	-70.31
210.661	3.41
210.879	-74.41
211.098	52.56
211.316	-23.21
211.535	-27.31
211.753	-6.83
211.972	-10.92
212.191	15.7
212.409	79.19
212.628	27.99
212.846	60.76
213.065	5.46
213.283	25.94
213.502	-62.12
213.72	64.85
213.938	-49.83
214.157	-0.68
214.375	3.41
214.594	3.41
214.812	-10.92
215.031	-15.02
215.249	-15.02
215.467	-12.97
215.686	-78.51
215.904	54.61
216.122	-45.74
216.341	42.32
216.559	-72.36
216.778	-29.35
216.996	-21.16
217.214	7.51
217.432	21.85
217.651	-12.97
217.869	-55.98
218.087	17.75
218.306	-12.97
218.524	50.52
218.742	58.71
218.96	13.65
219.179	-25.26
219.397	13.65
219.615	-4.78
219.833	-12.97
220.051	11.61
220.27	34.13
220.488	-8.87
220.706	44.37
220.924	-12.97
221.142	13.65
221.36	-31.4
221.578	11.61
221.796	44.37
222.015	-29.35
222.233	-29.35
222.451	46.42
222.669	27.99
222.887	3.41
223.105	-98.99
223.323	32.08
223.541	-35.5
223.759	54.61
223.977	7.51
224.195	75.09
224.413	44.37
224.631	-55.98
224.849	1.37
225.067	52.56
225.285	-37.55
225.503	42.32
225.721	-23.21
225.939	30.04
226.157	-35.5
226.375	79.19
226.592	99.67
226.81	-4.78
227.028	-45.74
227.246	-19.11
227.464	30.04
227.682	30.04
227.9	17.75
228.117	71
228.335	-23.21
228.553	34.13
228.771	-31.4
228.989	9.56
229.206	-37.55
229.424	32.08
229.642	-15.02
229.86	17.75
230.077	25.94
230.295	-35.5
230.513	30.04
230.731	52.56
230.948	-62.12
231.166	15.7
231.384	-43.69
231.601	-47.79
231.819	-0.68
232.037	30.04
232.254	-64.17
232.472	58.71
232.689	-17.07
232.907	30.04
233.125	-12.97
233.342	38.23
233.56	71
233.777	-31.4
233.995	46.42
234.213	34.13
234.43	11.61
234.648	27.99
234.865	-15.02
235.083	-15.02
235.3	-0.68
235.518	23.89
235.735	30.04
235.953	-58.03
236.17	-19.11
236.388	-29.35
236.605	48.47
236.822	13.65
237.04	-15.02
237.257	-6.83
237.475	-43.69
237.692	-6.83
237.909	1.37
238.127	17.75
238.344	56.66
238.562	30.04
238.779	11.61
238.996	5.46
239.214	-29.35
239.431	9.56
239.648	-8.87
239.865	11.61
240.083	50.52
240.3	-6.83
240.517	40.28
240.735	81.24
240.952	17.75
241.169	38.23
241.386	52.56
241.603	9.56
241.821	38.23
242.038	36.18
242.255	-21.16
242.472	23.89
242.689	30.04
242.907	30.04
243.124	-49.83
243.341	-35.5
243.558	48.47
243.775	9.56
243.992	-27.31
244.209	5.46
244.426	-8.87
244.643	40.28
244.86	13.65
245.078	66.9
245.295	21.85
245.512	-84.65
245.729	85.33
245.946	36.18
246.163	9.56
246.38	38.23
246.597	-27.31
246.814	15.7
247.031	21.85
247.248	44.37
247.464	44.37
247.681	11.61
247.898	-6.83
248.115	23.89
248.332	-49.83
248.549	40.28
248.766	93.52
248.983	54.61
249.2	38.23
249.417	54.61
249.633	9.56
249.85	-39.59
250.067	-55.98
250.284	13.65
250.501	44.37
250.717	-29.35
250.934	-15.02
251.151	7.51
251.368	-31.4
251.585	-2.73
251.801	-51.88
252.018	-31.4
252.235	-53.93
252.451	71
252.668	21.85
252.885	17.75
253.102	15.7
253.318	-23.21
253.535	-82.6
253.752	36.18
253.968	46.42
254.185	-0.68
254.401	-0.68
254.618	-6.83
254.835	-37.55
255.051	79.19
255.268	17.75
255.484	11.61
255.701	-66.22
255.917	13.65
256.134	1.37
256.351	-6.83
256.567	-15.02
256.784	-64.17
257	36.18
257.217	-23.21
257.433	64.85
257.65	91.48
257.866	23.89
258.082	-37.55
258.299	-15.02
258.515	109.91
258.732	32.08
258.948	-19.11
259.165	-35.5
259.381	-98.99
259.597	-6.83
259.814	1.37
260.03	-58.03
260.246	-25.26
260.463	-45.74
260.679	-15.02
260.895	-10.92
261.112	17.75
261.328	-51.88
261.544	-55.98
261.761	44.37
261.977	36.18
262.193	11.61
262.409	23.89
262.626	17.75
262.842	25.94
263.058	-0.68
263.274	17.75
263.49	58.71
263.707	38.23
263.923	-55.98
264.139	27.99
264.355	17.75
264.571	66.9
264.787	-21.16
265.004	-45.74
265.22	-10.92
265.436	68.95
265.652	1.37
265.868	-53.93
266.084	-4.78
266.3	44.37
266.516	73.04
266.732	-2.73
266.948	7.51
267.164	9.56
267.38	52.56
267.596	-23.21
267.812	36.18
268.028	25.94
268.244	52.56
268.46	21.85
268.676	25.94
268.892	30.04
269.108	17.75
269.324	56.66
269.54	-21.16
269.756	9.56
269.972	-58.03
270.188	62.8
270.403	-29.35
270.619	25.94
270.835	34.13
271.051	38.23
271.267	-21.16
271.483	-15.02
271.698	-80.55
271.914	19.8
272.13	-19.11
272.346	60.76
272.562	62.8
272.777	89.43
272.993	-2.73
273.209	-45.74
273.425	-39.59
273.64	-0.68
273.856	-15.02
274.072	34.13
274.287	5.46
274.503	11.61
274.719	42.32
274.934	-6.83
275.15	-33.45
275.366	-25.26
275.581	25.94
275.797	-2.73
276.012	85.33
276.228	27.99
276.444	-90.79
276.659	-2.73
276.875	15.7
277.09	30.04
277.306	-4.78
277.521	5.46
277.737	36.18
277.952	-25.26
278.168	-33.45
278.383	-35.5
278.599	-70.31
278.814	40.28
279.03	-2.73
279.245	19.8
279.461	9.56
279.676	89.43
279.892	3.41
280.107	17.75
280.322	-58.03
280.538	30.04
280.753	-37.55
280.969	-19.11
281.184	36.18
281.399	48.47
281.615	1.37
281.83	64.85
282.045	36.18
282.26	7.51
282.476	-2.73
282.691	83.28
282.906	1.37
283.122	1.37
283.337	-47.79
283.552	15.7
283.767	34.13
283.983	19.8
284.198	-41.64
284.413	40.28
284.628	34.13
284.843	48.47
285.058	-60.07
285.274	-92.84
285.489	62.8
285.704	40.28
285.919	1.37
286.134	19.8
286.349	7.51
286.564	-45.74
286.779	9.56
286.995	-10.92
287.21	-4.78
287.425	-6.83
287.64	-41.64
287.855	21.85
288.07	-17.07
288.285	97.62
288.5	34.13
288.715	11.61
288.93	32.08
289.145	5.46
289.36	-23.21
289.575	-21.16
289.79	7.51
290.004	-29.35
290.219	-23.21
290.434	21.85
290.649	-49.83
290.864	58.71
291.079	-8.87
291.294	23.89
291.509	-29.35
291.724	-0.68
291.938	-41.64
292.153	44.37
292.368	42.32
292.583	81.24
292.798	5.46
293.012	23.89
293.227	-66.22
293.442	13.65
293.657	46.42
293.871	-2.73
294.086	1.37
294.301	23.89
294.516	-31.4
294.73	-2.73
294.945	13.65
295.16	30.04
295.374	21.85
295.589	30.04
295.804	5.46
296.018	-10.92
296.233	101.72
296.447	13.65
296.662	46.42
296.877	68.95
297.091	7.51
297.306	-49.83
297.52	66.9
297.735	15.7
297.949	3.41
298.164	3.41
298.378	21.85
298.593	-43.69
298.807	17.75
299.022	-10.92
299.236	38.23
299.451	64.85
299.665	-27.31
299.88	-49.83
300.094	9.56
300.309	34.13
300.523	-0.68
300.737	68.95
300.952	38.23
301.166	17.75
301.381	19.8
301.595	21.85
301.809	-10.92
302.024	25.94
302.238	44.37
302.452	9.56
302.667	-23.21
302.881	-17.07
303.095	13.65
303.309	34.13
303.524	-29.35
303.738	1.37
303.952	-0.68
304.166	25.94
304.381	27.99
304.595	52.56
304.809	-2.73
305.023	-17.07
305.237	-51.88
305.452	46.42
305.666	-47.79
305.88	11.61
306.094	1.37
306.308	-39.59
306.522	15.7
306.736	11.61
306.95	-2.73
307.164	32.08
307.379	30.04
307.593	9.56
307.807	40.28
308.021	25.94
308.235	56.66
308.449	-10.92
308.663	21.85
308.877	23.89
309.091	-37.55
309.305	50.52
309.519	-19.11
309.733	56.66
309.947	-31.4
310.161	44.37
310.374	-19.11
310.588	71
310.802	64.85
311.016	34.13
311.23	44.37
311.444	-15.02
311.658	-49.83
311.872	-29.35
312.085	-27.31
312.299	77.14
312.513	7.51
312.727	-33.45
312.941	-27.31
313.154	-0.68
313.368	9.56
313.582	7.51
313.796	-35.5
314.009	52.56
314.223	-19.11
314.437	-0.68
314.651	25.94
314.864	-31.4
315.078	-0.68
315.292	3.41
315.505	50.52
315.719	-70.31
315.933	-15.02
316.146	9.56
316.36	34.13
316.573	17.75
316.787	-31.4
317.001	58.71
317.214	-19.11
317.428	52.56
317.641	-55.98
317.855	-62.12
318.068	-4.78
318.282	77.14
318.495	48.47
318.709	21.85
318.922	23.89
319.136	25.94
319.349	1.37
319.563	56.66
319.776	-2.73
319.99	-35.5
320.203	-27.31
320.417	-0.68
320.63	5.46
320.843	103.76
321.057	-6.83
321.27	-0.68
321.483	-0.68
321.697	7.51
321.91	50.52
322.124	-15.02
322.337	-23.21
322.55	34.13
322.763	118.1
322.977	21.85
323.19	19.8
323.403	54.61
323.617	3.41
323.83	21.85
324.043	-6.83
324.256	5.46
324.469	36.18
324.683	46.42
324.896	30.04
325.109	-0.68
325.322	-17.07
325.535	54.61
325.748	21.85
325.962	-19.11
326.175	48.47
326.388	99.67
326.601	38.23
326.814	77.14
327.027	60.76
327.24	38.23
327.453	-8.87
327.666	48.47
327.879	13.65
328.092	-29.35
328.305	-15.02
328.518	5.46
328.731	32.08
328.944	32.08
329.157	-2.73
329.37	19.8
329.583	38.23
329.796	-2.73
330.009	52.56
330.222	44.37
330.435	13.65
330.648	13.65
330.861	75.09
331.073	19.8
331.286	52.56
331.499	13.65
331.712	-6.83
331.925	68.95
332.138	-49.83
332.35	5.46
332.563	-76.46
332.776	30.04
332.989	13.65
333.202	-4.78
333.414	-0.68
333.627	56.66
333.84	-17.07
334.053	-8.87
334.265	73.04
334.478	30.04
334.691	23.89
334.903	11.61
335.116	23.89
335.329	32.08
335.541	19.8
335.754	13.65
335.966	-12.97
336.179	38.23
336.392	-31.4
336.604	44.37
336.817	-4.78
337.029	-33.45
337.242	-68.27
337.454	-10.92
337.667	23.89
337.88	71
338.092	1.37
338.305	120.15
338.517	-76.46
338.729	95.57
338.942	9.56
339.154	36.18
339.367	1.37
339.579	-6.83
339.792	58.71
340.004	46.42
340.217	71
340.429	7.51
340.641	46.42
340.854	15.7
341.066	-15.02
341.278	91.48
341.491	34.13
341.703	13.65
341.915	-45.74
342.128	38.23
342.34	-6.83
342.552	32.08
342.764	-12.97
342.977	-17.07
343.189	-43.69
343.401	34.13
343.613	-43.69
343.826	-25.26
344.038	40.28
344.25	-15.02
344.462	-0.68
344.674	-35.5
344.886	-12.97
345.099	-29.35
345.311	-23.21
345.523	-6.83
345.735	23.89
345.947	-6.83
346.159	-33.45
346.371	52.56
346.583	38.23
346.795	99.67
347.007	32.08
347.219	30.04
347.431	9.56
347.643	73.04
347.855	-12.97
348.067	32.08
348.279	54.61
348.491	-25.26
348.703	-8.87
348.915	7.51
349.127	-37.55
349.339	56.66
349.551	-43.69
349.763	71
349.975	64.85
350.187	34.13
350.399	54.61
350.61	-101.03
350.822	-4.78
351.034	68.95
351.246	40.28
351.458	-27.31
351.669	9.56
351.881	-0.68
352.093	36.18
352.305	-4.78
352.517	27.99
352.728	19.8
352.94	50.52
353.152	-23.21
353.363	-39.59
353.575	-17.07
353.787	-66.22
353.999	13.65
354.21	32.08
354.422	66.9
354.633	-31.4
354.845	-8.87
355.057	-45.74
355.268	15.7
355.48	38.23
355.692	27.99
355.903	-23.21
356.115	-8.87
356.326	5.46
356.538	27.99
356.749	23.89
356.961	46.42
357.172	-27.31
357.384	66.9
357.595	-21.16
357.807	77.14
358.018	-12.97
358.23	81.24
358.441	38.23
358.653	34.13
358.864	93.52
359.075	-10.92
359.287	32.08
359.498	-15.02
359.709	11.61
359.921	36.18
360.132	40.28
360.344	56.66
360.555	-17.07
360.766	21.85
360.977	64.85
361.189	124.24
361.4	-2.73
361.611	30.04
361.823	91.48
362.034	23.89
362.245	32.08
362.456	30.04
362.667	30.04
362.879	-8.87
363.09	5.46
363.301	-10.92
363.512	52.56
363.723	3.41
363.935	-27.31
364.146	-35.5
364.357	36.18
364.568	-15.02
364.779	7.51
364.99	13.65
365.201	5.46
365.412	1.37
365.623	7.51
365.834	58.71
366.045	40.28
366.256	27.99
366.467	13.65
366.678	-64.17
366.889	15.7
367.1	30.04
367.311	5.46
367.522	52.56
367.733	81.24
367.944	46.42
368.155	-10.92
368.366	34.13
368.577	46.42
368.788	52.56
368.999	1.37
369.209	-49.83
369.42	99.67
369.631	44.37
369.842	19.8
370.053	17.75
370.264	75.09
370.474	32.08
370.685	-72.36
370.896	34.13
371.107	23.89
371.317	-33.45
371.528	21.85
371.739	-0.68
371.95	-4.78
372.16	23.89
372.371	42.32
372.582	7.51
372.792	-60.07
373.003	64.85
373.214	-37.55
373.424	-45.74
373.635	7.51
373.846	44.37
374.056	48.47
374.267	40.28
374.477	50.52
374.688	44.37
374.898	36.18
375.109	58.71
375.319	54.61
375.53	42.32
375.74	11.61
375.951	30.04
376.161	7.51
376.372	13.65
376.582	-0.68
376.793	50.52
377.003	44.37
377.214	25.94
377.424	25.94
377.635	5.46
377.845	46.42
378.055	-15.02
378.266	36.18
378.476	-12.97
378.686	97.62
378.897	44.37
379.107	27.99
379.317	83.28
379.528	15.7
379.738	9.56
379.948	40.28
380.158	46.42
380.369	13.65
380.579	120.15
380.789	-6.83
380.999	-2.73
381.21	30.04
381.42	38.23
381.63	-10.92
381.84	23.89
382.05	27.99
382.261	-60.07
382.471	71
382.681	-0.68
382.891	52.56
383.101	68.95
383.311	-41.64
383.521	71
383.731	7.51
383.941	11.61
384.151	-37.55
384.361	48.47
384.571	-0.68
384.781	-4.78
384.991	89.43
385.201	54.61
385.411	13.65
385.621	44.37
385.831	21.85
386.041	25.94
386.251	40.28
386.461	-19.11
386.671	-15.02
386.881	-21.16
387.091	23.89
387.301	32.08
387.511	64.85
387.72	64.85
387.93	-2.73
388.14	11.61
388.35	42.32
388.56	58.71
388.769	40.28
388.979	38.23
389.189	-45.74
389.399	3.41
389.609	46.42
389.818	52.56
390.028	15.7
390.238	7.51
390.447	21.85
390.657	85.33
390.867	-17.07
391.076	89.43
391.286	-25.26
391.496	23.89
391.705	32.08
391.915	71
392.125	-10.92
392.334	27.99
392.544	56.66
392.753	30.04
392.963	-2.73
393.172	-17.07
393.382	23.89
393.591	46.42
393.801	1.37
394.01	97.62
394.22	73.04
394.429	36.18
394.639	-2.73
394.848	-19.11
395.058	52.56
395.267	23.89
395.477	109.91
395.686	40.28
395.895	7.51
396.105	66.9
396.314	30.04
396.524	40.28
396.733	3.41
396.942	48.47
397.152	11.61
397.361	17.75
397.57	32.08
397.78	-25.26
397.989	54.61
398.198	44.37
398.407	56.66
398.617	34.13
398.826	50.52
399.035	5.46
399.244	11.61
399.453	107.86
399.663	52.56
399.872	56.66
400.081	62.8
400.29	71
400.499	17.75
400.708	36.18
400.917	71
401.127	-23.21
401.336	-0.68
401.545	109.91
401.754	19.8
401.963	50.52
402.172	54.61
402.381	36.18
402.59	40.28
402.799	-19.11
403.008	58.71
403.217	93.52
403.426	38.23
403.635	-19.11
403.844	50.52
404.053	56.66
404.262	81.24
404.471	95.57
404.68	68.95
404.888	122.2
405.097	97.62
405.306	-6.83
405.515	134.48
405.724	103.76
405.933	71
406.142	66.9
406.35	142.68
406.559	136.53
406.768	83.28
406.977	50.52
407.185	81.24
407.394	193.87
407.603	48.47
407.812	142.68
408.02	197.97
408.229	144.72
408.438	89.43
408.646	95.57
408.855	54.61
409.064	87.38
409.272	163.15
409.481	138.58
409.69	175.44
409.898	220.5
410.107	165.2
410.315	142.68
410.524	167.25
410.733	208.21
410.941	91.48
411.15	187.73
411.358	320.85
411.567	171.35
411.775	220.5
411.984	159.06
412.192	236.88
412.401	263.51
412.609	243.03
412.818	228.69
413.026	306.51
413.234	238.93
413.443	302.42
413.651	294.22
413.86	281.94
414.068	388.43
414.276	363.86
414.485	392.53
414.693	329.04
414.901	367.95
415.11	339.28
415.318	453.97
415.526	408.91
415.734	359.76
415.943	478.54
416.151	466.25
416.359	439.63
416.567	413.01
416.776	539.98
416.984	525.65
417.192	517.45
417.4	517.45
417.608	488.78
417.817	570.7
418.025	654.67
418.233	683.34
418.441	689.48
418.649	607.56
418.857	720.2
419.065	785.74
419.273	787.79
419.481	795.98
419.689	748.87
419.897	832.84
420.105	898.38
420.313	953.67
420.521	900.42
420.729	859.46
420.937	970.05
421.145	1062.21
421.353	1133.89
421.561	1137.99
421.769	1164.61
421.977	1254.72
422.185	1224
422.393	1287.49
422.601	1271.11
422.809	1262.91
423.017	1236.29
423.224	1297.73
423.432	1383.74
423.64	1471.81
423.848	1553.73
424.056	1484.09
424.263	1514.81
424.471	1512.77
424.679	1664.32
424.887	1756.47
425.094	1692.99
425.302	1793.34
425.51	1854.78
425.718	1889.59
425.925	1953.08
426.133	2022.71
426.341	2149.68
426.548	2168.12
426.756	2184.5
426.964	2135.35
427.171	2411.82
427.379	2358.58
427.586	2465.07
427.794	2485.55
428.001	2637.1
428.209	2708.78
428.417	2745.64
428.624	2905.39
428.832	2792.75
429.039	2868.52
429.247	2913.58
429.454	3290.4
429.662	3374.37
429.869	3198.24
430.076	3384.61
430.284	3265.83
430.491	3499.3
430.699	3595.55
430.906	3603.74
431.114	3779.87
431.321	3667.23
431.528	4044.06
431.736	4097.3
431.943	4252.95
432.15	4177.17
432.358	4240.66
432.565	4521.23
432.772	4650.25
432.979	4803.85
433.187	4805.9
433.394	4828.43
433.601	5041.42
433.808	5158.15
434.016	5088.52
434.223	5311.75
434.43	5559.55
434.637	5594.37
434.844	5813.5
435.052	6096.12
435.259	5909.76
435.466	6030.59
435.673	6087.93
435.88	6331.64
436.087	6548.72
436.294	6788.33
436.501	6651.12
436.708	6532.34
436.915	6995.18
437.122	7261.41
437.329	7212.26
437.537	7580.9
437.743	7496.93
437.95	7308.52
438.157	7593.19
438.364	7916.76
438.571	8189.14
438.778	8084.7
438.985	8955.08
439.192	8578.26
439.399	9018.57
439.606	8719.57
439.813	9114.83
440.02	9909.44
440.227	9393.35
440.433	9407.69
440.64	9798.85
440.847	9735.36
441.054	9858.24
441.261	10493.11
441.467	10581.17
441.674	10648.75
441.881	11019.44
442.088	11054.25
442.294	10775.73
442.501	11244.71
442.708	11443.37
442.914	12098.72
443.121	12565.65
443.328	11963.55
443.534	12989.58
443.741	12506.26
443.948	12299.42
444.154	13294.73
444.361	13190.28
444.568	13374.6
444.774	13446.28
444.981	13642.89
445.187	13773.96
445.394	14523.51
445.6	14359.67
445.807	15670.37
446.013	15072.37
446.22	15215.73
446.426	15727.72
446.633	16026.72
446.839	16548.95
447.046	15742.05
447.252	16720.98
447.459	16534.62
447.665	16768.09
447.871	17433.68
448.078	18164.8
448.284	17196.11
448.491	17914.95
448.697	18263.1
448.903	18834.49
449.11	18525.24
449.316	18529.34
449.522	18752.57
449.728	19420.21
449.935	19481.64
450.141	19559.47
450.347	19682.35
450.553	19287.09
450.76	19350.57
450.966	19905.57
451.172	19735.59
451.378	20290.59
451.584	19835.94
451.791	20368.41
451.997	20415.52
452.203	20907.03
452.409	20804.63
452.615	20691.99
452.821	19975.2
453.027	19553.32
453.233	20595.74
453.44	19682.35
453.646	19921.96
453.852	19948.58
454.058	20530.2
454.264	19747.88
454.47	20245.54
454.676	19635.24
454.882	20380.7
455.088	18639.93
455.294	18814.01
455.5	19020.85
455.705	19276.85
455.911	18410.56
456.117	18150.46
456.323	17933.38
456.529	16987.22
456.735	17822.79
456.941	16983.12
457.147	17144.91
457.352	16350.3
457.558	15977.57
457.764	16112.74
457.97	15881.31
458.176	15416.43
458.381	15602.79
458.587	14664.82
458.793	14802.04
458.999	14044.29
459.204	14982.26
459.41	14351.48
459.616	13577.35
459.821	13909.12
460.027	13831.3
460.233	13270.15
460.438	12637.33
460.644	12774.55
460.85	12213.4
461.055	11861.15
461.261	12092.57
461.466	11199.66
461.672	10853.55
461.878	11869.34
462.083	10839.22
462.289	10878.13
462.494	10423.48
462.7	9929.92
462.905	9872.57
463.111	9977.02
463.316	10343.61
463.522	9880.77
463.727	9929.92
463.932	9888.96
464.138	9911.49
464.343	9893.05
464.549	9553.09
464.754	9962.69
464.959	9946.3
465.165	9690.31
465.37	9290.95
465.575	9186.51
465.781	9592
465.986	9612.48
466.191	9147.59
466.397	9034.96
466.602	8447.19
466.807	8895.69
467.012	9198.79
467.218	8889.55
467.423	8684.75
467.628	8950.99
467.833	8879.31
468.038	8457.43
468.244	8539.35
468.449	8977.61
468.654	8608.98
468.859	8512.72
469.064	8430.8
469.269	8275.16
469.474	8217.82
469.679	8346.84
469.885	8115.42
470.09	8236.25
470.295	8262.87
470.5	7996.64
470.705	7990.49
470.91	7820.51
471.115	7873.76
471.32	7916.76
471.525	7920.86
471.73	7806.17
471.935	7699.68
472.139	7447.78
472.344	7400.68
472.549	7406.82
472.754	7177.45
472.959	7122.15
473.164	7050.47
473.369	6925.55
473.574	7240.93
473.778	7101.67
473.983	7140.58
474.188	7005.42
474.393	6739.18
474.598	6886.64
474.802	6778.09
475.007	6683.89
475.212	6614.26
475.417	6331.64
475.621	6501.62
475.826	6343.92
476.031	6249.72
476.235	6300.92
476.44	6175.99
476.645	6198.52
476.849	6059.26
477.054	6071.54
477.259	5993.72
477.463	5942.52
477.668	5928.19
477.872	6014.2
478.077	5797.12
478.282	5872.89
478.486	5641.47
478.691	5678.33
478.895	5629.18
479.1	5416.19
479.304	5661.95
479.509	5465.35
479.713	5526.78
479.918	5334.28
480.122	5313.8
480.326	5395.72
480.531	5537.02
480.735	5260.55
480.94	5147.91
481.144	5565.7
481.348	5203.21
481.553	5297.41
481.757	5143.81
481.961	5182.73
482.166	5238.02
482.37	5160.2
482.574	5080.33
482.778	5149.96
482.983	5197.06
483.187	5127.43
483.391	5346.56
483.595	5240.07
483.8	5141.77
484.004	5205.25
484.208	5221.64
484.412	5195.01
484.616	5192.97
484.821	5086.47
485.025	5102.86
485.229	5371.14
485.433	5201.16
485.637	5125.38
485.841	5102.86
486.045	5111.05
486.249	5235.97
486.453	5158.15
486.657	5143.81
486.861	5211.4
487.065	5070.09
487.269	5117.19
487.473	5047.56
487.677	5338.37
487.881	5244.17
488.085	5172.49
488.289	5184.77
488.493	5137.67
488.697	5258.5
488.901	5201.16
489.105	5176.58
489.309	5197.06
489.512	5174.53
489.716	5317.89
489.92	5219.59
490.124	5254.41
490.328	5395.72
490.531	5154.05
490.735	5352.71
490.939	5446.91
491.143	5403.91
491.346	5469.44
491.55	5489.92
491.754	5496.07
491.958	5518.59
492.161	5453.06
492.365	5459.2
492.569	5539.07
492.772	5424.39
492.976	5590.27
493.18	5739.77
493.383	5743.87
493.587	5784.83
493.79	5766.4
493.994	5696.77
494.197	5754.11
494.401	5948.67
494.605	5946.62
494.808	5811.45
495.012	5946.62
495.215	6055.16
495.419	6034.68
495.622	5948.67
495.825	6212.85
496.029	6147.32
496.232	6282.49
496.436	6139.13
496.639	6329.59
496.843	6331.64
497.046	6405.36
497.249	6577.39
497.453	6581.49
497.656	6728.94
497.859	6876.4
498.063	6714.61
498.266	6929.64
498.469	6780.14
498.673	6866.16
498.876	7066.86
499.079	7025.9
499.282	7195.88
499.485	7513.31
499.689	7341.29
499.892	7294.18
500.095	7767.26
500.298	7558.37
500.501	7466.21
500.705	7847.13
500.908	7957.72
501.111	7974.11
501.314	8273.11
501.517	8318.17
501.72	8436.95
501.923	8277.21
502.126	8557.78
502.329	8744.14
502.532	8344.79
502.735	8752.34
502.938	8764.62
503.141	9002.19
503.344	9116.87
503.547	9233.61
503.75	9346.25
503.953	9557.19
504.156	9624.77
504.359	9665.73
504.562	9641.15
504.765	10009.79
504.968	10050.75
505.17	10386.61
505.373	10290.36
505.576	10341.56
505.779	10501.3
505.982	10722.48
506.185	10976.43
506.387	10906.8
506.59	10921.13
506.793	11508.9
506.996	11322.54
507.198	11685.03
507.401	11687.07
507.604	11891.87
507.807	12039.33
508.009	12076.19
508.212	12168.35
508.415	12313.75
508.617	12674.2
508.82	12618.9
509.022	12594.33
509.225	13036.69
509.428	13126.8
509.63	13239.44
509.833	13458.57
510.035	13778.05
510.238	13515.91
510.44	13843.59
510.643	14144.64
510.845	14214.27
511.048	14304.38
511.25	14306.43
511.453	14695.54
511.655	14976.11
511.858	15170.67
512.06	15252.59
512.262	15484.01
512.465	15539.3
512.667	15852.64
512.87	15987.81
513.072	15957.09
513.274	16313.44
513.477	16464.99
513.679	16798.81
513.881	16807
514.084	17273.93
514.286	17075.28
514.488	17628.23
514.69	17910.85
514.893	17720.39
515.095	17896.52
515.297	18351.17
515.499	18676.79
515.701	18543.67
515.904	18775.09
516.106	19022.9
516.308	19270.7
516.51	19508.27
516.712	19567.66
516.914	19827.75
517.116	20298.78
517.318	20202.53
517.52	20386.85
517.722	20622.36
517.925	20868.12
518.127	21255.19
518.329	21271.57
518.531	21478.41
518.733	21777.42
518.935	22023.17
519.136	21898.25
519.338	22637.56
519.54	22840.31
519.742	23038.97
519.944	22815.74
520.146	23223.28
520.348	23624.68
520.55	23417.84
520.752	23749.61
520.954	24169.44
521.155	24271.84
521.357	24712.16
521.559	24736.73
521.761	25256.92
521.963	25258.96
522.164	25342.93
522.366	25430.99
522.568	25918.41
522.77	25996.23
522.971	26153.93
523.173	26393.54
523.375	26362.82
523.576	26430.4
523.778	26686.4
523.98	27147.19
524.181	27321.27
524.383	27476.91
524.584	27855.79
524.786	27775.92
524.988	27464.63
525.189	28222.37
525.391	28412.84
525.592	28425.12
525.794	28617.63
525.995	28728.22
526.197	28916.64
526.398	28804
526.6	29232.02
526.801	29121.43
527.003	29399.96
527.204	29359
527.406	29834.13
527.607	29707.15
527.808	29934.48
528.01	29518.74
528.211	30063.5
528.412	30528.39
528.614	30421.89
528.815	30241.67
529.016	30874.49
529.218	30448.52
529.419	30501.76
529.62	30757.76
529.822	30942.08
530.023	30997.37
530.224	30768
530.425	31216.51
530.626	30974.84
530.828	30894.97
531.029	31484.79
531.23	31173.5
531.431	31224.7
531.632	31341.43
531.833	31587.19
532.035	31157.11
532.236	31474.55
532.437	31581.04
532.638	31497.08
532.839	31732.59
533.04	31824.75
533.241	31556.47
533.442	32125.8
533.643	31767.41
533.844	31843.18
534.045	32207.72
534.246	31513.46
534.447	31964.01
534.648	31943.53
534.849	32228.2
535.05	32127.85
535.251	32074.6
535.451	32074.6
535.652	31853.42
535.853	31685.49
536.054	32172.91
536.255	31949.68
536.456	31861.62
536.657	32471.91
536.857	31873.9
537.058	32189.29
537.259	32144.23
537.46	32183.15
537.66	31910.77
537.861	32400.23
538.062	31982.45
538.263	32598.88
538.463	32316.26
538.664	31882.09
538.865	32146.28
539.065	32318.31
539.266	31724.4
539.466	32566.12
539.667	31779.7
539.868	32342.89
540.068	32043.88
540.269	32306.02
540.469	32410.47
540.67	32172.91
540.87	32103.28
541.071	32422.76
541.271	32172.91
541.472	32269.16
541.672	31964.01
541.873	31972.21
542.073	31937.39
542.274	32174.95
542.474	32336.74
542.675	31947.63
542.875	32328.55
543.075	32119.66
543.276	32107.37
543.476	32439.14
543.676	31857.52
543.877	32381.8
544.077	32271.21
544.277	32199.53
544.478	32031.6
544.678	32166.76
544.878	32396.13
545.078	31992.69
545.279	31857.52
545.479	32002.92
545.679	32103.28
545.879	32052.08
546.079	32201.58
546.28	32017.26
546.48	32066.41
546.68	32367.46
546.88	32267.11
547.08	32150.38
547.28	32220.01
547.48	31984.49
547.68	32162.67
547.88	32056.17
548.081	32291.69
548.281	32381.8
548.481	31888.24
548.681	32234.35
548.881	32103.28
549.081	32115.56
549.28	32031.6
549.48	32408.42
549.68	31824.75
549.88	32224.11
550.08	31875.95
550.28	32088.94
550.48	32101.23
550.68	32428.9
550.88	31527.8
551.08	32209.77
551.279	31929.2
551.479	32068.46
551.679	31808.37
551.879	32181.1
552.079	32000.88
552.278	31961.97
552.478	32031.6
552.678	32021.36
552.878	32082.8
553.077	31808.37
553.277	31361.91
553.477	32355.18
553.676	31830.9
553.876	31527.8
554.076	31456.12
554.275	31646.58
554.475	31335.29
554.674	32017.26
554.874	31533.94
555.074	31701.87
555.273	31789.94
555.473	31708.02
555.672	31189.88
555.872	31796.08
556.071	31681.39
556.271	31785.84
556.47	31445.88
556.67	31222.65
556.869	31374.2
557.068	31206.27
557.268	31267.7
557.467	31009.66
557.667	31304.57
557.866	31140.73
558.065	31118.2
558.265	30866.3
558.464	30819.2
558.663	31275.9
558.863	30817.15
559.062	31357.81
559.261	30811.01
559.461	31153.02
559.66	30405.51
559.859	30788.48
560.058	30624.64
560.258	30901.12
560.457	30501.76
560.656	30679.94
560.855	30213
561.054	30630.79
561.253	30161.8
561.453	30522.24
561.652	30589.83
561.851	30198.66
562.05	30241.67
562.249	30286.73
562.448	30344.07
562.647	30567.3
562.846	30006.16
563.045	30182.28
563.244	29825.93
563.443	30073.74
563.642	29619.09
563.841	29905.81
564.04	29549.46
564.239	29954.96
564.438	29371.29
564.637	29631.38
564.836	29576.08
565.035	29488.02
565.234	29526.93
565.432	29111.19
565.631	29129.62
565.83	29379.48
566.029	28902.3
566.228	29008.79
566.427	29262.74
566.625	28982.17
566.824	28578.72
567.023	29176.73
567.222	28756.89
567.42	28883.87
567.619	28732.32
567.818	28806.05
568.016	28443.56
568.215	28828.57
568.414	28519.33
568.612	28871.58
568.811	28445.6
569.01	28365.73
569.208	27898.8
569.407	28162.98
569.605	27751.34
569.804	28005.29
570.002	27632.56
570.201	27949.99
570.4	27636.66
570.598	27816.88
570.797	27730.86
570.995	27683.76
571.193	26938.3
571.392	27919.28
571.59	27151.29
571.789	27163.57
571.987	26991.55
572.186	27052.98
572.384	26452.93
572.582	26659.77
572.781	27356.08
572.979	26680.25
573.177	26399.68
573.376	26584
573.574	26256.32
573.772	26676.16
573.971	26153.93
574.169	26217.41
574.367	25924.55
574.565	26041.29
574.763	26125.25
574.962	26139.59
575.16	25492.43
575.358	25736.14
575.556	25625.55
575.754	25922.51
575.952	25693.13
576.151	25723.85
576.349	25398.23
576.547	25015.26
576.745	25240.53
576.943	25383.89
577.141	25111.51
577.339	25275.35
577.537	24962.01
577.735	24806.36
577.933	24775.64
578.131	24679.39
578.329	24656.86
578.527	24630.24
578.725	24599.52
578.923	24501.22
579.121	24191.97
579.319	24226.79
579.516	24323.04
579.714	24065
579.912	23804.91
580.11	24196.07
580.308	24021.99
580.506	23952.36
580.704	23450.61
580.901	23931.88
581.099	23753.71
581.297	23374.83
581.495	23405.55
581.692	23682.03
581.89	23272.43
582.088	23456.75
582.285	23012.34
582.483	23317.49
582.681	23251.95
582.878	23000.05
583.076	22692.86
583.274	23161.84
583.471	22795.26
583.669	22766.59
583.866	22723.58
584.064	22770.68
584.262	22516.73
584.459	22553.6
584.657	22270.98
584.854	22830.07
585.052	22019.08
585.249	22326.27
585.447	22002.69
585.644	22113.28
585.841	22002.69
586.039	22141.96
586.236	21595.15
586.434	22273.03
586.631	21562.38
586.828	21505.04
587.026	21457.93
587.223	21412.88
587.42	21369.87
587.618	21427.21
587.815	21120.02
588.012	21048.34
588.21	21201.94
588.407	21290
588.604	21093.4
588.801	20997.14
588.999	20935.7
589.196	21058.58
589.393	20857.88
589.59	20833.3
589.787	20780.06
589.984	20698.14
590.182	20180
590.379	20636.7
590.576	20571.16
590.773	20495.39
590.97	20550.68
591.167	20366.37
591.364	19856.42
591.561	20202.53
591.758	19778.6
591.955	20175.91
592.152	20022.31
592.349	19690.54
592.546	20159.52
592.743	19717.16
592.94	19524.65
593.137	19784.74
593.334	19960.87
593.531	19559.47
593.727	19346.48
593.924	19489.84
594.121	19260.46
594.318	19520.56
594.515	19174.45
594.712	19514.41
594.908	19252.27
595.105	19182.64
595.302	18928.69
595.499	19285.04
595.696	18811.96
595.892	18787.38
596.089	19043.38
596.286	19006.52
596.482	18666.55
596.679	18682.94
596.876	18830.39
597.072	18388.03
597.269	18711.61
597.466	18443.32
597.662	18441.28
597.859	18363.45
598.055	18756.66
598.252	17990.72
598.448	18492.48
598.645	18216
598.841	17986.63
599.038	18080.83
599.234	17812.55
599.431	17661
599.627	17996.87
599.824	17744.97
600.02	17847.37
600.217	17882.18
600.413	17581.13
600.609	17370.19
600.806	17302.61
601.002	17466.44
601.198	17314.89
601.395	17157.2
601.591	17468.49
601.787	17155.15
601.984	16964.69
602.18	17364.04
602.376	17173.58
602.572	17087.57
602.769	16942.16
602.965	16731.22
603.161	17138.77
603.357	16807
603.553	16589.91
603.75	16381.02
603.946	16682.07
604.142	16497.75
604.338	16395.36
604.534	16399.45
604.73	16305.24
604.926	16389.21
605.122	16499.8
605.318	16280.67
605.514	16264.29
605.71	16434.27
605.906	15993.95
606.102	16184.41
606.298	15975.52
606.494	15955.04
606.69	15678.57
606.886	16098.4
607.082	15727.72
607.278	15694.95
607.474	15488.1
607.67	15928.42
607.866	15445.1
608.062	15453.29
608.257	15311.98
608.453	15651.94
608.649	15357.03
608.845	15273.07
609.041	15209.58
609.236	15201.39
609.432	15264.88
609.628	15234.16
609.824	14873.71
610.019	15416.43
610.215	15072.37
610.411	15160.43
610.606	15129.71
610.802	15109.23
610.998	15103.09
611.193	14974.06
611.389	14881.91
611.584	14861.43
611.78	14675.06
611.976	14615.67
612.171	14752.88
612.367	14783.6
612.562	14748.79
612.758	14673.01
612.953	14138.49
613.149	14515.32
613.344	14279.8
613.539	14558.33
613.735	14281.85
613.93	14533.75
614.126	14382.2
614.321	14472.31
614.517	14249.08
614.712	14058.62
614.907	14109.82
615.103	14271.61
615.298	14027.9
615.493	14249.08
615.688	13988.99
615.884	14206.08
616.079	13888.64
616.274	14038.14
616.47	13911.17
616.665	13669.51
616.86	13651.08
617.055	13653.12
617.25	13888.64
617.445	13741.19
617.641	13372.55
617.836	13843.59
618.031	13337.74
618.226	13704.32
618.421	13188.24
618.616	13460.62
618.811	13302.92
619.006	13345.93
619.201	12989.58
619.396	13159.56
619.591	12891.28
619.786	13182.09
619.981	12897.42
620.176	13130.89
620.371	12840.08
620.566	12711.06
620.761	12674.2
620.956	12690.58
621.151	12575.89
621.346	12633.24
621.541	12506.26
621.735	12530.84
621.93	12260.51
622.125	12385.43
622.32	12008.61
622.515	12031.13
622.709	12188.83
622.904	12072.09
623.099	12029.09
623.294	11969.69
623.488	11754.66
623.683	11732.13
623.878	11562.15
624.072	11642.02
624.267	11803.81
624.462	11529.38
624.656	11291.82
624.851	11527.33
625.046	11318.44
625.24	11306.15
625.435	11154.6
625.629	11187.37
625.824	11099.31
626.018	10845.36
626.213	10892.46
626.407	10777.78
626.602	10796.21
626.796	10947.76
626.991	10955.95
627.185	10685.62
627.38	10640.56
627.574	10607.8
627.768	10353.85
627.963	10505.4
628.157	10392.76
628.352	10267.83
628.546	10267.83
628.74	10230.97
628.935	10288.31
629.129	10261.69
629.323	10028.22
629.517	9981.12
629.712	9993.4
629.906	9905.34
630.1	9725.12
630.294	9864.38
630.489	9663.68
630.683	9921.73
630.877	9364.68
631.071	9456.84
631.265	9815.23
631.459	9458.88
631.653	9432.26
631.848	9575.62
632.042	9239.75
632.236	9266.38
632.43	9243.85
632.624	9366.73
632.818	9172.17
633.012	9106.63
633.206	8971.47
633.4	9184.46
633.594	9006.28
633.788	8953.04
633.982	8844.49
634.176	8801.49
634.369	8627.41
634.563	8803.53
634.757	8735.95
634.951	8633.55
635.145	8760.53
635.339	8781.01
635.533	8508.63
635.726	8527.06
635.92	8404.18
636.114	8350.93
636.308	8195.29
636.501	8195.29
636.695	8271.06
636.889	8234.2
637.083	7924.96
637.276	8150.23
637.47	8146.14
637.664	7986.4
637.857	8107.23
638.051	7908.57
638.244	7884
638.438	7849.18
638.632	7828.7
638.825	7691.49
639.019	7861.47
639.212	7709.92
639.406	7544.03
639.599	7593.19
639.793	7515.36
639.986	7476.45
640.18	7501.03
640.373	7406.82
640.567	7347.43
640.76	7421.16
640.954	7298.28
641.147	7066.86
641.34	7111.91
641.534	7052.52
641.727	7015.66
641.92	6823.15
642.114	6943.98
642.307	7042.28
642.5	6864.11
642.694	6825.2
642.887	6915.31
643.08	6855.92
643.273	6683.89
643.467	6763.76
643.66	6544.63
643.853	6534.39
644.046	6655.22
644.239	6540.53
644.432	6593.78
644.626	6438.13
644.819	6329.59
645.012	6317.3
645.205	6384.88
645.398	6302.97
645.591	6335.73
645.784	6235.38
645.977	6141.18
646.17	6071.54
646.363	5915.9
646.556	5895.42
646.749	6016.25
646.942	6010.11
647.135	5895.42
647.328	5983.48
647.521	5885.18
647.714	5743.87
647.907	5776.64
648.099	5657.86
648.292	5831.93
648.485	5758.21
648.678	5606.66
648.871	5639.42
649.064	5307.65
649.256	5641.47
649.449	5551.36
649.642	5436.67
649.835	5483.78
650.027	5463.3
650.22	5416.19
650.413	5246.21
650.605	5453.06
650.798	5362.95
650.991	5227.78
651.183	5295.36
651.376	4994.31
651.568	5238.02
651.761	5039.37
651.954	5199.11
652.146	4963.59
652.339	4951.31
652.531	5100.81
652.724	4939.02
652.916	4842.76
653.109	4889.87
653.301	5045.51
653.494	4973.83
653.686	4707.6
653.879	4855.05
654.071	4834.57
654.263	4797.71
654.456	4746.51
654.648	4683.02
654.84	4607.25
655.033	4726.03
655.225	4697.36
655.417	4554
655.61	4662.54
655.802	4562.19
655.994	4465.94
656.186	4441.36
656.379	4410.64
656.571	4543.76
656.763	4326.68
656.955	4453.65
657.148	4386.07
657.34	4310.29
657.532	4236.56
657.724	4482.32
657.916	4341.01
658.108	4318.48
658.3	4234.52
658.492	4146.45
658.684	4185.37
658.876	4205.85
659.068	4115.73
659.26	4085.02
659.452	4130.07
659.644	3999
659.836	4062.49
660.028	4132.12
660.22	3765.53
660.412	3794.2
660.604	3849.5
660.796	3925.27
660.988	3894.55
661.18	3720.48
661.372	3773.72
661.563	3704.09
661.755	3747.1
661.947	3611.93
662.139	3562.78
662.331	3667.23
662.522	3652.89
662.714	3663.13
662.906	3654.94
663.097	3591.45
663.289	3507.49
663.481	3497.25
663.673	3421.47
663.864	3368.23
664.056	3476.77
664.247	3527.97
664.439	3366.18
664.631	3398.95
664.822	3472.67
665.014	3310.88
665.205	3427.62
665.397	3292.45
665.588	3333.41
665.78	3173.67
665.971	3274.02
666.163	3384.61
666.354	3269.92
666.546	3239.2
666.737	3126.57
666.929	3077.41
667.12	3155.24
667.311	3126.57
667.503	2985.26
667.694	3169.57
667.885	3095.85
668.077	3061.03
668.268	3091.75
668.459	2970.92
668.651	3087.65
668.842	3149.09
669.033	2950.44
669.224	3028.26
669.416	2905.39
669.607	3097.89
669.798	2960.68
669.989	2929.96
670.18	2850.09
670.371	2876.71
670.563	2999.59
670.754	2882.86
670.945	2868.52
671.136	2864.43
671.327	2727.21
671.518	2802.99
671.709	2778.41
671.9	2835.75
672.091	2778.41
672.282	2886.95
672.473	2809.13
672.664	2731.31
672.855	2841.9
673.046	2772.27
673.237	2825.51
673.428	2696.49
673.619	2723.12
673.809	2649.39
674	2702.64
674.191	2620.72
674.382	2743.6
674.573	2579.76
674.764	2602.29
674.954	2747.69
675.145	2594.09
675.336	2532.65
675.527	2524.46
675.717	2579.76
675.908	2573.61
676.099	2614.57
676.289	2534.7
676.48	2518.32
676.671	2678.06
676.861	2630.96
677.052	2512.18
677.243	2469.17
677.433	2596.14
677.624	2577.71
677.814	2491.7
678.005	2506.03
678.195	2514.22
678.386	2516.27
678.576	2440.5
678.767	2481.46
678.957	2512.18
679.148	2483.5
679.338	2387.25
679.529	2534.7
679.719	2563.37
679.909	2430.26
680.1	2428.21
680.29	2456.88
680.481	2444.59
680.671	2489.65
680.861	2432.3
681.052	2542.89
681.242	2428.21
681.432	2368.82
681.622	2374.96
681.813	2360.63
682.003	2434.35
682.193	2293.04
682.383	2477.36
682.573	2346.29
682.764	2415.92
682.954	2428.21
683.144	2329.91
683.334	2438.45
683.524	2387.25
683.714	2434.35
683.904	2342.19
684.094	2276.66
684.284	2362.67
684.474	2395.44
684.664	2338.1
684.854	2329.91
685.044	2313.52
685.234	2331.95
685.424	2442.54
685.614	2348.34
685.804	2417.97
685.994	2338.1
686.184	2274.61
686.374	2422.06
686.564	2211.12
686.753	2334
686.943	2344.24
687.133	2311.47
687.323	2325.81
687.513	2377.01
687.702	2299.19
687.892	2387.25
688.082	2225.46
688.272	2282.8
688.461	2266.42
688.651	2370.87
688.841	2252.08
689.03	2334
689.22	2319.67
689.41	2325.81
689.599	2342.19
689.789	2358.58
689.979	2379.06
690.168	2209.08
690.358	2186.55
690.547	2227.51
690.737	2325.81
690.926	2295.09
691.116	2223.41
691.305	2338.1
691.495	2348.34
691.684	2125.11
691.874	2243.89
692.063	2323.76
692.252	2338.1
692.442	2229.56
692.631	2225.46
692.82	2284.85
693.01	2266.42
693.199	2207.03
693.388	2331.95
693.578	2137.4
693.767	2184.5
693.956	2293.04
694.146	2276.66
694.335	2157.88
694.524	2309.43
694.713	2272.56
694.902	2243.89
695.092	2274.61
695.281	2102.58
695.47	2250.03
695.659	2176.31
695.848	2190.64
696.037	2256.18
696.226	2262.32
696.415	2233.65
696.604	2321.71
696.793	2200.88
696.982	2194.74
697.171	2282.8
697.36	2270.51
697.549	2358.58
697.738	2237.75
697.927	2270.51
698.116	2293.04
698.305	2225.46
698.494	2274.61
698.683	2252.08
698.872	2168.12
699.061	2204.98
699.25	2282.8
699.438	2207.03
699.627	2172.21
699.816	2223.41
700.005	2315.57
700.193	2200.88
700.382	2407.73
700.571	2164.02
700.76	2323.76
700.948	2305.33
701.137	2168.12
701.326	2334
701.514	2247.99
701.703	2237.75
701.892	2121.01
702.08	2227.51
702.269	2231.6
702.457	2274.61
702.646	2239.8
702.834	2100.53
703.023	2174.26
703.212	2217.27
703.4	2170.16
703.589	2131.25
703.777	2221.36
703.965	2145.59
704.154	2209.08
704.342	2153.78
704.531	2166.07
704.719	2176.31
704.907	2168.12
705.096	2151.73
705.284	2209.08
705.472	2170.16
705.661	2121.01
705.849	2231.6
706.037	2118.97
706.226	2213.17
706.414	2108.73
706.602	2104.63
706.79	2028.85
706.979	1987.9
707.167	2151.73
707.355	2110.77
707.543	2100.53
707.731	2114.87
707.919	1965.37
708.107	2028.85
708.296	2028.85
708.484	2041.14
708.672	1996.09
708.86	2098.49
709.048	2110.77
709.236	2055.48
709.424	1983.8
709.612	2096.44
709.8	2020.66
709.988	2043.19
710.176	2030.9
710.364	2022.71
710.551	2024.76
710.739	1989.94
710.927	1899.83
711.115	2026.81
711.303	2053.43
711.491	1991.99
711.679	1948.98
711.866	1871.16
712.054	1932.6
712.242	1932.6
712.43	1879.35
712.617	1862.97
712.805	1862.97
712.993	1844.54
713.181	1817.91
713.368	1879.35
713.556	1951.03
713.744	1813.82
713.931	1930.55
714.119	1729.85
714.306	1830.2
714.494	1817.91
714.682	1934.65
714.869	1785.15
715.057	1846.59
715.244	1801.53
715.432	1828.15
715.619	1830.2
715.807	1852.73
715.994	1856.83
716.182	1680.7
716.369	1801.53
716.556	1791.29
716.744	1647.93
716.931	1836.35
717.119	1813.82
717.306	1781.05
717.493	1830.2
717.681	1774.91
717.868	1813.82
718.055	1735.99
718.242	1692.99
718.43	1738.04
718.617	1613.12
718.804	1662.27
718.991	1809.72
719.179	1690.94
719.366	1621.31
719.553	1754.43
719.74	1750.33
719.927	1635.64
720.114	1613.12
720.301	1766.71
720.488	1746.23
720.676	1609.02
720.863	1652.03
721.05	1709.37
721.237	1695.04
721.424	1553.73
721.611	1637.69
721.798	1590.59
721.985	1727.8
722.172	1555.77
722.358	1586.49
722.545	1586.49
722.732	1512.77
722.919	1557.82
723.106	1611.07
723.293	1520.96
723.48	1596.73
723.667	1551.68
723.853	1480
724.04	1549.63
724.227	1596.73
724.414	1467.71
724.6	1586.49
724.787	1482.05
724.974	1467.71
725.161	1656.12
725.347	1473.85
725.534	1568.06
725.72	1457.47
725.907	1484.09
726.094	1406.27
726.28	1471.81
726.467	1563.97
726.653	1551.68
726.84	1502.53
727.027	1527.1
727.213	1543.49
727.4	1441.09
727.586	1439.04
727.773	1432.9
727.959	1473.85
728.145	1385.79
728.332	1543.49
728.518	1436.99
728.705	1402.18
728.891	1377.6
729.077	1467.71
729.264	1412.42
729.45	1357.12
729.636	1467.71
729.823	1430.85
730.009	1416.51
730.195	1291.59
730.382	1393.98
730.568	1400.13
730.754	1381.7
730.94	1291.59
731.126	1305.92
731.313	1381.7
731.499	1291.59
731.685	1365.31
731.871	1285.44
732.057	1273.15
732.243	1350.98
732.429	1305.92
732.615	1318.21
732.801	1445.18
732.987	1367.36
733.173	1344.83
733.359	1275.2
733.545	1420.61
733.731	1334.59
733.917	1289.54
734.103	1322.31
734.289	1256.77
734.475	1236.29
734.661	1357.12
734.847	1236.29
735.033	1301.83
735.219	1283.39
735.404	1267.01
735.59	1256.77
735.776	1219.91
735.962	1310.02
736.148	1340.74
736.333	1254.72
736.519	1279.3
736.705	1219.91
736.89	1203.52
737.076	1260.87
737.262	1326.4
737.447	1219.91
737.633	1271.11
737.819	1295.68
738.004	1181
738.19	1236.29
738.375	1148.23
738.561	1209.67
738.747	1322.31
738.932	1187.14
739.118	1197.38
739.303	1203.52
739.489	1213.76
739.674	1150.28
739.859	1135.94
740.045	1205.57
740.23	1203.52
740.416	1131.84
740.601	1201.48
740.786	1215.81
740.972	1174.85
741.157	1121.6
741.342	1119.56
741.528	1078.6
741.713	1125.7
741.898	1068.36
742.084	1207.62
742.269	1119.56
742.454	1006.92
742.639	1097.03
742.824	1094.98
743.01	1070.4
743.195	1115.46
743.38	1025.35
743.565	1123.65
743.75	984.39
743.935	1084.74
744.12	1121.6
744.305	1103.17
744.49	1002.82
744.675	980.29
744.86	1086.79
745.045	1070.4
745.23	982.34
745.415	1047.88
745.6	943.43
745.785	972.1
745.97	963.91
746.155	984.39
746.34	990.53
746.525	929.1
746.71	1011.01
746.895	943.43
747.079	904.52
747.264	1023.3
747.449	976.2
747.634	918.86
747.819	900.42
748.003	992.58
748.188	908.62
748.373	1013.06
748.557	894.28
748.742	939.34
748.927	933.19
749.111	959.81
749.296	798.03
749.481	929.1
749.665	822.6
749.85	875.85
750.034	861.51
750.219	851.27
750.404	937.29
750.588	873.8
750.773	761.16
750.957	824.65
751.141	902.47
751.326	806.22
751.51	822.6
751.695	843.08
751.879	843.08
752.064	808.27
752.248	847.18
752.432	781.64
752.617	746.83
752.801	755.02
752.985	865.61
753.17	748.87
753.354	752.97
753.538	814.41
753.722	773.45
753.907	742.73
754.091	769.35
754.275	605.52
754.459	750.92
754.643	714.06
754.828	722.25
755.012	726.35
755.196	755.02
755.38	732.49
755.564	802.12
755.748	734.54
755.932	703.82
756.116	738.63
756.3	636.24
756.484	765.26
756.668	722.25
756.852	701.77
757.036	697.67
757.22	642.38
757.404	726.35
757.588	693.58
757.772	712.01
757.956	640.33
758.14	605.52
758.323	621.9
758.507	628.04
758.691	650.57
758.875	626
759.059	607.56
759.242	732.49
759.426	677.19
759.61	632.14
759.794	642.38
759.977	681.29
760.161	695.63
760.345	556.36
760.528	558.41
760.712	626
760.895	630.09
761.079	609.61
761.263	611.66
761.446	511.31
761.63	609.61
761.813	687.43
761.997	511.31
762.18	519.5
762.364	542.03
762.547	640.33
762.731	499.02
762.914	630.09
763.098	593.23
763.281	558.41
763.464	447.82
763.648	550.22
763.831	537.93
764.015	533.84
764.198	472.4
764.381	542.03
764.564	423.25
764.748	537.93
764.931	492.88
765.114	478.54
765.297	464.21
765.481	601.42
765.664	582.99
765.847	542.03
766.03	490.83
766.213	628.04
766.397	474.45
766.58	458.06
766.763	517.45
766.946	476.49
767.129	603.47
767.312	466.25
767.495	566.6
767.678	589.13
767.861	423.25
768.044	535.89
768.227	523.6
768.41	425.29
768.593	507.21
768.776	574.8
768.959	456.01
769.142	494.93
769.324	482.64
769.507	478.54
769.69	427.34
769.873	437.58
770.056	488.78
770.239	496.97
770.421	449.87
770.604	482.64
770.787	441.68
770.97	527.69
771.152	484.69
771.335	523.6
771.518	392.53
771.7	415.06
771.883	496.97
772.066	482.64
772.248	496.97
772.431	503.12
772.613	433.49
772.796	439.63
772.978	447.82
773.161	417.1
773.343	427.34
773.526	427.34
773.708	451.92
773.891	419.15
774.073	523.6
774.256	458.06
774.438	482.64
774.621	349.52
774.803	415.06
774.985	398.67
775.168	382.29
775.35	441.68
775.532	370
775.715	410.96
775.897	439.63
776.079	447.82
776.261	374.1
776.444	427.34
776.626	351.57
776.808	355.66
776.99	296.27
777.173	396.62
777.355	384.34
777.537	400.72
777.719	425.29
777.901	388.43
778.083	404.82
778.265	339.28
778.447	398.67
778.629	300.37
778.811	394.58
778.993	331.09
779.175	433.49
779.357	243.03
779.539	451.92
779.721	322.9
779.903	341.33
780.085	269.65
780.267	349.52
780.449	333.14
780.631	318.8
780.812	296.27
780.994	277.84
781.176	337.23
781.358	372.05
781.54	333.14
781.721	343.38
781.903	353.62
782.085	316.75
782.267	243.03
782.448	322.9
782.63	318.8
782.812	300.37
782.993	288.08
783.175	304.46
783.357	259.41
783.538	261.46
783.72	273.75
783.901	263.51
784.083	341.33
784.264	310.61
784.446	263.51
784.627	253.27
784.809	300.37
784.99	265.55
785.172	324.94
785.353	238.93
785.535	316.75
785.716	281.94
785.897	240.98
786.079	157.01
786.26	206.16
786.441	306.51
786.623	275.79
786.804	298.32
786.985	259.41
787.167	271.7
787.348	253.27
787.529	249.17
787.71	202.07
787.891	273.75
788.073	177.49
788.254	167.25
788.435	243.03
788.616	355.66
788.797	226.64
788.978	220.5
789.159	150.87
789.34	251.22
789.522	187.73
789.703	191.83
789.884	222.55
790.065	154.96
790.246	173.39
790.427	150.87
790.607	279.89
790.788	210.26
790.969	204.11
791.15	214.35
791.331	154.96
791.512	177.49
791.693	154.96
791.874	187.73
792.054	132.44
792.235	173.39
792.416	175.44
792.597	228.69
792.778	322.9
792.958	224.59
793.139	247.12
793.32	175.44
793.5	204.11
793.681	159.06
793.862	167.25
794.042	161.11
794.223	165.2
794.404	73.04
794.584	150.87
794.765	93.52
794.945	148.82
795.126	185.68
795.306	200.02
795.487	126.29
795.667	161.11
795.848	134.48
796.028	218.45
796.209	120.15
796.389	204.11
796.57	134.48
796.75	79.19
796.93	183.63
797.111	210.26
797.291	109.91
797.471	120.15
797.652	140.63
797.832	157.01
798.012	173.39
798.192	124.24
798.373	124.24
798.553	165.2
798.733	187.73
798.913	195.92
799.093	165.2
799.274	109.91
799.454	85.33
799.634	161.11
799.814	169.3
799.994	114
800.174	138.58
800.354	177.49
800.534	163.15
800.714	89.43
800.894	107.86
801.074	114
801.254	120.15
801.434	89.43
801.614	60.76
801.794	146.77
801.974	318.8
802.154	195.92
802.334	140.63
802.514	87.38
802.693	120.15
802.873	165.2
803.053	150.87
803.233	197.97
803.413	126.29
803.592	107.86
803.772	154.96
803.952	105.81
804.131	109.91
804.311	97.62
804.491	132.44
804.67	60.76
804.85	165.2
805.03	44.37
805.209	134.48
805.389	73.04
805.568	85.33
805.748	79.19
805.928	126.29
806.107	105.81
806.287	95.57
806.466	107.86
806.646	140.63
806.825	109.91
807.004	60.76
807.184	138.58
807.363	66.9
807.543	81.24
807.722	62.8
807.901	95.57
808.081	185.68
808.26	36.18
808.439	27.99
808.619	83.28
808.798	122.2
808.977	81.24
809.156	146.77
809.336	68.95
809.515	89.43
809.694	120.15
809.873	79.19
810.052	116.05
810.231	116.05
810.411	83.28
810.59	89.43
810.769	73.04
810.948	73.04
811.127	17.75
811.306	95.57
811.485	38.23
811.664	124.24
811.843	85.33
812.022	109.91
812.201	107.86
812.38	120.15
812.559	42.32
812.737	111.96
812.916	68.95
813.095	-8.87
813.274	122.2
813.453	165.2
813.632	109.91
813.811	11.61
813.989	93.52
814.168	95.57
814.347	1.37
814.526	38.23
814.704	116.05
814.883	77.14
815.062	40.28
815.24	148.82
815.419	66.9
815.598	68.95
815.776	15.7
815.955	7.51
816.133	50.52
816.312	107.86
816.49	54.61
816.669	48.47
816.847	15.7
817.026	30.04
817.204	30.04
817.383	73.04
817.561	52.56
817.74	11.61
817.918	118.1
818.097	17.75
818.275	54.61
818.453	38.23
818.632	114
818.81	142.68
818.988	40.28
819.167	77.14
819.345	105.81
819.523	87.38
819.701	40.28
819.879	93.52
820.058	132.44
820.236	85.33
820.414	120.15
820.592	128.34
820.77	89.43
820.948	120.15
821.127	66.9
821.305	13.65
821.483	48.47
821.661	54.61
821.839	-23.21
822.017	93.52
822.195	23.89
822.373	21.85
822.551	1.37
822.729	81.24
822.907	85.33
823.085	111.96
823.262	62.8
823.44	60.76
823.618	-17.07
823.796	-6.83
823.974	7.51
824.152	75.09
824.329	21.85
824.507	122.2
824.685	71
824.863	87.38
825.04	68.95
825.218	58.71
825.396	105.81
825.574	7.51
825.751	-41.64
825.929	54.61
826.107	66.9
826.284	93.52
826.462	-17.07
826.639	85.33
826.817	-10.92
826.994	-6.83
827.172	48.47
827.349	83.28
827.527	-21.16
827.704	-29.35
827.882	7.51
828.059	46.42
828.237	85.33
828.414	34.13
828.591	56.66
828.769	105.81
828.946	60.76
829.124	-2.73
829.301	83.28
829.478	-39.59
829.655	38.23
829.833	138.58
830.01	5.46
830.187	44.37
830.364	46.42
830.542	77.14
830.719	97.62
830.896	21.85
831.073	73.04
831.25	46.42
831.427	77.14
831.604	25.94
831.782	54.61
831.959	-0.68
832.136	9.56
832.313	44.37
832.49	3.41
832.667	23.89
832.844	36.18
833.021	27.99
833.198	-8.87
833.374	50.52
833.551	32.08
833.728	71
833.905	77.14
834.082	27.99
834.259	62.8
834.436	17.75
834.612	-6.83
834.789	99.67
834.966	7.51
835.143	42.32
835.319	50.52
835.496	87.38
835.673	58.71
835.85	66.9
836.026	-33.45
836.203	23.89
836.38	-6.83
836.556	48.47
836.733	21.85
836.909	46.42
837.086	-6.83
837.262	23.89
837.439	5.46
837.616	30.04
837.792	54.61
837.968	7.51
838.145	-6.83
838.321	50.52
838.498	21.85
838.674	-21.16
838.851	56.66
839.027	46.42
839.203	58.71
839.38	13.65
839.556	15.7
839.732	32.08
839.909	7.51
840.085	3.41
840.261	-43.69
840.437	66.9
840.614	7.51
840.79	-21.16
840.966	15.7
841.142	7.51
841.318	40.28
841.494	-19.11
841.671	38.23
841.847	-4.78
842.023	-60.07
842.199	3.41
842.375	42.32
842.551	56.66
842.727	-2.73
842.903	1.37
843.079	-21.16
843.255	40.28
843.431	44.37
843.607	56.66
843.783	-23.21
843.959	1.37
844.134	11.61
844.31	-21.16
844.486	-6.83
844.662	25.94
844.838	116.05
845.013	62.8
845.189	89.43
845.365	25.94
845.541	-15.02
845.716	25.94
845.892	1.37
846.068	-8.87
846.244	56.66
846.419	66.9
846.595	32.08
846.77	36.18
846.946	19.8
847.122	-41.64
847.297	71
847.473	15.7
847.648	38.23
847.824	34.13
847.999	19.8
848.175	-21.16
848.35	128.34
848.526	32.08
848.701	46.42
848.876	13.65
849.052	75.09
849.227	40.28
849.403	50.52
849.578	-51.88
849.753	7.51
849.929	21.85
850.104	7.51
850.279	32.08
850.454	30.04
850.63	54.61
850.805	13.65
850.98	54.61
851.155	54.61
851.33	40.28
851.505	5.46
851.681	-23.21
851.856	5.46
852.031	-25.26
852.206	73.04
852.381	56.66
852.556	32.08
852.731	85.33
852.906	17.75
853.081	40.28
853.256	-8.87
853.431	11.61
853.606	9.56
853.781	21.85
853.956	-60.07
854.131	-4.78
854.305	-47.79
854.48	19.8
854.655	7.51
854.83	-31.4
855.005	27.99
855.18	79.19
855.354	-10.92
855.529	-17.07
855.704	-23.21
855.879	-12.97
856.053	40.28
856.228	-2.73
856.403	13.65
856.577	44.37
856.752	-6.83
856.926	68.95
857.101	-8.87
857.276	-0.68
857.45	32.08
857.625	-29.35
857.799	-33.45
857.974	40.28
858.148	36.18
858.323	3.41
858.497	-60.07
858.672	-8.87
858.846	-8.87
859.02	9.56
859.195	36.18
859.369	-2.73
859.543	-41.64
859.718	-15.02
859.892	52.56
860.066	-29.35
860.241	-27.31
860.415	87.38
860.589	-2.73
860.763	7.51
860.938	-8.87
861.112	-10.92
861.286	-10.92
861.46	17.75
861.634	75.09
861.808	40.28
861.982	17.75
862.157	-25.26
862.331	46.42
862.505	-35.5
862.679	19.8
862.853	-6.83
863.027	-8.87
863.201	40.28
863.375	27.99
863.549	9.56
863.722	30.04
863.896	30.04
864.07	23.89
864.244	15.7
864.418	19.8
864.592	-94.89
864.766	68.95
864.939	40.28
865.113	77.14
865.287	1.37
865.461	-64.17
865.634	5.46
865.808	7.51
865.982	9.56
866.156	-31.4
866.329	-29.35
866.503	1.37
866.676	-6.83
866.85	38.23
867.024	-2.73
867.197	11.61
867.371	38.23
867.544	3.41
867.718	-25.26
867.891	36.18
868.065	60.76
868.238	-68.27
868.412	46.42
868.585	23.89
868.759	-0.68
868.932	5.46
869.105	15.7
869.279	-49.83
869.452	-15.02
869.625	-4.78
869.799	30.04
869.972	-55.98
870.145	44.37
870.319	-8.87
870.492	-15.02
870.665	-31.4
870.838	5.46
871.011	-12.97
871.185	7.51
871.358	-70.31
871.531	-31.4
871.704	-19.11
871.877	-0.68
872.05	5.46
872.223	-41.64
872.396	27.99
872.569	21.85
872.742	-70.31
872.915	34.13
873.088	11.61
873.261	48.47
873.434	3.41
873.607	-49.83
873.78	-27.31
873.953	-33.45
874.126	-17.07
874.299	-43.69
874.471	-49.83
874.644	36.18
874.817	75.09
874.99	56.66
875.163	-27.31
875.335	56.66
875.508	-53.93
875.681	50.52
875.853	-25.26
876.026	-19.11
876.199	-19.11
876.371	25.94
876.544	-74.41
876.717	-41.64
876.889	-78.51
877.062	77.14
877.234	-0.68
877.407	38.23
877.579	-62.12
877.752	-17.07
877.924	-15.02
878.097	-10.92
878.269	-27.31
878.442	-53.93
878.614	-19.11
878.786	27.99
878.959	-12.97
879.131	-2.73
879.303	-55.98
879.476	-25.26
879.648	73.04
879.82	87.38
879.993	44.37
880.165	-31.4
880.337	32.08
880.509	-2.73
880.681	-37.55
880.854	54.61
881.026	-41.64
881.198	-21.16
881.37	-60.07
881.542	64.85
881.714	25.94
881.886	-17.07
882.058	42.32
882.23	-0.68
882.402	-6.83
882.574	30.04
882.746	-41.64
882.918	27.99
883.09	23.89
883.262	23.89
883.434	30.04
883.606	-27.31
883.778	-41.64
883.95	-12.97
884.122	-17.07
884.293	27.99
884.465	-72.36
884.637	-2.73
884.809	-21.16
884.98	13.65
885.152	-25.26
885.324	-8.87
885.496	-21.16
885.667	7.51
885.839	-21.16
886.011	-12.97
886.182	-64.17
886.354	46.42
886.525	75.09
886.697	32.08
886.869	-51.88
887.04	-35.5
887.212	-80.55
887.383	-35.5
887.555	-23.21
887.726	-58.03
887.897	-53.93
888.069	-58.03
888.24	1.37
888.412	40.28
888.583	-0.68
888.754	-35.5
888.926	-39.59
889.097	42.32
889.268	105.81
889.44	-17.07
889.611	-0.68
889.782	-19.11
889.953	-47.79
890.125	7.51
890.296	-12.97
890.467	-33.45
890.638	-8.87
890.809	9.56
890.98	-41.64
891.151	-90.79
891.323	-84.65
891.494	5.46
891.665	17.75
891.836	9.56
892.007	-41.64
892.178	-21.16
892.349	-0.68
892.52	32.08
892.691	42.32
892.862	15.7
893.032	-19.11
893.203	-23.21
893.374	34.13
893.545	42.32
893.716	-31.4
893.887	71
894.057	-47.79
894.228	11.61
894.399	13.65
894.57	34.13
894.74	-37.55
894.911	5.46
895.082	-27.31
895.253	66.9
895.423	7.51
895.594	-41.64
895.764	21.85
895.935	-29.35
896.106	-23.21
896.276	27.99
896.447	-27.31
896.617	-51.88
896.788	-101.03
896.958	-53.93
897.129	-15.02
897.299	7.51
897.47	44.37
897.64	-29.35
897.81	89.43
897.981	36.18
898.151	-21.16
898.322	-12.97
898.492	-21.16
898.662	-27.31
898.832	46.42
899.003	21.85
899.173	30.04
899.343	3.41
899.513	-35.5
