Data from USB4F104151__226__14-00-21-741.txt Node

Date: Thu Mar 13 14:00:21 EDT 2025
User: louis
Spectrometer: USB4F10415
Trigger mode: 4
Integration Time (sec): 1.000000E-2
Scans to average: 1
Electric dark correction enabled: true
Nonlinearity correction enabled: false
Boxcar width: 0
XAxis mode: Wavelengths
Number of Pixels in Spectrum: 3648
>>>>>Begin Spectral Data<<<<<
178.204	-70.48
178.424	-70.48
178.644	-70.48
178.864	3.24
179.084	-58.2
179.304	-37.72
179.524	3.24
179.744	-23.38
179.964	-9.05
180.184	-21.33
180.404	19.63
180.624	29.87
180.844	13.48
181.064	-17.24
181.283	-27.48
181.503	29.87
181.723	40.11
181.943	-41.81
182.163	19.63
182.383	-23.38
182.602	60.59
182.822	21.67
183.042	21.67
183.262	38.06
183.482	-2.9
183.701	-60.24
183.921	19.63
184.141	-76.63
184.361	-4.95
184.58	21.67
184.8	46.25
185.02	15.53
185.239	54.44
185.459	23.72
185.679	79.02
185.898	5.29
186.118	-25.43
186.338	25.77
186.557	31.91
186.777	-45.91
186.997	81.07
187.216	-41.81
187.436	29.87
187.655	-60.24
187.875	7.34
188.095	-13.14
188.314	27.82
188.534	9.39
188.753	9.39
188.973	60.59
189.192	68.78
189.412	46.25
189.631	-19.29
189.851	-0.85
190.07	9.39
190.29	23.72
190.509	-37.72
190.729	-9.05
190.948	40.11
191.168	103.59
191.387	40.11
191.607	15.53
191.826	-15.19
192.045	50.35
192.265	36.01
192.484	-13.14
192.704	15.53
192.923	-41.81
193.142	48.3
193.362	-127.83
193.581	3.24
193.8	-0.85
194.02	48.3
194.239	33.96
194.458	11.43
194.678	9.39
194.897	-4.95
195.116	13.48
195.335	38.06
195.555	109.74
195.774	38.06
195.993	-21.33
196.212	21.67
196.432	23.72
196.651	13.48
196.87	7.34
197.089	-41.81
197.308	113.83
197.528	-2.9
197.747	11.43
197.966	19.63
198.185	9.39
198.404	23.72
198.623	48.3
198.842	89.26
199.062	-9.05
199.281	-0.85
199.5	-2.9
199.719	58.54
199.938	13.48
200.157	56.49
200.376	38.06
200.595	58.54
200.814	3.24
201.033	64.68
201.252	38.06
201.471	27.82
201.69	74.92
201.909	-21.33
202.128	13.48
202.347	48.3
202.566	-70.48
202.785	15.53
203.004	15.53
203.223	79.02
203.442	-29.52
203.661	19.63
203.879	31.91
204.098	68.78
204.317	-2.9
204.536	42.15
204.755	29.87
204.974	97.45
205.193	-43.86
205.411	3.24
205.63	46.25
205.849	36.01
206.068	50.35
206.287	-9.05
206.505	7.34
206.724	44.2
206.943	31.91
207.162	66.73
207.381	54.44
207.599	29.87
207.818	25.77
208.037	15.53
208.255	1.19
208.474	11.43
208.693	-23.38
208.911	31.91
209.13	-19.29
209.349	119.98
209.567	-17.24
209.786	9.39
210.005	33.96
210.223	19.63
210.442	-17.24
210.661	54.44
210.879	9.39
211.098	-11.09
211.316	58.54
211.535	36.01
211.753	-21.33
211.972	15.53
212.191	-72.53
212.409	-25.43
212.628	13.48
212.846	15.53
213.065	58.54
213.283	31.91
213.502	31.91
213.72	74.92
213.938	42.15
214.157	-7
214.375	-0.85
214.594	11.43
214.812	31.91
215.031	48.3
215.249	50.35
215.467	93.35
215.686	-13.14
215.904	9.39
216.122	81.07
216.341	-11.09
216.559	-41.81
216.778	25.77
216.996	19.63
217.214	7.34
217.432	-7
217.651	52.39
217.869	40.11
218.087	-13.14
218.306	25.77
218.524	85.16
218.742	-9.05
218.96	-17.24
219.179	58.54
219.397	23.72
219.615	44.2
219.833	38.06
220.051	97.45
220.27	-29.52
220.488	3.24
220.706	9.39
220.924	21.67
221.142	85.16
221.36	56.49
221.578	-9.05
221.796	-17.24
222.015	42.15
222.233	46.25
222.451	42.15
222.669	-23.38
222.887	-9.05
223.105	13.48
223.323	105.64
223.541	38.06
223.759	1.19
223.977	11.43
224.195	36.01
224.413	-0.85
224.631	36.01
224.849	40.11
225.067	31.91
225.285	42.15
225.503	-25.43
225.721	25.77
225.939	60.59
226.157	33.96
226.375	42.15
226.592	-29.52
226.81	3.24
227.028	9.39
227.246	-35.67
227.464	46.25
227.682	27.82
227.9	33.96
228.117	25.77
228.335	27.82
228.553	-23.38
228.771	21.67
228.989	19.63
229.206	40.11
229.424	99.5
229.642	-15.19
229.86	-7
230.077	115.88
230.295	15.53
230.513	-7
230.731	3.24
230.948	113.83
231.166	42.15
231.384	40.11
231.601	1.19
231.819	-0.85
232.037	-9.05
232.254	-64.34
232.472	-7
232.689	7.34
232.907	9.39
233.125	42.15
233.342	48.3
233.56	29.87
233.777	1.19
233.995	-0.85
234.213	48.3
234.43	-39.76
234.648	5.29
234.865	3.24
235.083	85.16
235.3	56.49
235.518	31.91
235.735	117.93
235.953	64.68
236.17	95.4
236.388	11.43
236.605	40.11
236.822	79.02
237.04	15.53
237.257	42.15
237.475	93.35
237.692	-29.52
237.909	-13.14
238.127	25.77
238.344	-15.19
238.562	60.59
238.779	17.58
238.996	42.15
239.214	7.34
239.431	64.68
239.648	-23.38
239.865	105.64
240.083	68.78
240.3	97.45
240.517	64.68
240.735	40.11
240.952	25.77
241.169	58.54
241.386	9.39
241.603	-7
241.821	7.34
242.038	33.96
242.255	85.16
242.472	48.3
242.689	60.59
242.907	85.16
243.124	-23.38
243.341	48.3
243.558	64.68
243.775	89.26
243.992	38.06
244.209	-19.29
244.426	-56.15
244.643	81.07
244.86	68.78
245.078	56.49
245.295	31.91
245.512	85.16
245.729	-39.76
245.946	76.97
246.163	38.06
246.38	-31.57
246.597	-7
246.814	62.63
247.031	60.59
247.248	111.78
247.464	19.63
247.681	-15.19
247.898	11.43
248.115	-4.95
248.332	-2.9
248.549	15.53
248.766	52.39
248.983	60.59
249.2	29.87
249.417	-21.33
249.633	3.24
249.85	72.87
250.067	15.53
250.284	36.01
250.501	62.63
250.717	27.82
250.934	44.2
251.151	72.87
251.368	-68.44
251.585	70.83
251.801	40.11
252.018	64.68
252.235	50.35
252.451	-17.24
252.668	109.74
252.885	-0.85
253.102	29.87
253.318	40.11
253.535	-37.72
253.752	60.59
253.968	-19.29
254.185	25.77
254.401	31.91
254.618	31.91
254.835	38.06
255.051	58.54
255.268	68.78
255.484	40.11
255.701	54.44
255.917	-2.9
256.134	-25.43
256.351	-0.85
256.567	122.02
256.784	60.59
257	7.34
257.217	36.01
257.433	11.43
257.65	27.82
257.866	50.35
258.082	27.82
258.299	1.19
258.515	48.3
258.732	44.2
258.948	83.11
259.165	-15.19
259.381	-29.52
259.597	87.21
259.814	23.72
260.03	3.24
260.246	64.68
260.463	1.19
260.679	17.58
260.895	27.82
261.112	21.67
261.328	72.87
261.544	17.58
261.761	76.97
261.977	64.68
262.193	-29.52
262.409	64.68
262.626	11.43
262.842	23.72
263.058	64.68
263.274	99.5
263.49	1.19
263.707	17.58
263.923	38.06
264.139	11.43
264.355	46.25
264.571	1.19
264.787	-72.53
265.004	66.73
265.22	50.35
265.436	7.34
265.652	1.19
265.868	9.39
266.084	17.58
266.3	70.83
266.516	-23.38
266.732	72.87
266.948	17.58
267.164	-0.85
267.38	-19.29
267.596	87.21
267.812	27.82
268.028	23.72
268.244	3.24
268.46	17.58
268.676	36.01
268.892	38.06
269.108	-23.38
269.324	-7
269.54	74.92
269.756	29.87
269.972	19.63
270.188	-31.57
270.403	68.78
270.619	33.96
270.835	66.73
271.051	7.34
271.267	-0.85
271.483	36.01
271.698	66.73
271.914	74.92
272.13	-15.19
272.346	5.29
272.562	81.07
272.777	66.73
272.993	-7
273.209	21.67
273.425	103.59
273.64	-4.95
273.856	46.25
274.072	-15.19
274.287	64.68
274.503	89.26
274.719	62.63
274.934	-27.48
275.15	-43.86
275.366	-29.52
275.581	48.3
275.797	66.73
276.012	-62.29
276.228	38.06
276.444	40.11
276.659	56.49
276.875	-37.72
277.09	52.39
277.306	38.06
277.521	19.63
277.737	11.43
277.952	3.24
278.168	56.49
278.383	40.11
278.599	74.92
278.814	23.72
279.03	15.53
279.245	64.68
279.461	5.29
279.676	89.26
279.892	-29.52
280.107	23.72
280.322	-54.1
280.538	31.91
280.753	-4.95
280.969	-15.19
281.184	-27.48
281.399	33.96
281.615	-29.52
281.83	72.87
282.045	-2.9
282.26	-23.38
282.476	42.15
282.691	-7
282.906	44.2
283.122	23.72
283.337	44.2
283.552	29.87
283.767	56.49
283.983	89.26
284.198	97.45
284.413	-13.14
284.628	-9.05
284.843	31.91
285.058	-21.33
285.274	58.54
285.489	-17.24
285.704	72.87
285.919	64.68
286.134	72.87
286.349	46.25
286.564	15.53
286.779	23.72
286.995	31.91
287.21	19.63
287.425	9.39
287.64	-4.95
287.855	48.3
288.07	-9.05
288.285	64.68
288.5	42.15
288.715	-4.95
288.93	-0.85
289.145	113.83
289.36	52.39
289.575	-9.05
289.79	52.39
290.004	-15.19
290.219	9.39
290.434	-50
290.649	33.96
290.864	3.24
291.079	-35.67
291.294	64.68
291.509	17.58
291.724	38.06
291.938	25.77
292.153	21.67
292.368	-45.91
292.583	72.87
292.798	-11.09
293.012	56.49
293.227	7.34
293.442	52.39
293.657	-0.85
293.871	29.87
294.086	27.82
294.301	31.91
294.516	7.34
294.73	31.91
294.945	48.3
295.16	27.82
295.374	38.06
295.589	105.64
295.804	-66.39
296.018	81.07
296.233	7.34
296.447	29.87
296.662	44.2
296.877	46.25
297.091	3.24
297.306	72.87
297.52	113.83
297.735	17.58
297.949	52.39
298.164	72.87
298.378	21.67
298.593	31.91
298.807	52.39
299.022	17.58
299.236	-0.85
299.451	81.07
299.665	-9.05
299.88	103.59
300.094	46.25
300.309	31.91
300.523	64.68
300.737	-9.05
300.952	21.67
301.166	-4.95
301.381	-39.76
301.595	25.77
301.809	-56.15
302.024	27.82
302.238	101.55
302.452	25.77
302.667	38.06
302.881	13.48
303.095	58.54
303.309	-58.2
303.524	15.53
303.738	58.54
303.952	23.72
304.166	1.19
304.381	-13.14
304.595	58.54
304.809	38.06
305.023	-7
305.237	17.58
305.452	15.53
305.666	-2.9
305.88	58.54
306.094	42.15
306.308	-13.14
306.522	58.54
306.736	68.78
306.95	-7
307.164	83.11
307.379	-4.95
307.593	33.96
307.807	48.3
308.021	31.91
308.235	74.92
308.449	7.34
308.663	15.53
308.877	76.97
309.091	66.73
309.305	48.3
309.519	9.39
309.733	-37.72
309.947	11.43
310.161	54.44
310.374	11.43
310.588	1.19
310.802	-80.72
311.016	-21.33
311.23	27.82
311.444	56.49
311.658	54.44
311.872	91.31
312.085	-29.52
312.299	91.31
312.513	48.3
312.727	31.91
312.941	36.01
313.154	52.39
313.368	31.91
313.582	56.49
313.796	31.91
314.009	68.78
314.223	27.82
314.437	64.68
314.651	42.15
314.864	-7
315.078	21.67
315.292	33.96
315.505	58.54
315.719	48.3
315.933	52.39
316.146	-37.72
316.36	40.11
316.573	-50
316.787	91.31
317.001	68.78
317.214	56.49
317.428	23.72
317.641	15.53
317.855	54.44
318.068	58.54
318.282	-21.33
318.495	3.24
318.709	97.45
318.922	17.58
319.136	97.45
319.349	52.39
319.563	60.59
319.776	54.44
319.99	-7
320.203	87.21
320.417	-56.15
320.63	60.59
320.843	79.02
321.057	54.44
321.27	50.35
321.483	23.72
321.697	74.92
321.91	48.3
322.124	7.34
322.337	17.58
322.55	13.48
322.763	85.16
322.977	-4.95
323.19	1.19
323.403	-33.62
323.617	-0.85
323.83	23.72
324.043	17.58
324.256	40.11
324.469	-15.19
324.683	-25.43
324.896	101.55
325.109	105.64
325.322	7.34
325.535	9.39
325.748	76.97
325.962	-41.81
326.175	31.91
326.388	62.63
326.601	52.39
326.814	58.54
327.027	70.83
327.24	93.35
327.453	81.07
327.666	89.26
327.879	13.48
328.092	3.24
328.305	46.25
328.518	115.88
328.731	83.11
328.944	48.3
329.157	-23.38
329.37	52.39
329.583	46.25
329.796	74.92
330.009	72.87
330.222	25.77
330.435	-11.09
330.648	40.11
330.861	-11.09
331.073	31.91
331.286	29.87
331.499	9.39
331.712	-37.72
331.925	46.25
332.138	17.58
332.35	54.44
332.563	64.68
332.776	58.54
332.989	-9.05
333.202	91.31
333.414	42.15
333.627	48.3
333.84	25.77
334.053	-23.38
334.265	17.58
334.478	72.87
334.691	-2.9
334.903	42.15
335.116	23.72
335.329	91.31
335.541	66.73
335.754	25.77
335.966	66.73
336.179	-17.24
336.392	29.87
336.604	97.45
336.817	-21.33
337.029	54.44
337.242	9.39
337.454	-41.81
337.667	-7
337.88	79.02
338.092	44.2
338.305	81.07
338.517	11.43
338.729	91.31
338.942	91.31
339.154	40.11
339.367	1.19
339.579	44.2
339.792	25.77
340.004	-0.85
340.217	-0.85
340.429	48.3
340.641	25.77
340.854	5.29
341.066	29.87
341.278	87.21
341.491	1.19
341.703	33.96
341.915	68.78
342.128	115.88
342.34	58.54
342.552	64.68
342.764	46.25
342.977	58.54
343.189	38.06
343.401	68.78
343.613	-27.48
343.826	68.78
344.038	21.67
344.25	89.26
344.462	-4.95
344.674	46.25
344.886	7.34
345.099	-23.38
345.311	89.26
345.523	48.3
345.735	40.11
345.947	29.87
346.159	93.35
346.371	-31.57
346.583	72.87
346.795	72.87
347.007	-9.05
347.219	83.11
347.431	11.43
347.643	72.87
347.855	64.68
348.067	52.39
348.279	33.96
348.491	-23.38
348.703	56.49
348.915	83.11
349.127	27.82
349.339	72.87
349.551	-0.85
349.763	105.64
349.975	97.45
350.187	-0.85
350.399	66.73
350.61	-39.76
350.822	31.91
351.034	15.53
351.246	40.11
351.458	50.35
351.669	23.72
351.881	91.31
352.093	54.44
352.305	15.53
352.517	9.39
352.728	36.01
352.94	25.77
353.152	42.15
353.363	97.45
353.575	50.35
353.787	-2.9
353.999	56.49
354.21	68.78
354.422	7.34
354.633	56.49
354.845	56.49
355.057	-23.38
355.268	-17.24
355.48	31.91
355.692	85.16
355.903	-0.85
356.115	21.67
356.326	56.49
356.538	17.58
356.749	1.19
356.961	-29.52
357.172	27.82
357.384	36.01
357.595	-29.52
357.807	48.3
358.018	42.15
358.23	122.02
358.441	-11.09
358.653	-25.43
358.864	27.82
359.075	31.91
359.287	29.87
359.498	5.29
359.709	11.43
359.921	64.68
360.132	83.11
360.344	81.07
360.555	48.3
360.766	25.77
360.977	-27.48
361.189	72.87
361.4	-29.52
361.611	25.77
361.823	109.74
362.034	7.34
362.245	17.58
362.456	9.39
362.667	44.2
362.879	5.29
363.09	58.54
363.301	83.11
363.512	27.82
363.723	74.92
363.935	-4.95
364.146	56.49
364.357	9.39
364.568	19.63
364.779	-2.9
364.99	-0.85
365.201	19.63
365.412	13.48
365.623	42.15
365.834	46.25
366.045	56.49
366.256	36.01
366.467	-27.48
366.678	117.93
366.889	23.72
367.1	68.78
367.311	64.68
367.522	42.15
367.733	21.67
367.944	40.11
368.155	-17.24
368.366	99.5
368.577	62.63
368.788	50.35
368.999	25.77
369.209	15.53
369.42	-39.76
369.631	109.74
369.842	-37.72
370.053	42.15
370.264	72.87
370.474	42.15
370.685	23.72
370.896	83.11
371.107	42.15
371.317	-4.95
371.528	33.96
371.739	70.83
371.95	50.35
372.16	-7
372.371	54.44
372.582	56.49
372.792	15.53
373.003	33.96
373.214	103.59
373.424	-7
373.635	74.92
373.846	36.01
374.056	66.73
374.267	130.22
374.477	21.67
374.688	31.91
374.898	-68.44
375.109	33.96
375.319	60.59
375.53	72.87
375.74	25.77
375.951	-17.24
376.161	79.02
376.372	50.35
376.582	42.15
376.793	-60.24
377.003	83.11
377.214	83.11
377.424	81.07
377.635	138.41
377.845	19.63
378.055	68.78
378.266	72.87
378.476	64.68
378.686	72.87
378.897	19.63
379.107	25.77
379.317	74.92
379.528	-43.86
379.738	40.11
379.948	7.34
380.158	93.35
380.369	21.67
380.579	89.26
380.789	17.58
380.999	1.19
381.21	113.83
381.42	3.24
381.63	58.54
381.84	68.78
382.05	31.91
382.261	66.73
382.471	27.82
382.681	-29.52
382.891	58.54
383.101	-33.62
383.311	72.87
383.521	81.07
383.731	19.63
383.941	46.25
384.151	70.83
384.361	-15.19
384.571	31.91
384.781	5.29
384.991	40.11
385.201	138.41
385.411	11.43
385.621	54.44
385.831	1.19
386.041	23.72
386.251	3.24
386.461	17.58
386.671	33.96
386.881	70.83
387.091	11.43
387.301	93.35
387.511	66.73
387.72	50.35
387.93	15.53
388.14	52.39
388.35	83.11
388.56	17.58
388.769	52.39
388.979	15.53
389.189	19.63
389.399	97.45
389.609	-17.24
389.818	76.97
390.028	-7
390.238	48.3
390.447	-39.76
390.657	83.11
390.867	21.67
391.076	-11.09
391.286	19.63
391.496	64.68
391.705	93.35
391.915	134.31
392.125	23.72
392.334	81.07
392.544	81.07
392.753	56.49
392.963	44.2
393.172	134.31
393.382	36.01
393.591	81.07
393.801	27.82
394.01	40.11
394.22	17.58
394.429	105.64
394.639	56.49
394.848	23.72
395.058	38.06
395.267	70.83
395.477	68.78
395.686	40.11
395.895	97.45
396.105	109.74
396.314	31.91
396.524	62.63
396.733	107.69
396.942	50.35
397.152	122.02
397.361	72.87
397.57	87.21
397.78	33.96
397.989	99.5
398.198	103.59
398.407	23.72
398.617	56.49
398.826	21.67
399.035	58.54
399.244	70.83
399.453	89.26
399.663	87.21
399.872	103.59
400.081	11.43
400.29	56.49
400.499	64.68
400.708	105.64
400.917	25.77
401.127	52.39
401.336	42.15
401.545	81.07
401.754	56.49
401.963	119.98
402.172	93.35
402.381	42.15
402.59	33.96
402.799	36.01
403.008	66.73
403.217	105.64
403.426	83.11
403.635	85.16
403.844	93.35
404.053	81.07
404.262	107.69
404.471	93.35
404.68	76.97
404.888	134.31
405.097	87.21
405.306	111.78
405.515	140.46
405.724	136.36
405.933	146.6
406.142	171.18
406.35	171.18
406.559	119.98
406.768	83.11
406.977	122.02
407.185	148.65
407.394	113.83
407.603	111.78
407.812	156.84
408.02	162.98
408.229	179.37
408.438	107.69
408.646	169.13
408.855	138.41
409.064	171.18
409.272	136.36
409.481	171.18
409.69	122.02
409.898	158.89
410.107	171.18
410.315	220.33
410.524	197.8
410.733	312.49
410.941	205.99
411.15	281.77
411.358	263.33
411.567	283.81
411.775	269.48
411.984	255.14
412.192	246.95
412.401	345.25
412.609	298.15
412.818	267.43
413.026	322.73
413.234	361.64
413.443	318.63
413.651	332.97
413.86	351.4
414.068	449.7
414.276	396.45
414.485	312.49
414.693	398.5
414.901	425.12
415.11	404.64
415.318	375.97
415.526	490.66
415.734	482.47
415.943	496.8
416.151	537.76
416.359	525.47
416.567	638.11
416.776	521.38
416.984	568.48
417.192	511.14
417.4	621.73
417.608	625.83
417.817	670.88
418.025	697.5
418.233	781.47
418.441	695.46
418.649	760.99
418.857	793.76
419.065	799.9
419.273	789.66
419.481	820.38
419.689	976.03
419.897	922.78
420.105	937.12
420.313	1047.71
420.521	1072.28
420.729	1021.08
420.937	1006.75
421.145	1174.68
421.353	1164.44
421.561	1166.49
421.769	1164.44
421.977	1344.66
422.185	1219.74
422.393	1379.48
422.601	1391.77
422.809	1498.26
423.017	1340.57
423.224	1453.2
423.432	1498.26
423.64	1465.49
423.848	1578.13
424.056	1580.18
424.263	1778.83
424.471	1707.15
424.679	1815.69
424.887	1967.24
425.094	1940.62
425.302	1928.33
425.51	2014.35
425.718	2057.36
425.925	2110.6
426.133	2161.8
426.341	2143.37
426.548	2425.99
426.756	2313.35
426.964	2350.21
427.171	2657.41
427.379	2548.87
427.586	2722.95
427.794	2768
428.001	2774.14
428.209	3097.72
428.417	2899.07
428.624	3062.91
428.832	3267.7
429.039	3087.48
429.247	3038.33
429.454	3562.61
429.662	3710.07
429.869	3513.46
430.076	3638.39
430.284	3390.58
430.491	3624.05
430.699	3802.22
430.906	3906.67
431.114	3841.14
431.321	4211.82
431.528	4406.38
431.736	4451.43
431.943	4660.32
432.15	4570.21
432.358	4676.71
432.565	4826.21
432.772	4828.26
432.979	5078.11
433.187	5069.92
433.394	5028.96
433.601	5606.49
433.808	5575.77
434.016	5471.32
434.223	5682.26
434.43	6057.04
434.637	5774.42
434.844	6440.01
435.052	6345.8
435.259	6470.73
435.466	6538.31
435.673	6298.7
435.88	6841.41
436.087	7222.33
436.294	7271.48
436.501	6917.19
436.708	7203.9
436.915	7337.02
437.122	7627.83
437.329	7644.21
437.537	7957.55
437.743	8199.21
437.95	8088.62
438.157	8545.32
438.364	8600.62
438.571	8705.06
438.778	8805.41
438.985	9579.54
439.192	9210.91
439.399	9458.71
439.606	8977.44
439.813	10005.52
440.02	10378.25
440.227	10193.94
440.433	9962.51
440.64	10394.64
440.847	10241.04
441.054	10494.99
441.261	11430.91
441.467	11224.06
441.674	11340.8
441.881	11697.14
442.088	11736.06
442.294	11680.76
442.501	11811.83
442.708	12057.59
442.914	12557.29
443.121	13196.26
443.328	12786.66
443.534	13738.97
443.741	13339.62
443.948	13106.15
444.154	14171.09
444.361	14103.51
444.568	14169.04
444.774	14044.12
444.981	14205.91
445.187	14719.95
445.394	15387.58
445.6	15119.3
445.807	16544.69
446.013	15875
446.22	16057.27
446.426	16690.09
446.633	17032.1
446.839	17308.58
447.046	17068.97
447.252	17824.67
447.459	17826.71
447.665	17583.01
447.871	18230.16
448.078	18973.58
448.284	18594.7
448.491	18455.44
448.697	19452.8
448.903	19921.79
449.11	19852.16
449.316	19618.69
449.522	19876.73
449.728	20427.63
449.935	20632.43
450.141	20607.86
450.347	20841.32
450.553	20216.69
450.76	20794.22
450.966	21435.24
451.172	20976.49
451.378	21449.57
451.584	21349.22
451.791	21650.27
451.997	21683.04
452.203	22119.26
452.409	21887.84
452.615	21846.88
452.821	21191.53
453.027	20949.87
453.233	21926.75
453.44	21224.29
453.646	21136.23
453.852	21371.75
454.058	21697.38
454.264	21240.68
454.47	21431.14
454.676	21226.34
454.882	21556.07
455.088	19880.83
455.294	20284.28
455.5	20384.63
455.705	20478.83
455.911	19553.15
456.117	19547.01
456.323	19274.63
456.529	18006.94
456.735	18879.37
456.941	18475.92
457.147	18148.25
457.352	17365.92
457.558	17531.81
457.764	17509.28
457.97	17357.73
458.176	16890.79
458.381	16563.12
458.587	15967.16
458.793	16087.99
458.999	15150.02
459.204	16063.41
459.41	15692.73
459.616	14691.27
459.821	14803.91
460.027	14656.46
460.233	14345.17
460.438	13732.83
460.644	13999.06
460.85	13063.14
461.055	12856.29
461.261	13005.8
461.466	11938.8
461.672	11721.72
461.878	12583.91
462.083	11498.49
462.289	11363.33
462.494	11314.17
462.7	10740.74
462.905	10449.93
463.111	10857.48
463.316	10886.15
463.522	10777.61
463.727	10679.3
463.932	10701.83
464.138	10390.54
464.343	10712.07
464.549	10396.68
464.754	10693.64
464.959	10445.84
465.165	10732.55
465.37	10128.4
465.575	9786.39
465.781	10245.13
465.986	10136.59
466.191	9813.01
466.397	9667.61
466.602	9348.12
466.807	9444.38
467.012	9675.8
467.218	9518.11
467.423	9624.6
467.628	9552.92
467.833	10026
468.038	9464.86
468.244	9339.93
468.449	9681.94
468.654	9239.58
468.859	9266.21
469.064	9096.22
469.269	8934.43
469.474	9030.69
469.679	9233.44
469.885	8764.45
470.09	8764.45
470.295	8981.54
470.5	8752.17
470.705	8967.2
470.91	8602.66
471.115	8434.73
471.32	8614.95
471.525	8733.73
471.73	8295.47
471.935	8326.19
472.139	7898.16
472.344	7978.03
472.549	7816.24
472.754	8021.04
472.959	7818.29
473.164	7662.65
473.369	7668.79
473.574	7889.97
473.778	7771.19
473.983	7683.13
474.188	7547.96
474.393	7447.61
474.598	7402.55
474.802	7169.09
475.007	7177.28
475.212	7289.92
475.417	6970.43
475.621	7035.97
475.826	7083.07
476.031	6874.18
476.235	6806.59
476.44	6988.86
476.645	6708.29
476.849	6810.69
477.054	6683.72
477.259	6495.3
477.463	6468.68
477.668	6485.06
477.872	6372.43
478.077	6243.4
478.282	6237.26
478.486	6251.6
478.691	6061.13
478.895	6216.78
479.1	6091.85
479.304	6112.33
479.509	5897.3
479.713	5987.41
479.918	5917.78
480.122	5663.83
480.326	5864.53
480.531	5893.2
480.735	5788.75
480.94	5780.56
481.144	6071.37
481.348	5645.4
481.553	5788.75
481.757	5749.84
481.961	5655.64
482.166	5639.25
482.37	5710.93
482.574	5620.82
482.778	5534.81
482.983	5700.69
483.187	5737.56
483.391	5798.99
483.595	5598.29
483.8	5391.45
484.004	5661.78
484.208	5762.13
484.412	5608.53
484.616	5690.45
484.821	5645.4
485.025	5452.89
485.229	5606.49
485.433	5432.41
485.637	5755.99
485.841	5686.36
486.045	5528.66
486.249	5512.28
486.453	5690.45
486.657	5510.23
486.861	5741.65
487.065	5518.42
487.269	5434.46
487.473	5626.96
487.677	5741.65
487.881	5708.88
488.085	5510.23
488.289	5512.28
488.493	5741.65
488.697	5731.41
488.901	5833.81
489.105	5774.42
489.309	5792.85
489.512	5715.03
489.716	5573.72
489.92	5688.4
490.124	5807.19
490.328	5747.79
490.531	5694.55
490.735	5819.47
490.939	5872.72
491.143	5891.15
491.346	5885.01
491.55	5741.65
491.754	6091.85
491.958	6054.99
492.161	5858.39
492.365	6005.84
492.569	6143.05
492.772	5923.92
492.976	5997.65
493.18	6059.09
493.383	6057.04
493.587	6243.4
493.79	6397
493.994	6245.45
494.197	6288.46
494.401	6288.46
494.605	6456.39
494.808	6491.21
495.012	6390.86
495.215	6454.34
495.419	6601.8
495.622	6595.65
495.825	6775.88
496.029	6478.92
496.232	6890.56
496.436	6800.45
496.639	7050.3
496.843	7035.97
497.046	7027.78
497.249	7019.58
497.453	7312.44
497.656	7392.31
497.859	7310.4
498.063	7517.24
498.266	7613.49
498.469	7552.06
498.673	7627.83
498.876	7676.98
499.079	7674.93
499.282	7830.58
499.485	7842.87
499.689	8037.42
499.892	8088.62
500.095	8125.49
500.298	8467.5
500.501	8311.85
500.705	8565.8
500.908	8627.24
501.111	8764.45
501.314	8739.88
501.517	8840.23
501.72	9028.64
501.923	9145.38
502.126	9190.43
502.329	9360.41
502.532	9360.41
502.735	9407.52
502.938	9737.24
503.141	9737.24
503.344	10026
503.547	10165.26
503.75	10126.35
503.953	10302.48
504.156	10267.66
504.359	10517.51
504.562	10548.23
504.765	10845.19
504.968	11090.95
505.17	11217.92
505.373	11193.34
505.576	11336.7
505.779	11613.18
505.982	11738.1
506.185	11901.94
506.387	11754.49
506.59	12010.48
506.793	12133.36
506.996	12213.23
507.198	12782.57
507.401	12608.49
507.604	12952.55
507.807	13054.95
508.009	13095.91
508.212	13192.16
508.415	13566.94
508.617	13816.79
508.82	13728.73
509.022	13665.24
509.225	14185.43
509.428	14105.56
509.63	14386.13
509.833	14404.56
510.035	14846.92
510.238	14662.6
510.44	15141.83
510.643	15334.34
510.845	15479.74
511.048	15436.74
511.25	15965.11
511.453	16122.8
511.655	16683.95
511.858	16094.13
512.06	16516.01
512.262	16722.86
512.465	16610.22
512.667	16941.99
512.87	17525.66
513.072	17310.63
513.274	17462.18
513.477	17998.74
513.679	18082.71
513.881	18412.43
514.084	18099.09
514.286	18746.25
514.488	18586.51
514.69	19080.07
514.893	19078.02
515.095	19299.2
515.297	19762.05
515.499	19661.69
515.701	20089.72
515.904	20212.6
516.106	20683.63
516.308	20560.75
516.51	21066.6
516.712	20919.15
516.914	21465.96
517.116	21748.57
517.318	21762.91
517.52	22049.63
517.722	22076.25
517.925	22461.27
518.127	22917.96
518.329	23087.95
518.531	23176.01
518.733	23601.99
518.935	23591.75
519.136	23696.19
519.338	24202.04
519.54	24417.08
519.742	24640.31
519.944	24836.91
520.146	24828.72
520.348	25115.44
520.55	25578.28
520.752	25588.52
520.954	26059.55
521.155	25957.15
521.357	26354.46
521.559	26655.51
521.761	26903.31
521.963	27126.54
522.164	27079.44
522.366	27237.13
522.568	27581.19
522.77	28058.37
522.971	28037.89
523.173	28091.13
523.375	28267.26
523.576	28551.93
523.778	28723.96
523.98	29065.97
524.181	28836.59
524.383	29203.18
524.584	29346.54
524.786	29618.92
524.988	29575.91
525.189	30067.42
525.391	30155.49
525.592	30339.8
525.794	30550.74
525.995	30892.76
526.197	30984.91
526.398	30978.77
526.6	30995.15
526.801	31044.3
527.003	31488.71
527.204	31290.06
527.406	31392.46
527.607	31679.18
527.808	31621.83
528.01	31232.72
528.211	31574.73
528.412	32398.01
528.614	32312
528.815	32127.68
529.016	32766.65
529.218	32135.87
529.419	32101.06
529.62	32740.02
529.822	33082.03
530.023	32791.22
530.224	32613.05
530.425	33092.27
530.626	32867
530.828	32881.33
531.029	33088.18
531.23	33172.14
531.431	32983.73
531.632	33157.81
531.833	33335.98
532.035	33426.09
532.236	33434.28
532.437	33639.08
532.638	33479.34
532.839	33755.82
533.04	33569.45
533.241	33399.47
533.442	33651.37
533.643	33757.86
533.844	33854.12
534.045	33819.3
534.246	33493.68
534.447	33985.19
534.648	33536.68
534.849	33850.02
535.05	33469.1
535.251	33987.24
535.451	33774.25
535.652	33682.09
535.853	33823.4
536.054	33989.28
536.255	34052.77
536.456	33856.17
536.657	34280.1
536.857	33907.37
537.058	33809.06
537.259	34114.21
537.46	33890.98
537.66	34067.11
537.861	33981.09
538.062	33858.21
538.263	33757.86
538.463	33811.11
538.664	34003.62
538.865	34089.63
539.065	34259.62
539.266	33497.77
539.466	34091.68
539.667	33520.3
539.868	34249.38
540.068	34024.1
540.269	33870.5
540.469	34128.55
540.67	34020
540.87	34181.79
541.071	33729.19
541.271	33893.03
541.472	33673.9
541.672	33917.61
541.873	33936.04
542.073	33346.22
542.274	34316.96
542.474	34091.68
542.675	33952.42
542.875	34024.1
543.075	33807.01
543.276	33596.07
543.476	34249.38
543.676	34071.2
543.877	34187.94
544.077	34267.81
544.277	33923.75
544.478	33905.32
544.678	34103.97
544.878	33710.76
545.078	33673.9
545.279	33671.85
545.479	33352.37
545.679	34288.29
545.879	33721
546.079	33602.22
546.28	33852.07
546.48	33639.08
546.68	34060.96
546.88	33776.3
547.08	34038.44
547.28	33772.2
547.48	33766.06
547.68	34075.3
547.88	34042.53
548.081	34126.5
548.281	33702.57
548.481	33751.72
548.681	34054.82
548.881	34058.91
549.081	33897.13
549.28	33645.23
549.48	34085.54
549.68	33999.52
549.88	34083.49
550.08	33604.27
550.28	33925.8
550.48	33376.94
550.68	34153.12
550.88	33610.41
551.08	33559.21
551.279	33800.87
551.479	33422
551.679	34083.49
551.879	33544.87
552.079	33491.63
552.278	33651.37
552.478	33931.94
552.678	33868.45
552.878	33876.65
553.077	33553.07
553.277	33624.75
553.477	34124.45
553.676	33508.01
553.876	33649.32
554.076	33645.23
554.275	33680.04
554.475	33360.56
554.674	33495.72
554.874	33440.43
555.074	33694.38
555.273	33589.93
555.473	33778.34
555.672	33178.29
555.872	33538.73
556.071	33303.21
556.271	33399.47
556.47	33020.59
556.67	32596.67
556.869	33127.09
557.068	33352.37
557.268	33125.04
557.467	33252.02
557.667	33127.09
557.866	33362.61
558.065	32811.7
558.265	32979.64
558.464	32969.4
558.663	32828.09
558.863	32508.6
559.062	33428.14
559.261	32420.54
559.461	32756.41
559.66	32389.82
559.859	32881.33
560.058	32645.82
560.258	32754.36
560.457	32357.05
560.656	32264.89
560.855	32578.23
561.054	32510.65
561.253	31920.84
561.453	32309.95
561.652	32258.75
561.851	32414.4
562.05	32084.67
562.249	31740.61
562.448	32318.14
562.647	32021.19
562.846	32004.8
563.045	31908.55
563.244	31859.4
563.443	32191.17
563.642	32000.71
563.841	31533.77
564.04	31818.44
564.239	31988.42
564.438	31556.3
564.637	31818.44
564.836	31654.6
565.035	31511.24
565.234	31595.21
565.432	31609.54
565.631	31109.84
565.83	31378.12
566.029	31376.08
566.228	31214.29
566.427	31263.44
566.625	30894.8
566.824	30585.56
567.023	31371.98
567.222	30540.5
567.42	31234.77
567.619	30718.68
567.818	30606.04
568.016	30315.23
568.215	30491.35
568.414	30483.16
568.612	30911.19
568.811	30819.03
569.01	30446.3
569.208	30069.47
569.407	30419.67
569.605	29985.51
569.804	30429.91
570.002	30128.86
570.201	30278.36
570.4	29786.85
570.598	29610.73
570.797	29563.62
570.995	29639.4
571.193	29539.05
571.392	29721.32
571.59	29407.98
571.789	29684.45
571.987	29172.46
572.186	29129.45
572.384	29092.59
572.582	29483.75
572.781	29063.92
572.979	28646.13
573.177	28807.92
573.376	28865.27
573.574	28547.83
573.772	28691.19
573.971	28222.2
574.169	28271.36
574.367	27945.73
574.565	28345.08
574.763	28039.93
574.962	28052.22
575.16	27988.74
575.358	28144.38
575.556	27570.95
575.754	27904.77
575.952	27552.52
576.151	27761.41
576.349	27198.22
576.547	27366.15
576.745	27544.33
576.943	27349.77
577.141	27263.75
577.339	27138.83
577.537	27110.16
577.735	27233.04
577.933	27241.23
578.131	26794.77
578.329	26694.42
578.527	26385.18
578.725	26542.87
578.923	26514.2
579.121	26424.09
579.319	26168.09
579.516	26231.58
579.714	26592.02
579.912	26110.75
580.11	26020.64
580.308	26030.88
580.506	26026.78
580.704	25695.01
580.901	26014.49
581.099	26051.36
581.297	25555.75
581.495	25559.84
581.692	25723.68
581.89	25666.34
582.088	25496.36
582.285	25291.56
582.483	25809.7
582.681	25250.6
582.878	25119.53
583.076	24888.11
583.274	25090.86
583.471	24546.1
583.669	24861.49
583.866	24800.05
584.064	24941.36
584.262	24341.3
584.459	24419.13
584.657	24468.28
584.854	24619.83
585.052	24363.83
585.249	24501.04
585.447	24363.83
585.644	23862.08
585.841	24036.16
586.039	24513.33
586.236	23626.56
586.434	23935.81
586.631	23774.02
586.828	23567.17
587.026	23513.92
587.223	23522.12
587.42	23821.12
587.618	23749.44
587.815	23239.5
588.012	23548.74
588.21	23411.53
588.407	23608.13
588.604	23096.14
588.801	23059.27
588.999	23210.82
589.196	22864.72
589.393	22956.88
589.59	22881.1
589.787	23118.67
589.984	22762.32
590.182	22164.31
590.379	22905.68
590.576	22502.23
590.773	22401.88
590.97	22401.88
591.167	22719.31
591.364	21918.56
591.561	22092.63
591.758	22111.07
591.955	22106.97
592.152	22229.85
592.349	22035.29
592.546	21990.24
592.743	21973.85
592.94	21629.79
593.137	21738.33
593.334	21801.82
593.531	21420.9
593.727	21461.86
593.924	21384.04
594.121	21347.17
594.318	21355.36
594.515	21336.93
594.712	21492.58
594.908	21033.83
595.105	21474.15
595.302	20913
595.499	21054.31
595.696	20667.25
595.892	20636.53
596.089	21134.18
596.286	21125.99
596.482	20695.92
596.679	20497.27
596.876	20872.04
597.072	20583.28
597.269	20532.08
597.466	20169.59
597.662	20466.55
597.859	20536.18
598.055	20106.1
598.252	20185.97
598.448	19831.68
598.645	20081.53
598.841	19803
599.038	19903.35
599.234	19696.51
599.431	19739.52
599.627	19899.26
599.824	19856.25
600.02	19493.76
600.217	19397.51
600.413	19710.85
600.609	19352.45
600.806	19323.78
601.002	19401.6
601.198	18975.63
601.395	19293.06
601.591	18887.56
601.787	19035.02
601.984	18973.58
602.18	19196.81
602.376	18901.9
602.572	18748.3
602.769	18652.05
602.965	18627.47
603.161	18592.65
603.357	18574.22
603.553	18774.92
603.75	18324.37
603.946	18320.28
604.142	18389.91
604.338	18041.75
604.534	18195.35
604.73	18051.99
604.926	17822.62
605.122	18076.57
605.318	18000.79
605.514	17900.44
605.71	17542.05
605.906	17675.16
606.102	17871.77
606.298	17636.25
606.494	17699.74
606.69	17505.18
606.886	17652.64
607.082	17349.54
607.278	17550.24
607.474	17046.44
607.67	17431.46
607.866	17044.39
608.062	17345.44
608.257	17030.05
608.453	17243.04
608.649	17197.99
608.845	16956.33
609.041	17142.69
609.236	16827.31
609.432	16835.5
609.628	17034.15
609.824	16579.5
610.019	16571.31
610.215	16714.67
610.411	16810.92
610.606	16499.63
610.802	16450.48
610.998	16434.1
611.193	16417.71
611.389	16192.44
611.584	16407.47
611.78	16210.87
611.976	16174
612.171	16071.61
612.367	16325.55
612.562	16047.03
612.758	15770.55
612.953	15967.16
613.149	16010.17
613.344	15604.67
613.539	15987.64
613.735	15752.12
613.93	15811.51
614.126	15649.72
614.321	15932.34
614.517	15698.88
614.712	15518.65
614.907	15463.36
615.103	15510.46
615.298	15354.82
615.493	15492.03
615.688	15129.54
615.884	15676.35
616.079	15295.43
616.274	15135.68
616.47	15231.94
616.665	15084.48
616.86	15037.38
617.055	14916.55
617.25	15033.29
617.445	15131.59
617.641	14887.88
617.836	15113.16
618.031	14709.71
618.226	14699.47
618.421	14834.63
618.616	15053.76
618.811	14513.1
619.006	14859.21
619.201	14621.64
619.396	14509.01
619.591	14382.03
619.786	14367.7
619.981	14283.73
620.176	14222.29
620.371	13964.25
620.566	14173.14
620.761	14044.12
620.956	14128.08
621.151	13935.57
621.346	13812.7
621.541	13493.21
621.735	13687.77
621.93	13714.39
622.125	13411.29
622.32	13386.72
622.515	13415.39
622.709	13261.79
622.904	13114.34
623.099	13069.28
623.294	13216.74
623.488	12999.65
623.683	12850.15
623.878	12698.6
624.072	12905.45
624.267	12987.36
624.462	12665.83
624.656	12551.15
624.851	12710.89
625.046	12528.62
625.24	12524.52
625.435	12450.8
625.629	12342.25
625.824	12157.94
626.018	12383.21
626.213	11957.24
626.407	12033.01
626.602	11920.37
626.796	11863.03
626.991	11850.74
627.185	11672.57
627.38	11541.5
627.574	11631.61
627.768	11512.83
627.963	11502.59
628.157	11432.96
628.352	11385.85
628.546	11387.9
628.74	11246.59
628.935	11262.97
629.129	11230.21
629.323	10998.79
629.517	10935.3
629.712	10941.44
629.906	10789.89
630.1	10664.97
630.294	10841.09
630.489	10746.89
630.683	10890.24
630.877	10529.8
631.071	10615.82
631.265	10464.27
631.459	10527.75
631.653	10445.84
631.848	10443.79
632.042	10365.96
632.236	10279.95
632.43	10275.85
632.624	10234.89
632.818	9950.23
633.012	10064.91
633.206	9944.08
633.4	9862.16
633.594	10042.39
633.788	9833.49
633.982	10064.91
634.176	9810.96
634.369	9776.15
634.563	9786.39
634.757	9741.33
634.951	9454.62
635.145	9479.19
635.339	9712.66
635.533	9425.95
635.726	9536.54
635.92	9223.2
636.114	9323.55
636.308	9239.58
636.501	9266.21
636.695	9096.22
636.889	9071.65
637.083	9153.57
637.276	9077.79
637.47	8993.83
637.664	8999.97
637.857	8985.63
638.051	8973.35
638.244	8731.69
638.438	8758.31
638.632	8555.56
638.825	8729.64
639.019	8510.5
639.212	8567.85
639.406	8563.75
639.599	8559.66
639.793	8522.79
639.986	8342.57
640.18	8358.96
640.373	8211.5
640.567	8172.59
640.76	8127.53
640.954	8139.82
641.147	8182.83
641.34	8031.28
641.534	8004.66
641.727	7978.03
641.92	7941.17
642.114	7754.8
642.307	7791.67
642.5	7738.42
642.694	7683.13
642.887	7693.37
643.08	7511.1
643.273	7584.82
643.467	7507
643.66	7519.29
643.853	7687.22
644.046	7277.63
644.239	7390.27
644.432	7263.29
644.626	7318.59
644.819	7117.89
645.012	7271.48
645.205	7183.42
645.398	7009.34
645.591	7253.05
645.784	7064.64
645.977	7019.58
646.17	7076.93
646.363	6868.03
646.556	6566.98
646.749	6849.6
646.942	6925.38
647.135	6794.31
647.328	6702.15
647.521	6528.07
647.714	6577.22
647.907	6566.98
648.099	6454.34
648.292	6624.33
648.485	6364.23
648.678	6300.75
648.871	6313.03
649.064	6347.85
649.256	6294.6
649.449	6184.01
649.642	6249.55
649.835	6306.89
650.027	6270.03
650.22	5917.78
650.413	6120.53
650.605	6036.56
650.798	6073.42
650.991	6052.94
651.183	6005.84
651.376	5923.92
651.568	5917.78
651.761	5786.71
651.954	5977.17
652.146	5684.31
652.339	5788.75
652.531	5741.65
652.724	5645.4
652.916	5530.71
653.109	5569.62
653.301	5545.05
653.494	5573.72
653.686	5475.42
653.879	5430.36
654.071	5463.13
654.263	5362.78
654.456	5237.85
654.648	5418.07
654.84	5172.32
655.033	5252.19
655.225	5311.58
655.417	5137.5
655.61	5022.81
655.802	5104.73
655.994	5098.59
656.186	5010.53
656.379	5162.08
656.571	5082.21
656.763	4875.36
656.955	4926.56
657.148	4932.7
657.34	4760.67
657.532	4752.48
657.724	4754.53
657.916	4762.72
658.108	4881.5
658.3	4648.04
658.492	4672.61
658.684	4545.64
658.876	4627.56
659.068	4447.33
659.26	4453.48
659.452	4365.42
659.644	4455.53
659.836	4447.33
660.028	4615.27
660.22	4385.9
660.412	4353.13
660.604	4353.13
660.796	4240.49
660.988	4424.81
661.18	4197.48
661.372	4320.36
661.563	4154.48
661.755	4127.85
661.947	4088.94
662.139	4174.95
662.331	3972.21
662.522	4062.32
662.714	4082.8
662.906	4021.36
663.097	4011.12
663.289	3974.25
663.481	3869.81
663.673	3720.31
663.864	3808.37
664.056	3775.6
664.247	3699.83
664.439	3726.45
664.631	3857.52
664.822	3628.15
665.014	3714.16
665.205	3744.88
665.397	3665.01
665.588	3738.74
665.78	3656.82
665.971	3626.1
666.163	3613.81
666.354	3439.73
666.546	3611.76
666.737	3554.42
666.929	3474.55
667.12	3464.31
667.311	3499.13
667.503	3378.3
667.694	3357.82
667.885	3351.67
668.077	3296.38
668.268	3269.75
668.459	3380.34
668.651	3302.52
668.842	3282.04
669.033	3331.19
669.224	3085.44
669.416	3167.35
669.607	3220.6
669.798	3226.75
669.989	3157.11
670.18	3251.32
670.371	3159.16
670.563	3116.16
670.754	3153.02
670.945	3089.53
671.136	3030.14
671.327	3089.53
671.518	3017.85
671.709	3058.81
671.9	3062.91
672.091	2890.88
672.282	3054.72
672.473	3030.14
672.664	2970.75
672.855	2933.89
673.046	2935.93
673.237	2849.92
673.428	2864.25
673.619	2974.85
673.809	2921.6
674	2841.73
674.191	2829.44
674.382	2892.93
674.573	2886.78
674.764	2679.94
674.954	2792.58
675.145	2763.9
675.336	2798.72
675.527	2858.11
675.717	2831.49
675.908	2729.09
676.099	2817.15
676.289	2753.66
676.48	2602.11
676.671	2716.8
676.861	2657.41
677.052	2720.9
677.243	2786.43
677.433	2665.6
677.624	2821.25
677.814	2653.31
678.005	2557.06
678.195	2561.16
678.386	2663.55
678.576	2643.07
678.767	2540.68
678.957	2552.96
679.148	2536.58
679.338	2520.2
679.529	2569.35
679.719	2548.87
679.909	2516.1
680.1	2671.75
680.29	2526.34
680.481	2530.44
680.671	2589.83
680.861	2555.01
681.052	2507.91
681.242	2473.09
681.432	2559.11
681.622	2450.57
681.813	2571.4
682.003	2466.95
682.193	2466.95
682.383	2397.32
682.573	2434.18
682.764	2372.74
682.954	2366.6
683.144	2358.41
683.334	2448.52
683.524	2483.33
683.714	2518.15
683.904	2309.26
684.094	2501.76
684.284	2368.65
684.474	2491.52
684.664	2436.23
684.854	2315.4
685.044	2378.89
685.234	2358.41
685.424	2339.97
685.614	2376.84
685.804	2325.64
685.994	2227.34
686.184	2434.18
686.374	2303.11
686.564	2331.78
686.753	2317.45
686.943	2282.63
687.133	2276.49
687.323	2317.45
687.513	2325.64
687.702	2264.2
687.892	2296.97
688.082	2352.26
688.272	2376.84
688.461	2325.64
688.651	2292.87
688.841	2229.38
689.03	2192.52
689.22	2321.54
689.41	2290.82
689.599	2288.78
689.789	2342.02
689.979	2251.91
690.168	2272.39
690.358	2219.14
690.547	2251.91
690.737	2266.25
690.926	2276.49
691.116	2313.35
691.305	2313.35
691.495	2268.3
691.684	2339.97
691.874	2305.16
692.063	2237.58
692.252	2335.88
692.442	2364.55
692.631	2311.3
692.82	2344.07
693.01	2204.81
693.199	2196.62
693.388	2276.49
693.578	2231.43
693.767	2378.89
693.956	2235.53
694.146	2278.54
694.335	2053.26
694.524	2235.53
694.713	2219.14
694.902	2239.62
695.092	2256.01
695.281	2182.28
695.47	2215.05
695.659	2292.87
695.848	2245.77
696.037	2213
696.226	2233.48
696.415	2227.34
696.604	2319.5
696.793	2235.53
696.982	2204.81
697.171	2176.14
697.36	2157.71
697.549	2163.85
697.738	2157.71
697.927	2282.63
698.116	2169.99
698.305	2272.39
698.494	2202.76
698.683	2213
698.872	2176.14
699.061	2206.86
699.25	2251.91
699.438	2219.14
699.627	2256.01
699.816	2184.33
700.005	2219.14
700.193	2223.24
700.382	2163.85
700.571	2104.46
700.76	2108.55
700.948	2208.9
701.137	2198.67
701.326	2196.62
701.514	2063.5
701.703	2243.72
701.892	2096.27
702.08	2231.43
702.269	2155.66
702.457	1934.48
702.646	2124.94
702.834	2202.76
703.023	2157.71
703.212	2047.12
703.4	2028.68
703.589	2143.37
703.777	2202.76
703.965	2112.65
704.154	2047.12
704.342	1997.96
704.531	2178.19
704.719	2081.93
704.907	2036.88
705.096	2043.02
705.284	2053.26
705.472	1938.57
705.661	2088.07
705.849	2022.54
706.037	1989.77
706.226	1963.15
706.414	1993.87
706.602	1997.96
706.79	2104.46
706.979	1975.44
707.167	1957
707.355	1952.91
707.543	1969.29
707.731	1957
707.919	1987.72
708.107	1957
708.296	1922.19
708.484	1991.82
708.672	1899.66
708.86	1905.81
709.048	1903.76
709.236	1907.85
709.424	1959.05
709.612	1875.09
709.8	1850.51
709.988	1811.6
710.176	1879.18
710.364	1895.57
710.551	1830.03
710.739	1784.98
710.927	1916.05
711.115	1842.32
711.303	1827.98
711.491	1811.6
711.679	1817.74
711.866	1795.22
712.054	1848.46
712.242	1766.54
712.43	1860.75
712.617	1830.03
712.805	1766.54
712.993	1834.13
713.181	1746.06
713.368	1752.21
713.556	1844.37
713.744	1655.95
713.931	1690.77
714.119	1701.01
714.306	1643.67
714.494	1625.23
714.682	1713.3
714.869	1668.24
715.057	1723.54
715.244	1623.19
715.432	1608.85
715.619	1596.56
715.807	1635.47
715.994	1637.52
716.182	1586.32
716.369	1612.95
716.556	1584.27
716.744	1653.91
716.931	1524.88
717.119	1571.99
717.306	1531.03
717.493	1545.36
717.681	1522.84
717.868	1514.64
718.055	1533.08
718.242	1547.41
718.43	1461.4
718.617	1571.99
718.804	1547.41
718.991	1461.4
719.179	1465.49
719.366	1510.55
719.553	1438.87
719.74	1406.1
719.927	1483.92
720.114	1590.42
720.301	1350.81
720.488	1436.82
720.676	1461.4
720.863	1498.26
721.05	1514.64
721.237	1408.15
721.424	1522.84
721.611	1375.38
721.798	1303.7
721.985	1354.9
722.172	1363.09
722.358	1354.9
722.545	1449.11
722.732	1391.77
722.919	1424.53
723.106	1412.25
723.293	1297.56
723.48	1363.09
723.667	1424.53
723.853	1303.7
724.04	1430.68
724.227	1344.66
724.414	1344.66
724.6	1264.79
724.787	1320.09
724.974	1291.41
725.161	1340.57
725.347	1195.16
725.534	1266.84
725.72	1268.89
725.907	1279.13
726.094	1215.64
726.28	1270.94
726.467	1299.61
726.653	1320.09
726.84	1238.17
727.027	1248.41
727.213	1168.54
727.4	1311.89
727.586	1258.65
727.773	1270.94
727.959	1252.5
728.145	1170.58
728.332	1225.88
728.518	1133.72
728.705	1227.93
728.891	1207.45
729.077	1084.57
729.264	1256.6
729.45	1227.93
729.636	1162.39
729.823	1172.63
730.009	1193.11
730.195	1148.06
730.382	1105.05
730.568	1117.34
730.754	1141.91
730.94	1127.58
731.126	1084.57
731.313	1051.8
731.499	1092.76
731.685	994.46
731.871	1072.28
732.057	1133.72
732.243	1115.29
732.429	1168.54
732.615	1100.95
732.801	1043.61
732.987	1021.08
733.173	1105.05
733.359	1057.95
733.545	1057.95
733.731	1154.2
733.917	1088.67
734.103	1059.99
734.289	1031.32
734.475	1070.23
734.661	1016.99
734.847	1014.94
735.033	1041.56
735.219	971.93
735.404	984.22
735.59	1051.8
735.776	1053.85
735.962	1043.61
736.148	1043.61
736.333	990.36
736.519	1027.23
736.705	1014.94
736.89	984.22
737.076	1041.56
737.262	943.26
737.447	957.6
737.633	1064.09
737.819	900.25
738.004	945.31
738.19	947.36
738.375	971.93
738.561	1019.04
738.747	859.29
738.932	933.02
739.118	965.79
739.303	943.26
739.489	1035.42
739.674	959.64
739.859	924.83
740.045	926.88
740.23	924.83
740.416	863.39
740.601	916.64
740.786	885.92
740.972	863.39
741.157	947.36
741.342	859.29
741.528	912.54
741.713	892.06
741.898	828.57
742.084	879.77
742.269	949.4
742.454	928.92
742.639	851.1
742.824	851.1
743.01	810.14
743.195	896.16
743.38	820.38
743.565	824.48
743.75	822.43
743.935	810.14
744.12	832.67
744.305	754.85
744.49	818.33
744.675	769.18
744.86	890.01
745.045	681.12
745.23	883.87
745.415	826.53
745.6	709.79
745.785	818.33
745.97	816.29
746.155	703.65
746.34	728.22
746.525	740.51
746.71	797.85
746.895	754.85
747.079	746.66
747.264	732.32
747.449	746.66
747.634	679.07
747.819	756.9
748.003	744.61
748.188	732.32
748.373	763.04
748.557	740.51
748.742	756.9
748.927	658.59
749.111	715.94
749.296	662.69
749.481	656.54
749.665	752.8
749.85	629.92
750.034	654.5
750.219	644.26
750.404	705.7
750.588	689.31
750.773	726.18
750.957	666.78
751.141	672.93
751.326	613.54
751.51	605.35
751.695	613.54
751.879	591.01
752.064	554.15
752.248	636.06
752.432	615.59
752.617	670.88
752.801	707.74
752.985	591.01
753.17	568.48
753.354	525.47
753.538	648.35
753.722	527.52
753.907	572.58
754.091	552.1
754.275	568.48
754.459	576.67
754.643	533.67
754.828	588.96
755.012	582.82
755.196	560.29
755.38	591.01
755.564	525.47
755.748	541.86
755.932	527.52
756.116	541.86
756.3	597.15
756.484	531.62
756.668	550.05
756.852	572.58
757.036	482.47
757.22	550.05
757.404	474.28
757.588	494.76
757.772	529.57
757.956	527.52
758.14	515.23
758.323	498.85
758.507	498.85
758.691	455.84
758.875	504.99
759.059	523.43
759.242	476.32
759.426	466.08
759.61	412.84
759.794	441.51
759.977	474.28
760.161	468.13
760.345	507.04
760.528	554.15
760.712	400.55
760.895	453.8
761.079	459.94
761.263	500.9
761.446	412.84
761.63	418.98
761.813	447.65
761.997	484.52
762.18	439.46
762.364	435.36
762.547	418.98
762.731	449.7
762.914	408.74
763.098	388.26
763.281	435.36
763.464	459.94
763.648	529.57
763.831	425.12
764.015	468.13
764.198	441.51
764.381	369.83
764.564	457.89
764.748	400.55
764.931	476.32
765.114	410.79
765.297	478.37
765.481	484.52
765.664	361.64
765.847	439.46
766.03	504.99
766.213	398.5
766.397	402.6
766.58	330.92
766.763	369.83
766.946	429.22
767.129	423.08
767.312	406.69
767.495	431.27
767.678	445.6
767.861	371.88
768.044	394.4
768.227	466.08
768.41	318.63
768.593	408.74
768.776	332.97
768.959	418.98
769.142	423.08
769.324	345.25
769.507	414.88
769.69	408.74
769.873	404.64
770.056	425.12
770.239	384.16
770.421	412.84
770.604	421.03
770.787	384.16
770.97	427.17
771.152	384.16
771.335	355.49
771.518	404.64
771.7	433.32
771.883	412.84
772.066	375.97
772.248	367.78
772.431	353.45
772.613	380.07
772.796	355.49
772.978	363.69
773.161	425.12
773.343	318.63
773.526	388.26
773.708	398.5
773.891	349.35
774.073	349.35
774.256	345.25
774.438	378.02
774.621	367.78
774.803	408.74
774.985	273.57
775.168	363.69
775.35	251.05
775.532	375.97
775.715	337.06
775.897	324.77
776.079	353.45
776.261	378.02
776.444	324.77
776.626	322.73
776.808	324.77
776.99	257.19
777.173	261.29
777.355	310.44
777.537	355.49
777.719	277.67
777.901	314.53
778.083	302.25
778.265	271.53
778.447	265.38
778.629	285.86
778.811	328.87
778.993	318.63
779.175	228.52
779.357	351.4
779.539	275.62
779.721	302.25
779.903	328.87
780.085	308.39
780.267	255.14
780.449	306.34
780.631	236.71
780.812	197.8
780.994	298.15
781.176	261.29
781.358	277.67
781.54	244.9
781.721	287.91
781.903	294.05
782.085	253.09
782.267	302.25
782.448	246.95
782.63	277.67
782.812	271.53
782.993	154.79
783.175	246.95
783.357	244.9
783.538	185.51
783.72	214.18
783.901	236.71
784.083	197.8
784.264	195.75
784.446	210.09
784.627	253.09
784.809	212.14
784.99	259.24
785.172	189.61
785.353	265.38
785.535	287.91
785.716	173.22
785.897	298.15
786.079	195.75
786.26	146.6
786.441	214.18
786.623	199.85
786.804	246.95
786.985	212.14
787.167	199.85
787.348	195.75
787.529	189.61
787.71	187.56
787.891	130.22
788.073	208.04
788.254	224.42
788.435	232.62
788.616	216.23
788.797	140.46
788.978	205.99
789.159	124.07
789.34	130.22
789.522	216.23
789.703	203.94
789.884	173.22
790.065	173.22
790.246	181.42
790.427	179.37
790.607	238.76
790.788	189.61
790.969	140.46
791.15	124.07
791.331	181.42
791.512	173.22
791.693	169.13
791.874	156.84
792.054	101.55
792.235	216.23
792.416	179.37
792.597	205.99
792.778	205.99
792.958	138.41
793.139	185.51
793.32	189.61
793.5	156.84
793.681	154.79
793.862	117.93
794.042	52.39
794.223	150.7
794.404	93.35
794.584	117.93
794.765	85.16
794.945	128.17
795.126	218.28
795.306	205.99
795.487	148.65
795.667	146.6
795.848	205.99
796.028	58.54
796.209	99.5
796.389	167.08
796.57	113.83
796.75	150.7
796.93	134.31
797.111	105.64
797.291	119.98
797.471	167.08
797.652	111.78
797.832	124.07
798.012	130.22
798.192	97.45
798.373	93.35
798.553	148.65
798.733	171.18
798.913	107.69
799.093	105.64
799.274	142.5
799.454	136.36
799.634	95.4
799.814	187.56
799.994	222.38
800.174	142.5
800.354	99.5
800.534	101.55
800.714	126.12
800.894	68.78
801.074	138.41
801.254	103.59
801.434	167.08
801.614	130.22
801.794	119.98
801.974	359.59
802.154	107.69
802.334	156.84
802.514	74.92
802.693	134.31
802.873	124.07
803.053	113.83
803.233	97.45
803.413	134.31
803.592	138.41
803.772	134.31
803.952	99.5
804.131	107.69
804.311	64.68
804.491	124.07
804.67	115.88
804.85	150.7
805.03	152.74
805.209	72.87
805.389	76.97
805.568	89.26
805.748	107.69
805.928	99.5
806.107	60.59
806.287	107.69
806.466	79.02
806.646	99.5
806.825	91.31
807.004	85.16
807.184	136.36
807.363	93.35
807.543	132.26
807.722	136.36
807.901	15.53
808.081	64.68
808.26	70.83
808.439	107.69
808.619	119.98
808.798	95.4
808.977	140.46
809.156	50.35
809.336	17.58
809.515	95.4
809.694	148.65
809.873	130.22
810.052	93.35
810.231	87.21
810.411	103.59
810.59	136.36
810.769	113.83
810.948	138.41
811.127	68.78
811.306	87.21
811.485	154.79
811.664	105.64
811.843	119.98
812.022	113.83
812.201	56.49
812.38	109.74
812.559	19.63
812.737	60.59
812.916	46.25
813.095	101.55
813.274	9.39
813.453	95.4
813.632	91.31
813.811	109.74
813.989	48.3
814.168	115.88
814.347	48.3
814.526	50.35
814.704	56.49
814.883	97.45
815.062	23.72
815.24	93.35
815.419	122.02
815.598	91.31
815.776	-62.29
815.955	27.82
816.133	-15.19
816.312	83.11
816.49	23.72
816.669	50.35
816.847	48.3
817.026	72.87
817.204	21.67
817.383	60.59
817.561	111.78
817.74	109.74
817.918	68.78
818.097	38.06
818.275	44.2
818.453	36.01
818.632	72.87
818.81	64.68
818.988	33.96
819.167	48.3
819.345	91.31
819.523	81.07
819.701	68.78
819.879	33.96
820.058	31.91
820.236	3.24
820.414	48.3
820.592	-4.95
820.77	119.98
820.948	21.67
821.127	42.15
821.305	33.96
821.483	87.21
821.661	68.78
821.839	93.35
822.017	7.34
822.195	46.25
822.373	138.41
822.551	91.31
822.729	64.68
822.907	-11.09
823.085	66.73
823.262	31.91
823.44	72.87
823.618	52.39
823.796	58.54
823.974	72.87
824.152	64.68
824.329	-27.48
824.507	81.07
824.685	83.11
824.863	58.54
825.04	-95.06
825.218	1.19
825.396	33.96
825.574	68.78
825.751	89.26
825.929	36.01
826.107	46.25
826.284	93.35
826.462	83.11
826.639	23.72
826.817	115.88
826.994	48.3
827.172	3.24
827.349	31.91
827.527	3.24
827.704	36.01
827.882	-19.29
828.059	5.29
828.237	79.02
828.414	93.35
828.591	60.59
828.769	21.67
828.946	19.63
829.124	64.68
829.301	-0.85
829.478	81.07
829.655	36.01
829.833	48.3
830.01	27.82
830.187	79.02
830.364	40.11
830.542	21.67
830.719	31.91
830.896	66.73
831.073	21.67
831.25	27.82
831.427	95.4
831.604	48.3
831.782	70.83
831.959	19.63
832.136	7.34
832.313	25.77
832.49	7.34
832.667	-29.52
832.844	95.4
833.021	27.82
833.198	54.44
833.374	40.11
833.551	19.63
833.728	126.12
833.905	54.44
834.082	9.39
834.259	83.11
834.436	48.3
834.612	44.2
834.789	13.48
834.966	-13.14
835.143	72.87
835.319	29.87
835.496	64.68
835.673	7.34
835.85	60.59
836.026	122.02
836.203	25.77
836.38	23.72
836.556	72.87
836.733	48.3
836.909	81.07
837.086	-2.9
837.262	31.91
837.439	40.11
837.616	5.29
837.792	103.59
837.968	-2.9
838.145	68.78
838.321	42.15
838.498	-21.33
838.674	109.74
838.851	-2.9
839.027	29.87
839.203	3.24
839.38	13.48
839.556	52.39
839.732	101.55
839.909	-33.62
840.085	50.35
840.261	31.91
840.437	64.68
840.614	-23.38
840.79	70.83
840.966	-9.05
841.142	52.39
841.318	38.06
841.494	-2.9
841.671	66.73
841.847	-70.48
842.023	27.82
842.199	97.45
842.375	36.01
842.551	33.96
842.727	-23.38
842.903	1.19
843.079	58.54
843.255	42.15
843.431	33.96
843.607	68.78
843.783	-33.62
843.959	66.73
844.134	13.48
844.31	40.11
844.486	33.96
844.662	36.01
844.838	-0.85
845.013	81.07
845.189	68.78
845.365	46.25
845.541	23.72
845.716	23.72
845.892	25.77
846.068	36.01
846.244	44.2
846.419	40.11
846.595	-37.72
846.77	7.34
846.946	76.97
847.122	81.07
847.297	11.43
847.473	27.82
847.648	48.3
847.824	50.35
847.999	-41.81
848.175	46.25
848.35	54.44
848.526	7.34
848.701	33.96
848.876	17.58
849.052	56.49
849.227	1.19
849.403	50.35
849.578	48.3
849.753	-9.05
849.929	-29.52
850.104	27.82
850.279	-29.52
850.454	40.11
850.63	72.87
850.805	36.01
850.98	38.06
851.155	-23.38
851.33	19.63
851.505	15.53
851.681	-13.14
851.856	62.63
852.031	23.72
852.206	-35.67
852.381	17.58
852.556	25.77
852.731	117.93
852.906	-0.85
853.081	-9.05
853.256	-7
853.431	58.54
853.606	-25.43
853.781	81.07
853.956	72.87
854.131	95.4
854.305	50.35
854.48	1.19
854.655	-45.91
854.83	-9.05
855.005	70.83
855.18	-54.1
855.354	56.49
855.529	-4.95
855.704	66.73
855.879	31.91
856.053	42.15
856.228	64.68
856.403	52.39
856.577	21.67
856.752	31.91
856.926	85.16
857.101	38.06
857.276	-11.09
857.45	11.43
857.625	-9.05
857.799	29.87
857.974	23.72
858.148	62.63
858.323	23.72
858.497	-25.43
858.672	109.74
858.846	11.43
859.02	-7
859.195	-23.38
859.369	95.4
859.543	54.44
859.718	33.96
859.892	9.39
860.066	-21.33
860.241	19.63
860.415	-17.24
860.589	72.87
860.763	54.44
860.938	76.97
861.112	66.73
861.286	29.87
861.46	56.49
861.634	11.43
861.808	15.53
861.982	31.91
862.157	-7
862.331	31.91
862.505	-19.29
862.679	83.11
862.853	48.3
863.027	-37.72
863.201	11.43
863.375	27.82
863.549	17.58
863.722	68.78
863.896	38.06
864.07	-39.76
864.244	-31.57
864.418	1.19
864.592	64.68
864.766	36.01
864.939	-4.95
865.113	-13.14
865.287	15.53
865.461	54.44
865.634	44.2
865.808	-31.57
865.982	40.11
866.156	-13.14
866.329	-9.05
866.503	13.48
866.676	-21.33
866.85	31.91
867.024	107.69
867.197	48.3
867.371	36.01
867.544	68.78
867.718	25.77
867.891	-29.52
868.065	25.77
868.238	33.96
868.412	-23.38
868.585	31.91
868.759	21.67
868.932	21.67
869.105	-35.67
869.279	68.78
869.452	27.82
869.625	-31.57
869.799	-4.95
869.972	-25.43
870.145	-7
870.319	-11.09
870.492	105.64
870.665	56.49
870.838	23.72
871.011	21.67
871.185	-7
871.358	-17.24
871.531	-27.48
871.704	54.44
871.877	23.72
872.05	19.63
872.223	15.53
872.396	17.58
872.569	-31.57
872.742	-47.96
872.915	25.77
873.088	87.21
873.261	23.72
873.434	44.2
873.607	-27.48
873.78	17.58
873.953	56.49
874.126	31.91
874.299	9.39
874.471	46.25
874.644	31.91
874.817	5.29
874.99	9.39
875.163	74.92
875.335	7.34
875.508	11.43
875.681	3.24
875.853	-82.77
876.026	89.26
876.199	31.91
876.371	19.63
876.544	21.67
876.717	5.29
876.889	-2.9
877.062	54.44
877.234	-21.33
877.407	38.06
877.579	19.63
877.752	48.3
877.924	-2.9
878.097	23.72
878.269	25.77
878.442	40.11
878.614	-9.05
878.786	-35.67
878.959	-9.05
879.131	46.25
879.303	52.39
879.476	33.96
879.648	-4.95
879.82	1.19
879.993	48.3
880.165	68.78
880.337	-35.67
880.509	58.54
880.681	-39.76
880.854	-11.09
881.026	-9.05
881.198	36.01
881.37	1.19
881.542	27.82
881.714	15.53
881.886	-27.48
882.058	42.15
882.23	5.29
882.402	1.19
882.574	97.45
882.746	40.11
882.918	-7
883.09	19.63
883.262	89.26
883.434	7.34
883.606	-33.62
883.778	-37.72
883.95	40.11
884.122	-31.57
884.293	3.24
884.465	-15.19
884.637	54.44
884.809	-9.05
884.98	9.39
885.152	1.19
885.324	68.78
885.496	-7
885.667	23.72
885.839	13.48
886.011	48.3
886.182	40.11
886.354	-0.85
886.525	-4.95
886.697	-13.14
886.869	1.19
887.04	66.73
887.212	7.34
887.383	11.43
887.555	-23.38
887.726	-4.95
887.897	66.73
888.069	48.3
888.24	31.91
888.412	38.06
888.583	-29.52
888.754	-33.62
888.926	-13.14
889.097	56.49
889.268	36.01
889.44	-17.24
889.611	31.91
889.782	50.35
889.953	31.91
890.125	48.3
890.296	-0.85
890.467	-33.62
890.638	19.63
890.809	31.91
890.98	54.44
891.151	23.72
891.323	33.96
891.494	3.24
891.665	38.06
891.836	-9.05
892.007	-13.14
892.178	83.11
892.349	17.58
892.52	-17.24
892.691	23.72
892.862	-11.09
893.032	128.17
893.203	1.19
893.374	-19.29
893.545	27.82
893.716	1.19
893.887	70.83
894.057	58.54
894.228	33.96
894.399	48.3
894.57	40.11
894.74	42.15
894.911	5.29
895.082	58.54
895.253	-47.96
895.423	-11.09
895.594	15.53
895.764	89.26
895.935	3.24
896.106	-50
896.276	48.3
896.447	36.01
896.617	-39.76
896.788	15.53
896.958	113.83
897.129	25.77
897.299	56.49
897.47	33.96
897.64	87.21
897.81	21.67
897.981	7.34
898.151	13.48
898.322	40.11
898.492	-4.95
898.662	42.15
898.832	-17.24
899.003	33.96
899.173	3.24
899.343	17.58
899.513	68.78
