Data from USB4F104151__41__13-53-17-078.txt Node

Date: Thu Mar 13 13:53:17 EDT 2025
User: louis
Spectrometer: USB4F10415
Trigger mode: 4
Integration Time (sec): 1.000000E-2
Scans to average: 1
Electric dark correction enabled: true
Nonlinearity correction enabled: false
Boxcar width: 0
XAxis mode: Wavelengths
Number of Pixels in Spectrum: 3648
>>>>>Begin Spectral Data<<<<<
178.204	-31.57
178.424	-31.57
178.644	-31.57
178.864	-37.72
179.084	-27.48
179.304	-39.76
179.524	7.34
179.744	-31.57
179.964	-33.62
180.184	-17.24
180.404	87.21
180.624	-19.29
180.844	5.29
181.064	-93.01
181.283	21.67
181.503	40.11
181.723	72.87
181.943	-29.52
182.163	31.91
182.383	3.24
182.602	-23.38
182.822	72.87
183.042	66.73
183.262	33.96
183.482	52.39
183.701	38.06
183.921	27.82
184.141	-31.57
184.361	29.87
184.58	-2.9
184.8	-15.19
185.02	-88.92
185.239	-21.33
185.459	1.19
185.679	-15.19
185.898	31.91
186.118	87.21
186.338	38.06
186.557	25.77
186.777	113.83
186.997	-7
187.216	66.73
187.436	81.07
187.655	-39.76
187.875	36.01
188.095	33.96
188.314	85.16
188.534	13.48
188.753	33.96
188.973	13.48
189.192	31.91
189.412	-19.29
189.631	38.06
189.851	-11.09
190.07	44.2
190.29	-88.92
190.509	23.72
190.729	62.63
190.948	3.24
191.168	-45.91
191.387	50.35
191.607	33.96
191.826	13.48
192.045	23.72
192.265	-27.48
192.484	56.49
192.704	58.54
192.923	27.82
193.142	105.64
193.362	-4.95
193.581	99.5
193.8	54.44
194.02	-17.24
194.239	31.91
194.458	36.01
194.678	68.78
194.897	-19.29
195.116	74.92
195.335	-31.57
195.555	40.11
195.774	64.68
195.993	54.44
196.212	38.06
196.432	89.26
196.651	-64.34
196.87	-2.9
197.089	50.35
197.308	3.24
197.528	93.35
197.747	36.01
197.966	-17.24
198.185	19.63
198.404	87.21
198.623	13.48
198.842	9.39
199.062	68.78
199.281	15.53
199.5	-19.29
199.719	13.48
199.938	9.39
200.157	81.07
200.376	42.15
200.595	56.49
200.814	-25.43
201.033	11.43
201.252	38.06
201.471	46.25
201.69	-47.96
201.909	21.67
202.128	-4.95
202.347	31.91
202.566	50.35
202.785	-43.86
203.004	83.11
203.223	9.39
203.442	40.11
203.661	27.82
203.879	-0.85
204.098	44.2
204.317	-58.2
204.536	-25.43
204.755	25.77
204.974	79.02
205.193	23.72
205.411	-17.24
205.63	64.68
205.849	17.58
206.068	-2.9
206.287	21.67
206.505	48.3
206.724	99.5
206.943	3.24
207.162	79.02
207.381	-27.48
207.599	87.21
207.818	74.92
208.037	44.2
208.255	58.54
208.474	83.11
208.693	33.96
208.911	42.15
209.13	111.78
209.349	85.16
209.567	17.58
209.786	-37.72
210.005	11.43
210.223	25.77
210.442	1.19
210.661	44.2
210.879	48.3
211.098	17.58
211.316	33.96
211.535	42.15
211.753	46.25
211.972	44.2
212.191	25.77
212.409	109.74
212.628	21.67
212.846	-11.09
213.065	3.24
213.283	38.06
213.502	7.34
213.72	85.16
213.938	83.11
214.157	9.39
214.375	-7
214.594	36.01
214.812	25.77
215.031	91.31
215.249	-33.62
215.467	-29.52
215.686	-11.09
215.904	1.19
216.122	58.54
216.341	89.26
216.559	33.96
216.778	46.25
216.996	54.44
217.214	25.77
217.432	1.19
217.651	21.67
217.869	40.11
218.087	11.43
218.306	1.19
218.524	23.72
218.742	85.16
218.96	23.72
219.179	68.78
219.397	68.78
219.615	1.19
219.833	-0.85
220.051	-43.86
220.27	46.25
220.488	3.24
220.706	60.59
220.924	46.25
221.142	36.01
221.36	5.29
221.578	36.01
221.796	36.01
222.015	5.29
222.233	44.2
222.451	87.21
222.669	-0.85
222.887	48.3
223.105	33.96
223.323	15.53
223.541	23.72
223.759	31.91
223.977	21.67
224.195	44.2
224.413	58.54
224.631	54.44
224.849	60.59
225.067	117.93
225.285	21.67
225.503	64.68
225.721	-60.24
225.939	-31.57
226.157	62.63
226.375	56.49
226.592	15.53
226.81	21.67
227.028	68.78
227.246	-4.95
227.464	40.11
227.682	93.35
227.9	36.01
228.117	56.49
228.335	52.39
228.553	-45.91
228.771	-41.81
228.989	33.96
229.206	-0.85
229.424	-11.09
229.642	103.59
229.86	85.16
230.077	50.35
230.295	7.34
230.513	76.97
230.731	23.72
230.948	27.82
231.166	60.59
231.384	-27.48
231.601	93.35
231.819	15.53
232.037	-56.15
232.254	25.77
232.472	81.07
232.689	5.29
232.907	87.21
233.125	44.2
233.342	-35.67
233.56	40.11
233.777	-17.24
233.995	11.43
234.213	-29.52
234.43	40.11
234.648	23.72
234.865	40.11
235.083	19.63
235.3	11.43
235.518	27.82
235.735	70.83
235.953	48.3
236.17	87.21
236.388	85.16
236.605	79.02
236.822	17.58
237.04	-7
237.257	72.87
237.475	3.24
237.692	-11.09
237.909	40.11
238.127	54.44
238.344	60.59
238.562	-68.44
238.779	3.24
238.996	-0.85
239.214	27.82
239.431	36.01
239.648	29.87
239.865	46.25
240.083	50.35
240.3	48.3
240.517	-7
240.735	3.24
240.952	79.02
241.169	101.55
241.386	44.2
241.603	3.24
241.821	-31.57
242.038	62.63
242.255	36.01
242.472	38.06
242.689	36.01
242.907	76.97
243.124	50.35
243.341	42.15
243.558	13.48
243.775	64.68
243.992	38.06
244.209	11.43
244.426	-13.14
244.643	122.02
244.86	-15.19
245.078	9.39
245.295	7.34
245.512	21.67
245.729	25.77
245.946	-45.91
246.163	54.44
246.38	31.91
246.597	60.59
246.814	3.24
247.031	-23.38
247.248	11.43
247.464	58.54
247.681	15.53
247.898	23.72
248.115	40.11
248.332	85.16
248.549	95.4
248.766	17.58
248.983	25.77
249.2	5.29
249.417	56.49
249.633	17.58
249.85	38.06
250.067	19.63
250.284	62.63
250.501	72.87
250.717	42.15
250.934	23.72
251.151	50.35
251.368	3.24
251.585	29.87
251.801	64.68
252.018	79.02
252.235	60.59
252.451	38.06
252.668	-43.86
252.885	-15.19
253.102	33.96
253.318	17.58
253.535	54.44
253.752	19.63
253.968	-13.14
254.185	42.15
254.401	44.2
254.618	1.19
254.835	50.35
255.051	38.06
255.268	21.67
255.484	44.2
255.701	58.54
255.917	81.07
256.134	-17.24
256.351	83.11
256.567	44.2
256.784	33.96
257	7.34
257.217	66.73
257.433	13.48
257.65	1.19
257.866	-11.09
258.082	11.43
258.299	11.43
258.515	74.92
258.732	9.39
258.948	33.96
259.165	-2.9
259.381	29.87
259.597	76.97
259.814	87.21
260.03	-9.05
260.246	-23.38
260.463	1.19
260.679	21.67
260.895	-2.9
261.112	33.96
261.328	48.3
261.544	36.01
261.761	9.39
261.977	38.06
262.193	-25.43
262.409	76.97
262.626	56.49
262.842	-17.24
263.058	-23.38
263.274	19.63
263.49	66.73
263.707	31.91
263.923	42.15
264.139	-9.05
264.355	5.29
264.571	40.11
264.787	58.54
265.004	81.07
265.22	21.67
265.436	81.07
265.652	1.19
265.868	70.83
266.084	23.72
266.3	38.06
266.516	-9.05
266.732	29.87
266.948	89.26
267.164	-4.95
267.38	17.58
267.596	40.11
267.812	7.34
268.028	33.96
268.244	33.96
268.46	134.31
268.676	66.73
268.892	29.87
269.108	19.63
269.324	70.83
269.54	-17.24
269.756	44.2
269.972	83.11
270.188	17.58
270.403	13.48
270.619	21.67
270.835	44.2
271.051	91.31
271.267	-47.96
271.483	113.83
271.698	50.35
271.914	38.06
272.13	9.39
272.346	58.54
272.562	-29.52
272.777	50.35
272.993	36.01
273.209	11.43
273.425	72.87
273.64	36.01
273.856	25.77
274.072	46.25
274.287	-13.14
274.503	46.25
274.719	107.69
274.934	70.83
275.15	46.25
275.366	27.82
275.581	-25.43
275.797	-9.05
276.012	31.91
276.228	17.58
276.444	11.43
276.659	87.21
276.875	-9.05
277.09	50.35
277.306	31.91
277.521	66.73
277.737	-4.95
277.952	31.91
278.168	21.67
278.383	119.98
278.599	3.24
278.814	54.44
279.03	33.96
279.245	44.2
279.461	52.39
279.676	105.64
279.892	60.59
280.107	7.34
280.322	54.44
280.538	23.72
280.753	58.54
280.969	21.67
281.184	62.63
281.399	5.29
281.615	21.67
281.83	54.44
282.045	11.43
282.26	13.48
282.476	95.4
282.691	95.4
282.906	-0.85
283.122	48.3
283.337	60.59
283.552	7.34
283.767	50.35
283.983	31.91
284.198	72.87
284.413	15.53
284.628	-29.52
284.843	93.35
285.058	5.29
285.274	9.39
285.489	38.06
285.704	-17.24
285.919	74.92
286.134	1.19
286.349	74.92
286.564	85.16
286.779	-2.9
286.995	33.96
287.21	52.39
287.425	40.11
287.64	52.39
287.855	38.06
288.07	48.3
288.285	-9.05
288.5	60.59
288.715	119.98
288.93	36.01
289.145	-45.91
289.36	11.43
289.575	13.48
289.79	93.35
290.004	-15.19
290.219	11.43
290.434	72.87
290.649	60.59
290.864	124.07
291.079	3.24
291.294	36.01
291.509	87.21
291.724	-25.43
291.938	56.49
292.153	76.97
292.368	56.49
292.583	79.02
292.798	19.63
293.012	17.58
293.227	15.53
293.442	93.35
293.657	7.34
293.871	42.15
294.086	40.11
294.301	38.06
294.516	44.2
294.73	1.19
294.945	-2.9
295.16	64.68
295.374	74.92
295.589	-0.85
295.804	-4.95
296.018	-9.05
296.233	91.31
296.447	50.35
296.662	66.73
296.877	72.87
297.091	50.35
297.306	17.58
297.52	42.15
297.735	83.11
297.949	9.39
298.164	134.31
298.378	64.68
298.593	97.45
298.807	48.3
299.022	29.87
299.236	17.58
299.451	1.19
299.665	87.21
299.88	48.3
300.094	56.49
300.309	46.25
300.523	27.82
300.737	25.77
300.952	-9.05
301.166	13.48
301.381	-23.38
301.595	54.44
301.809	5.29
302.024	-0.85
302.238	15.53
302.452	60.59
302.667	27.82
302.881	40.11
303.095	62.63
303.309	-41.81
303.524	52.39
303.738	58.54
303.952	46.25
304.166	5.29
304.381	3.24
304.595	25.77
304.809	52.39
305.023	27.82
305.237	79.02
305.452	52.39
305.666	25.77
305.88	11.43
306.094	13.48
306.308	99.5
306.522	9.39
306.736	58.54
306.95	54.44
307.164	-47.96
307.379	54.44
307.593	29.87
307.807	117.93
308.021	115.88
308.235	38.06
308.449	52.39
308.663	54.44
308.877	66.73
309.091	-43.86
309.305	72.87
309.519	64.68
309.733	23.72
309.947	15.53
310.161	23.72
310.374	50.35
310.588	29.87
310.802	27.82
311.016	46.25
311.23	87.21
311.444	19.63
311.658	-7
311.872	9.39
312.085	-17.24
312.299	21.67
312.513	70.83
312.727	-37.72
312.941	83.11
313.154	93.35
313.368	-2.9
313.582	44.2
313.796	-11.09
314.009	101.55
314.223	42.15
314.437	46.25
314.651	99.5
314.864	95.4
315.078	9.39
315.292	25.77
315.505	83.11
315.719	56.49
315.933	74.92
316.146	52.39
316.36	9.39
316.573	97.45
316.787	13.48
317.001	-4.95
317.214	17.58
317.428	85.16
317.641	50.35
317.855	-2.9
318.068	-2.9
318.282	1.19
318.495	-97.11
318.709	42.15
318.922	31.91
319.136	68.78
319.349	81.07
319.563	83.11
319.776	15.53
319.99	-2.9
320.203	64.68
320.417	50.35
320.63	31.91
320.843	33.96
321.057	40.11
321.27	44.2
321.483	50.35
321.697	97.45
321.91	91.31
322.124	60.59
322.337	1.19
322.55	91.31
322.763	1.19
322.977	81.07
323.19	17.58
323.403	17.58
323.617	66.73
323.83	3.24
324.043	-17.24
324.256	-13.14
324.469	-31.57
324.683	60.59
324.896	44.2
325.109	124.07
325.322	29.87
325.535	31.91
325.748	21.67
325.962	15.53
326.175	68.78
326.388	76.97
326.601	9.39
326.814	19.63
327.027	58.54
327.24	72.87
327.453	91.31
327.666	-4.95
327.879	87.21
328.092	40.11
328.305	56.49
328.518	46.25
328.731	111.78
328.944	66.73
329.157	-17.24
329.37	42.15
329.583	62.63
329.796	58.54
330.009	40.11
330.222	66.73
330.435	19.63
330.648	-37.72
330.861	7.34
331.073	58.54
331.286	36.01
331.499	29.87
331.712	52.39
331.925	54.44
332.138	50.35
332.35	79.02
332.563	23.72
332.776	31.91
332.989	42.15
333.202	44.2
333.414	-50
333.627	58.54
333.84	21.67
334.053	85.16
334.265	-29.52
334.478	56.49
334.691	54.44
334.903	40.11
335.116	15.53
335.329	70.83
335.541	109.74
335.754	101.55
335.966	-23.38
336.179	58.54
336.392	64.68
336.604	-0.85
336.817	64.68
337.029	52.39
337.242	52.39
337.454	60.59
337.667	7.34
337.88	89.26
338.092	1.19
338.305	60.59
338.517	-21.33
338.729	76.97
338.942	44.2
339.154	3.24
339.367	11.43
339.579	70.83
339.792	36.01
340.004	54.44
340.217	15.53
340.429	68.78
340.641	97.45
340.854	-4.95
341.066	27.82
341.278	27.82
341.491	48.3
341.703	-15.19
341.915	7.34
342.128	117.93
342.34	-4.95
342.552	3.24
342.764	48.3
342.977	128.17
343.189	74.92
343.401	5.29
343.613	11.43
343.826	-23.38
344.038	-0.85
344.25	79.02
344.462	56.49
344.674	42.15
344.886	25.77
345.099	50.35
345.311	107.69
345.523	44.2
345.735	52.39
345.947	25.77
346.159	42.15
346.371	68.78
346.583	52.39
346.795	56.49
347.007	-2.9
347.219	33.96
347.431	46.25
347.643	7.34
347.855	64.68
348.067	-11.09
348.279	-17.24
348.491	56.49
348.703	83.11
348.915	29.87
349.127	-0.85
349.339	109.74
349.551	15.53
349.763	46.25
349.975	83.11
350.187	15.53
350.399	72.87
350.61	13.48
350.822	-9.05
351.034	-0.85
351.246	15.53
351.458	44.2
351.669	54.44
351.881	31.91
352.093	38.06
352.305	56.49
352.517	44.2
352.728	103.59
352.94	29.87
353.152	-25.43
353.363	21.67
353.575	50.35
353.787	13.48
353.999	109.74
354.21	27.82
354.422	54.44
354.633	-17.24
354.845	25.77
355.057	9.39
355.268	13.48
355.48	89.26
355.692	-0.85
355.903	79.02
356.115	-35.67
356.326	103.59
356.538	5.29
356.749	50.35
356.961	-0.85
357.172	-41.81
357.384	-7
357.595	27.82
357.807	33.96
358.018	-21.33
358.23	42.15
358.441	7.34
358.653	74.92
358.864	60.59
359.075	9.39
359.287	15.53
359.498	95.4
359.709	19.63
359.921	119.98
360.132	-21.33
360.344	60.59
360.555	115.88
360.766	52.39
360.977	56.49
361.189	19.63
361.4	-7
361.611	54.44
361.823	-43.86
362.034	23.72
362.245	25.77
362.456	62.63
362.667	91.31
362.879	9.39
363.09	52.39
363.301	-7
363.512	31.91
363.723	40.11
363.935	48.3
364.146	7.34
364.357	38.06
364.568	-9.05
364.779	60.59
364.99	81.07
365.201	-19.29
365.412	44.2
365.623	109.74
365.834	36.01
366.045	85.16
366.256	29.87
366.467	62.63
366.678	1.19
366.889	52.39
367.1	-13.14
367.311	58.54
367.522	33.96
367.733	13.48
367.944	81.07
368.155	7.34
368.366	-2.9
368.577	48.3
368.788	40.11
368.999	36.01
369.209	38.06
369.42	-4.95
369.631	38.06
369.842	1.19
370.053	105.64
370.264	42.15
370.474	27.82
370.685	97.45
370.896	33.96
371.107	79.02
371.317	91.31
371.528	46.25
371.739	83.11
371.95	17.58
372.16	54.44
372.371	21.67
372.582	124.07
372.792	76.97
373.003	17.58
373.214	122.02
373.424	42.15
373.635	38.06
373.846	11.43
374.056	56.49
374.267	-58.2
374.477	54.44
374.688	7.34
374.898	-27.48
375.109	72.87
375.319	66.73
375.53	70.83
375.74	52.39
375.951	19.63
376.161	62.63
376.372	72.87
376.582	68.78
376.793	52.39
377.003	87.21
377.214	7.34
377.424	50.35
377.635	19.63
377.845	91.31
378.055	68.78
378.266	15.53
378.476	54.44
378.686	7.34
378.897	56.49
379.107	126.12
379.317	-25.43
379.528	38.06
379.738	91.31
379.948	42.15
380.158	3.24
380.369	107.69
380.579	44.2
380.789	19.63
380.999	15.53
381.21	31.91
381.42	29.87
381.63	89.26
381.84	101.55
382.05	95.4
382.261	97.45
382.471	31.91
382.681	89.26
382.891	56.49
383.101	42.15
383.311	72.87
383.521	66.73
383.731	31.91
383.941	17.58
384.151	52.39
384.361	66.73
384.571	76.97
384.781	31.91
384.991	9.39
385.201	109.74
385.411	54.44
385.621	52.39
385.831	36.01
386.041	3.24
386.251	15.53
386.461	52.39
386.671	-45.91
386.881	31.91
387.091	56.49
387.301	95.4
387.511	103.59
387.72	-31.57
387.93	11.43
388.14	33.96
388.35	40.11
388.56	68.78
388.769	89.26
388.979	64.68
389.189	70.83
389.399	138.41
389.609	23.72
389.818	83.11
390.028	83.11
390.238	48.3
390.447	93.35
390.657	122.02
390.867	93.35
391.076	-21.33
391.286	89.26
391.496	72.87
391.705	31.91
391.915	79.02
392.125	46.25
392.334	62.63
392.544	79.02
392.753	79.02
392.963	50.35
393.172	91.31
393.382	9.39
393.591	62.63
393.801	97.45
394.01	58.54
394.22	66.73
394.429	60.59
394.639	42.15
394.848	25.77
395.058	54.44
395.267	23.72
395.477	58.54
395.686	146.6
395.895	83.11
396.105	40.11
396.314	-11.09
396.524	-11.09
396.733	60.59
396.942	128.17
397.152	89.26
397.361	36.01
397.57	76.97
397.78	89.26
397.989	64.68
398.198	42.15
398.407	79.02
398.617	89.26
398.826	93.35
399.035	76.97
399.244	52.39
399.453	68.78
399.663	76.97
399.872	99.5
400.081	52.39
400.29	93.35
400.499	-7
400.708	21.67
400.917	62.63
401.127	99.5
401.336	111.78
401.545	140.46
401.754	70.83
401.963	105.64
402.172	134.31
402.381	58.54
402.59	23.72
402.799	93.35
403.008	72.87
403.217	115.88
403.426	70.83
403.635	70.83
403.844	70.83
404.053	93.35
404.262	113.83
404.471	158.89
404.68	97.45
404.888	19.63
405.097	93.35
405.306	99.5
405.515	115.88
405.724	199.85
405.933	91.31
406.142	148.65
406.35	115.88
406.559	171.18
406.768	134.31
406.977	138.41
407.185	115.88
407.394	115.88
407.603	134.31
407.812	232.62
408.02	81.07
408.229	158.89
408.438	154.79
408.646	175.27
408.855	171.18
409.064	210.09
409.272	138.41
409.481	177.32
409.69	199.85
409.898	148.65
410.107	103.59
410.315	165.03
410.524	179.37
410.733	236.71
410.941	240.81
411.15	185.51
411.358	242.85
411.567	298.15
411.775	249
411.984	197.8
412.192	208.04
412.401	236.71
412.609	179.37
412.818	310.44
413.026	388.26
413.234	285.86
413.443	246.95
413.651	343.21
413.86	285.86
414.068	421.03
414.276	378.02
414.485	435.36
414.693	398.5
414.901	382.12
415.11	431.27
415.318	447.65
415.526	470.18
415.734	427.17
415.943	515.23
416.151	408.74
416.359	474.28
416.567	554.15
416.776	488.61
416.984	560.29
417.192	582.82
417.4	638.11
417.608	502.95
417.817	605.35
418.025	609.44
418.233	754.85
418.441	650.4
418.649	738.46
418.857	738.46
419.065	740.51
419.273	810.14
419.481	746.66
419.689	789.66
419.897	887.97
420.105	955.55
420.313	853.15
420.521	916.64
420.729	933.02
420.937	969.88
421.145	1039.51
421.353	1107.1
421.561	1062.04
421.769	1160.34
421.977	1191.06
422.185	1148.06
422.393	1303.7
422.601	1279.13
422.809	1283.22
423.017	1363.09
423.224	1395.86
423.432	1369.24
423.64	1420.44
423.848	1475.73
424.056	1463.44
424.263	1571.99
424.471	1582.23
424.679	1680.53
424.887	1733.78
425.094	1797.26
425.302	1795.22
425.51	1840.27
425.718	2047.12
425.925	1901.71
426.133	2059.4
426.341	2075.79
426.548	2192.52
426.756	2217.1
426.964	2243.72
427.171	2251.91
427.379	2397.32
427.586	2405.51
427.794	2577.54
428.001	2684.03
428.209	2702.47
428.417	2690.18
428.624	2864.25
428.832	2976.89
429.039	2999.42
429.247	2968.7
429.454	3249.27
429.662	3388.53
429.869	3136.63
430.076	3404.92
430.284	3243.13
430.491	3515.51
430.699	3628.15
430.906	3603.57
431.114	3619.96
431.321	3832.94
431.528	3843.18
431.736	4074.6
431.943	4299.88
432.15	4117.61
432.358	4224.11
432.565	4473.96
432.772	4465.77
432.979	4633.7
433.187	4797.54
433.394	4850.78
433.601	5119.07
433.808	5180.51
434.016	5262.43
434.223	5239.9
434.43	5598.29
434.637	5508.18
434.844	5946.45
435.052	6009.93
435.259	6040.65
435.466	6022.22
435.673	6079.57
435.88	6466.63
436.087	6646.85
436.294	6704.2
436.501	6552.65
436.708	6653
436.915	6999.1
437.122	7191.61
437.329	7251
437.537	7363.64
437.743	7525.43
437.95	7455.8
438.157	7869.49
438.364	8166.45
438.571	8242.22
438.778	8127.53
438.985	9053.22
439.192	8735.78
439.399	8907.81
439.606	8557.61
439.813	8989.73
440.02	9825.3
440.227	9501.72
440.433	9249.82
440.64	9927.7
440.847	9743.38
441.054	9714.71
441.261	10605.58
441.467	10255.37
441.674	10687.5
441.881	10849.29
442.088	10900.48
442.294	10783.75
442.501	11152.38
442.708	11322.37
442.914	11668.47
443.121	12215.28
443.328	11942.9
443.534	12661.74
443.741	12516.33
443.948	12542.96
444.154	13157.35
444.361	13134.82
444.568	13224.93
444.774	13188.07
444.981	13399.01
445.187	13997.01
445.394	14277.58
445.6	14097.36
445.807	15629.24
446.013	14787.53
446.22	15127.49
446.426	15573.95
446.633	15793.08
446.839	16409.52
447.046	15778.75
447.252	16632.75
447.459	16706.48
447.665	16755.63
447.871	17345.44
448.078	17841.05
448.284	17443.74
448.491	17664.93
448.697	18326.42
448.903	18766.73
449.11	18598.8
449.316	18666.38
449.522	18703.25
449.728	19053.45
449.935	19405.7
450.141	19188.61
450.347	19686.27
450.553	19250.05
450.76	19348.36
450.966	19891.07
451.172	19854.2
451.378	20358
451.584	19938.17
451.791	20407.16
451.997	20106.1
452.203	20806.51
452.409	20644.72
452.615	20573.04
452.821	19747.71
453.027	19635.07
453.233	20364.15
453.44	19610.5
453.646	19843.96
453.852	19862.4
454.058	20118.39
454.264	19473.28
454.47	19786.62
454.676	19385.22
454.882	20079.48
455.088	18398.1
455.294	18738.06
455.5	18985.86
455.705	19049.35
455.911	18404.24
456.117	18023.32
456.323	17994.65
456.529	16794.54
456.735	17578.91
456.941	17329.06
457.147	16706.48
457.352	16513.97
457.558	16309.17
457.764	16116.66
457.97	15911.86
458.176	15463.36
458.381	15352.77
458.587	14609.36
458.793	14705.61
458.999	14224.34
459.204	14855.11
459.41	14592.97
459.616	13482.97
459.821	13728.73
460.027	13489.12
460.233	13220.83
460.438	12813.29
460.644	12694.5
460.85	12055.54
461.055	12241.9
461.261	11924.47
461.466	11203.58
461.672	10845.19
461.878	11559.93
462.083	10886.15
462.289	10587.15
462.494	10419.21
462.7	9970.71
462.905	9856.02
463.111	10112.02
463.316	10087.44
463.522	9761.81
463.727	10003.47
463.932	10071.06
464.138	9683.99
464.343	9929.75
464.549	9544.73
464.754	9853.97
464.959	9716.76
465.165	9923.6
465.37	9389.08
465.575	8954.91
465.781	9350.17
465.986	9280.54
466.191	9241.63
466.397	9038.88
466.602	8549.42
466.807	8987.68
467.012	8920.1
467.218	8866.85
467.423	8735.78
467.628	8750.12
467.833	9124.9
468.038	8608.81
468.244	8690.73
468.449	8784.93
468.654	8735.78
468.859	8563.75
469.064	8555.56
469.269	8150.06
469.474	8287.28
469.679	8406.06
469.885	7951.41
470.09	8227.89
470.295	8207.41
470.5	7990.32
470.705	7961.65
470.91	7889.97
471.115	7752.76
471.32	7824.44
471.525	7789.62
471.73	7736.37
471.935	7765.04
472.139	7283.77
472.344	7400.51
472.549	7273.53
472.754	7164.99
472.959	7251
473.164	7029.82
473.369	6931.52
473.574	7334.97
473.778	7117.89
473.983	6968.38
474.188	7093.31
474.393	6763.59
474.598	6777.92
474.802	6833.22
475.007	6683.72
475.212	6560.84
475.417	6394.95
475.621	6382.67
475.826	6474.82
476.031	6310.99
476.235	6102.09
476.44	6196.3
476.645	6218.83
476.849	6278.22
477.054	6147.15
477.259	5954.64
477.463	5997.65
477.668	5954.64
477.872	6003.79
478.077	5792.85
478.282	5594.2
478.486	5846.1
478.691	5624.92
478.895	5618.77
479.1	5508.18
479.304	5534.81
479.509	5444.7
479.713	5602.39
479.918	5508.18
480.122	5440.6
480.326	5416.02
480.531	5473.37
480.735	5321.82
480.94	5334.11
481.144	5530.71
481.348	5168.22
481.553	5354.58
481.757	5082.21
481.961	5221.47
482.166	5403.74
482.37	5256.28
482.574	5076.06
482.778	5176.41
482.983	5370.97
483.187	5065.82
483.391	5207.13
483.595	5172.32
483.8	5110.88
484.004	5100.64
484.208	5127.26
484.412	5153.88
484.616	5303.39
484.821	5252.19
485.025	5106.78
485.229	5366.87
485.433	5162.08
485.637	5262.43
485.841	5157.98
486.045	5147.74
486.249	5174.36
486.453	5174.36
486.657	5205.08
486.861	5166.17
487.065	5121.12
487.269	5260.38
487.473	5065.82
487.677	5297.24
487.881	5254.23
488.085	5360.73
488.289	5272.67
488.493	5084.25
488.697	5147.74
488.901	5243.99
489.105	5157.98
489.309	5205.08
489.512	5282.91
489.716	5289.05
489.92	5350.49
490.124	5434.46
490.328	5438.55
490.531	5268.57
490.735	5364.82
490.939	5284.95
491.143	5342.3
491.346	5444.7
491.55	5514.33
491.754	5459.03
491.958	5559.38
492.161	5338.2
492.365	5385.3
492.569	5344.35
492.772	5590.1
492.976	5549.14
493.18	5573.72
493.383	5741.65
493.587	5696.6
493.79	5801.04
493.994	5710.93
494.197	5622.87
494.401	5942.35
494.605	5796.95
494.808	5936.21
495.012	6130.77
495.215	6141
495.419	6054.99
495.622	6075.47
495.825	6171.72
496.029	6179.92
496.232	6138.96
496.436	6237.26
496.639	6509.64
496.843	6423.62
497.046	6448.2
497.249	6548.55
497.453	6691.91
497.656	6642.76
497.859	6777.92
498.063	6714.44
498.266	6915.14
498.469	6919.23
498.673	7011.39
498.876	7029.82
499.079	7148.61
499.282	7300.16
499.485	7275.58
499.689	7466.04
499.892	7375.93
500.095	7560.25
500.298	7693.37
500.501	7447.61
500.705	7756.85
500.908	8029.23
501.111	7990.32
501.314	8367.15
501.517	8307.76
501.72	8457.26
501.923	8451.11
502.126	8410.15
502.329	8502.31
502.532	8717.35
502.735	8815.65
502.938	8832.04
503.141	9042.98
503.344	9151.52
503.547	9262.11
503.75	9356.32
503.953	9753.62
504.156	9600.02
504.359	9810.96
504.562	9845.78
504.765	9952.27
504.968	10415.12
505.17	10202.13
505.373	10210.32
505.576	10572.81
505.779	10687.5
505.982	10787.85
506.185	10974.21
506.387	10863.62
506.59	11031.55
506.793	11340.8
506.996	11265.02
507.198	11516.92
507.401	11623.42
507.604	11645.94
507.807	12000.24
508.009	12170.22
508.212	12024.82
508.415	12278.77
508.617	12471.28
508.82	12760.04
509.022	12563.43
509.225	12930.02
509.428	13186.02
509.63	13151.2
509.833	13482.97
510.035	13655
510.238	13605.85
510.44	13888.47
510.643	14033.88
510.845	14390.22
511.048	14166.99
511.25	14525.39
511.453	14668.75
511.655	15086.53
511.858	15285.19
512.06	15143.88
512.262	15543.23
512.465	15305.67
512.667	15496.13
512.87	15983.54
513.072	15907.77
513.274	16321.46
513.477	16249.78
513.679	16460.72
513.881	16837.55
514.084	17148.84
514.286	17116.07
514.488	17310.63
514.69	17826.71
514.893	17953.69
515.095	18095
515.297	18219.92
515.499	18135.96
515.701	18600.85
515.904	18828.17
516.106	18742.16
516.308	19231.62
516.51	19587.97
516.712	19399.55
516.914	19823.48
517.116	20224.89
517.318	20138.87
517.52	20145.02
517.722	20579.18
517.925	20837.23
518.127	21009.26
518.329	21410.66
518.531	21336.93
518.733	21908.32
518.935	21992.28
519.136	22041.43
519.338	22166.36
519.54	22803.28
519.742	22936.4
519.944	22954.83
520.146	23241.54
520.348	23268.17
520.55	23614.27
520.752	23745.34
520.954	24374.07
521.155	24048.44
521.357	24318.78
521.559	24697.65
521.761	25115.44
521.963	24912.69
522.164	24976.17
522.366	25297.7
522.568	25379.62
522.77	25846.56
522.971	26241.82
523.173	26565.4
523.375	26661.65
523.576	26399.51
523.778	26592.02
523.98	27161.36
524.181	27198.22
524.383	27462.41
524.584	27521.8
524.786	27990.78
524.988	28068.61
525.189	28041.98
525.391	28060.41
525.592	28404.47
525.794	28437.24
525.995	28476.15
526.197	29065.97
526.398	29170.41
526.6	29321.96
526.801	29139.69
527.003	29147.89
527.204	29668.07
527.406	29508.33
527.607	29696.74
527.808	29885.15
528.01	29559.53
528.211	29616.87
528.412	29760.23
528.614	30118.62
528.815	30135.01
529.016	30458.59
529.218	30401.24
529.419	30720.73
529.62	30632.66
529.822	30771.93
530.023	30749.4
530.224	30812.88
530.425	31066.83
530.626	30888.66
530.828	30694.1
531.029	31580.87
531.23	30894.8
531.431	31066.83
531.632	31371.98
531.833	31705.8
532.035	31333.07
532.236	31634.12
532.437	31773.38
532.638	31242.96
532.839	31695.56
533.04	31638.22
533.241	31584.97
533.442	32092.86
533.643	31931.08
533.844	31699.65
534.045	31759.05
534.246	31507.15
534.447	31853.25
534.648	31828.68
534.849	31982.27
535.05	32072.39
535.251	32070.34
535.451	31906.5
535.652	32056
535.853	32131.78
536.054	32049.86
536.255	32176.83
536.456	31976.13
536.657	32647.86
536.857	32209.6
537.058	31781.57
537.259	32551.61
537.46	32498.36
537.66	31695.56
537.861	32228.03
538.062	32029.38
538.263	32236.22
538.463	31797.96
538.664	32203.46
538.865	32275.13
539.065	32494.27
539.266	31945.41
539.466	32522.94
539.667	31787.72
539.868	32223.93
540.068	32305.85
540.269	32082.63
540.469	32148.16
540.67	31902.4
540.87	31810.25
541.071	32334.53
541.271	32244.41
541.472	32019.14
541.672	32047.81
541.873	31662.79
542.073	32318.14
542.274	32412.35
542.474	32142.02
542.675	32289.47
542.875	32107.2
543.075	32105.15
543.276	31824.58
543.476	32608.95
543.676	31967.94
543.877	32338.62
544.077	31890.12
544.277	32393.92
544.478	31879.88
544.678	32406.2
544.878	32232.13
545.078	32113.34
545.279	31761.09
545.479	31886.02
545.679	31963.84
545.879	32355
546.079	31931.08
546.28	31810.25
546.48	31625.93
546.68	32570.04
546.88	31630.02
547.08	31902.4
547.28	32252.61
547.48	31939.27
547.68	32148.16
547.88	31828.68
548.081	32346.81
548.281	31990.47
548.481	32230.08
548.681	32295.61
548.881	32094.91
549.081	32025.28
549.28	32053.95
549.48	31996.61
549.68	31914.69
549.88	32543.42
550.08	31761.09
550.28	32246.46
550.48	32066.24
550.68	32191.17
550.88	31984.32
551.08	32017.09
551.279	31875.78
551.479	31730.37
551.679	31963.84
551.879	31789.77
552.079	32271.04
552.278	31615.69
552.478	31853.25
552.678	31789.77
552.878	32447.16
553.077	32182.98
553.277	31501
553.477	31957.7
553.676	31996.61
553.876	31814.34
554.076	31812.29
554.275	31742.66
554.475	31277.77
554.674	31603.4
554.874	31847.11
555.074	31527.63
555.273	31589.06
555.473	32195.26
555.672	31122.13
555.872	31429.32
556.071	31298.25
556.271	31898.31
556.47	30876.37
556.67	31400.65
556.869	31197.9
557.068	31478.47
557.268	30968.53
557.467	31249.1
557.667	31171.28
557.866	31222.48
558.065	31089.36
558.265	30696.15
558.464	30984.91
558.663	31021.78
558.863	30698.2
559.062	31271.63
559.261	30311.13
559.461	30974.67
559.66	30438.11
559.859	30866.13
560.058	30339.8
560.258	30911.19
560.457	30304.99
560.656	30823.12
560.855	30446.3
561.054	30423.77
561.253	30102.24
561.453	30479.07
561.652	30130.91
561.851	30542.55
562.05	30169.82
562.249	30083.81
562.448	30231.26
562.647	30218.97
562.846	30094.05
563.045	29696.74
563.244	29950.69
563.443	30268.12
563.642	29436.65
563.841	29702.89
564.04	29537
564.239	29723.37
564.438	29528.81
564.637	29649.64
564.836	29852.39
565.035	29420.27
565.234	29340.39
565.432	29111.02
565.631	29061.87
565.83	29459.18
566.029	28982
566.228	28865.27
566.427	29235.95
566.625	28736.24
566.824	28574.45
567.023	28885.75
567.222	28168.96
567.42	28869.36
567.619	28504.82
567.818	28451.58
568.016	28365.56
568.215	28570.36
568.414	28418.81
568.612	28623.61
568.811	28082.94
569.01	28246.78
569.208	27638.53
569.407	28308.22
569.605	27648.77
569.804	28142.33
570.002	27765.51
570.201	28072.7
570.4	27460.36
570.598	27583.24
570.797	27198.22
570.995	27271.95
571.193	27290.38
571.392	27437.83
571.59	26952.46
571.789	26942.22
571.987	27132.68
572.186	26880.78
572.384	26983.18
572.582	27155.21
572.781	26718.99
572.979	26344.22
573.177	26741.52
573.376	26442.52
573.574	26348.31
573.772	26379.03
573.971	25848.61
574.169	26327.83
574.367	25731.87
574.565	26067.74
574.763	25492.26
574.962	25817.89
575.16	25408.29
575.358	25836.32
575.556	25512.74
575.754	25953.05
575.952	25090.86
576.151	25502.5
576.349	25402.15
576.547	25127.72
576.745	25111.34
576.943	25076.52
577.141	25035.56
577.339	25238.31
577.537	24914.73
577.735	24859.44
577.933	24474.42
578.131	24789.81
578.329	24400.69
578.527	24249.14
578.725	24439.61
578.923	24556.34
579.121	24470.33
579.319	24013.63
579.516	24177.47
579.714	24259.38
579.912	23896.89
580.11	23958.33
580.308	23847.74
580.506	23825.22
580.704	23380.81
580.901	23907.13
581.099	23749.44
581.297	23315.27
581.495	23284.55
581.692	23675.71
581.89	23262.02
582.088	23472.96
582.285	23335.75
582.483	23163.72
582.681	23280.46
582.878	22907.73
583.076	22842.19
583.274	23036.75
583.471	22557.52
583.669	22491.99
583.866	22610.77
584.064	22700.88
584.262	22141.78
584.459	22436.69
584.657	22414.16
584.854	22610.77
585.052	22123.35
585.249	22291.29
585.447	22258.52
585.644	21922.65
585.841	21992.28
586.039	22195.03
586.236	21664.61
586.434	21650.27
586.631	21980
586.828	21734.24
587.026	21597.03
587.223	21556.07
587.42	21220.2
587.618	21490.53
587.815	21119.85
588.012	21171.05
588.21	20718.45
588.407	21203.82
588.604	21150.57
588.801	20966.25
588.999	21060.46
589.196	20603.76
589.393	20943.72
589.59	20726.64
589.787	20630.38
589.984	20679.54
590.182	20372.34
590.379	20687.73
590.576	20347.76
590.773	20290.42
590.97	20345.72
591.167	20349.81
591.364	20108.15
591.561	20315
591.758	19803
591.955	19741.57
592.152	20044.66
592.349	19870.59
592.546	19700.61
592.743	19626.88
592.94	19391.36
593.137	19860.35
593.334	19553.15
593.531	19354.5
593.727	19628.93
593.924	19311.49
594.121	19460.99
594.318	19428.23
594.515	19037.06
594.712	19395.46
594.908	19053.45
595.105	18992.01
595.302	19192.71
595.499	19202.95
595.696	18758.54
595.892	18480.02
596.089	18985.86
596.286	18756.49
596.482	18725.77
596.679	18541.46
596.876	18598.8
597.072	18475.92
597.269	18471.82
597.466	18455.44
597.662	18256.79
597.859	18570.13
598.055	18285.46
598.252	18164.63
598.448	18168.73
598.645	18250.64
598.841	17931.16
599.038	18080.66
599.234	17816.47
599.431	17787.8
599.627	17697.69
599.824	17994.65
600.02	17568.67
600.217	17839
600.413	17888.15
600.609	17499.04
600.806	17265.57
601.002	17589.15
601.198	17238.95
601.395	17173.41
601.591	16995.24
601.787	17243.04
601.984	17003.43
602.18	17433.5
602.376	17017.77
602.572	16751.53
602.769	16880.55
602.965	16774.06
603.161	16911.27
603.357	16640.94
603.553	16708.52
603.75	16460.72
603.946	16319.41
604.142	16642.99
604.338	16243.63
604.534	16440.24
604.73	16346.03
604.926	16368.56
605.122	16356.27
605.318	15899.58
605.514	15977.4
605.71	16053.17
605.906	16137.14
606.102	15854.52
606.298	16104.37
606.494	15965.11
606.69	15928.25
606.886	15688.64
607.082	15641.53
607.278	15991.73
607.474	15360.96
607.67	15641.53
607.866	15518.65
608.062	15549.37
608.257	15393.73
608.453	15356.86
608.649	15070.15
608.845	15365.06
609.041	15389.63
609.236	15446.97
609.432	15111.11
609.628	15320
609.824	15133.64
610.019	15092.68
610.215	15092.68
610.411	14994.37
610.606	14779.34
610.802	14838.73
610.998	14721.99
611.193	14701.51
611.389	14875.59
611.584	14982.09
611.78	14474.19
611.976	14820.3
612.171	14670.79
612.367	14705.61
612.562	14715.85
612.758	14525.39
612.953	14453.71
613.149	14175.19
613.344	14173.14
613.539	14595.02
613.735	14191.57
613.93	14134.23
614.126	14500.81
614.321	14382.03
614.517	13986.77
614.712	14111.7
614.907	14029.78
615.103	14136.27
615.298	13837.27
615.493	14123.99
615.688	14023.64
615.884	14113.75
616.079	13833.18
616.274	13925.33
616.47	13808.6
616.665	13900.76
616.86	13681.63
617.055	13777.88
617.25	13814.74
617.445	13796.31
617.641	13415.39
617.836	13532.12
618.031	13345.76
618.226	13634.52
618.421	13532.12
618.616	13386.72
618.811	13472.73
619.006	13470.69
619.201	12905.45
619.396	13069.28
619.591	13089.76
619.786	12887.01
619.981	12882.92
620.176	13001.7
620.371	12696.55
620.566	12745.7
620.761	12698.6
620.956	12714.98
621.151	12133.36
621.346	12557.29
621.541	12458.99
621.735	12190.7
621.93	12299.25
622.125	12405.74
622.32	12164.08
622.515	12280.82
622.709	11957.24
622.904	12059.63
623.099	11809.78
623.294	11975.67
623.488	11901.94
623.683	11783.16
623.878	11721.72
624.072	11617.27
624.267	11572.22
624.462	11662.33
624.656	11596.79
624.851	11498.49
625.046	11230.21
625.24	11277.31
625.435	11256.83
625.629	11279.36
625.824	11123.71
626.018	11078.66
626.213	10853.38
626.407	10931.2
626.602	10654.73
626.796	10863.62
626.991	10769.41
627.185	10669.06
627.38	10562.57
627.574	10699.78
627.768	10390.54
627.963	10189.84
628.157	10398.73
628.352	10443.79
628.546	10175.5
628.74	10132.5
628.935	10042.39
629.129	9972.75
629.323	10097.68
629.517	10040.34
629.712	9991.19
629.906	9868.31
630.1	9761.81
630.294	9911.32
630.489	9643.03
630.683	9856.02
630.877	9679.89
631.071	9653.27
631.265	9550.87
631.459	9415.71
631.653	9458.71
631.848	9227.29
632.042	9245.73
632.236	9450.52
632.43	9116.7
632.624	9315.36
632.818	9106.46
633.012	8948.77
633.206	8909.86
633.4	9092.13
633.594	9024.54
633.788	8975.39
633.982	8913.95
634.176	8637.48
634.369	8827.94
634.563	8619.05
634.757	8588.33
634.951	8723.49
635.145	8571.94
635.339	8576.04
635.533	8539.18
635.726	8563.75
635.92	8301.61
636.114	8111.15
636.308	8397.87
636.501	8399.91
636.695	8377.39
636.889	8068.14
637.083	8141.87
637.276	8100.91
637.47	8152.11
637.664	7937.07
637.857	8066.1
638.051	8164.4
638.244	7908.4
638.438	7789.62
638.632	7816.24
638.825	7820.34
639.019	7703.61
639.212	7578.68
639.406	7672.89
639.599	7519.29
639.793	7574.58
639.986	7380.03
640.18	7498.81
640.373	7470.14
640.567	7162.94
640.76	7171.13
640.954	7142.46
641.147	7164.99
641.34	7255.1
641.534	7044.16
641.727	6978.62
641.92	7052.35
642.114	6949.95
642.307	6939.71
642.5	6931.52
642.694	6882.37
642.887	6624.33
643.08	6681.67
643.273	6687.81
643.467	6603.85
643.66	6816.83
643.853	6587.46
644.046	6509.64
644.239	6665.28
644.432	6587.46
644.626	6376.52
644.819	6405.19
645.012	6263.88
645.205	6417.48
645.398	6298.7
645.591	6325.32
645.784	6091.85
645.977	6218.83
646.17	6083.66
646.363	5917.78
646.556	5928.02
646.749	5907.54
646.942	5983.31
647.135	5885.01
647.328	5807.19
647.521	5901.39
647.714	5696.6
647.907	5925.97
648.099	5712.98
648.292	5825.62
648.485	5837.91
648.678	5698.64
648.871	5733.46
649.064	5586.01
649.256	5454.94
649.449	5588.05
649.642	5516.37
649.835	5461.08
650.027	5416.02
650.22	5284.95
650.413	5452.89
650.605	5481.56
650.798	5268.57
650.991	5160.03
651.183	5416.02
651.376	5147.74
651.568	5147.74
651.761	5010.53
651.954	5033.05
652.146	5268.57
652.339	5123.16
652.531	5037.15
652.724	5020.77
652.916	4879.46
653.109	4897.89
653.301	4920.42
653.494	4832.35
653.686	4680.8
653.879	4934.75
654.071	4648.04
654.263	4772.96
654.456	4650.08
654.648	4689
654.84	4627.56
655.033	4691.04
655.225	4689
655.417	4492.39
655.61	4613.22
655.802	4660.32
655.994	4529.25
656.186	4459.62
656.379	4461.67
656.571	4385.9
656.763	4426.86
656.955	4400.23
657.148	4433
657.34	4355.18
657.532	4310.12
657.724	4287.59
657.916	4131.95
658.108	4013.17
658.3	4256.87
658.492	4234.35
658.684	4033.65
658.876	4068.46
659.068	4109.42
659.26	4021.36
659.452	4113.52
659.644	4047.98
659.836	4070.51
660.028	3904.62
660.22	3912.81
660.412	3802.22
660.604	3906.67
660.796	3882.1
660.988	3863.66
661.18	3964.01
661.372	3839.09
661.563	3755.12
661.755	3828.85
661.947	3787.89
662.139	3683.44
662.331	3714.16
662.522	3824.75
662.714	3732.59
662.906	3660.91
663.097	3619.96
663.289	3589.24
663.481	3677.3
663.673	3464.31
663.864	3398.77
664.056	3359.86
664.247	3413.11
664.439	3337.34
664.631	3480.69
664.822	3411.06
665.014	3183.74
665.205	3376.25
665.397	3286.14
665.588	3456.12
665.78	3359.86
665.971	3429.49
666.163	3288.18
666.354	3275.9
666.546	3253.37
666.737	3202.17
666.929	3150.97
667.12	3253.37
667.311	3214.46
667.503	3138.68
667.694	3171.45
667.885	3165.31
668.077	3245.18
668.268	3144.83
668.459	3099.77
668.651	2937.98
668.842	3007.61
669.033	2972.8
669.224	3034.24
669.416	3054.72
669.607	2952.32
669.798	2972.8
669.989	2827.39
670.18	2907.26
670.371	2991.23
670.563	2901.12
670.754	2931.84
670.945	2851.97
671.136	2892.93
671.327	2927.74
671.518	2813.06
671.709	2901.12
671.9	2837.63
672.091	2741.38
672.282	2901.12
672.473	2927.74
672.664	2757.76
672.855	2817.15
673.046	2704.51
673.237	2806.91
673.428	2755.71
673.619	2794.62
673.809	2677.89
674	2894.97
674.191	2776.19
674.382	2790.53
674.573	2724.99
674.764	2659.46
674.954	2804.86
675.145	2575.49
675.336	2622.59
675.527	2704.51
675.717	2694.27
675.908	2684.03
676.099	2690.18
676.289	2675.84
676.48	2667.65
676.671	2577.54
676.861	2565.25
677.052	2516.1
677.243	2632.83
677.433	2645.12
677.624	2544.77
677.814	2567.3
678.005	2606.21
678.195	2473.09
678.386	2456.71
678.576	2524.29
678.767	2491.52
678.957	2487.43
679.148	2487.43
679.338	2581.64
679.529	2514.05
679.719	2544.77
679.909	2548.87
680.1	2534.53
680.29	2542.72
680.481	2438.28
680.671	2462.85
680.861	2536.58
681.052	2526.34
681.242	2407.56
681.432	2536.58
681.622	2450.57
681.813	2430.09
682.003	2473.09
682.193	2364.55
682.383	2458.76
682.573	2462.85
682.764	2403.46
682.954	2598.02
683.144	2411.65
683.334	2462.85
683.524	2505.86
683.714	2550.92
683.904	2421.89
684.094	2382.98
684.284	2428.04
684.474	2344.07
684.664	2460.81
684.854	2460.81
685.044	2458.76
685.234	2251.91
685.424	2288.78
685.614	2469
685.804	2366.6
685.994	2405.51
686.184	2346.12
686.374	2317.45
686.564	2454.66
686.753	2425.99
686.943	2342.02
687.133	2317.45
687.323	2321.54
687.513	2317.45
687.702	2337.93
687.892	2294.92
688.082	2249.86
688.272	2378.89
688.461	2399.37
688.651	2309.26
688.841	2382.98
689.03	2282.63
689.22	2169.99
689.41	2333.83
689.599	2313.35
689.789	2323.59
689.979	2235.53
690.168	2262.15
690.358	2225.29
690.547	2206.86
690.737	2296.97
690.926	2321.54
691.116	2321.54
691.305	2387.08
691.495	2233.48
691.684	2282.63
691.874	2221.19
692.063	2321.54
692.252	2380.93
692.442	2225.29
692.631	2325.64
692.82	2327.69
693.01	2323.59
693.199	2239.62
693.388	2204.81
693.578	2274.44
693.767	2253.96
693.956	2262.15
694.146	2321.54
694.335	2311.3
694.524	2262.15
694.713	2239.62
694.902	2282.63
695.092	2372.74
695.281	2284.68
695.47	2331.78
695.659	2315.4
695.848	2219.14
696.037	2270.34
696.226	2411.65
696.415	2303.11
696.604	2362.5
696.793	2221.19
696.982	2329.74
697.171	2307.21
697.36	2251.91
697.549	2337.93
697.738	2268.3
697.927	2278.54
698.116	2253.96
698.305	2241.67
698.494	2294.92
698.683	2329.74
698.872	2235.53
699.061	2198.67
699.25	2247.82
699.438	2370.69
699.627	2374.79
699.816	2323.59
700.005	2335.88
700.193	2354.31
700.382	2311.3
700.571	2333.83
700.76	2307.21
700.948	2309.26
701.137	2303.11
701.326	2253.96
701.514	2278.54
701.703	2319.5
701.892	2196.62
702.08	2292.87
702.269	2237.58
702.457	2241.67
702.646	2184.33
702.834	2163.85
703.023	2239.62
703.212	2307.21
703.4	2161.8
703.589	2231.43
703.777	2182.28
703.965	2239.62
704.154	2200.71
704.342	2237.58
704.531	2149.51
704.719	2245.77
704.907	2196.62
705.096	2237.58
705.284	2040.97
705.472	2256.01
705.661	2126.99
705.849	2245.77
706.037	2184.33
706.226	2245.77
706.414	2043.02
706.602	2077.83
706.79	2167.95
706.979	2133.13
707.167	2213
707.355	2251.91
707.543	2133.13
707.731	2172.04
707.919	2094.22
708.107	2043.02
708.296	2081.93
708.484	2188.43
708.672	2090.12
708.86	2057.36
709.048	2126.99
709.236	2077.83
709.424	2063.5
709.612	2038.92
709.8	2059.4
709.988	1973.39
710.176	1977.48
710.364	2004.11
710.551	2141.32
710.739	2024.59
710.927	2020.49
711.115	1993.87
711.303	2026.64
711.491	1979.53
711.679	2047.12
711.866	2006.16
712.054	1973.39
712.242	1881.23
712.43	2073.74
712.617	1901.71
712.805	1975.44
712.993	1868.94
713.181	1870.99
713.368	1834.13
713.556	2022.54
713.744	1952.91
713.931	1889.42
714.119	1905.81
714.306	1860.75
714.494	1875.09
714.682	1952.91
714.869	1852.56
715.057	1946.76
715.244	1840.27
715.432	1784.98
715.619	1930.38
715.807	1940.62
715.994	1905.81
716.182	1895.57
716.369	1866.89
716.556	1899.66
716.744	1836.17
716.931	1825.93
717.119	1842.32
717.306	1764.5
717.493	1780.88
717.681	1748.11
717.868	1709.2
718.055	1748.11
718.242	1809.55
718.43	1748.11
718.617	1746.06
718.804	1774.74
718.991	1768.59
719.179	1719.44
719.366	1674.39
719.553	1748.11
719.74	1707.15
719.927	1696.91
720.114	1698.96
720.301	1645.71
720.488	1741.97
720.676	1733.78
720.863	1658
721.05	1643.67
721.237	1672.34
721.424	1623.19
721.611	1649.81
721.798	1621.14
721.985	1653.91
722.172	1594.51
722.358	1651.86
722.545	1590.42
722.732	1682.58
722.919	1631.38
723.106	1621.14
723.293	1625.23
723.48	1625.23
723.667	1594.51
723.853	1600.66
724.04	1617.04
724.227	1485.97
724.414	1551.51
724.6	1576.08
724.787	1510.55
724.974	1592.47
725.161	1475.73
725.347	1535.12
725.534	1651.86
725.72	1481.88
725.907	1526.93
726.094	1490.07
726.28	1526.93
726.467	1473.68
726.653	1594.51
726.84	1508.5
727.027	1557.65
727.213	1445.01
727.4	1393.81
727.586	1545.36
727.773	1467.54
727.959	1467.54
728.145	1459.35
728.332	1442.96
728.518	1483.92
728.705	1473.68
728.891	1426.58
729.077	1584.27
729.264	1406.1
729.45	1432.72
729.636	1469.59
729.823	1440.92
730.009	1379.48
730.195	1494.16
730.382	1359
730.568	1395.86
730.754	1395.86
730.94	1424.53
731.126	1481.88
731.313	1311.89
731.499	1399.96
731.685	1469.59
731.871	1361.05
732.057	1340.57
732.243	1359
732.429	1440.92
732.615	1428.63
732.801	1371.29
732.987	1356.95
733.173	1377.43
733.359	1418.39
733.545	1361.05
733.731	1326.23
733.917	1416.34
734.103	1350.81
734.289	1385.62
734.475	1385.62
734.661	1289.37
734.847	1367.19
735.033	1287.32
735.219	1254.55
735.404	1307.8
735.59	1305.75
735.776	1305.75
735.962	1309.85
736.148	1289.37
736.333	1326.23
736.519	1232.02
736.705	1232.02
736.89	1342.61
737.076	1289.37
737.262	1234.07
737.447	1242.26
737.633	1256.6
737.819	1232.02
738.004	1262.74
738.19	1256.6
738.375	1209.5
738.561	1363.09
738.747	1260.7
738.932	1215.64
739.118	1242.26
739.303	1252.5
739.489	1178.78
739.674	1197.21
739.859	1135.77
740.045	1137.82
740.23	1170.58
740.416	1227.93
740.601	1219.74
740.786	1215.64
740.972	1086.62
741.157	1160.34
741.342	1209.5
741.528	1139.87
741.713	1129.63
741.898	1186.97
742.084	1125.53
742.269	1133.72
742.454	1162.39
742.639	1141.91
742.824	1129.63
743.01	1141.91
743.195	1131.67
743.38	1152.15
743.565	1072.28
743.75	1127.58
743.935	1094.81
744.12	1141.91
744.305	1115.29
744.49	1002.65
744.675	1062.04
744.86	1002.65
745.045	1068.19
745.23	1109.15
745.415	1064.09
745.6	976.03
745.785	1025.18
745.97	1088.67
746.155	1115.29
746.34	935.07
746.525	1004.7
746.71	1055.9
746.895	1080.47
747.079	1023.13
747.264	963.74
747.449	1041.56
747.634	904.35
747.819	1002.65
748.003	904.35
748.188	973.98
748.373	939.16
748.557	928.92
748.742	914.59
748.927	926.88
749.111	1008.8
749.296	941.21
749.481	840.86
749.665	832.67
749.85	842.91
750.034	892.06
750.219	912.54
750.404	842.91
750.588	855.2
750.773	926.88
750.957	933.02
751.141	920.73
751.326	912.54
751.51	871.58
751.695	873.63
751.879	883.87
752.064	951.45
752.248	890.01
752.432	851.1
752.617	822.43
752.801	828.57
752.985	814.24
753.17	779.42
753.354	824.48
753.538	783.52
753.722	777.37
753.907	758.94
754.091	849.05
754.275	775.33
754.459	715.94
754.643	674.98
754.828	836.77
755.012	812.19
755.196	709.79
755.38	693.41
755.564	814.24
755.748	732.32
755.932	760.99
756.116	677.02
756.3	701.6
756.484	756.9
756.668	750.75
756.852	693.41
757.036	689.31
757.22	732.32
757.404	650.4
757.588	699.55
757.772	689.31
757.956	717.98
758.14	666.78
758.323	681.12
758.507	677.02
758.691	728.22
758.875	625.83
759.059	677.02
759.242	597.15
759.426	693.41
759.61	642.21
759.794	629.92
759.977	599.2
760.161	687.26
760.345	642.21
760.528	715.94
760.712	625.83
760.895	681.12
761.079	625.83
761.263	545.95
761.446	537.76
761.63	603.3
761.813	580.77
761.997	588.96
762.18	574.63
762.364	627.87
762.547	591.01
762.731	611.49
762.914	521.38
763.098	634.02
763.281	504.99
763.464	586.91
763.648	521.38
763.831	531.62
764.015	593.06
764.198	523.43
764.381	554.15
764.564	638.11
764.748	472.23
764.931	562.34
765.114	492.71
765.297	541.86
765.481	560.29
765.664	543.91
765.847	582.82
766.03	597.15
766.213	500.9
766.397	552.1
766.58	556.19
766.763	507.04
766.946	578.72
767.129	517.28
767.312	517.28
767.495	525.47
767.678	584.87
767.861	507.04
768.044	527.52
768.227	562.34
768.41	541.86
768.593	484.52
768.776	451.75
768.959	521.38
769.142	511.14
769.324	496.8
769.507	525.47
769.69	466.08
769.873	529.57
770.056	486.56
770.239	572.58
770.421	533.67
770.604	486.56
770.787	496.8
770.97	466.08
771.152	502.95
771.335	468.13
771.518	527.52
771.7	527.52
771.883	478.37
772.066	398.5
772.248	468.13
772.431	523.43
772.613	500.9
772.796	545.95
772.978	478.37
773.161	449.7
773.343	511.14
773.526	492.71
773.708	435.36
773.891	451.75
774.073	449.7
774.256	433.32
774.438	533.67
774.621	490.66
774.803	480.42
774.985	484.52
775.168	480.42
775.35	455.84
775.532	414.88
775.715	386.21
775.897	398.5
776.079	425.12
776.261	380.07
776.444	416.93
776.626	437.41
776.808	398.5
776.99	464.04
777.173	414.88
777.355	412.84
777.537	345.25
777.719	425.12
777.901	416.93
778.083	353.45
778.265	437.41
778.447	308.39
778.629	328.87
778.811	433.32
778.993	326.82
779.175	373.92
779.357	318.63
779.539	390.31
779.721	365.73
779.903	445.6
780.085	347.3
780.267	335.01
780.449	367.78
780.631	382.12
780.812	365.73
780.994	337.06
781.176	320.68
781.358	371.88
781.54	332.97
781.721	365.73
781.903	351.4
782.085	320.68
782.267	289.96
782.448	349.35
782.63	380.07
782.812	330.92
782.993	359.59
783.175	289.96
783.357	298.15
783.538	375.97
783.72	320.68
783.901	289.96
784.083	351.4
784.264	185.51
784.446	302.25
784.627	308.39
784.809	332.97
784.99	365.73
785.172	269.48
785.353	244.9
785.535	208.04
785.716	285.86
785.897	285.86
786.079	283.81
786.26	277.67
786.441	257.19
786.623	269.48
786.804	253.09
786.985	292.01
787.167	230.57
787.348	314.53
787.529	226.47
787.71	285.86
787.891	208.04
788.073	228.52
788.254	285.86
788.435	189.61
788.616	242.85
788.797	240.81
788.978	244.9
789.159	244.9
789.34	261.29
789.522	242.85
789.703	257.19
789.884	224.42
790.065	240.81
790.246	249
790.427	226.47
790.607	261.29
790.788	169.13
790.969	253.09
791.15	167.08
791.331	255.14
791.512	222.38
791.693	156.84
791.874	238.76
792.054	292.01
792.235	146.6
792.416	193.7
792.597	214.18
792.778	279.72
792.958	199.85
793.139	181.42
793.32	232.62
793.5	152.74
793.681	216.23
793.862	119.98
794.042	193.7
794.223	171.18
794.404	226.47
794.584	181.42
794.765	171.18
794.945	126.12
795.126	230.57
795.306	201.9
795.487	287.91
795.667	150.7
795.848	177.32
796.028	156.84
796.209	150.7
796.389	232.62
796.57	173.22
796.75	156.84
796.93	222.38
797.111	142.5
797.291	242.85
797.471	146.6
797.652	236.71
797.832	185.51
798.012	167.08
798.192	169.13
798.373	142.5
798.553	224.42
798.733	152.74
798.913	197.8
799.093	179.37
799.274	138.41
799.454	167.08
799.634	214.18
799.814	150.7
799.994	203.94
800.174	128.17
800.354	154.79
800.534	216.23
800.714	132.26
800.894	189.61
801.074	93.35
801.254	175.27
801.434	117.93
801.614	167.08
801.794	128.17
801.974	380.07
802.154	111.78
802.334	124.07
802.514	181.42
802.693	146.6
802.873	119.98
803.053	146.6
803.233	197.8
803.413	201.9
803.592	134.31
803.772	160.94
803.952	99.5
804.131	146.6
804.311	113.83
804.491	113.83
804.67	99.5
804.85	183.46
805.03	162.98
805.209	130.22
805.389	140.46
805.568	128.17
805.748	179.37
805.928	138.41
806.107	148.65
806.287	162.98
806.466	165.03
806.646	158.89
806.825	185.51
807.004	134.31
807.184	109.74
807.363	124.07
807.543	199.85
807.722	115.88
807.901	146.6
808.081	185.51
808.26	52.39
808.439	101.55
808.619	138.41
808.798	119.98
808.977	173.22
809.156	109.74
809.336	56.49
809.515	64.68
809.694	109.74
809.873	165.03
810.052	119.98
810.231	130.22
810.411	113.83
810.59	195.75
810.769	117.93
810.948	119.98
811.127	11.43
811.306	138.41
811.485	185.51
811.664	140.46
811.843	83.11
812.022	76.97
812.201	132.26
812.38	119.98
812.559	74.92
812.737	138.41
812.916	52.39
813.095	177.32
813.274	97.45
813.453	115.88
813.632	85.16
813.811	122.02
813.989	105.64
814.168	158.89
814.347	160.94
814.526	105.64
814.704	146.6
814.883	185.51
815.062	97.45
815.24	87.21
815.419	117.93
815.598	25.77
815.776	83.11
815.955	122.02
816.133	111.78
816.312	50.35
816.49	126.12
816.669	113.83
816.847	64.68
817.026	117.93
817.204	95.4
817.383	72.87
817.561	113.83
817.74	195.75
817.918	11.43
818.097	122.02
818.275	97.45
818.453	66.73
818.632	91.31
818.81	99.5
818.988	46.25
819.167	52.39
819.345	64.68
819.523	99.5
819.701	79.02
819.879	54.44
820.058	117.93
820.236	81.07
820.414	62.63
820.592	99.5
820.77	138.41
820.948	138.41
821.127	113.83
821.305	46.25
821.483	52.39
821.661	48.3
821.839	74.92
822.017	58.54
822.195	109.74
822.373	64.68
822.551	3.24
822.729	40.11
822.907	111.78
823.085	101.55
823.262	111.78
823.44	19.63
823.618	17.58
823.796	60.59
823.974	72.87
824.152	72.87
824.329	95.4
824.507	115.88
824.685	23.72
824.863	95.4
825.04	119.98
825.218	-0.85
825.396	89.26
825.574	95.4
825.751	64.68
825.929	91.31
826.107	54.44
826.284	48.3
826.462	15.53
826.639	74.92
826.817	13.48
826.994	7.34
827.172	58.54
827.349	136.36
827.527	46.25
827.704	99.5
827.882	91.31
828.059	87.21
828.237	54.44
828.414	68.78
828.591	-25.43
828.769	72.87
828.946	105.64
829.124	72.87
829.301	117.93
829.478	58.54
829.655	66.73
829.833	62.63
830.01	56.49
830.187	175.27
830.364	95.4
830.542	70.83
830.719	79.02
830.896	54.44
831.073	56.49
831.25	103.59
831.427	89.26
831.604	113.83
831.782	83.11
831.959	87.21
832.136	93.35
832.313	72.87
832.49	91.31
832.667	109.74
832.844	-31.57
833.021	79.02
833.198	64.68
833.374	89.26
833.551	54.44
833.728	-29.52
833.905	29.87
834.082	72.87
834.259	58.54
834.436	113.83
834.612	25.77
834.789	105.64
834.966	44.2
835.143	68.78
835.319	119.98
835.496	23.72
835.673	46.25
835.85	91.31
836.026	81.07
836.203	46.25
836.38	3.24
836.556	111.78
836.733	-9.05
836.909	115.88
837.086	5.29
837.262	5.29
837.439	81.07
837.616	29.87
837.792	64.68
837.968	29.87
838.145	21.67
838.321	-9.05
838.498	54.44
838.674	93.35
838.851	9.39
839.027	111.78
839.203	23.72
839.38	107.69
839.556	11.43
839.732	148.65
839.909	58.54
840.085	101.55
840.261	11.43
840.437	42.15
840.614	33.96
840.79	19.63
840.966	79.02
841.142	13.48
841.318	23.72
841.494	60.59
841.671	76.97
841.847	72.87
842.023	-60.24
842.199	40.11
842.375	68.78
842.551	3.24
842.727	5.29
842.903	83.11
843.079	54.44
843.255	44.2
843.431	54.44
843.607	40.11
843.783	-4.95
843.959	42.15
844.134	81.07
844.31	46.25
844.486	58.54
844.662	72.87
844.838	19.63
845.013	74.92
845.189	-50
845.365	91.31
845.541	113.83
845.716	60.59
845.892	-17.24
846.068	21.67
846.244	36.01
846.419	-23.38
846.595	-23.38
846.77	62.63
846.946	9.39
847.122	72.87
847.297	-11.09
847.473	85.16
847.648	83.11
847.824	68.78
847.999	11.43
848.175	64.68
848.35	13.48
848.526	13.48
848.701	70.83
848.876	113.83
849.052	97.45
849.227	31.91
849.403	23.72
849.578	60.59
849.753	17.58
849.929	-0.85
850.104	56.49
850.279	-35.67
850.454	85.16
850.63	3.24
850.805	50.35
850.98	58.54
851.155	9.39
851.33	13.48
851.505	58.54
851.681	15.53
851.856	38.06
852.031	25.77
852.206	58.54
852.381	-29.52
852.556	85.16
852.731	-43.86
852.906	-9.05
853.081	46.25
853.256	27.82
853.431	31.91
853.606	29.87
853.781	-15.19
853.956	3.24
854.131	42.15
854.305	68.78
854.48	81.07
854.655	64.68
854.83	7.34
855.005	-4.95
855.18	58.54
855.354	23.72
855.529	-25.43
855.704	50.35
855.879	9.39
856.053	1.19
856.228	19.63
856.403	58.54
856.577	56.49
856.752	105.64
856.926	15.53
857.101	40.11
857.276	64.68
857.45	72.87
857.625	56.49
857.799	44.2
857.974	42.15
858.148	21.67
858.323	36.01
858.497	-15.19
858.672	111.78
858.846	54.44
859.02	-4.95
859.195	13.48
859.369	23.72
859.543	5.29
859.718	54.44
859.892	-41.81
860.066	38.06
860.241	-21.33
860.415	-23.38
860.589	54.44
860.763	54.44
860.938	50.35
861.112	42.15
861.286	-54.1
861.46	29.87
861.634	52.39
861.808	31.91
861.982	-0.85
862.157	38.06
862.331	3.24
862.505	-11.09
862.679	-25.43
862.853	54.44
863.027	-19.29
863.201	44.2
863.375	52.39
863.549	31.91
863.722	81.07
863.896	52.39
864.07	19.63
864.244	31.91
864.418	81.07
864.592	-4.95
864.766	11.43
864.939	17.58
865.113	42.15
865.287	-9.05
865.461	33.96
865.634	27.82
865.808	3.24
865.982	83.11
866.156	-37.72
866.329	52.39
866.503	40.11
866.676	56.49
866.85	5.29
867.024	97.45
867.197	93.35
867.371	38.06
867.544	-47.96
867.718	7.34
867.891	38.06
868.065	109.74
868.238	58.54
868.412	-7
868.585	23.72
868.759	15.53
868.932	42.15
869.105	-33.62
869.279	64.68
869.452	-2.9
869.625	13.48
869.799	54.44
869.972	3.24
870.145	54.44
870.319	17.58
870.492	19.63
870.665	-4.95
870.838	72.87
871.011	68.78
871.185	81.07
871.358	44.2
871.531	-0.85
871.704	105.64
871.877	27.82
872.05	25.77
872.223	-47.96
872.396	-27.48
872.569	79.02
872.742	5.29
872.915	38.06
873.088	-2.9
873.261	62.63
873.434	5.29
873.607	60.59
873.78	138.41
873.953	31.91
874.126	27.82
874.299	60.59
874.471	-33.62
874.644	33.96
874.817	-90.96
874.99	68.78
875.163	64.68
875.335	13.48
875.508	38.06
875.681	36.01
875.853	25.77
876.026	36.01
876.199	62.63
876.371	42.15
876.544	81.07
876.717	62.63
876.889	-33.62
877.062	38.06
877.234	23.72
877.407	-33.62
877.579	-9.05
877.752	15.53
877.924	64.68
878.097	-33.62
878.269	79.02
878.442	7.34
878.614	11.43
878.786	46.25
878.959	25.77
879.131	-31.57
879.303	56.49
879.476	17.58
879.648	56.49
879.82	3.24
879.993	58.54
880.165	-15.19
880.337	-7
880.509	58.54
880.681	33.96
880.854	58.54
881.026	11.43
881.198	-19.29
881.37	-29.52
881.542	103.59
881.714	-41.81
881.886	-35.67
882.058	-78.68
882.23	-41.81
882.402	-37.72
882.574	21.67
882.746	21.67
882.918	27.82
883.09	42.15
883.262	-23.38
883.434	44.2
883.606	21.67
883.778	25.77
883.95	52.39
884.122	-68.44
884.293	9.39
884.465	-15.19
884.637	115.88
884.809	42.15
884.98	68.78
885.152	19.63
885.324	-19.29
885.496	33.96
885.667	3.24
885.839	46.25
886.011	64.68
886.182	-74.58
886.354	33.96
886.525	46.25
886.697	66.73
886.869	-27.48
887.04	-33.62
887.212	-25.43
887.383	64.68
887.555	19.63
887.726	58.54
887.897	46.25
888.069	25.77
888.24	76.97
888.412	5.29
888.583	54.44
888.754	48.3
888.926	-52.05
889.097	11.43
889.268	13.48
889.44	54.44
889.611	42.15
889.782	-23.38
889.953	50.35
890.125	50.35
890.296	-15.19
890.467	58.54
890.638	42.15
890.809	66.73
890.98	-39.76
891.151	76.97
891.323	25.77
891.494	-27.48
891.665	33.96
891.836	21.67
892.007	42.15
892.178	19.63
892.349	-9.05
892.52	-82.77
892.691	60.59
892.862	-11.09
893.032	-25.43
893.203	68.78
893.374	95.4
893.545	64.68
893.716	19.63
893.887	31.91
894.057	-29.52
894.228	27.82
894.399	23.72
894.57	9.39
894.74	54.44
894.911	-23.38
895.082	58.54
895.253	52.39
895.423	21.67
895.594	56.49
895.764	15.53
895.935	-41.81
896.106	1.19
896.276	79.02
896.447	58.54
896.617	-19.29
896.788	-25.43
896.958	5.29
897.129	-11.09
897.299	33.96
897.47	50.35
897.64	-7
897.81	40.11
897.981	46.25
898.151	46.25
898.322	33.96
898.492	-2.9
898.662	87.21
898.832	56.49
899.003	-9.05
899.173	83.11
899.343	33.96
899.513	48.3
