Data from USB4F104151__178__13-59-00-911.txt Node

Date: Thu Mar 13 13:59:00 EDT 2025
User: louis
Spectrometer: USB4F10415
Trigger mode: 4
Integration Time (sec): 1.000000E-2
Scans to average: 1
Electric dark correction enabled: true
Nonlinearity correction enabled: false
Boxcar width: 0
XAxis mode: Wavelengths
Number of Pixels in Spectrum: 3648
>>>>>Begin Spectral Data<<<<<
178.204	-27.14
178.424	-27.14
178.644	-27.14
178.864	-100.86
179.084	-33.28
179.304	-12.8
179.524	22.02
179.744	-12.8
179.964	26.11
180.184	34.3
180.404	38.4
180.624	7.68
180.844	-43.52
181.064	-59.9
181.283	-10.75
181.503	-6.66
181.723	17.92
181.943	-102.91
182.163	54.78
182.383	22.02
182.602	32.26
182.822	11.78
183.042	28.16
183.262	30.21
183.482	62.98
183.701	62.98
183.921	-25.09
184.141	-0.51
184.361	-2.56
184.58	-27.14
184.8	-37.38
185.02	-18.94
185.239	-0.51
185.459	-6.66
185.679	-43.52
185.898	-90.62
186.118	7.68
186.338	-23.04
186.557	71.17
186.777	46.59
186.997	32.26
187.216	28.16
187.436	32.26
187.655	40.45
187.875	-29.18
188.095	42.5
188.314	44.54
188.534	32.26
188.753	38.4
188.973	-33.28
189.192	89.6
189.412	38.4
189.631	-0.51
189.851	-8.7
190.07	13.82
190.29	-20.99
190.509	-59.9
190.729	-107.01
190.948	54.78
191.168	112.13
191.387	9.73
191.607	15.87
191.826	56.83
192.045	22.02
192.265	60.93
192.484	15.87
192.704	-8.7
192.923	-33.28
193.142	30.21
193.362	3.58
193.581	13.82
193.8	-35.33
194.02	-49.66
194.239	28.16
194.458	-8.7
194.678	-20.99
194.897	-2.56
195.116	-4.61
195.335	30.21
195.555	50.69
195.774	71.17
195.993	26.11
196.212	-10.75
196.432	50.69
196.651	32.26
196.87	-113.15
197.089	32.26
197.308	26.11
197.528	46.59
197.747	-10.75
197.966	69.12
198.185	81.41
198.404	-6.66
198.623	11.78
198.842	-31.23
199.062	11.78
199.281	42.5
199.5	-18.94
199.719	5.63
199.938	56.83
200.157	13.82
200.376	46.59
200.595	38.4
200.814	-35.33
201.033	54.78
201.252	9.73
201.471	-10.75
201.69	9.73
201.909	1.54
202.128	-33.28
202.347	-25.09
202.566	-23.04
202.785	79.36
203.004	5.63
203.223	24.06
203.442	-18.94
203.661	5.63
203.879	19.97
204.098	5.63
204.317	-2.56
204.536	13.82
204.755	-23.04
204.974	50.69
205.193	-16.9
205.411	32.26
205.63	52.74
205.849	13.82
206.068	-37.38
206.287	46.59
206.505	-14.85
206.724	-25.09
206.943	1.54
207.162	17.92
207.381	58.88
207.599	-35.33
207.818	13.82
208.037	-27.14
208.255	-27.14
208.474	17.92
208.693	-2.56
208.911	17.92
209.13	65.02
209.349	36.35
209.567	-41.47
209.786	-33.28
210.005	81.41
210.223	-25.09
210.442	7.68
210.661	22.02
210.879	69.12
211.098	-23.04
211.316	-2.56
211.535	40.45
211.753	40.45
211.972	-6.66
212.191	-14.85
212.409	5.63
212.628	34.3
212.846	26.11
213.065	5.63
213.283	15.87
213.502	5.63
213.72	32.26
213.938	52.74
214.157	48.64
214.375	22.02
214.594	-25.09
214.812	50.69
215.031	30.21
215.249	-0.51
215.467	79.36
215.686	46.59
215.904	1.54
216.122	9.73
216.341	48.64
216.559	38.4
216.778	83.45
216.996	48.64
217.214	-14.85
217.432	3.58
217.651	5.63
217.869	-37.38
218.087	34.3
218.306	26.11
218.524	7.68
218.742	-25.09
218.96	-35.33
219.179	17.92
219.397	-23.04
219.615	28.16
219.833	15.87
220.051	40.45
220.27	87.55
220.488	151.04
220.706	46.59
220.924	-8.7
221.142	-41.47
221.36	101.89
221.578	-27.14
221.796	34.3
222.015	95.74
222.233	-10.75
222.451	34.3
222.669	-16.9
222.887	13.82
223.105	1.54
223.323	-6.66
223.541	-10.75
223.759	38.4
223.977	1.54
224.195	56.83
224.413	-0.51
224.631	-12.8
224.849	28.16
225.067	19.97
225.285	26.11
225.503	48.64
225.721	19.97
225.939	13.82
226.157	32.26
226.375	67.07
226.592	62.98
226.81	28.16
227.028	-12.8
227.246	9.73
227.464	17.92
227.682	67.07
227.9	17.92
228.117	32.26
228.335	36.35
228.553	9.73
228.771	48.64
228.989	-18.94
229.206	5.63
229.424	-25.09
229.642	34.3
229.86	-18.94
230.077	38.4
230.295	-14.85
230.513	50.69
230.731	-10.75
230.948	34.3
231.166	28.16
231.384	-23.04
231.601	99.84
231.819	-20.99
232.037	17.92
232.254	34.3
232.472	54.78
232.689	-27.14
232.907	7.68
233.125	56.83
233.342	13.82
233.56	22.02
233.777	9.73
233.995	15.87
234.213	-27.14
234.43	50.69
234.648	75.26
234.865	3.58
235.083	81.41
235.3	-0.51
235.518	-2.56
235.735	-16.9
235.953	46.59
236.17	15.87
236.388	-20.99
236.605	-8.7
236.822	38.4
237.04	-20.99
237.257	9.73
237.475	54.78
237.692	62.98
237.909	42.5
238.127	52.74
238.344	77.31
238.562	58.88
238.779	-78.33
238.996	81.41
239.214	7.68
239.431	19.97
239.648	-80.38
239.865	22.02
240.083	15.87
240.3	79.36
240.517	26.11
240.735	-2.56
240.952	-4.61
241.169	50.69
241.386	24.06
241.603	58.88
241.821	-37.38
242.038	15.87
242.255	28.16
242.472	48.64
242.689	44.54
242.907	54.78
243.124	38.4
243.341	-12.8
243.558	-18.94
243.775	19.97
243.992	5.63
244.209	58.88
244.426	-8.7
244.643	32.26
244.86	116.22
245.078	40.45
245.295	-8.7
245.512	30.21
245.729	40.45
245.946	46.59
246.163	34.3
246.38	65.02
246.597	38.4
246.814	-20.99
247.031	42.5
247.248	11.78
247.464	-53.76
247.681	-4.61
247.898	67.07
248.115	34.3
248.332	5.63
248.549	-41.47
248.766	40.45
248.983	-10.75
249.2	103.93
249.417	-2.56
249.633	-6.66
249.85	42.5
250.067	-8.7
250.284	15.87
250.501	71.17
250.717	3.58
250.934	-64
251.151	15.87
251.368	-39.42
251.585	36.35
251.801	38.4
252.018	36.35
252.235	77.31
252.451	-23.04
252.668	5.63
252.885	-25.09
253.102	32.26
253.318	44.54
253.535	11.78
253.752	15.87
253.968	22.02
254.185	71.17
254.401	28.16
254.618	95.74
254.835	-0.51
255.051	40.45
255.268	36.35
255.484	34.3
255.701	60.93
255.917	30.21
256.134	81.41
256.351	-8.7
256.567	32.26
256.784	-6.66
257	62.98
257.217	22.02
257.433	26.11
257.65	-18.94
257.866	24.06
258.082	-51.71
258.299	-10.75
258.515	32.26
258.732	24.06
258.948	-4.61
259.165	-18.94
259.381	15.87
259.597	-4.61
259.814	60.93
260.03	69.12
260.246	89.6
260.463	1.54
260.679	9.73
260.895	-16.9
261.112	75.26
261.328	9.73
261.544	7.68
261.761	34.3
261.977	9.73
262.193	52.74
262.409	73.21
262.626	34.3
262.842	9.73
263.058	-31.23
263.274	-6.66
263.49	7.68
263.707	65.02
263.923	-55.81
264.139	40.45
264.355	38.4
264.571	87.55
264.787	22.02
265.004	38.4
265.22	5.63
265.436	15.87
265.652	1.54
265.868	-41.47
266.084	19.97
266.3	5.63
266.516	40.45
266.732	-43.52
266.948	22.02
267.164	-10.75
267.38	-6.66
267.596	19.97
267.812	77.31
268.028	52.74
268.244	26.11
268.46	42.5
268.676	50.69
268.892	5.63
269.108	-64
269.324	-35.33
269.54	22.02
269.756	58.88
269.972	-18.94
270.188	19.97
270.403	15.87
270.619	81.41
270.835	19.97
271.051	75.26
271.267	-8.7
271.483	36.35
271.698	13.82
271.914	34.3
272.13	26.11
272.346	-12.8
272.562	65.02
272.777	99.84
272.993	-57.86
273.209	30.21
273.425	-49.66
273.64	22.02
273.856	-0.51
274.072	71.17
274.287	5.63
274.503	42.5
274.719	7.68
274.934	120.32
275.15	-33.28
275.366	15.87
275.581	22.02
275.797	-10.75
276.012	-16.9
276.228	32.26
276.444	13.82
276.659	48.64
276.875	-0.51
277.09	9.73
277.306	13.82
277.521	95.74
277.737	52.74
277.952	89.6
278.168	19.97
278.383	42.5
278.599	-39.42
278.814	97.79
279.03	46.59
279.245	73.21
279.461	42.5
279.676	58.88
279.892	1.54
280.107	11.78
280.322	-47.62
280.538	1.54
280.753	81.41
280.969	22.02
281.184	30.21
281.399	26.11
281.615	-16.9
281.83	-25.09
282.045	17.92
282.26	65.02
282.476	81.41
282.691	81.41
282.906	9.73
283.122	-6.66
283.337	24.06
283.552	48.64
283.767	-10.75
283.983	19.97
284.198	30.21
284.413	42.5
284.628	32.26
284.843	79.36
285.058	40.45
285.274	-6.66
285.489	60.93
285.704	65.02
285.919	-43.52
286.134	5.63
286.349	-49.66
286.564	75.26
286.779	-18.94
286.995	-8.7
287.21	-4.61
287.425	58.88
287.64	30.21
287.855	56.83
288.07	9.73
288.285	79.36
288.5	34.3
288.715	50.69
288.93	11.78
289.145	-33.28
289.36	79.36
289.575	38.4
289.79	-55.81
290.004	42.5
290.219	44.54
290.434	46.59
290.649	22.02
290.864	-35.33
291.079	79.36
291.294	85.5
291.509	5.63
291.724	67.07
291.938	-27.14
292.153	56.83
292.368	34.3
292.583	17.92
292.798	36.35
293.012	7.68
293.227	-70.14
293.442	26.11
293.657	-39.42
293.871	81.41
294.086	17.92
294.301	5.63
294.516	67.07
294.73	60.93
294.945	9.73
295.16	38.4
295.374	-18.94
295.589	42.5
295.804	40.45
296.018	38.4
296.233	13.82
296.447	69.12
296.662	24.06
296.877	67.07
297.091	-25.09
297.306	-37.38
297.52	38.4
297.735	50.69
297.949	38.4
298.164	34.3
298.378	40.45
298.593	-82.43
298.807	3.58
299.022	9.73
299.236	-43.52
299.451	-16.9
299.665	-2.56
299.88	-45.57
300.094	9.73
300.309	-12.8
300.523	1.54
300.737	81.41
300.952	-8.7
301.166	-18.94
301.381	-6.66
301.595	30.21
301.809	-2.56
302.024	-0.51
302.238	-6.66
302.452	38.4
302.667	73.21
302.881	95.74
303.095	28.16
303.309	40.45
303.524	36.35
303.738	44.54
303.952	-35.33
304.166	24.06
304.381	-57.86
304.595	65.02
304.809	-70.14
305.023	87.55
305.237	9.73
305.452	34.3
305.666	65.02
305.88	-18.94
306.094	30.21
306.308	69.12
306.522	48.64
306.736	-16.9
306.95	-20.99
307.164	26.11
307.379	58.88
307.593	1.54
307.807	99.84
308.021	42.5
308.235	48.64
308.449	85.5
308.663	-0.51
308.877	48.64
309.091	44.54
309.305	38.4
309.519	30.21
309.733	81.41
309.947	36.35
310.161	71.17
310.374	24.06
310.588	62.98
310.802	-14.85
311.016	-6.66
311.23	71.17
311.444	-29.18
311.658	69.12
311.872	93.69
312.085	-2.56
312.299	46.59
312.513	50.69
312.727	81.41
312.941	32.26
313.154	24.06
313.368	46.59
313.582	38.4
313.796	17.92
314.009	-6.66
314.223	79.36
314.437	65.02
314.651	30.21
314.864	32.26
315.078	58.88
315.292	62.98
315.505	17.92
315.719	38.4
315.933	71.17
316.146	65.02
316.36	-18.94
316.573	-27.14
316.787	40.45
317.001	50.69
317.214	38.4
317.428	1.54
317.641	69.12
317.855	48.64
318.068	38.4
318.282	42.5
318.495	13.82
318.709	50.69
318.922	58.88
319.136	36.35
319.349	32.26
319.563	36.35
319.776	58.88
319.99	-35.33
320.203	26.11
320.417	56.83
320.63	3.58
320.843	52.74
321.057	-18.94
321.27	-6.66
321.483	17.92
321.697	-14.85
321.91	-4.61
322.124	42.5
322.337	48.64
322.55	85.5
322.763	15.87
322.977	77.31
323.19	5.63
323.403	-16.9
323.617	-47.62
323.83	62.98
324.043	7.68
324.256	50.69
324.469	-8.7
324.683	85.5
324.896	83.45
325.109	-8.7
325.322	3.58
325.535	58.88
325.748	62.98
325.962	19.97
326.175	17.92
326.388	26.11
326.601	87.55
326.814	54.78
327.027	36.35
327.24	44.54
327.453	44.54
327.666	28.16
327.879	13.82
328.092	118.27
328.305	56.83
328.518	-43.52
328.731	15.87
328.944	7.68
329.157	38.4
329.37	67.07
329.583	9.73
329.796	75.26
330.009	24.06
330.222	103.93
330.435	46.59
330.648	79.36
330.861	30.21
331.073	40.45
331.286	5.63
331.499	46.59
331.712	9.73
331.925	36.35
332.138	56.83
332.35	7.68
332.563	1.54
332.776	40.45
332.989	32.26
333.202	71.17
333.414	30.21
333.627	38.4
333.84	-31.23
334.053	122.37
334.265	-2.56
334.478	-10.75
334.691	44.54
334.903	13.82
335.116	-12.8
335.329	-0.51
335.541	38.4
335.754	62.98
335.966	-18.94
336.179	32.26
336.392	42.5
336.604	13.82
336.817	46.59
337.029	54.78
337.242	58.88
337.454	46.59
337.667	52.74
337.88	30.21
338.092	22.02
338.305	-8.7
338.517	58.88
338.729	17.92
338.942	42.5
339.154	54.78
339.367	81.41
339.579	71.17
339.792	11.78
340.004	13.82
340.217	24.06
340.429	116.22
340.641	34.3
340.854	71.17
341.066	54.78
341.278	87.55
341.491	26.11
341.703	15.87
341.915	108.03
342.128	69.12
342.34	19.97
342.552	-2.56
342.764	-8.7
342.977	32.26
343.189	38.4
343.401	93.69
343.613	11.78
343.826	56.83
344.038	81.41
344.25	-23.04
344.462	50.69
344.674	-0.51
344.886	116.22
345.099	60.93
345.311	-16.9
345.523	26.11
345.735	28.16
345.947	-31.23
346.159	58.88
346.371	32.26
346.583	67.07
346.795	75.26
347.007	-41.47
347.219	75.26
347.431	26.11
347.643	22.02
347.855	42.5
348.067	81.41
348.279	22.02
348.491	60.93
348.703	13.82
348.915	34.3
349.127	83.45
349.339	5.63
349.551	-14.85
349.763	114.17
349.975	22.02
350.187	24.06
350.399	-2.56
350.61	5.63
350.822	48.64
351.034	50.69
351.246	38.4
351.458	38.4
351.669	46.59
351.881	112.13
352.093	-8.7
352.305	38.4
352.517	50.69
352.728	22.02
352.94	-25.09
353.152	32.26
353.363	28.16
353.575	62.98
353.787	-6.66
353.999	1.54
354.21	-10.75
354.422	15.87
354.633	62.98
354.845	-43.52
355.057	99.84
355.268	71.17
355.48	30.21
355.692	9.73
355.903	-0.51
356.115	40.45
356.326	36.35
356.538	54.78
356.749	73.21
356.961	13.82
357.172	1.54
357.384	79.36
357.595	-16.9
357.807	5.63
358.018	73.21
358.23	13.82
358.441	65.02
358.653	24.06
358.864	24.06
359.075	48.64
359.287	34.3
359.498	81.41
359.709	9.73
359.921	108.03
360.132	40.45
360.344	5.63
360.555	48.64
360.766	-35.33
360.977	26.11
361.189	79.36
361.4	-4.61
361.611	60.93
361.823	28.16
362.034	-35.33
362.245	32.26
362.456	-10.75
362.667	95.74
362.879	71.17
363.09	44.54
363.301	130.56
363.512	46.59
363.723	24.06
363.935	11.78
364.146	48.64
364.357	-10.75
364.568	112.13
364.779	-33.28
364.99	44.54
365.201	19.97
365.412	54.78
365.623	26.11
365.834	120.32
366.045	62.98
366.256	44.54
366.467	-10.75
366.678	26.11
366.889	48.64
367.1	32.26
367.311	69.12
367.522	73.21
367.733	26.11
367.944	69.12
368.155	48.64
368.366	-10.75
368.577	17.92
368.788	13.82
368.999	56.83
369.209	38.4
369.42	95.74
369.631	52.74
369.842	56.83
370.053	58.88
370.264	60.93
370.474	1.54
370.685	-23.04
370.896	13.82
371.107	42.5
371.317	79.36
371.528	56.83
371.739	3.58
371.95	7.68
372.16	65.02
372.371	-16.9
372.582	65.02
372.792	56.83
373.003	38.4
373.214	65.02
373.424	46.59
373.635	60.93
373.846	46.59
374.056	50.69
374.267	95.74
374.477	157.18
374.688	30.21
374.898	73.21
375.109	112.13
375.319	122.37
375.53	-0.51
375.74	67.07
375.951	42.5
376.161	93.69
376.372	120.32
376.582	-16.9
376.793	-10.75
377.003	56.83
377.214	24.06
377.424	-8.7
377.635	30.21
377.845	38.4
378.055	97.79
378.266	-0.51
378.476	38.4
378.686	15.87
378.897	48.64
379.107	9.73
379.317	44.54
379.528	-12.8
379.738	114.17
379.948	15.87
380.158	46.59
380.369	103.93
380.579	75.26
380.789	-16.9
380.999	48.64
381.21	71.17
381.42	95.74
381.63	28.16
381.84	128.51
382.05	62.98
382.261	81.41
382.471	54.78
382.681	81.41
382.891	26.11
383.101	42.5
383.311	44.54
383.521	22.02
383.731	26.11
383.941	1.54
384.151	56.83
384.361	58.88
384.571	50.69
384.781	103.93
384.991	-10.75
385.201	-49.66
385.411	-6.66
385.621	75.26
385.831	77.31
386.041	58.88
386.251	75.26
386.461	-0.51
386.671	9.73
386.881	9.73
387.091	-16.9
387.301	85.5
387.511	32.26
387.72	26.11
387.93	79.36
388.14	85.5
388.35	83.45
388.56	108.03
388.769	-8.7
388.979	103.93
389.189	32.26
389.399	71.17
389.609	44.54
389.818	22.02
390.028	26.11
390.238	-4.61
390.447	22.02
390.657	32.26
390.867	44.54
391.076	22.02
391.286	42.5
391.496	67.07
391.705	67.07
391.915	91.65
392.125	83.45
392.334	42.5
392.544	46.59
392.753	173.57
392.963	46.59
393.172	83.45
393.382	30.21
393.591	85.5
393.801	69.12
394.01	24.06
394.22	54.78
394.429	138.75
394.639	38.4
394.848	118.27
395.058	19.97
395.267	116.22
395.477	103.93
395.686	30.21
395.895	73.21
396.105	54.78
396.314	-10.75
396.524	46.59
396.733	83.45
396.942	120.32
397.152	65.02
397.361	46.59
397.57	54.78
397.78	30.21
397.989	167.42
398.198	118.27
398.407	62.98
398.617	120.32
398.826	75.26
399.035	108.03
399.244	126.46
399.453	124.41
399.663	124.41
399.872	40.45
400.081	65.02
400.29	87.55
400.499	87.55
400.708	146.94
400.917	93.69
401.127	105.98
401.336	128.51
401.545	120.32
401.754	91.65
401.963	91.65
402.172	99.84
402.381	56.83
402.59	114.17
402.799	95.74
403.008	148.99
403.217	65.02
403.426	52.74
403.635	120.32
403.844	138.75
404.053	136.7
404.262	46.59
404.471	177.66
404.68	79.36
404.888	185.85
405.097	91.65
405.306	116.22
405.515	146.94
405.724	185.85
405.933	116.22
406.142	116.22
406.35	134.65
406.559	103.93
406.768	85.5
406.977	202.24
407.185	247.29
407.394	171.52
407.603	235
407.812	220.67
408.02	159.23
408.229	224.76
408.438	189.95
408.646	177.66
408.855	220.67
409.064	212.48
409.272	239.1
409.481	228.86
409.69	327.16
409.898	243.2
410.107	239.1
410.315	323.07
410.524	259.58
410.733	325.12
410.941	339.45
411.15	294.4
411.358	347.64
411.567	294.4
411.775	337.4
411.984	372.22
412.192	380.41
412.401	341.5
412.609	366.07
412.818	447.99
413.026	425.47
413.234	388.6
413.443	366.07
413.651	482.81
413.86	480.76
414.068	495.1
414.276	587.26
414.485	521.72
414.693	554.49
414.901	566.78
415.11	531.96
415.318	566.78
415.526	679.41
415.734	671.22
415.943	636.41
416.151	710.13
416.359	726.52
416.567	734.71
416.776	765.43
416.984	744.95
417.192	826.87
417.4	853.49
417.608	933.36
417.817	849.4
418.025	978.42
418.233	964.08
418.441	943.6
418.649	970.23
418.857	1103.34
419.065	1183.21
419.273	1203.69
419.481	1162.73
419.689	1121.77
419.897	1302
420.105	1328.62
420.313	1345
420.521	1283.56
420.729	1463.79
420.937	1496.55
421.145	1553.9
421.353	1541.61
421.561	1560.04
421.769	1734.12
421.977	1725.93
422.185	1713.64
422.393	1914.34
422.601	1926.63
422.809	2029.03
423.017	1893.86
423.224	2145.76
423.432	2145.76
423.64	2131.42
423.848	2217.44
424.056	2186.72
424.263	2399.71
424.471	2436.57
424.679	2479.58
424.887	2477.53
425.094	2711
425.302	2631.13
425.51	2713.05
425.718	2823.64
425.925	2860.5
426.133	2993.62
426.341	3079.63
426.548	3392.97
426.756	3323.34
426.964	3380.68
427.171	3601.87
427.379	3659.21
427.586	3728.84
427.794	3761.61
428.001	4021.7
428.209	4128.19
428.417	4152.77
428.624	4302.27
428.832	4339.13
429.039	4468.16
429.247	4353.47
429.454	4881.85
429.662	5125.55
429.869	4818.36
430.076	5158.32
430.284	4924.85
430.491	5199.28
430.699	5465.52
430.906	5477.8
431.114	5520.81
431.321	5701.03
431.528	5942.69
431.736	6272.42
431.943	6366.62
432.15	6245.79
432.358	6401.44
432.565	6821.27
432.772	6770.07
432.979	7112.08
433.187	7228.82
433.394	7028.12
433.601	7771.53
433.808	7576.97
434.016	7574.92
434.223	8217.99
434.43	8213.89
434.637	8334.72
434.844	8848.76
435.052	9065.85
435.259	9024.89
435.466	9121.14
435.673	8955.26
435.88	9569.65
436.087	9887.08
436.294	10030.44
436.501	9839.98
436.708	10032.49
436.915	10259.81
437.122	10751.32
437.329	10884.44
437.537	11431.25
437.743	11404.63
437.95	11128.15
438.157	11717.97
438.364	12131.65
438.571	12098.89
438.778	12266.82
438.985	13114.68
439.192	12776.77
439.399	13274.42
439.606	12653.89
439.813	13784.37
440.02	14337.32
440.227	14089.51
440.433	14083.37
440.64	14556.45
440.847	14531.87
441.054	14703.9
441.261	15631.63
441.467	15570.19
441.674	16086.28
441.881	16276.74
442.088	16254.22
442.294	16256.26
442.501	16622.85
442.708	17038.59
442.914	17675.51
443.121	18498.79
443.328	17913.07
443.534	19127.52
443.741	18429.16
443.948	18300.14
444.154	19817.68
444.361	19467.48
444.568	19623.12
444.774	19680.47
444.981	19846.35
445.187	20274.38
445.394	21683.38
445.6	21302.46
445.807	23213.21
446.013	22256.81
446.22	22660.26
446.426	23647.38
446.633	23901.33
446.839	24515.72
447.046	23551.13
447.252	24845.44
447.459	24855.68
447.665	24704.14
447.871	25681.02
448.078	27184.23
448.284	25678.97
448.491	26408.05
448.697	27589.72
448.903	27612.25
449.11	28071
449.316	27417.69
449.522	27960.41
449.728	28730.44
449.935	29160.52
450.141	29191.23
450.347	29668.41
450.553	28691.53
450.76	28771.4
450.966	29951.03
451.172	29506.62
451.378	30444.59
451.584	29701.18
451.791	30409.78
451.997	30626.86
452.203	30454.83
452.409	30932.01
452.615	30450.74
452.821	29410.37
453.027	29103.17
453.233	30757.93
453.44	29488.19
453.646	29862.97
453.852	29654.08
454.058	30508.08
454.264	29334.59
454.47	30090.29
454.676	29451.33
454.882	30198.84
455.088	27475.04
455.294	28249.17
455.5	28556.36
455.705	28982.34
455.911	27638.87
456.117	27300.96
456.323	26627.18
456.529	25281.66
456.735	26840.17
456.941	25087.11
457.147	25496.7
457.352	24302.73
457.558	24149.14
457.764	24419.47
457.97	23913.62
458.176	23512.22
458.381	23352.48
458.587	22371.5
458.793	22283.44
458.999	21028.03
459.204	22797.48
459.41	22275.24
459.616	20413.64
459.821	20436.17
460.027	20688.07
460.233	20139.21
460.438	19023.07
460.644	19449.05
460.85	18451.69
461.055	17898.73
461.261	18124.01
461.466	16887.04
461.672	16280.84
461.878	17573.11
462.083	16209.16
462.289	15934.73
462.494	15930.64
462.7	15551.76
462.905	14785.82
463.111	15516.95
463.316	15439.12
463.522	14902.56
463.727	15273.24
463.932	15121.69
464.138	14832.93
464.343	14939.42
464.549	14548.26
464.754	14976.28
464.959	14898.46
465.165	14751.01
465.37	14185.77
465.575	13890.86
465.781	14409
465.986	14705.95
466.191	13935.92
466.397	13737.26
466.602	13004.09
466.807	13585.71
467.012	13751.6
467.218	13423.92
467.423	13366.58
467.628	13458.74
467.833	13999.4
468.038	13516.08
468.244	13059.38
468.449	13667.63
468.654	13096.25
468.859	12987.71
469.064	12707.13
469.269	12475.71
469.474	12475.71
469.679	12868.92
469.885	12526.91
470.09	12631.36
470.295	12526.91
470.5	12227.91
470.705	12391.75
470.91	11851.08
471.115	11951.43
471.32	12492.1
471.525	11973.96
471.73	11728.21
471.935	11597.14
472.139	11175.25
472.344	11543.89
472.549	11443.54
472.754	11074.9
472.959	11144.53
473.164	10816.86
473.369	10497.38
473.574	10943.83
473.778	10816.86
473.983	10780
474.188	10974.55
474.393	10370.4
474.598	10335.59
474.802	10134.89
475.007	10253.67
475.212	10091.88
475.417	9780.59
475.621	9747.82
475.826	9985.38
476.031	9735.53
476.235	9336.18
476.44	9510.25
476.645	9434.48
476.849	9606.51
477.054	9411.95
477.259	9219.44
477.463	9342.32
477.668	8942.97
477.872	9041.27
478.077	8949.11
478.282	8693.12
478.486	8646.01
478.691	8643.96
478.895	8607.1
479.1	8502.65
479.304	8543.61
479.509	8363.39
479.713	8385.92
479.918	8256.9
480.122	8091.01
480.326	8340.86
480.531	8226.18
480.735	8070.53
480.94	7974.28
481.144	8490.37
481.348	7896.46
481.553	8209.79
481.757	8068.48
481.961	8181.12
482.166	8086.92
482.37	7970.18
482.574	7927.18
482.778	8101.25
482.983	8093.06
483.187	8050.05
483.391	8072.58
483.595	7982.47
483.8	7734.67
484.004	7855.5
484.208	7894.41
484.412	7927.18
484.616	7935.37
484.821	8115.59
485.025	7894.41
485.229	7972.23
485.433	7953.8
485.637	7951.75
485.841	7925.13
486.045	7964.04
486.249	8076.68
486.453	7910.79
486.657	7953.8
486.861	8002.95
487.065	7798.15
487.269	7839.11
487.473	7957.89
487.677	8082.82
487.881	8127.88
488.085	7964.04
488.289	7857.54
488.493	8101.25
488.697	7984.52
488.901	7888.26
489.105	7968.13
489.309	8029.57
489.512	8142.21
489.716	8019.33
489.92	8045.96
490.124	8060.29
490.328	8357.25
490.531	8054.15
490.735	8086.92
490.939	8232.32
491.143	8056.2
491.346	8140.16
491.55	8246.66
491.754	8334.72
491.958	8467.84
492.161	8328.58
492.365	8633.72
492.569	8430.98
492.772	8398.21
492.976	8689.02
493.18	8754.55
493.383	8717.69
493.587	8742.27
493.79	8879.48
493.994	8762.75
494.197	8906.1
494.401	8955.26
494.605	8988.02
494.808	9229.68
495.012	8985.97
495.215	9104.76
495.419	9211.25
495.622	9184.63
495.825	9252.21
496.029	9583.98
496.232	9680.24
496.436	9538.93
496.639	9917.8
496.843	9713
497.046	10206.56
497.249	9921.9
497.453	10065.25
497.656	10261.86
497.859	10390.88
498.063	10628.45
498.266	10579.29
498.469	10487.14
498.673	10757.47
498.876	10900.83
499.079	10962.26
499.282	11074.9
499.485	11177.3
499.689	11214.16
499.892	11369.81
500.095	11531.6
500.298	11857.23
500.501	11713.87
500.705	12324.16
500.908	12307.78
501.111	12260.68
501.314	12490.05
501.517	12844.35
501.72	12696.89
501.923	12866.88
502.126	13313.33
502.329	13385.01
502.532	13448.5
502.735	13339.96
502.938	13641.01
503.141	13745.45
503.344	14079.27
503.547	14077.23
503.75	14404.9
503.953	14724.38
504.156	14630.18
504.359	14882.08
504.562	15045.91
504.765	15396.12
504.968	15473.94
505.17	15611.15
505.373	15883.53
505.576	15992.08
505.779	16051.47
505.982	16497.92
506.185	16641.28
506.387	16784.64
506.59	16782.59
506.793	17349.88
506.996	17276.15
507.198	17970.41
507.401	17802.48
507.604	17941.74
507.807	18300.14
508.009	18562.28
508.212	18650.34
508.415	19025.12
508.617	19021.02
508.82	19543.25
509.022	19160.28
509.225	20184.27
509.428	19784.91
509.63	20069.58
509.833	20243.66
510.035	20665.54
510.238	20788.42
510.44	20976.83
510.643	21206.2
510.845	21464.25
511.048	21406.91
511.25	22037.68
511.453	22156.46
511.655	23241.89
511.858	22402.22
512.06	23045.28
512.262	23207.07
512.465	23348.38
512.667	23698.58
512.87	24200.33
513.072	24157.33
513.274	24587.4
513.477	24798.34
513.679	25273.47
513.881	25359.49
514.084	25400.44
514.286	25703.54
514.488	26055.79
514.69	26780.78
514.893	26586.22
515.095	27243.62
515.297	27237.47
515.499	27452.51
515.701	27769.94
515.904	28331.09
516.106	28582.99
516.308	28798.02
516.51	29168.71
516.712	29103.17
516.914	29541.44
517.116	29930.55
517.318	30170.16
517.52	30329.91
517.722	30553.13
517.925	30972.97
518.127	31724.57
518.329	31642.65
518.531	31484.96
518.733	32427.03
518.935	32861.19
519.136	32756.75
519.338	33022.98
519.54	33342.47
519.742	33747.97
519.944	33981.43
520.146	34173.94
520.348	34706.41
520.55	34647.02
520.752	34962.41
520.954	35711.97
521.155	35439.59
521.357	35924.96
521.559	36768.72
521.761	37157.83
521.963	37016.52
522.164	36955.08
522.366	37641.15
522.568	38005.69
522.77	37985.21
522.971	38427.57
523.173	38273.98
523.375	38648.75
523.576	39222.19
523.778	38835.12
523.98	39369.64
524.181	39795.62
524.383	39685.03
524.584	40203.16
524.786	40336.28
524.988	40504.21
525.189	40715.15
525.391	40919.95
525.592	41175.95
525.794	41513.86
525.995	41659.27
526.197	41542.53
526.398	41868.16
526.6	41950.08
526.801	42120.06
527.003	42537.85
527.204	42445.69
527.406	42996.59
527.607	43182.96
527.808	43031.41
528.01	42834.8
528.211	42961.78
528.412	43692.9
528.614	43504.49
528.815	43707.24
529.016	43959.14
529.218	43770.72
529.419	44317.53
529.62	43754.34
529.822	44151.65
530.023	44458.84
530.224	44403.55
530.425	44368.73
530.626	44360.54
530.828	44571.48
531.029	44874.58
531.23	44524.38
531.431	45138.77
531.632	44690.26
531.833	44804.95
532.035	44872.53
532.236	45312.84
532.437	45511.5
532.638	44991.31
532.839	45466.44
533.04	45564.74
533.241	45036.37
533.442	45769.54
533.643	45456.2
533.844	45437.77
534.045	45491.02
534.246	45169.49
534.447	45822.79
534.648	45847.36
534.849	45681.48
535.05	45568.84
535.251	45773.64
535.451	45767.49
535.652	45953.86
535.853	46025.54
536.054	45579.08
536.255	46136.13
536.456	45880.13
536.657	46207.81
536.857	45478.73
537.058	45736.77
537.259	46164.8
537.46	45873.99
537.66	45654.86
537.861	45796.17
538.062	45775.69
538.263	45523.79
538.463	45503.31
538.664	45781.83
538.865	45751.11
539.065	46097.22
539.266	45796.17
539.466	46312.25
539.667	45747.01
539.868	46140.22
540.068	46138.18
540.269	45876.04
540.469	46242.62
540.67	45716.29
540.87	45652.81
541.071	45790.02
541.271	45873.99
541.472	46248.77
541.672	45603.66
541.873	45667.14
542.073	45390.67
542.274	46336.83
542.474	45810.5
542.675	45441.87
542.875	45974.34
543.075	45968.19
543.276	45671.24
543.476	46158.66
543.676	45548.36
543.877	46033.73
544.077	46248.77
544.277	45984.58
544.478	45853.51
544.678	46281.53
544.878	45714.25
545.078	45638.47
545.279	45605.7
545.479	45781.83
545.679	46203.71
545.879	46285.63
546.079	46177.09
546.28	45585.22
546.48	45503.31
546.68	45908.8
546.88	45824.84
547.08	45859.65
547.28	45515.59
547.48	45161.29
547.68	46011.2
547.88	45736.77
548.081	45919.04
548.281	46089.02
548.481	45536.07
548.681	46080.83
548.881	46113.6
549.081	45767.49
549.28	45626.18
549.48	45706.05
549.68	45560.65
549.88	46033.73
550.08	45458.25
550.28	45677.38
550.48	45685.57
550.68	46306.11
550.88	45241.17
551.08	45636.42
551.279	45658.95
551.479	45210.45
551.679	45601.61
551.879	45036.37
552.079	45585.22
552.278	45169.49
552.478	45613.9
552.678	45585.22
552.878	45720.39
553.077	45521.74
553.277	45230.93
553.477	46091.07
553.676	45286.22
553.876	45402.96
554.076	45046.61
554.275	45407.05
554.475	45028.18
554.674	45312.84
554.874	45187.92
555.074	45253.45
555.273	44759.89
555.473	45548.36
555.672	45216.59
555.872	44782.42
556.071	44981.07
556.271	45251.41
556.47	44972.88
556.67	44452.7
556.869	44305.24
557.068	45261.65
557.268	44487.51
557.467	44704.6
557.667	44528.47
557.866	44647.25
558.065	44479.32
558.265	44409.69
558.464	44522.33
558.663	45022.03
558.863	44010.34
559.062	44813.14
559.261	44114.78
559.461	44858.2
559.66	44129.12
559.859	44415.83
560.058	43842.4
560.258	44125.02
560.457	43680.61
560.656	43889.51
560.855	43592.55
561.054	44049.25
561.253	43492.2
561.453	43639.65
561.652	43635.56
561.851	43930.47
562.05	43680.61
562.249	43623.27
562.448	43901.79
562.647	43746.15
562.846	43400.04
563.045	43123.57
563.244	43137.9
563.443	43742.05
563.642	42951.54
563.841	43152.24
564.04	42797.94
564.239	43570.02
564.438	42623.86
564.637	43332.46
564.836	42947.44
565.035	42566.52
565.234	43512.68
565.432	42353.53
565.631	42558.33
565.83	42707.83
566.029	42689.4
566.228	42236.8
566.427	42732.4
566.625	41986.94
566.824	41694.08
567.023	42507.13
567.222	41325.45
567.42	42036.09
567.619	42052.48
567.818	41556.87
568.016	41780.1
568.215	41991.04
568.414	41755.52
568.612	41868.16
568.811	41548.68
569.01	41597.83
569.208	40899.47
569.407	41524.1
569.605	40743.83
569.804	41413.51
570.002	40901.52
570.201	41137.04
570.4	40950.67
570.598	40915.86
570.797	40420.25
570.995	40694.68
571.193	40080.28
571.392	40821.65
571.59	40285.08
571.789	39965.6
571.987	40072.09
572.186	39930.78
572.384	39938.97
572.582	40010.65
572.781	39656.35
572.979	39224.23
573.177	39314.34
573.376	39678.88
573.574	39373.74
573.772	39349.16
573.971	39267.24
574.169	38564.79
574.367	38767.54
574.565	38964.14
574.763	38695.86
574.962	38329.27
575.16	38048.7
575.358	38771.63
575.556	37958.59
575.754	38450.1
575.952	37884.86
576.151	38382.52
576.349	37614.53
576.547	37792.7
576.745	37942.21
576.943	37587.91
577.141	37874.62
577.339	37618.63
577.537	37270.47
577.735	37249.99
577.933	37110.73
578.131	37022.67
578.329	37084.11
578.527	36471.76
578.725	36678.61
578.923	36783.05
579.121	36328.41
579.319	36697.04
579.516	36688.85
579.714	36709.33
579.912	35791.84
580.11	36060.12
580.308	36109.27
580.506	35697.63
580.704	35462.11
580.901	35435.49
581.099	35777.5
581.297	35410.92
581.495	35412.96
581.692	35556.32
581.89	35263.46
582.088	35249.13
582.285	34948.07
582.483	35042.28
582.681	35044.33
582.878	34991.08
583.076	34571.25
583.274	34782.19
583.471	34386.93
583.669	34687.98
583.866	34206.71
584.064	34511.86
584.262	33901.56
584.459	34124.79
584.657	33973.24
584.854	34188.28
585.052	33508.35
585.249	33860.6
585.447	33664
585.644	33287.17
585.841	33383.43
586.039	33778.68
586.236	33313.8
586.434	33051.66
586.631	33078.28
586.828	33106.95
587.026	33080.33
587.223	32650.25
587.42	32754.7
587.618	32709.64
587.815	32398.35
588.012	32017.43
588.21	32363.54
588.407	32955.4
588.604	32087.06
588.801	32230.42
588.999	32082.97
589.196	32031.77
589.393	31968.28
589.59	31642.65
589.787	31689.76
589.984	31388.71
590.182	31491.1
590.379	31751.2
590.576	30915.62
590.773	31325.22
590.97	30977.06
591.167	31493.15
591.364	30950.44
591.561	30897.19
591.758	30790.7
591.955	30725.16
592.152	30817.32
592.349	30483.5
592.546	30624.81
592.743	30487.6
592.94	30002.23
593.137	30053.43
593.334	30559.28
593.531	29723.71
593.727	30198.84
593.924	30108.72
594.121	29852.73
594.318	30104.63
594.515	29496.38
594.712	30164.02
594.908	29367.36
595.105	29525.05
595.302	29058.12
595.499	29389.89
595.696	28759.11
595.892	28947.53
596.089	29242.43
596.286	29074.5
596.482	28910.66
596.679	29023.3
596.876	28697.67
597.072	28664.91
597.269	28757.07
597.466	28499.02
597.662	28476.49
597.859	28556.36
598.055	28329.04
598.252	27896.92
598.448	28251.22
598.645	27819.1
598.841	27649.11
599.038	28025.94
599.234	28017.75
599.431	27657.31
599.627	27720.79
599.824	27604.06
600.02	27489.37
600.217	27671.64
600.413	27462.75
600.609	26963.04
600.806	26909.8
601.002	27036.77
601.198	26891.37
601.395	26719.34
601.591	26621.03
601.787	26432.62
601.984	26676.33
602.18	26997.86
602.376	26391.66
602.572	26723.43
602.769	26383.47
602.965	25973.88
603.161	26289.26
603.357	26004.6
603.553	25971.83
603.75	26086.51
603.946	25705.59
604.142	25965.68
604.338	25158.78
604.534	25736.31
604.73	25044.1
604.926	25506.94
605.122	25429.12
605.318	25220.22
605.514	25029.76
605.71	24765.57
605.906	24814.73
606.102	24910.98
606.298	24937.6
606.494	24669.32
606.69	24876.16
606.886	24743.05
607.082	24157.33
607.278	24632.46
607.474	24095.89
607.67	24603.78
607.866	23991.44
608.062	24374.41
608.257	24073.36
608.453	23921.81
608.649	24251.53
608.845	23639.19
609.041	24001.68
609.236	23907.48
609.432	23798.93
609.628	23485.59
609.824	23641.24
610.019	23614.62
610.215	23438.49
610.411	23747.73
610.606	23252.13
610.802	23227.55
610.998	23241.89
611.193	23159.97
611.389	22777
611.584	22987.94
611.78	22621.35
611.976	23018.66
612.171	22617.25
612.367	22703.27
612.562	22521
612.758	22275.24
612.953	22301.87
613.149	22588.58
613.344	22340.78
613.539	22766.76
613.735	22158.51
613.93	22215.85
614.126	22344.88
614.321	22668.45
614.517	22154.41
614.712	21943.47
614.907	21611.7
615.103	22258.86
615.298	21992.62
615.493	21824.69
615.688	21662.9
615.884	21753.01
616.079	21374.14
616.274	21613.75
616.47	21531.83
616.665	21636.28
616.86	21288.12
617.055	21195.96
617.25	21460.15
617.445	21212.35
617.641	20884.67
617.836	21284.03
618.031	20970.69
618.226	21052.61
618.421	20804.8
618.616	20878.53
618.811	20389.06
619.006	20724.93
619.201	20317.39
619.396	20446.41
619.591	20165.84
619.786	20305.1
619.981	20063.44
620.176	20100.3
620.371	20049.1
620.566	19887.31
620.761	19737.81
620.956	20079.82
621.151	19621.08
621.346	19887.31
621.541	19561.69
621.735	19432.66
621.93	19137.76
622.125	19459.29
622.32	19104.99
622.515	19342.55
622.709	18998.49
622.904	18857.18
623.099	18801.89
623.294	18853.09
623.488	18781.41
623.683	18576.61
623.878	18633.96
624.072	18138.35
624.267	18312.42
624.462	18224.36
624.656	17716.47
624.851	17906.93
625.046	17569.01
625.24	17870.06
625.435	17233.15
625.629	17425.65
625.824	17237.24
626.018	17331.45
626.213	16950.53
626.407	17251.58
626.602	17003.77
626.796	16889.09
626.991	16995.58
627.185	16854.27
627.38	16768.26
627.574	16299.27
627.768	16504.07
627.963	16573.7
628.157	16307.46
628.352	16403.72
628.546	16272.65
628.74	16286.98
628.935	16188.68
629.129	15891.73
629.323	15664.4
629.517	15910.16
629.712	15863.05
629.906	15611.15
630.1	15199.51
630.294	15674.64
630.489	15342.87
630.683	15351.06
630.877	15111.45
631.071	14955.8
631.265	15310.1
631.459	15002.91
631.653	14884.12
631.848	14783.77
632.042	14599.46
632.236	14859.55
632.43	14384.42
632.624	14550.31
632.818	14466.34
633.012	14378.28
633.206	14470.44
633.4	14468.39
633.594	14105.9
633.788	14200.1
633.982	14046.51
634.176	14374.18
634.369	13866.28
634.563	13765.93
634.757	13856.04
634.951	14026.03
635.145	13718.83
635.339	13628.72
635.533	13514.03
635.726	13696.3
635.92	13313.33
636.114	13385.01
636.308	13305.14
636.501	13100.34
636.695	13174.07
636.889	12764.48
637.083	13090.1
637.276	12997.95
637.47	12956.99
637.664	12762.43
637.857	12934.46
638.051	12629.31
638.244	12328.26
638.438	12621.12
638.632	12356.93
638.825	12129.61
639.019	12410.18
639.212	12203.33
639.406	12229.96
639.599	12234.05
639.793	12092.74
639.986	11937.1
640.18	11928.91
640.373	11822.41
640.567	11773.26
640.76	11760.97
640.954	11756.88
641.147	11556.18
641.34	11615.57
641.534	11615.57
641.727	11666.77
641.92	11457.87
642.114	11195.73
642.307	11320.66
642.5	11212.12
642.694	10816.86
642.887	11089.24
643.08	11105.62
643.273	10866.01
643.467	10823
643.66	10927.45
643.853	10937.69
644.046	10755.42
644.239	10794.33
644.432	10552.67
644.626	10499.42
644.819	10339.68
645.012	10610.01
645.205	10501.47
645.398	10337.63
645.591	9958.76
645.784	10102.12
645.977	9936.23
646.17	10036.58
646.363	9985.38
646.556	9862.51
646.749	9786.73
646.942	9827.69
647.135	9696.62
647.328	9624.94
647.521	9614.7
647.714	9483.63
647.907	9440.62
648.099	9352.56
648.292	9565.55
648.485	9377.14
648.678	9221.49
648.871	9160.05
649.064	9059.7
649.256	9098.61
649.449	9137.52
649.642	9135.48
649.835	8924.54
650.027	8981.88
650.22	8791.42
650.413	8824.19
650.605	8846.71
650.798	8713.6
650.991	8594.81
651.183	8775.03
651.376	8455.55
651.568	8607.1
651.761	8304
651.954	8418.69
652.146	8418.69
652.339	8287.62
652.531	8185.22
652.724	8066.44
652.916	8158.6
653.109	8084.87
653.301	8050.05
653.494	8076.68
653.686	7753.1
653.879	7902.6
654.071	7789.96
654.263	7890.31
654.456	7701.9
654.648	7900.55
654.84	7560.59
655.033	7703.95
655.225	7554.44
655.417	7370.13
655.61	7452.05
655.802	7681.42
655.994	7224.72
656.186	7288.21
656.379	7218.58
656.571	7284.11
656.763	7140.76
656.955	6987.16
657.148	7064.98
657.34	6993.3
657.532	7011.73
657.724	7024.02
657.916	7034.26
658.108	6933.91
658.3	6747.55
658.492	6811.03
658.684	6765.98
658.876	6649.24
659.068	6626.71
659.26	6477.21
659.452	6559.13
659.644	6555.04
659.836	6317.47
660.028	6493.6
660.22	6372.77
660.412	6393.25
660.604	6124.96
660.796	6153.63
660.988	6206.88
661.18	6176.16
661.372	6090.15
661.563	6028.71
661.755	5987.75
661.947	5930.41
662.139	5897.64
662.331	5911.97
662.522	5760.42
662.714	5807.53
662.906	5844.39
663.097	5889.45
663.289	5774.76
663.481	5797.29
663.673	5705.13
663.864	5588.39
664.056	5442.99
664.247	5598.63
664.439	5502.38
664.631	5567.92
664.822	5430.7
665.014	5483.95
665.205	5352.88
665.397	5457.32
665.588	5332.4
665.78	5170.61
665.971	5277.1
666.163	5205.42
666.354	5084.59
666.546	5125.55
666.737	5174.71
666.929	5105.07
667.12	5021.11
667.311	4867.51
667.503	5025.2
667.694	4996.53
667.885	5006.77
668.077	4980.15
668.268	4709.82
668.459	4902.33
668.651	4818.36
668.842	4853.17
669.033	4756.92
669.224	4750.78
669.416	4718.01
669.607	4709.82
669.798	4609.47
669.989	4822.45
670.18	4564.41
670.371	4597.18
670.563	4492.73
670.754	4640.19
670.945	4634.04
671.136	4576.7
671.327	4507.07
671.518	4376
671.709	4482.49
671.9	4519.36
672.091	4453.82
672.282	4382.14
672.473	4238.78
672.664	4388.29
672.855	4304.32
673.046	4277.69
673.237	4427.2
673.428	4259.26
673.619	4294.08
673.809	4203.97
674	4287.93
674.191	4167.1
674.382	4216.26
674.573	4279.74
674.764	4130.24
674.954	4156.86
675.145	4015.55
675.336	4165.06
675.527	4072.9
675.717	4079.04
675.908	3954.12
676.099	3974.6
676.289	4001.22
676.48	3929.54
676.671	3898.82
676.861	3937.73
677.052	3909.06
677.243	3825.09
677.433	3909.06
677.624	3814.85
677.814	3890.63
678.005	3919.3
678.195	3716.55
678.386	3909.06
678.576	3755.46
678.767	3765.7
678.957	3737.03
679.148	3679.69
679.338	3790.28
679.529	3798.47
679.719	3634.63
679.909	3790.28
680.1	3624.39
680.29	3675.59
680.481	3601.87
680.671	3665.35
680.861	3657.16
681.052	3644.87
681.242	3587.53
681.432	3605.96
681.622	3626.44
681.813	3597.77
682.003	3560.91
682.193	3476.94
682.383	3622.34
682.573	3552.71
682.764	3552.71
682.954	3565
683.144	3593.67
683.334	3507.66
683.524	3515.85
683.714	3368.4
683.904	3571.15
684.094	3630.54
684.284	3448.27
684.474	3341.77
684.664	3392.97
684.854	3405.26
685.044	3446.22
685.234	3268.05
685.424	3470.8
685.614	3390.92
685.804	3343.82
685.994	3362.25
686.184	3343.82
686.374	3286.48
686.564	3388.88
686.753	3356.11
686.943	3323.34
687.133	3405.26
687.323	3309.01
687.513	3237.33
687.702	3347.92
687.892	3306.96
688.082	3237.33
688.272	3263.95
688.461	3321.29
688.651	3268.05
688.841	3204.56
689.03	3212.75
689.22	3331.53
689.41	3249.61
689.599	3225.04
689.789	3331.53
689.979	3153.36
690.168	3222.99
690.358	3081.68
690.547	3126.74
690.737	3231.18
690.926	3159.5
691.116	3214.8
691.305	3184.08
691.495	3192.27
691.684	3018.19
691.874	3245.52
692.063	3249.61
692.252	3157.46
692.442	3122.64
692.631	3151.31
692.82	3046.87
693.01	3163.6
693.199	3093.97
693.388	3134.93
693.578	3198.42
693.767	3124.69
693.956	3177.94
694.146	2973.14
694.335	3050.96
694.524	3079.63
694.713	3112.4
694.902	3036.63
695.092	3190.22
695.281	3089.87
695.47	3071.44
695.659	3093.97
695.848	3003.86
696.037	3227.09
696.226	3077.59
696.415	3184.08
696.604	3104.21
696.793	3071.44
696.982	3093.97
697.171	3007.95
697.36	3036.63
697.549	3028.43
697.738	2921.94
697.927	3005.91
698.116	3106.26
698.305	3081.68
698.494	3065.3
698.683	3077.59
698.872	3014.1
699.061	2950.61
699.25	2975.19
699.438	2981.33
699.627	3069.39
699.816	3036.63
700.005	2995.67
700.193	2958.8
700.382	2979.28
700.571	2966.99
700.76	3016.15
700.948	3136.98
701.137	2885.08
701.326	2997.71
701.514	2938.32
701.703	2977.23
701.892	2995.67
702.08	2960.85
702.269	2909.65
702.457	2829.78
702.646	3026.39
702.834	2782.68
703.023	2919.89
703.212	2774.49
703.4	2825.68
703.589	2809.3
703.777	2778.58
703.965	2823.64
704.154	2823.64
704.342	2786.77
704.531	2713.05
704.719	2770.39
704.907	2807.25
705.096	2661.85
705.284	2858.45
705.472	2737.62
705.661	2725.33
705.849	2799.06
706.037	2837.97
706.226	2711
706.414	2717.14
706.602	2762.2
706.79	2674.14
706.979	2768.34
707.167	2602.46
707.355	2719.19
707.543	2573.78
707.731	2665.94
707.919	2600.41
708.107	2612.7
708.296	2526.68
708.484	2446.81
708.672	2606.55
708.86	2571.74
709.048	2639.32
709.236	2637.27
709.424	2549.21
709.612	2479.58
709.8	2504.15
709.988	2438.62
710.176	2596.31
710.364	2553.31
710.551	2592.22
710.739	2414.04
710.927	2348.51
711.115	2418.14
711.303	2483.67
711.491	2389.47
711.679	2432.47
711.866	2422.24
712.054	2387.42
712.242	2280.93
712.43	2473.43
712.617	2364.89
712.805	2364.89
712.993	2276.83
713.181	2340.32
713.368	2346.46
713.556	2346.46
713.744	2272.73
713.931	2242.01
714.119	2305.5
714.306	2330.08
714.494	2129.38
714.682	2334.17
714.869	2256.35
715.057	2360.8
715.244	2260.45
715.432	2299.36
715.619	2168.29
715.807	2182.62
715.994	2211.29
716.182	2178.53
716.369	2207.2
716.556	2121.18
716.744	2074.08
716.931	2158.05
717.119	2137.57
717.306	2178.53
717.493	1992.16
717.681	2108.9
717.868	2135.52
718.055	2047.46
718.242	2020.83
718.43	1998.31
718.617	2110.94
718.804	1959.39
718.991	2000.35
719.179	2012.64
719.366	2024.93
719.553	2055.65
719.74	2014.69
719.927	1994.21
720.114	1979.87
720.301	1871.33
720.488	2010.59
720.676	1988.07
720.863	1938.91
721.05	1967.59
721.237	1922.53
721.424	1818.08
721.611	1832.42
721.798	1900
721.985	1848.8
722.172	1828.32
722.358	1930.72
722.545	1902.05
722.732	1875.43
722.919	1879.52
723.106	1740.26
723.293	1801.7
723.48	1807.84
723.667	1805.8
723.853	1721.83
724.04	1760.74
724.227	1764.84
724.414	1703.4
724.6	1805.8
724.787	1875.43
724.974	1619.43
725.161	1674.73
725.347	1682.92
725.534	1801.7
725.72	1809.89
725.907	1562.09
726.094	1711.59
726.28	1660.39
726.467	1701.35
726.653	1609.19
726.84	1670.63
727.027	1629.67
727.213	1668.58
727.4	1656.29
727.586	1629.67
727.773	1615.34
727.959	1506.79
728.145	1605.1
728.332	1519.08
728.518	1588.71
728.705	1668.58
728.891	1572.33
729.077	1603.05
729.264	1547.75
729.45	1523.18
729.636	1562.09
729.823	1562.09
730.009	1480.17
730.195	1541.61
730.382	1506.79
730.568	1529.32
730.754	1570.28
730.94	1572.33
731.126	1392.11
731.313	1633.77
731.499	1390.06
731.685	1461.74
731.871	1469.93
732.057	1508.84
732.243	1420.78
732.429	1351.15
732.615	1488.36
732.801	1400.3
732.987	1445.35
733.173	1418.73
733.359	1420.78
733.545	1433.07
733.731	1451.5
733.917	1451.5
734.103	1390.06
734.289	1324.52
734.475	1373.68
734.661	1418.73
734.847	1514.98
735.033	1361.39
735.219	1320.43
735.404	1357.29
735.59	1304.04
735.776	1332.72
735.962	1269.23
736.148	1392.11
736.333	1349.1
736.519	1248.75
736.705	1320.43
736.89	1359.34
737.076	1230.32
737.262	1316.33
737.447	1252.84
737.633	1265.13
737.819	1199.6
738.004	1240.56
738.19	1258.99
738.375	1316.33
738.561	1242.61
738.747	1234.41
738.932	1224.17
739.118	1205.74
739.303	1185.26
739.489	1168.88
739.674	1111.54
739.859	1258.99
740.045	1172.97
740.23	1185.26
740.416	1105.39
740.601	1218.03
740.786	1170.93
740.972	1160.69
741.157	1091.06
741.342	1103.34
741.528	1211.89
741.713	1177.07
741.898	1150.45
742.084	1211.89
742.269	1127.92
742.454	1123.82
742.639	1140.21
742.824	1037.81
743.01	1078.77
743.195	1082.86
743.38	1195.5
743.565	1084.91
743.75	1144.3
743.935	1048.05
744.12	1035.76
744.305	1109.49
744.49	1084.91
744.675	1078.77
744.86	1025.52
745.045	974.32
745.23	1056.24
745.415	1060.34
745.6	1013.23
745.785	966.13
745.97	996.85
746.155	984.56
746.34	990.7
746.525	935.41
746.71	998.9
746.895	998.9
747.079	933.36
747.264	906.74
747.449	962.03
747.634	912.88
747.819	865.78
748.003	947.7
748.188	896.5
748.373	978.42
748.557	933.36
748.742	873.97
748.927	882.16
749.111	906.74
749.296	900.59
749.481	923.12
749.665	900.59
749.85	847.35
750.034	814.58
750.219	859.63
750.404	802.29
750.588	904.69
750.773	845.3
750.957	830.96
751.141	865.78
751.326	865.78
751.51	783.86
751.695	792.05
751.879	783.86
752.064	794.1
752.248	855.54
752.432	841.2
752.617	759.28
752.801	802.29
752.985	744.95
753.17	775.67
753.354	824.82
753.538	777.72
753.722	796.15
753.907	718.33
754.091	787.96
754.275	800.24
754.459	693.75
754.643	742.9
754.828	773.62
755.012	783.86
755.196	632.31
755.38	667.13
755.564	722.42
755.748	718.33
755.932	740.85
756.116	718.33
756.3	630.26
756.484	636.41
756.668	679.41
756.852	646.65
757.036	677.37
757.22	699.89
757.404	538.1
757.588	660.98
757.772	636.41
757.956	761.33
758.14	689.65
758.323	708.09
758.507	697.85
758.691	656.89
758.875	638.45
759.059	642.55
759.242	693.75
759.426	611.83
759.61	607.73
759.794	595.45
759.977	609.78
760.161	628.21
760.345	634.36
760.528	591.35
760.712	585.21
760.895	564.73
761.079	708.09
761.263	529.91
761.446	591.35
761.63	595.45
761.813	597.49
761.997	560.63
762.18	593.4
762.364	556.54
762.547	572.92
762.731	646.65
762.914	556.54
763.098	638.45
763.281	562.68
763.464	478.71
763.648	593.4
763.831	511.48
764.015	581.11
764.198	611.83
764.381	538.1
764.564	546.3
764.748	595.45
764.931	513.53
765.114	609.78
765.297	480.76
765.481	488.95
765.664	480.76
765.847	515.58
766.03	527.86
766.213	564.73
766.397	519.67
766.58	544.25
766.763	538.1
766.946	466.42
767.129	501.24
767.312	548.34
767.495	529.91
767.678	439.8
767.861	531.96
768.044	488.95
768.227	499.19
768.41	509.43
768.593	577.02
768.776	497.14
768.959	454.14
769.142	562.68
769.324	546.3
769.507	525.82
769.69	534.01
769.873	562.68
770.056	534.01
770.239	466.42
770.421	505.34
770.604	488.95
770.787	519.67
770.97	472.57
771.152	411.13
771.335	456.19
771.518	460.28
771.7	531.96
771.883	445.95
772.066	548.34
772.248	413.18
772.431	445.95
772.613	450.04
772.796	468.47
772.978	427.51
773.161	486.9
773.343	480.76
773.526	476.66
773.708	409.08
773.891	364.03
774.073	417.27
774.256	509.43
774.438	482.81
774.621	439.8
774.803	382.46
774.985	458.23
775.168	476.66
775.35	447.99
775.532	468.47
775.715	433.66
775.897	333.31
776.079	454.14
776.261	452.09
776.444	468.47
776.626	380.41
776.808	402.94
776.99	378.36
777.173	460.28
777.355	415.23
777.537	394.75
777.719	349.69
777.901	396.79
778.083	409.08
778.265	302.59
778.447	337.4
778.629	380.41
778.811	353.79
778.993	376.31
779.175	364.03
779.357	353.79
779.539	351.74
779.721	382.46
779.903	400.89
780.085	353.79
780.267	343.55
780.449	382.46
780.631	304.64
780.812	382.46
780.994	304.64
781.176	325.12
781.358	396.79
781.54	316.92
781.721	316.92
781.903	419.32
782.085	394.75
782.267	308.73
782.448	327.16
782.63	237.05
782.812	286.2
782.993	335.35
783.175	400.89
783.357	282.11
783.538	359.93
783.72	275.96
783.901	251.39
784.083	345.59
784.264	253.44
784.446	290.3
784.627	331.26
784.809	232.96
784.99	261.63
785.172	271.87
785.353	214.52
785.535	267.77
785.716	286.2
785.897	216.57
786.079	275.96
786.26	304.64
786.441	286.2
786.623	321.02
786.804	251.39
786.985	259.58
787.167	245.24
787.348	259.58
787.529	206.33
787.71	302.59
787.891	232.96
788.073	232.96
788.254	210.43
788.435	251.39
788.616	278.01
788.797	275.96
788.978	204.28
789.159	200.19
789.34	284.16
789.522	226.81
789.703	171.52
789.884	267.77
790.065	218.62
790.246	212.48
790.427	259.58
790.607	239.1
790.788	267.77
790.969	280.06
791.15	261.63
791.331	187.9
791.512	210.43
791.693	210.43
791.874	177.66
792.054	226.81
792.235	243.2
792.416	204.28
792.597	218.62
792.778	204.28
792.958	148.99
793.139	204.28
793.32	202.24
793.5	163.33
793.681	278.01
793.862	151.04
794.042	192
794.223	177.66
794.404	185.85
794.584	181.76
794.765	105.98
794.945	204.28
795.126	251.39
795.306	87.55
795.487	241.15
795.667	185.85
795.848	185.85
796.028	210.43
796.209	189.95
796.389	224.76
796.57	181.76
796.75	202.24
796.93	173.57
797.111	173.57
797.291	177.66
797.471	179.71
797.652	181.76
797.832	194.05
798.012	212.48
798.192	142.85
798.373	181.76
798.553	243.2
798.733	185.85
798.913	130.56
799.093	103.93
799.274	130.56
799.454	167.42
799.634	159.23
799.814	153.09
799.994	91.65
800.174	144.89
800.354	126.46
800.534	67.07
800.714	128.51
800.894	175.61
801.074	60.93
801.254	155.13
801.434	171.52
801.614	177.66
801.794	81.41
801.974	423.42
802.154	140.8
802.334	175.61
802.514	148.99
802.693	146.94
802.873	120.32
803.053	122.37
803.233	136.7
803.413	187.9
803.592	71.17
803.772	120.32
803.952	153.09
804.131	89.6
804.311	148.99
804.491	124.41
804.67	97.79
804.85	171.52
805.03	177.66
805.209	167.42
805.389	151.04
805.568	120.32
805.748	116.22
805.928	91.65
806.107	204.28
806.287	114.17
806.466	114.17
806.646	128.51
806.825	65.02
807.004	179.71
807.184	114.17
807.363	192
807.543	194.05
807.722	103.93
807.901	128.51
808.081	200.19
808.26	130.56
808.439	124.41
808.619	146.94
808.798	128.51
808.977	87.55
809.156	153.09
809.336	89.6
809.515	81.41
809.694	73.21
809.873	71.17
810.052	71.17
810.231	124.41
810.411	89.6
810.59	140.8
810.769	87.55
810.948	85.5
811.127	95.74
811.306	110.08
811.485	38.4
811.664	130.56
811.843	134.65
812.022	69.12
812.201	56.83
812.38	77.31
812.559	71.17
812.737	185.85
812.916	75.26
813.095	120.32
813.274	155.13
813.453	136.7
813.632	122.37
813.811	153.09
813.989	101.89
814.168	77.31
814.347	93.69
814.526	128.51
814.704	24.06
814.883	116.22
815.062	93.69
815.24	130.56
815.419	120.32
815.598	81.41
815.776	50.69
815.955	167.42
816.133	142.85
816.312	110.08
816.49	52.74
816.669	103.93
816.847	38.4
817.026	50.69
817.204	97.79
817.383	26.11
817.561	103.93
817.74	120.32
817.918	185.85
818.097	77.31
818.275	30.21
818.453	85.5
818.632	71.17
818.81	-8.7
818.988	38.4
819.167	75.26
819.345	134.65
819.523	153.09
819.701	173.57
819.879	77.31
820.058	42.5
820.236	103.93
820.414	114.17
820.592	89.6
820.77	56.83
820.948	87.55
821.127	69.12
821.305	151.04
821.483	79.36
821.661	71.17
821.839	101.89
822.017	71.17
822.195	97.79
822.373	54.78
822.551	81.41
822.729	126.46
822.907	65.02
823.085	89.6
823.262	44.54
823.44	67.07
823.618	34.3
823.796	103.93
823.974	-0.51
824.152	87.55
824.329	-2.56
824.507	62.98
824.685	60.93
824.863	60.93
825.04	7.68
825.218	112.13
825.396	48.64
825.574	48.64
825.751	46.59
825.929	114.17
826.107	58.88
826.284	73.21
826.462	95.74
826.639	34.3
826.817	-0.51
826.994	73.21
827.172	91.65
827.349	108.03
827.527	69.12
827.704	71.17
827.882	50.69
828.059	83.45
828.237	36.35
828.414	95.74
828.591	48.64
828.769	65.02
828.946	30.21
829.124	62.98
829.301	52.74
829.478	46.59
829.655	85.5
829.833	17.92
830.01	26.11
830.187	48.64
830.364	71.17
830.542	30.21
830.719	-8.7
830.896	122.37
831.073	36.35
831.25	75.26
831.427	24.06
831.604	60.93
831.782	77.31
831.959	105.98
832.136	69.12
832.313	136.7
832.49	5.63
832.667	101.89
832.844	71.17
833.021	73.21
833.198	15.87
833.374	30.21
833.551	-4.61
833.728	62.98
833.905	75.26
834.082	-0.51
834.259	44.54
834.436	79.36
834.612	-8.7
834.789	38.4
834.966	-23.04
835.143	54.78
835.319	13.82
835.496	54.78
835.673	48.64
835.85	40.45
836.026	71.17
836.203	81.41
836.38	24.06
836.556	38.4
836.733	-6.66
836.909	24.06
837.086	30.21
837.262	65.02
837.439	34.3
837.616	-10.75
837.792	103.93
837.968	28.16
838.145	48.64
838.321	42.5
838.498	17.92
838.674	5.63
838.851	-2.56
839.027	15.87
839.203	79.36
839.38	93.69
839.556	9.73
839.732	71.17
839.909	-27.14
840.085	22.02
840.261	48.64
840.437	89.6
840.614	71.17
840.79	30.21
840.966	-8.7
841.142	87.55
841.318	58.88
841.494	38.4
841.671	17.92
841.847	40.45
842.023	46.59
842.199	65.02
842.375	5.63
842.551	-8.7
842.727	-27.14
842.903	38.4
843.079	28.16
843.255	103.93
843.431	-43.52
843.607	24.06
843.783	-39.42
843.959	9.73
844.134	38.4
844.31	40.45
844.486	-8.7
844.662	46.59
844.838	9.73
845.013	69.12
845.189	52.74
845.365	75.26
845.541	-6.66
845.716	108.03
845.892	13.82
846.068	48.64
846.244	-0.51
846.419	69.12
846.595	-33.28
846.77	24.06
846.946	91.65
847.122	87.55
847.297	28.16
847.473	7.68
847.648	-25.09
847.824	71.17
847.999	46.59
848.175	17.92
848.35	56.83
848.526	32.26
848.701	40.45
848.876	36.35
849.052	17.92
849.227	40.45
849.403	-49.66
849.578	79.36
849.753	30.21
849.929	54.78
850.104	-43.52
850.279	67.07
850.454	9.73
850.63	50.69
850.805	30.21
850.98	38.4
851.155	-43.52
851.33	19.97
851.505	-20.99
851.681	46.59
851.856	69.12
852.031	54.78
852.206	-8.7
852.381	62.98
852.556	99.84
852.731	-4.61
852.906	17.92
853.081	58.88
853.256	60.93
853.431	-0.51
853.606	42.5
853.781	13.82
853.956	46.59
854.131	-6.66
854.305	62.98
854.48	73.21
854.655	40.45
854.83	24.06
855.005	1.54
855.18	-0.51
855.354	-16.9
855.529	44.54
855.704	15.87
855.879	24.06
856.053	79.36
856.228	32.26
856.403	32.26
856.577	103.93
856.752	-18.94
856.926	11.78
857.101	-12.8
857.276	60.93
857.45	-2.56
857.625	44.54
857.799	24.06
857.974	9.73
858.148	-53.76
858.323	42.5
858.497	40.45
858.672	-0.51
858.846	-4.61
859.02	114.17
859.195	50.69
859.369	22.02
859.543	1.54
859.718	73.21
859.892	5.63
860.066	22.02
860.241	7.68
860.415	11.78
860.589	-6.66
860.763	-47.62
860.938	65.02
861.112	19.97
861.286	5.63
861.46	-0.51
861.634	-0.51
861.808	65.02
861.982	24.06
862.157	112.13
862.331	13.82
862.505	9.73
862.679	30.21
862.853	36.35
863.027	-8.7
863.201	9.73
863.375	-55.81
863.549	-4.61
863.722	26.11
863.896	-14.85
864.07	-29.18
864.244	58.88
864.418	-55.81
864.592	13.82
864.766	-18.94
864.939	-2.56
865.113	58.88
865.287	56.83
865.461	-6.66
865.634	26.11
865.808	46.59
865.982	9.73
866.156	24.06
866.329	-43.52
866.503	-8.7
866.676	65.02
866.85	32.26
867.024	-53.76
867.197	30.21
867.371	58.88
867.544	9.73
867.718	5.63
867.891	52.74
868.065	15.87
868.238	69.12
868.412	32.26
868.585	5.63
868.759	54.78
868.932	62.98
869.105	62.98
869.279	-66.05
869.452	-16.9
869.625	-55.81
869.799	5.63
869.972	-4.61
870.145	17.92
870.319	11.78
870.492	7.68
870.665	1.54
870.838	-16.9
871.011	-29.18
871.185	17.92
871.358	24.06
871.531	40.45
871.704	77.31
871.877	7.68
872.05	38.4
872.223	-2.56
872.396	3.58
872.569	108.03
872.742	-31.23
872.915	-2.56
873.088	-12.8
873.261	11.78
873.434	46.59
873.607	34.3
873.78	44.54
873.953	-47.62
874.126	-43.52
874.299	-2.56
874.471	-4.61
874.644	30.21
874.817	-49.66
874.99	56.83
875.163	-14.85
875.335	40.45
875.508	-74.24
875.681	42.5
875.853	48.64
876.026	3.58
876.199	28.16
876.371	46.59
876.544	24.06
876.717	54.78
876.889	-12.8
877.062	42.5
877.234	71.17
877.407	-16.9
877.579	71.17
877.752	-33.28
877.924	54.78
878.097	101.89
878.269	-72.19
878.442	-16.9
878.614	-2.56
878.786	-10.75
878.959	28.16
879.131	9.73
879.303	-39.42
879.476	36.35
879.648	46.59
879.82	13.82
879.993	-47.62
880.165	7.68
880.337	19.97
880.509	28.16
880.681	-8.7
880.854	13.82
881.026	32.26
881.198	58.88
881.37	30.21
881.542	38.4
881.714	-47.62
881.886	19.97
882.058	-33.28
882.23	22.02
882.402	-18.94
882.574	54.78
882.746	46.59
882.918	54.78
883.09	-10.75
883.262	-100.86
883.434	11.78
883.606	-2.56
883.778	17.92
883.95	81.41
884.122	62.98
884.293	97.79
884.465	-8.7
884.637	65.02
884.809	-2.56
884.98	3.58
885.152	-0.51
885.324	-6.66
885.496	38.4
885.667	28.16
885.839	-80.38
886.011	73.21
886.182	-4.61
886.354	56.83
886.525	40.45
886.697	-14.85
886.869	-57.86
887.04	75.26
887.212	7.68
887.383	46.59
887.555	-47.62
887.726	62.98
887.897	-82.43
888.069	65.02
888.24	-2.56
888.412	28.16
888.583	30.21
888.754	-4.61
888.926	9.73
889.097	13.82
889.268	38.4
889.44	-53.76
889.611	-66.05
889.782	13.82
889.953	-45.57
890.125	32.26
890.296	1.54
890.467	13.82
890.638	1.54
890.809	22.02
890.98	48.64
891.151	-25.09
891.323	5.63
891.494	-31.23
891.665	-25.09
891.836	-43.52
892.007	-23.04
892.178	24.06
892.349	24.06
892.52	28.16
892.691	-43.52
892.862	36.35
893.032	30.21
893.203	-10.75
893.374	-4.61
893.545	30.21
893.716	-10.75
893.887	24.06
894.057	-43.52
894.228	32.26
894.399	22.02
894.57	-39.42
894.74	-14.85
894.911	-29.18
895.082	-27.14
895.253	-41.47
895.423	-41.47
895.594	83.45
895.764	32.26
895.935	-51.71
896.106	30.21
896.276	-10.75
896.447	30.21
896.617	48.64
896.788	-41.47
896.958	5.63
897.129	-43.52
897.299	-18.94
897.47	-27.14
897.64	-14.85
897.81	-6.66
897.981	30.21
898.151	24.06
898.322	60.93
898.492	-76.29
898.662	-2.56
898.832	30.21
899.003	-10.75
899.173	58.88
899.343	-16.9
899.513	-29.18
