Data from USB4F104151__11__13-52-15-645.txt Node

Date: Thu Mar 13 13:52:15 EDT 2025
User: louis
Spectrometer: USB4F10415
Trigger mode: 4
Integration Time (sec): 1.000000E-2
Scans to average: 1
Electric dark correction enabled: true
Nonlinearity correction enabled: false
Boxcar width: 0
XAxis mode: Wavelengths
Number of Pixels in Spectrum: 3648
>>>>>Begin Spectral Data<<<<<
178.204	-22.7
178.424	-22.7
178.644	-22.7
178.864	3.93
179.084	-49.32
179.304	-63.66
179.524	-41.13
179.744	-30.89
179.964	24.4
180.184	61.27
180.404	71.51
180.624	24.4
180.844	53.08
181.064	-32.94
181.283	14.17
181.503	-84.14
181.723	3.93
181.943	-45.23
182.163	3.93
182.383	14.17
182.602	-37.03
182.822	55.12
183.042	22.36
183.262	5.97
183.482	20.31
183.701	16.21
183.921	-57.51
184.141	-2.22
184.361	61.27
184.58	16.21
184.8	8.02
185.02	-18.6
185.239	-8.36
185.459	-22.7
185.679	-43.18
185.898	-26.79
186.118	18.26
186.338	8.02
186.557	-24.75
186.777	-10.41
186.997	16.21
187.216	-30.89
187.436	36.69
187.655	59.22
187.875	51.03
188.095	55.12
188.314	67.41
188.534	59.22
188.753	81.75
188.973	-53.42
189.192	10.07
189.412	-10.41
189.631	-2.22
189.851	-57.51
190.07	5.97
190.29	-49.32
190.509	-6.31
190.729	63.32
190.948	-41.13
191.168	40.79
191.387	22.36
191.607	-26.79
191.826	20.31
192.045	20.31
192.265	63.32
192.484	67.41
192.704	-0.17
192.923	-59.56
193.142	61.27
193.362	3.93
193.581	36.69
193.8	14.17
194.02	79.7
194.239	1.88
194.458	-20.65
194.678	34.64
194.897	34.64
195.116	-34.99
195.335	-6.31
195.555	51.03
195.774	-16.55
195.993	85.84
196.212	-67.75
196.432	-39.08
196.651	24.4
196.87	12.12
197.089	32.6
197.308	-20.65
197.528	24.4
197.747	-12.46
197.966	1.88
198.185	-45.23
198.404	3.93
198.623	87.89
198.842	42.84
199.062	3.93
199.281	-47.27
199.5	-43.18
199.719	53.08
199.938	30.55
200.157	106.32
200.376	36.69
200.595	22.36
200.814	-71.85
201.033	-96.43
201.252	-28.84
201.471	24.4
201.69	-4.27
201.909	28.5
202.128	-30.89
202.347	-51.37
202.566	-0.17
202.785	-53.42
203.004	73.56
203.223	42.84
203.442	8.02
203.661	-12.46
203.879	57.17
204.098	-14.51
204.317	-71.85
204.536	20.31
204.755	10.07
204.974	69.46
205.193	26.45
205.411	-12.46
205.63	-2.22
205.849	1.88
206.068	-30.89
206.287	22.36
206.505	81.75
206.724	53.08
206.943	73.56
207.162	28.5
207.381	-10.41
207.599	-32.94
207.818	-18.6
208.037	28.5
208.255	-41.13
208.474	-12.46
208.693	-24.75
208.911	30.55
209.13	63.32
209.349	-43.18
209.567	46.93
209.786	32.6
210.005	108.37
210.223	-6.31
210.442	-30.89
210.661	44.88
210.879	1.88
211.098	-4.27
211.316	24.4
211.535	26.45
211.753	12.12
211.972	-6.31
212.191	18.26
212.409	1.88
212.628	42.84
212.846	-73.9
213.065	24.4
213.283	-10.41
213.502	36.69
213.72	-0.17
213.938	85.84
214.157	-16.55
214.375	51.03
214.594	8.02
214.812	-18.6
215.031	65.36
215.249	-39.08
215.467	94.04
215.686	53.08
215.904	22.36
216.122	63.32
216.341	61.27
216.559	-6.31
216.778	53.08
216.996	-0.17
217.214	-24.75
217.432	-2.22
217.651	69.46
217.869	-24.75
218.087	5.97
218.306	1.88
218.524	-14.51
218.742	65.36
218.96	3.93
219.179	40.79
219.397	-47.27
219.615	8.02
219.833	3.93
220.051	48.98
220.27	3.93
220.488	24.4
220.706	24.4
220.924	30.55
221.142	24.4
221.36	5.97
221.578	53.08
221.796	-51.37
222.015	14.17
222.233	-24.75
222.451	-34.99
222.669	26.45
222.887	10.07
223.105	1.88
223.323	67.41
223.541	-4.27
223.759	102.23
223.977	40.79
224.195	-20.65
224.413	-16.55
224.631	16.21
224.849	-75.95
225.067	-0.17
225.285	10.07
225.503	34.64
225.721	-37.03
225.939	-0.17
226.157	48.98
226.375	30.55
226.592	-49.32
226.81	-43.18
227.028	-26.79
227.246	-24.75
227.464	-41.13
227.682	32.6
227.9	-18.6
228.117	32.6
228.335	-8.36
228.553	-8.36
228.771	14.17
228.989	32.6
229.206	-45.23
229.424	-14.51
229.642	8.02
229.86	57.17
230.077	24.4
230.295	26.45
230.513	-37.03
230.731	63.32
230.948	61.27
231.166	-8.36
231.384	5.97
231.601	-22.7
231.819	-6.31
232.037	34.64
232.254	-49.32
232.472	-20.65
232.689	10.07
232.907	38.74
233.125	1.88
233.342	20.31
233.56	-8.36
233.777	-10.41
233.995	-32.94
234.213	67.41
234.43	-34.99
234.648	1.88
234.865	5.97
235.083	59.22
235.3	36.69
235.518	75.6
235.735	26.45
235.953	81.75
236.17	5.97
236.388	-45.23
236.605	46.93
236.822	10.07
237.04	18.26
237.257	-49.32
237.475	-37.03
237.692	42.84
237.909	-26.79
238.127	16.21
238.344	-39.08
238.562	-22.7
238.779	8.02
238.996	71.51
239.214	-12.46
239.431	77.65
239.648	1.88
239.865	-28.84
240.083	5.97
240.3	14.17
240.517	-43.18
240.735	-26.79
240.952	14.17
241.169	10.07
241.386	-6.31
241.603	-2.22
241.821	-34.99
242.038	-32.94
242.255	20.31
242.472	28.5
242.689	-6.31
242.907	38.74
243.124	-43.18
243.341	28.5
243.558	48.98
243.775	48.98
243.992	-47.27
244.209	-41.13
244.426	-4.27
244.643	16.21
244.86	-6.31
245.078	-4.27
245.295	-47.27
245.512	3.93
245.729	46.93
245.946	28.5
246.163	36.69
246.38	67.41
246.597	-32.94
246.814	3.93
247.031	-39.08
247.248	18.26
247.464	-12.46
247.681	44.88
247.898	71.51
248.115	32.6
248.332	36.69
248.549	16.21
248.766	-63.66
248.983	34.64
249.2	-10.41
249.417	-18.6
249.633	-26.79
249.85	-6.31
250.067	59.22
250.284	30.55
250.501	-63.66
250.717	73.56
250.934	5.97
251.151	20.31
251.368	-10.41
251.585	5.97
251.801	1.88
252.018	-0.17
252.235	-41.13
252.451	-8.36
252.668	38.74
252.885	48.98
253.102	-4.27
253.318	44.88
253.535	30.55
253.752	-16.55
253.968	-45.23
254.185	-61.61
254.401	26.45
254.618	-28.84
254.835	-22.7
255.051	-51.37
255.268	-12.46
255.484	-16.55
255.701	-10.41
255.917	85.84
256.134	18.26
256.351	44.88
256.567	-12.46
256.784	61.27
257	55.12
257.217	-14.51
257.433	12.12
257.65	-16.55
257.866	28.5
258.082	42.84
258.299	22.36
258.515	-39.08
258.732	10.07
258.948	61.27
259.165	-75.95
259.381	14.17
259.597	26.45
259.814	3.93
260.03	-30.89
260.246	38.74
260.463	28.5
260.679	-41.13
260.895	-18.6
261.112	57.17
261.328	18.26
261.544	67.41
261.761	61.27
261.977	-51.37
262.193	48.98
262.409	-2.22
262.626	34.64
262.842	46.93
263.058	-51.37
263.274	-26.79
263.49	-10.41
263.707	81.75
263.923	-8.36
264.139	-0.17
264.355	10.07
264.571	-4.27
264.787	-43.18
265.004	51.03
265.22	3.93
265.436	-16.55
265.652	20.31
265.868	-47.27
266.084	-20.65
266.3	3.93
266.516	-0.17
266.732	36.69
266.948	67.41
267.164	48.98
267.38	16.21
267.596	-43.18
267.812	26.45
268.028	1.88
268.244	-24.75
268.46	-0.17
268.676	10.07
268.892	46.93
269.108	16.21
269.324	20.31
269.54	14.17
269.756	16.21
269.972	-12.46
270.188	16.21
270.403	-18.6
270.619	40.79
270.835	-55.47
271.051	-4.27
271.267	24.4
271.483	-34.99
271.698	8.02
271.914	40.79
272.13	16.21
272.346	-20.65
272.562	1.88
272.777	28.5
272.993	-30.89
273.209	-24.75
273.425	-39.08
273.64	1.88
273.856	69.46
274.072	32.6
274.287	-45.23
274.503	24.4
274.719	5.97
274.934	79.7
275.15	3.93
275.366	32.6
275.581	10.07
275.797	34.64
276.012	-12.46
276.228	20.31
276.444	32.6
276.659	42.84
276.875	44.88
277.09	-16.55
277.306	10.07
277.521	42.84
277.737	-37.03
277.952	-0.17
278.168	16.21
278.383	-63.66
278.599	61.27
278.814	1.88
279.03	-14.51
279.245	-22.7
279.461	42.84
279.676	3.93
279.892	-8.36
280.107	1.88
280.322	44.88
280.538	55.12
280.753	-63.66
280.969	14.17
281.184	28.5
281.399	42.84
281.615	-2.22
281.83	-18.6
282.045	-8.36
282.26	91.99
282.476	10.07
282.691	48.98
282.906	46.93
283.122	-32.94
283.337	18.26
283.552	16.21
283.767	14.17
283.983	38.74
284.198	12.12
284.413	-37.03
284.628	20.31
284.843	-4.27
285.058	32.6
285.274	16.21
285.489	-8.36
285.704	20.31
285.919	30.55
286.134	57.17
286.349	-12.46
286.564	36.69
286.779	14.17
286.995	57.17
287.21	-10.41
287.425	51.03
287.64	-37.03
287.855	14.17
288.07	12.12
288.285	-37.03
288.5	46.93
288.715	12.12
288.93	-96.43
289.145	3.93
289.36	57.17
289.575	-2.22
289.79	34.64
290.004	42.84
290.219	-0.17
290.434	28.5
290.649	3.93
290.864	-22.7
291.079	14.17
291.294	42.84
291.509	8.02
291.724	94.04
291.938	12.12
292.153	-10.41
292.368	28.5
292.583	-0.17
292.798	40.79
293.012	48.98
293.227	22.36
293.442	44.88
293.657	1.88
293.871	24.4
294.086	-14.51
294.301	81.75
294.516	38.74
294.73	22.36
294.945	1.88
295.16	12.12
295.374	46.93
295.589	26.45
295.804	-45.23
296.018	34.64
296.233	32.6
296.447	38.74
296.662	-34.99
296.877	77.65
297.091	5.97
297.306	18.26
297.52	10.07
297.735	10.07
297.949	-53.42
298.164	30.55
298.378	32.6
298.593	20.31
298.807	-20.65
299.022	-49.32
299.236	44.88
299.451	46.93
299.665	-2.22
299.88	48.98
300.094	-37.03
300.309	40.79
300.523	53.08
300.737	-28.84
300.952	5.97
301.166	16.21
301.381	28.5
301.595	44.88
301.809	-32.94
302.024	-57.51
302.238	44.88
302.452	-12.46
302.667	32.6
302.881	-10.41
303.095	12.12
303.309	10.07
303.524	-22.7
303.738	-10.41
303.952	-24.75
304.166	24.4
304.381	40.79
304.595	10.07
304.809	-84.14
305.023	-0.17
305.237	-22.7
305.452	-16.55
305.666	22.36
305.88	14.17
306.094	40.79
306.308	53.08
306.522	14.17
306.736	-4.27
306.95	61.27
307.164	79.7
307.379	26.45
307.593	32.6
307.807	18.26
308.021	12.12
308.235	-65.71
308.449	48.98
308.663	61.27
308.877	22.36
309.091	-26.79
309.305	40.79
309.519	-10.41
309.733	8.02
309.947	36.69
310.161	12.12
310.374	16.21
310.588	8.02
310.802	-51.37
311.016	81.75
311.23	40.79
311.444	-24.75
311.658	22.36
311.872	-20.65
312.085	-12.46
312.299	5.97
312.513	16.21
312.727	46.93
312.941	32.6
313.154	10.07
313.368	79.7
313.582	28.5
313.796	-18.6
314.009	-0.17
314.223	3.93
314.437	59.22
314.651	3.93
314.864	-39.08
315.078	48.98
315.292	-12.46
315.505	-8.36
315.719	-26.79
315.933	3.93
316.146	-26.79
316.36	-24.75
316.573	-16.55
316.787	8.02
317.001	57.17
317.214	53.08
317.428	10.07
317.641	48.98
317.855	28.5
318.068	12.12
318.282	89.94
318.495	69.46
318.709	42.84
318.922	-16.55
319.136	40.79
319.349	22.36
319.563	73.56
319.776	-14.51
319.99	67.41
320.203	30.55
320.417	24.4
320.63	46.93
320.843	96.08
321.057	-20.65
321.27	-30.89
321.483	3.93
321.697	-18.6
321.91	24.4
322.124	8.02
322.337	63.32
322.55	-4.27
322.763	-16.55
322.977	-18.6
323.19	85.84
323.403	-14.51
323.617	-6.31
323.83	22.36
324.043	-22.7
324.256	22.36
324.469	-26.79
324.683	59.22
324.896	-10.41
325.109	61.27
325.322	-30.89
325.535	24.4
325.748	12.12
325.962	28.5
326.175	34.64
326.388	-18.6
326.601	-0.17
326.814	85.84
327.027	26.45
327.24	5.97
327.453	5.97
327.666	79.7
327.879	-4.27
328.092	55.12
328.305	34.64
328.518	-77.99
328.731	38.74
328.944	16.21
329.157	32.6
329.37	-24.75
329.583	-6.31
329.796	8.02
330.009	3.93
330.222	16.21
330.435	3.93
330.648	-2.22
330.861	71.51
331.073	67.41
331.286	1.88
331.499	-53.42
331.712	-32.94
331.925	-24.75
332.138	63.32
332.35	26.45
332.563	18.26
332.776	40.79
332.989	-22.7
333.202	-18.6
333.414	-14.51
333.627	-24.75
333.84	42.84
334.053	-43.18
334.265	14.17
334.478	12.12
334.691	96.08
334.903	18.26
335.116	8.02
335.329	18.26
335.541	44.88
335.754	28.5
335.966	-6.31
336.179	51.03
336.392	40.79
336.604	-47.27
336.817	-43.18
337.029	5.97
337.242	65.36
337.454	-4.27
337.667	34.64
337.88	48.98
338.092	67.41
338.305	22.36
338.517	20.31
338.729	14.17
338.942	3.93
339.154	22.36
339.367	-6.31
339.579	53.08
339.792	26.45
340.004	-14.51
340.217	-18.6
340.429	-4.27
340.641	-32.94
340.854	5.97
341.066	8.02
341.278	32.6
341.491	-84.14
341.703	14.17
341.915	-75.95
342.128	1.88
342.34	-37.03
342.552	10.07
342.764	53.08
342.977	71.51
343.189	51.03
343.401	40.79
343.613	24.4
343.826	40.79
344.038	-43.18
344.25	65.36
344.462	-14.51
344.674	61.27
344.886	12.12
345.099	48.98
345.311	48.98
345.523	30.55
345.735	16.21
345.947	-30.89
346.159	53.08
346.371	-16.55
346.583	26.45
346.795	3.93
347.007	36.69
347.219	18.26
347.431	40.79
347.643	83.8
347.855	-41.13
348.067	40.79
348.279	-37.03
348.491	12.12
348.703	-2.22
348.915	24.4
349.127	-8.36
349.339	36.69
349.551	22.36
349.763	55.12
349.975	-26.79
350.187	-28.84
350.399	-73.9
350.61	-4.27
350.822	44.88
351.034	30.55
351.246	36.69
351.458	-6.31
351.669	53.08
351.881	57.17
352.093	-14.51
352.305	85.84
352.517	59.22
352.728	14.17
352.94	53.08
353.152	-28.84
353.363	-12.46
353.575	20.31
353.787	3.93
353.999	24.4
354.21	34.64
354.422	94.04
354.633	75.6
354.845	-49.32
355.057	40.79
355.268	46.93
355.48	-24.75
355.692	-65.71
355.903	18.26
356.115	55.12
356.326	-32.94
356.538	65.36
356.749	-49.32
356.961	-30.89
357.172	-30.89
357.384	-39.08
357.595	67.41
357.807	18.26
358.018	-53.42
358.23	16.21
358.441	-53.42
358.653	73.56
358.864	-16.55
359.075	-2.22
359.287	-34.99
359.498	61.27
359.709	-24.75
359.921	-6.31
360.132	-4.27
360.344	-10.41
360.555	61.27
360.766	44.88
360.977	26.45
361.189	53.08
361.4	16.21
361.611	14.17
361.823	55.12
362.034	48.98
362.245	-88.23
362.456	-47.27
362.667	32.6
362.879	-4.27
363.09	-18.6
363.301	77.65
363.512	-28.84
363.723	26.45
363.935	-6.31
364.146	12.12
364.357	-4.27
364.568	32.6
364.779	51.03
364.99	-14.51
365.201	24.4
365.412	73.56
365.623	71.51
365.834	8.02
366.045	20.31
366.256	20.31
366.467	53.08
366.678	-6.31
366.889	-65.71
367.1	14.17
367.311	59.22
367.522	-8.36
367.733	8.02
367.944	32.6
368.155	3.93
368.366	94.04
368.577	8.02
368.788	112.47
368.999	5.97
369.209	18.26
369.42	77.65
369.631	-18.6
369.842	-65.71
370.053	-8.36
370.264	-20.65
370.474	-18.6
370.685	91.99
370.896	-57.51
371.107	22.36
371.317	61.27
371.528	32.6
371.739	63.32
371.95	63.32
372.16	-14.51
372.371	57.17
372.582	44.88
372.792	-10.41
373.003	79.7
373.214	57.17
373.424	100.18
373.635	28.5
373.846	14.17
374.056	53.08
374.267	24.4
374.477	18.26
374.688	57.17
374.898	-2.22
375.109	-41.13
375.319	8.02
375.53	65.36
375.74	63.32
375.951	8.02
376.161	18.26
376.372	26.45
376.582	1.88
376.793	-18.6
377.003	18.26
377.214	36.69
377.424	-26.79
377.635	42.84
377.845	3.93
378.055	1.88
378.266	32.6
378.476	12.12
378.686	-4.27
378.897	34.64
379.107	14.17
379.317	16.21
379.528	-4.27
379.738	-28.84
379.948	44.88
380.158	51.03
380.369	-18.6
380.579	83.8
380.789	-39.08
380.999	24.4
381.21	-6.31
381.42	38.74
381.63	-22.7
381.84	16.21
382.05	48.98
382.261	42.84
382.471	12.12
382.681	48.98
382.891	65.36
383.101	18.26
383.311	42.84
383.521	-39.08
383.731	53.08
383.941	116.56
384.151	12.12
384.361	32.6
384.571	22.36
384.781	36.69
384.991	75.6
385.201	104.28
385.411	63.32
385.621	-14.51
385.831	48.98
386.041	-6.31
386.251	69.46
386.461	-12.46
386.671	-47.27
386.881	38.74
387.091	14.17
387.301	-22.7
387.511	12.12
387.72	69.46
387.93	-16.55
388.14	53.08
388.35	-6.31
388.56	5.97
388.769	5.97
388.979	34.64
389.189	32.6
389.399	-24.75
389.609	30.55
389.818	42.84
390.028	22.36
390.238	104.28
390.447	20.31
390.657	108.37
390.867	98.13
391.076	-12.46
391.286	26.45
391.496	51.03
391.705	65.36
391.915	85.84
392.125	24.4
392.334	5.97
392.544	44.88
392.753	55.12
392.963	1.88
393.172	38.74
393.382	100.18
393.591	79.7
393.801	69.46
394.01	22.36
394.22	12.12
394.429	48.98
394.639	-16.55
394.848	1.88
395.058	57.17
395.267	-43.18
395.477	42.84
395.686	16.21
395.895	1.88
396.105	57.17
396.314	26.45
396.524	-37.03
396.733	36.69
396.942	20.31
397.152	30.55
397.361	96.08
397.57	71.51
397.78	118.61
397.989	48.98
398.198	73.56
398.407	65.36
398.617	14.17
398.826	59.22
399.035	-8.36
399.244	14.17
399.453	57.17
399.663	24.4
399.872	63.32
400.081	42.84
400.29	48.98
400.499	75.6
400.708	100.18
400.917	-26.79
401.127	-24.75
401.336	10.07
401.545	91.99
401.754	30.55
401.963	-8.36
402.172	-4.27
402.381	24.4
402.59	10.07
402.799	-4.27
403.008	79.7
403.217	120.66
403.426	83.8
403.635	-4.27
403.844	-0.17
404.053	40.79
404.262	-53.42
404.471	77.65
404.68	91.99
404.888	118.61
405.097	67.41
405.306	24.4
405.515	36.69
405.724	14.17
405.933	89.94
406.142	26.45
406.35	46.93
406.559	26.45
406.768	24.4
406.977	73.56
407.185	61.27
407.394	94.04
407.603	83.8
407.812	104.28
408.02	116.56
408.229	139.09
408.438	118.61
408.646	102.23
408.855	-18.6
409.064	44.88
409.272	73.56
409.481	48.98
409.69	63.32
409.898	96.08
410.107	112.47
410.315	180.05
410.524	89.94
410.733	67.41
410.941	126.8
411.15	141.14
411.358	75.6
411.567	147.28
411.775	16.21
411.984	141.14
412.192	116.56
412.401	48.98
412.609	163.67
412.818	196.43
413.026	208.72
413.234	194.39
413.443	102.23
413.651	221.01
413.86	208.72
414.068	223.06
414.276	206.67
414.485	173.91
414.693	194.39
414.901	214.87
415.11	261.97
415.318	214.87
415.526	259.92
415.734	190.29
415.943	261.97
416.151	237.39
416.359	122.71
416.567	286.54
416.776	302.93
416.984	298.83
417.192	350.03
417.4	286.54
417.608	360.27
417.817	286.54
418.025	362.32
418.233	296.78
418.441	362.32
418.649	454.48
418.857	380.75
419.065	390.99
419.273	390.99
419.481	405.33
419.689	368.46
419.897	440.14
420.105	454.48
420.313	454.48
420.521	515.92
420.729	593.74
420.937	540.49
421.145	612.17
421.353	618.32
421.561	587.6
421.769	591.69
421.977	603.98
422.185	636.75
422.393	747.34
422.601	675.66
422.809	638.8
423.017	675.66
423.224	800.59
423.432	796.49
423.64	710.47
423.848	894.79
424.056	790.35
424.263	816.97
424.471	991.05
424.679	882.5
424.887	956.23
425.094	960.33
425.302	952.13
425.51	1111.88
425.718	1023.81
425.925	978.76
426.133	1089.35
426.341	1208.13
426.548	1105.73
426.756	1169.22
426.964	1201.99
427.171	1269.57
427.379	1296.19
427.586	1341.25
427.794	1408.83
428.001	1365.82
428.209	1474.37
428.417	1517.37
428.624	1576.77
428.832	1492.8
429.039	1558.33
429.247	1580.86
429.454	1718.08
429.662	1771.32
429.869	1697.6
430.076	1933.11
430.284	1849.15
430.491	1861.43
430.699	1939.26
430.906	1996.6
431.114	2086.71
431.321	2176.82
431.528	2170.68
431.736	2156.34
431.943	2316.08
432.15	2225.97
432.358	2252.59
432.565	2443.06
432.772	2455.34
432.979	2561.84
433.187	2570.03
433.394	2506.54
433.601	2819.88
433.808	2656.04
434.016	2688.81
434.223	2725.68
434.43	3092.26
434.637	3018.54
434.844	3143.46
435.052	3225.38
435.259	3297.06
435.466	3143.46
435.673	3184.42
435.88	3376.93
436.087	3524.38
436.294	3585.82
436.501	3403.55
436.708	3594.01
436.915	3649.31
437.122	3815.2
437.329	3751.71
437.537	3985.18
437.743	3958.55
437.95	4005.66
438.157	4253.46
438.364	4306.71
438.571	4376.34
438.778	4275.99
438.985	4798.22
439.192	4603.66
439.399	4687.63
439.606	4527.89
439.813	4718.35
440.02	5089.03
440.227	4972.3
440.433	5148.42
440.64	5058.31
440.847	5080.84
441.054	5248.77
441.261	5519.11
441.467	5590.78
441.674	5582.59
441.881	5791.48
442.088	5846.78
442.294	5953.27
442.501	6121.21
442.708	6231.8
442.914	6305.53
443.121	6684.4
443.328	6459.12
443.534	6766.32
443.741	6797.04
443.948	6610.67
444.154	7130.86
444.361	7137
444.568	7077.61
444.774	7192.3
444.981	7206.63
445.187	7501.54
445.394	7712.48
445.6	7603.94
445.807	8113.88
446.013	8001.24
446.22	7827.17
446.426	8390.36
446.633	8546
446.839	8883.92
447.046	8443.6
447.252	8732.37
447.459	8767.18
447.665	8828.62
447.871	9598.66
448.078	9750.21
448.284	8957.64
448.491	9373.38
448.697	9664.19
448.903	9991.87
449.11	10178.23
449.316	10028.73
449.522	9922.24
449.728	10251.96
449.935	10372.79
450.141	10688.18
450.347	10608.31
450.553	10192.57
450.76	10327.74
450.966	10632.88
451.172	10528.44
451.378	10827.44
451.584	10598.07
451.791	10696.37
451.997	10823.34
452.203	11259.56
452.409	10862.26
452.615	10917.55
452.821	10458.81
453.027	10276.54
453.233	10845.87
453.44	10458.81
453.646	10389.17
453.852	10532.53
454.058	10610.36
454.264	10387.13
454.47	10811.06
454.676	10497.72
454.882	10868.4
455.088	10028.73
455.294	10108.6
455.5	10096.32
455.705	10264.25
455.911	9799.36
456.117	9522.88
456.323	9344.71
456.529	8982.22
456.735	9176.78
456.941	9019.08
457.147	9043.66
457.352	8490.71
457.558	8615.63
457.764	8617.68
457.97	8314.58
458.176	8216.28
458.381	8326.87
458.587	7745.25
458.793	7784.16
458.999	7347.94
459.204	8201.94
459.41	7741.15
459.616	7343.85
459.821	7208.68
460.027	7251.69
460.233	7223.02
460.438	6631.15
460.644	6754.03
460.85	6594.29
461.055	6354.68
461.261	6323.96
461.466	5910.27
461.672	5732.09
461.878	6123.26
462.083	5660.41
462.289	5553.92
462.494	5572.35
462.7	5246.73
462.905	5220.1
463.111	5322.5
463.316	5461.76
463.522	5359.36
463.727	5373.7
463.932	5361.41
464.138	5402.37
464.343	5158.66
464.549	5203.72
464.754	5320.45
464.959	5240.58
465.165	5216.01
465.37	5140.23
465.575	5048.07
465.781	5084.94
465.986	5054.22
466.191	4984.59
466.397	4865.8
466.602	4495.12
466.807	4800.27
467.012	4839.18
467.218	4726.54
467.423	4865.8
467.628	4704.01
467.833	4820.75
468.038	4640.53
468.244	4560.66
468.449	4792.08
468.654	4574.99
468.859	4597.52
469.064	4636.43
469.269	4527.89
469.474	4513.55
469.679	4417.3
469.885	4343.57
470.09	4466.45
470.295	4439.83
470.5	4384.53
470.705	4206.36
470.91	4353.81
471.115	4120.34
471.32	4232.98
471.525	4267.8
471.73	4157.21
471.935	3936.03
472.139	3976.98
472.344	4042.52
472.549	3981.08
472.754	3970.84
472.959	3882.78
473.164	3714.84
473.369	3723.04
473.574	3917.59
473.778	3786.52
473.983	3737.37
474.188	3796.76
474.393	3573.53
474.598	3563.29
474.802	3553.06
475.007	3508
475.212	3542.82
475.417	3442.46
475.621	3362.59
475.826	3415.84
476.031	3413.79
476.235	3276.58
476.44	3419.94
476.645	3280.68
476.849	3299.11
477.054	3241.76
477.259	3258.15
477.463	3120.93
477.668	3153.7
477.872	3204.9
478.077	3133.22
478.282	3131.17
478.486	3034.92
478.691	3004.2
478.895	3022.63
479.1	3110.69
479.304	3190.56
479.509	2803.5
479.713	3065.64
479.918	2883.37
480.122	2996.01
480.326	2866.99
480.531	2924.33
480.735	2887.47
480.94	2801.45
481.144	2944.81
481.348	2819.88
481.553	2875.18
481.757	2690.86
481.961	2854.7
482.166	2844.46
482.37	2772.78
482.574	2789.16
482.778	2750.25
482.983	2897.71
483.187	2848.55
483.391	2807.59
483.595	2854.7
483.8	2692.91
484.004	2834.22
484.208	2811.69
484.412	2801.45
484.616	2744.11
484.821	2723.63
485.025	2764.59
485.229	2844.46
485.433	2715.44
485.637	2752.3
485.841	2744.11
486.045	2864.94
486.249	2629.42
486.453	2838.31
486.657	2805.55
486.861	2830.12
487.065	2760.49
487.269	2746.16
487.473	2725.68
487.677	2748.2
487.881	2797.35
488.085	2811.69
488.289	2846.51
488.493	2891.56
488.697	2742.06
488.901	2834.22
489.105	3022.63
489.309	2887.47
489.512	2801.45
489.716	2748.2
489.92	2862.89
490.124	2846.51
490.328	2903.85
490.531	2885.42
490.735	2848.55
490.939	2930.47
491.143	2946.86
491.346	2916.14
491.55	2955.05
491.754	3004.2
491.958	3026.73
492.161	3022.63
492.365	2922.28
492.569	2932.52
492.772	3008.3
492.976	3022.63
493.18	3047.21
493.383	2987.82
493.587	3092.26
493.79	3249.96
493.994	3106.6
494.197	3051.3
494.401	3188.52
494.605	3184.42
494.808	3145.51
495.012	3319.59
495.215	3264.29
495.419	3284.77
495.622	3315.49
495.825	3475.23
496.029	3462.94
496.232	3438.37
496.436	3428.13
496.639	3598.11
496.843	3510.05
497.046	3518.24
497.249	3641.12
497.453	3608.35
497.656	3630.88
497.859	3710.75
498.063	3706.65
498.266	3884.83
498.469	3807
498.673	4003.61
498.876	3905.31
499.079	3966.74
499.282	3956.5
499.485	4101.91
499.689	4165.4
499.892	4183.83
500.095	4353.81
500.298	4460.31
500.501	4165.4
500.705	4445.97
500.908	4507.41
501.111	4484.88
501.314	4742.92
501.517	4611.85
501.72	4843.28
501.923	4556.56
502.126	4812.56
502.329	4904.71
502.532	4972.3
502.735	5048.07
502.938	5320.45
503.141	5211.91
503.344	5381.89
503.547	5185.29
503.75	5332.74
503.953	5420.8
504.156	5474.05
504.359	5531.39
504.562	5598.98
504.765	5760.77
504.968	5805.82
505.17	5961.47
505.373	5949.18
505.576	5945.08
505.779	6072.06
505.982	6156.02
506.185	6248.18
506.387	6342.39
506.59	6493.94
506.793	6418.16
506.996	6506.23
507.198	6764.27
507.401	6872.81
507.604	6833.9
507.807	7128.81
508.009	7063.27
508.212	7304.93
508.415	7382.76
508.617	7364.32
508.82	7726.82
509.022	7499.49
509.225	7792.35
509.428	7818.97
509.63	7937.76
509.833	7919.32
510.035	8249.05
510.238	8042.2
510.44	8515.28
510.643	8425.17
510.845	8476.37
511.048	8466.13
511.25	8699.6
511.453	8853.2
511.655	9277.13
511.858	9150.15
512.06	9234.12
512.262	9250.5
512.465	9410.25
512.667	9459.4
512.87	9678.53
513.072	9897.66
513.274	10004.16
513.477	10272.44
513.679	10278.58
513.881	10434.23
514.084	10661.55
514.286	10761.91
514.488	10780.34
514.69	11151.02
514.893	10897.07
515.095	11173.55
515.297	11196.07
515.499	11531.94
515.701	11372.2
515.904	11851.42
516.106	12129.95
516.308	12224.15
516.51	12514.97
516.712	12447.38
516.914	12471.96
517.116	12752.53
517.318	13002.38
517.52	13115.02
517.722	13147.79
517.925	13373.07
518.127	13414.02
518.329	13549.19
518.531	13332.11
518.733	14016.13
518.935	14190.2
519.136	14253.69
519.338	14544.5
519.54	14521.98
519.742	14990.96
519.944	14782.07
520.146	15212.14
520.348	15425.13
520.55	15335.02
520.752	15292.01
520.954	15861.35
521.155	15791.72
521.357	16162.4
521.559	16410.2
521.761	16420.44
521.963	16709.21
522.164	16643.67
522.366	16823.89
522.568	17116.75
522.77	17397.32
522.971	17557.07
523.173	17561.16
523.375	17495.63
523.576	17833.54
523.778	17909.32
523.98	17915.46
524.181	18099.78
524.383	18449.98
524.584	18638.39
524.786	18599.48
524.988	18535.99
525.189	18964.02
525.391	19074.61
525.592	19209.78
525.794	18918.96
525.995	19396.14
526.197	19471.92
526.398	19361.33
526.6	19596.84
526.801	19863.08
527.003	19922.47
527.204	20102.69
527.406	20186.66
527.607	19996.2
527.808	20424.22
528.01	19781.16
528.211	20207.14
528.412	20596.25
528.614	20725.27
528.815	20323.87
529.016	20786.71
529.218	20549.15
529.419	20876.82
529.62	20921.88
529.822	21071.38
530.023	21075.48
530.224	20979.22
530.425	21184.02
530.626	21163.54
530.828	21046.8
531.029	21517.84
531.23	21374.48
531.431	21634.57
531.632	21509.65
531.833	21493.26
532.035	21337.62
532.236	21675.53
532.437	21843.46
532.638	21470.73
532.839	21786.12
533.04	21847.56
533.241	21562.89
533.442	22361.6
533.643	22066.69
533.844	21771.79
534.045	21962.25
534.246	21710.35
534.447	22058.5
534.648	21880.33
534.849	22119.94
535.05	21919.24
535.251	22345.22
535.451	22232.58
535.652	22314.5
535.853	22167.04
536.054	22076.93
536.255	22543.87
536.456	22269.44
536.657	22142.47
536.857	22222.34
537.058	22187.52
537.259	22279.68
537.46	22320.64
537.66	22304.26
537.861	22472.19
538.062	22232.58
538.263	22504.96
538.463	22251.01
538.664	22232.58
538.865	22451.71
539.065	22601.21
539.266	22015.49
539.466	22500.86
539.667	22179.33
539.868	22328.83
540.068	22502.91
540.269	22304.26
540.469	22474.24
540.67	22478.33
540.87	22353.41
541.071	22109.7
541.271	22679.04
541.472	22547.97
541.672	22134.28
541.873	22420.99
542.073	21999.11
542.274	22531.58
542.474	22406.66
542.675	21986.82
542.875	22519.29
543.075	22535.68
543.276	22165
543.476	22472.19
543.676	22101.51
543.877	22212.1
544.077	22322.69
544.277	22369.79
544.478	22394.37
544.678	22636.03
544.878	22619.64
545.078	22345.22
545.279	22322.69
545.479	22490.62
545.679	22701.56
545.879	22267.39
546.079	22494.72
546.28	22306.3
546.48	21921.29
546.68	22316.54
546.88	22629.88
547.08	22410.75
547.28	22519.29
547.48	22222.34
547.68	22437.37
547.88	22177.28
548.081	22349.31
548.281	22574.59
548.481	22617.6
548.681	22601.21
548.881	22521.34
549.081	22304.26
549.28	22128.13
549.48	22511.1
549.68	22199.81
549.88	22617.6
550.08	22375.94
550.28	22519.29
550.48	22420.99
550.68	22261.25
550.88	22117.89
551.08	22504.96
551.279	22767.1
551.479	22418.94
551.679	22572.54
551.879	22412.8
552.079	22545.92
552.278	22187.52
552.478	22402.56
552.678	22330.88
552.878	22425.09
553.077	22246.91
553.277	22269.44
553.477	22232.58
553.676	22208
553.876	22300.16
554.076	22195.71
554.275	22181.38
554.475	22160.9
554.674	22234.63
554.874	22083.08
555.074	22076.93
555.273	21980.68
555.473	22353.41
555.672	21806.6
555.872	22029.83
556.071	22210.05
556.271	21995.01
556.47	21931.53
556.67	21640.72
556.869	21943.81
557.068	21802.5
557.268	21886.47
557.467	21933.57
557.667	21626.38
557.866	21743.11
558.065	21892.62
558.265	21540.36
558.464	21423.63
558.663	21716.49
558.863	21669.39
559.062	21669.39
559.261	21499.41
559.461	21859.85
559.66	21335.57
559.859	21558.8
560.058	21065.24
560.258	21245.46
560.457	21190.16
560.656	21456.4
560.855	21161.49
561.054	21231.12
561.253	21181.97
561.453	20944.41
561.652	21487.12
561.851	21399.05
562.05	21136.91
562.249	20839.96
562.448	21276.18
562.647	20899.35
562.846	20885.01
563.045	20751.9
563.244	20745.75
563.443	20596.25
563.642	20280.86
563.841	20743.7
564.04	20235.81
564.239	20635.16
564.438	20475.42
564.637	20917.78
564.836	20674.07
565.035	20366.88
565.234	20311.58
565.432	20133.41
565.631	20399.65
565.83	20391.45
566.029	20215.33
566.228	19965.48
566.427	19922.47
566.625	20035.11
566.824	19756.58
567.023	20100.64
567.222	19600.94
567.42	19977.76
567.619	19633.71
567.818	19752.49
568.016	19768.87
568.215	19861.03
568.414	19111.47
568.612	19815.97
568.811	19381.81
569.01	19580.46
569.208	19289.65
569.407	19496.49
569.605	19090.99
569.804	19197.49
570.002	19123.76
570.201	19179.06
570.4	19125.81
570.598	18882.1
570.797	18513.47
570.995	19023.41
571.193	18722.36
571.392	18794.04
571.59	18492.99
571.789	18675.26
571.987	18347.58
572.186	18335.29
572.384	18310.72
572.582	18302.53
572.781	18355.77
572.979	18353.73
573.177	18368.06
573.376	18105.92
573.574	17917.51
573.772	18085.44
573.971	17833.54
574.169	17784.39
574.367	17624.65
574.565	17768.01
574.763	17731.14
574.962	17258.06
575.16	17346.12
575.358	17481.29
575.556	17266.25
575.754	17546.83
575.952	17006.16
576.151	17163.86
576.349	17071.7
576.547	17161.81
576.745	17090.13
576.943	17223.25
577.141	16576.09
577.339	16981.59
577.537	16875.09
577.735	16856.66
577.933	16643.67
578.131	16666.2
578.329	16387.68
578.527	16434.78
578.725	16342.62
578.923	16563.8
579.121	16354.91
579.319	16332.38
579.516	16391.77
579.714	16227.93
579.912	15967.84
580.11	16107.1
580.308	15984.23
580.506	16047.71
580.704	15531.62
580.901	15840.87
581.099	15773.28
581.297	15621.73
581.495	15337.07
581.692	15656.55
581.89	15464.04
582.088	15644.26
582.285	15427.18
582.483	15490.66
582.681	15433.32
582.878	15144.56
583.076	15181.42
583.274	15246.96
583.471	15046.26
583.669	15238.76
583.866	14825.08
584.064	15212.14
584.262	14759.54
584.459	14945.91
584.657	14669.43
584.854	14921.33
585.052	14642.81
585.249	14829.17
585.447	14599.8
585.644	14624.37
585.841	14622.33
586.039	14900.85
586.236	14478.97
586.434	14311.03
586.631	14384.76
586.828	14265.98
587.026	14388.86
587.223	14282.36
587.42	14392.95
587.618	14145.15
587.815	13987.46
588.012	13928.06
588.21	14116.48
588.407	14050.94
588.604	13944.45
588.801	13860.48
588.999	13762.18
589.196	13778.56
589.393	13622.92
589.59	13784.71
589.787	13475.46
589.984	13545.09
590.182	13473.42
590.379	13581.96
590.576	13483.66
590.773	13497.99
590.97	13387.4
591.167	13467.27
591.364	13409.93
591.561	13430.41
591.758	13098.64
591.955	12963.47
592.152	13088.4
592.349	13069.97
592.546	13080.21
592.743	13026.96
592.94	12773.01
593.137	12971.66
593.334	12668.56
593.531	12650.13
593.727	12699.28
593.924	12803.73
594.121	12652.18
594.318	12652.18
594.515	12633.75
594.712	12773.01
594.908	12725.91
595.105	12562.07
595.302	12445.34
595.499	12551.83
595.696	12510.87
595.892	12433.05
596.089	12680.85
596.286	12523.16
596.482	12218.01
596.679	12211.87
596.876	12136.09
597.072	11994.78
597.269	12269.21
597.466	12246.68
597.662	12119.71
597.859	12005.02
598.055	12132
598.252	12037.79
598.448	12019.36
598.645	11898.53
598.841	11853.47
599.038	11826.85
599.234	11898.53
599.431	11652.77
599.627	11927.2
599.824	11843.23
600.02	11501.22
600.217	11685.54
600.413	11640.48
600.609	11370.15
600.806	11470.5
601.002	11210.41
601.198	11232.94
601.395	11306.66
601.591	11331.24
601.787	11331.24
601.984	11069.1
602.18	11366.06
602.376	11366.06
602.572	11028.14
602.769	10942.13
602.965	10976.94
603.161	11146.92
603.357	10993.33
603.553	10964.65
603.75	10948.27
603.946	10878.64
604.142	10978.99
604.338	10673.84
604.534	10757.81
604.73	10571.44
604.926	10532.53
605.122	10522.29
605.318	10464.95
605.514	10409.65
605.71	10471.09
605.906	10583.73
606.102	10544.82
606.298	10327.74
606.494	10272.44
606.69	10292.92
606.886	10243.77
607.082	10198.71
607.278	10108.6
607.474	10192.57
607.67	10182.33
607.866	9987.77
608.062	10110.65
608.257	9965.25
608.453	9889.47
608.649	9903.81
608.845	9995.96
609.041	9799.36
609.236	9748.16
609.432	9879.23
609.628	9707.2
609.824	9756.35
610.019	9825.98
610.215	9572.04
610.411	9567.94
610.606	9465.54
610.802	9502.4
610.998	9357
611.193	9662.15
611.389	9651.91
611.584	9504.45
611.78	9289.42
611.976	9305.8
612.171	9197.26
612.367	9379.53
612.562	9223.88
612.758	9010.89
612.953	9219.78
613.149	9330.37
613.344	9168.59
613.539	9068.23
613.735	9094.86
613.93	9123.53
614.126	9066.19
614.321	8890.06
614.517	8857.29
614.712	8998.6
614.907	8715.98
615.103	8853.2
615.298	8724.18
615.493	8871.63
615.688	8810.19
615.884	8812.24
616.079	8654.55
616.274	8791.76
616.47	8586.96
616.665	8656.59
616.86	8539.86
617.055	8517.33
617.25	8670.93
617.445	8607.44
617.641	8384.21
617.836	8412.88
618.031	8306.39
618.226	8511.19
618.421	8201.94
618.616	8443.6
618.811	7968.48
619.006	8201.94
619.201	8275.67
619.396	8236.76
619.591	8046.3
619.786	8220.38
619.981	8081.11
620.176	8128.22
620.371	7796.45
620.566	8025.82
620.761	7859.93
620.956	7943.9
621.151	7829.21
621.346	7679.71
621.541	7675.62
621.735	7818.97
621.93	7653.09
622.125	7673.57
622.32	7501.54
622.515	7556.83
622.709	7458.53
622.904	7440.1
623.099	7362.28
623.294	7409.38
623.488	7409.38
623.683	7276.26
623.878	7231.21
624.072	7184.1
624.267	7143.14
624.462	6991.59
624.656	7196.39
624.851	7247.59
625.046	7010.03
625.24	6956.78
625.435	6838
625.629	6930.16
625.824	6792.94
626.018	6938.35
626.213	6612.72
626.407	6754.03
626.602	6600.43
626.796	6565.62
626.991	6741.74
627.185	6481.65
627.38	6676.21
627.574	6625.01
627.768	6526.71
627.963	6358.77
628.157	6471.41
628.352	6391.54
628.546	6250.23
628.74	6270.71
628.935	6121.21
629.129	6188.79
629.323	6199.03
629.517	6225.65
629.712	6115.06
629.906	5967.61
630.1	6018.81
630.294	5943.03
630.489	6137.59
630.683	5895.93
630.877	5988.09
631.071	5828.35
631.265	5848.83
631.459	5932.79
631.653	5803.77
631.848	5859.07
632.042	5740.29
632.236	5857.02
632.43	5738.24
632.624	5670.65
632.818	5781.25
633.012	5656.32
633.206	5543.68
633.4	5584.64
633.594	5508.87
633.788	5472
633.982	5476.1
634.176	5648.13
634.369	5299.97
634.563	5365.51
634.757	5437.19
634.951	5379.84
635.145	5392.13
635.339	5342.98
635.533	5254.92
635.726	5209.86
635.92	5123.85
636.114	5121.8
636.308	5005.06
636.501	4988.68
636.695	5052.17
636.889	5095.18
637.083	5080.84
637.276	4871.95
637.47	4892.43
637.664	4902.67
637.857	4896.52
638.051	4945.67
638.244	4839.18
638.438	4654.86
638.632	4808.46
638.825	4632.33
639.019	4777.74
639.212	4574.99
639.406	4695.82
639.599	4671.25
639.793	4534.03
639.986	4574.99
640.18	4687.63
640.373	4562.7
640.567	4523.79
640.76	4347.67
640.954	4468.5
641.147	4531.98
641.34	4474.64
641.534	4398.87
641.727	4298.52
641.92	4368.15
642.114	4284.18
642.307	4323.09
642.5	4273.94
642.694	4087.57
642.887	4208.41
643.08	3979.03
643.273	4208.41
643.467	4118.29
643.66	4063
643.853	4171.54
644.046	3948.31
644.239	3983.13
644.432	4079.38
644.626	3987.22
644.819	3921.69
645.012	3870.49
645.205	3948.31
645.398	3847.96
645.591	3755.8
645.784	3856.15
645.977	3688.22
646.17	3641.12
646.363	3704.6
646.556	3469.09
646.749	3651.36
646.942	3671.84
647.135	3497.76
647.328	3596.06
647.521	3522.34
647.714	3421.99
647.907	3471.14
648.099	3516.19
648.292	3618.59
648.485	3462.94
648.678	3464.99
648.871	3419.94
649.064	3356.45
649.256	3325.73
649.449	3340.07
649.642	3284.77
649.835	3129.13
650.027	3159.85
650.22	3209
650.413	3170.08
650.605	3184.42
650.798	3147.56
650.991	3051.3
651.183	3180.32
651.376	3051.3
651.568	3155.75
651.761	3096.36
651.954	3012.39
652.146	3051.3
652.339	2901.8
652.531	3077.93
652.724	2926.38
652.916	2907.94
653.109	2750.25
653.301	2889.51
653.494	2938.66
653.686	2772.78
653.879	2946.86
654.071	2756.4
654.263	2852.65
654.456	2766.64
654.648	2805.55
654.84	2707.24
655.033	2658.09
655.225	2746.16
655.417	2721.58
655.61	2557.74
655.802	2737.96
655.994	2645.8
656.186	2678.57
656.379	2688.81
656.571	2447.15
656.763	2582.32
656.955	2672.43
657.148	2537.26
657.34	2408.24
657.532	2500.4
657.724	2336.56
657.916	2459.44
658.108	2432.82
658.3	2318.13
658.492	2352.95
658.684	2412.34
658.876	2271.03
659.068	2375.47
659.26	2205.49
659.452	2395.95
659.644	2129.72
659.836	2352.95
660.028	2182.96
660.22	2260.79
660.412	2215.73
660.604	2168.63
660.796	2307.89
660.988	2199.35
661.18	2174.77
661.372	2084.66
661.563	2209.59
661.755	2082.61
661.947	2103.09
662.139	2015.03
662.331	2078.52
662.522	2023.22
662.714	1976.12
662.906	1896.25
663.097	1898.3
663.289	1998.65
663.481	1900.34
663.673	1908.54
663.864	1890.1
664.056	1863.48
664.247	2023.22
664.439	1843
664.631	1955.64
664.822	1943.35
665.014	1902.39
665.205	1836.86
665.397	1810.23
665.588	1898.3
665.78	1828.67
665.971	1894.2
666.163	1818.43
666.354	1804.09
666.546	1773.37
666.737	1775.42
666.929	1711.93
667.12	1650.49
667.311	1636.16
667.503	1632.06
667.694	1666.88
667.885	1670.97
668.077	1670.97
668.268	1630.01
668.459	1580.86
668.651	1658.68
668.842	1767.23
669.033	1773.37
669.224	1730.36
669.416	1677.12
669.607	1634.11
669.798	1566.53
669.989	1560.38
670.18	1562.43
670.371	1546.05
670.563	1632.06
670.754	1632.06
670.945	1531.71
671.136	1476.41
671.327	1539.9
671.518	1427.26
671.709	1498.94
671.9	1554.24
672.091	1503.04
672.282	1529.66
672.473	1498.94
672.664	1554.24
672.855	1560.38
673.046	1544
673.237	1580.86
673.428	1531.71
673.619	1363.78
673.809	1396.54
674	1437.5
674.191	1535.81
674.382	1572.67
674.573	1500.99
674.764	1427.26
674.954	1533.76
675.145	1488.7
675.336	1437.5
675.527	1351.49
675.717	1320.77
675.908	1400.64
676.099	1394.5
676.289	1476.41
676.48	1449.79
676.671	1406.78
676.861	1513.28
677.052	1324.87
677.243	1304.39
677.433	1417.02
677.624	1384.26
677.814	1412.93
678.005	1326.91
678.195	1396.54
678.386	1394.5
678.576	1345.34
678.767	1380.16
678.957	1423.17
679.148	1355.58
679.338	1357.63
679.529	1406.78
679.719	1361.73
679.909	1351.49
680.1	1386.3
680.29	1374.02
680.481	1310.53
680.671	1421.12
680.861	1296.19
681.052	1396.54
681.242	1453.89
681.432	1343.3
681.622	1392.45
681.813	1496.89
682.003	1457.98
682.193	1419.07
682.383	1374.02
682.573	1498.94
682.764	1443.65
682.954	1316.67
683.144	1316.67
683.334	1353.54
683.524	1443.65
683.714	1349.44
683.904	1345.34
684.094	1312.58
684.284	1445.7
684.474	1468.22
684.664	1412.93
684.854	1392.45
685.044	1408.83
685.234	1343.3
685.424	1298.24
685.614	1349.44
685.804	1433.41
685.994	1308.48
686.184	1435.46
686.374	1384.26
686.564	1429.31
686.753	1388.35
686.943	1326.91
687.133	1355.58
687.323	1355.58
687.513	1441.6
687.702	1455.94
687.892	1439.55
688.082	1363.78
688.272	1290.05
688.461	1406.78
688.651	1388.35
688.841	1425.22
689.03	1443.65
689.22	1331.01
689.41	1388.35
689.599	1376.06
689.789	1341.25
689.979	1425.22
690.168	1457.98
690.358	1433.41
690.547	1408.83
690.737	1474.37
690.926	1447.74
691.116	1337.15
691.305	1359.68
691.495	1322.82
691.684	1441.6
691.874	1363.78
692.063	1402.69
692.252	1412.93
692.442	1412.93
692.631	1427.26
692.82	1423.17
693.01	1417.02
693.199	1367.87
693.388	1445.7
693.578	1400.64
693.767	1363.78
693.956	1341.25
694.146	1474.37
694.335	1492.8
694.524	1546.05
694.713	1417.02
694.902	1503.04
695.092	1519.42
695.281	1558.33
695.47	1566.53
695.659	1537.85
695.848	1552.19
696.037	1392.45
696.226	1503.04
696.415	1472.32
696.604	1509.18
696.793	1523.52
696.982	1541.95
697.171	1515.33
697.36	1566.53
697.549	1548.09
697.738	1525.57
697.927	1527.61
698.116	1427.26
698.305	1466.17
698.494	1511.23
698.683	1445.7
698.872	1546.05
699.061	1556.29
699.25	1554.24
699.438	1539.9
699.627	1580.86
699.816	1466.17
700.005	1519.42
700.193	1652.54
700.382	1595.2
700.571	1609.53
700.76	1548.09
700.948	1517.37
701.137	1556.29
701.326	1541.95
701.514	1527.61
701.703	1591.1
701.892	1464.13
702.08	1482.56
702.269	1576.77
702.457	1552.19
702.646	1591.1
702.834	1511.23
703.023	1570.62
703.212	1486.65
703.4	1462.08
703.589	1488.7
703.777	1570.62
703.965	1486.65
704.154	1562.43
704.342	1527.61
704.531	1529.66
704.719	1498.94
704.907	1580.86
705.096	1449.79
705.284	1556.29
705.472	1484.61
705.661	1511.23
705.849	1466.17
706.037	1503.04
706.226	1472.32
706.414	1556.29
706.602	1525.57
706.79	1515.33
706.979	1564.48
707.167	1494.85
707.355	1582.91
707.543	1455.94
707.731	1476.41
707.919	1566.53
708.107	1427.26
708.296	1324.87
708.484	1380.16
708.672	1437.5
708.86	1410.88
709.048	1396.54
709.236	1427.26
709.424	1398.59
709.612	1558.33
709.8	1363.78
709.988	1468.22
710.176	1447.74
710.364	1374.02
710.551	1349.44
710.739	1382.21
710.927	1374.02
711.115	1369.92
711.303	1419.07
711.491	1423.17
711.679	1306.43
711.866	1355.58
712.054	1312.58
712.242	1376.06
712.43	1386.3
712.617	1347.39
712.805	1380.16
712.993	1365.82
713.181	1290.05
713.368	1290.05
713.556	1292.1
713.744	1279.81
713.931	1255.23
714.119	1376.06
714.306	1341.25
714.494	1365.82
714.682	1249.09
714.869	1208.13
715.057	1318.72
715.244	1261.38
715.432	1326.91
715.619	1251.14
715.807	1288
715.994	1251.14
716.182	1324.87
716.369	1316.67
716.556	1328.96
716.744	1341.25
716.931	1298.24
717.119	1251.14
717.306	1171.27
717.493	1232.71
717.681	1298.24
717.868	1273.67
718.055	1189.7
718.242	1253.19
718.43	1120.07
718.617	1251.14
718.804	1165.12
718.991	1345.34
719.179	1118.02
719.366	1240.9
719.553	1199.94
719.74	1234.75
719.927	1122.12
720.114	1212.23
720.301	1105.73
720.488	1109.83
720.676	1187.65
720.863	1210.18
721.05	1062.73
721.237	1179.46
721.424	1138.5
721.611	1079.11
721.798	1152.84
721.985	1085.25
722.172	1126.21
722.358	1111.88
722.545	1197.89
722.732	1058.63
722.919	1167.17
723.106	1161.03
723.293	1156.93
723.48	1095.49
723.667	1042.25
723.853	1099.59
724.04	1113.92
724.227	1144.64
724.414	1103.68
724.6	1105.73
724.787	1070.92
724.974	1103.68
725.161	1003.33
725.347	1115.97
725.534	1099.59
725.72	1103.68
725.907	960.33
726.094	1107.78
726.28	1001.29
726.467	1011.53
726.653	1015.62
726.84	1036.1
727.027	1025.86
727.213	1023.81
727.4	1005.38
727.586	1007.43
727.773	1070.92
727.959	1046.34
728.145	962.37
728.332	960.33
728.518	935.75
728.705	1007.43
728.891	1009.48
729.077	939.85
729.264	1066.82
729.45	995.14
729.636	1062.73
729.823	986.95
730.009	1007.43
730.195	950.09
730.382	948.04
730.568	939.85
730.754	868.17
730.94	1025.86
731.126	968.52
731.313	986.95
731.499	972.61
731.685	995.14
731.871	886.6
732.057	964.42
732.243	1013.57
732.429	923.46
732.615	962.37
732.801	919.37
732.987	859.98
733.173	984.9
733.359	905.03
733.545	982.85
733.731	884.55
733.917	991.05
734.103	927.56
734.289	925.51
734.475	890.7
734.661	900.94
734.847	921.42
735.033	943.94
735.219	927.56
735.404	862.02
735.59	935.75
735.776	833.35
735.962	1007.43
736.148	870.22
736.333	917.32
736.519	878.41
736.705	868.17
736.89	819.02
737.076	872.26
737.262	896.84
737.447	986.95
737.633	874.31
737.819	862.02
738.004	929.61
738.19	841.54
738.375	849.74
738.561	778.06
738.747	769.87
738.932	724.81
739.118	819.02
739.303	866.12
739.489	806.73
739.674	757.58
739.859	759.63
740.045	855.88
740.23	859.98
740.416	862.02
740.601	878.41
740.786	827.21
740.972	839.5
741.157	759.63
741.342	804.68
741.528	761.67
741.713	737.1
741.898	737.1
742.084	743.24
742.269	733
742.454	798.54
742.639	798.54
742.824	726.86
743.01	788.3
743.195	808.78
743.38	728.91
743.565	874.31
743.75	724.81
743.935	718.67
744.12	806.73
744.305	745.29
744.49	745.29
744.675	753.48
744.86	798.54
745.045	673.61
745.23	630.6
745.415	722.76
745.6	790.35
745.785	657.23
745.97	702.28
746.155	728.91
746.34	694.09
746.525	745.29
746.71	718.67
746.895	681.8
747.079	636.75
747.264	673.61
747.449	718.67
747.634	667.47
747.819	675.66
748.003	665.42
748.188	665.42
748.373	683.85
748.557	630.6
748.742	667.47
748.927	706.38
749.111	634.7
749.296	700.23
749.481	653.13
749.665	587.6
749.85	640.84
750.034	630.6
750.219	661.32
750.404	612.17
750.588	655.18
750.773	622.41
750.957	563.02
751.141	591.69
751.326	657.23
751.51	671.56
751.695	624.46
751.879	591.69
752.064	560.97
752.248	585.55
752.432	669.52
752.617	524.11
752.801	532.3
752.985	479.05
753.17	520.01
753.354	546.64
753.538	552.78
753.722	499.53
753.907	571.21
754.091	503.63
754.275	587.6
754.459	483.15
754.643	517.97
754.828	517.97
755.012	550.73
755.196	485.2
755.38	524.11
755.564	425.81
755.748	556.88
755.932	444.24
756.116	520.01
756.3	479.05
756.484	517.97
756.668	495.44
756.852	446.29
757.036	382.8
757.22	499.53
757.404	423.76
757.588	397.14
757.772	532.3
757.956	466.77
758.14	446.29
758.323	411.47
758.507	352.08
758.691	544.59
758.875	405.33
759.059	472.91
759.242	466.77
759.426	460.62
759.61	356.18
759.794	524.11
759.977	446.29
760.161	472.91
760.345	421.71
760.528	444.24
760.712	380.75
760.895	374.61
761.079	415.57
761.263	507.73
761.446	368.46
761.63	440.14
761.813	431.95
761.997	399.18
762.18	370.51
762.364	399.18
762.547	456.53
762.731	438.09
762.914	343.89
763.098	372.56
763.281	364.37
763.464	409.42
763.648	370.51
763.831	345.94
764.015	372.56
764.198	360.27
764.381	421.71
764.564	427.85
764.748	364.37
764.931	456.53
765.114	354.13
765.297	368.46
765.481	388.94
765.664	337.74
765.847	331.6
766.03	329.55
766.213	307.02
766.397	341.84
766.58	335.7
766.763	388.94
766.946	427.85
767.129	378.7
767.312	411.47
767.495	345.94
767.678	270.16
767.861	339.79
768.044	368.46
768.227	368.46
768.41	352.08
768.593	370.51
768.776	413.52
768.959	380.75
769.142	415.57
769.324	315.22
769.507	321.36
769.69	337.74
769.873	294.74
770.056	393.04
770.239	313.17
770.421	382.8
770.604	335.7
770.787	313.17
770.97	294.74
771.152	280.4
771.335	362.32
771.518	327.5
771.7	335.7
771.883	282.45
772.066	350.03
772.248	360.27
772.431	343.89
772.613	339.79
772.796	309.07
772.978	284.5
773.161	347.98
773.343	259.92
773.526	237.39
773.708	304.98
773.891	362.32
774.073	372.56
774.256	290.64
774.438	249.68
774.621	237.39
774.803	292.69
774.985	241.49
775.168	350.03
775.35	290.64
775.532	270.16
775.715	268.11
775.897	335.7
776.079	227.15
776.261	388.94
776.444	282.45
776.626	317.26
776.808	251.73
776.99	225.11
777.173	307.02
777.355	247.63
777.537	304.98
777.719	249.68
777.901	296.78
778.083	243.54
778.265	270.16
778.447	274.26
778.629	135
778.811	243.54
778.993	184.15
779.175	210.77
779.357	225.11
779.539	257.87
779.721	266.07
779.903	241.49
780.085	247.63
780.267	245.59
780.449	206.67
780.631	309.07
780.812	241.49
780.994	216.91
781.176	194.39
781.358	354.13
781.54	149.33
781.721	237.39
781.903	221.01
782.085	182.1
782.267	257.87
782.448	196.43
782.63	245.59
782.812	282.45
782.993	198.48
783.175	178
783.357	190.29
783.538	202.58
783.72	155.47
783.901	145.24
784.083	218.96
784.264	225.11
784.446	184.15
784.627	210.77
784.809	169.81
784.99	237.39
785.172	196.43
785.353	210.77
785.535	173.91
785.716	264.02
785.897	225.11
786.079	221.01
786.26	87.89
786.441	206.67
786.623	186.19
786.804	139.09
786.985	102.23
787.167	182.1
787.348	167.76
787.529	118.61
787.71	132.95
787.891	223.06
788.073	94.04
788.254	141.14
788.435	147.28
788.616	116.56
788.797	186.19
788.978	132.95
789.159	167.76
789.34	157.52
789.522	200.53
789.703	180.05
789.884	149.33
790.065	102.23
790.246	192.34
790.427	151.38
790.607	141.14
790.788	184.15
790.969	120.66
791.15	192.34
791.331	83.8
791.512	108.37
791.693	126.8
791.874	122.71
792.054	198.48
792.235	163.67
792.416	167.76
792.597	153.43
792.778	85.84
792.958	237.39
793.139	79.7
793.32	73.56
793.5	104.28
793.681	208.72
793.862	173.91
794.042	159.57
794.223	114.52
794.404	112.47
794.584	114.52
794.765	106.32
794.945	108.37
795.126	147.28
795.306	102.23
795.487	182.1
795.667	173.91
795.848	108.37
796.028	116.56
796.209	137.04
796.389	59.22
796.57	143.19
796.75	106.32
796.93	112.47
797.111	118.61
797.291	118.61
797.471	204.63
797.652	110.42
797.832	145.24
798.012	137.04
798.192	110.42
798.373	91.99
798.553	130.9
798.733	-2.22
798.913	124.76
799.093	-6.31
799.274	231.25
799.454	57.17
799.634	143.19
799.814	143.19
799.994	130.9
800.174	120.66
800.354	161.62
800.534	57.17
800.714	32.6
800.894	63.32
801.074	63.32
801.254	100.18
801.434	147.28
801.614	65.36
801.794	81.75
801.974	354.13
802.154	36.69
802.334	55.12
802.514	32.6
802.693	83.8
802.873	75.6
803.053	118.61
803.233	110.42
803.413	130.9
803.592	98.13
803.772	75.6
803.952	5.97
804.131	55.12
804.311	87.89
804.491	141.14
804.67	106.32
804.85	-2.22
805.03	55.12
805.209	98.13
805.389	79.7
805.568	106.32
805.748	116.56
805.928	75.6
806.107	116.56
806.287	110.42
806.466	55.12
806.646	73.56
806.825	46.93
807.004	61.27
807.184	65.36
807.363	94.04
807.543	155.47
807.722	137.04
807.901	81.75
808.081	87.89
808.26	42.84
808.439	91.99
808.619	57.17
808.798	69.46
808.977	18.26
809.156	122.71
809.336	16.21
809.515	30.55
809.694	118.61
809.873	110.42
810.052	-6.31
810.231	128.85
810.411	104.28
810.59	91.99
810.769	100.18
810.948	42.84
811.127	34.64
811.306	128.85
811.485	12.12
811.664	46.93
811.843	110.42
812.022	143.19
812.201	57.17
812.38	122.71
812.559	-14.51
812.737	124.76
812.916	108.37
813.095	10.07
813.274	44.88
813.453	141.14
813.632	71.51
813.811	22.36
813.989	-2.22
814.168	48.98
814.347	55.12
814.526	46.93
814.704	108.37
814.883	14.17
815.062	71.51
815.24	75.6
815.419	57.17
815.598	24.4
815.776	8.02
815.955	69.46
816.133	28.5
816.312	77.65
816.49	118.61
816.669	79.7
816.847	40.79
817.026	91.99
817.204	28.5
817.383	1.88
817.561	40.79
817.74	63.32
817.918	10.07
818.097	34.64
818.275	-45.23
818.453	44.88
818.632	44.88
818.81	26.45
818.988	-12.46
819.167	55.12
819.345	26.45
819.523	63.32
819.701	22.36
819.879	-0.17
820.058	102.23
820.236	36.69
820.414	18.26
820.592	5.97
820.77	34.64
820.948	40.79
821.127	36.69
821.305	-0.17
821.483	28.5
821.661	63.32
821.839	28.5
822.017	-16.55
822.195	34.64
822.373	32.6
822.551	36.69
822.729	73.56
822.907	-2.22
823.085	42.84
823.262	46.93
823.44	20.31
823.618	63.32
823.796	28.5
823.974	71.51
824.152	53.08
824.329	-6.31
824.507	-22.7
824.685	18.26
824.863	63.32
825.04	48.98
825.218	32.6
825.396	-28.84
825.574	44.88
825.751	42.84
825.929	118.61
826.107	77.65
826.284	-14.51
826.462	-0.17
826.639	55.12
826.817	-37.03
826.994	22.36
827.172	67.41
827.349	46.93
827.527	57.17
827.704	-0.17
827.882	44.88
828.059	61.27
828.237	73.56
828.414	83.8
828.591	44.88
828.769	-51.37
828.946	-8.36
829.124	-20.65
829.301	-12.46
829.478	77.65
829.655	38.74
829.833	96.08
830.01	44.88
830.187	16.21
830.364	-4.27
830.542	73.56
830.719	87.89
830.896	73.56
831.073	5.97
831.25	42.84
831.427	44.88
831.604	-28.84
831.782	22.36
831.959	51.03
832.136	12.12
832.313	-4.27
832.49	75.6
832.667	22.36
832.844	-14.51
833.021	32.6
833.198	65.36
833.374	38.74
833.551	22.36
833.728	36.69
833.905	57.17
834.082	22.36
834.259	8.02
834.436	81.75
834.612	34.64
834.789	-0.17
834.966	116.56
835.143	48.98
835.319	36.69
835.496	-12.46
835.673	42.84
835.85	28.5
836.026	38.74
836.203	26.45
836.38	71.51
836.556	59.22
836.733	48.98
836.909	73.56
837.086	73.56
837.262	67.41
837.439	14.17
837.616	-39.08
837.792	-14.51
837.968	57.17
838.145	12.12
838.321	-28.84
838.498	24.4
838.674	77.65
838.851	48.98
839.027	36.69
839.203	-26.79
839.38	46.93
839.556	30.55
839.732	-47.27
839.909	34.64
840.085	24.4
840.261	40.79
840.437	104.28
840.614	34.64
840.79	14.17
840.966	59.22
841.142	48.98
841.318	-49.32
841.494	18.26
841.671	30.55
841.847	-57.51
842.023	98.13
842.199	8.02
842.375	-12.46
842.551	83.8
842.727	3.93
842.903	38.74
843.079	24.4
843.255	36.69
843.431	-20.65
843.607	34.64
843.783	3.93
843.959	10.07
844.134	22.36
844.31	57.17
844.486	-28.84
844.662	5.97
844.838	77.65
845.013	53.08
845.189	-4.27
845.365	-12.46
845.541	51.03
845.716	57.17
845.892	20.31
846.068	38.74
846.244	53.08
846.419	10.07
846.595	10.07
846.77	-41.13
846.946	-16.55
847.122	3.93
847.297	51.03
847.473	40.79
847.648	38.74
847.824	77.65
847.999	-4.27
848.175	20.31
848.35	67.41
848.526	53.08
848.701	-39.08
848.876	-45.23
849.052	8.02
849.227	14.17
849.403	75.6
849.578	-18.6
849.753	30.55
849.929	38.74
850.104	5.97
850.279	53.08
850.454	32.6
850.63	24.4
850.805	44.88
850.98	10.07
851.155	73.56
851.33	48.98
851.505	-20.65
851.681	12.12
851.856	18.26
852.031	32.6
852.206	-30.89
852.381	10.07
852.556	8.02
852.731	-4.27
852.906	8.02
853.081	12.12
853.256	-0.17
853.431	-0.17
853.606	-20.65
853.781	-41.13
853.956	28.5
854.131	42.84
854.305	-6.31
854.48	63.32
854.655	8.02
854.83	14.17
855.005	-14.51
855.18	12.12
855.354	36.69
855.529	30.55
855.704	1.88
855.879	-32.94
856.053	-43.18
856.228	8.02
856.403	-12.46
856.577	32.6
856.752	-14.51
856.926	-12.46
857.101	-45.23
857.276	-34.99
857.45	-10.41
857.625	44.88
857.799	-2.22
857.974	-10.41
858.148	-14.51
858.323	-34.99
858.497	-0.17
858.672	53.08
858.846	-71.85
859.02	28.5
859.195	91.99
859.369	61.27
859.543	8.02
859.718	-34.99
859.892	28.5
860.066	12.12
860.241	-10.41
860.415	12.12
860.589	-18.6
860.763	36.69
860.938	-24.75
861.112	-8.36
861.286	-39.08
861.46	81.75
861.634	46.93
861.808	55.12
861.982	30.55
862.157	24.4
862.331	-55.47
862.505	89.94
862.679	44.88
862.853	5.97
863.027	22.36
863.201	100.18
863.375	-37.03
863.549	20.31
863.722	44.88
863.896	79.7
864.07	36.69
864.244	57.17
864.418	63.32
864.592	44.88
864.766	10.07
864.939	28.5
865.113	-28.84
865.287	73.56
865.461	-28.84
865.634	-24.75
865.808	-22.7
865.982	-26.79
866.156	51.03
866.329	-22.7
866.503	-4.27
866.676	1.88
866.85	36.69
867.024	44.88
867.197	-37.03
867.371	38.74
867.544	34.64
867.718	77.65
867.891	18.26
868.065	22.36
868.238	5.97
868.412	106.32
868.585	-24.75
868.759	34.64
868.932	-20.65
869.105	-28.84
869.279	32.6
869.452	-61.61
869.625	12.12
869.799	61.27
869.972	10.07
870.145	-18.6
870.319	53.08
870.492	14.17
870.665	16.21
870.838	-69.8
871.011	-71.85
871.185	12.12
871.358	-12.46
871.531	-14.51
871.704	44.88
871.877	-100.52
872.05	-59.56
872.223	-6.31
872.396	-69.8
872.569	28.5
872.742	-45.23
872.915	-26.79
873.088	-8.36
873.261	38.74
873.434	-39.08
873.607	48.98
873.78	24.4
873.953	-4.27
874.126	-41.13
874.299	-12.46
874.471	20.31
874.644	53.08
874.817	44.88
874.99	53.08
875.163	-12.46
875.335	48.98
875.508	-47.27
875.681	-4.27
875.853	-6.31
876.026	-16.55
876.199	-71.85
876.371	53.08
876.544	-2.22
876.717	-4.27
876.889	3.93
877.062	40.79
877.234	-10.41
877.407	5.97
877.579	-8.36
877.752	22.36
877.924	-0.17
878.097	14.17
878.269	32.6
878.442	40.79
878.614	14.17
878.786	-0.17
878.959	5.97
879.131	-41.13
879.303	44.88
879.476	10.07
879.648	-6.31
879.82	-41.13
879.993	-12.46
880.165	24.4
880.337	-4.27
880.509	26.45
880.681	-53.42
880.854	36.69
881.026	-18.6
881.198	30.55
881.37	5.97
881.542	57.17
881.714	10.07
881.886	-28.84
882.058	-4.27
882.23	73.56
882.402	26.45
882.574	20.31
882.746	51.03
882.918	26.45
883.09	-12.46
883.262	-45.23
883.434	-0.17
883.606	40.79
883.778	-0.17
883.95	-32.94
884.122	22.36
884.293	-26.79
884.465	-37.03
884.637	-6.31
884.809	-45.23
884.98	-30.89
885.152	14.17
885.324	10.07
885.496	-39.08
885.667	40.79
885.839	51.03
886.011	-4.27
886.182	40.79
886.354	16.21
886.525	3.93
886.697	-8.36
886.869	38.74
887.04	8.02
887.212	-22.7
887.383	-49.32
887.555	-41.13
887.726	10.07
887.897	42.84
888.069	-10.41
888.24	-8.36
888.412	-73.9
888.583	67.41
888.754	-8.36
888.926	-2.22
889.097	-24.75
889.268	-39.08
889.44	79.7
889.611	24.4
889.782	44.88
889.953	30.55
890.125	-26.79
890.296	-20.65
890.467	-59.56
890.638	-30.89
890.809	-61.61
890.98	-37.03
891.151	65.36
891.323	34.64
891.494	-14.51
891.665	-18.6
891.836	-53.42
892.007	-49.32
892.178	-10.41
892.349	53.08
892.52	-37.03
892.691	-51.37
892.862	30.55
893.032	51.03
893.203	20.31
893.374	14.17
893.545	16.21
893.716	-63.66
893.887	5.97
894.057	-88.23
894.228	-20.65
894.399	-41.13
894.57	-63.66
894.74	16.21
894.911	48.98
895.082	-106.67
895.253	-30.89
895.423	-12.46
895.594	30.55
895.764	28.5
895.935	-61.61
896.106	89.94
896.276	-10.41
896.447	16.21
896.617	48.98
896.788	10.07
896.958	18.26
897.129	18.26
897.299	10.07
897.47	14.17
897.64	8.02
897.81	-110.76
897.981	10.07
898.151	44.88
898.322	53.08
898.492	20.31
898.662	5.97
898.832	10.07
899.003	22.36
899.173	-0.17
899.343	-30.89
899.513	-75.95
