Data from USB4F104151__260__14-01-42-423.txt Node

Date: Thu Mar 13 14:01:42 EDT 2025
User: louis
Spectrometer: USB4F10415
Trigger mode: 4
Integration Time (sec): 1.000000E-2
Scans to average: 1
Electric dark correction enabled: true
Nonlinearity correction enabled: false
Boxcar width: 0
XAxis mode: Wavelengths
Number of Pixels in Spectrum: 3648
>>>>>Begin Spectral Data<<<<<
178.204	28.16
178.424	28.16
178.644	28.16
178.864	-45.57
179.084	-4.61
179.304	30.21
179.524	-29.18
179.744	30.21
179.964	-33.28
180.184	30.21
180.404	11.78
180.624	-10.75
180.844	26.11
181.064	-61.95
181.283	-39.42
181.503	15.87
181.723	30.21
181.943	24.06
182.163	85.5
182.383	71.17
182.602	95.74
182.822	38.4
183.042	1.54
183.262	24.06
183.482	-14.85
183.701	26.11
183.921	32.26
184.141	-43.52
184.361	26.11
184.58	7.68
184.8	-0.51
185.02	56.83
185.239	38.4
185.459	-29.18
185.679	95.74
185.898	7.68
186.118	30.21
186.338	22.02
186.557	-35.33
186.777	-41.47
186.997	-2.56
187.216	3.58
187.436	65.02
187.655	28.16
187.875	48.64
188.095	36.35
188.314	93.69
188.534	40.45
188.753	15.87
188.973	40.45
189.192	44.54
189.412	56.83
189.631	7.68
189.851	48.64
190.07	73.21
190.29	7.68
190.509	42.5
190.729	-2.56
190.948	40.45
191.168	85.5
191.387	67.07
191.607	-6.66
191.826	112.13
192.045	17.92
192.265	91.65
192.484	36.35
192.704	34.3
192.923	52.74
193.142	75.26
193.362	-16.9
193.581	42.5
193.8	9.73
194.02	24.06
194.239	24.06
194.458	56.83
194.678	-0.51
194.897	114.17
195.116	-8.7
195.335	3.58
195.555	17.92
195.774	38.4
195.993	97.79
196.212	24.06
196.432	-20.99
196.651	32.26
196.87	81.41
197.089	97.79
197.308	-47.62
197.528	28.16
197.747	-37.38
197.966	83.45
198.185	34.3
198.404	48.64
198.623	65.02
198.842	42.5
199.062	26.11
199.281	48.64
199.5	105.98
199.719	48.64
199.938	24.06
200.157	91.65
200.376	-47.62
200.595	50.69
200.814	-23.04
201.033	5.63
201.252	67.07
201.471	60.93
201.69	118.27
201.909	62.98
202.128	65.02
202.347	7.68
202.566	19.97
202.785	-0.51
203.004	-8.7
203.223	69.12
203.442	118.27
203.661	24.06
203.879	52.74
204.098	89.6
204.317	17.92
204.536	28.16
204.755	34.3
204.974	62.98
205.193	11.78
205.411	40.45
205.63	-41.47
205.849	-64
206.068	58.88
206.287	11.78
206.505	13.82
206.724	11.78
206.943	36.35
207.162	-2.56
207.381	22.02
207.599	26.11
207.818	11.78
208.037	52.74
208.255	-4.61
208.474	-23.04
208.693	56.83
208.911	-14.85
209.13	28.16
209.349	56.83
209.567	97.79
209.786	11.78
210.005	73.21
210.223	24.06
210.442	3.58
210.661	38.4
210.879	26.11
211.098	24.06
211.316	30.21
211.535	26.11
211.753	-53.76
211.972	71.17
212.191	87.55
212.409	22.02
212.628	-8.7
212.846	54.78
213.065	32.26
213.283	26.11
213.502	56.83
213.72	1.54
213.938	44.54
214.157	60.93
214.375	93.69
214.594	24.06
214.812	105.98
215.031	75.26
215.249	28.16
215.467	-0.51
215.686	62.98
215.904	40.45
216.122	79.36
216.341	69.12
216.559	19.97
216.778	83.45
216.996	40.45
217.214	38.4
217.432	48.64
217.651	-18.94
217.869	58.88
218.087	77.31
218.306	32.26
218.524	48.64
218.742	40.45
218.96	15.87
219.179	97.79
219.397	67.07
219.615	15.87
219.833	73.21
220.051	9.73
220.27	-23.04
220.488	30.21
220.706	32.26
220.924	17.92
221.142	40.45
221.36	19.97
221.578	52.74
221.796	32.26
222.015	56.83
222.233	48.64
222.451	83.45
222.669	26.11
222.887	58.88
223.105	-16.9
223.323	26.11
223.541	28.16
223.759	-33.28
223.977	58.88
224.195	1.54
224.413	13.82
224.631	46.59
224.849	26.11
225.067	128.51
225.285	32.26
225.503	34.3
225.721	28.16
225.939	91.65
226.157	52.74
226.375	26.11
226.592	54.78
226.81	65.02
227.028	-14.85
227.246	-14.85
227.464	-25.09
227.682	-2.56
227.9	52.74
228.117	11.78
228.335	62.98
228.553	-8.7
228.771	97.79
228.989	71.17
229.206	36.35
229.424	38.4
229.642	56.83
229.86	-10.75
230.077	65.02
230.295	-31.23
230.513	97.79
230.731	-12.8
230.948	40.45
231.166	73.21
231.384	19.97
231.601	7.68
231.819	-39.42
232.037	32.26
232.254	-14.85
232.472	42.5
232.689	-31.23
232.907	48.64
233.125	34.3
233.342	-41.47
233.56	81.41
233.777	11.78
233.995	83.45
234.213	9.73
234.43	34.3
234.648	34.3
234.865	71.17
235.083	91.65
235.3	7.68
235.518	46.59
235.735	73.21
235.953	58.88
236.17	11.78
236.388	75.26
236.605	99.84
236.822	89.6
237.04	-41.47
237.257	1.54
237.475	-6.66
237.692	122.37
237.909	42.5
238.127	15.87
238.344	13.82
238.562	-0.51
238.779	24.06
238.996	-41.47
239.214	81.41
239.431	22.02
239.648	36.35
239.865	83.45
240.083	-49.66
240.3	9.73
240.517	62.98
240.735	3.58
240.952	103.93
241.169	116.22
241.386	-12.8
241.603	36.35
241.821	9.73
242.038	26.11
242.255	15.87
242.472	83.45
242.689	122.37
242.907	28.16
243.124	-18.94
243.341	36.35
243.558	5.63
243.775	105.98
243.992	75.26
244.209	-10.75
244.426	52.74
244.643	40.45
244.86	32.26
245.078	101.89
245.295	116.22
245.512	97.79
245.729	3.58
245.946	108.03
246.163	32.26
246.38	38.4
246.597	48.64
246.814	32.26
247.031	-23.04
247.248	44.54
247.464	26.11
247.681	91.65
247.898	-6.66
248.115	89.6
248.332	-37.38
248.549	-0.51
248.766	-0.51
248.983	19.97
249.2	11.78
249.417	79.36
249.633	3.58
249.85	40.45
250.067	97.79
250.284	73.21
250.501	30.21
250.717	116.22
250.934	85.5
251.151	60.93
251.368	-16.9
251.585	3.58
251.801	97.79
252.018	-31.23
252.235	81.41
252.451	24.06
252.668	19.97
252.885	44.54
253.102	3.58
253.318	69.12
253.535	77.31
253.752	58.88
253.968	11.78
254.185	26.11
254.401	3.58
254.618	-18.94
254.835	85.5
255.051	32.26
255.268	13.82
255.484	67.07
255.701	42.5
255.917	-29.18
256.134	91.65
256.351	48.64
256.567	17.92
256.784	34.3
257	65.02
257.217	65.02
257.433	81.41
257.65	32.26
257.866	19.97
258.082	5.63
258.299	-16.9
258.515	101.89
258.732	-31.23
258.948	34.3
259.165	40.45
259.381	89.6
259.597	71.17
259.814	-12.8
260.03	34.3
260.246	22.02
260.463	30.21
260.679	28.16
260.895	-47.62
261.112	-16.9
261.328	-12.8
261.544	-29.18
261.761	50.69
261.977	28.16
262.193	-37.38
262.409	71.17
262.626	15.87
262.842	13.82
263.058	-23.04
263.274	7.68
263.49	75.26
263.707	50.69
263.923	73.21
264.139	-43.52
264.355	42.5
264.571	-20.99
264.787	34.3
265.004	56.83
265.22	-6.66
265.436	103.93
265.652	7.68
265.868	91.65
266.084	-4.61
266.3	36.35
266.516	81.41
266.732	50.69
266.948	42.5
267.164	42.5
267.38	-33.28
267.596	44.54
267.812	38.4
268.028	65.02
268.244	15.87
268.46	42.5
268.676	56.83
268.892	97.79
269.108	77.31
269.324	7.68
269.54	3.58
269.756	60.93
269.972	-57.86
270.188	15.87
270.403	-6.66
270.619	9.73
270.835	-16.9
271.051	-6.66
271.267	89.6
271.483	5.63
271.698	54.78
271.914	11.78
272.13	46.59
272.346	48.64
272.562	15.87
272.777	-0.51
272.993	9.73
273.209	85.5
273.425	-2.56
273.64	-25.09
273.856	50.69
274.072	26.11
274.287	85.5
274.503	75.26
274.719	32.26
274.934	103.93
275.15	13.82
275.366	65.02
275.581	46.59
275.797	-25.09
276.012	42.5
276.228	26.11
276.444	42.5
276.659	58.88
276.875	17.92
277.09	54.78
277.306	65.02
277.521	34.3
277.737	69.12
277.952	122.37
278.168	28.16
278.383	69.12
278.599	81.41
278.814	48.64
279.03	52.74
279.245	48.64
279.461	34.3
279.676	28.16
279.892	38.4
280.107	3.58
280.322	60.93
280.538	58.88
280.753	22.02
280.969	75.26
281.184	26.11
281.399	75.26
281.615	73.21
281.83	3.58
282.045	50.69
282.26	40.45
282.476	28.16
282.691	50.69
282.906	7.68
283.122	36.35
283.337	-8.7
283.552	50.69
283.767	46.59
283.983	42.5
284.198	108.03
284.413	32.26
284.628	38.4
284.843	-33.28
285.058	13.82
285.274	34.3
285.489	85.5
285.704	42.5
285.919	32.26
286.134	40.45
286.349	15.87
286.564	15.87
286.779	67.07
286.995	56.83
287.21	3.58
287.425	1.54
287.64	75.26
287.855	79.36
288.07	28.16
288.285	56.83
288.5	52.74
288.715	-12.8
288.93	97.79
289.145	85.5
289.36	103.93
289.575	91.65
289.79	-45.57
290.004	56.83
290.219	24.06
290.434	60.93
290.649	40.45
290.864	50.69
291.079	73.21
291.294	65.02
291.509	42.5
291.724	50.69
291.938	73.21
292.153	9.73
292.368	-33.28
292.583	-0.51
292.798	15.87
293.012	50.69
293.227	-12.8
293.442	73.21
293.657	81.41
293.871	87.55
294.086	24.06
294.301	52.74
294.516	5.63
294.73	26.11
294.945	-20.99
295.16	69.12
295.374	34.3
295.589	-8.7
295.804	48.64
296.018	26.11
296.233	-23.04
296.447	38.4
296.662	38.4
296.877	114.17
297.091	11.78
297.306	95.74
297.52	7.68
297.735	58.88
297.949	-12.8
298.164	15.87
298.378	13.82
298.593	97.79
298.807	69.12
299.022	93.69
299.236	95.74
299.451	-0.51
299.665	105.98
299.88	87.55
300.094	50.69
300.309	46.59
300.523	67.07
300.737	58.88
300.952	30.21
301.166	54.78
301.381	44.54
301.595	81.41
301.809	5.63
302.024	75.26
302.238	9.73
302.452	-14.85
302.667	67.07
302.881	122.37
303.095	50.69
303.309	97.79
303.524	34.3
303.738	-6.66
303.952	-18.94
304.166	36.35
304.381	-39.42
304.595	108.03
304.809	28.16
305.023	67.07
305.237	75.26
305.452	26.11
305.666	56.83
305.88	42.5
306.094	32.26
306.308	97.79
306.522	50.69
306.736	17.92
306.95	83.45
307.164	24.06
307.379	24.06
307.593	32.26
307.807	81.41
308.021	52.74
308.235	40.45
308.449	30.21
308.663	42.5
308.877	26.11
309.091	-8.7
309.305	-4.61
309.519	52.74
309.733	85.5
309.947	-49.66
310.161	58.88
310.374	36.35
310.588	28.16
310.802	44.54
311.016	32.26
311.23	19.97
311.444	58.88
311.658	30.21
311.872	83.45
312.085	15.87
312.299	19.97
312.513	93.69
312.727	81.41
312.941	15.87
313.154	34.3
313.368	32.26
313.582	122.37
313.796	87.55
314.009	48.64
314.223	52.74
314.437	38.4
314.651	42.5
314.864	67.07
315.078	15.87
315.292	11.78
315.505	75.26
315.719	36.35
315.933	17.92
316.146	48.64
316.36	73.21
316.573	34.3
316.787	38.4
317.001	32.26
317.214	34.3
317.428	73.21
317.641	32.26
317.855	7.68
318.068	-35.33
318.282	1.54
318.495	28.16
318.709	75.26
318.922	81.41
319.136	75.26
319.349	89.6
319.563	11.78
319.776	50.69
319.99	87.55
320.203	54.78
320.417	44.54
320.63	-39.42
320.843	91.65
321.057	87.55
321.27	73.21
321.483	75.26
321.697	15.87
321.91	34.3
322.124	19.97
322.337	93.69
322.55	42.5
322.763	32.26
322.977	40.45
323.19	83.45
323.403	93.69
323.617	83.45
323.83	40.45
324.043	36.35
324.256	52.74
324.469	-0.51
324.683	83.45
324.896	17.92
325.109	-12.8
325.322	81.41
325.535	32.26
325.748	65.02
325.962	136.7
326.175	75.26
326.388	77.31
326.601	93.69
326.814	-41.47
327.027	15.87
327.24	69.12
327.453	32.26
327.666	-0.51
327.879	93.69
328.092	56.83
328.305	30.21
328.518	5.63
328.731	-25.09
328.944	24.06
329.157	-4.61
329.37	24.06
329.583	101.89
329.796	99.84
330.009	15.87
330.222	13.82
330.435	65.02
330.648	48.64
330.861	116.22
331.073	13.82
331.286	103.93
331.499	73.21
331.712	-23.04
331.925	19.97
332.138	69.12
332.35	22.02
332.563	52.74
332.776	40.45
332.989	91.65
333.202	19.97
333.414	40.45
333.627	48.64
333.84	-25.09
334.053	5.63
334.265	15.87
334.478	60.93
334.691	75.26
334.903	52.74
335.116	56.83
335.329	9.73
335.541	-18.94
335.754	85.5
335.966	-23.04
336.179	77.31
336.392	83.45
336.604	50.69
336.817	15.87
337.029	15.87
337.242	-29.18
337.454	46.59
337.667	17.92
337.88	58.88
338.092	11.78
338.305	73.21
338.517	15.87
338.729	32.26
338.942	67.07
339.154	54.78
339.367	91.65
339.579	56.83
339.792	15.87
340.004	79.36
340.217	89.6
340.429	44.54
340.641	56.83
340.854	71.17
341.066	89.6
341.278	56.83
341.491	24.06
341.703	52.74
341.915	42.5
342.128	58.88
342.34	15.87
342.552	26.11
342.764	30.21
342.977	42.5
343.189	26.11
343.401	1.54
343.613	40.45
343.826	67.07
344.038	3.58
344.25	60.93
344.462	65.02
344.674	32.26
344.886	17.92
345.099	44.54
345.311	19.97
345.523	44.54
345.735	40.45
345.947	69.12
346.159	19.97
346.371	46.59
346.583	75.26
346.795	58.88
347.007	19.97
347.219	60.93
347.431	40.45
347.643	87.55
347.855	73.21
348.067	50.69
348.279	30.21
348.491	26.11
348.703	-35.33
348.915	62.98
349.127	46.59
349.339	83.45
349.551	108.03
349.763	65.02
349.975	89.6
350.187	65.02
350.399	7.68
350.61	65.02
350.822	22.02
351.034	44.54
351.246	24.06
351.458	48.64
351.669	60.93
351.881	22.02
352.093	38.4
352.305	48.64
352.517	-37.38
352.728	138.75
352.94	34.3
353.152	28.16
353.363	5.63
353.575	28.16
353.787	58.88
353.999	42.5
354.21	120.32
354.422	85.5
354.633	-8.7
354.845	30.21
355.057	73.21
355.268	34.3
355.48	32.26
355.692	67.07
355.903	28.16
356.115	-2.56
356.326	-12.8
356.538	32.26
356.749	69.12
356.961	105.98
357.172	52.74
357.384	-23.04
357.595	19.97
357.807	19.97
358.018	15.87
358.23	103.93
358.441	93.69
358.653	44.54
358.864	1.54
359.075	118.27
359.287	48.64
359.498	50.69
359.709	71.17
359.921	40.45
360.132	48.64
360.344	44.54
360.555	19.97
360.766	73.21
360.977	22.02
361.189	30.21
361.4	22.02
361.611	58.88
361.823	58.88
362.034	56.83
362.245	62.98
362.456	-57.86
362.667	69.12
362.879	75.26
363.09	58.88
363.301	36.35
363.512	83.45
363.723	85.5
363.935	58.88
364.146	103.93
364.357	71.17
364.568	19.97
364.779	32.26
364.99	83.45
365.201	42.5
365.412	140.8
365.623	26.11
365.834	120.32
366.045	48.64
366.256	89.6
366.467	99.84
366.678	56.83
366.889	169.47
367.1	40.45
367.311	28.16
367.522	101.89
367.733	-8.7
367.944	54.78
368.155	7.68
368.366	56.83
368.577	19.97
368.788	42.5
368.999	48.64
369.209	54.78
369.42	46.59
369.631	124.41
369.842	87.55
370.053	-12.8
370.264	1.54
370.474	32.26
370.685	46.59
370.896	40.45
371.107	32.26
371.317	22.02
371.528	83.45
371.739	105.98
371.95	58.88
372.16	52.74
372.371	48.64
372.582	65.02
372.792	52.74
373.003	60.93
373.214	122.37
373.424	105.98
373.635	30.21
373.846	62.98
374.056	101.89
374.267	130.56
374.477	118.27
374.688	-14.85
374.898	50.69
375.109	67.07
375.319	99.84
375.53	7.68
375.74	79.36
375.951	89.6
376.161	3.58
376.372	91.65
376.582	3.58
376.793	40.45
377.003	95.74
377.214	15.87
377.424	62.98
377.635	73.21
377.845	50.69
378.055	50.69
378.266	62.98
378.476	48.64
378.686	3.58
378.897	95.74
379.107	67.07
379.317	65.02
379.528	103.93
379.738	85.5
379.948	42.5
380.158	99.84
380.369	56.83
380.579	22.02
380.789	1.54
380.999	140.8
381.21	42.5
381.42	65.02
381.63	77.31
381.84	17.92
382.05	-10.75
382.261	11.78
382.471	73.21
382.681	73.21
382.891	48.64
383.101	77.31
383.311	34.3
383.521	15.87
383.731	7.68
383.941	42.5
384.151	19.97
384.361	146.94
384.571	56.83
384.781	67.07
384.991	19.97
385.201	89.6
385.411	3.58
385.621	15.87
385.831	169.47
386.041	83.45
386.251	56.83
386.461	62.98
386.671	28.16
386.881	132.61
387.091	22.02
387.301	173.57
387.511	32.26
387.72	105.98
387.93	52.74
388.14	142.85
388.35	48.64
388.56	75.26
388.769	91.65
388.979	83.45
389.189	124.41
389.399	146.94
389.609	17.92
389.818	62.98
390.028	52.74
390.238	58.88
390.447	67.07
390.657	73.21
390.867	71.17
391.076	-2.56
391.286	83.45
391.496	124.41
391.705	26.11
391.915	155.13
392.125	30.21
392.334	105.98
392.544	40.45
392.753	73.21
392.963	151.04
393.172	73.21
393.382	50.69
393.591	155.13
393.801	77.31
394.01	52.74
394.22	36.35
394.429	97.79
394.639	24.06
394.848	65.02
395.058	122.37
395.267	75.26
395.477	105.98
395.686	95.74
395.895	73.21
396.105	89.6
396.314	54.78
396.524	52.74
396.733	99.84
396.942	34.3
397.152	134.65
397.361	124.41
397.57	50.69
397.78	142.85
397.989	134.65
398.198	116.22
398.407	65.02
398.617	58.88
398.826	112.13
399.035	75.26
399.244	1.54
399.453	114.17
399.663	89.6
399.872	79.36
400.081	1.54
400.29	97.79
400.499	101.89
400.708	101.89
400.917	44.54
401.127	155.13
401.336	95.74
401.545	93.69
401.754	140.8
401.963	155.13
402.172	110.08
402.381	73.21
402.59	134.65
402.799	52.74
403.008	65.02
403.217	91.65
403.426	58.88
403.635	130.56
403.844	65.02
404.053	28.16
404.262	67.07
404.471	83.45
404.68	99.84
404.888	177.66
405.097	118.27
405.306	114.17
405.515	99.84
405.724	165.37
405.933	155.13
406.142	118.27
406.35	210.43
406.559	138.75
406.768	187.9
406.977	161.28
407.185	108.03
407.394	216.57
407.603	175.61
407.812	183.81
408.02	253.44
408.229	177.66
408.438	243.2
408.646	183.81
408.855	132.61
409.064	278.01
409.272	194.05
409.481	161.28
409.69	185.85
409.898	286.2
410.107	278.01
410.315	298.49
410.524	222.72
410.733	255.48
410.941	269.82
411.15	230.91
411.358	300.54
411.567	318.97
411.775	294.4
411.984	325.12
412.192	251.39
412.401	312.83
412.609	425.47
412.818	441.85
413.026	378.36
413.234	394.75
413.443	398.84
413.651	364.03
413.86	409.08
414.068	452.09
414.276	509.43
414.485	431.61
414.693	464.38
414.901	540.15
415.11	595.45
415.318	589.3
415.526	556.54
415.734	622.07
415.943	638.45
416.151	583.16
416.359	617.97
416.567	589.3
416.776	611.83
416.984	802.29
417.192	687.61
417.4	785.91
417.608	685.56
417.817	779.76
418.025	787.96
418.233	888.31
418.441	828.92
418.649	902.64
418.857	998.9
419.065	941.55
419.273	1013.23
419.481	919.03
419.689	1070.58
419.897	1121.77
420.105	1183.21
420.313	1185.26
420.521	1234.41
420.729	1189.36
420.937	1275.37
421.145	1306.09
421.353	1336.81
421.561	1406.44
421.769	1418.73
421.977	1502.7
422.185	1650.15
422.393	1574.38
422.601	1576.42
422.809	1711.59
423.017	1713.64
423.224	1705.45
423.432	1854.95
423.64	1801.7
423.848	1981.92
424.056	2000.35
424.263	1975.78
424.471	2145.76
424.679	2143.71
424.887	2297.31
425.094	2305.5
425.302	2356.7
425.51	2305.5
425.718	2418.14
425.925	2493.91
426.133	2649.56
426.341	2741.72
426.548	2760.15
426.756	2964.95
426.964	2926.04
427.171	3118.54
427.379	3266
427.586	3153.36
427.794	3186.13
428.001	3528.14
428.209	3671.5
428.417	3413.45
428.624	3749.32
428.832	3730.89
429.039	3718.6
429.247	3726.79
429.454	4105.67
429.662	4371.9
429.869	4224.45
430.076	4382.14
430.284	4326.85
430.491	4488.64
430.699	4711.86
430.906	4675
431.114	4810.17
431.321	4808.12
431.528	5170.61
431.736	5334.45
431.943	5467.56
432.15	5348.78
432.358	5586.35
432.565	5752.23
432.772	5776.81
432.979	6043.04
433.187	6157.73
433.394	6129.06
433.601	6694.3
433.808	6585.76
434.016	6528.41
434.223	6817.18
434.43	7230.87
434.637	7142.8
434.844	7501.2
435.052	7605.64
435.259	7591.31
435.466	7691.66
435.673	7798.15
435.88	8181.12
436.087	8492.41
436.294	8349.06
436.501	8441.22
436.708	8682.88
436.915	8914.3
437.122	9215.35
437.329	9135.48
437.537	9563.5
437.743	9764.2
437.95	9670
438.157	10220.9
438.364	10470.75
438.571	10423.65
438.778	10437.98
438.985	11593.04
439.192	10921.31
439.399	11310.42
439.606	11244.88
439.813	11631.95
440.02	12412.23
440.227	12193.09
440.433	12123.46
440.64	12588.35
440.847	12338.5
441.054	12750.14
441.261	13507.89
441.467	13290.81
441.674	13485.36
441.881	14138.66
442.088	14198.06
442.294	14079.27
442.501	14501.15
442.708	14609.7
442.914	15287.57
443.121	15760.66
443.328	15306.01
443.534	16356.61
443.741	15834.38
443.948	15809.81
444.154	16989.44
444.361	16844.03
444.568	16698.63
444.774	16999.68
444.981	16915.71
445.187	17804.53
445.394	18427.11
445.6	18263.27
445.807	19793.11
446.013	18869.47
446.22	19383.51
446.426	20227.28
446.633	20110.54
446.839	20710.6
447.046	19991.76
447.252	21345.47
447.459	21064.89
447.665	21130.43
447.871	22172.85
448.078	22985.89
448.284	21830.83
448.491	22627.49
448.697	23383.2
448.903	23964.82
449.11	23772.31
449.316	23485.59
449.522	23846.04
449.728	24308.88
449.935	24446.09
450.141	24861.83
450.347	25322.62
450.553	24382.6
450.76	24571.02
450.966	25478.27
451.172	25224.32
451.378	25891.96
451.584	25365.63
451.791	25844.85
451.997	25918.58
452.203	26315.89
452.409	26190.96
452.615	25916.53
452.821	25429.12
453.027	24702.09
453.233	26094.71
453.44	25207.94
453.646	25425.02
453.852	25519.23
454.058	25580.67
454.264	25142.4
454.47	25777.27
454.676	24743.05
454.882	26008.69
455.088	23794.84
455.294	24028.31
455.5	24306.83
455.705	24982.66
455.911	23604.38
456.117	22795.43
456.323	22875.3
456.529	21650.61
456.735	22322.35
456.941	21847.22
457.147	21994.67
457.352	21066.94
457.558	20935.87
457.764	20864.19
457.97	20671.68
458.176	20092.11
458.381	20167.88
458.587	18898.14
458.793	18951.39
458.999	18232.55
459.204	19410.14
459.41	18425.06
459.616	17704.18
459.821	17749.23
460.027	17280.25
460.233	17216.76
460.438	16205.06
460.644	16487.68
460.85	15637.78
461.055	15752.46
461.261	15701.26
461.466	14339.37
461.672	13892.91
461.878	15052.06
462.083	13835.56
462.289	13616.43
462.494	13772.08
462.7	12942.65
462.905	12451.14
463.111	13102.39
463.316	13002.04
463.522	12641.6
463.727	12893.5
463.932	12932.41
464.138	12721.47
464.343	12746.05
464.549	12201.29
464.754	12678.46
464.959	12660.03
465.165	12600.64
465.37	12004.68
465.575	11844.94
465.781	12148.04
465.986	12225.86
466.191	12160.33
466.397	11597.14
466.602	11289.94
466.807	11478.35
467.012	11267.41
467.218	11482.45
467.423	11289.94
467.628	11332.95
467.833	11865.42
468.038	11367.76
468.244	11097.43
468.449	11566.42
468.654	11095.38
468.859	11019.61
469.064	10995.03
469.269	10788.19
469.474	10630.49
469.679	10831.19
469.885	10526.05
470.09	10841.43
470.295	10851.67
470.5	10362.21
470.705	10491.23
470.91	9940.33
471.115	10126.69
471.32	10145.13
471.525	10102.12
471.73	9954.66
471.935	10108.26
472.139	9489.78
472.344	9880.94
472.549	9614.7
472.754	9512.3
472.959	9260.4
473.164	9084.28
473.369	9123.19
473.574	9289.07
473.778	9334.13
473.983	9170.29
474.188	9133.43
474.393	8650.11
474.598	8734.07
474.802	8598.91
475.007	8617.34
475.212	8457.6
475.417	8500.61
475.621	8297.86
475.826	8588.67
476.031	8086.92
476.235	8179.08
476.44	8105.35
476.645	7861.64
476.849	8101.25
477.054	8134.02
477.259	7847.3
477.463	7749
477.668	7617.93
477.872	7617.93
478.077	7474.57
478.282	7503.25
478.486	7308.69
478.691	7318.93
478.895	7218.58
479.1	7234.96
479.304	7347.6
479.509	7069.08
479.713	7075.22
479.918	7005.59
480.122	6925.72
480.326	6981.01
480.531	6933.91
480.735	6856.09
480.94	6995.35
481.144	7153.04
481.348	6651.29
481.553	6897.05
481.757	6858.14
481.961	6905.24
482.166	6772.12
482.37	6909.33
482.574	6626.71
482.778	6741.4
482.983	6751.64
483.187	6778.26
483.391	6649.24
483.595	6581.66
483.8	6690.2
484.004	6727.07
484.208	6972.82
484.412	6864.28
484.616	6716.83
484.821	6696.35
485.025	6557.08
485.229	6675.87
485.433	6677.91
485.637	6741.4
485.841	6831.51
486.045	6690.2
486.249	6800.79
486.453	6720.92
486.657	6655.39
486.861	6860.18
487.065	6716.83
487.269	6559.13
487.473	6575.52
487.677	6743.45
487.881	6628.76
488.085	6753.69
488.289	6806.94
488.493	6708.63
488.697	6940.05
488.901	6770.07
489.105	6983.06
489.309	6919.57
489.512	6774.17
489.716	6835.61
489.92	6841.75
490.124	6811.03
490.328	6946.2
490.531	7028.12
490.735	6997.4
490.939	6806.94
491.143	6929.81
491.346	7054.74
491.55	6962.58
491.754	6985.11
491.958	7183.76
492.161	7019.92
492.365	7298.45
492.569	7185.81
492.772	7126.42
492.976	7363.98
493.18	7136.66
493.383	7349.65
493.587	7378.32
493.79	7482.77
493.994	7333.26
494.197	7585.16
494.401	7601.55
494.605	7490.96
494.808	7732.62
495.012	7699.85
495.215	7718.28
495.419	7923.08
495.622	7916.94
495.825	7777.67
496.029	7931.27
496.232	8009.09
496.436	8242.56
496.639	8269.19
496.843	8181.12
497.046	8322.43
497.249	8412.54
497.453	8490.37
497.656	8633.72
497.859	8525.18
498.063	8662.4
498.266	8895.86
498.469	8574.33
498.673	9045.37
498.876	9178.48
499.079	9280.88
499.282	9092.47
499.485	9377.14
499.689	9477.49
499.892	9790.83
500.095	9512.3
500.298	9905.51
500.501	9829.74
500.705	9973.1
500.908	10317.15
501.111	10241.38
501.314	10321.25
501.517	10450.27
501.72	10581.34
501.923	10597.73
502.126	10943.83
502.329	11042.14
502.532	11013.46
502.735	11203.93
502.938	11222.36
503.141	11486.54
503.344	11410.77
503.547	11449.68
503.75	11763.02
503.953	12023.11
504.156	12062.02
504.359	12422.47
504.562	12064.07
504.765	12590.4
504.968	12737.85
505.17	12832.06
505.373	12813.63
505.576	13276.47
505.779	13233.46
505.982	13532.47
506.185	13550.9
506.387	13614.38
506.59	13681.97
506.793	13983.02
506.996	13940.01
507.198	14648.61
507.401	14417.19
507.604	14695.71
507.807	14681.38
508.009	15142.17
508.212	14759.2
508.415	15222.04
508.617	15449.36
508.82	15676.69
509.022	15508.76
509.225	16209.16
509.428	16207.11
509.63	16366.85
509.833	16260.36
510.035	16819.46
510.238	16698.63
510.44	16909.57
510.643	17362.17
510.845	17517.81
511.048	17286.39
511.25	17779.95
511.453	17771.76
511.655	18463.97
511.858	18375.91
512.06	18709.73
512.262	18851.04
512.465	18588.9
512.667	19070.17
512.87	19487.96
513.072	19604.69
513.274	19758.29
513.477	19748.05
513.679	19971.28
513.881	20511.94
514.084	20313.29
514.286	20753.6
514.488	20704.45
514.69	21398.71
514.893	21380.28
515.095	21609.65
515.297	21974.19
515.499	21806.26
515.701	22123.69
515.904	22547.62
516.106	22604.97
516.308	22957.22
516.51	23438.49
516.712	23231.65
516.914	23481.5
517.116	24161.42
517.318	23825.56
517.52	24251.53
517.722	24169.62
517.925	24485
518.127	24974.47
518.329	25003.14
518.531	25136.26
518.733	25855.09
518.935	25697.4
519.136	26186.86
519.338	26457.2
519.54	26823.78
519.742	26580.07
519.944	26926.18
520.146	27434.08
520.348	27673.69
520.55	27649.11
520.752	27829.34
520.954	28132.43
521.155	28046.42
521.357	28628.04
521.559	29002.82
521.761	29180.99
521.963	28935.24
522.164	29559.87
522.366	29776.95
522.568	29805.63
522.77	29924.41
522.971	30446.64
523.173	30508.08
523.375	30440.5
523.576	30917.67
523.778	30936.1
523.98	31413.28
524.181	31292.45
524.383	31435.81
524.584	31999
524.786	32023.58
524.988	31779.87
525.189	32527.38
525.391	32510.99
525.592	32766.99
525.794	32701.45
525.995	33029.13
526.197	33305.6
526.398	33246.21
526.6	33342.47
526.801	33973.24
527.003	33778.68
527.204	33760.25
527.406	34415.6
527.607	34051.06
527.808	34427.89
528.01	34114.55
528.211	34659.31
528.412	34939.88
528.614	34642.93
528.815	34720.75
529.016	35230.69
529.218	34655.22
529.419	34638.83
529.62	35169.26
529.822	34841.58
530.023	35185.64
530.224	34999.27
530.425	35146.73
530.626	35042.28
530.828	35294.18
531.029	36056.03
531.23	35642.34
531.431	35396.58
531.632	35875.8
531.833	35816.41
532.035	35445.73
532.236	36015.07
532.437	36156.38
532.638	35861.47
532.839	36400.08
533.04	36021.21
533.241	35812.32
533.442	36582.35
533.643	36090.84
533.844	35998.68
534.045	36156.38
534.246	35818.46
534.447	36252.63
534.648	36113.37
534.849	36479.96
535.05	35949.53
535.251	36199.38
535.451	36099.03
535.652	36574.16
535.853	36287.45
536.054	36572.11
536.255	36543.44
536.456	36039.64
536.657	36533.2
536.857	36441.04
537.058	35961.82
537.259	36998.09
537.46	36615.12
537.66	36316.12
537.861	36336.6
538.062	36361.17
538.263	36637.65
538.463	36004.83
538.664	36148.18
538.865	36414.42
539.065	36596.69
539.266	36215.77
539.466	36821.97
539.667	35931.1
539.868	36711.38
540.068	36252.63
540.269	36414.42
540.469	36561.87
540.67	36404.18
540.87	36336.6
541.071	36135.9
541.271	36582.35
541.472	36608.98
541.672	36318.17
541.873	36475.86
542.073	35699.68
542.274	36549.59
542.474	36488.15
542.675	36402.13
542.875	36572.11
543.075	36760.53
543.276	36006.87
543.476	36680.66
543.676	36211.67
543.877	36604.88
544.077	36074.46
544.277	36008.92
544.478	36559.83
544.678	36406.23
544.878	36303.83
545.078	36281.3
545.279	36254.68
545.479	36180.95
545.679	36418.52
545.879	36627.41
546.079	36400.08
546.28	36322.26
546.48	35904.48
546.68	36170.71
546.88	36283.35
547.08	36451.28
547.28	36035.55
547.48	35824.61
547.68	36240.34
547.88	36154.33
548.081	36424.66
548.281	36131.8
548.481	36033.5
548.681	36322.26
548.881	36246.49
549.081	36453.33
549.28	35957.72
549.48	36633.55
549.68	36142.04
549.88	36608.98
550.08	35752.93
550.28	36701.14
550.48	36164.57
550.68	36357.08
550.88	36049.88
551.08	36150.23
551.279	36420.56
551.479	35945.44
551.679	36285.4
551.879	36041.69
552.079	36486.1
552.278	35912.67
552.478	36563.92
552.678	36002.78
552.878	36365.27
553.077	36105.18
553.277	35689.44
553.477	36613.07
553.676	36060.12
553.876	36010.97
554.076	36043.74
554.275	35703.78
554.475	35695.58
554.674	35824.61
554.874	35765.21
555.074	35748.83
555.273	36070.36
555.473	35765.21
555.672	35687.39
555.872	35638.24
556.071	35816.41
556.271	35646.43
556.47	35683.3
556.67	35605.47
556.869	35701.73
557.068	35937.24
557.268	35222.5
557.467	35378.15
557.667	35541.99
557.866	36037.59
558.065	35206.12
558.265	35105.77
558.464	35036.14
558.663	35417.06
558.863	34970.6
559.062	35496.93
559.261	34739.18
559.461	35355.62
559.66	34620.4
559.859	35177.45
560.058	34982.89
560.258	35089.38
560.457	34561.01
560.656	34909.16
560.855	34489.33
561.054	34782.19
561.253	34665.46
561.453	34243.57
561.652	34687.98
561.851	34728.94
562.05	34601.97
562.249	34247.67
562.448	34618.35
562.647	34280.44
562.846	34511.86
563.045	34407.41
563.244	34352.12
563.443	34788.33
563.642	33952.76
563.841	34085.88
564.04	33762.3
564.239	34003.96
564.438	33827.84
564.637	34368.5
564.836	33778.68
565.035	33563.65
565.234	33889.27
565.432	33770.49
565.631	33629.18
565.83	34145.27
566.029	33436.67
566.228	33719.29
566.427	33364.99
566.625	32998.41
566.824	32846.86
567.023	33192.97
567.222	32676.88
567.42	33100.81
567.619	33016.84
567.818	32693.26
568.016	32883.72
568.215	33094.66
568.414	32906.25
568.612	32650.25
568.811	32789.52
569.01	32738.32
569.208	32039.96
569.407	32646.16
569.605	32322.58
569.804	32611.34
570.002	32201.75
570.201	32252.95
570.4	31939.61
570.598	31763.48
570.797	31640.61
570.995	31743
571.193	31446.05
571.392	32232.47
571.59	31609.89
571.789	31306.79
571.987	31634.46
572.186	31085.61
572.384	31474.72
572.582	31274.02
572.781	31034.41
572.979	30757.93
573.177	31188
573.376	31179.81
573.574	30987.3
573.772	31056.93
573.971	30706.73
574.169	30596.14
574.367	30309.43
574.565	30657.58
574.763	30098.48
574.962	30207.03
575.16	29807.67
575.358	30088.24
575.556	29475.9
575.754	30071.86
575.952	29629.5
576.151	29869.11
576.349	29498.43
576.547	29637.69
576.745	29504.57
576.943	29537.34
577.141	29211.71
577.339	29584.44
577.537	29066.31
577.735	29402.18
577.933	28783.69
578.131	29178.95
578.329	28789.83
578.527	28791.88
578.725	28722.25
578.923	29031.49
579.121	28527.69
579.319	28830.79
579.516	28507.21
579.714	28189.78
579.912	28470.35
580.11	28392.53
580.308	28329.04
580.506	28189.78
580.704	27442.27
580.901	27815
581.099	27937.88
581.297	27995.22
581.495	27919.45
581.692	27749.46
581.89	27305.06
582.088	27681.88
582.285	27642.97
582.483	27360.35
582.681	27249.76
582.878	27221.09
583.076	27233.38
583.274	27372.64
583.471	26520.68
583.669	26893.41
583.866	26752.1
584.064	27028.58
584.262	26711.14
584.459	26623.08
584.657	26383.47
584.854	26944.61
585.052	25918.58
585.249	26715.24
585.447	26469.48
585.644	26283.12
585.841	26575.98
586.039	26225.78
586.236	26319.98
586.434	26000.5
586.631	25752.7
586.828	26016.88
587.026	26010.74
587.223	25810.04
587.42	25410.68
587.618	25783.41
587.815	25349.25
588.012	25207.94
588.21	24945.8
588.407	25386.11
588.604	24962.18
588.801	24976.51
588.999	24910.98
589.196	24876.16
589.393	25328.77
589.59	24781.96
589.787	24509.58
589.984	24847.49
590.182	24693.9
590.379	24657.03
590.576	24374.41
590.773	24431.76
590.97	24278.16
591.167	24048.79
591.364	24061.07
591.561	24145.04
591.758	23930
591.955	24186
592.152	24046.74
592.349	23874.71
592.546	24147.09
592.743	24106.13
592.94	23375
593.137	23991.44
593.334	23352.48
593.531	23307.42
593.727	23055.52
593.924	23430.3
594.121	23227.55
594.318	23215.26
594.515	22836.39
594.712	23024.8
594.908	23155.87
595.105	23252.13
595.302	22914.21
595.499	22949.03
595.696	22961.31
595.892	22602.92
596.089	22832.29
596.286	22533.29
596.482	22564.01
596.679	22521
596.876	22412.46
597.072	22203.57
597.269	22265
597.466	22242.48
597.662	21941.43
597.859	22154.41
598.055	22140.08
598.252	21959.86
598.448	21970.1
598.645	22011.06
598.841	21732.53
599.038	21621.94
599.234	21859.51
599.431	21712.05
599.627	21472.44
599.824	21640.37
600.02	21421.24
600.217	21488.82
600.413	21238.97
600.609	21218.49
600.806	20937.92
601.002	21222.59
601.198	21112
601.395	20958.4
601.591	20700.36
601.787	20722.88
601.984	20856
602.18	20995.26
602.376	20790.47
602.572	20772.04
602.769	20350.15
602.965	20210.89
603.161	20618.44
603.357	20339.91
603.553	20098.25
603.75	20348.11
603.946	19979.47
604.142	20061.39
604.338	19659.99
604.534	20257.99
604.73	19834.07
604.926	19737.81
605.122	19915.98
605.318	19674.32
605.514	19635.41
605.71	19526.87
605.906	19584.21
606.102	19627.22
606.298	19166.43
606.494	19082.46
606.69	19219.67
606.886	19420.38
607.082	18889.95
607.278	19031.26
607.474	18881.76
607.67	19289.31
607.866	18631.91
608.062	19082.46
608.257	18738.4
608.453	18795.75
608.649	18783.46
608.845	18537.7
609.041	18576.61
609.236	18435.3
609.432	18668.77
609.628	18588.9
609.824	18468.07
610.019	18367.72
610.215	18179.31
610.411	18232.55
610.606	18128.11
610.802	18515.17
610.998	18050.28
611.193	18226.41
611.389	18056.43
611.584	17929.45
611.78	17829.1
611.976	17964.27
612.171	17747.19
612.367	17769.71
612.562	17784.05
612.758	17306.87
612.953	17401.08
613.149	17904.88
613.344	17718.51
613.539	17652.98
613.735	17642.74
613.93	17597.68
614.126	17474.81
614.321	17693.94
614.517	17335.54
614.712	17462.52
614.907	17183.99
615.103	17483
615.298	17040.64
615.493	17429.75
615.688	16846.08
615.884	17263.86
616.079	17018.11
616.274	16837.89
616.47	17237.24
616.665	16811.26
616.86	17145.08
617.055	16977.15
617.25	16815.36
617.445	17167.61
617.641	16739.58
617.836	16530.69
618.031	16444.68
618.226	16594.18
618.421	16430.34
618.616	16639.23
618.811	16379.14
619.006	16592.13
619.201	16061.71
619.396	16274.7
619.591	16237.83
619.786	16325.89
619.981	15793.42
620.176	15904.01
620.371	15899.92
620.566	15961.36
620.761	15942.92
620.956	15705.36
621.151	15465.75
621.346	15469.84
621.541	15285.53
621.735	15566.1
621.93	15441.17
622.125	15373.59
622.32	14935.32
622.515	15133.98
622.709	14949.66
622.904	14781.73
623.099	14816.54
623.294	14902.56
623.488	14757.15
623.683	14499.11
623.878	14497.06
624.072	14521.63
624.267	14411.04
624.462	14433.57
624.656	14155.05
624.851	14114.09
625.046	14122.28
625.24	13999.4
625.435	13960.49
625.629	13882.67
625.824	13946.16
626.018	13776.17
626.213	13505.84
626.407	13614.38
626.602	13440.31
626.796	13634.86
626.991	13380.92
627.185	13370.68
627.38	13229.37
627.574	13073.72
627.768	13307.19
627.963	12930.36
628.157	12973.37
628.352	13081.91
628.546	12905.79
628.74	12811.58
628.935	12602.69
629.129	12666.17
629.323	12516.67
629.517	12318.02
629.712	12451.14
629.906	12524.86
630.1	12211.53
630.294	12344.64
630.489	11984.2
630.683	12049.74
630.877	11906.38
631.071	11869.51
631.265	12098.89
631.459	11711.82
631.653	11820.36
631.848	11896.14
632.042	11703.63
632.236	11656.53
632.43	11586.9
632.624	11699.53
632.818	11674.96
633.012	11365.71
633.206	11279.7
633.4	11353.43
633.594	11355.47
633.788	11386.19
633.982	11181.4
634.176	11140.44
634.369	10976.6
634.563	10800.48
634.757	10857.82
634.951	10935.64
635.145	10859.87
635.339	11109.72
635.533	10749.28
635.726	10581.34
635.92	10628.45
636.114	10546.53
636.308	10444.13
636.501	10558.81
636.695	10446.18
636.889	10419.55
637.083	10151.27
637.276	10198.37
637.47	10112.36
637.664	10128.74
637.857	10184.04
638.051	10073.45
638.244	9895.27
638.438	9907.56
638.632	9866.6
638.825	9817.45
639.019	9610.61
639.212	9827.69
639.406	9807.21
639.599	9674.09
639.793	9565.55
639.986	9387.38
640.18	9299.31
640.373	9254.26
640.567	9321.84
640.76	9141.62
640.954	9284.98
641.147	9049.46
641.34	9260.4
641.534	8971.64
641.727	9004.41
641.92	8893.82
642.114	8813.95
642.307	8824.19
642.5	8811.9
642.694	8600.96
642.887	8807.8
643.08	8674.68
643.273	8639.87
643.467	8635.77
643.66	8592.76
643.853	8453.5
644.046	8273.28
644.239	8242.56
644.432	8301.95
644.626	8172.93
644.819	8250.75
645.012	8224.13
645.205	8109.44
645.398	8185.22
645.591	7914.89
645.784	8134.02
645.977	7935.37
646.17	8025.48
646.363	7830.92
646.556	7644.56
646.749	7708.04
646.942	7722.38
647.135	7624.08
647.328	7822.73
647.521	7628.17
647.714	7419.28
647.907	7519.63
648.099	7554.44
648.292	7470.48
648.485	7224.72
648.678	7333.26
648.871	7318.93
649.064	7237.01
649.256	7069.08
649.449	7112.08
649.642	7208.34
649.835	7159.19
650.027	7171.47
650.22	6952.34
650.413	6929.81
650.605	7058.84
650.798	6950.29
650.991	6770.07
651.183	6792.6
651.376	6837.66
651.568	6841.75
651.761	6716.83
651.954	6671.77
652.146	6624.67
652.339	6616.48
652.531	6479.26
652.724	6614.43
652.916	6333.86
653.109	6325.66
653.301	6565.28
653.494	6309.28
653.686	6258.08
653.879	6366.62
654.071	6167.97
654.263	6208.93
654.456	6385.05
654.648	6155.68
654.84	6081.96
655.033	6110.63
655.225	6122.91
655.417	6108.58
655.61	6102.43
655.802	5989.8
655.994	5799.34
656.186	5856.68
656.379	5848.49
656.571	5895.59
656.763	5709.22
656.955	5735.85
657.148	5674.41
657.34	5799.34
657.532	5506.48
657.724	5506.48
657.916	5760.42
658.108	5610.92
658.3	5410.22
658.492	5463.47
658.684	5373.36
658.876	5402.03
659.068	5377.45
659.26	5350.83
659.452	5367.21
659.644	5369.26
659.836	5268.91
660.028	5254.58
660.22	5170.61
660.412	5039.54
660.604	5098.93
660.796	5117.36
660.988	5100.98
661.18	5111.22
661.372	4928.95
661.563	4910.52
661.755	5043.64
661.947	4867.51
662.139	4920.76
662.331	4933.04
662.522	4691.38
662.714	5033.4
662.906	4816.31
663.097	4765.11
663.289	4722.1
663.481	4705.72
663.673	4804.02
663.864	4613.56
664.056	4705.72
664.247	4564.41
664.439	4494.78
664.631	4435.39
664.822	4685.24
665.014	4507.07
665.205	4443.58
665.397	4390.33
665.588	4402.62
665.78	4414.91
665.971	4464.06
666.163	4525.5
666.354	4292.03
666.546	4347.33
666.737	4287.93
666.929	4298.17
667.12	4203.97
667.311	4259.26
667.503	4169.15
667.694	4144.58
667.885	4191.68
668.077	4167.1
668.268	4214.21
668.459	4070.85
668.651	4009.41
668.842	3853.77
669.033	4109.76
669.224	3851.72
669.416	3947.97
669.607	3984.84
669.798	3847.62
669.989	4140.48
670.18	3988.93
670.371	4011.46
670.563	4021.7
670.754	3923.4
670.945	3773.89
671.136	3812.81
671.327	3780.04
671.518	3894.72
671.709	3835.33
671.9	3894.72
672.091	3685.83
672.282	3831.24
672.473	3737.03
672.664	3706.31
672.855	3753.41
673.046	3579.34
673.237	3728.84
673.428	3689.93
673.619	3610.06
673.809	3579.34
674	3507.66
674.191	3773.89
674.382	3565
674.573	3626.44
674.764	3466.7
674.954	3474.89
675.145	3462.6
675.336	3544.52
675.527	3491.27
675.717	3440.08
675.908	3509.71
676.099	3392.97
676.289	3407.31
676.48	3374.54
676.671	3341.77
676.861	3562.95
677.052	3321.29
677.243	3300.81
677.433	3399.12
677.624	3245.52
677.814	3321.29
678.005	3401.16
678.195	3294.67
678.386	3263.95
678.576	3214.8
678.767	3376.59
678.957	3202.51
679.148	3263.95
679.338	3345.87
679.529	3296.72
679.719	3245.52
679.909	3321.29
680.1	3177.94
680.29	3083.73
680.481	3243.47
680.671	3306.96
680.861	3112.4
681.052	3141.07
681.242	3014.1
681.432	3182.03
681.622	3085.78
681.813	3061.2
682.003	3077.59
682.193	3128.78
682.383	3165.65
682.573	3096.02
682.764	2991.57
682.954	3108.3
683.144	3096.02
683.334	3036.63
683.524	3079.63
683.714	3104.21
683.904	2991.57
684.094	3089.87
684.284	3098.06
684.474	2917.84
684.664	2962.9
684.854	2891.22
685.044	2969.04
685.234	2911.7
685.424	2899.41
685.614	2932.18
685.804	2876.88
685.994	2891.22
686.184	2878.93
686.374	2844.12
686.564	2866.64
686.753	2905.56
686.943	2754.01
687.133	2864.6
687.323	2811.35
687.513	2883.03
687.702	2887.12
687.892	2977.23
688.082	2817.49
688.272	2911.7
688.461	2923.99
688.651	2966.99
688.841	2801.11
689.03	2723.29
689.22	2856.4
689.41	2721.24
689.599	2727.38
689.789	2694.61
689.979	2954.71
690.168	2805.21
690.358	2751.96
690.547	2637.27
690.737	2780.63
690.926	2733.53
691.116	2741.72
691.305	2885.08
691.495	2561.5
691.684	2719.19
691.874	2751.96
692.063	2620.89
692.252	2694.61
692.442	2573.78
692.631	2624.98
692.82	2620.89
693.01	2770.39
693.199	2756.05
693.388	2635.22
693.578	2739.67
693.767	2674.14
693.956	2674.14
694.146	2745.81
694.335	2600.41
694.524	2622.94
694.713	2631.13
694.902	2745.81
695.092	2631.13
695.281	2622.94
695.47	2706.9
695.659	2618.84
695.848	2627.03
696.037	2706.9
696.226	2678.23
696.415	2686.42
696.604	2657.75
696.793	2471.39
696.982	2614.74
697.171	2571.74
697.36	2686.42
697.549	2612.7
697.738	2614.74
697.927	2579.93
698.116	2622.94
698.305	2538.97
698.494	2553.31
698.683	2475.48
698.872	2538.97
699.061	2704.85
699.25	2579.93
699.438	2477.53
699.627	2518.49
699.816	2565.59
700.005	2573.78
700.193	2543.07
700.382	2754.01
700.571	2547.16
700.76	2528.73
700.948	2541.02
701.137	2602.46
701.326	2541.02
701.514	2475.48
701.703	2522.59
701.892	2532.83
702.08	2536.92
702.269	2504.15
702.457	2498.01
702.646	2471.39
702.834	2622.94
703.023	2551.26
703.212	2547.16
703.4	2596.31
703.589	2541.02
703.777	2465.24
703.965	2452.95
704.154	2405.85
704.342	2452.95
704.531	2391.52
704.719	2313.69
704.907	2446.81
705.096	2323.93
705.284	2418.14
705.472	2442.71
705.661	2389.47
705.849	2391.52
706.037	2475.48
706.226	2473.43
706.414	2319.84
706.602	2405.85
706.79	2340.32
706.979	2350.56
707.167	2450.91
707.355	2383.32
707.543	2285.02
707.731	2354.65
707.919	2205.15
708.107	2303.45
708.296	2403.8
708.484	2242.01
708.672	2285.02
708.86	2358.75
709.048	2307.55
709.236	2352.6
709.424	2252.25
709.612	2248.16
709.8	2196.96
709.988	2158.05
710.176	2262.49
710.364	2248.16
710.551	2190.81
710.739	2297.31
710.927	2270.69
711.115	2182.62
711.303	2094.56
711.491	2162.14
711.679	2100.7
711.866	2164.19
712.054	2137.57
712.242	2080.22
712.43	2121.18
712.617	2221.53
712.805	2131.42
712.993	2117.09
713.181	2090.46
713.368	2213.34
713.556	2094.56
713.744	2020.83
713.931	2022.88
714.119	2100.7
714.306	2022.88
714.494	1910.24
714.682	1949.15
714.869	2104.8
715.057	2117.09
715.244	1973.73
715.432	2031.07
715.619	2041.31
715.807	2041.31
715.994	1953.25
716.182	1981.92
716.369	1910.24
716.556	2031.07
716.744	2051.55
716.931	1908.19
717.119	1848.8
717.306	1996.26
717.493	1928.67
717.681	1924.58
717.868	2012.64
718.055	1893.86
718.242	1883.62
718.43	1926.63
718.617	1959.39
718.804	1842.66
718.991	1834.47
719.179	1846.76
719.366	1850.85
719.553	1813.99
719.74	1895.91
719.927	1811.94
720.114	1811.94
720.301	1871.33
720.488	1785.32
720.676	1770.98
720.863	1838.56
721.05	1820.13
721.237	1723.88
721.424	1777.12
721.611	1736.17
721.798	1785.32
721.985	1785.32
722.172	1678.82
722.358	1848.8
722.545	1703.4
722.732	1738.21
722.919	1734.12
723.106	1713.64
723.293	1625.58
723.48	1787.36
723.667	1641.96
723.853	1629.67
724.04	1727.97
724.227	1625.58
724.414	1625.58
724.6	1670.63
724.787	1736.17
724.974	1603.05
725.161	1754.6
725.347	1586.66
725.534	1603.05
725.72	1582.57
725.907	1596.9
726.094	1629.67
726.28	1582.57
726.467	1596.9
726.653	1512.94
726.84	1549.8
727.027	1545.7
727.213	1580.52
727.4	1615.34
727.586	1521.13
727.773	1545.7
727.959	1590.76
728.145	1578.47
728.332	1586.66
728.518	1478.12
728.705	1465.83
728.891	1494.51
729.077	1609.19
729.264	1533.42
729.45	1500.65
729.636	1461.74
729.823	1455.59
730.009	1566.18
730.195	1424.87
730.382	1486.31
730.568	1545.7
730.754	1482.22
730.94	1474.03
731.126	1424.87
731.313	1508.84
731.499	1508.84
731.685	1449.45
731.871	1410.54
732.057	1381.87
732.243	1388.01
732.429	1453.55
732.615	1383.91
732.801	1445.35
732.987	1424.87
733.173	1461.74
733.359	1435.11
733.545	1402.35
733.731	1420.78
733.917	1441.26
734.103	1345
734.289	1367.53
734.475	1359.34
734.661	1385.96
734.847	1414.63
735.033	1365.48
735.219	1279.47
735.404	1371.63
735.59	1457.64
735.776	1461.74
735.962	1353.2
736.148	1390.06
736.333	1385.96
736.519	1304.04
736.705	1328.62
736.89	1289.71
737.076	1320.43
737.262	1252.84
737.447	1334.76
737.633	1287.66
737.819	1279.47
738.004	1302
738.19	1283.56
738.375	1287.66
738.561	1304.04
738.747	1347.05
738.932	1265.13
739.118	1228.27
739.303	1209.84
739.489	1252.84
739.674	1162.73
739.859	1220.08
740.045	1179.12
740.23	1234.41
740.416	1150.45
740.601	1250.8
740.786	1199.6
740.972	1201.65
741.157	1228.27
741.342	1238.51
741.528	1310.19
741.713	1207.79
741.898	1254.89
742.084	1177.07
742.269	1172.97
742.454	1097.2
742.639	1115.63
742.824	1289.71
743.01	1213.93
743.195	1209.84
743.38	1181.17
743.565	1150.45
743.75	1123.82
743.935	1086.96
744.12	1154.54
744.305	1144.3
744.49	1089.01
744.675	1058.29
744.86	1068.53
745.045	1017.33
745.23	1099.25
745.415	982.51
745.6	1101.3
745.785	1056.24
745.97	1115.63
746.155	1048.05
746.34	1031.66
746.525	1093.1
746.71	1082.86
746.895	992.75
747.079	1013.23
747.264	978.42
747.449	1054.19
747.634	1066.48
747.819	990.7
748.003	1027.57
748.188	1011.18
748.373	957.94
748.557	994.8
748.742	968.18
748.927	1015.28
749.111	955.89
749.296	939.51
749.481	933.36
749.665	894.45
749.85	855.54
750.034	919.03
750.219	933.36
750.404	933.36
750.588	941.55
750.773	986.61
750.957	927.22
751.141	923.12
751.326	927.22
751.51	878.07
751.695	884.21
751.879	951.79
752.064	869.87
752.248	835.06
752.432	876.02
752.617	804.34
752.801	837.11
752.985	859.63
753.17	767.48
753.354	843.25
753.538	744.95
753.722	861.68
753.907	871.92
754.091	937.46
754.275	851.44
754.459	843.25
754.643	783.86
754.828	790
755.012	730.61
755.196	781.81
755.38	808.44
755.564	675.32
755.748	677.37
755.932	759.28
756.116	812.53
756.3	742.9
756.484	706.04
756.668	708.09
756.852	716.28
757.036	738.8
757.22	804.34
757.404	712.18
757.588	615.93
757.772	689.65
757.956	650.74
758.14	644.6
758.323	691.7
758.507	611.83
758.691	720.37
758.875	677.37
759.059	802.29
759.242	669.17
759.426	663.03
759.61	658.93
759.794	726.52
759.977	669.17
760.161	689.65
760.345	706.04
760.528	620.02
760.712	667.13
760.895	607.73
761.079	683.51
761.263	599.54
761.446	564.73
761.63	597.49
761.813	632.31
761.997	663.03
762.18	546.3
762.364	617.97
762.547	564.73
762.731	550.39
762.914	574.97
763.098	597.49
763.281	562.68
763.464	597.49
763.648	548.34
763.831	636.41
764.015	603.64
764.198	583.16
764.381	648.69
764.564	640.5
764.748	613.88
764.931	654.84
765.114	513.53
765.297	568.82
765.481	613.88
765.664	597.49
765.847	511.48
766.03	517.62
766.213	546.3
766.397	497.14
766.58	570.87
766.763	708.09
766.946	546.3
767.129	642.55
767.312	568.82
767.495	548.34
767.678	552.44
767.861	568.82
768.044	624.12
768.227	570.87
768.41	484.86
768.593	587.26
768.776	562.68
768.959	507.38
769.142	640.5
769.324	583.16
769.507	468.47
769.69	599.54
769.873	501.24
770.056	542.2
770.239	523.77
770.421	501.24
770.604	556.54
770.787	509.43
770.97	491
771.152	536.06
771.335	542.2
771.518	478.71
771.7	466.42
771.883	527.86
772.066	400.89
772.248	376.31
772.431	511.48
772.613	534.01
772.796	478.71
772.978	523.77
773.161	456.19
773.343	429.56
773.526	488.95
773.708	433.66
773.891	445.95
774.073	458.23
774.256	499.19
774.438	454.14
774.621	404.99
774.803	519.67
774.985	484.86
775.168	525.82
775.35	540.15
775.532	409.08
775.715	480.76
775.897	443.9
776.079	419.32
776.261	462.33
776.444	386.55
776.626	488.95
776.808	482.81
776.99	431.61
777.173	390.65
777.355	343.55
777.537	486.9
777.719	400.89
777.901	421.37
778.083	378.36
778.265	400.89
778.447	445.95
778.629	374.27
778.811	374.27
778.993	407.03
779.175	419.32
779.357	384.51
779.539	429.56
779.721	427.51
779.903	355.83
780.085	357.88
780.267	382.46
780.449	400.89
780.631	300.54
780.812	398.84
780.994	364.03
781.176	380.41
781.358	359.93
781.54	290.3
781.721	323.07
781.903	372.22
782.085	329.21
782.267	349.69
782.448	368.12
782.63	294.4
782.812	411.13
782.993	316.92
783.175	353.79
783.357	361.98
783.538	380.41
783.72	271.87
783.901	333.31
784.083	304.64
784.264	273.92
784.446	230.91
784.627	310.78
784.809	321.02
784.99	372.22
785.172	278.01
785.353	316.92
785.535	263.68
785.716	339.45
785.897	267.77
786.079	329.21
786.26	343.55
786.441	331.26
786.623	290.3
786.804	278.01
786.985	286.2
787.167	329.21
787.348	237.05
787.529	253.44
787.71	257.53
787.891	247.29
788.073	278.01
788.254	194.05
788.435	253.44
788.616	194.05
788.797	257.53
788.978	288.25
789.159	288.25
789.34	239.1
789.522	314.88
789.703	222.72
789.884	261.63
790.065	192
790.246	343.55
790.427	247.29
790.607	259.58
790.788	327.16
790.969	239.1
791.15	206.33
791.331	275.96
791.512	171.52
791.693	216.57
791.874	210.43
792.054	265.72
792.235	232.96
792.416	257.53
792.597	173.57
792.778	232.96
792.958	292.35
793.139	286.2
793.32	206.33
793.5	187.9
793.681	175.61
793.862	142.85
794.042	144.89
794.223	247.29
794.404	155.13
794.584	155.13
794.765	210.43
794.945	224.76
795.126	151.04
795.306	239.1
795.487	171.52
795.667	169.47
795.848	194.05
796.028	239.1
796.209	214.52
796.389	165.37
796.57	208.38
796.75	198.14
796.93	210.43
797.111	216.57
797.291	241.15
797.471	173.57
797.652	159.23
797.832	237.05
798.012	245.24
798.192	116.22
798.373	157.18
798.553	196.09
798.733	140.8
798.913	130.56
799.093	200.19
799.274	122.37
799.454	194.05
799.634	206.33
799.814	216.57
799.994	175.61
800.174	177.66
800.354	202.24
800.534	146.94
800.714	163.33
800.894	101.89
801.074	171.52
801.254	173.57
801.434	247.29
801.614	134.65
801.794	140.8
801.974	372.22
802.154	136.7
802.334	198.14
802.514	118.27
802.693	192
802.873	198.14
803.053	173.57
803.233	75.26
803.413	167.42
803.592	118.27
803.772	153.09
803.952	138.75
804.131	140.8
804.311	126.46
804.491	171.52
804.67	169.47
804.85	159.23
805.03	136.7
805.209	187.9
805.389	161.28
805.568	134.65
805.748	151.04
805.928	122.37
806.107	75.26
806.287	126.46
806.466	114.17
806.646	194.05
806.825	40.45
807.004	142.85
807.184	181.76
807.363	204.28
807.543	38.4
807.722	101.89
807.901	93.69
808.081	144.89
808.26	130.56
808.439	192
808.619	122.37
808.798	202.24
808.977	81.41
809.156	206.33
809.336	146.94
809.515	114.17
809.694	101.89
809.873	65.02
810.052	114.17
810.231	128.51
810.411	58.88
810.59	132.61
810.769	163.33
810.948	60.93
811.127	116.22
811.306	108.03
811.485	175.61
811.664	134.65
811.843	124.41
812.022	89.6
812.201	73.21
812.38	105.98
812.559	134.65
812.737	130.56
812.916	132.61
813.095	126.46
813.274	81.41
813.453	101.89
813.632	126.46
813.811	81.41
813.989	85.5
814.168	116.22
814.347	105.98
814.526	116.22
814.704	132.61
814.883	155.13
815.062	58.88
815.24	105.98
815.419	75.26
815.598	138.75
815.776	130.56
815.955	116.22
816.133	11.78
816.312	122.37
816.49	114.17
816.669	81.41
816.847	138.75
817.026	89.6
817.204	103.93
817.383	122.37
817.561	130.56
817.74	40.45
817.918	138.75
818.097	67.07
818.275	97.79
818.453	130.56
818.632	65.02
818.81	32.26
818.988	85.5
819.167	110.08
819.345	97.79
819.523	52.74
819.701	48.64
819.879	54.78
820.058	105.98
820.236	-29.18
820.414	128.51
820.592	83.45
820.77	71.17
820.948	54.78
821.127	83.45
821.305	108.03
821.483	75.26
821.661	151.04
821.839	101.89
822.017	81.41
822.195	118.27
822.373	75.26
822.551	-12.8
822.729	151.04
822.907	65.02
823.085	114.17
823.262	17.92
823.44	153.09
823.618	54.78
823.796	97.79
823.974	73.21
824.152	48.64
824.329	99.84
824.507	79.36
824.685	79.36
824.863	58.88
825.04	40.45
825.218	60.93
825.396	77.31
825.574	101.89
825.751	69.12
825.929	44.54
826.107	58.88
826.284	34.3
826.462	165.37
826.639	138.75
826.817	1.54
826.994	114.17
827.172	97.79
827.349	130.56
827.527	54.78
827.704	85.5
827.882	67.07
828.059	15.87
828.237	26.11
828.414	83.45
828.591	9.73
828.769	179.71
828.946	81.41
829.124	101.89
829.301	124.41
829.478	19.97
829.655	122.37
829.833	73.21
830.01	28.16
830.187	62.98
830.364	24.06
830.542	112.13
830.719	32.26
830.896	171.52
831.073	32.26
831.25	93.69
831.427	60.93
831.604	19.97
831.782	24.06
831.959	54.78
832.136	97.79
832.313	124.41
832.49	60.93
832.667	114.17
832.844	26.11
833.021	56.83
833.198	50.69
833.374	26.11
833.551	69.12
833.728	40.45
833.905	26.11
834.082	60.93
834.259	17.92
834.436	85.5
834.612	81.41
834.789	17.92
834.966	73.21
835.143	140.8
835.319	46.59
835.496	136.7
835.673	30.21
835.85	73.21
836.026	67.07
836.203	122.37
836.38	50.69
836.556	81.41
836.733	58.88
836.909	85.5
837.086	62.98
837.262	91.65
837.439	13.82
837.616	-8.7
837.792	5.63
837.968	60.93
838.145	83.45
838.321	142.85
838.498	56.83
838.674	28.16
838.851	93.69
839.027	71.17
839.203	24.06
839.38	-20.99
839.556	81.41
839.732	85.5
839.909	42.5
840.085	67.07
840.261	34.3
840.437	105.98
840.614	52.74
840.79	28.16
840.966	46.59
841.142	42.5
841.318	17.92
841.494	54.78
841.671	116.22
841.847	48.64
842.023	11.78
842.199	44.54
842.375	108.03
842.551	15.87
842.727	-12.8
842.903	7.68
843.079	1.54
843.255	99.84
843.431	17.92
843.607	134.65
843.783	-20.99
843.959	83.45
844.134	40.45
844.31	71.17
844.486	79.36
844.662	24.06
844.838	38.4
845.013	62.98
845.189	77.31
845.365	108.03
845.541	83.45
845.716	69.12
845.892	75.26
846.068	34.3
846.244	-16.9
846.419	110.08
846.595	-0.51
846.77	15.87
846.946	17.92
847.122	81.41
847.297	-2.56
847.473	67.07
847.648	7.68
847.824	28.16
847.999	-43.52
848.175	24.06
848.35	122.37
848.526	11.78
848.701	22.02
848.876	-14.85
849.052	85.5
849.227	34.3
849.403	-14.85
849.578	77.31
849.753	69.12
849.929	48.64
850.104	36.35
850.279	67.07
850.454	83.45
850.63	69.12
850.805	-25.09
850.98	46.59
851.155	56.83
851.33	19.97
851.505	-10.75
851.681	34.3
851.856	42.5
852.031	19.97
852.206	48.64
852.381	38.4
852.556	7.68
852.731	1.54
852.906	42.5
853.081	54.78
853.256	54.78
853.431	65.02
853.606	26.11
853.781	81.41
853.956	34.3
854.131	42.5
854.305	52.74
854.48	42.5
854.655	-0.51
854.83	-8.7
855.005	3.58
855.18	22.02
855.354	81.41
855.529	73.21
855.704	73.21
855.879	34.3
856.053	65.02
856.228	-4.61
856.403	32.26
856.577	60.93
856.752	24.06
856.926	75.26
857.101	28.16
857.276	26.11
857.45	30.21
857.625	65.02
857.799	48.64
857.974	83.45
858.148	19.97
858.323	24.06
858.497	30.21
858.672	91.65
858.846	50.69
859.02	81.41
859.195	-41.47
859.369	73.21
859.543	58.88
859.718	67.07
859.892	-6.66
860.066	9.73
860.241	26.11
860.415	73.21
860.589	-2.56
860.763	-39.42
860.938	60.93
861.112	85.5
861.286	13.82
861.46	40.45
861.634	34.3
861.808	83.45
861.982	-8.7
862.157	26.11
862.331	36.35
862.505	-23.04
862.679	97.79
862.853	67.07
863.027	-16.9
863.201	116.22
863.375	110.08
863.549	44.54
863.722	65.02
863.896	9.73
864.07	50.69
864.244	105.98
864.418	28.16
864.592	5.63
864.766	28.16
864.939	5.63
865.113	17.92
865.287	36.35
865.461	-45.57
865.634	81.41
865.808	24.06
865.982	42.5
866.156	48.64
866.329	17.92
866.503	85.5
866.676	81.41
866.85	34.3
867.024	85.5
867.197	60.93
867.371	60.93
867.544	-6.66
867.718	-8.7
867.891	44.54
868.065	38.4
868.238	91.65
868.412	58.88
868.585	26.11
868.759	65.02
868.932	40.45
869.105	75.26
869.279	91.65
869.452	-23.04
869.625	32.26
869.799	15.87
869.972	-23.04
870.145	93.69
870.319	30.21
870.492	-14.85
870.665	3.58
870.838	69.12
871.011	11.78
871.185	17.92
871.358	-29.18
871.531	93.69
871.704	-6.66
871.877	48.64
872.05	13.82
872.223	58.88
872.396	52.74
872.569	81.41
872.742	3.58
872.915	60.93
873.088	24.06
873.261	56.83
873.434	9.73
873.607	-0.51
873.78	1.54
873.953	42.5
874.126	54.78
874.299	-8.7
874.471	62.98
874.644	3.58
874.817	89.6
874.99	108.03
875.163	1.54
875.335	-12.8
875.508	44.54
875.681	73.21
875.853	-2.56
876.026	17.92
876.199	17.92
876.371	75.26
876.544	114.17
876.717	60.93
876.889	44.54
877.062	28.16
877.234	36.35
877.407	-29.18
877.579	11.78
877.752	101.89
877.924	48.64
878.097	67.07
878.269	50.69
878.442	71.17
878.614	44.54
878.786	99.84
878.959	-27.14
879.131	60.93
879.303	30.21
879.476	34.3
879.648	22.02
879.82	36.35
879.993	56.83
880.165	-41.47
880.337	-12.8
880.509	22.02
880.681	22.02
880.854	1.54
881.026	-12.8
881.198	32.26
881.37	-64
881.542	38.4
881.714	44.54
881.886	26.11
882.058	26.11
882.23	-33.28
882.402	1.54
882.574	44.54
882.746	19.97
882.918	19.97
883.09	15.87
883.262	32.26
883.434	126.46
883.606	-10.75
883.778	99.84
883.95	24.06
884.122	30.21
884.293	99.84
884.465	9.73
884.637	77.31
884.809	-0.51
884.98	3.58
885.152	73.21
885.324	36.35
885.496	-0.51
885.667	-35.33
885.839	-8.7
886.011	40.45
886.182	-12.8
886.354	-33.28
886.525	28.16
886.697	58.88
886.869	7.68
887.04	71.17
887.212	50.69
887.383	50.69
887.555	-16.9
887.726	22.02
887.897	24.06
888.069	22.02
888.24	36.35
888.412	71.17
888.583	65.02
888.754	40.45
888.926	67.07
889.097	24.06
889.268	48.64
889.44	7.68
889.611	-6.66
889.782	1.54
889.953	22.02
890.125	95.74
890.296	11.78
890.467	32.26
890.638	42.5
890.809	58.88
890.98	60.93
891.151	58.88
891.323	-10.75
891.494	13.82
891.665	44.54
891.836	34.3
892.007	-43.52
892.178	69.12
892.349	-47.62
892.52	42.5
892.691	11.78
892.862	11.78
893.032	7.68
893.203	77.31
893.374	-6.66
893.545	7.68
893.716	105.98
893.887	99.84
894.057	40.45
894.228	58.88
894.399	42.5
894.57	13.82
894.74	38.4
894.911	46.59
895.082	19.97
895.253	24.06
895.423	75.26
895.594	89.6
895.764	-31.23
895.935	38.4
896.106	24.06
896.276	19.97
896.447	19.97
896.617	7.68
896.788	-55.81
896.958	15.87
897.129	26.11
897.299	-2.56
897.47	46.59
897.64	40.45
897.81	40.45
897.981	-16.9
898.151	73.21
898.322	17.92
898.492	40.45
898.662	87.55
898.832	1.54
899.003	22.02
899.173	11.78
899.343	-23.04
899.513	-8.7
