Data from USB4F104151__115__13-54-58-107.txt Node

Date: Thu Mar 13 13:54:58 EDT 2025
User: louis
Spectrometer: USB4F10415
Trigger mode: 4
Integration Time (sec): 1.000000E-2
Scans to average: 1
Electric dark correction enabled: true
Nonlinearity correction enabled: false
Boxcar width: 0
XAxis mode: Wavelengths
Number of Pixels in Spectrum: 3648
>>>>>Begin Spectral Data<<<<<
178.204	-27.48
178.424	-27.48
178.644	-27.48
178.864	-45.91
179.084	-41.81
179.304	-41.81
179.524	62.63
179.744	5.29
179.964	62.63
180.184	-43.86
180.404	21.67
180.624	1.19
180.844	25.77
181.064	17.58
181.283	-50
181.503	-29.52
181.723	-31.57
181.943	-43.86
182.163	-33.62
182.383	23.72
182.602	122.02
182.822	-7
183.042	60.59
183.262	58.54
183.482	87.21
183.701	-31.57
183.921	48.3
184.141	52.39
184.361	1.19
184.58	5.29
184.8	23.72
185.02	15.53
185.239	76.97
185.459	87.21
185.679	62.63
185.898	23.72
186.118	29.87
186.338	5.29
186.557	11.43
186.777	66.73
186.997	54.44
187.216	54.44
187.436	-27.48
187.655	3.24
187.875	38.06
188.095	27.82
188.314	74.92
188.534	52.39
188.753	-0.85
188.973	17.58
189.192	-0.85
189.412	50.35
189.631	74.92
189.851	-47.96
190.07	48.3
190.29	-47.96
190.509	-11.09
190.729	91.31
190.948	132.26
191.168	136.36
191.387	64.68
191.607	23.72
191.826	-17.24
192.045	9.39
192.265	-35.67
192.484	-25.43
192.704	9.39
192.923	-13.14
193.142	52.39
193.362	-19.29
193.581	58.54
193.8	-9.05
194.02	46.25
194.239	5.29
194.458	36.01
194.678	-15.19
194.897	23.72
195.116	1.19
195.335	83.11
195.555	15.53
195.774	-9.05
195.993	-54.1
196.212	72.87
196.432	-13.14
196.651	27.82
196.87	5.29
197.089	21.67
197.308	48.3
197.528	54.44
197.747	79.02
197.966	33.96
198.185	48.3
198.404	31.91
198.623	13.48
198.842	31.91
199.062	101.55
199.281	33.96
199.5	-33.62
199.719	83.11
199.938	99.5
200.157	25.77
200.376	23.72
200.595	-11.09
200.814	5.29
201.033	52.39
201.252	11.43
201.471	21.67
201.69	1.19
201.909	17.58
202.128	13.48
202.347	42.15
202.566	40.11
202.785	-7
203.004	-35.67
203.223	50.35
203.442	-4.95
203.661	79.02
203.879	68.78
204.098	40.11
204.317	13.48
204.536	-21.33
204.755	21.67
204.974	60.59
205.193	52.39
205.411	91.31
205.63	72.87
205.849	36.01
206.068	31.91
206.287	9.39
206.505	68.78
206.724	-25.43
206.943	-37.72
207.162	7.34
207.381	46.25
207.599	91.31
207.818	3.24
208.037	128.17
208.255	-15.19
208.474	-43.86
208.693	-41.81
208.911	33.96
209.13	7.34
209.349	74.92
209.567	13.48
209.786	48.3
210.005	-4.95
210.223	-47.96
210.442	9.39
210.661	3.24
210.879	-11.09
211.098	21.67
211.316	83.11
211.535	-9.05
211.753	-43.86
211.972	31.91
212.191	31.91
212.409	-25.43
212.628	87.21
212.846	21.67
213.065	29.87
213.283	-27.48
213.502	3.24
213.72	25.77
213.938	19.63
214.157	29.87
214.375	27.82
214.594	23.72
214.812	1.19
215.031	3.24
215.249	21.67
215.467	70.83
215.686	-74.58
215.904	70.83
216.122	9.39
216.341	25.77
216.559	44.2
216.778	-7
216.996	-25.43
217.214	15.53
217.432	-4.95
217.651	33.96
217.869	52.39
218.087	17.58
218.306	-43.86
218.524	-4.95
218.742	11.43
218.96	-7
219.179	29.87
219.397	-11.09
219.615	74.92
219.833	40.11
220.051	19.63
220.27	68.78
220.488	7.34
220.706	74.92
220.924	-15.19
221.142	56.49
221.36	33.96
221.578	-4.95
221.796	15.53
222.015	-25.43
222.233	13.48
222.451	46.25
222.669	-9.05
222.887	15.53
223.105	-21.33
223.323	15.53
223.541	-23.38
223.759	-2.9
223.977	29.87
224.195	72.87
224.413	46.25
224.631	36.01
224.849	19.63
225.067	1.19
225.285	-9.05
225.503	89.26
225.721	-52.05
225.939	13.48
226.157	17.58
226.375	25.77
226.592	29.87
226.81	13.48
227.028	33.96
227.246	105.64
227.464	1.19
227.682	3.24
227.9	60.59
228.117	38.06
228.335	-17.24
228.553	-58.2
228.771	3.24
228.989	23.72
229.206	11.43
229.424	64.68
229.642	-0.85
229.86	36.01
230.077	23.72
230.295	-25.43
230.513	-43.86
230.731	25.77
230.948	-43.86
231.166	5.29
231.384	29.87
231.601	-60.24
231.819	-7
232.037	122.02
232.254	23.72
232.472	5.29
232.689	72.87
232.907	-15.19
233.125	-13.14
233.342	13.48
233.56	3.24
233.777	-23.38
233.995	50.35
234.213	76.97
234.43	70.83
234.648	40.11
234.865	-17.24
235.083	74.92
235.3	38.06
235.518	13.48
235.735	-29.52
235.953	29.87
236.17	31.91
236.388	46.25
236.605	17.58
236.822	44.2
237.04	3.24
237.257	66.73
237.475	-13.14
237.692	17.58
237.909	52.39
238.127	54.44
238.344	46.25
238.562	19.63
238.779	33.96
238.996	-39.76
239.214	-23.38
239.431	40.11
239.648	13.48
239.865	58.54
240.083	-9.05
240.3	-41.81
240.517	-21.33
240.735	-17.24
240.952	44.2
241.169	87.21
241.386	58.54
241.603	52.39
241.821	-4.95
242.038	15.53
242.255	-27.48
242.472	3.24
242.689	19.63
242.907	29.87
243.124	9.39
243.341	-19.29
243.558	58.54
243.775	95.4
243.992	62.63
244.209	87.21
244.426	54.44
244.643	107.69
244.86	19.63
245.078	31.91
245.295	-7
245.512	-56.15
245.729	81.07
245.946	64.68
246.163	-9.05
246.38	54.44
246.597	3.24
246.814	27.82
247.031	52.39
247.248	38.06
247.464	40.11
247.681	7.34
247.898	40.11
248.115	58.54
248.332	21.67
248.549	62.63
248.766	81.07
248.983	76.97
249.2	-2.9
249.417	74.92
249.633	68.78
249.85	72.87
250.067	-25.43
250.284	13.48
250.501	58.54
250.717	93.35
250.934	66.73
251.151	68.78
251.368	105.64
251.585	19.63
251.801	48.3
252.018	-4.95
252.235	76.97
252.451	46.25
252.668	89.26
252.885	1.19
253.102	27.82
253.318	-35.67
253.535	76.97
253.752	-19.29
253.968	-21.33
254.185	-17.24
254.401	48.3
254.618	29.87
254.835	11.43
255.051	54.44
255.268	17.58
255.484	25.77
255.701	42.15
255.917	7.34
256.134	-11.09
256.351	29.87
256.567	50.35
256.784	72.87
257	-54.1
257.217	46.25
257.433	72.87
257.65	62.63
257.866	103.59
258.082	42.15
258.299	-78.68
258.515	25.77
258.732	38.06
258.948	56.49
259.165	44.2
259.381	7.34
259.597	31.91
259.814	5.29
260.03	17.58
260.246	38.06
260.463	27.82
260.679	3.24
260.895	9.39
261.112	89.26
261.328	31.91
261.544	3.24
261.761	-11.09
261.977	1.19
262.193	56.49
262.409	46.25
262.626	62.63
262.842	62.63
263.058	68.78
263.274	46.25
263.49	-13.14
263.707	31.91
263.923	62.63
264.139	33.96
264.355	44.2
264.571	31.91
264.787	19.63
265.004	21.67
265.22	89.26
265.436	62.63
265.652	1.19
265.868	7.34
266.084	21.67
266.3	11.43
266.516	1.19
266.732	27.82
266.948	15.53
267.164	97.45
267.38	25.77
267.596	7.34
267.812	79.02
268.028	122.02
268.244	-13.14
268.46	17.58
268.676	33.96
268.892	60.59
269.108	-50
269.324	15.53
269.54	42.15
269.756	48.3
269.972	9.39
270.188	5.29
270.403	40.11
270.619	11.43
270.835	-37.72
271.051	79.02
271.267	36.01
271.483	46.25
271.698	56.49
271.914	-19.29
272.13	29.87
272.346	52.39
272.562	58.54
272.777	40.11
272.993	-4.95
273.209	31.91
273.425	-37.72
273.64	13.48
273.856	25.77
274.072	23.72
274.287	-15.19
274.503	54.44
274.719	-7
274.934	13.48
275.15	23.72
275.366	54.44
275.581	42.15
275.797	27.82
276.012	23.72
276.228	50.35
276.444	-4.95
276.659	60.59
276.875	85.16
277.09	25.77
277.306	-17.24
277.521	48.3
277.737	44.2
277.952	11.43
278.168	7.34
278.383	44.2
278.599	3.24
278.814	70.83
279.03	-11.09
279.245	56.49
279.461	-0.85
279.676	105.64
279.892	25.77
280.107	48.3
280.322	38.06
280.538	70.83
280.753	93.35
280.969	15.53
281.184	-35.67
281.399	111.78
281.615	27.82
281.83	9.39
282.045	38.06
282.26	62.63
282.476	-19.29
282.691	38.06
282.906	9.39
283.122	44.2
283.337	21.67
283.552	27.82
283.767	64.68
283.983	95.4
284.198	-31.57
284.413	72.87
284.628	-7
284.843	56.49
285.058	48.3
285.274	29.87
285.489	21.67
285.704	117.93
285.919	64.68
286.134	40.11
286.349	23.72
286.564	-2.9
286.779	-0.85
286.995	97.45
287.21	9.39
287.425	36.01
287.64	66.73
287.855	76.97
288.07	1.19
288.285	36.01
288.5	36.01
288.715	58.54
288.93	40.11
289.145	-11.09
289.36	-11.09
289.575	-2.9
289.79	60.59
290.004	70.83
290.219	76.97
290.434	58.54
290.649	-15.19
290.864	56.49
291.079	44.2
291.294	38.06
291.509	56.49
291.724	38.06
291.938	19.63
292.153	56.49
292.368	27.82
292.583	54.44
292.798	62.63
293.012	54.44
293.227	5.29
293.442	93.35
293.657	74.92
293.871	68.78
294.086	62.63
294.301	42.15
294.516	29.87
294.73	33.96
294.945	58.54
295.16	46.25
295.374	40.11
295.589	44.2
295.804	-11.09
296.018	13.48
296.233	25.77
296.447	-2.9
296.662	29.87
296.877	7.34
297.091	15.53
297.306	72.87
297.52	66.73
297.735	-23.38
297.949	25.77
298.164	56.49
298.378	64.68
298.593	48.3
298.807	-0.85
299.022	56.49
299.236	11.43
299.451	85.16
299.665	15.53
299.88	79.02
300.094	19.63
300.309	27.82
300.523	52.39
300.737	60.59
300.952	76.97
301.166	27.82
301.381	19.63
301.595	40.11
301.809	38.06
302.024	52.39
302.238	-7
302.452	27.82
302.667	-21.33
302.881	7.34
303.095	19.63
303.309	50.35
303.524	64.68
303.738	9.39
303.952	29.87
304.166	52.39
304.381	7.34
304.595	50.35
304.809	72.87
305.023	1.19
305.237	15.53
305.452	42.15
305.666	-0.85
305.88	68.78
306.094	68.78
306.308	70.83
306.522	89.26
306.736	44.2
306.95	42.15
307.164	38.06
307.379	23.72
307.593	76.97
307.807	3.24
308.021	19.63
308.235	50.35
308.449	81.07
308.663	19.63
308.877	33.96
309.091	-11.09
309.305	27.82
309.519	21.67
309.733	-4.95
309.947	46.25
310.161	-9.05
310.374	-17.24
310.588	40.11
310.802	56.49
311.016	87.21
311.23	-2.9
311.444	19.63
311.658	33.96
311.872	64.68
312.085	89.26
312.299	15.53
312.513	11.43
312.727	46.25
312.941	44.2
313.154	-17.24
313.368	5.29
313.582	42.15
313.796	79.02
314.009	62.63
314.223	-23.38
314.437	29.87
314.651	87.21
314.864	27.82
315.078	-56.15
315.292	13.48
315.505	-17.24
315.719	79.02
315.933	87.21
316.146	17.58
316.36	23.72
316.573	44.2
316.787	60.59
317.001	-45.91
317.214	-27.48
317.428	31.91
317.641	17.58
317.855	40.11
318.068	13.48
318.282	56.49
318.495	74.92
318.709	9.39
318.922	15.53
319.136	85.16
319.349	29.87
319.563	50.35
319.776	38.06
319.99	-17.24
320.203	62.63
320.417	54.44
320.63	27.82
320.843	68.78
321.057	72.87
321.27	23.72
321.483	1.19
321.697	87.21
321.91	-41.81
322.124	36.01
322.337	13.48
322.55	29.87
322.763	117.93
322.977	21.67
323.19	-9.05
323.403	5.29
323.617	40.11
323.83	19.63
324.043	23.72
324.256	113.83
324.469	3.24
324.683	-52.05
324.896	17.58
325.109	38.06
325.322	56.49
325.535	-19.29
325.748	50.35
325.962	13.48
326.175	76.97
326.388	-11.09
326.601	40.11
326.814	1.19
327.027	17.58
327.24	60.59
327.453	-72.53
327.666	11.43
327.879	54.44
328.092	-9.05
328.305	44.2
328.518	-35.67
328.731	83.11
328.944	-4.95
329.157	44.2
329.37	74.92
329.583	21.67
329.796	58.54
330.009	1.19
330.222	79.02
330.435	38.06
330.648	72.87
330.861	1.19
331.073	-21.33
331.286	40.11
331.499	11.43
331.712	-37.72
331.925	21.67
332.138	15.53
332.35	19.63
332.563	-4.95
332.776	-25.43
332.989	-11.09
333.202	31.91
333.414	-4.95
333.627	21.67
333.84	-13.14
334.053	101.55
334.265	17.58
334.478	66.73
334.691	-11.09
334.903	56.49
335.116	7.34
335.329	48.3
335.541	62.63
335.754	60.59
335.966	-33.62
336.179	60.59
336.392	-27.48
336.604	29.87
336.817	31.91
337.029	58.54
337.242	-43.86
337.454	79.02
337.667	-25.43
337.88	64.68
338.092	81.07
338.305	62.63
338.517	17.58
338.729	21.67
338.942	62.63
339.154	76.97
339.367	-7
339.579	70.83
339.792	23.72
340.004	11.43
340.217	93.35
340.429	-0.85
340.641	66.73
340.854	-9.05
341.066	111.78
341.278	44.2
341.491	33.96
341.703	52.39
341.915	38.06
342.128	70.83
342.34	36.01
342.552	17.58
342.764	11.43
342.977	11.43
343.189	58.54
343.401	68.78
343.613	-21.33
343.826	58.54
344.038	44.2
344.25	36.01
344.462	15.53
344.674	27.82
344.886	29.87
345.099	38.06
345.311	7.34
345.523	83.11
345.735	56.49
345.947	124.07
346.159	-47.96
346.371	11.43
346.583	66.73
346.795	50.35
347.007	3.24
347.219	-11.09
347.431	52.39
347.643	7.34
347.855	3.24
348.067	52.39
348.279	72.87
348.491	9.39
348.703	48.3
348.915	-9.05
349.127	-13.14
349.339	13.48
349.551	42.15
349.763	50.35
349.975	21.67
350.187	-23.38
350.399	-7
350.61	48.3
350.822	58.54
351.034	25.77
351.246	85.16
351.458	79.02
351.669	25.77
351.881	-50
352.093	-9.05
352.305	62.63
352.517	56.49
352.728	119.98
352.94	38.06
353.152	31.91
353.363	99.5
353.575	11.43
353.787	-13.14
353.999	56.49
354.21	64.68
354.422	31.91
354.633	38.06
354.845	79.02
355.057	17.58
355.268	-54.1
355.48	3.24
355.692	-13.14
355.903	23.72
356.115	-15.19
356.326	58.54
356.538	64.68
356.749	7.34
356.961	48.3
357.172	50.35
357.384	66.73
357.595	27.82
357.807	56.49
358.018	29.87
358.23	48.3
358.441	15.53
358.653	81.07
358.864	-17.24
359.075	66.73
359.287	79.02
359.498	62.63
359.709	72.87
359.921	76.97
360.132	25.77
360.344	117.93
360.555	21.67
360.766	62.63
360.977	95.4
361.189	91.31
361.4	-2.9
361.611	29.87
361.823	-27.48
362.034	60.59
362.245	-29.52
362.456	70.83
362.667	-27.48
362.879	29.87
363.09	-15.19
363.301	46.25
363.512	58.54
363.723	95.4
363.935	70.83
364.146	64.68
364.357	13.48
364.568	99.5
364.779	-19.29
364.99	142.5
365.201	64.68
365.412	29.87
365.623	-0.85
365.834	42.15
366.045	25.77
366.256	74.92
366.467	33.96
366.678	66.73
366.889	19.63
367.1	60.59
367.311	60.59
367.522	85.16
367.733	62.63
367.944	7.34
368.155	48.3
368.366	62.63
368.577	7.34
368.788	89.26
368.999	97.45
369.209	-9.05
369.42	74.92
369.631	48.3
369.842	60.59
370.053	83.11
370.264	56.49
370.474	29.87
370.685	27.82
370.896	11.43
371.107	21.67
371.317	117.93
371.528	74.92
371.739	46.25
371.95	83.11
372.16	64.68
372.371	58.54
372.582	-19.29
372.792	117.93
373.003	81.07
373.214	83.11
373.424	44.2
373.635	91.31
373.846	38.06
374.056	-13.14
374.267	46.25
374.477	44.2
374.688	29.87
374.898	31.91
375.109	48.3
375.319	11.43
375.53	54.44
375.74	60.59
375.951	103.59
376.161	64.68
376.372	15.53
376.582	64.68
376.793	33.96
377.003	64.68
377.214	68.78
377.424	83.11
377.635	38.06
377.845	29.87
378.055	107.69
378.266	33.96
378.476	138.41
378.686	19.63
378.897	76.97
379.107	95.4
379.317	70.83
379.528	126.12
379.738	68.78
379.948	64.68
380.158	54.44
380.369	-7
380.579	15.53
380.789	19.63
380.999	83.11
381.21	38.06
381.42	95.4
381.63	-7
381.84	50.35
382.05	13.48
382.261	5.29
382.471	70.83
382.681	46.25
382.891	-9.05
383.101	25.77
383.311	21.67
383.521	44.2
383.731	13.48
383.941	27.82
384.151	54.44
384.361	81.07
384.571	95.4
384.781	54.44
384.991	36.01
385.201	-7
385.411	15.53
385.621	70.83
385.831	-9.05
386.041	56.49
386.251	70.83
386.461	76.97
386.671	38.06
386.881	50.35
387.091	91.31
387.301	31.91
387.511	68.78
387.72	23.72
387.93	81.07
388.14	56.49
388.35	115.88
388.56	83.11
388.769	99.5
388.979	17.58
389.189	50.35
389.399	101.55
389.609	83.11
389.818	17.58
390.028	17.58
390.238	107.69
390.447	50.35
390.657	87.21
390.867	50.35
391.076	83.11
391.286	58.54
391.496	13.48
391.705	103.59
391.915	13.48
392.125	103.59
392.334	44.2
392.544	48.3
392.753	109.74
392.963	-0.85
393.172	7.34
393.382	64.68
393.591	58.54
393.801	81.07
394.01	60.59
394.22	56.49
394.429	89.26
394.639	46.25
394.848	-7
395.058	15.53
395.267	31.91
395.477	48.3
395.686	54.44
395.895	89.26
396.105	122.02
396.314	46.25
396.524	128.17
396.733	79.02
396.942	146.6
397.152	13.48
397.361	97.45
397.57	87.21
397.78	58.54
397.989	70.83
398.198	74.92
398.407	115.88
398.617	81.07
398.826	25.77
399.035	87.21
399.244	48.3
399.453	81.07
399.663	115.88
399.872	40.11
400.081	105.64
400.29	72.87
400.499	31.91
400.708	89.26
400.917	105.64
401.127	132.26
401.336	56.49
401.545	113.83
401.754	117.93
401.963	72.87
402.172	11.43
402.381	101.55
402.59	105.64
402.799	56.49
403.008	99.5
403.217	124.07
403.426	113.83
403.635	109.74
403.844	105.64
404.053	105.64
404.262	70.83
404.471	95.4
404.68	122.02
404.888	122.02
405.097	140.46
405.306	64.68
405.515	136.36
405.724	11.43
405.933	70.83
406.142	74.92
406.35	158.89
406.559	122.02
406.768	152.74
406.977	187.56
407.185	169.13
407.394	152.74
407.603	160.94
407.812	210.09
408.02	140.46
408.229	128.17
408.438	156.84
408.646	249
408.855	128.17
409.064	154.79
409.272	257.19
409.481	197.8
409.69	228.52
409.898	179.37
410.107	275.62
410.315	203.94
410.524	195.75
410.733	275.62
410.941	275.62
411.15	216.23
411.358	289.96
411.567	312.49
411.775	285.86
411.984	363.69
412.192	271.53
412.401	320.68
412.609	281.77
412.818	390.31
413.026	369.83
413.234	339.11
413.443	384.16
413.651	400.55
413.86	402.6
414.068	431.27
414.276	474.28
414.485	447.65
414.693	421.03
414.901	476.32
415.11	480.42
415.318	529.57
415.526	627.87
415.734	531.62
415.943	662.69
416.151	525.47
416.359	654.5
416.567	664.74
416.776	679.07
416.984	703.65
417.192	760.99
417.4	752.8
417.608	799.9
417.817	681.12
418.025	816.29
418.233	902.3
418.441	804
418.649	861.34
418.857	908.44
419.065	883.87
419.273	978.08
419.481	1010.84
419.689	1068.19
419.897	1035.42
420.105	1115.29
420.313	1186.97
420.521	1158.3
420.729	1207.45
420.937	1295.51
421.145	1297.56
421.353	1309.85
421.561	1449.11
421.769	1438.87
421.977	1531.03
422.185	1473.68
422.393	1510.55
422.601	1690.77
422.809	1664.15
423.017	1645.71
423.224	1772.69
423.432	1916.05
423.64	1860.75
423.848	2043.02
424.056	2016.4
424.263	1973.39
424.471	2083.98
424.679	2129.03
424.887	2337.93
425.094	2296.97
425.302	2352.26
425.51	2469
425.718	2495.62
425.925	2524.29
426.133	2415.75
426.341	2716.8
426.548	2942.08
426.756	2872.45
426.964	2892.93
427.171	2980.99
427.379	3142.78
427.586	3318.9
427.794	3263.61
428.001	3269.75
428.209	3480.69
428.417	3427.45
428.624	3626.1
428.832	3730.55
429.039	3796.08
429.247	3728.5
429.454	4039.79
429.662	4342.89
429.869	4140.14
430.076	4387.94
430.284	4146.28
430.491	4478.05
430.699	4662.37
430.906	4756.58
431.114	4689
431.321	4949.09
431.528	4975.71
431.736	5383.26
431.943	5653.59
432.15	5493.85
432.358	5416.02
432.565	5944.4
432.772	5712.98
432.979	5979.22
433.187	6016.08
433.394	6077.52
433.601	6644.81
433.808	6751.3
434.016	6585.41
434.223	7027.78
434.43	7402.55
434.637	7208
434.844	7502.9
435.052	7842.87
435.259	7719.99
435.466	7801.91
435.673	7572.54
435.88	8119.34
436.087	8547.37
436.294	8504.36
436.501	8502.31
436.708	8688.68
436.915	8907.81
437.122	9192.48
437.329	9143.33
437.537	9593.88
437.743	9624.6
437.95	9618.46
438.157	10064.91
438.364	10411.02
438.571	10308.62
438.778	10630.15
438.985	11656.18
439.192	11013.12
439.399	11439.1
439.606	11103.23
439.813	11588.6
440.02	12432.36
440.227	12143.6
440.433	12239.86
440.64	12450.8
440.847	12532.72
441.054	12757.99
441.261	13575.13
441.467	13419.49
441.674	13634.52
441.881	14099.41
442.088	14224.34
442.294	13999.06
442.501	14064.6
442.708	14607.31
442.914	15508.41
443.121	15637.44
443.328	15307.71
443.534	16731.05
443.741	15993.78
443.948	15899.58
444.154	16925.61
444.361	16987.05
444.568	16972.71
444.774	16970.66
444.981	17134.5
445.187	17433.5
445.394	18307.99
445.6	18262.93
445.807	20001.66
446.013	18998.15
446.22	19483.52
446.426	20026.23
446.633	20317.04
446.839	20908.91
447.046	20333.43
447.252	21304.17
447.459	21220.2
447.665	21549.92
447.871	22399.83
448.078	22805.33
448.284	21572.45
448.491	22514.52
448.697	23333.7
448.903	23765.82
449.11	23997.24
449.316	23456.58
449.522	23952.19
449.728	24628.02
449.935	24668.98
450.141	24957.74
450.347	25393.96
450.553	24621.87
450.76	24619.83
450.966	25545.51
451.172	25195.31
451.378	26092.32
451.584	25236.27
451.791	25871.14
451.997	25969.44
452.203	26514.2
452.409	26397.46
452.615	26170.14
452.821	25113.39
453.027	24859.44
453.233	26319.64
453.44	25174.83
453.646	25389.86
453.852	25418.53
454.058	26155.8
454.264	25013.04
454.47	25522.98
454.676	25123.63
454.882	26051.36
455.088	23362.37
455.294	24177.47
455.5	24269.62
455.705	24376.12
455.911	23374.66
456.117	23081.8
456.323	22924.11
456.529	21515.11
456.735	22393.68
456.941	22016.86
457.147	21623.65
457.352	20996.97
457.558	20546.42
457.764	20515.7
457.97	20274.04
458.176	19811.2
458.381	19776.38
458.587	18809.74
458.793	18883.47
458.999	17947.54
459.204	18998.15
459.41	18590.61
459.616	17159.08
459.821	17437.6
460.027	17585.05
460.233	16966.57
460.438	16124.85
460.644	16176.05
460.85	15481.79
461.055	15291.33
461.261	15412.16
461.466	14218.19
461.672	13890.52
461.878	14539.72
462.083	13911
462.289	13614.04
462.494	13181.92
462.7	12813.29
462.905	12370.93
463.111	12960.74
463.316	13126.63
463.522	12659.69
463.727	12594.15
463.932	12567.53
464.138	12528.62
464.343	12620.78
464.549	12243.95
464.754	12592.11
464.959	12569.58
465.165	12442.6
465.37	12094.45
465.575	11314.17
465.781	11879.41
465.986	12223.47
466.191	11564.03
466.397	11609.08
466.602	10966.02
466.807	11498.49
467.012	11463.68
467.218	11385.85
467.423	11228.16
467.628	11133.95
467.833	11568.12
468.038	11217.92
468.244	11092.99
468.449	11258.88
468.654	11078.66
468.859	10961.92
469.064	10793.99
469.269	10597.38
469.474	10585.1
469.679	10581
469.885	10621.96
470.09	10675.21
470.295	10339.34
470.5	10105.87
470.705	10384.4
470.91	9819.16
471.115	9999.38
471.32	10175.5
471.525	10017.81
471.73	9706.52
471.935	9890.84
472.139	9511.96
472.344	9438.23
472.549	9548.82
472.754	9503.77
472.959	9045.02
473.164	8913.95
473.369	8956.96
473.574	9288.73
473.778	9042.98
473.983	9071.65
474.188	8893.47
474.393	8637.48
474.598	8721.45
474.802	8553.51
475.007	8580.14
475.212	8432.68
475.417	8018.99
475.621	8242.22
475.826	8115.25
476.031	8123.44
476.235	7875.63
476.44	8170.54
476.645	7939.12
476.849	7922.74
477.054	7810.1
477.259	7521.34
477.463	7599.16
477.668	7423.03
477.872	7535.67
478.077	7398.46
478.282	7251
478.486	7263.29
478.691	7132.22
478.895	7173.18
479.1	7052.35
479.304	7171.13
479.509	6925.38
479.713	7099.45
479.918	6921.28
480.122	6765.64
480.326	6782.02
480.531	6986.82
480.735	6874.18
480.94	6644.81
481.144	6812.74
481.348	6683.72
481.553	6636.61
481.757	6566.98
481.961	6702.15
482.166	6759.49
482.37	6757.44
482.574	6552.65
482.778	6575.17
482.983	6706.24
483.187	6550.6
483.391	6612.04
483.595	6343.75
483.8	6489.16
484.004	6673.48
484.208	6687.81
484.412	6554.69
484.616	6577.22
484.821	6538.31
485.025	6450.25
485.229	6650.95
485.433	6702.15
485.637	6671.43
485.841	6700.1
486.045	6585.41
486.249	6583.37
486.453	6413.38
486.657	6698.05
486.861	6579.27
487.065	6503.5
487.269	6593.61
487.473	6464.58
487.677	6558.79
487.881	6655.05
488.085	6587.46
488.289	6609.99
488.493	6622.28
488.697	6710.34
488.901	6505.54
489.105	6702.15
489.309	6458.44
489.512	6556.74
489.716	6659.14
489.92	6589.51
490.124	6571.08
490.328	6810.69
490.531	6601.8
490.735	6767.68
490.939	6956.1
491.143	6849.6
491.346	6644.81
491.55	6865.99
491.754	6894.66
491.958	6952
492.161	6782.02
492.365	6816.83
492.569	6927.42
492.772	6894.66
492.976	7085.12
493.18	7023.68
493.383	7148.61
493.587	7119.93
493.79	7128.13
493.994	7201.85
494.197	7353.4
494.401	7332.92
494.605	7339.07
494.808	7611.45
495.012	7568.44
495.215	7627.83
495.419	7656.5
495.622	7693.37
495.825	7685.17
496.029	7791.67
496.232	7857.2
496.436	7978.03
496.639	8070.19
496.843	8123.44
497.046	8324.14
497.249	8244.27
497.453	8383.53
497.656	8385.58
497.859	8596.52
498.063	8530.98
498.266	8795.17
498.469	8678.44
498.673	8811.56
498.876	8825.89
499.079	9090.08
499.282	9049.12
499.485	9092.13
499.689	9274.4
499.892	9284.64
500.095	9466.91
500.298	9409.56
500.501	9579.54
500.705	9894.93
500.908	10136.59
501.111	10060.82
501.314	10363.92
501.517	10320.91
501.72	10390.54
501.923	10480.65
502.126	10460.17
502.329	10861.57
502.532	11060.23
502.735	11076.61
502.938	11277.31
503.141	11189.25
503.344	11248.64
503.547	11262.97
503.75	11559.93
503.953	11826.17
504.156	11906.04
504.359	11938.8
504.562	12256.24
504.765	12276.72
504.968	12551.15
505.17	12604.39
505.373	12581.87
505.576	12854.25
505.779	12973.03
505.982	13198.31
506.185	13261.79
506.387	13345.76
506.59	13624.28
506.793	13898.71
506.996	13702.11
507.198	14363.6
507.401	14474.19
507.604	14369.74
507.807	14633.93
508.009	14769.1
508.212	14740.43
508.415	15100.87
508.617	15401.92
508.82	15322.05
509.022	15449.02
509.225	15750.07
509.428	15862.71
509.63	16073.65
509.833	16131
510.035	16640.94
510.238	16421.81
510.44	16829.35
510.643	16970.66
510.845	17322.91
511.048	17320.87
511.25	17558.43
511.453	17681.31
511.655	18408.34
511.858	18297.75
512.06	18674.57
512.262	18650
512.465	18514.83
512.667	18791.31
512.87	19391.36
513.072	19250.05
513.274	19458.95
513.477	19620.74
513.679	19866.49
513.881	20360.05
514.084	20521.84
514.286	20267.89
514.488	20700.01
514.69	21205.86
514.893	21402.47
515.095	21226.34
515.297	21431.14
515.499	21965.66
515.701	22197.08
515.904	22461.27
516.106	22426.45
516.308	22780.75
516.51	23161.67
516.712	23233.35
516.914	23548.74
517.116	23806.78
517.318	24040.25
517.52	24003.39
517.722	23935.81
517.925	24785.71
518.127	24994.61
518.329	25215.79
518.531	25189.16
518.733	26112.8
518.935	25686.82
519.136	25928.48
519.338	26473.24
519.54	26319.64
519.742	26727.19
519.944	26899.22
520.146	27441.93
520.348	27732.74
520.55	27708.16
520.752	27855.62
520.954	28472.06
521.155	28097.28
521.357	28891.89
521.559	28885.75
521.761	29537
521.963	29356.78
522.164	29528.81
522.366	29844.2
522.568	30427.87
522.77	30427.87
522.971	31019.73
523.173	30657.24
523.375	30962.39
523.576	30917.33
523.778	30941.91
523.98	31552.2
524.181	31793.86
524.383	31699.65
524.584	32176.83
524.786	32256.7
524.988	32012.99
525.189	32746.17
525.391	32867
525.592	32758.45
525.794	33135.28
525.995	33460.91
526.197	33180.34
526.398	33606.31
526.6	33282.73
526.801	33907.37
527.003	33731.24
527.204	34239.14
527.406	34273.95
527.607	34658.97
527.808	34319.01
528.01	33966.76
528.211	34517.66
528.412	35261.07
528.614	35136.15
528.815	34742.94
529.016	35238.54
529.218	35639.95
529.419	35297.94
529.62	35367.57
529.822	35521.16
530.023	35715.72
530.224	35664.52
530.425	35416.72
530.626	35687.05
530.828	35175.06
531.029	36420.22
531.23	36115.08
531.431	36237.95
531.632	36096.64
531.833	36086.4
532.035	36395.65
532.236	36211.33
532.437	36786.81
532.638	36139.65
532.839	36598.4
533.04	36622.97
533.241	36504.19
533.442	36856.44
533.643	36553.34
533.844	36936.31
534.045	36930.17
534.246	36647.55
534.447	37089.91
534.648	36594.3
534.849	37018.23
535.05	36809.34
535.251	36924.02
535.451	36924.02
535.652	37038.71
535.853	37196.4
536.054	36729.47
536.255	36819.58
536.456	36555.39
536.657	37507.69
536.857	36729.47
537.058	36842.1
537.259	37423.73
537.46	37145.2
537.66	37403.25
537.861	36729.47
538.062	37077.62
538.263	36901.5
538.463	36811.38
538.664	36784.76
538.865	36995.7
539.065	37235.31
539.266	36577.92
539.466	37194.36
539.667	36373.12
539.868	37155.44
540.068	36713.08
540.269	37202.55
540.469	37325.43
540.67	36940.41
540.87	37151.35
541.071	37053.05
541.271	37104.24
541.472	37098.1
541.672	36438.65
541.873	36825.72
542.073	36504.19
542.274	37362.29
542.474	37024.37
542.675	36592.25
542.875	37331.57
543.075	36805.24
543.276	36737.66
543.476	36999.8
543.676	36876.92
543.877	37104.24
544.077	37102.2
544.277	36788.86
544.478	36881.02
544.678	36958.84
544.878	37206.64
545.078	36954.74
545.279	36506.24
545.479	36813.43
545.679	37098.1
545.879	36672.12
546.079	36588.16
546.28	36909.69
546.48	36633.21
546.68	37120.63
546.88	37237.36
547.08	36602.49
547.28	37003.89
547.48	36446.85
547.68	36821.62
547.88	36711.03
548.081	36954.74
548.281	36797.05
548.481	36416.13
548.681	37427.82
548.881	36901.5
549.081	37091.96
549.28	36846.2
549.48	36926.07
549.68	36979.32
549.88	37051
550.08	36493.95
550.28	36983.41
550.48	36801.15
550.68	37106.29
550.88	36293.25
551.08	36909.69
551.279	36594.3
551.479	36799.1
551.679	37057.14
551.879	36876.92
552.079	37014.13
552.278	36598.4
552.478	36633.21
552.678	36502.14
552.878	36778.62
553.077	36317.82
553.277	36082.31
553.477	36983.41
553.676	36237.95
553.876	36643.45
554.076	36809.34
554.275	36536.96
554.475	36266.63
554.674	36559.48
554.874	36639.36
555.074	35996.29
555.273	36438.65
555.473	36315.78
555.672	36248.19
555.872	36004.49
556.071	36444.8
556.271	36541.05
556.47	35904.13
556.67	35820.17
556.869	36213.38
557.068	36059.78
557.268	36084.36
557.467	35900.04
557.667	36217.47
557.866	36008.58
558.065	35848.84
558.265	35502.73
558.464	35195.54
558.663	36031.11
558.863	35125.91
559.062	36084.36
559.261	35373.71
559.461	35818.12
559.66	35138.19
559.859	35320.46
560.058	35111.57
560.258	35695.24
560.457	34912.92
560.656	35271.31
560.855	35039.89
561.054	35066.52
561.253	35019.41
561.453	35252.88
561.652	34990.74
561.851	35187.35
562.05	34656.92
562.249	34675.35
562.448	34706.07
562.647	35000.98
562.846	34818.71
563.045	34554.52
563.244	34421.41
563.443	34859.67
563.642	33735.34
563.841	34493.08
564.04	33884.84
564.239	34757.27
564.438	34050.72
564.637	34247.33
564.836	34448.03
565.035	33966.76
565.234	34108.07
565.432	34189.98
565.631	34157.22
565.83	33847.97
566.029	33600.17
566.228	33596.07
566.427	33563.31
566.625	33557.16
566.824	33018.55
567.023	33465
567.222	32690.87
567.42	33714.86
567.619	33362.61
567.818	33098.42
568.016	32785.08
568.215	33276.59
568.414	32678.58
568.612	33096.37
568.811	32993.97
569.01	32883.38
569.208	32357.05
569.407	32778.93
569.605	32150.21
569.804	32346.81
570.002	32324.29
570.201	32393.92
570.4	32058.05
570.598	31847.11
570.797	31525.58
570.995	31922.88
571.193	31544.01
571.392	32017.09
571.59	31683.27
571.789	31742.66
571.987	31509.19
572.186	31501
572.384	30898.9
572.582	31535.82
572.781	31314.64
572.979	30743.25
573.177	30874.32
573.376	31433.42
573.574	30679.77
573.772	31038.16
573.971	31023.83
574.169	30427.87
574.367	30212.83
574.565	30796.5
574.763	30505.69
574.962	30192.35
575.16	29836
575.358	30225.12
575.556	29602.53
575.754	29969.12
575.952	29780.71
576.151	29932.26
576.349	29440.75
576.547	29545.19
576.745	29582.06
576.943	29328.11
577.141	29434.6
577.339	29405.93
577.537	29074.16
577.735	29188.85
577.933	29090.54
578.131	29117.17
578.329	28982
578.527	28693.24
578.725	28590.84
578.923	28627.7
579.121	28621.56
579.319	28269.31
579.516	28353.27
579.714	28467.96
579.912	28189.44
580.11	27837.19
580.308	27843.33
580.506	27839.23
580.704	27605.77
580.901	27855.62
581.099	27759.36
581.297	27464.46
581.495	27517.7
581.692	27652.87
581.89	27247.37
582.088	27427.59
582.285	27020.05
582.483	27284.23
582.681	27185.93
582.878	27208.46
583.076	27101.97
583.274	27110.16
583.471	26659.6
583.669	26747.67
583.866	26809.11
584.064	26727.19
584.262	26096.41
584.459	26678.04
584.657	26444.57
584.854	26733.33
585.052	26039.07
585.249	26381.08
585.447	26034.97
585.644	25848.61
585.841	25828.13
586.039	25985.82
586.236	25559.84
586.434	25658.15
586.631	25615.14
586.828	25260.84
587.026	25412.39
587.223	25129.77
587.42	25449.25
587.618	25168.68
587.815	24933.17
588.012	25023.28
588.21	24939.31
588.407	25260.84
588.604	24728.37
588.801	24732.47
588.999	24867.63
589.196	24445.75
589.393	24838.96
589.59	24607.54
589.787	24675.12
589.984	24277.82
590.182	24173.37
590.379	24410.93
590.576	24023.87
590.773	24378.17
590.97	23894.85
591.167	23864.13
591.364	23911.23
591.561	23980.86
591.758	23466.82
591.955	23573.31
592.152	23634.75
592.349	23302.98
592.546	23538.5
592.743	23683.91
592.94	23274.31
593.137	23251.78
593.334	23323.46
593.531	22905.68
593.727	23368.52
593.924	23167.82
594.121	22616.91
594.318	22963.02
594.515	22528.85
594.712	22930.25
594.908	22485.84
595.105	22664.02
595.302	22465.36
595.499	22641.49
595.696	22510.42
595.892	22156.12
596.089	22219.61
596.286	22272.85
596.482	22131.54
596.679	22233.94
596.876	22082.39
597.072	21889.88
597.269	22023
597.466	21607.26
597.662	21488.48
597.859	21590.88
598.055	21666.66
598.252	21551.97
598.448	21306.21
598.645	21320.55
598.841	21093.22
599.038	21586.79
599.234	21349.22
599.431	21007.21
599.627	20878.19
599.824	21252.97
600.02	21009.26
600.217	21109.61
600.413	20966.25
600.609	20796.27
600.806	20675.44
601.002	20929.39
601.198	20679.54
601.395	20519.79
601.591	20499.31
601.787	20583.28
601.984	20345.72
602.18	20378.48
602.376	20173.69
602.572	20306.8
602.769	20321.14
602.965	19829.63
603.161	19815.29
603.357	20081.53
603.553	19825.53
603.75	20003.71
603.946	19696.51
604.142	19649.41
604.338	19241.86
604.534	19590.02
604.73	19262.34
604.926	19108.74
605.122	19161.99
605.318	19139.46
605.514	18992.01
605.71	19282.82
605.906	19264.39
606.102	19032.97
606.298	19157.89
606.494	18858.89
606.69	19037.06
606.886	18684.81
607.082	18584.46
607.278	18779.02
607.474	18684.81
607.67	18631.57
607.866	18488.21
608.062	18631.57
608.257	18496.4
608.453	18473.87
608.649	18127.77
608.845	18162.58
609.041	18267.03
609.236	18191.25
609.432	17947.54
609.628	18023.32
609.824	17935.26
610.019	17998.74
610.215	17888.15
610.411	17755.04
610.606	17800.09
610.802	17933.21
610.998	17748.89
611.193	17699.74
611.389	17408.93
611.584	17302.43
611.78	17310.63
611.976	17400.74
612.171	17540
612.367	17173.41
612.562	17161.12
612.758	17130.41
612.953	17527.71
613.149	17306.53
613.344	16941.99
613.539	17322.91
613.735	16851.88
613.93	17300.39
614.126	17062.82
614.321	17173.41
614.517	16890.79
614.712	16913.32
614.907	16774.06
615.103	17025.96
615.298	16743.34
615.493	16806.83
615.688	16393.14
615.884	16843.69
616.079	16411.57
616.274	16671.66
616.47	16313.27
616.665	16384.94
616.86	16430
617.055	16186.29
617.25	16075.7
617.445	16368.56
617.641	15913.91
617.836	16034.74
618.031	16047.03
618.226	15866.81
618.421	15743.93
618.616	15782.84
618.811	15846.33
619.006	15942.58
619.201	15500.22
619.396	15782.84
619.591	15532.99
619.786	15698.88
619.981	15266.75
620.176	15500.22
620.371	15506.37
620.566	15168.45
620.761	15254.47
620.956	15174.6
621.151	14924.74
621.346	15166.4
621.541	14664.65
621.735	14820.3
621.93	14697.42
622.125	14830.54
622.32	14484.43
622.515	14435.28
622.709	14429.13
622.904	14293.97
623.099	14279.63
623.294	14422.99
623.488	14111.7
623.683	14076.88
623.878	13796.31
624.072	13833.18
624.267	13818.84
624.462	13720.54
624.656	13642.71
624.851	13702.11
625.046	13616.09
625.24	13648.86
625.435	13425.63
625.629	13552.6
625.824	13251.55
626.018	13284.32
626.213	13018.08
626.407	13050.85
626.602	12647.4
626.796	12993.51
626.991	12901.35
627.185	12616.68
627.38	12741.61
627.574	12657.64
627.768	12633.07
627.963	12557.29
628.157	12325.87
628.352	12454.89
628.546	12166.13
628.74	12225.52
628.935	12315.63
629.129	12121.07
629.323	11906.04
629.517	11906.04
629.712	11777.01
629.906	12092.4
630.1	11717.62
630.294	11623.42
630.489	11664.38
630.683	11584.51
630.877	11410.43
631.071	11498.49
631.265	11641.85
631.459	11197.44
631.653	11465.72
631.848	11312.13
632.042	11185.15
632.236	11060.23
632.43	11076.61
632.624	11031.55
632.818	11035.65
633.012	11056.13
633.206	10750.98
633.4	10961.92
633.594	10710.02
633.788	10736.65
633.982	10636.3
634.176	10552.33
634.369	10521.61
634.563	10523.66
634.757	10384.4
634.951	10505.23
635.145	10423.31
635.339	10282
635.533	10238.99
635.726	10105.87
635.92	10081.3
636.114	9929.75
636.308	9851.92
636.501	9876.5
636.695	9989.14
636.889	9774.1
637.083	9698.33
637.276	9796.63
637.47	9729.05
637.664	9593.88
637.857	9491.48
638.051	9657.37
638.244	9485.34
638.438	9442.33
638.632	9471
638.825	9395.23
639.019	9196.57
639.212	9081.89
639.406	9114.66
639.599	9032.74
639.793	9014.31
639.986	9065.5
640.18	8893.47
640.373	9014.31
640.567	8813.6
640.76	8760.36
640.954	8672.29
641.147	8809.51
641.34	8567.85
641.534	8936.48
641.727	8602.66
641.92	8573.99
642.114	8510.5
642.307	8561.7
642.5	8414.25
642.694	8062
642.887	8217.65
643.08	8315.95
643.273	8219.69
643.467	8162.35
643.66	8166.45
643.853	8100.91
644.046	7853.11
644.239	8160.3
644.432	7769.14
644.626	7875.63
644.819	7924.79
645.012	7754.8
645.205	7763
645.398	7621.69
645.591	7740.47
645.784	7461.94
645.977	7474.23
646.17	7457.85
646.363	7273.53
646.556	7343.16
646.749	7306.3
646.942	7359.55
647.135	7316.54
647.328	7253.05
647.521	7312.44
647.714	6919.23
647.907	7124.03
648.099	7019.58
648.292	7007.3
648.485	7001.15
648.678	6902.85
648.871	6886.47
649.064	6767.68
649.256	6906.95
649.449	6784.07
649.642	6743.11
649.835	6521.93
650.027	6706.24
650.22	6548.55
650.413	6730.82
650.605	6648.9
650.798	6503.5
650.991	6296.65
651.183	6460.49
651.376	6370.38
651.568	6321.23
651.761	6163.53
651.954	6360.14
652.146	6224.97
652.339	6198.35
652.531	6239.31
652.724	6163.53
652.916	6026.32
653.109	5901.39
653.301	6014.03
653.494	6020.17
653.686	5925.97
653.879	5784.66
654.071	5762.13
654.263	5915.73
654.456	5813.33
654.648	5921.87
654.84	5659.73
655.033	5751.89
655.225	5733.46
655.417	5590.1
655.61	5698.64
655.802	5524.57
655.994	5536.85
656.186	5555.29
656.379	5477.46
656.571	5508.18
656.763	5379.16
656.955	5297.24
657.148	5350.49
657.34	5303.39
657.532	5375.06
657.724	5401.69
657.916	5299.29
658.108	5157.98
658.3	5313.63
658.492	5059.68
658.684	5119.07
658.876	5088.35
659.068	4953.18
659.26	5022.81
659.452	5055.58
659.644	4994.14
659.836	4777.06
660.028	4863.07
660.22	4908.13
660.412	4805.73
660.604	4871.26
660.796	4680.8
660.988	4889.7
661.18	4664.42
661.372	4596.84
661.563	4752.48
661.755	4562.02
661.947	4736.1
662.139	4676.71
662.331	4486.25
662.522	4465.77
662.714	4476.01
662.906	4535.4
663.097	4502.63
663.289	4430.95
663.481	4265.07
663.673	4306.02
663.864	4269.16
664.056	4324.46
664.247	4215.91
664.439	4256.87
664.631	4224.11
664.822	4222.06
665.014	4230.25
665.205	4367.46
665.397	4230.25
665.588	4095.08
665.78	4101.23
665.971	4011.12
666.163	4129.9
666.354	4023.41
666.546	3886.19
666.737	3908.72
666.929	4138.09
667.12	4095.08
667.311	3937.39
667.503	3906.67
667.694	3705.97
667.885	3929.2
668.077	3875.95
668.268	3761.27
668.459	3763.31
668.651	3665.01
668.842	3724.4
669.033	3779.7
669.224	3710.07
669.416	3755.12
669.607	3742.83
669.798	3710.07
669.989	3726.45
670.18	3634.29
670.371	3683.44
670.563	3527.8
670.754	3519.6
670.945	3624.05
671.136	3603.57
671.327	3519.6
671.518	3568.76
671.709	3535.99
671.9	3423.35
672.091	3525.75
672.282	3511.41
672.473	3478.65
672.664	3470.45
672.855	3400.82
673.046	3511.41
673.237	3421.3
673.428	3402.87
673.619	3382.39
673.809	3339.38
674	3204.22
674.191	3392.63
674.382	3302.52
674.573	3292.28
674.764	3251.32
674.954	3359.86
675.145	3288.18
675.336	3318.9
675.527	3234.94
675.717	3228.79
675.908	3177.59
676.099	3206.27
676.289	3026.04
676.48	3103.87
676.671	3241.08
676.861	3101.82
677.052	3067
677.243	3099.77
677.433	3093.63
677.624	3208.31
677.814	3107.96
678.005	3153.02
678.195	3017.85
678.386	2989.18
678.576	3009.66
678.767	3089.53
678.957	2997.37
679.148	2929.79
679.338	3101.82
679.529	3032.19
679.719	2989.18
679.909	2907.26
680.1	2954.37
680.29	2868.35
680.481	3013.76
680.671	3001.47
680.861	2880.64
681.052	2866.3
681.242	2864.25
681.432	3036.28
681.622	2894.97
681.813	2866.3
682.003	2948.22
682.193	2776.19
682.383	2770.05
682.573	2899.07
682.764	2825.34
682.954	2788.48
683.144	2847.87
683.334	2950.27
683.524	2860.16
683.714	2829.44
683.904	2841.73
684.094	2901.12
684.284	2874.49
684.474	2827.39
684.664	2743.42
684.854	2870.4
685.044	2815.1
685.234	2768
685.424	2718.85
685.614	2794.62
685.804	2817.15
685.994	2747.52
686.184	2733.18
686.374	2763.9
686.564	2681.99
686.753	2712.71
686.943	2653.31
687.133	2622.59
687.323	2595.97
687.513	2653.31
687.702	2667.65
687.892	2729.09
688.082	2649.22
688.272	2598.02
688.461	2696.32
688.651	2604.16
688.841	2565.25
689.03	2573.44
689.22	2567.3
689.41	2616.45
689.599	2520.2
689.789	2555.01
689.979	2655.36
690.168	2501.76
690.358	2485.38
690.547	2565.25
690.737	2524.29
690.926	2604.16
691.116	2534.53
691.305	2456.71
691.495	2571.4
691.684	2415.75
691.874	2518.15
692.063	2448.52
692.252	2520.2
692.442	2493.57
692.631	2575.49
692.82	2469
693.01	2565.25
693.199	2462.85
693.388	2430.09
693.578	2413.7
693.767	2462.85
693.956	2598.02
694.146	2471.04
694.335	2481.28
694.524	2561.16
694.713	2552.96
694.902	2548.87
695.092	2423.94
695.281	2471.04
695.47	2452.61
695.659	2499.72
695.848	2475.14
696.037	2557.06
696.226	2432.13
696.415	2397.32
696.604	2382.98
696.793	2528.39
696.982	2473.09
697.171	2473.09
697.36	2462.85
697.549	2432.13
697.738	2540.68
697.927	2432.13
698.116	2567.3
698.305	2505.86
698.494	2382.98
698.683	2526.34
698.872	2393.22
699.061	2423.94
699.25	2399.37
699.438	2565.25
699.627	2423.94
699.816	2409.61
700.005	2477.19
700.193	2378.89
700.382	2430.09
700.571	2372.74
700.76	2333.83
700.948	2448.52
701.137	2391.17
701.326	2481.28
701.514	2239.62
701.703	2337.93
701.892	2399.37
702.08	2436.23
702.269	2399.37
702.457	2325.64
702.646	2362.5
702.834	2317.45
703.023	2348.17
703.212	2346.12
703.4	2337.93
703.589	2335.88
703.777	2391.17
703.965	2317.45
704.154	2393.22
704.342	2309.26
704.531	2282.63
704.719	2282.63
704.907	2237.58
705.096	2348.17
705.284	2319.5
705.472	2317.45
705.661	2352.26
705.849	2278.54
706.037	2350.21
706.226	2231.43
706.414	2282.63
706.602	2157.71
706.79	2223.24
706.979	2198.67
707.167	2266.25
707.355	2108.55
707.543	2309.26
707.731	2227.34
707.919	2163.85
708.107	2137.23
708.296	2149.51
708.484	2133.13
708.672	2200.71
708.86	2237.58
709.048	2137.23
709.236	2198.67
709.424	2251.91
709.612	2088.07
709.8	2192.52
709.988	2188.43
710.176	2016.4
710.364	2151.56
710.551	2108.55
710.739	2137.23
710.927	2176.14
711.115	2016.4
711.303	2024.59
711.491	2110.6
711.679	1993.87
711.866	2131.08
712.054	2022.54
712.242	2151.56
712.43	2053.26
712.617	2106.51
712.805	2063.5
712.993	2100.36
713.181	2133.13
713.368	2020.49
713.556	2028.68
713.744	1971.34
713.931	2024.59
714.119	1991.82
714.306	1950.86
714.494	1963.15
714.682	1995.92
714.869	1873.04
715.057	1936.53
715.244	1965.2
715.432	2079.88
715.619	1862.8
715.807	1860.75
715.994	1948.81
716.182	1918.09
716.369	1914
716.556	1875.09
716.744	1844.37
716.931	1885.33
717.119	1928.33
717.306	1840.27
717.493	1877.13
717.681	1848.46
717.868	1774.74
718.055	1856.65
718.242	1916.05
718.43	1862.8
718.617	1744.02
718.804	1766.54
718.991	1723.54
719.179	1778.83
719.366	1719.44
719.553	1580.18
719.74	1791.12
719.927	1789.07
720.114	1850.51
720.301	1811.6
720.488	1666.19
720.676	1748.11
720.863	1688.72
721.05	1606.8
721.237	1735.82
721.424	1764.5
721.611	1664.15
721.798	1653.91
721.985	1713.3
722.172	1682.58
722.358	1701.01
722.545	1701.01
722.732	1647.76
722.919	1567.89
723.106	1655.95
723.293	1631.38
723.48	1551.51
723.667	1619.09
723.853	1600.66
724.04	1516.69
724.227	1670.29
724.414	1586.32
724.6	1524.88
724.787	1612.95
724.974	1606.8
725.161	1504.4
725.347	1596.56
725.534	1617.04
725.72	1553.55
725.907	1514.64
726.094	1483.92
726.28	1520.79
726.467	1541.27
726.653	1447.06
726.84	1504.4
727.027	1569.94
727.213	1549.46
727.4	1416.34
727.586	1545.36
727.773	1520.79
727.959	1387.67
728.145	1549.46
728.332	1510.55
728.518	1481.88
728.705	1465.49
728.891	1404.05
729.077	1451.16
729.264	1373.33
729.45	1440.92
729.636	1455.25
729.823	1385.62
730.009	1479.83
730.195	1434.77
730.382	1387.67
730.568	1414.29
730.754	1389.72
730.94	1391.77
731.126	1373.33
731.313	1387.67
731.499	1426.58
731.685	1369.24
731.871	1356.95
732.057	1399.96
732.243	1350.81
732.429	1307.8
732.615	1344.66
732.801	1389.72
732.987	1354.9
733.173	1373.33
733.359	1246.36
733.545	1367.19
733.731	1338.52
733.917	1297.56
734.103	1268.89
734.289	1496.21
734.475	1303.7
734.661	1322.13
734.847	1268.89
735.033	1268.89
735.219	1363.09
735.404	1356.95
735.59	1254.55
735.776	1291.41
735.962	1305.75
736.148	1334.42
736.333	1301.65
736.519	1344.66
736.705	1281.18
736.89	1322.13
737.076	1336.47
737.262	1328.28
737.447	1252.5
737.633	1166.49
737.819	1197.21
738.004	1152.15
738.19	1217.69
738.375	1217.69
738.561	1168.54
738.747	1162.39
738.932	1156.25
739.118	1236.12
739.303	1219.74
739.489	1184.92
739.674	1174.68
739.859	1143.96
740.045	1135.77
740.23	1166.49
740.416	1115.29
740.601	1193.11
740.786	1062.04
740.972	1207.45
741.157	1217.69
741.342	1121.43
741.528	1043.61
741.713	1160.34
741.898	1094.81
742.084	1043.61
742.269	1092.76
742.454	1076.38
742.639	1043.61
742.824	1103
743.01	1131.67
743.195	1127.58
743.38	1053.85
743.565	1107.1
743.75	1094.81
743.935	1016.99
744.12	1133.72
744.305	1059.99
744.49	1133.72
744.675	1070.23
744.86	1008.8
745.045	1045.66
745.23	1006.75
745.415	1023.13
745.6	1012.89
745.785	996.51
745.97	1057.95
746.155	1082.52
746.34	998.56
746.525	990.36
746.71	998.56
746.895	881.82
747.079	1049.75
747.264	988.32
747.449	910.49
747.634	890.01
747.819	967.84
748.003	930.97
748.188	832.67
748.373	949.4
748.557	955.55
748.742	908.44
748.927	908.44
749.111	910.49
749.296	898.2
749.481	900.25
749.665	851.1
749.85	926.88
750.034	836.77
750.219	855.2
750.404	867.49
750.588	863.39
750.773	806.05
750.957	844.96
751.141	896.16
751.326	744.61
751.51	826.53
751.695	771.23
751.879	834.72
752.064	836.77
752.248	828.57
752.432	857.25
752.617	752.8
752.801	767.13
752.985	822.43
753.17	775.33
753.354	781.47
753.538	785.57
753.722	726.18
753.907	767.13
754.091	851.1
754.275	828.57
754.459	767.13
754.643	783.52
754.828	720.03
755.012	779.42
755.196	654.5
755.38	826.53
755.564	746.66
755.748	720.03
755.932	687.26
756.116	730.27
756.3	668.83
756.484	742.56
756.668	728.22
756.852	613.54
757.036	736.42
757.22	783.52
757.404	677.02
757.588	662.69
757.772	660.64
757.956	681.12
758.14	652.45
758.323	685.22
758.507	640.16
758.691	644.26
758.875	709.79
759.059	664.74
759.242	703.65
759.426	644.26
759.61	664.74
759.794	556.19
759.977	654.5
760.161	644.26
760.345	599.2
760.528	754.85
760.712	619.68
760.895	570.53
761.079	627.87
761.263	668.83
761.446	593.06
761.63	662.69
761.813	625.83
761.997	492.71
762.18	552.1
762.364	613.54
762.547	634.02
762.731	687.26
762.914	560.29
763.098	541.86
763.281	507.04
763.464	554.15
763.648	580.77
763.831	607.39
764.015	597.15
764.198	558.24
764.381	539.81
764.564	601.25
764.748	586.91
764.931	687.26
765.114	533.67
765.297	638.11
765.481	539.81
765.664	496.8
765.847	539.81
766.03	531.62
766.213	537.76
766.397	480.42
766.58	492.71
766.763	486.56
766.946	480.42
767.129	560.29
767.312	478.37
767.495	545.95
767.678	586.91
767.861	562.34
768.044	539.81
768.227	502.95
768.41	480.42
768.593	490.66
768.776	595.11
768.959	548
769.142	494.76
769.324	552.1
769.507	466.08
769.69	476.32
769.873	490.66
770.056	476.32
770.239	488.61
770.421	582.82
770.604	521.38
770.787	392.36
770.97	466.08
771.152	535.71
771.335	474.28
771.518	580.77
771.7	449.7
771.883	390.31
772.066	443.56
772.248	453.8
772.431	466.08
772.613	519.33
772.796	410.79
772.978	474.28
773.161	525.47
773.343	455.84
773.526	474.28
773.708	439.46
773.891	529.57
774.073	408.74
774.256	470.18
774.438	406.69
774.621	408.74
774.803	433.32
774.985	410.79
775.168	451.75
775.35	439.46
775.532	447.65
775.715	425.12
775.897	423.08
776.079	443.56
776.261	472.23
776.444	351.4
776.626	349.35
776.808	369.83
776.99	400.55
777.173	400.55
777.355	375.97
777.537	349.35
777.719	375.97
777.901	341.16
778.083	312.49
778.265	390.31
778.447	386.21
778.629	445.6
778.811	349.35
778.993	341.16
779.175	457.89
779.357	339.11
779.539	351.4
779.721	337.06
779.903	373.92
780.085	367.78
780.267	353.45
780.449	425.12
780.631	332.97
780.812	335.01
780.994	302.25
781.176	300.2
781.358	310.44
781.54	330.92
781.721	353.45
781.903	238.76
782.085	300.2
782.267	285.86
782.448	267.43
782.63	343.21
782.812	359.59
782.993	218.28
783.175	283.81
783.357	326.82
783.538	261.29
783.72	355.49
783.901	384.16
784.083	289.96
784.264	328.87
784.446	269.48
784.627	269.48
784.809	365.73
784.99	283.81
785.172	210.09
785.353	251.05
785.535	287.91
785.716	292.01
785.897	261.29
786.079	320.68
786.26	253.09
786.441	298.15
786.623	181.42
786.804	251.05
786.985	148.65
787.167	226.47
787.348	214.18
787.529	224.42
787.71	271.53
787.891	193.7
788.073	208.04
788.254	236.71
788.435	275.62
788.616	275.62
788.797	216.23
788.978	197.8
789.159	177.32
789.34	277.67
789.522	208.04
789.703	169.13
789.884	244.9
790.065	287.91
790.246	214.18
790.427	232.62
790.607	261.29
790.788	269.48
790.969	179.37
791.15	308.39
791.331	218.28
791.512	253.09
791.693	175.27
791.874	249
792.054	201.9
792.235	236.71
792.416	183.46
792.597	126.12
792.778	232.62
792.958	224.42
793.139	197.8
793.32	142.5
793.5	189.61
793.681	224.42
793.862	214.18
794.042	162.98
794.223	261.29
794.404	126.12
794.584	162.98
794.765	138.41
794.945	165.03
795.126	218.28
795.306	203.94
795.487	134.31
795.667	130.22
795.848	181.42
796.028	185.51
796.209	230.57
796.389	189.61
796.57	195.75
796.75	128.17
796.93	93.35
797.111	83.11
797.291	218.28
797.471	150.7
797.652	218.28
797.832	257.19
798.012	181.42
798.192	165.03
798.373	236.71
798.553	148.65
798.733	136.36
798.913	201.9
799.093	152.74
799.274	210.09
799.454	138.41
799.634	156.84
799.814	203.94
799.994	158.89
800.174	177.32
800.354	154.79
800.534	142.5
800.714	119.98
800.894	158.89
801.074	93.35
801.254	179.37
801.434	173.22
801.614	83.11
801.794	117.93
801.974	343.21
802.154	126.12
802.334	103.59
802.514	146.6
802.693	42.15
802.873	148.65
803.053	87.21
803.233	103.59
803.413	111.78
803.592	169.13
803.772	89.26
803.952	89.26
804.131	107.69
804.311	144.55
804.491	191.66
804.67	46.25
804.85	140.46
805.03	148.65
805.209	122.02
805.389	156.84
805.568	50.35
805.748	113.83
805.928	89.26
806.107	136.36
806.287	101.55
806.466	107.69
806.646	93.35
806.825	79.02
807.004	109.74
807.184	132.26
807.363	83.11
807.543	205.99
807.722	201.9
807.901	152.74
808.081	89.26
808.26	109.74
808.439	72.87
808.619	99.5
808.798	156.84
808.977	130.22
809.156	60.59
809.336	97.45
809.515	122.02
809.694	142.5
809.873	117.93
810.052	122.02
810.231	64.68
810.411	42.15
810.59	126.12
810.769	66.73
810.948	179.37
811.127	128.17
811.306	91.31
811.485	128.17
811.664	150.7
811.843	95.4
812.022	146.6
812.201	70.83
812.38	138.41
812.559	136.36
812.737	101.55
812.916	111.78
813.095	72.87
813.274	150.7
813.453	154.79
813.632	27.82
813.811	126.12
813.989	27.82
814.168	134.31
814.347	113.83
814.526	85.16
814.704	68.78
814.883	101.55
815.062	25.77
815.24	130.22
815.419	81.07
815.598	117.93
815.776	52.39
815.955	128.17
816.133	36.01
816.312	107.69
816.49	128.17
816.669	144.55
816.847	83.11
817.026	87.21
817.204	42.15
817.383	132.26
817.561	83.11
817.74	72.87
817.918	54.44
818.097	97.45
818.275	44.2
818.453	54.44
818.632	-2.9
818.81	89.26
818.988	138.41
819.167	95.4
819.345	119.98
819.523	56.49
819.701	72.87
819.879	119.98
820.058	29.87
820.236	140.46
820.414	50.35
820.592	97.45
820.77	74.92
820.948	85.16
821.127	74.92
821.305	91.31
821.483	111.78
821.661	140.46
821.839	50.35
822.017	119.98
822.195	81.07
822.373	126.12
822.551	76.97
822.729	46.25
822.907	31.91
823.085	54.44
823.262	79.02
823.44	91.31
823.618	72.87
823.796	56.49
823.974	36.01
824.152	83.11
824.329	95.4
824.507	60.59
824.685	52.39
824.863	74.92
825.04	58.54
825.218	33.96
825.396	46.25
825.574	95.4
825.751	70.83
825.929	31.91
826.107	76.97
826.284	54.44
826.462	113.83
826.639	101.55
826.817	7.34
826.994	81.07
827.172	105.64
827.349	60.59
827.527	31.91
827.704	128.17
827.882	42.15
828.059	150.7
828.237	9.39
828.414	72.87
828.591	64.68
828.769	68.78
828.946	89.26
829.124	107.69
829.301	11.43
829.478	42.15
829.655	101.55
829.833	101.55
830.01	81.07
830.187	74.92
830.364	111.78
830.542	48.3
830.719	48.3
830.896	50.35
831.073	38.06
831.25	99.5
831.427	83.11
831.604	122.02
831.782	56.49
831.959	97.45
832.136	33.96
832.313	25.77
832.49	56.49
832.667	40.11
832.844	54.44
833.021	-0.85
833.198	87.21
833.374	97.45
833.551	62.63
833.728	105.64
833.905	-7
834.082	62.63
834.259	66.73
834.436	70.83
834.612	64.68
834.789	99.5
834.966	138.41
835.143	107.69
835.319	21.67
835.496	15.53
835.673	115.88
835.85	72.87
836.026	38.06
836.203	87.21
836.38	111.78
836.556	48.3
836.733	50.35
836.909	48.3
837.086	68.78
837.262	42.15
837.439	31.91
837.616	9.39
837.792	70.83
837.968	62.63
838.145	5.29
838.321	101.55
838.498	-23.38
838.674	21.67
838.851	60.59
839.027	15.53
839.203	31.91
839.38	58.54
839.556	48.3
839.732	72.87
839.909	93.35
840.085	60.59
840.261	21.67
840.437	17.58
840.614	64.68
840.79	89.26
840.966	70.83
841.142	36.01
841.318	60.59
841.494	95.4
841.671	21.67
841.847	-2.9
842.023	42.15
842.199	19.63
842.375	38.06
842.551	105.64
842.727	15.53
842.903	107.69
843.079	56.49
843.255	15.53
843.431	9.39
843.607	68.78
843.783	-9.05
843.959	27.82
844.134	-56.15
844.31	25.77
844.486	68.78
844.662	44.2
844.838	-21.33
845.013	23.72
845.189	29.87
845.365	56.49
845.541	79.02
845.716	91.31
845.892	56.49
846.068	66.73
846.244	79.02
846.419	46.25
846.595	29.87
846.77	48.3
846.946	-9.05
847.122	23.72
847.297	-39.76
847.473	9.39
847.648	31.91
847.824	33.96
847.999	54.44
848.175	-31.57
848.35	76.97
848.526	31.91
848.701	11.43
848.876	72.87
849.052	56.49
849.227	62.63
849.403	83.11
849.578	21.67
849.753	23.72
849.929	68.78
850.104	58.54
850.279	64.68
850.454	44.2
850.63	25.77
850.805	-0.85
850.98	-19.29
851.155	23.72
851.33	7.34
851.505	-33.62
851.681	40.11
851.856	23.72
852.031	50.35
852.206	81.07
852.381	46.25
852.556	15.53
852.731	81.07
852.906	33.96
853.081	62.63
853.256	29.87
853.431	38.06
853.606	27.82
853.781	-37.72
853.956	7.34
854.131	42.15
854.305	21.67
854.48	52.39
854.655	33.96
854.83	5.29
855.005	15.53
855.18	64.68
855.354	1.19
855.529	56.49
855.704	25.77
855.879	62.63
856.053	19.63
856.228	25.77
856.403	36.01
856.577	15.53
856.752	11.43
856.926	46.25
857.101	5.29
857.276	21.67
857.45	-25.43
857.625	21.67
857.799	-7
857.974	66.73
858.148	64.68
858.323	15.53
858.497	7.34
858.672	58.54
858.846	54.44
859.02	68.78
859.195	-43.86
859.369	23.72
859.543	17.58
859.718	-29.52
859.892	27.82
860.066	31.91
860.241	40.11
860.415	70.83
860.589	70.83
860.763	-45.91
860.938	-17.24
861.112	9.39
861.286	38.06
861.46	66.73
861.634	-19.29
861.808	33.96
861.982	85.16
862.157	36.01
862.331	33.96
862.505	27.82
862.679	19.63
862.853	-19.29
863.027	11.43
863.201	40.11
863.375	-17.24
863.549	58.54
863.722	19.63
863.896	74.92
864.07	95.4
864.244	21.67
864.418	33.96
864.592	74.92
864.766	-4.95
864.939	23.72
865.113	-23.38
865.287	33.96
865.461	-27.48
865.634	40.11
865.808	-15.19
865.982	15.53
866.156	-41.81
866.329	-43.86
866.503	31.91
866.676	62.63
866.85	40.11
867.024	-23.38
867.197	54.44
867.371	29.87
867.544	15.53
867.718	50.35
867.891	36.01
868.065	23.72
868.238	36.01
868.412	40.11
868.585	-47.96
868.759	19.63
868.932	72.87
869.105	17.58
869.279	15.53
869.452	-37.72
869.625	21.67
869.799	40.11
869.972	-11.09
870.145	-41.81
870.319	-52.05
870.492	-66.39
870.665	60.59
870.838	93.35
871.011	70.83
871.185	56.49
871.358	-41.81
871.531	62.63
871.704	-72.53
871.877	46.25
872.05	-21.33
872.223	23.72
872.396	70.83
872.569	13.48
872.742	56.49
872.915	-17.24
873.088	31.91
873.261	23.72
873.434	15.53
873.607	17.58
873.78	72.87
873.953	68.78
874.126	29.87
874.299	-25.43
874.471	-21.33
874.644	50.35
874.817	17.58
874.99	68.78
875.163	-13.14
875.335	-7
875.508	64.68
875.681	74.92
875.853	21.67
876.026	15.53
876.199	-33.62
876.371	-66.39
876.544	44.2
876.717	-13.14
876.889	-13.14
877.062	83.11
877.234	-52.05
877.407	-17.24
877.579	-31.57
877.752	81.07
877.924	54.44
878.097	50.35
878.269	-4.95
878.442	74.92
878.614	-11.09
878.786	74.92
878.959	9.39
879.131	70.83
879.303	-13.14
879.476	29.87
879.648	9.39
879.82	17.58
879.993	-43.86
880.165	9.39
880.337	-23.38
880.509	42.15
880.681	-2.9
880.854	25.77
881.026	83.11
881.198	31.91
881.37	-15.19
881.542	-9.05
881.714	83.11
881.886	15.53
882.058	-43.86
882.23	40.11
882.402	19.63
882.574	3.24
882.746	25.77
882.918	66.73
883.09	-2.9
883.262	-45.91
883.434	-21.33
883.606	42.15
883.778	83.11
883.95	29.87
884.122	11.43
884.293	89.26
884.465	19.63
884.637	-9.05
884.809	36.01
884.98	17.58
885.152	44.2
885.324	23.72
885.496	21.67
885.667	-7
885.839	-4.95
886.011	101.55
886.182	-37.72
886.354	40.11
886.525	19.63
886.697	-13.14
886.869	23.72
887.04	3.24
887.212	1.19
887.383	29.87
887.555	-11.09
887.726	29.87
887.897	-62.29
888.069	-41.81
888.24	-13.14
888.412	29.87
888.583	38.06
888.754	54.44
888.926	-23.38
889.097	-11.09
889.268	-19.29
889.44	64.68
889.611	-39.76
889.782	-19.29
889.953	40.11
890.125	54.44
890.296	-17.24
890.467	97.45
890.638	19.63
890.809	-9.05
890.98	-35.67
891.151	72.87
891.323	11.43
891.494	17.58
891.665	7.34
891.836	62.63
892.007	33.96
892.178	1.19
892.349	1.19
892.52	81.07
892.691	29.87
892.862	27.82
893.032	-58.2
893.203	99.5
893.374	81.07
893.545	23.72
893.716	-25.43
893.887	48.3
894.057	1.19
894.228	-29.52
894.399	1.19
894.57	7.34
894.74	50.35
894.911	58.54
895.082	52.39
895.253	1.19
895.423	9.39
895.594	-41.81
895.764	-52.05
895.935	56.49
896.106	29.87
896.276	48.3
896.447	19.63
896.617	3.24
896.788	-0.85
896.958	-0.85
897.129	66.73
897.299	-17.24
897.47	38.06
897.64	81.07
897.81	107.69
897.981	7.34
898.151	29.87
898.322	27.82
898.492	-13.14
898.662	1.19
898.832	13.48
899.003	7.34
899.173	81.07
899.343	44.2
899.513	13.48
