Data from USB4F104151__212__14-00-01-824.txt Node

Date: Thu Mar 13 14:00:01 EDT 2025
User: louis
Spectrometer: USB4F10415
Trigger mode: 4
Integration Time (sec): 1.000000E-2
Scans to average: 1
Electric dark correction enabled: true
Nonlinearity correction enabled: false
Boxcar width: 0
XAxis mode: Wavelengths
Number of Pixels in Spectrum: 3648
>>>>>Begin Spectral Data<<<<<
178.204	-1.37
178.424	-1.37
178.644	-1.37
178.864	-77.14
179.084	-40.28
179.304	-52.56
179.524	21.16
179.744	-50.52
179.964	21.16
180.184	55.98
180.404	58.03
180.624	-68.95
180.844	-5.46
181.064	-34.13
181.283	80.55
181.503	-42.32
181.723	17.07
181.943	-48.47
182.163	41.64
182.383	-15.7
182.602	-1.37
182.822	4.78
183.042	-5.46
183.262	4.78
183.482	25.26
183.701	39.59
183.921	8.87
184.141	64.17
184.361	35.5
184.58	31.4
184.8	58.03
185.02	0.68
185.239	17.07
185.459	-66.9
185.679	2.73
185.898	12.97
186.118	10.92
186.338	27.31
186.557	33.45
186.777	4.78
186.997	12.97
187.216	53.93
187.436	2.73
187.655	19.11
187.875	55.98
188.095	35.5
188.314	66.22
188.534	-1.37
188.753	31.4
188.973	137.9
189.192	60.07
189.412	66.22
189.631	80.55
189.851	33.45
190.07	76.46
190.29	21.16
190.509	43.69
190.729	-11.61
190.948	4.78
191.168	21.16
191.387	35.5
191.607	74.41
191.826	-30.04
192.045	64.17
192.265	8.87
192.484	31.4
192.704	19.11
192.923	55.98
193.142	10.92
193.362	19.11
193.581	82.6
193.8	60.07
194.02	21.16
194.239	31.4
194.458	-17.75
194.678	15.02
194.897	-13.65
195.116	-9.56
195.335	31.4
195.555	-13.65
195.774	29.35
195.993	33.45
196.212	47.79
196.432	17.07
196.651	55.98
196.87	23.21
197.089	58.03
197.308	60.07
197.528	-34.13
197.747	115.37
197.966	17.07
198.185	-17.75
198.404	103.08
198.623	-7.51
198.842	25.26
199.062	117.42
199.281	31.4
199.5	6.83
199.719	-5.46
199.938	70.31
200.157	111.27
200.376	23.21
200.595	43.69
200.814	53.93
201.033	6.83
201.252	31.4
201.471	60.07
201.69	-5.46
201.909	45.74
202.128	84.65
202.347	35.5
202.566	-5.46
202.785	-56.66
203.004	-27.99
203.223	29.35
203.442	15.02
203.661	62.12
203.879	10.92
204.098	80.55
204.317	64.17
204.536	6.83
204.755	23.21
204.974	33.45
205.193	33.45
205.411	53.93
205.63	2.73
205.849	33.45
206.068	39.59
206.287	-13.65
206.505	-5.46
206.724	39.59
206.943	51.88
207.162	-11.61
207.381	31.4
207.599	39.59
207.818	53.93
208.037	96.94
208.255	17.07
208.474	25.26
208.693	49.83
208.911	72.36
209.13	76.46
209.349	31.4
209.567	-1.37
209.786	27.31
210.005	12.97
210.223	4.78
210.442	-3.41
210.661	49.83
210.879	-30.04
211.098	-7.51
211.316	55.98
211.535	62.12
211.753	12.97
211.972	37.55
212.191	98.99
212.409	45.74
212.628	76.46
212.846	88.75
213.065	60.07
213.283	49.83
213.502	12.97
213.72	25.26
213.938	-71
214.157	68.27
214.375	55.98
214.594	10.92
214.812	-60.76
215.031	-15.7
215.249	-13.65
215.467	25.26
215.686	27.31
215.904	39.59
216.122	12.97
216.341	-13.65
216.559	-9.56
216.778	80.55
216.996	-48.47
217.214	4.78
217.432	72.36
217.651	21.16
217.869	19.11
218.087	41.64
218.306	47.79
218.524	23.21
218.742	-3.41
218.96	-5.46
219.179	-17.75
219.397	80.55
219.615	55.98
219.833	-7.51
220.051	0.68
220.27	-1.37
220.488	39.59
220.706	58.03
220.924	51.88
221.142	-7.51
221.36	72.36
221.578	33.45
221.796	88.75
222.015	88.75
222.233	47.79
222.451	96.94
222.669	80.55
222.887	0.68
223.105	45.74
223.323	-34.13
223.541	-23.89
223.759	10.92
223.977	35.5
224.195	-30.04
224.413	4.78
224.631	86.7
224.849	4.78
225.067	33.45
225.285	23.21
225.503	10.92
225.721	-30.04
225.939	10.92
226.157	-19.8
226.375	41.64
226.592	-25.94
226.81	47.79
227.028	-66.9
227.246	76.46
227.464	8.87
227.682	84.65
227.9	49.83
228.117	98.99
228.335	-7.51
228.553	146.09
228.771	33.45
228.989	33.45
229.206	-1.37
229.424	90.79
229.642	39.59
229.86	-32.08
230.077	-27.99
230.295	43.69
230.513	23.21
230.731	47.79
230.948	43.69
231.166	78.51
231.384	49.83
231.601	82.6
231.819	51.88
232.037	10.92
232.254	21.16
232.472	6.83
232.689	29.35
232.907	12.97
233.125	31.4
233.342	17.07
233.56	10.92
233.777	-27.99
233.995	37.55
234.213	55.98
234.43	47.79
234.648	-1.37
234.865	33.45
235.083	8.87
235.3	10.92
235.518	-21.85
235.735	76.46
235.953	27.31
236.17	-5.46
236.388	-1.37
236.605	25.26
236.822	4.78
237.04	19.11
237.257	49.83
237.475	27.31
237.692	25.26
237.909	96.94
238.127	0.68
238.344	17.07
238.562	2.73
238.779	43.69
238.996	-48.47
239.214	58.03
239.431	113.32
239.648	64.17
239.865	25.26
240.083	-48.47
240.3	29.35
240.517	23.21
240.735	39.59
240.952	55.98
241.169	-25.94
241.386	43.69
241.603	60.07
241.821	49.83
242.038	94.89
242.255	-3.41
242.472	133.8
242.689	-44.37
242.907	70.31
243.124	101.03
243.341	-25.94
243.558	47.79
243.775	64.17
243.992	12.97
244.209	12.97
244.426	27.31
244.643	-30.04
244.86	-1.37
245.078	84.65
245.295	-32.08
245.512	-17.75
245.729	-46.42
245.946	0.68
246.163	88.75
246.38	19.11
246.597	31.4
246.814	-9.56
247.031	-9.56
247.248	-13.65
247.464	-7.51
247.681	10.92
247.898	41.64
248.115	66.22
248.332	23.21
248.549	33.45
248.766	19.11
248.983	164.52
249.2	35.5
249.417	-21.85
249.633	23.21
249.85	39.59
250.067	6.83
250.284	76.46
250.501	25.26
250.717	88.75
250.934	12.97
251.151	39.59
251.368	47.79
251.585	-34.13
251.801	49.83
252.018	-19.8
252.235	8.87
252.451	-9.56
252.668	8.87
252.885	21.16
253.102	51.88
253.318	49.83
253.535	2.73
253.752	76.46
253.968	35.5
254.185	55.98
254.401	33.45
254.618	121.51
254.835	72.36
255.051	150.18
255.268	29.35
255.484	39.59
255.701	-36.18
255.917	80.55
256.134	39.59
256.351	74.41
256.567	0.68
256.784	74.41
257	64.17
257.217	137.9
257.433	98.99
257.65	76.46
257.866	39.59
258.082	-21.85
258.299	29.35
258.515	33.45
258.732	37.55
258.948	43.69
259.165	-9.56
259.381	17.07
259.597	41.64
259.814	88.75
260.03	-13.65
260.246	31.4
260.463	33.45
260.679	101.03
260.895	-7.51
261.112	76.46
261.328	2.73
261.544	-19.8
261.761	49.83
261.977	68.27
262.193	25.26
262.409	72.36
262.626	45.74
262.842	68.27
263.058	64.17
263.274	53.93
263.49	47.79
263.707	82.6
263.923	-48.47
264.139	35.5
264.355	15.02
264.571	64.17
264.787	45.74
265.004	105.13
265.22	-1.37
265.436	41.64
265.652	17.07
265.868	58.03
266.084	60.07
266.3	55.98
266.516	6.83
266.732	47.79
266.948	-56.66
267.164	27.31
267.38	2.73
267.596	47.79
267.812	64.17
268.028	103.08
268.244	47.79
268.46	80.55
268.676	17.07
268.892	-23.89
269.108	17.07
269.324	64.17
269.54	19.11
269.756	33.45
269.972	45.74
270.188	74.41
270.403	-21.85
270.619	-13.65
270.835	-56.66
271.051	19.11
271.267	19.11
271.483	15.02
271.698	8.87
271.914	-17.75
272.13	70.31
272.346	74.41
272.562	-1.37
272.777	35.5
272.993	39.59
273.209	31.4
273.425	35.5
273.64	-44.37
273.856	41.64
274.072	39.59
274.287	27.31
274.503	88.75
274.719	33.45
274.934	74.41
275.15	17.07
275.366	-23.89
275.581	19.11
275.797	23.21
276.012	19.11
276.228	27.31
276.444	17.07
276.659	-54.61
276.875	17.07
277.09	72.36
277.306	2.73
277.521	144.04
277.737	86.7
277.952	39.59
278.168	49.83
278.383	-7.51
278.599	129.7
278.814	37.55
279.03	33.45
279.245	19.11
279.461	17.07
279.676	-1.37
279.892	29.35
280.107	25.26
280.322	68.27
280.538	23.21
280.753	8.87
280.969	-32.08
281.184	62.12
281.399	92.84
281.615	17.07
281.83	27.31
282.045	37.55
282.26	146.09
282.476	-9.56
282.691	51.88
282.906	-11.61
283.122	-25.94
283.337	31.4
283.552	58.03
283.767	-9.56
283.983	49.83
284.198	25.26
284.413	90.79
284.628	39.59
284.843	25.26
285.058	25.26
285.274	27.31
285.489	66.22
285.704	62.12
285.919	58.03
286.134	-21.85
286.349	74.41
286.564	8.87
286.779	105.13
286.995	-7.51
287.21	74.41
287.425	70.31
287.64	-25.94
287.855	25.26
288.07	49.83
288.285	47.79
288.5	53.93
288.715	19.11
288.93	19.11
289.145	15.02
289.36	123.56
289.575	-17.75
289.79	31.4
290.004	88.75
290.219	62.12
290.434	31.4
290.649	82.6
290.864	98.99
291.079	6.83
291.294	105.13
291.509	-56.66
291.724	-23.89
291.938	-27.99
292.153	76.46
292.368	51.88
292.583	170.66
292.798	27.31
293.012	37.55
293.227	4.78
293.442	10.92
293.657	12.97
293.871	15.02
294.086	41.64
294.301	72.36
294.516	92.84
294.73	35.5
294.945	27.31
295.16	29.35
295.374	72.36
295.589	60.07
295.804	60.07
296.018	62.12
296.233	17.07
296.447	33.45
296.662	29.35
296.877	55.98
297.091	64.17
297.306	51.88
297.52	41.64
297.735	-75.09
297.949	-27.99
298.164	6.83
298.378	15.02
298.593	39.59
298.807	31.4
299.022	-3.41
299.236	62.12
299.451	25.26
299.665	80.55
299.88	39.59
300.094	45.74
300.309	47.79
300.523	74.41
300.737	64.17
300.952	41.64
301.166	86.7
301.381	4.78
301.595	-1.37
301.809	45.74
302.024	39.59
302.238	8.87
302.452	64.17
302.667	27.31
302.881	21.16
303.095	76.46
303.309	-30.04
303.524	15.02
303.738	98.99
303.952	-15.7
304.166	-1.37
304.381	55.98
304.595	6.83
304.809	-17.75
305.023	27.31
305.237	51.88
305.452	90.79
305.666	27.31
305.88	-17.75
306.094	43.69
306.308	51.88
306.522	58.03
306.736	10.92
306.95	-13.65
307.164	25.26
307.379	-7.51
307.593	76.46
307.807	23.21
308.021	-32.08
308.235	64.17
308.449	68.27
308.663	45.74
308.877	-13.65
309.091	76.46
309.305	51.88
309.519	-19.8
309.733	23.21
309.947	-32.08
310.161	45.74
310.374	62.12
310.588	27.31
310.802	21.16
311.016	19.11
311.23	10.92
311.444	68.27
311.658	51.88
311.872	41.64
312.085	51.88
312.299	58.03
312.513	49.83
312.727	10.92
312.941	45.74
313.154	68.27
313.368	58.03
313.582	55.98
313.796	15.02
314.009	2.73
314.223	58.03
314.437	82.6
314.651	-11.61
314.864	74.41
315.078	64.17
315.292	39.59
315.505	33.45
315.719	90.79
315.933	-17.75
316.146	8.87
316.36	62.12
316.573	96.94
316.787	-30.04
317.001	-5.46
317.214	19.11
317.428	96.94
317.641	2.73
317.855	82.6
318.068	101.03
318.282	96.94
318.495	23.21
318.709	80.55
318.922	27.31
319.136	58.03
319.349	31.4
319.563	74.41
319.776	49.83
319.99	-5.46
320.203	55.98
320.417	-3.41
320.63	35.5
320.843	86.7
321.057	82.6
321.27	94.89
321.483	88.75
321.697	92.84
321.91	-3.41
322.124	64.17
322.337	39.59
322.55	12.97
322.763	131.75
322.977	74.41
323.19	47.79
323.403	27.31
323.617	31.4
323.83	72.36
324.043	101.03
324.256	31.4
324.469	-27.99
324.683	55.98
324.896	15.02
325.109	64.17
325.322	37.55
325.535	125.61
325.748	53.93
325.962	0.68
326.175	0.68
326.388	12.97
326.601	-19.8
326.814	-13.65
327.027	33.45
327.24	8.87
327.453	49.83
327.666	55.98
327.879	15.02
328.092	64.17
328.305	35.5
328.518	49.83
328.731	4.78
328.944	55.98
329.157	-23.89
329.37	29.35
329.583	41.64
329.796	88.75
330.009	-17.75
330.222	76.46
330.435	4.78
330.648	6.83
330.861	45.74
331.073	33.45
331.286	58.03
331.499	41.64
331.712	68.27
331.925	60.07
332.138	45.74
332.35	90.79
332.563	2.73
332.776	82.6
332.989	6.83
333.202	47.79
333.414	21.16
333.627	41.64
333.84	41.64
334.053	98.99
334.265	64.17
334.478	47.79
334.691	17.07
334.903	92.84
335.116	25.26
335.329	39.59
335.541	121.51
335.754	2.73
335.966	4.78
336.179	4.78
336.392	66.22
336.604	10.92
336.817	47.79
337.029	66.22
337.242	-1.37
337.454	70.31
337.667	21.16
337.88	78.51
338.092	17.07
338.305	82.6
338.517	-3.41
338.729	47.79
338.942	55.98
339.154	47.79
339.367	29.35
339.579	-1.37
339.792	21.16
340.004	88.75
340.217	39.59
340.429	64.17
340.641	39.59
340.854	-40.28
341.066	47.79
341.278	105.13
341.491	88.75
341.703	150.18
341.915	43.69
342.128	43.69
342.34	8.87
342.552	21.16
342.764	27.31
342.977	47.79
343.189	90.79
343.401	80.55
343.613	55.98
343.826	-15.7
344.038	31.4
344.25	39.59
344.462	8.87
344.674	27.31
344.886	27.31
345.099	33.45
345.311	58.03
345.523	115.37
345.735	-1.37
345.947	80.55
346.159	107.18
346.371	66.22
346.583	-13.65
346.795	66.22
347.007	2.73
347.219	105.13
347.431	-64.85
347.643	8.87
347.855	-13.65
348.067	80.55
348.279	45.74
348.491	60.07
348.703	45.74
348.915	39.59
349.127	55.98
349.339	80.55
349.551	-3.41
349.763	2.73
349.975	66.22
350.187	80.55
350.399	113.32
350.61	72.36
350.822	51.88
351.034	23.21
351.246	35.5
351.458	47.79
351.669	47.79
351.881	31.4
352.093	80.55
352.305	55.98
352.517	15.02
352.728	68.27
352.94	15.02
353.152	88.75
353.363	47.79
353.575	82.6
353.787	107.18
353.999	53.93
354.21	101.03
354.422	43.69
354.633	0.68
354.845	6.83
355.057	92.84
355.268	66.22
355.48	4.78
355.692	25.26
355.903	-3.41
356.115	49.83
356.326	19.11
356.538	113.32
356.749	-25.94
356.961	43.69
357.172	17.07
357.384	39.59
357.595	88.75
357.807	10.92
358.018	49.83
358.23	98.99
358.441	88.75
358.653	45.74
358.864	15.02
359.075	96.94
359.287	58.03
359.498	90.79
359.709	47.79
359.921	15.02
360.132	49.83
360.344	39.59
360.555	23.21
360.766	76.46
360.977	-17.75
361.189	-7.51
361.4	98.99
361.611	111.27
361.823	41.64
362.034	92.84
362.245	12.97
362.456	88.75
362.667	25.26
362.879	80.55
363.09	23.21
363.301	43.69
363.512	19.11
363.723	84.65
363.935	43.69
364.146	-25.94
364.357	15.02
364.568	64.17
364.779	51.88
364.99	47.79
365.201	-19.8
365.412	17.07
365.623	82.6
365.834	27.31
366.045	107.18
366.256	23.21
366.467	33.45
366.678	86.7
366.889	76.46
367.1	49.83
367.311	64.17
367.522	31.4
367.733	64.17
367.944	35.5
368.155	2.73
368.366	90.79
368.577	70.31
368.788	53.93
368.999	125.61
369.209	64.17
369.42	58.03
369.631	88.75
369.842	64.17
370.053	82.6
370.264	-11.61
370.474	68.27
370.685	21.16
370.896	-21.85
371.107	47.79
371.317	96.94
371.528	35.5
371.739	41.64
371.95	45.74
372.16	19.11
372.371	78.51
372.582	133.8
372.792	80.55
373.003	84.65
373.214	45.74
373.424	119.46
373.635	82.6
373.846	58.03
374.056	25.26
374.267	6.83
374.477	68.27
374.688	47.79
374.898	-9.56
375.109	-34.13
375.319	88.75
375.53	74.41
375.74	72.36
375.951	58.03
376.161	47.79
376.372	70.31
376.582	47.79
376.793	96.94
377.003	101.03
377.214	51.88
377.424	70.31
377.635	41.64
377.845	51.88
378.055	29.35
378.266	45.74
378.476	17.07
378.686	109.22
378.897	33.45
379.107	49.83
379.317	66.22
379.528	111.27
379.738	76.46
379.948	29.35
380.158	82.6
380.369	53.93
380.579	0.68
380.789	43.69
380.999	80.55
381.21	86.7
381.42	203.43
381.63	60.07
381.84	64.17
382.05	84.65
382.261	15.02
382.471	92.84
382.681	80.55
382.891	74.41
383.101	45.74
383.311	31.4
383.521	33.45
383.731	92.84
383.941	107.18
384.151	88.75
384.361	41.64
384.571	80.55
384.781	121.51
384.991	113.32
385.201	103.08
385.411	76.46
385.621	88.75
385.831	25.26
386.041	68.27
386.251	0.68
386.461	72.36
386.671	115.37
386.881	74.41
387.091	41.64
387.301	12.97
387.511	37.55
387.72	41.64
387.93	35.5
388.14	76.46
388.35	103.08
388.56	60.07
388.769	117.42
388.979	105.13
389.189	84.65
389.399	70.31
389.609	80.55
389.818	92.84
390.028	125.61
390.238	72.36
390.447	101.03
390.657	94.89
390.867	111.27
391.076	31.4
391.286	58.03
391.496	10.92
391.705	121.51
391.915	125.61
392.125	78.51
392.334	129.7
392.544	154.28
392.753	51.88
392.963	96.94
393.172	86.7
393.382	76.46
393.591	72.36
393.801	27.31
394.01	92.84
394.22	72.36
394.429	90.79
394.639	21.16
394.848	96.94
395.058	98.99
395.267	78.51
395.477	62.12
395.686	45.74
395.895	115.37
396.105	88.75
396.314	111.27
396.524	96.94
396.733	117.42
396.942	80.55
397.152	113.32
397.361	62.12
397.57	74.41
397.78	105.13
397.989	33.45
398.198	137.9
398.407	74.41
398.617	88.75
398.826	107.18
399.035	62.12
399.244	82.6
399.453	141.99
399.663	70.31
399.872	115.37
400.081	80.55
400.29	109.22
400.499	109.22
400.708	137.9
400.917	168.62
401.127	55.98
401.336	82.6
401.545	137.9
401.754	125.61
401.963	66.22
402.172	150.18
402.381	94.89
402.59	88.75
402.799	131.75
403.008	154.28
403.217	84.65
403.426	127.66
403.635	129.7
403.844	105.13
404.053	115.37
404.262	119.46
404.471	107.18
404.68	162.47
404.888	141.99
405.097	150.18
405.306	123.56
405.515	98.99
405.724	84.65
405.933	103.08
406.142	182.95
406.35	201.38
406.559	148.14
406.768	178.86
406.977	185
407.185	174.76
407.394	174.76
407.603	185
407.812	197.29
408.02	187.05
408.229	217.77
408.438	178.86
408.646	240.29
408.855	172.71
409.064	232.1
409.272	244.39
409.481	307.88
409.69	234.15
409.898	322.21
410.107	281.25
410.315	301.73
410.524	371.37
410.733	334.5
410.941	338.6
411.15	322.21
411.358	418.47
411.567	357.03
411.775	309.93
411.984	309.93
412.192	373.41
412.401	328.36
412.609	455.33
412.818	361.13
413.026	395.94
413.234	369.32
413.443	504.48
413.651	527.01
413.86	408.23
414.068	514.72
414.276	408.23
414.485	492.2
414.693	555.68
414.901	610.98
415.11	533.15
415.318	578.21
415.526	668.32
415.734	723.62
415.943	664.22
416.151	756.38
416.359	707.23
416.567	772.77
416.776	653.98
416.984	760.48
417.192	832.16
417.4	866.97
417.608	860.83
417.817	920.22
418.025	860.83
418.233	928.41
418.441	961.18
418.649	1094.3
418.857	1075.87
419.065	1125.02
419.273	1112.73
419.481	1131.16
419.689	1120.92
419.897	1243.8
420.105	1243.8
420.313	1282.71
420.521	1389.21
420.729	1366.68
420.937	1378.97
421.145	1499.8
421.353	1587.86
421.561	1577.62
421.769	1710.74
421.977	1647.25
422.185	1639.06
422.393	1768.08
422.601	1847.95
422.809	1899.15
423.017	1886.86
423.224	1944.2
423.432	2024.08
423.64	2155.15
423.848	2284.17
424.056	2226.82
424.263	2390.66
424.471	2441.86
424.679	2472.58
424.887	2548.36
425.094	2589.32
425.302	2605.7
425.51	2726.53
425.718	2742.91
425.925	2804.35
426.133	2931.33
426.341	3074.68
426.548	3105.4
426.756	3193.47
426.964	3439.22
427.171	3603.06
427.379	3570.29
427.586	3510.9
427.794	3746.42
428.001	3891.82
428.209	4047.47
428.417	4037.23
428.624	4196.97
428.832	4287.08
429.039	4244.07
429.247	4164.2
429.454	4907.62
429.662	4829.79
429.869	4606.56
430.076	4989.53
430.284	4852.32
430.491	5032.54
430.699	5298.78
430.906	5446.23
431.114	5284.44
431.321	5597.78
431.528	5730.9
431.736	6072.91
431.943	6128.21
432.15	6183.5
432.358	6177.36
432.565	6535.75
432.772	6529.61
432.979	6883.91
433.187	7170.62
433.394	6879.81
433.601	7404.09
433.808	7406.14
434.016	7422.52
434.223	7649.85
434.43	8061.49
434.637	8241.71
434.844	8763.94
435.052	8591.91
435.259	8700.45
435.466	8776.23
435.673	8743.46
435.88	9202.21
436.087	9847.32
436.294	9712.15
436.501	9562.65
436.708	9656.86
436.915	10123.79
437.122	10451.47
437.329	10533.39
437.537	10830.34
437.743	11092.48
437.95	10752.52
438.157	11358.72
438.364	11926
438.571	11889.14
438.778	12073.46
438.985	13025.76
439.192	12564.97
439.399	12884.45
439.606	12587.5
439.813	13300.19
440.02	14051.8
440.227	13834.71
440.433	13672.92
440.64	14068.18
440.847	13935.06
441.054	14135.76
441.261	15188.42
441.467	14803.4
441.674	15632.83
441.881	16161.2
442.088	16021.94
442.294	15694.27
442.501	16165.3
442.708	16519.6
442.914	17152.42
443.121	18018.71
443.328	17572.25
443.534	18792.84
443.741	18188.69
443.948	17781.15
444.154	19237.25
444.361	19147.14
444.568	19390.85
444.774	19063.18
444.981	19538.3
445.187	19886.46
445.394	21068.14
445.6	20736.37
445.807	22548.82
446.013	21694.82
446.22	22135.13
446.426	23058.76
446.633	22960.46
446.839	23779.65
447.046	22923.6
447.252	24119.61
447.459	23941.44
447.665	23875.9
447.871	25237.8
448.078	26183.96
448.284	24938.8
448.491	25788.71
448.697	26482.97
448.903	27216.14
449.11	27031.82
449.316	26689.81
449.522	27289.87
449.728	27998.46
449.935	28035.33
450.141	28107.01
450.347	28655.86
450.553	27322.63
450.76	28225.79
450.966	29116.65
451.172	28682.49
451.378	29389.03
451.584	28958.96
451.791	29677.8
451.997	29343.98
452.203	29853.92
452.409	30091.49
452.615	29694.18
452.821	28737.78
453.027	28451.06
453.233	30120.16
453.44	28580.09
453.646	28776.69
453.852	28797.17
454.058	29530.34
454.264	28692.72
454.47	29237.48
454.676	28377.34
454.882	29614.31
455.088	27033.87
455.294	27314.44
455.5	28115.2
455.705	27973.89
455.911	26499.35
456.117	26351.9
456.323	25770.27
456.529	24607.03
456.735	25524.52
456.941	24914.22
457.147	24658.23
457.352	23929.15
457.558	23503.17
457.764	23513.41
457.97	23105.87
458.176	22882.64
458.381	22761.81
458.587	21713.25
458.793	21580.13
458.999	20703.6
459.204	21930.33
459.41	21584.23
459.616	20167.03
459.821	20300.15
460.027	19900.79
460.233	19775.87
460.438	18688.4
460.644	18989.45
460.85	18190.74
461.055	17729.95
461.261	17545.63
461.466	16402.86
461.672	15827.39
461.878	16955.82
462.083	16099.76
462.289	15516.09
462.494	15755.71
462.7	14873.03
462.905	14619.08
463.111	14870.98
463.316	15229.38
463.522	14834.12
463.727	14875.08
463.932	14592.46
464.138	14559.69
464.343	14664.14
464.549	14209.49
464.754	14590.41
464.959	14735.82
465.165	14694.86
465.37	13648.35
465.575	13470.17
465.781	14064.08
465.986	14313.94
466.191	13597.15
466.397	13421.02
466.602	12718.57
466.807	13308.38
467.012	12904.93
467.218	13033.96
467.423	12915.17
467.628	13001.19
467.833	13558.24
468.038	12970.47
468.244	12820.97
468.449	13146.59
468.654	12806.63
468.859	12765.67
469.064	12675.56
469.269	11966.96
469.474	12067.31
469.679	12403.18
469.885	12306.93
470.09	12343.79
470.295	12325.36
470.5	11870.71
470.705	12098.03
470.91	11698.68
471.115	11727.35
471.32	11651.58
471.525	11710.97
471.73	11391.48
471.935	11379.2
472.139	11123.2
472.344	11465.21
472.549	11153.92
472.754	10918.4
472.959	10893.83
473.164	10465.8
473.369	10246.67
473.574	10652.17
473.778	10619.4
473.983	10527.24
474.188	10467.85
474.393	9974.29
474.598	10134.03
474.802	9890.32
475.007	9951.76
475.212	10052.11
475.417	9562.65
475.621	9703.96
475.826	9679.38
476.031	9433.63
476.235	9357.85
476.44	9574.94
476.645	9234.97
476.849	9327.13
477.054	9208.35
477.259	9095.71
477.463	8778.28
477.668	8796.71
477.872	8985.12
478.077	8763.94
478.282	8366.64
478.486	8364.59
478.691	8319.53
478.895	8454.7
479.1	8292.91
479.304	8247.85
479.509	8278.57
479.713	8217.13
479.918	8043.06
480.122	7846.45
480.326	8041.01
480.531	8067.63
480.735	7909.94
480.94	7922.23
481.144	8067.63
481.348	7770.68
481.553	7969.33
481.757	7557.69
481.961	7918.13
482.166	8210.99
482.37	7903.79
482.574	7805.49
482.778	7887.41
482.983	7842.35
483.187	7973.43
483.391	7840.31
483.595	7825.97
483.8	7637.56
484.004	7959.09
484.208	8096.3
484.412	7768.63
484.616	7871.03
484.821	8018.48
485.025	7520.82
485.229	7823.92
485.433	7584.31
485.637	7701.05
485.841	7653.94
486.045	7715.38
486.249	7701.05
486.453	7623.22
486.657	7682.61
486.861	8010.29
487.065	7621.17
487.269	7719.48
487.473	7664.18
487.677	7633.46
487.881	7881.27
488.085	7500.34
488.289	7891.51
488.493	7780.92
488.697	7739.96
488.901	7916.08
489.105	7766.58
489.309	7877.17
489.512	7877.17
489.716	7952.95
489.92	7881.27
490.124	8129.07
490.328	7944.75
490.531	7993.9
490.735	7942.71
490.939	8100.4
491.143	7977.52
491.346	8026.67
491.55	8190.51
491.754	7983.66
491.958	8182.32
492.161	8251.95
492.365	8323.63
492.569	8241.71
492.772	8333.87
492.976	8299.05
493.18	8626.73
493.383	8493.61
493.587	8598.06
493.79	8782.37
493.994	8473.13
494.197	8628.77
494.401	8872.48
494.605	8856.1
494.808	8907.3
495.012	8925.73
495.215	8907.3
495.419	9132.58
495.622	8985.12
495.825	9282.08
496.029	9351.71
496.232	9501.21
496.436	9382.43
496.639	9560.6
496.843	9726.49
497.046	9796.12
497.249	9935.38
497.453	10205.71
497.656	10043.92
497.859	10199.57
498.063	10150.42
498.266	10416.65
498.469	10451.47
498.673	10459.66
498.876	10686.98
499.079	10967.56
499.282	10773
499.485	11321.85
499.689	11299.33
499.892	11252.22
500.095	11483.64
500.298	11966.96
500.501	11557.37
500.705	11936.24
500.908	12204.53
501.111	12114.42
501.314	12569.07
501.517	12650.99
501.72	12399.09
501.923	12642.79
502.126	13064.68
502.329	13464.03
502.532	13238.75
502.735	13519.32
502.938	13441.5
503.141	13898.2
503.344	13951.45
503.547	13822.42
503.75	14367.18
503.953	14387.66
504.156	14576.08
504.359	14739.91
504.562	14893.51
504.765	15081.92
504.968	15272.39
505.17	15557.05
505.373	15792.57
505.576	16023.99
505.779	16083.38
505.982	16478.64
506.185	16734.64
506.387	16789.93
506.59	16775.59
506.793	17301.92
506.996	17310.11
507.198	17799.58
507.401	17471.9
507.604	17887.64
507.807	18217.36
508.009	18549.14
508.212	18653.58
508.415	18960.78
508.617	19444.1
508.82	19442.05
509.022	19618.18
509.225	19911.03
509.428	20070.78
509.63	20334.96
509.833	20279.67
510.035	21164.39
510.238	20758.89
510.44	21510.5
510.643	21705.06
510.845	21764.45
511.048	21723.49
511.25	22251.86
511.453	22487.38
511.655	23107.91
511.858	23150.92
512.06	23564.61
512.262	23390.53
512.465	23484.74
512.667	23986.49
512.87	24435
513.072	24480.05
513.274	24983.85
513.477	25237.8
513.679	25708.83
513.881	26067.23
514.084	26284.31
514.286	26255.64
514.488	26310.94
514.69	27128.08
514.893	27255.05
515.095	27369.74
515.297	28199.16
515.499	27857.15
515.701	28629.24
515.904	28920.05
516.106	28842.23
516.308	29604.07
516.51	29868.26
516.712	29958.37
516.914	30212.32
517.116	30615.77
517.318	30841.04
517.52	31135.95
517.722	31234.25
517.925	31994.05
518.127	32360.64
518.329	32432.32
518.531	32360.64
518.733	33329.33
518.935	33542.31
519.136	33636.52
519.338	34056.35
519.54	34379.93
519.742	34470.04
519.944	34717.85
520.146	35238.03
520.348	35588.24
520.55	36073.6
520.752	35895.43
520.954	36567.16
521.155	36546.68
521.357	37329.01
521.559	37501.04
521.761	37961.83
521.963	37984.36
522.164	38312.03
522.366	38072.42
522.568	39223.38
522.77	39462.99
522.971	39665.74
523.173	39325.78
523.375	39909.45
523.576	39843.91
523.778	40239.17
523.98	40622.14
524.181	40841.28
524.383	41214.01
524.584	41629.74
524.786	41822.25
524.988	41173.05
525.189	42332.2
525.391	42412.07
525.592	42387.49
525.794	42985.5
525.995	42797.09
526.197	42846.24
526.398	43196.44
526.6	43350.04
526.801	43632.66
527.003	43954.19
527.204	43923.47
527.406	44441.6
527.607	44382.21
527.808	44883.97
528.01	44197.9
528.211	44615.68
528.412	45510.64
528.614	45244.41
528.815	45275.13
529.016	45750.26
529.218	45158.39
529.419	45598.71
529.62	45299.7
529.822	45400.05
530.023	45854.7
530.224	45985.77
530.425	45707.25
530.626	46018.54
530.828	45651.95
531.029	46706.66
531.23	45727.73
531.431	45656.05
531.632	46395.37
531.833	46563.3
532.035	46606.31
532.236	46272.49
532.437	46813.15
532.638	46655.46
532.839	46868.45
533.04	46979.04
533.241	46589.92
533.442	47126.49
533.643	47275.99
533.844	46903.26
534.045	47089.63
534.246	46673.89
534.447	47261.66
534.648	47288.28
534.849	47007.71
535.05	46479.33
535.251	46872.54
535.451	46895.07
535.652	47380.44
535.853	47298.52
536.054	47353.82
536.255	47284.19
536.456	46831.58
536.657	47611.86
536.857	46966.75
537.058	47144.92
537.259	47773.65
537.46	47417.3
537.66	47249.37
537.861	47316.95
538.062	47069.15
538.263	47478.74
538.463	47251.42
538.664	47048.67
538.865	47544.28
539.065	47718.35
539.266	47544.28
539.466	47939.54
539.667	46976.99
539.868	47779.79
540.068	47329.24
540.269	47314.9
540.469	47609.81
540.67	47439.83
540.87	47415.26
541.071	47364.06
541.271	47708.11
541.472	47200.22
541.672	46931.93
541.873	47265.75
542.073	46634.98
542.274	47421.4
542.474	47370.2
542.675	46968.8
542.875	47286.23
543.075	46979.04
543.276	46391.27
543.476	47417.3
543.676	47237.08
543.877	47331.29
544.077	46985.18
544.277	47124.44
544.478	47536.09
544.678	47456.21
544.878	47179.74
545.078	47142.88
545.279	46712.8
545.479	47032.28
545.679	47470.55
545.879	47292.38
546.079	46925.79
546.28	47181.79
546.48	46639.07
546.68	47273.95
546.88	46862.3
547.08	47509.46
547.28	47149.02
547.48	47042.52
547.68	47085.53
547.88	47005.66
548.081	47165.4
548.281	47402.97
548.481	46942.17
548.681	47159.26
548.881	47435.73
549.081	46979.04
549.28	47173.59
549.48	47298.52
549.68	47296.47
549.88	47509.46
550.08	47306.71
550.28	47472.6
550.48	47146.97
550.68	47232.99
550.88	47161.31
551.08	47083.48
551.279	47183.83
551.479	46616.55
551.679	47136.73
551.879	46499.81
552.079	47140.83
552.278	47005.66
552.478	46890.98
552.678	47230.94
552.878	47103.96
553.077	46647.27
553.277	46798.82
553.477	47138.78
553.676	46712.8
553.876	47007.71
554.076	46579.68
554.275	46712.8
554.475	46360.55
554.674	47259.61
554.874	46555.11
555.074	46528.48
555.273	47230.94
555.473	46602.21
555.672	46495.72
555.872	46399.46
556.071	46702.56
556.271	46718.95
556.47	46129.13
556.67	46344.17
556.869	46106.6
557.068	46673.89
557.268	45885.42
557.467	46497.77
557.667	46362.6
557.866	45938.67
558.065	45926.38
558.265	46065.64
558.464	45361.14
558.663	46213.1
558.863	45588.47
559.062	46254.06
559.261	45207.54
559.461	46125.03
559.66	45139.96
559.859	45299.7
560.058	45348.85
560.258	45404.15
560.457	45598.71
560.656	45944.81
560.855	45232.12
561.054	45672.43
561.253	45078.52
561.453	44992.51
561.652	45242.36
561.851	45262.84
562.05	45309.94
562.249	44435.46
562.448	45242.36
562.647	44713.98
562.846	44611.59
563.045	44779.52
563.244	44492.8
563.443	45111.29
563.642	44118.03
563.841	44593.15
564.04	44253.19
564.239	44734.46
564.438	44054.54
564.637	44298.25
564.836	44341.25
565.035	44044.3
565.234	44382.21
565.432	44173.32
565.631	43790.35
565.83	43970.57
566.029	43628.56
566.228	43796.49
566.427	43632.66
566.625	43716.62
566.824	43106.33
567.023	43771.92
567.222	43208.73
567.42	43227.16
567.619	43448.34
567.818	43153.43
568.016	42836
568.215	43585.55
568.414	42907.68
568.612	43231.25
568.811	42688.54
569.01	43005.98
569.208	42440.74
569.407	42829.85
569.605	42225.7
569.804	42760.22
570.002	42338.34
570.201	42436.64
570.4	42297.38
570.598	41926.7
570.797	41703.47
570.995	41867.31
571.193	41156.66
571.392	42053.67
571.59	41400.37
571.789	41453.62
571.987	41154.61
572.186	41455.67
572.384	40843.32
572.582	41248.82
572.781	40892.47
572.979	40716.35
573.177	40933.43
573.376	40886.33
573.574	40493.12
573.772	40867.9
573.971	40327.24
574.169	40058.95
574.367	39974.98
574.565	40200.26
574.763	40050.76
574.962	39979.08
575.16	39647.31
575.358	39977.03
575.556	39252.05
575.754	39870.54
575.952	39127.13
576.151	39618.64
576.349	39108.69
576.547	39303.25
576.745	38875.23
576.943	38846.55
577.141	38805.59
577.339	38752.35
577.537	38619.23
577.735	38428.77
577.933	38477.92
578.131	38537.31
578.329	38109.29
578.527	37812.33
578.725	37974.12
578.923	38170.72
579.121	38015.08
579.319	37609.58
579.516	38090.85
579.714	37478.51
579.912	37255.28
580.11	37595.24
580.308	37492.85
580.506	37138.55
580.704	36821.11
580.901	37058.68
581.099	37011.57
581.297	37083.25
581.495	36599.93
581.692	36872.31
581.89	36264.07
582.088	36790.39
582.285	36724.86
582.483	36595.84
582.681	36221.06
582.878	35905.67
583.076	35532.94
583.274	36401.28
583.471	35686.54
583.669	35731.59
583.866	35514.51
584.064	35549.32
584.262	35332.24
584.459	35446.93
584.657	34824.34
584.854	35272.85
585.052	34848.92
585.249	34969.75
585.447	34953.37
585.644	34617.5
585.841	34756.76
586.039	34449.56
586.236	34357.41
586.434	34261.15
586.631	34027.68
586.828	34468
587.026	34046.12
587.223	34052.26
587.42	33613.99
587.618	34148.51
587.815	33620.14
588.012	33556.65
588.21	33151.15
588.407	33697.96
588.604	33089.71
588.801	33134.77
588.999	33378.48
589.196	32952.5
589.393	33157.3
589.59	32884.92
589.787	32463.04
589.984	32569.53
590.182	32475.32
590.379	33056.95
590.576	32035.01
590.773	32362.68
590.97	31994.05
591.167	32395.45
591.364	32131.26
591.561	32133.31
591.758	31819.97
591.955	32078.02
592.152	31768.77
592.349	31682.76
592.546	31799.49
592.743	31740.1
592.94	31121.62
593.137	31555.79
593.334	31664.33
593.531	31080.66
593.727	30968.02
593.924	30888.15
594.121	30812.37
594.318	31013.07
594.515	30523.61
594.712	31189.2
594.908	30361.82
595.105	30691.54
595.302	30308.57
595.499	30308.57
595.696	30054.62
595.892	29860.07
596.089	30349.53
596.286	30169.31
596.482	29645.03
596.679	29593.83
596.876	29894.88
597.072	29602.02
597.269	29950.18
597.466	29362.41
597.662	29343.98
597.859	29272.3
598.055	29511.91
598.252	29100.27
598.448	28905.71
598.645	29049.07
598.841	28997.87
599.038	28715.25
599.234	28696.82
599.431	28381.43
599.627	28698.87
599.824	28383.48
600.02	28631.29
600.217	28584.18
600.413	28080.38
600.609	28156.16
600.806	28131.58
601.002	28164.35
601.198	27568.39
601.395	27687.17
601.591	27670.79
601.787	27787.52
601.984	27574.53
602.18	27668.74
602.376	27576.58
602.572	27486.47
602.769	27253
602.965	27140.36
603.161	26892.56
603.357	26984.72
603.553	26802.45
603.75	27058.45
603.946	26620.18
604.142	26747.15
604.338	26351.9
604.534	26419.48
604.73	26036.51
604.926	26110.24
605.122	26306.84
605.318	25880.86
605.514	25827.62
605.71	25514.28
605.906	26056.99
606.102	25680.16
606.298	25778.47
606.494	25776.42
606.69	25753.89
606.886	25737.51
607.082	25176.36
607.278	25614.63
607.474	24795.44
607.67	25375.02
607.866	24830.26
608.062	25205.03
608.257	24973.61
608.453	25143.59
608.649	24594.74
608.845	24703.28
609.041	24695.09
609.236	24602.93
609.432	24525.11
609.628	24381.75
609.824	24387.89
610.019	24189.24
610.215	24125.75
610.411	24248.63
610.606	24064.32
610.802	24267.06
610.998	24043.84
611.193	24084.8
611.389	23832.9
611.584	23456.07
611.78	23443.78
611.976	23583.04
612.171	23812.42
612.367	23454.02
612.562	23447.88
612.758	23021.9
612.953	23075.15
613.149	23214.41
613.344	23034.19
613.539	23558.47
613.735	23384.39
613.93	22935.88
614.126	22661.46
614.321	23157.07
614.517	22778.19
614.712	22903.12
614.907	22653.26
615.103	22839.63
615.298	22497.62
615.493	22845.77
615.688	22419.8
615.884	22636.88
616.079	22120.79
616.274	22518.1
616.47	22260.06
616.665	22190.42
616.86	22073.69
617.055	22088.03
617.25	21913.95
617.445	22063.45
617.641	21870.94
617.836	21866.85
618.031	21504.35
618.226	21389.67
618.421	21760.35
618.616	21723.49
618.811	21029.23
619.006	21649.76
619.201	20941.16
619.396	21277.03
619.591	20795.76
619.786	21090.66
619.981	20724.08
620.176	20949.35
620.371	20644.21
620.566	20791.66
620.761	20377.97
620.956	20513.14
621.151	20334.96
621.346	20283.77
621.541	19698.05
621.735	19970.43
621.93	19818.88
622.125	19704.19
622.32	19532.16
622.515	19757.44
622.709	19351.94
622.904	19513.73
623.099	19464.58
623.294	19452.29
623.488	19095.94
623.683	19231.11
623.878	18626.96
624.072	18837.9
624.267	18809.23
624.462	18645.39
624.656	18295.19
624.851	18358.67
625.046	18422.16
625.24	18336.15
625.435	18284.95
625.629	18004.38
625.824	18000.28
626.018	17887.64
626.213	17523.1
626.407	17537.44
626.602	17392.03
626.796	17529.25
626.991	17607.07
627.185	17400.23
627.38	17002.92
627.574	16892.33
627.768	16832.94
627.963	16968.1
628.157	16773.55
628.352	16718.25
628.546	16468.4
628.74	16589.23
628.935	16261.55
629.129	16642.48
629.323	16230.83
629.517	16261.55
629.712	15876.54
629.906	15903.16
630.1	15972.79
630.294	15956.41
630.489	15716.79
630.683	15843.77
630.877	15434.18
631.071	15665.6
631.265	15483.33
631.459	15114.69
631.653	15339.97
631.848	15225.28
632.042	14987.72
632.236	15296.96
632.43	14881.22
632.624	14920.13
632.818	14938.57
633.012	14778.83
633.206	14813.64
633.4	14502.35
633.594	14377.42
633.788	14846.41
633.982	14344.66
634.176	14563.79
634.369	14418.38
634.563	14182.87
634.757	14260.69
634.951	14135.76
635.145	13949.4
635.339	14238.16
635.533	13746.65
635.726	13887.96
635.92	13670.87
636.114	13588.96
636.308	13601.24
636.501	13617.63
636.695	13629.91
636.889	13472.22
637.083	13378.01
637.276	13320.67
637.47	13283.81
637.664	13095.39
637.857	13130.21
638.051	13074.92
638.244	13040.1
638.438	12866.02
638.632	12769.77
638.825	12878.31
639.019	12763.62
639.212	12612.07
639.406	12616.17
639.599	12605.93
639.793	12724.71
639.986	12294.64
640.18	12007.92
640.373	12218.86
640.567	12005.88
640.76	12239.34
640.954	11960.82
641.147	11776.5
641.34	11753.98
641.534	11723.26
641.727	11764.22
641.92	11788.79
642.114	11643.39
642.307	11502.08
642.5	11465.21
642.694	11383.29
642.887	11258.37
643.08	11422.2
643.273	11155.97
643.467	11012.61
643.66	11215.36
643.853	10799.62
644.046	10799.62
644.239	10910.21
644.432	10852.87
644.626	10887.68
644.819	10695.18
645.012	10629.64
645.205	10699.27
645.398	10646.02
645.591	10459.66
645.784	10357.26
645.977	10269.2
646.17	10371.6
646.363	10428.94
646.556	10279.44
646.749	10039.83
646.942	10125.84
647.135	10037.78
647.328	10015.25
647.521	9921.04
647.714	9615.9
647.907	9804.31
648.099	9656.86
648.292	9769.49
648.485	9579.03
648.678	9462.3
648.871	9374.24
649.064	9452.06
649.256	9280.03
649.449	9290.27
649.642	9075.23
649.835	9181.73
650.027	8960.55
650.22	9110.05
650.413	8997.41
650.605	8905.25
650.798	8985.12
650.991	8747.56
651.183	8985.12
651.376	8753.7
651.568	8645.16
651.761	8804.9
651.954	8575.53
652.146	8587.82
652.339	8495.66
652.531	8518.18
652.724	8333.87
652.916	8159.79
653.109	8264.24
653.301	8210.99
653.494	8217.13
653.686	7930.42
653.879	8059.44
654.071	8122.93
654.263	7834.16
654.456	7954.99
654.648	7903.79
654.84	7748.15
655.033	7801.4
655.225	7512.63
655.417	7653.94
655.61	7684.66
655.802	7582.26
655.994	7436.86
656.186	7604.79
656.379	7318.07
656.571	7256.64
656.763	7217.72
656.955	7236.16
657.148	7187.01
657.34	6890.05
657.532	7146.05
657.724	7080.51
657.916	7068.22
658.108	6869.57
658.3	6924.86
658.492	6892.1
658.684	6801.99
658.876	6855.23
659.068	6707.78
659.26	6703.68
659.452	6543.94
659.644	6353.48
659.836	6507.08
660.028	6433.35
660.22	6353.48
660.412	6339.15
660.604	6285.9
660.796	6333
660.988	6148.68
661.18	6169.16
661.372	6023.76
661.563	6089.29
661.755	5825.11
661.947	6068.81
662.139	5882.45
662.331	6093.39
662.522	5763.67
662.714	5808.72
662.906	5937.74
663.097	5771.86
663.289	5556.82
663.481	5661.27
663.673	5663.32
663.864	5565.01
664.056	5491.29
664.247	5505.62
664.439	5407.32
664.631	5481.05
664.822	5493.33
665.014	5444.18
665.205	5392.98
665.397	5259.87
665.588	5255.77
665.78	5237.34
665.971	5128.8
666.163	5202.52
666.354	5216.86
666.546	5175.9
666.737	5198.43
666.929	4971.1
667.12	5053.02
667.311	4868.7
667.503	4924
667.694	5038.69
667.885	4811.36
668.077	4813.41
668.268	4926.05
668.459	4747.87
668.651	4766.31
668.842	4625
669.033	4725.35
669.224	4690.53
669.416	4631.14
669.607	4680.29
669.798	4508.26
669.989	4596.32
670.18	4631.14
670.371	4588.13
670.563	4543.08
670.754	4487.78
670.945	4469.35
671.136	4362.86
671.327	4389.48
671.518	4434.53
671.709	4311.66
671.9	4418.15
672.091	4297.32
672.282	4147.82
672.473	4205.16
672.664	4297.32
672.855	4219.5
673.046	4227.69
673.237	4252.27
673.428	4282.99
673.619	4233.83
673.809	4131.44
674	4082.28
674.191	4088.43
674.382	3969.65
674.573	4022.89
674.764	4020.85
674.954	4110.96
675.145	4104.81
675.336	4156.01
675.527	4031.09
675.717	4113
675.908	3965.55
676.099	3846.77
676.289	3975.79
676.48	3838.58
676.671	3955.31
676.861	3844.72
677.052	3787.38
677.243	3662.45
677.433	3797.62
677.624	3762.8
677.814	3625.59
678.005	3889.78
678.195	3668.59
678.386	3785.33
678.576	3721.84
678.767	3766.9
678.957	3805.81
679.148	3615.35
679.338	3674.74
679.529	3705.46
679.719	3512.95
679.909	3834.48
680.1	3680.88
680.29	3660.4
680.481	3639.92
680.671	3517.04
680.861	3572.34
681.052	3621.49
681.242	3572.34
681.432	3525.24
681.622	3533.43
681.813	3498.61
682.003	3480.18
682.193	3535.48
682.383	3480.18
682.573	3594.87
682.764	3394.17
682.954	3459.7
683.144	3447.41
683.334	3308.15
683.524	3506.81
683.714	3529.33
683.904	3400.31
684.094	3353.21
684.284	3435.13
684.474	3500.66
684.664	3426.93
684.854	3402.36
685.044	3420.79
685.234	3381.88
685.424	3379.83
685.614	3416.69
685.804	3439.22
685.994	3332.73
686.184	3392.12
686.374	3369.59
686.564	3357.3
686.753	3220.09
686.943	3267.19
687.133	3201.66
687.323	3324.54
687.513	3310.2
687.702	3279.48
687.892	3363.45
688.082	3191.42
688.272	3320.44
688.461	3250.81
688.651	3334.78
688.841	3259
689.03	3215.99
689.22	3283.58
689.41	3259
689.599	3211.9
689.789	3203.71
689.979	3435.13
690.168	3244.67
690.358	3193.47
690.547	3246.71
690.737	3236.47
690.926	3117.69
691.116	3195.51
691.305	3234.43
691.495	3172.99
691.684	3099.26
691.874	3222.14
692.063	3162.75
692.252	3293.82
692.442	3197.56
692.631	3093.12
692.82	3148.41
693.01	3226.23
693.199	3269.24
693.388	3160.7
693.578	3134.07
693.767	3179.13
693.956	3205.75
694.146	3015.29
694.335	3201.66
694.524	3213.95
694.713	3168.89
694.902	3142.27
695.092	3158.65
695.281	3205.75
695.47	3197.56
695.659	3164.79
695.848	3162.75
696.037	3070.59
696.226	3187.32
696.415	3261.05
696.604	3170.94
696.793	3228.28
696.982	3160.7
697.171	3111.55
697.36	3115.64
697.549	3185.27
697.738	3125.88
697.927	3129.98
698.116	3048.06
698.305	3168.89
698.494	3150.46
698.683	3041.92
698.872	3170.94
699.061	3086.97
699.25	3107.45
699.438	3215.99
699.627	2937.47
699.816	3189.37
700.005	3037.82
700.193	3115.64
700.382	3132.03
700.571	3003
700.76	3021.44
700.948	3154.55
701.137	3134.07
701.326	3162.75
701.514	3136.12
701.703	3039.87
701.892	2949.76
702.08	2908.8
702.269	3013.24
702.457	2931.33
702.646	2962.05
702.834	2982.53
703.023	2804.35
703.212	3050.11
703.4	3005.05
703.589	2841.22
703.777	2914.94
703.965	3066.49
704.154	2976.38
704.342	2945.66
704.531	2880.13
704.719	2783.87
704.907	2824.83
705.096	2902.65
705.284	2841.22
705.472	2820.74
705.661	2833.02
705.849	2720.39
706.037	2843.26
706.226	2777.73
706.414	2777.73
706.602	2736.77
706.79	2689.67
706.979	2697.86
707.167	2638.47
707.355	2591.36
707.543	2632.32
707.731	2697.86
707.919	2671.23
708.107	2581.12
708.296	2736.77
708.484	2505.35
708.672	2581.12
708.86	2630.27
709.048	2708.1
709.236	2775.68
709.424	2611.84
709.612	2501.25
709.8	2525.83
709.988	2660.99
710.176	2572.93
710.364	2423.43
710.551	2630.27
710.739	2572.93
710.927	2441.86
711.115	2493.06
711.303	2433.67
711.491	2435.72
711.679	2374.28
711.866	2452.1
712.054	2527.88
712.242	2423.43
712.43	2431.62
712.617	2456.2
712.805	2318.98
712.993	2478.72
713.181	2257.54
713.368	2341.51
713.556	2302.6
713.744	2308.74
713.931	2212.49
714.119	2271.88
714.306	2280.07
714.494	2228.87
714.682	2407.05
714.869	2228.87
715.057	2218.63
715.244	2128.52
715.432	2175.63
715.619	2103.95
715.807	2114.19
715.994	2073.23
716.182	2161.29
716.369	2202.25
716.556	2206.35
716.744	2126.47
716.931	2159.24
717.119	2130.57
717.306	2087.56
717.493	2038.41
717.681	2124.43
717.868	2024.08
718.055	2169.48
718.242	2032.27
718.43	1985.16
718.617	2097.8
718.804	1950.35
718.991	1999.5
719.179	2019.98
719.366	1940.11
719.553	1946.25
719.74	1950.35
719.927	1913.49
720.114	1895.05
720.301	1864.33
720.488	1952.4
720.676	1862.29
720.863	1874.57
721.05	1825.42
721.237	1856.14
721.424	1854.09
721.611	1847.95
721.798	1815.18
721.985	1800.85
722.172	1802.9
722.358	1843.85
722.545	1766.03
722.732	1731.22
722.919	1811.09
723.106	1735.31
723.293	1831.57
723.48	1786.51
723.667	1727.12
723.853	1749.65
724.04	1790.61
724.227	1770.13
724.414	1710.74
724.6	1630.87
724.787	1563.28
724.974	1696.4
725.161	1731.22
725.347	1712.78
725.534	1710.74
725.72	1737.36
725.907	1581.71
726.094	1634.96
726.28	1639.06
726.467	1710.74
726.653	1661.59
726.84	1596.05
727.027	1655.44
727.213	1706.64
727.4	1655.44
727.586	1544.85
727.773	1671.83
727.959	1487.51
728.145	1538.71
728.332	1481.36
728.518	1559.19
728.705	1507.99
728.891	1546.9
729.077	1514.13
729.264	1594
729.45	1567.38
729.636	1438.36
729.823	1563.28
730.009	1487.51
730.195	1538.71
730.382	1495.7
730.568	1499.8
730.754	1526.42
730.94	1464.98
731.126	1438.36
731.313	1491.6
731.499	1391.25
731.685	1483.41
731.871	1407.64
732.057	1401.49
732.243	1464.98
732.429	1442.45
732.615	1409.69
732.801	1469.08
732.987	1309.33
733.173	1458.84
733.359	1344.15
733.545	1385.11
733.731	1325.72
733.917	1352.34
734.103	1313.43
734.289	1350.29
734.475	1309.33
734.661	1340.05
734.847	1247.9
735.033	1215.13
735.219	1311.38
735.404	1385.11
735.59	1303.19
735.776	1366.68
735.962	1315.48
736.148	1307.29
736.333	1307.29
736.519	1286.81
736.705	1270.42
736.89	1223.32
737.076	1295
737.262	1206.94
737.447	1215.13
737.633	1305.24
737.819	1233.56
738.004	1178.26
738.19	1096.35
738.375	1215.13
738.561	1262.23
738.747	1227.42
738.932	1135.26
739.118	1260.18
739.303	1137.31
739.489	1284.76
739.674	1213.08
739.859	1102.49
740.045	1225.37
740.23	1157.79
740.416	1090.2
740.601	1096.35
740.786	1180.31
740.972	1131.16
741.157	1063.58
741.342	1112.73
741.528	1143.45
741.713	1098.39
741.898	1079.96
742.084	1086.11
742.269	1034.91
742.454	1147.55
742.639	1133.21
742.824	967.32
743.01	1088.15
743.195	1071.77
743.38	1065.63
743.565	1065.63
743.75	1084.06
743.935	1092.25
744.12	1133.21
744.305	1041.05
744.49	1014.43
744.675	1020.57
744.86	1022.62
745.045	1028.76
745.23	1024.67
745.415	979.61
745.6	1106.59
745.785	1008.28
745.97	977.56
746.155	1094.3
746.34	934.56
746.525	1006.24
746.71	924.32
746.895	887.45
747.079	963.23
747.264	813.73
747.449	924.32
747.634	963.23
747.819	860.83
748.003	891.55
748.188	973.47
748.373	883.36
748.557	864.93
748.742	866.97
748.927	844.45
749.111	813.73
749.296	883.36
749.481	869.02
749.665	852.64
749.85	830.11
750.034	852.64
750.219	846.49
750.404	862.88
750.588	840.35
750.773	846.49
750.957	801.44
751.141	680.61
751.326	836.25
751.51	834.21
751.695	678.56
751.879	799.39
752.064	766.62
752.248	744.1
752.432	770.72
752.617	795.29
752.801	772.77
752.985	721.57
753.17	703.14
753.354	801.44
753.538	621.22
753.722	789.15
753.907	729.76
754.091	678.56
754.275	746.14
754.459	742.05
754.643	672.42
754.828	701.09
755.012	746.14
755.196	742.05
755.38	748.19
755.564	701.09
755.748	674.46
755.932	766.62
756.116	649.89
756.3	713.38
756.484	727.71
756.668	688.8
756.852	727.71
757.036	651.94
757.22	660.13
757.404	690.85
757.588	715.42
757.772	690.85
757.956	631.46
758.14	590.5
758.323	662.18
758.507	629.41
758.691	627.36
758.875	637.6
759.059	598.69
759.242	623.27
759.426	617.12
759.61	610.98
759.794	559.78
759.977	615.07
760.161	606.88
760.345	590.5
760.528	582.31
760.712	545.44
760.895	594.59
761.079	596.64
761.263	631.46
761.446	578.21
761.63	543.39
761.813	549.54
761.997	490.15
762.18	545.44
762.364	647.84
762.547	531.11
762.731	559.78
762.914	481.96
763.098	613.03
763.281	529.06
763.464	529.06
763.648	541.35
763.831	549.54
764.015	590.5
764.198	520.87
764.381	619.17
764.564	600.74
764.748	563.87
764.931	567.97
765.114	613.03
765.297	481.96
765.481	533.15
765.664	547.49
765.847	551.59
766.03	486.05
766.213	506.53
766.397	520.87
766.58	531.11
766.763	547.49
766.946	539.3
767.129	582.31
767.312	467.62
767.495	514.72
767.678	481.96
767.861	531.11
768.044	455.33
768.227	551.59
768.41	547.49
768.593	529.06
768.776	586.4
768.959	492.2
769.142	549.54
769.324	508.58
769.507	488.1
769.69	434.85
769.873	492.2
770.056	477.86
770.239	541.35
770.421	498.34
770.604	459.43
770.787	473.76
770.97	498.34
771.152	481.96
771.335	512.67
771.518	500.39
771.7	475.81
771.883	455.33
772.066	426.66
772.248	410.28
772.431	531.11
772.613	547.49
772.796	445.09
772.978	498.34
773.161	457.38
773.343	461.48
773.526	455.33
773.708	461.48
773.891	445.09
774.073	373.41
774.256	522.91
774.438	453.28
774.621	414.37
774.803	457.38
774.985	344.74
775.168	486.05
775.35	383.65
775.532	473.76
775.715	369.32
775.897	410.28
776.079	350.89
776.261	426.66
776.444	336.55
776.626	377.51
776.808	453.28
776.99	443.04
777.173	334.5
777.355	371.37
777.537	459.43
777.719	397.99
777.901	320.17
778.083	379.56
778.265	404.13
778.447	441
778.629	404.13
778.811	393.89
778.993	432.8
779.175	406.18
779.357	402.08
779.539	309.93
779.721	377.51
779.903	393.89
780.085	268.97
780.267	350.89
780.449	342.69
780.631	340.65
780.812	309.93
780.994	354.98
781.176	350.89
781.358	320.17
781.54	260.77
781.721	441
781.903	326.31
782.085	410.28
782.267	289.45
782.448	268.97
782.63	301.73
782.812	350.89
782.993	320.17
783.175	303.78
783.357	221.86
783.538	283.3
783.72	236.2
783.901	287.4
784.083	350.89
784.264	236.2
784.446	320.17
784.627	268.97
784.809	225.96
784.99	330.41
785.172	301.73
785.353	285.35
785.535	271.01
785.716	236.2
785.897	281.25
786.079	262.82
786.26	264.87
786.441	266.92
786.623	316.07
786.804	221.86
786.985	326.31
787.167	262.82
787.348	266.92
787.529	225.96
787.71	238.25
787.891	277.16
788.073	295.59
788.254	228.01
788.435	223.91
788.616	197.29
788.797	268.97
788.978	260.77
789.159	301.73
789.34	246.44
789.522	219.82
789.703	254.63
789.884	223.91
790.065	271.01
790.246	260.77
790.427	244.39
790.607	256.68
790.788	230.06
790.969	256.68
791.15	178.86
791.331	174.76
791.512	221.86
791.693	238.25
791.874	250.53
792.054	230.06
792.235	275.11
792.416	176.81
792.597	146.09
792.778	154.28
792.958	203.43
793.139	131.75
793.32	238.25
793.5	148.14
793.681	170.66
793.862	203.43
794.042	295.59
794.223	219.82
794.404	246.44
794.584	197.29
794.765	189.1
794.945	242.34
795.126	209.58
795.306	113.32
795.487	197.29
795.667	260.77
795.848	137.9
796.028	213.67
796.209	172.71
796.389	201.38
796.57	236.2
796.75	146.09
796.93	248.49
797.111	219.82
797.291	205.48
797.471	244.39
797.652	141.99
797.832	203.43
798.012	203.43
798.192	139.94
798.373	223.91
798.553	119.46
798.733	131.75
798.913	141.99
799.093	158.38
799.274	82.6
799.454	160.42
799.634	168.62
799.814	152.23
799.994	158.38
800.174	158.38
800.354	131.75
800.534	156.33
800.714	174.76
800.894	121.51
801.074	68.27
801.254	135.85
801.434	146.09
801.614	158.38
801.794	146.09
801.974	342.69
802.154	117.42
802.334	221.86
802.514	139.94
802.693	256.68
802.873	133.8
803.053	123.56
803.233	213.67
803.413	80.55
803.592	156.33
803.772	182.95
803.952	160.42
804.131	131.75
804.311	135.85
804.491	201.38
804.67	152.23
804.85	88.75
805.03	115.37
805.209	113.32
805.389	119.46
805.568	162.47
805.748	121.51
805.928	166.57
806.107	191.14
806.287	55.98
806.466	168.62
806.646	111.27
806.825	172.71
807.004	82.6
807.184	133.8
807.363	219.82
807.543	121.51
807.722	113.32
807.901	86.7
808.081	107.18
808.26	84.65
808.439	154.28
808.619	88.75
808.798	72.36
808.977	115.37
809.156	180.9
809.336	111.27
809.515	103.08
809.694	74.41
809.873	129.7
810.052	49.83
810.231	94.89
810.411	98.99
810.59	117.42
810.769	70.31
810.948	115.37
811.127	70.31
811.306	203.43
811.485	68.27
811.664	60.07
811.843	80.55
812.022	129.7
812.201	146.09
812.38	72.36
812.559	82.6
812.737	139.94
812.916	68.27
813.095	180.9
813.274	137.9
813.453	109.22
813.632	49.83
813.811	64.17
813.989	119.46
814.168	131.75
814.347	107.18
814.526	35.5
814.704	105.13
814.883	135.85
815.062	90.79
815.24	78.51
815.419	111.27
815.598	107.18
815.776	68.27
815.955	129.7
816.133	76.46
816.312	72.36
816.49	129.7
816.669	47.79
816.847	88.75
817.026	88.75
817.204	60.07
817.383	137.9
817.561	37.55
817.74	60.07
817.918	98.99
818.097	80.55
818.275	82.6
818.453	-7.51
818.632	45.74
818.81	92.84
818.988	146.09
819.167	107.18
819.345	137.9
819.523	8.87
819.701	49.83
819.879	115.37
820.058	78.51
820.236	60.07
820.414	107.18
820.592	33.45
820.77	-11.61
820.948	68.27
821.127	60.07
821.305	148.14
821.483	103.08
821.661	19.11
821.839	96.94
822.017	119.46
822.195	62.12
822.373	88.75
822.551	101.03
822.729	88.75
822.907	33.45
823.085	92.84
823.262	105.13
823.44	80.55
823.618	68.27
823.796	94.89
823.974	17.07
824.152	80.55
824.329	55.98
824.507	76.46
824.685	88.75
824.863	86.7
825.04	117.42
825.218	103.08
825.396	58.03
825.574	47.79
825.751	72.36
825.929	176.81
826.107	23.21
826.284	76.46
826.462	60.07
826.639	82.6
826.817	84.65
826.994	39.59
827.172	121.51
827.349	74.41
827.527	72.36
827.704	123.56
827.882	55.98
828.059	45.74
828.237	70.31
828.414	88.75
828.591	105.13
828.769	60.07
828.946	-3.41
829.124	47.79
829.301	88.75
829.478	15.02
829.655	6.83
829.833	88.75
830.01	6.83
830.187	80.55
830.364	58.03
830.542	19.11
830.719	178.86
830.896	72.36
831.073	96.94
831.25	70.31
831.427	0.68
831.604	51.88
831.782	39.59
831.959	111.27
832.136	43.69
832.313	53.93
832.49	82.6
832.667	90.79
832.844	88.75
833.021	55.98
833.198	58.03
833.374	51.88
833.551	64.17
833.728	88.75
833.905	78.51
834.082	41.64
834.259	39.59
834.436	105.13
834.612	109.22
834.789	137.9
834.966	86.7
835.143	33.45
835.319	80.55
835.496	39.59
835.673	35.5
835.85	-1.37
836.026	-17.75
836.203	15.02
836.38	31.4
836.556	64.17
836.733	84.65
836.909	64.17
837.086	72.36
837.262	-30.04
837.439	41.64
837.616	113.32
837.792	58.03
837.968	90.79
838.145	-21.85
838.321	82.6
838.498	0.68
838.674	90.79
838.851	92.84
839.027	29.35
839.203	80.55
839.38	62.12
839.556	4.78
839.732	58.03
839.909	70.31
840.085	72.36
840.261	72.36
840.437	-9.56
840.614	76.46
840.79	39.59
840.966	76.46
841.142	58.03
841.318	51.88
841.494	33.45
841.671	98.99
841.847	-38.23
842.023	49.83
842.199	31.4
842.375	15.02
842.551	19.11
842.727	64.17
842.903	35.5
843.079	41.64
843.255	66.22
843.431	86.7
843.607	80.55
843.783	137.9
843.959	25.26
844.134	19.11
844.31	127.66
844.486	15.02
844.662	60.07
844.838	43.69
845.013	68.27
845.189	39.59
845.365	115.37
845.541	-5.46
845.716	35.5
845.892	80.55
846.068	90.79
846.244	88.75
846.419	47.79
846.595	-7.51
846.77	17.07
846.946	47.79
847.122	43.69
847.297	19.11
847.473	76.46
847.648	17.07
847.824	88.75
847.999	31.4
848.175	47.79
848.35	96.94
848.526	58.03
848.701	80.55
848.876	86.7
849.052	47.79
849.227	51.88
849.403	47.79
849.578	-5.46
849.753	39.59
849.929	119.46
850.104	19.11
850.279	45.74
850.454	4.78
850.63	47.79
850.805	25.26
850.98	25.26
851.155	-7.51
851.33	55.98
851.505	8.87
851.681	27.31
851.856	70.31
852.031	17.07
852.206	12.97
852.381	-5.46
852.556	8.87
852.731	-13.65
852.906	72.36
853.081	64.17
853.256	70.31
853.431	25.26
853.606	45.74
853.781	-34.13
853.956	27.31
854.131	72.36
854.305	88.75
854.48	64.17
854.655	33.45
854.83	-1.37
855.005	-23.89
855.18	84.65
855.354	68.27
855.529	51.88
855.704	31.4
855.879	8.87
856.053	74.41
856.228	82.6
856.403	45.74
856.577	-15.7
856.752	60.07
856.926	29.35
857.101	0.68
857.276	82.6
857.45	53.93
857.625	49.83
857.799	8.87
857.974	19.11
858.148	-48.47
858.323	119.46
858.497	0.68
858.672	55.98
858.846	-1.37
859.02	15.02
859.195	55.98
859.369	33.45
859.543	-7.51
859.718	17.07
859.892	31.4
860.066	80.55
860.241	49.83
860.415	37.55
860.589	47.79
860.763	49.83
860.938	78.51
861.112	15.02
861.286	29.35
861.46	58.03
861.634	68.27
861.808	70.31
861.982	15.02
862.157	76.46
862.331	45.74
862.505	-38.23
862.679	-34.13
862.853	51.88
863.027	55.98
863.201	-15.7
863.375	4.78
863.549	29.35
863.722	6.83
863.896	125.61
864.07	23.21
864.244	31.4
864.418	-1.37
864.592	53.93
864.766	-44.37
864.939	10.92
865.113	31.4
865.287	66.22
865.461	64.17
865.634	90.79
865.808	27.31
865.982	23.21
866.156	0.68
866.329	45.74
866.503	21.16
866.676	-5.46
866.85	68.27
867.024	60.07
867.197	25.26
867.371	33.45
867.544	29.35
867.718	0.68
867.891	-9.56
868.065	25.26
868.238	-25.94
868.412	60.07
868.585	39.59
868.759	82.6
868.932	51.88
869.105	35.5
869.279	6.83
869.452	31.4
869.625	49.83
869.799	133.8
869.972	-23.89
870.145	66.22
870.319	66.22
870.492	19.11
870.665	-7.51
870.838	92.84
871.011	-32.08
871.185	-23.89
871.358	-1.37
871.531	35.5
871.704	17.07
871.877	68.27
872.05	-1.37
872.223	47.79
872.396	58.03
872.569	-25.94
872.742	-15.7
872.915	-25.94
873.088	51.88
873.261	-46.42
873.434	47.79
873.607	-30.04
873.78	35.5
873.953	51.88
874.126	4.78
874.299	4.78
874.471	39.59
874.644	0.68
874.817	23.21
874.99	10.92
875.163	21.16
875.335	-9.56
875.508	-9.56
875.681	15.02
875.853	23.21
876.026	33.45
876.199	4.78
876.371	51.88
876.544	41.64
876.717	-9.56
876.889	-34.13
877.062	-21.85
877.234	-42.32
877.407	-1.37
877.579	25.26
877.752	15.02
877.924	43.69
878.097	8.87
878.269	43.69
878.442	6.83
878.614	60.07
878.786	8.87
878.959	-38.23
879.131	19.11
879.303	-58.71
879.476	-17.75
879.648	23.21
879.82	-7.51
879.993	101.03
880.165	2.73
880.337	17.07
880.509	49.83
880.681	80.55
880.854	17.07
881.026	70.31
881.198	33.45
881.37	41.64
881.542	76.46
881.714	47.79
881.886	6.83
882.058	31.4
882.23	-32.08
882.402	37.55
882.574	2.73
882.746	49.83
882.918	84.65
883.09	-23.89
883.262	86.7
883.434	66.22
883.606	-15.7
883.778	4.78
883.95	72.36
884.122	-9.56
884.293	19.11
884.465	-75.09
884.637	37.55
884.809	58.03
884.98	80.55
885.152	15.02
885.324	0.68
885.496	-19.8
885.667	6.83
885.839	27.31
886.011	109.22
886.182	31.4
886.354	115.37
886.525	27.31
886.697	31.4
886.869	12.97
887.04	-58.71
887.212	43.69
887.383	105.13
887.555	47.79
887.726	-13.65
887.897	39.59
888.069	15.02
888.24	43.69
888.412	66.22
888.583	2.73
888.754	19.11
888.926	29.35
889.097	15.02
889.268	72.36
889.44	6.83
889.611	31.4
889.782	78.51
889.953	-38.23
890.125	98.99
890.296	6.83
890.467	2.73
890.638	-1.37
890.809	6.83
890.98	37.55
891.151	4.78
891.323	96.94
891.494	21.16
891.665	27.31
891.836	-13.65
892.007	76.46
892.178	-19.8
892.349	10.92
892.52	88.75
892.691	27.31
892.862	-1.37
893.032	27.31
893.203	23.21
893.374	0.68
893.545	55.98
893.716	17.07
893.887	-23.89
894.057	29.35
894.228	-40.28
894.399	-40.28
894.57	-5.46
894.74	-17.75
894.911	21.16
895.082	-7.51
895.253	0.68
895.423	17.07
895.594	127.66
895.764	6.83
895.935	19.11
896.106	-25.94
896.276	-25.94
896.447	47.79
896.617	10.92
896.788	-3.41
896.958	2.73
897.129	12.97
897.299	-15.7
897.47	105.13
897.64	-83.28
897.81	-15.7
897.981	-17.75
898.151	6.83
898.322	-13.65
898.492	31.4
898.662	-9.56
898.832	49.83
899.003	-9.56
899.173	-7.51
899.343	33.45
899.513	15.02
