Data from USB4F104151__153__13-58-35-273.txt Node

Date: Thu Mar 13 13:58:35 EDT 2025
User: louis
Spectrometer: USB4F10415
Trigger mode: 4
Integration Time (sec): 1.000000E-2
Scans to average: 1
Electric dark correction enabled: true
Nonlinearity correction enabled: false
Boxcar width: 0
XAxis mode: Wavelengths
Number of Pixels in Spectrum: 3648
>>>>>Begin Spectral Data<<<<<
178.204	-13.14
178.424	-13.14
178.644	-13.14
178.864	-11.09
179.084	-19.29
179.304	7.34
179.524	-39.76
179.744	23.72
179.964	31.91
180.184	-0.85
180.404	3.24
180.624	52.39
180.844	-35.67
181.064	15.53
181.283	-47.96
181.503	-19.29
181.723	9.39
181.943	15.53
182.163	36.01
182.383	-45.91
182.602	50.35
182.822	13.48
183.042	1.19
183.262	56.49
183.482	17.58
183.701	93.35
183.921	66.73
184.141	5.29
184.361	74.92
184.58	-0.85
184.8	27.82
185.02	111.78
185.239	9.39
185.459	60.59
185.679	76.97
185.898	58.54
186.118	25.77
186.338	40.11
186.557	68.78
186.777	25.77
186.997	68.78
187.216	136.36
187.436	152.74
187.655	70.83
187.875	62.63
188.095	9.39
188.314	52.39
188.534	85.16
188.753	42.15
188.973	54.44
189.192	95.4
189.412	-17.24
189.631	17.58
189.851	7.34
190.07	46.25
190.29	-2.9
190.509	89.26
190.729	23.72
190.948	5.29
191.168	179.37
191.387	50.35
191.607	21.67
191.826	132.26
192.045	7.34
192.265	21.67
192.484	15.53
192.704	68.78
192.923	68.78
193.142	5.29
193.362	52.39
193.581	105.64
193.8	19.63
194.02	36.01
194.239	76.97
194.458	62.63
194.678	19.63
194.897	62.63
195.116	91.31
195.335	15.53
195.555	38.06
195.774	-4.95
195.993	29.87
196.212	9.39
196.432	60.59
196.651	105.64
196.87	19.63
197.089	31.91
197.308	33.96
197.528	97.45
197.747	42.15
197.966	62.63
198.185	85.16
198.404	50.35
198.623	7.34
198.842	109.74
199.062	42.15
199.281	93.35
199.5	81.07
199.719	95.4
199.938	-29.52
200.157	46.25
200.376	101.55
200.595	50.35
200.814	72.87
201.033	31.91
201.252	85.16
201.471	89.26
201.69	11.43
201.909	50.35
202.128	97.45
202.347	79.02
202.566	44.2
202.785	5.29
203.004	21.67
203.223	56.49
203.442	66.73
203.661	89.26
203.879	42.15
204.098	31.91
204.317	62.63
204.536	79.02
204.755	-17.24
204.974	23.72
205.193	44.2
205.411	-13.14
205.63	19.63
205.849	25.77
206.068	117.93
206.287	-0.85
206.505	81.07
206.724	44.2
206.943	-19.29
207.162	101.55
207.381	1.19
207.599	95.4
207.818	42.15
208.037	-7
208.255	64.68
208.474	44.2
208.693	-7
208.911	42.15
209.13	-47.96
209.349	52.39
209.567	15.53
209.786	36.01
210.005	76.97
210.223	62.63
210.442	70.83
210.661	36.01
210.879	83.11
211.098	21.67
211.316	11.43
211.535	38.06
211.753	-4.95
211.972	23.72
212.191	29.87
212.409	25.77
212.628	62.63
212.846	48.3
213.065	13.48
213.283	95.4
213.502	1.19
213.72	99.5
213.938	40.11
214.157	9.39
214.375	-9.05
214.594	1.19
214.812	29.87
215.031	-11.09
215.249	74.92
215.467	9.39
215.686	62.63
215.904	46.25
216.122	15.53
216.341	56.49
216.559	56.49
216.778	81.07
216.996	-2.9
217.214	85.16
217.432	-0.85
217.651	48.3
217.869	103.59
218.087	48.3
218.306	1.19
218.524	42.15
218.742	23.72
218.96	50.35
219.179	72.87
219.397	17.58
219.615	54.44
219.833	50.35
220.051	40.11
220.27	60.59
220.488	7.34
220.706	50.35
220.924	46.25
221.142	33.96
221.36	11.43
221.578	97.45
221.796	3.24
222.015	-25.43
222.233	72.87
222.451	25.77
222.669	15.53
222.887	50.35
223.105	-4.95
223.323	-13.14
223.541	31.91
223.759	38.06
223.977	97.45
224.195	38.06
224.413	81.07
224.631	46.25
224.849	27.82
225.067	31.91
225.285	-17.24
225.503	19.63
225.721	-4.95
225.939	-52.05
226.157	119.98
226.375	13.48
226.592	-25.43
226.81	58.54
227.028	62.63
227.246	146.6
227.464	36.01
227.682	101.55
227.9	52.39
228.117	62.63
228.335	19.63
228.553	42.15
228.771	50.35
228.989	48.3
229.206	27.82
229.424	64.68
229.642	7.34
229.86	48.3
230.077	87.21
230.295	50.35
230.513	19.63
230.731	27.82
230.948	36.01
231.166	48.3
231.384	-9.05
231.601	-0.85
231.819	66.73
232.037	-4.95
232.254	-39.76
232.472	-19.29
232.689	81.07
232.907	64.68
233.125	70.83
233.342	81.07
233.56	81.07
233.777	9.39
233.995	91.31
234.213	95.4
234.43	50.35
234.648	60.59
234.865	33.96
235.083	58.54
235.3	52.39
235.518	36.01
235.735	68.78
235.953	107.69
236.17	27.82
236.388	-19.29
236.605	19.63
236.822	58.54
237.04	-7
237.257	9.39
237.475	36.01
237.692	9.39
237.909	9.39
238.127	-7
238.344	56.49
238.562	107.69
238.779	48.3
238.996	38.06
239.214	-4.95
239.431	60.59
239.648	1.19
239.865	101.55
240.083	-29.52
240.3	76.97
240.517	29.87
240.735	68.78
240.952	117.93
241.169	44.2
241.386	27.82
241.603	-13.14
241.821	-103.25
242.038	56.49
242.255	52.39
242.472	46.25
242.689	36.01
242.907	58.54
243.124	58.54
243.341	52.39
243.558	29.87
243.775	91.31
243.992	48.3
244.209	25.77
244.426	64.68
244.643	27.82
244.86	64.68
245.078	54.44
245.295	-4.95
245.512	40.11
245.729	95.4
245.946	-17.24
246.163	1.19
246.38	23.72
246.597	-56.15
246.814	48.3
247.031	44.2
247.248	40.11
247.464	81.07
247.681	25.77
247.898	13.48
248.115	21.67
248.332	5.29
248.549	-7
248.766	21.67
248.983	56.49
249.2	15.53
249.417	72.87
249.633	9.39
249.85	58.54
250.067	97.45
250.284	48.3
250.501	19.63
250.717	-9.05
250.934	44.2
251.151	81.07
251.368	101.55
251.585	60.59
251.801	36.01
252.018	-21.33
252.235	17.58
252.451	33.96
252.668	48.3
252.885	40.11
253.102	111.78
253.318	19.63
253.535	54.44
253.752	48.3
253.968	50.35
254.185	105.64
254.401	-9.05
254.618	56.49
254.835	23.72
255.051	97.45
255.268	91.31
255.484	40.11
255.701	29.87
255.917	-9.05
256.134	56.49
256.351	25.77
256.567	11.43
256.784	83.11
257	54.44
257.217	74.92
257.433	-4.95
257.65	25.77
257.866	70.83
258.082	15.53
258.299	76.97
258.515	87.21
258.732	54.44
258.948	107.69
259.165	36.01
259.381	48.3
259.597	48.3
259.814	15.53
260.03	101.55
260.246	58.54
260.463	-15.19
260.679	-15.19
260.895	113.83
261.112	31.91
261.328	31.91
261.544	15.53
261.761	42.15
261.977	3.24
262.193	-33.62
262.409	7.34
262.626	81.07
262.842	27.82
263.058	68.78
263.274	70.83
263.49	-17.24
263.707	1.19
263.923	85.16
264.139	-2.9
264.355	48.3
264.571	85.16
264.787	-21.33
265.004	40.11
265.22	-7
265.436	52.39
265.652	15.53
265.868	81.07
266.084	33.96
266.3	-7
266.516	31.91
266.732	46.25
266.948	1.19
267.164	64.68
267.38	95.4
267.596	74.92
267.812	60.59
268.028	25.77
268.244	48.3
268.46	56.49
268.676	68.78
268.892	50.35
269.108	54.44
269.324	97.45
269.54	-2.9
269.756	64.68
269.972	58.54
270.188	25.77
270.403	40.11
270.619	44.2
270.835	62.63
271.051	105.64
271.267	103.59
271.483	42.15
271.698	19.63
271.914	3.24
272.13	95.4
272.346	15.53
272.562	-15.19
272.777	38.06
272.993	95.4
273.209	-25.43
273.425	-7
273.64	72.87
273.856	56.49
274.072	95.4
274.287	113.83
274.503	27.82
274.719	-2.9
274.934	-2.9
275.15	-4.95
275.366	115.88
275.581	7.34
275.797	113.83
276.012	40.11
276.228	93.35
276.444	-13.14
276.659	-4.95
276.875	36.01
277.09	-25.43
277.306	13.48
277.521	126.12
277.737	9.39
277.952	23.72
278.168	97.45
278.383	-39.76
278.599	31.91
278.814	99.5
279.03	105.64
279.245	50.35
279.461	103.59
279.676	58.54
279.892	79.02
280.107	83.11
280.322	-4.95
280.538	17.58
280.753	15.53
280.969	48.3
281.184	29.87
281.399	11.43
281.615	27.82
281.83	1.19
282.045	58.54
282.26	48.3
282.476	17.58
282.691	85.16
282.906	-11.09
283.122	72.87
283.337	109.74
283.552	38.06
283.767	-4.95
283.983	72.87
284.198	38.06
284.413	50.35
284.628	50.35
284.843	-17.24
285.058	76.97
285.274	21.67
285.489	17.58
285.704	89.26
285.919	126.12
286.134	40.11
286.349	27.82
286.564	87.21
286.779	68.78
286.995	15.53
287.21	9.39
287.425	36.01
287.64	-2.9
287.855	60.59
288.07	-68.44
288.285	-15.19
288.5	60.59
288.715	50.35
288.93	101.55
289.145	36.01
289.36	99.5
289.575	97.45
289.79	58.54
290.004	7.34
290.219	33.96
290.434	31.91
290.649	85.16
290.864	68.78
291.079	36.01
291.294	109.74
291.509	89.26
291.724	99.5
291.938	42.15
292.153	44.2
292.368	52.39
292.583	58.54
292.798	60.59
293.012	58.54
293.227	52.39
293.442	64.68
293.657	85.16
293.871	60.59
294.086	48.3
294.301	7.34
294.516	50.35
294.73	85.16
294.945	21.67
295.16	72.87
295.374	31.91
295.589	-54.1
295.804	19.63
296.018	64.68
296.233	58.54
296.447	64.68
296.662	3.24
296.877	111.78
297.091	81.07
297.306	85.16
297.52	60.59
297.735	-35.67
297.949	66.73
298.164	50.35
298.378	95.4
298.593	23.72
298.807	109.74
299.022	76.97
299.236	60.59
299.451	23.72
299.665	74.92
299.88	60.59
300.094	9.39
300.309	81.07
300.523	62.63
300.737	38.06
300.952	46.25
301.166	62.63
301.381	97.45
301.595	101.55
301.809	19.63
302.024	64.68
302.238	36.01
302.452	87.21
302.667	74.92
302.881	48.3
303.095	76.97
303.309	97.45
303.524	40.11
303.738	52.39
303.952	27.82
304.166	74.92
304.381	31.91
304.595	44.2
304.809	68.78
305.023	107.69
305.237	103.59
305.452	-0.85
305.666	52.39
305.88	-11.09
306.094	87.21
306.308	130.22
306.522	83.11
306.736	31.91
306.95	36.01
307.164	19.63
307.379	58.54
307.593	29.87
307.807	48.3
308.021	40.11
308.235	74.92
308.449	13.48
308.663	-37.72
308.877	3.24
309.091	-11.09
309.305	7.34
309.519	-4.95
309.733	68.78
309.947	3.24
310.161	140.46
310.374	85.16
310.588	66.73
310.802	9.39
311.016	134.31
311.23	13.48
311.444	-0.85
311.658	21.67
311.872	-9.05
312.085	56.49
312.299	119.98
312.513	89.26
312.727	19.63
312.941	52.39
313.154	56.49
313.368	48.3
313.582	124.07
313.796	36.01
314.009	52.39
314.223	-0.85
314.437	91.31
314.651	97.45
314.864	50.35
315.078	60.59
315.292	-4.95
315.505	21.67
315.719	101.55
315.933	64.68
316.146	83.11
316.36	-7
316.573	40.11
316.787	29.87
317.001	40.11
317.214	44.2
317.428	97.45
317.641	60.59
317.855	74.92
318.068	83.11
318.282	72.87
318.495	132.26
318.709	101.55
318.922	50.35
319.136	66.73
319.349	-7
319.563	-11.09
319.776	62.63
319.99	25.77
320.203	62.63
320.417	66.73
320.63	72.87
320.843	97.45
321.057	29.87
321.27	-19.29
321.483	76.97
321.697	66.73
321.91	46.25
322.124	50.35
322.337	54.44
322.55	64.68
322.763	23.72
322.977	54.44
323.19	89.26
323.403	66.73
323.617	21.67
323.83	62.63
324.043	15.53
324.256	68.78
324.469	64.68
324.683	60.59
324.896	83.11
325.109	21.67
325.322	42.15
325.535	72.87
325.748	50.35
325.962	113.83
326.175	33.96
326.388	97.45
326.601	181.42
326.814	105.64
327.027	58.54
327.24	117.93
327.453	107.69
327.666	105.64
327.879	52.39
328.092	46.25
328.305	42.15
328.518	62.63
328.731	83.11
328.944	117.93
329.157	38.06
329.37	15.53
329.583	-11.09
329.796	89.26
330.009	17.58
330.222	-0.85
330.435	38.06
330.648	15.53
330.861	36.01
331.073	36.01
331.286	76.97
331.499	56.49
331.712	89.26
331.925	81.07
332.138	64.68
332.35	95.4
332.563	107.69
332.776	81.07
332.989	91.31
333.202	64.68
333.414	79.02
333.627	48.3
333.84	117.93
334.053	124.07
334.265	50.35
334.478	36.01
334.691	46.25
334.903	9.39
335.116	23.72
335.329	83.11
335.541	7.34
335.754	50.35
335.966	64.68
336.179	97.45
336.392	105.64
336.604	-11.09
336.817	103.59
337.029	5.29
337.242	115.88
337.454	60.59
337.667	36.01
337.88	31.91
338.092	-9.05
338.305	89.26
338.517	64.68
338.729	58.54
338.942	9.39
339.154	23.72
339.367	62.63
339.579	107.69
339.792	109.74
340.004	99.5
340.217	105.64
340.429	68.78
340.641	48.3
340.854	29.87
341.066	31.91
341.278	48.3
341.491	72.87
341.703	44.2
341.915	31.91
342.128	81.07
342.34	13.48
342.552	79.02
342.764	52.39
342.977	-0.85
343.189	17.58
343.401	85.16
343.613	58.54
343.826	81.07
344.038	60.59
344.25	50.35
344.462	50.35
344.674	-11.09
344.886	-7
345.099	83.11
345.311	52.39
345.523	19.63
345.735	42.15
345.947	33.96
346.159	72.87
346.371	46.25
346.583	27.82
346.795	95.4
347.007	5.29
347.219	42.15
347.431	-37.72
347.643	11.43
347.855	-35.67
348.067	3.24
348.279	36.01
348.491	70.83
348.703	27.82
348.915	40.11
349.127	66.73
349.339	48.3
349.551	-19.29
349.763	99.5
349.975	19.63
350.187	68.78
350.399	64.68
350.61	89.26
350.822	-19.29
351.034	40.11
351.246	105.64
351.458	83.11
351.669	134.31
351.881	17.58
352.093	44.2
352.305	7.34
352.517	70.83
352.728	42.15
352.94	1.19
353.152	36.01
353.363	83.11
353.575	91.31
353.787	29.87
353.999	56.49
354.21	79.02
354.422	19.63
354.633	25.77
354.845	105.64
355.057	66.73
355.268	25.77
355.48	42.15
355.692	-11.09
355.903	38.06
356.115	44.2
356.326	68.78
356.538	58.54
356.749	81.07
356.961	64.68
357.172	124.07
357.384	-0.85
357.595	64.68
357.807	-50
358.018	54.44
358.23	124.07
358.441	56.49
358.653	36.01
358.864	48.3
359.075	36.01
359.287	56.49
359.498	76.97
359.709	58.54
359.921	42.15
360.132	31.91
360.344	89.26
360.555	36.01
360.766	64.68
360.977	-13.14
361.189	66.73
361.4	25.77
361.611	54.44
361.823	40.11
362.034	29.87
362.245	85.16
362.456	97.45
362.667	58.54
362.879	11.43
363.09	42.15
363.301	17.58
363.512	38.06
363.723	76.97
363.935	38.06
364.146	79.02
364.357	44.2
364.568	-15.19
364.779	101.55
364.99	91.31
365.201	-19.29
365.412	-4.95
365.623	3.24
365.834	40.11
366.045	81.07
366.256	66.73
366.467	89.26
366.678	109.74
366.889	40.11
367.1	68.78
367.311	113.83
367.522	23.72
367.733	46.25
367.944	29.87
368.155	31.91
368.366	21.67
368.577	11.43
368.788	81.07
368.999	74.92
369.209	83.11
369.42	25.77
369.631	9.39
369.842	46.25
370.053	58.54
370.264	130.22
370.474	33.96
370.685	70.83
370.896	117.93
371.107	99.5
371.317	83.11
371.528	62.63
371.739	79.02
371.95	56.49
372.16	-2.9
372.371	15.53
372.582	48.3
372.792	74.92
373.003	48.3
373.214	23.72
373.424	7.34
373.635	-4.95
373.846	58.54
374.056	56.49
374.267	97.45
374.477	93.35
374.688	64.68
374.898	68.78
375.109	76.97
375.319	44.2
375.53	33.96
375.74	56.49
375.951	89.26
376.161	27.82
376.372	83.11
376.582	68.78
376.793	111.78
377.003	15.53
377.214	42.15
377.424	68.78
377.635	130.22
377.845	64.68
378.055	93.35
378.266	66.73
378.476	40.11
378.686	101.55
378.897	79.02
379.107	89.26
379.317	48.3
379.528	72.87
379.738	64.68
379.948	-0.85
380.158	99.5
380.369	52.39
380.579	81.07
380.789	81.07
380.999	76.97
381.21	99.5
381.42	38.06
381.63	13.48
381.84	19.63
382.05	101.55
382.261	36.01
382.471	79.02
382.681	66.73
382.891	33.96
383.101	17.58
383.311	23.72
383.521	68.78
383.731	81.07
383.941	58.54
384.151	76.97
384.361	38.06
384.571	42.15
384.781	132.26
384.991	48.3
385.201	76.97
385.411	68.78
385.621	54.44
385.831	91.31
386.041	15.53
386.251	1.19
386.461	91.31
386.671	17.58
386.881	50.35
387.091	87.21
387.301	107.69
387.511	27.82
387.72	117.93
387.93	54.44
388.14	21.67
388.35	83.11
388.56	58.54
388.769	19.63
388.979	58.54
389.189	142.5
389.399	33.96
389.609	54.44
389.818	38.06
390.028	83.11
390.238	85.16
390.447	109.74
390.657	46.25
390.867	66.73
391.076	72.87
391.286	19.63
391.496	99.5
391.705	44.2
391.915	89.26
392.125	68.78
392.334	74.92
392.544	72.87
392.753	76.97
392.963	50.35
393.172	93.35
393.382	23.72
393.591	124.07
393.801	50.35
394.01	54.44
394.22	105.64
394.429	31.91
394.639	29.87
394.848	83.11
395.058	142.5
395.267	85.16
395.477	44.2
395.686	62.63
395.895	136.36
396.105	142.5
396.314	113.83
396.524	27.82
396.733	99.5
396.942	122.02
397.152	87.21
397.361	79.02
397.57	81.07
397.78	99.5
397.989	33.96
398.198	99.5
398.407	64.68
398.617	136.36
398.826	56.49
399.035	50.35
399.244	83.11
399.453	138.41
399.663	72.87
399.872	189.61
400.081	101.55
400.29	109.74
400.499	154.79
400.708	130.22
400.917	66.73
401.127	31.91
401.336	132.26
401.545	142.5
401.754	124.07
401.963	140.46
402.172	117.93
402.381	81.07
402.59	97.45
402.799	109.74
403.008	154.79
403.217	117.93
403.426	115.88
403.635	64.68
403.844	58.54
404.053	132.26
404.262	85.16
404.471	162.98
404.68	74.92
404.888	210.09
405.097	119.98
405.306	95.4
405.515	142.5
405.724	160.94
405.933	150.7
406.142	189.61
406.35	154.79
406.559	62.63
406.768	117.93
406.977	130.22
407.185	187.56
407.394	214.18
407.603	165.03
407.812	177.32
408.02	228.52
408.229	214.18
408.438	146.6
408.646	253.09
408.855	212.14
409.064	220.33
409.272	222.38
409.481	208.04
409.69	169.13
409.898	238.76
410.107	279.72
410.315	306.34
410.524	300.2
410.733	302.25
410.941	275.62
411.15	246.95
411.358	224.42
411.567	326.82
411.775	351.4
411.984	392.36
412.192	408.74
412.401	330.92
412.609	355.49
412.818	332.97
413.026	412.84
413.234	388.26
413.443	378.02
413.651	449.7
413.86	445.6
414.068	478.37
414.276	468.13
414.485	402.6
414.693	550.05
414.901	502.95
415.11	492.71
415.318	554.15
415.526	533.67
415.734	562.34
415.943	566.43
416.151	623.78
416.359	597.15
416.567	650.4
416.776	642.21
416.984	674.98
417.192	787.61
417.4	748.7
417.608	748.7
417.817	853.15
418.025	840.86
418.233	828.57
418.441	873.63
418.649	902.3
418.857	918.68
419.065	1023.13
419.273	822.43
419.481	990.36
419.689	1072.28
419.897	1053.85
420.105	1066.14
420.313	1064.09
420.521	1127.58
420.729	1207.45
420.937	1287.32
421.145	1270.94
421.353	1383.57
421.561	1449.11
421.769	1334.42
421.977	1561.75
422.185	1383.57
422.393	1588.37
422.601	1531.03
422.809	1674.39
423.017	1701.01
423.224	1909.9
423.432	1834.13
423.64	1932.43
423.848	1997.96
424.056	1946.76
424.263	2036.88
424.471	2002.06
424.679	2096.27
424.887	2200.71
425.094	2391.17
425.302	2286.73
425.51	2391.17
425.718	2518.15
425.925	2573.44
426.133	2423.94
426.341	2673.79
426.548	2757.76
426.756	2761.86
426.964	2806.91
427.171	2970.75
427.379	3101.82
427.586	3030.14
427.794	3318.9
428.001	3380.34
428.209	3533.94
428.417	3341.43
428.624	3589.24
428.832	3720.31
429.039	3708.02
429.247	3607.67
429.454	4076.65
429.662	4240.49
429.869	3935.34
430.076	4215.91
430.284	4144.24
430.491	4281.45
430.699	4582.5
430.906	4617.32
431.114	4658.28
431.321	4910.18
431.528	4858.98
431.736	5182.56
431.943	5424.22
432.15	5178.46
432.358	5360.73
432.565	5647.44
432.772	5456.98
432.979	5936.21
433.187	6175.82
433.394	5958.74
433.601	6564.93
433.808	6470.73
434.016	6298.7
434.223	6562.89
434.43	7072.83
434.637	6853.7
434.844	7461.94
435.052	7507
435.259	7509.05
435.466	7687.22
435.673	7404.6
435.88	7982.13
436.087	8455.21
436.294	8277.04
436.501	8182.83
436.708	8528.94
436.915	8643.62
437.122	8852.52
437.329	8999.97
437.537	9219.1
437.743	9407.52
437.95	9124.9
438.157	9712.66
438.364	10169.36
438.571	10152.98
438.778	10128.4
438.985	11041.79
439.192	10826.76
439.399	10943.49
439.606	10847.24
439.813	11523.07
440.02	11836.41
440.227	11975.67
440.433	11590.65
440.64	12278.77
440.847	12139.51
441.054	12461.04
441.261	13147.11
441.467	12704.74
441.674	13173.73
441.881	13759.45
442.088	13657.05
442.294	13556.7
442.501	13941.72
442.708	13921.24
442.914	14691.27
443.121	15211.46
443.328	14996.42
443.534	16032.69
443.741	15702.97
443.948	15463.36
444.154	16614.32
444.361	16237.49
444.568	16724.91
444.774	16694.19
444.981	16620.46
445.187	17091.49
445.394	17851.29
445.6	17693.6
445.807	19352.45
446.013	18410.39
446.22	18723.72
446.426	19272.58
446.633	19905.4
446.839	20570.99
447.046	19491.71
447.252	20634.48
447.459	20937.58
447.665	20470.64
447.871	21554.02
448.078	22459.22
448.284	21447.52
448.491	22182.74
448.697	23032.65
448.903	23223.11
449.11	23323.46
449.316	22895.44
449.522	23389
449.728	23765.82
449.935	24079.16
450.141	23923.52
450.347	24496.95
450.553	23845.69
450.76	24144.7
450.966	24542
451.172	24453.94
451.378	25094.96
451.584	24660.79
451.791	25211.69
451.997	25256.75
452.203	25719.59
452.409	25615.14
452.615	25299.75
452.821	24390.45
453.027	24468.28
453.233	25510.69
453.44	24400.69
453.646	24580.92
453.852	24808.24
454.058	25402.15
454.264	24980.27
454.47	25191.21
454.676	24185.66
454.882	25213.74
455.088	22942.54
455.294	23348.04
455.5	23642.95
455.705	23915.33
455.911	22758.22
456.117	22467.41
456.323	22565.71
456.529	20925.29
456.735	22338.39
456.941	21410.66
457.147	20892.52
457.352	20269.94
457.558	20091.77
457.764	20368.24
457.97	19862.4
458.176	19446.66
458.381	19413.89
458.587	18609.04
458.793	18469.78
458.999	17474.46
459.204	18776.97
459.41	18224.02
459.616	17140.65
459.821	17089.45
460.027	16921.51
460.233	16546.73
460.438	15692.73
460.644	16087.99
460.85	15184.83
461.055	14922.69
461.261	14977.99
461.466	13810.65
461.672	13638.62
461.878	14476.24
462.083	13489.12
462.289	13294.56
462.494	13112.29
462.7	12442.6
462.905	12145.65
463.111	12540.91
463.316	12856.29
463.522	12530.67
463.727	12596.2
463.932	12346.35
464.138	12465.13
464.343	12368.88
464.549	12246
464.754	12385.26
464.959	12393.45
465.165	12305.39
465.37	11869.17
465.575	11611.13
465.781	12172.27
465.986	12026.87
466.191	11594.75
466.397	11658.23
466.602	10720.26
466.807	11303.93
467.012	11205.63
467.218	11179.01
467.423	11023.36
467.628	11140.1
467.833	11451.39
468.038	10949.64
468.244	10861.57
468.449	11287.55
468.654	10812.42
468.859	10806.28
469.064	10871.81
469.269	10224.65
469.474	10431.5
469.679	10535.95
469.885	10421.26
470.09	10503.18
470.295	10439.69
470.5	10238.99
470.705	10134.54
470.91	10017.81
471.115	9878.55
471.32	10048.53
471.525	10042.39
471.73	9718.81
471.935	9720.85
472.139	9395.23
472.344	9507.87
472.549	9227.29
472.754	9301.02
472.959	9026.59
473.164	8803.36
473.369	8911.91
473.574	9081.89
473.778	9012.26
473.983	9002.02
474.188	8952.87
474.393	8571.94
474.598	8350.76
474.802	8619.05
475.007	8379.43
475.212	8565.8
475.417	8229.93
475.621	8207.41
475.826	8215.6
476.031	8045.62
476.235	7969.84
476.44	7953.46
476.645	7801.91
476.849	7881.78
477.054	7824.44
477.259	7582.77
477.463	7658.55
477.668	7433.27
477.872	7740.47
478.077	7373.88
478.282	7189.56
478.486	7312.44
478.691	7146.56
478.895	7140.41
479.1	7265.34
479.304	7185.47
479.509	6728.77
479.713	7068.73
479.918	6806.59
480.122	6542.41
480.326	6915.14
480.531	6784.07
480.735	6718.53
480.94	6814.79
481.144	6784.07
481.348	6653
481.553	6620.23
481.757	6669.38
481.961	6884.42
482.166	6691.91
482.37	6642.76
482.574	6609.99
482.778	6593.61
482.983	6675.52
483.187	6683.72
483.391	6808.64
483.595	6532.17
483.8	6444.1
484.004	6485.06
484.208	6775.88
484.412	6653
484.616	6700.1
484.821	6605.89
485.025	6521.93
485.229	6480.97
485.433	6685.76
485.637	6579.27
485.841	6521.93
486.045	6702.15
486.249	6556.74
486.453	6597.7
486.657	6607.94
486.861	6612.04
487.065	6325.32
487.269	6558.79
487.473	6519.88
487.677	6530.12
487.881	6628.42
488.085	6720.58
488.289	6657.09
488.493	6722.63
488.697	6634.57
488.901	6700.1
489.105	6648.9
489.309	6648.9
489.512	6708.29
489.716	6726.72
489.92	6698.05
490.124	6784.07
490.328	6792.26
490.531	6644.81
490.735	6884.42
490.939	7046.21
491.143	6616.13
491.346	6995.01
491.55	6876.23
491.754	7029.82
491.958	6816.83
492.161	6902.85
492.365	7068.73
492.569	6872.13
492.772	7117.89
492.976	7109.69
493.18	7076.93
493.383	7244.86
493.587	7109.69
493.79	7459.9
493.994	7158.85
494.197	7326.78
494.401	7525.43
494.605	7390.27
494.808	7466.04
495.012	7695.41
495.215	7687.22
495.419	7754.8
495.622	7736.37
495.825	7978.03
496.029	7896.11
496.232	7877.68
496.436	8098.86
496.639	8463.4
496.843	7879.73
497.046	8231.98
497.249	8565.8
497.453	8412.2
497.656	8606.76
497.859	8641.57
498.063	8784.93
498.266	8967.2
498.469	8825.89
498.673	9069.6
498.876	9077.79
499.079	9235.49
499.282	9190.43
499.485	9288.73
499.689	9212.96
499.892	9657.37
500.095	9546.78
500.298	10026
500.501	9757.72
500.705	10085.39
500.908	10361.87
501.111	10333.2
501.314	10341.39
501.517	10734.6
501.72	10685.45
501.923	10630.15
502.126	10984.45
502.329	10982.4
502.532	11191.3
502.735	11250.69
502.938	11332.61
503.141	11635.71
503.344	11545.59
503.547	11504.64
503.75	11836.41
503.953	12121.07
504.156	12336.11
504.359	12393.45
504.562	12499.95
504.765	12798.95
504.968	13093.86
505.17	13112.29
505.373	13065.19
505.576	13460.45
505.779	13611.99
505.982	13523.93
506.185	14042.07
506.387	14011.35
506.59	13978.58
506.793	14500.81
506.996	14400.46
507.198	14906.31
507.401	14685.13
507.604	15027.14
507.807	15369.15
508.009	15332.29
508.212	15463.36
508.415	15586.24
508.617	15963.06
508.82	16309.17
509.022	16036.79
509.225	16743.34
509.428	16915.37
509.63	16956.33
509.833	17066.92
510.035	17433.5
510.238	17400.74
510.44	17689.5
510.643	18056.09
510.845	18213.78
511.048	18064.28
511.25	18576.27
511.453	18572.18
511.655	19362.69
511.858	19080.07
512.06	19434.37
512.262	19698.56
512.465	19653.5
512.667	19999.61
512.87	20069.24
513.072	20405.11
513.274	20962.15
513.477	20972.39
513.679	21123.94
513.881	21304.17
514.084	21771.1
514.286	21791.58
514.488	22098.78
514.69	22643.54
514.893	22735.7
515.095	22934.35
515.297	23112.52
515.499	23247.69
515.701	23911.23
515.904	23808.83
516.106	24001.34
516.308	24707.89
516.51	25010.99
516.712	25054
516.914	25248.55
517.116	25711.39
517.318	25647.91
517.52	26104.6
517.722	26186.52
517.925	26417.94
518.127	26886.93
518.329	26788.63
518.531	27040.53
518.733	27618.05
518.935	27935.49
519.136	27851.52
519.338	28261.12
519.54	28252.92
519.742	28777.2
519.944	28592.89
520.146	29416.17
520.348	29899.49
520.55	29766.37
520.752	29965.03
520.954	30468.83
521.155	30055.14
521.357	30716.63
521.559	30804.69
521.761	31480.52
521.963	31564.49
522.164	31490.76
522.366	31679.18
522.568	32252.61
522.77	32754.36
522.971	32826.04
523.173	32805.56
523.375	33176.24
523.576	33299.12
523.778	33594.03
523.98	34333.34
524.181	33761.96
524.383	33911.46
524.584	34364.06
524.786	34839.19
524.988	34441.89
525.189	35381.9
525.391	35195.54
525.592	35336.85
525.794	35676.81
525.995	35992.2
526.197	35510.92
526.398	35984.01
526.6	36383.36
526.801	36625.02
527.003	36526.72
527.204	36741.75
527.406	37096.05
527.607	36872.82
527.808	37001.85
528.01	36971.13
528.211	37456.5
528.412	37458.54
528.614	37536.37
528.815	37786.22
529.016	37917.29
529.218	37567.09
529.419	37599.85
529.62	38060.65
529.822	37730.92
530.023	38066.79
530.224	38341.22
530.425	38507.1
530.626	37866.09
530.828	38161
531.029	38971.99
531.23	37962.34
531.431	38468.19
531.632	38679.13
531.833	39240.28
532.035	38591.07
532.236	38795.87
532.437	39486.03
532.638	38834.78
532.839	38914.65
533.04	39860.81
533.241	38447.71
533.442	39471.7
533.643	39182.93
533.844	39103.06
534.045	39238.23
534.246	38920.79
534.447	39316.05
534.648	39062.1
534.849	39389.78
535.05	39066.2
535.251	39514.7
535.451	39146.07
535.652	39180.88
535.853	39631.44
536.054	39684.69
536.255	39850.57
536.456	39582.29
536.657	40098.37
536.857	39221.84
537.058	39459.41
537.259	39572.05
537.46	39719.5
537.66	39613.01
537.861	39533.14
538.062	39752.27
538.263	39758.41
538.463	39447.12
538.664	39615.05
538.865	39780.94
539.065	39907.91
539.266	39131.73
539.466	40079.94
539.667	39475.79
539.868	40012.36
540.068	39381.59
540.269	39748.17
540.469	40014.41
540.67	39326.29
540.87	39541.33
541.071	39563.85
541.271	39641.68
541.472	39522.9
541.672	39619.15
541.873	39258.71
542.073	39387.73
542.274	39823.95
542.474	39344.72
542.675	39381.59
542.875	39766.6
543.075	39637.58
543.276	39131.73
543.476	39604.81
543.676	39316.05
543.877	39815.76
544.077	39668.3
544.277	39686.73
544.478	39346.77
544.678	39471.7
544.878	39361.11
545.078	39608.91
545.279	39004.76
545.479	39627.34
545.679	39498.32
545.879	39420.5
546.079	39328.34
546.28	39242.32
546.48	39299.67
546.68	39885.39
546.88	39465.55
547.08	39367.25
547.28	39543.38
547.48	39113.3
547.68	39432.78
547.88	39090.77
548.081	39428.69
548.281	39109.21
548.481	39336.53
548.681	39551.57
548.881	39641.68
549.081	39195.22
549.28	38971.99
549.48	39393.87
549.68	39387.73
549.88	40008.26
550.08	39332.43
550.28	39570
550.48	39586.38
550.68	39467.6
550.88	39541.33
551.08	39174.74
551.279	39658.06
551.479	39004.76
551.679	39639.63
551.879	38988.38
552.079	39590.48
552.278	39393.87
552.478	39176.79
552.678	39182.93
552.878	39819.85
553.077	39299.67
553.277	38951.51
553.477	39637.58
553.676	39232.08
553.876	39129.69
554.076	39105.11
554.275	39301.71
554.475	38290.02
554.674	39215.7
554.874	39387.73
555.074	38890.07
555.273	39072.34
555.473	39133.78
555.672	38642.27
555.872	38529.63
556.071	38623.84
556.271	38941.27
556.47	38562.4
556.67	38498.91
556.869	38308.45
557.068	38670.94
557.268	38425.18
557.467	38578.78
557.667	38296.16
557.866	38460
558.065	38431.33
558.265	38447.71
558.464	37673.58
558.663	38406.75
558.863	37859.94
559.062	38554.21
559.261	38152.8
559.461	38224.48
559.66	37896.81
559.859	38318.69
560.058	37755.5
560.258	38161
560.457	37890.66
560.656	37679.72
560.855	37712.49
561.054	37943.91
561.253	37216.88
561.453	37884.52
561.652	37726.83
561.851	37966.44
562.05	37642.86
562.249	37120.63
562.448	37814.89
562.647	37325.43
562.846	37247.6
563.045	37304.95
563.244	37075.57
563.443	37538.41
563.642	36668.03
563.841	37159.54
564.04	36926.07
564.239	37196.4
564.438	36848.25
564.637	36846.2
564.836	36840.06
565.035	36539.01
565.234	36555.39
565.432	36665.98
565.631	36508.29
565.83	36397.7
566.029	36432.51
566.228	36397.7
566.427	36133.51
566.625	35758.73
566.824	35797.64
567.023	36330.11
567.222	35340.94
567.42	36227.71
567.619	36016.77
567.818	35764.87
568.016	35521.16
568.215	35881.61
568.414	35615.37
568.612	36055.68
568.811	35424.91
569.01	35504.78
569.208	35076.76
569.407	35293.84
569.605	34845.33
569.804	35103.38
570.002	34826.9
570.201	34925.21
570.4	34581.15
570.598	34736.79
570.797	34372.25
570.995	34687.64
571.193	34382.49
571.392	34585.24
571.59	34030.24
571.789	33931.94
571.987	34232.99
572.186	34286.24
572.384	33804.97
572.582	33641.13
572.781	33948.32
572.979	33258.16
573.177	33546.92
573.376	33821.35
573.574	33401.52
573.772	33573.55
573.971	33161.9
574.169	33034.93
574.367	33028.79
574.565	32950.96
574.763	32907.96
574.962	32447.16
575.16	32469.69
575.358	32623.29
575.556	32336.57
575.754	32686.78
575.952	32072.39
576.151	32633.53
576.349	32178.88
576.547	32076.48
576.745	32176.83
576.943	31926.98
577.141	32010.95
577.339	31564.49
577.537	31621.83
577.735	31402.7
577.933	30946
578.131	31546.06
578.329	31191.76
578.527	31152.85
578.725	31070.93
578.923	30864.08
579.121	30792.4
579.319	30804.69
579.516	30802.64
579.714	30370.52
579.912	30497.5
580.11	30540.5
580.308	30653.14
580.506	30358.24
580.704	29774.56
580.901	30132.96
581.099	30423.77
581.297	30182.11
581.495	29733.6
581.692	29752.04
581.89	29639.4
582.088	29893.35
582.285	29459.18
582.483	29561.58
582.681	29223.66
582.878	29166.32
583.076	28766.96
583.274	29356.78
583.471	28572.41
583.669	28965.62
583.866	28728.05
584.064	29244.14
584.262	28826.35
584.459	28881.65
584.657	28775.16
584.854	28877.55
585.052	28234.49
585.249	28648.18
585.447	28259.07
585.644	28136.19
585.841	28199.68
586.039	28273.4
586.236	27781.89
586.434	27706.12
586.631	27626.25
586.828	27708.16
587.026	27456.26
587.223	27593.48
587.42	27722.5
587.618	27491.08
587.815	27317
588.012	27296.52
588.21	27308.81
588.407	27448.07
588.604	27239.18
588.801	26966.8
588.999	27173.64
589.196	26923.79
589.393	26931.98
589.59	26553.11
589.787	26385.18
589.984	26428.18
590.182	26374.94
590.379	26571.54
590.576	26071.84
590.773	26084.12
590.97	26067.74
591.167	26321.69
591.364	25682.72
591.561	25926.43
591.758	25910.05
591.955	25725.73
592.152	25563.94
592.349	25688.87
592.546	25664.29
592.743	25717.54
592.94	25099.05
593.137	25256.75
593.334	25346.86
593.531	24873.78
593.727	25125.68
593.924	25027.37
594.121	24761.14
594.318	25365.29
594.515	24679.22
594.712	25080.62
594.908	24795.95
595.105	24671.03
595.302	24326.97
595.499	24429.37
595.696	24441.65
595.892	24232.76
596.089	24460.09
596.286	24488.76
596.482	24144.7
596.679	23958.33
596.876	24445.75
597.072	23946.05
597.269	24369.97
597.466	23644.99
597.662	23649.09
597.859	23802.69
598.055	23466.82
598.252	23434.05
598.448	23247.69
598.645	23608.13
598.841	23345.99
599.038	23237.45
599.234	23403.33
599.431	23040.84
599.627	23059.27
599.824	23137.1
600.02	22661.97
600.217	22739.79
600.413	22803.28
600.609	22618.96
600.806	22612.82
601.002	22803.28
601.198	22567.76
601.395	22350.68
601.591	22297.43
601.787	22537.04
601.984	22119.26
602.18	22324.05
602.376	21881.69
602.572	21936.99
602.769	21791.58
602.965	21830.49
603.161	21683.04
603.357	21795.68
603.553	21637.98
603.75	21742.43
603.946	21586.79
604.142	21662.56
604.338	21281.64
604.534	21222.25
604.73	21080.94
604.926	21072.75
605.122	21336.93
605.318	20732.78
605.514	20835.18
605.71	20722.54
605.906	20843.37
606.102	20831.08
606.298	20769.65
606.494	20710.25
606.69	20482.93
606.886	20423.54
607.082	20210.55
607.278	20624.24
607.474	20181.88
607.67	20157.3
607.866	19817.34
608.062	20202.36
608.257	19981.18
608.453	20048.76
608.649	20005.75
608.845	19909.5
609.041	19737.47
609.236	19723.13
609.432	19725.18
609.628	19446.66
609.824	19350.4
610.019	19540.86
610.215	19291.01
610.411	19381.12
610.606	19223.43
610.802	19571.58
610.998	19262.34
611.193	19438.47
611.389	19192.71
611.584	19141.51
611.78	18664.33
611.976	18836.36
612.171	18844.56
612.367	18932.62
612.562	19135.37
612.758	18463.63
612.953	18619.28
613.149	18914.19
613.344	18314.13
613.539	18922.38
613.735	18570.13
613.93	18477.97
614.126	18391.95
614.321	18283.41
614.517	18490.26
614.712	18197.4
614.907	18135.96
615.103	18350.99
615.298	18023.32
615.493	18404.24
615.688	17941.4
615.884	18248.6
616.079	17937.3
616.274	18123.67
616.47	17824.67
616.665	17935.26
616.86	17634.21
617.055	17562.53
617.25	17648.54
617.445	17816.47
617.641	17079.21
617.836	17314.72
618.031	17267.62
618.226	17562.53
618.421	17339.3
618.616	17234.85
618.811	17216.42
619.006	17474.46
619.201	17142.69
619.396	16896.94
619.591	16534.45
619.786	16739.24
619.981	16554.93
620.176	16790.44
620.371	16559.02
620.566	16499.63
620.761	16571.31
620.956	16255.92
621.151	16104.37
621.346	16251.83
621.541	15997.88
621.735	16153.52
621.93	15844.28
622.125	15877.05
622.32	15877.05
622.515	15494.08
622.709	15692.73
622.904	15483.84
623.099	15442.88
623.294	15428.54
623.488	15283.14
623.683	15330.24
623.878	15018.95
624.072	14975.94
624.267	14986.18
624.462	15008.71
624.656	14826.44
624.851	14529.48
625.046	14748.62
625.24	14357.46
625.435	14339.02
625.629	14408.65
625.824	14570.44
626.018	14312.4
626.213	13990.87
626.407	14343.12
626.602	13849.56
626.796	14132.18
626.991	13781.98
627.185	13919.19
627.38	13736.92
627.574	13798.36
627.768	13648.86
627.963	13507.55
628.157	13343.71
628.352	13464.54
628.546	13188.07
628.74	13192.16
628.935	13183.97
629.129	13288.42
629.323	12975.08
629.517	12647.4
629.712	12757.99
629.906	12735.46
630.1	12485.61
630.294	12778.47
630.489	12745.7
630.683	12577.77
630.877	12381.17
631.071	12395.5
631.265	12370.93
631.459	12266.48
631.653	12280.82
631.848	12104.69
632.042	12037.11
632.236	12043.25
632.43	11791.35
632.624	12098.55
632.818	11832.31
633.012	11674.62
633.206	11668.47
633.4	11840.5
633.594	11672.57
633.788	11672.57
633.982	11375.61
634.176	11363.33
634.369	11461.63
634.563	11424.76
634.757	11320.32
634.951	11514.87
635.145	11197.44
635.339	11099.14
635.533	11084.8
635.726	11156.48
635.92	10929.16
636.114	10931.2
636.308	10888.2
636.501	11041.79
636.695	10847.24
636.889	10771.46
637.083	10566.67
637.276	10544.14
637.47	10560.52
637.664	10517.51
637.857	10347.53
638.051	10435.6
638.244	10234.89
638.438	10290.19
638.632	10071.06
638.825	10030.1
639.019	10011.67
639.212	10050.58
639.406	10007.57
639.599	9747.48
639.793	9874.45
639.986	9770.01
640.18	9714.71
640.373	9829.4
640.567	9540.63
640.76	9509.91
640.954	9790.49
641.147	9620.5
641.34	9362.46
641.534	9438.23
641.727	9208.86
641.92	9313.31
642.114	9301.02
642.307	8967.2
642.5	9180.19
642.694	8979.49
642.887	9118.75
643.08	9321.5
643.273	8997.92
643.467	8721.45
643.66	8770.6
643.853	8829.99
644.046	8625.19
644.239	8875.04
644.432	8535.08
644.626	8690.73
644.819	8490.03
645.012	8379.43
645.205	8612.9
645.398	8295.47
645.591	8135.73
645.784	8068.14
645.977	8102.96
646.17	8086.58
646.363	8000.56
646.556	7959.6
646.749	8064.05
646.942	7957.55
647.135	7924.79
647.328	7875.63
647.521	7701.56
647.714	7719.99
647.907	7842.87
648.099	7652.41
648.292	7572.54
648.485	7644.21
648.678	7375.93
648.871	7306.3
649.064	7396.41
649.256	7306.3
649.449	7361.59
649.642	7179.33
649.835	7220.28
650.027	7130.17
650.22	7173.18
650.413	7171.13
650.605	7154.75
650.798	7109.69
650.991	7052.35
651.183	6988.86
651.376	6786.12
651.568	6847.55
651.761	6700.1
651.954	6868.03
652.146	6630.47
652.339	6595.65
652.531	6708.29
652.724	6562.89
652.916	6554.69
653.109	6573.13
653.301	6370.38
653.494	6446.15
653.686	6349.9
653.879	6315.08
654.071	6294.6
654.263	6220.88
654.456	6251.6
654.648	6335.56
654.84	6110.29
655.033	6011.98
655.225	5979.22
655.417	6124.62
655.61	6052.94
655.802	6011.98
655.994	5999.7
656.186	5964.88
656.379	5899.34
656.571	5835.86
656.763	5676.12
656.955	5792.85
657.148	5678.16
657.34	5784.66
657.532	5575.77
657.724	5641.3
657.916	5635.16
658.108	5622.87
658.3	5344.35
658.492	5260.38
658.684	5362.78
658.876	5278.81
659.068	5389.4
659.26	5456.98
659.452	5262.43
659.644	5264.47
659.836	5186.65
660.028	5239.9
660.22	4942.94
660.412	5129.31
660.604	5065.82
660.796	5033.05
660.988	4996.19
661.18	4891.74
661.372	4932.7
661.563	4963.42
661.755	4779.11
661.947	4924.51
662.139	4719.71
662.331	4818.02
662.522	4729.95
662.714	4633.7
662.906	4695.14
663.097	4748.39
663.289	4602.98
663.481	4514.92
663.673	4490.34
663.864	4463.72
664.056	4570.21
664.247	4521.06
664.439	4381.8
664.631	4428.9
664.822	4330.6
665.014	4451.43
665.205	4299.88
665.397	4125.8
665.588	4322.41
665.78	4269.16
665.971	4160.62
666.163	4121.71
666.354	4127.85
666.546	4056.17
666.737	4162.67
666.929	4031.6
667.12	4164.72
667.311	3982.45
667.503	3970.16
667.694	3890.29
667.885	4025.45
668.077	4025.45
668.268	4023.41
668.459	3929.2
668.651	3980.4
668.842	3800.18
669.033	3810.42
669.224	3812.46
669.416	3908.72
669.607	3791.98
669.798	3855.47
669.989	3685.49
670.18	3695.73
670.371	3789.94
670.563	3669.11
670.754	3615.86
670.945	3787.89
671.136	3656.82
671.327	3607.67
671.518	3652.72
671.709	3755.12
671.9	3507.32
672.091	3515.51
672.282	3503.22
672.473	3417.21
672.664	3468.41
672.855	3576.95
673.046	3521.65
673.237	3603.57
673.428	3535.99
673.619	3521.65
673.809	3413.11
674	3435.64
674.191	3447.93
674.382	3370.1
674.573	3476.6
674.764	3265.66
674.954	3429.49
675.145	3226.75
675.336	3214.46
675.527	3212.41
675.717	3433.59
675.908	3314.81
676.099	3210.36
676.289	3368.06
676.48	3169.4
676.671	3198.07
676.861	3208.31
677.052	3239.03
677.243	3230.84
677.433	3054.72
677.624	3169.4
677.814	3234.94
678.005	3292.28
678.195	3130.49
678.386	3140.73
678.576	3077.24
678.767	2991.23
678.957	3161.21
679.148	3142.78
679.338	3007.61
679.529	3110.01
679.719	3013.76
679.909	3079.29
680.1	2987.13
680.29	3056.76
680.481	3013.76
680.671	3095.68
680.861	3030.14
681.052	2917.5
681.242	3073.15
681.432	3099.77
681.622	2956.41
681.813	2966.65
682.003	2911.36
682.193	2964.61
682.383	2870.4
682.573	2935.93
682.764	2940.03
682.954	2958.46
683.144	2974.85
683.334	2813.06
683.524	2899.07
683.714	2872.45
683.904	2915.45
684.094	3032.19
684.284	2897.02
684.474	3005.56
684.664	2966.65
684.854	2909.31
685.044	2849.92
685.234	2747.52
685.424	2956.41
685.614	2935.93
685.804	2839.68
685.994	2892.93
686.184	2882.69
686.374	2825.34
686.564	2718.85
686.753	2837.63
686.943	2792.58
687.133	2774.14
687.323	2843.78
687.513	2790.53
687.702	2802.82
687.892	2786.43
688.082	2702.47
688.272	2796.67
688.461	2837.63
688.651	2772.1
688.841	2731.14
689.03	2856.06
689.22	2890.88
689.41	2729.09
689.599	2786.43
689.789	2808.96
689.979	2784.38
690.168	2858.11
690.358	2696.32
690.547	2813.06
690.737	2925.69
690.926	2815.1
691.116	2620.55
691.305	2835.58
691.495	2677.89
691.684	2665.6
691.874	2698.37
692.063	2724.99
692.252	2751.62
692.442	2792.58
692.631	2679.94
692.82	2761.86
693.01	2845.82
693.199	2903.17
693.388	2737.28
693.578	2655.36
693.767	2780.29
693.956	2679.94
694.146	2710.66
694.335	2729.09
694.524	2761.86
694.713	2708.61
694.902	2727.04
695.092	2737.28
695.281	2784.38
695.47	2696.32
695.659	2677.89
695.848	2530.44
696.037	2673.79
696.226	2727.04
696.415	2714.75
696.604	2606.21
696.793	2634.88
696.982	2759.81
697.171	2647.17
697.36	2708.61
697.549	2733.18
697.738	2669.7
697.927	2602.11
698.116	2657.41
698.305	2745.47
698.494	2624.64
698.683	2696.32
698.872	2720.9
699.061	2671.75
699.25	2737.28
699.438	2565.25
699.627	2647.17
699.816	2706.56
700.005	2641.03
700.193	2602.11
700.382	2692.23
700.571	2600.07
700.76	2696.32
700.948	2798.72
701.137	2600.07
701.326	2555.01
701.514	2571.4
701.703	2751.62
701.892	2587.78
702.08	2520.2
702.269	2643.07
702.457	2710.66
702.646	2579.59
702.834	2552.96
703.023	2442.37
703.212	2485.38
703.4	2485.38
703.589	2573.44
703.777	2489.48
703.965	2579.59
704.154	2575.49
704.342	2598.02
704.531	2495.62
704.719	2387.08
704.907	2479.24
705.096	2491.52
705.284	2473.09
705.472	2436.23
705.661	2407.56
705.849	2368.65
706.037	2374.79
706.226	2387.08
706.414	2385.03
706.602	2329.74
706.79	2344.07
706.979	2477.19
707.167	2284.68
707.355	2337.93
707.543	2380.93
707.731	2415.75
707.919	2333.83
708.107	2307.21
708.296	2323.59
708.484	2301.06
708.672	2313.35
708.86	2342.02
709.048	2196.62
709.236	2303.11
709.424	2221.19
709.612	2368.65
709.8	2251.91
709.988	2305.16
710.176	2088.07
710.364	2296.97
710.551	2081.93
710.739	2202.76
710.927	2217.1
711.115	2221.19
711.303	2186.38
711.491	2172.04
711.679	2204.81
711.866	2151.56
712.054	2296.97
712.242	2088.07
712.43	2174.09
712.617	2178.19
712.805	2104.46
712.993	2083.98
713.181	2069.64
713.368	2141.32
713.556	2036.88
713.744	2057.36
713.931	2022.54
714.119	1985.68
714.306	2055.31
714.494	1993.87
714.682	2018.44
714.869	2032.78
715.057	1940.62
715.244	2006.16
715.432	2034.83
715.619	2124.94
715.807	1903.76
715.994	1983.63
716.182	1873.04
716.369	1959.05
716.556	1889.42
716.744	1901.71
716.931	1942.67
717.119	2006.16
717.306	1948.81
717.493	1866.89
717.681	1916.05
717.868	1746.06
718.055	1932.43
718.242	1932.43
718.43	1922.19
718.617	1782.93
718.804	1825.93
718.991	1840.27
719.179	1797.26
719.366	1739.92
719.553	1866.89
719.74	1780.88
719.927	1676.43
720.114	1852.56
720.301	1825.93
720.488	1836.17
720.676	1760.4
720.863	1801.36
721.05	1756.3
721.237	1703.06
721.424	1799.31
721.611	1596.56
721.798	1643.67
721.985	1678.48
722.172	1563.79
722.358	1645.71
722.545	1711.25
722.732	1703.06
722.919	1590.42
723.106	1664.15
723.293	1750.16
723.48	1653.91
723.667	1641.62
723.853	1567.89
724.04	1707.15
724.227	1580.18
724.414	1596.56
724.6	1516.69
724.787	1557.65
724.974	1602.71
725.161	1543.32
725.347	1594.51
725.534	1557.65
725.72	1555.6
725.907	1633.43
726.094	1535.12
726.28	1520.79
726.467	1508.5
726.653	1438.87
726.84	1596.56
727.027	1463.44
727.213	1571.99
727.4	1500.31
727.586	1549.46
727.773	1494.16
727.959	1524.88
728.145	1449.11
728.332	1406.1
728.518	1490.07
728.705	1416.34
728.891	1488.02
729.077	1481.88
729.264	1377.43
729.45	1399.96
729.636	1455.25
729.823	1436.82
730.009	1385.62
730.195	1451.16
730.382	1373.33
730.568	1418.39
730.754	1393.81
730.94	1438.87
731.126	1375.38
731.313	1367.19
731.499	1399.96
731.685	1291.41
731.871	1379.48
732.057	1361.05
732.243	1442.96
732.429	1371.29
732.615	1322.13
732.801	1295.51
732.987	1252.5
733.173	1336.47
733.359	1311.89
733.545	1313.94
733.731	1291.41
733.917	1293.46
734.103	1277.08
734.289	1232.02
734.475	1289.37
734.661	1340.57
734.847	1275.03
735.033	1299.61
735.219	1404.05
735.404	1260.7
735.59	1201.3
735.776	1242.26
735.962	1244.31
736.148	1250.46
736.333	1328.28
736.519	1150.11
736.705	1182.87
736.89	1207.45
737.076	1180.82
737.262	1154.2
737.447	1195.16
737.633	1193.11
737.819	1199.26
738.004	1098.91
738.19	1207.45
738.375	1107.1
738.561	1213.59
738.747	1162.39
738.932	1178.78
739.118	1172.63
739.303	1152.15
739.489	1199.26
739.674	1107.1
739.859	1162.39
740.045	1221.78
740.23	1174.68
740.416	1109.15
740.601	1053.85
740.786	1090.71
740.972	1094.81
741.157	1135.77
741.342	1055.9
741.528	1174.68
741.713	1092.76
741.898	1070.23
742.084	1133.72
742.269	994.46
742.454	1039.51
742.639	1119.39
742.824	1016.99
743.01	939.16
743.195	1131.67
743.38	953.5
743.565	1070.23
743.75	1086.62
743.935	918.68
744.12	1045.66
744.305	982.17
744.49	937.12
744.675	1068.19
744.86	937.12
745.045	1025.18
745.23	973.98
745.415	1033.37
745.6	1037.47
745.785	988.32
745.97	908.44
746.155	1000.6
746.34	965.79
746.525	898.2
746.71	982.17
746.895	859.29
747.079	945.31
747.264	1031.32
747.449	994.46
747.634	900.25
747.819	883.87
748.003	912.54
748.188	896.16
748.373	967.84
748.557	838.81
748.742	857.25
748.927	836.77
749.111	853.15
749.296	828.57
749.481	804
749.665	847.01
749.85	844.96
750.034	881.82
750.219	861.34
750.404	861.34
750.588	861.34
750.773	820.38
750.957	900.25
751.141	855.2
751.326	804
751.51	781.47
751.695	910.49
751.879	777.37
752.064	779.42
752.248	795.81
752.432	783.52
752.617	744.61
752.801	814.24
752.985	771.23
753.17	863.39
753.354	687.26
753.538	824.48
753.722	750.75
753.907	699.55
754.091	629.92
754.275	717.98
754.459	697.5
754.643	736.42
754.828	709.79
755.012	580.77
755.196	732.32
755.38	746.66
755.564	707.74
755.748	726.18
755.932	689.31
756.116	709.79
756.3	746.66
756.484	742.56
756.668	740.51
756.852	730.27
757.036	650.4
757.22	588.96
757.404	644.26
757.588	697.5
757.772	574.63
757.956	662.69
758.14	638.11
758.323	717.98
758.507	646.3
758.691	654.5
758.875	625.83
759.059	668.83
759.242	566.43
759.426	556.19
759.61	599.2
759.794	558.24
759.977	564.39
760.161	609.44
760.345	570.53
760.528	636.06
760.712	609.44
760.895	578.72
761.079	535.71
761.263	496.8
761.446	582.82
761.63	615.59
761.813	617.63
761.997	527.52
762.18	562.34
762.364	576.67
762.547	593.06
762.731	588.96
762.914	548
763.098	482.47
763.281	519.33
763.464	533.67
763.648	515.23
763.831	545.95
764.015	529.57
764.198	507.04
764.381	486.56
764.564	558.24
764.748	482.47
764.931	531.62
765.114	517.28
765.297	507.04
765.481	476.32
765.664	455.84
765.847	455.84
766.03	509.09
766.213	498.85
766.397	578.72
766.58	605.35
766.763	490.66
766.946	535.71
767.129	513.19
767.312	492.71
767.495	533.67
767.678	533.67
767.861	468.13
768.044	466.08
768.227	500.9
768.41	525.47
768.593	470.18
768.776	509.09
768.959	537.76
769.142	478.37
769.324	521.38
769.507	504.99
769.69	504.99
769.873	519.33
770.056	558.24
770.239	466.08
770.421	490.66
770.604	500.9
770.787	400.55
770.97	511.14
771.152	457.89
771.335	490.66
771.518	502.95
771.7	400.55
771.883	408.74
772.066	406.69
772.248	416.93
772.431	437.41
772.613	447.65
772.796	406.69
772.978	406.69
773.161	498.85
773.343	449.7
773.526	468.13
773.708	380.07
773.891	425.12
774.073	482.47
774.256	433.32
774.438	455.84
774.621	423.08
774.803	464.04
774.985	378.02
775.168	484.52
775.35	423.08
775.532	418.98
775.715	384.16
775.897	412.84
776.079	375.97
776.261	341.16
776.444	414.88
776.626	330.92
776.808	388.26
776.99	375.97
777.173	287.91
777.355	345.25
777.537	335.01
777.719	347.3
777.901	361.64
778.083	359.59
778.265	306.34
778.447	410.79
778.629	367.78
778.811	373.92
778.993	279.72
779.175	402.6
779.357	433.32
779.539	326.82
779.721	316.58
779.903	355.49
780.085	353.45
780.267	400.55
780.449	326.82
780.631	380.07
780.812	373.92
780.994	326.82
781.176	289.96
781.358	345.25
781.54	353.45
781.721	337.06
781.903	304.29
782.085	246.95
782.267	335.01
782.448	302.25
782.63	240.81
782.812	246.95
782.993	322.73
783.175	277.67
783.357	337.06
783.538	285.86
783.72	287.91
783.901	337.06
784.083	253.09
784.264	267.43
784.446	365.73
784.627	302.25
784.809	289.96
784.99	265.38
785.172	343.21
785.353	318.63
785.535	283.81
785.716	277.67
785.897	287.91
786.079	238.76
786.26	255.14
786.441	292.01
786.623	283.81
786.804	261.29
786.985	279.72
787.167	345.25
787.348	251.05
787.529	257.19
787.71	300.2
787.891	306.34
788.073	275.62
788.254	244.9
788.435	283.81
788.616	173.22
788.797	289.96
788.978	285.86
789.159	218.28
789.34	300.2
789.522	244.9
789.703	199.85
789.884	244.9
790.065	324.77
790.246	251.05
790.427	173.22
790.607	267.43
790.788	251.05
790.969	208.04
791.15	273.57
791.331	177.32
791.512	197.8
791.693	214.18
791.874	232.62
792.054	205.99
792.235	298.15
792.416	185.51
792.597	189.61
792.778	306.34
792.958	212.14
793.139	189.61
793.32	277.67
793.5	228.52
793.681	195.75
793.862	208.04
794.042	173.22
794.223	144.55
794.404	210.09
794.584	165.03
794.765	226.47
794.945	228.52
795.126	220.33
795.306	197.8
795.487	212.14
795.667	171.18
795.848	195.75
796.028	179.37
796.209	187.56
796.389	160.94
796.57	203.94
796.75	191.66
796.93	222.38
797.111	113.83
797.291	152.74
797.471	244.9
797.652	113.83
797.832	203.94
798.012	201.9
798.192	144.55
798.373	136.36
798.553	183.46
798.733	130.22
798.913	150.7
799.093	140.46
799.274	222.38
799.454	136.36
799.634	156.84
799.814	189.61
799.994	136.36
800.174	171.18
800.354	179.37
800.534	197.8
800.714	195.75
800.894	193.7
801.074	167.08
801.254	212.14
801.434	195.75
801.614	126.12
801.794	199.85
801.974	447.65
802.154	111.78
802.334	128.17
802.514	185.51
802.693	144.55
802.873	91.31
803.053	97.45
803.233	109.74
803.413	124.07
803.592	70.83
803.772	197.8
803.952	119.98
804.131	95.4
804.311	171.18
804.491	203.94
804.67	130.22
804.85	97.45
805.03	83.11
805.209	130.22
805.389	122.02
805.568	130.22
805.748	150.7
805.928	136.36
806.107	111.78
806.287	124.07
806.466	222.38
806.646	154.79
806.825	33.96
807.004	76.97
807.184	105.64
807.363	122.02
807.543	79.02
807.722	64.68
807.901	158.89
808.081	177.32
808.26	109.74
808.439	142.5
808.619	146.6
808.798	138.41
808.977	107.69
809.156	160.94
809.336	87.21
809.515	74.92
809.694	85.16
809.873	85.16
810.052	126.12
810.231	177.32
810.411	64.68
810.59	117.93
810.769	117.93
810.948	70.83
811.127	103.59
811.306	101.55
811.485	111.78
811.664	138.41
811.843	126.12
812.022	150.7
812.201	126.12
812.38	115.88
812.559	126.12
812.737	111.78
812.916	74.92
813.095	68.78
813.274	165.03
813.453	142.5
813.632	25.77
813.811	146.6
813.989	62.63
814.168	97.45
814.347	17.58
814.526	124.07
814.704	136.36
814.883	50.35
815.062	113.83
815.24	140.46
815.419	126.12
815.598	134.31
815.776	79.02
815.955	72.87
816.133	101.55
816.312	97.45
816.49	162.98
816.669	52.39
816.847	64.68
817.026	103.59
817.204	148.65
817.383	85.16
817.561	113.83
817.74	105.64
817.918	81.07
818.097	89.26
818.275	107.69
818.453	124.07
818.632	52.39
818.81	154.79
818.988	81.07
819.167	158.89
819.345	76.97
819.523	95.4
819.701	117.93
819.879	40.11
820.058	64.68
820.236	117.93
820.414	74.92
820.592	81.07
820.77	79.02
820.948	83.11
821.127	85.16
821.305	44.2
821.483	117.93
821.661	119.98
821.839	105.64
822.017	132.26
822.195	58.54
822.373	115.88
822.551	44.2
822.729	199.85
822.907	79.02
823.085	113.83
823.262	85.16
823.44	-23.38
823.618	95.4
823.796	36.01
823.974	181.42
824.152	42.15
824.329	58.54
824.507	158.89
824.685	113.83
824.863	87.21
825.04	115.88
825.218	128.17
825.396	74.92
825.574	83.11
825.751	109.74
825.929	60.59
826.107	17.58
826.284	9.39
826.462	72.87
826.639	103.59
826.817	89.26
826.994	25.77
827.172	17.58
827.349	99.5
827.527	89.26
827.704	89.26
827.882	50.35
828.059	54.44
828.237	50.35
828.414	109.74
828.591	15.53
828.769	7.34
828.946	85.16
829.124	91.31
829.301	64.68
829.478	81.07
829.655	48.3
829.833	60.59
830.01	-27.48
830.187	72.87
830.364	99.5
830.542	91.31
830.719	56.49
830.896	68.78
831.073	79.02
831.25	119.98
831.427	99.5
831.604	56.49
831.782	31.91
831.959	119.98
832.136	97.45
832.313	76.97
832.49	64.68
832.667	72.87
832.844	13.48
833.021	97.45
833.198	-11.09
833.374	68.78
833.551	31.91
833.728	23.72
833.905	122.02
834.082	68.78
834.259	42.15
834.436	-25.43
834.612	-4.95
834.789	81.07
834.966	40.11
835.143	85.16
835.319	42.15
835.496	46.25
835.673	64.68
835.85	87.21
836.026	29.87
836.203	64.68
836.38	97.45
836.556	101.55
836.733	5.29
836.909	122.02
837.086	56.49
837.262	36.01
837.439	46.25
837.616	23.72
837.792	38.06
837.968	113.83
838.145	64.68
838.321	64.68
838.498	74.92
838.674	74.92
838.851	58.54
839.027	97.45
839.203	111.78
839.38	130.22
839.556	7.34
839.732	7.34
839.909	62.63
840.085	70.83
840.261	44.2
840.437	-0.85
840.614	19.63
840.79	42.15
840.966	74.92
841.142	68.78
841.318	5.29
841.494	138.41
841.671	27.82
841.847	42.15
842.023	85.16
842.199	27.82
842.375	50.35
842.551	19.63
842.727	52.39
842.903	93.35
843.079	-9.05
843.255	89.26
843.431	42.15
843.607	58.54
843.783	23.72
843.959	91.31
844.134	42.15
844.31	113.83
844.486	9.39
844.662	40.11
844.838	25.77
845.013	64.68
845.189	36.01
845.365	89.26
845.541	93.35
845.716	17.58
845.892	-29.52
846.068	3.24
846.244	15.53
846.419	50.35
846.595	27.82
846.77	95.4
846.946	29.87
847.122	17.58
847.297	105.64
847.473	-19.29
847.648	113.83
847.824	81.07
847.999	44.2
848.175	70.83
848.35	62.63
848.526	33.96
848.701	15.53
848.876	29.87
849.052	56.49
849.227	31.91
849.403	13.48
849.578	5.29
849.753	54.44
849.929	48.3
850.104	13.48
850.279	15.53
850.454	52.39
850.63	48.3
850.805	-15.19
850.98	27.82
851.155	44.2
851.33	31.91
851.505	-15.19
851.681	85.16
851.856	27.82
852.031	56.49
852.206	-19.29
852.381	113.83
852.556	13.48
852.731	83.11
852.906	113.83
853.081	42.15
853.256	107.69
853.431	117.93
853.606	56.49
853.781	36.01
853.956	-50
854.131	42.15
854.305	68.78
854.48	25.77
854.655	40.11
854.83	-9.05
855.005	19.63
855.18	7.34
855.354	74.92
855.529	54.44
855.704	138.41
855.879	31.91
856.053	74.92
856.228	48.3
856.403	-7
856.577	-0.85
856.752	62.63
856.926	60.59
857.101	64.68
857.276	27.82
857.45	19.63
857.625	48.3
857.799	25.77
857.974	40.11
858.148	60.59
858.323	7.34
858.497	60.59
858.672	64.68
858.846	87.21
859.02	85.16
859.195	29.87
859.369	81.07
859.543	70.83
859.718	46.25
859.892	-9.05
860.066	52.39
860.241	11.43
860.415	38.06
860.589	50.35
860.763	46.25
860.938	-17.24
861.112	-56.15
861.286	42.15
861.46	54.44
861.634	-0.85
861.808	42.15
861.982	-29.52
862.157	58.54
862.331	17.58
862.505	25.77
862.679	1.19
862.853	23.72
863.027	23.72
863.201	64.68
863.375	66.73
863.549	23.72
863.722	-11.09
863.896	70.83
864.07	33.96
864.244	-31.57
864.418	48.3
864.592	23.72
864.766	60.59
864.939	19.63
865.113	-43.86
865.287	46.25
865.461	1.19
865.634	72.87
865.808	42.15
865.982	52.39
866.156	23.72
866.329	-25.43
866.503	38.06
866.676	19.63
866.85	25.77
867.024	56.49
867.197	13.48
867.371	83.11
867.544	29.87
867.718	19.63
867.891	54.44
868.065	54.44
868.238	40.11
868.412	89.26
868.585	48.3
868.759	15.53
868.932	64.68
869.105	54.44
869.279	-11.09
869.452	36.01
869.625	-0.85
869.799	68.78
869.972	7.34
870.145	-17.24
870.319	-19.29
870.492	33.96
870.665	-17.24
870.838	9.39
871.011	23.72
871.185	83.11
871.358	23.72
871.531	56.49
871.704	83.11
871.877	23.72
872.05	54.44
872.223	60.59
872.396	50.35
872.569	101.55
872.742	9.39
872.915	68.78
873.088	9.39
873.261	54.44
873.434	74.92
873.607	83.11
873.78	13.48
873.953	29.87
874.126	-37.72
874.299	-15.19
874.471	-9.05
874.644	72.87
874.817	87.21
874.99	33.96
875.163	50.35
875.335	-15.19
875.508	-50
875.681	7.34
875.853	-7
876.026	19.63
876.199	87.21
876.371	-0.85
876.544	31.91
876.717	38.06
876.889	-43.86
877.062	-25.43
877.234	46.25
877.407	50.35
877.579	-15.19
877.752	68.78
877.924	21.67
878.097	42.15
878.269	31.91
878.442	17.58
878.614	-19.29
878.786	81.07
878.959	21.67
879.131	21.67
879.303	58.54
879.476	-21.33
879.648	48.3
879.82	9.39
879.993	97.45
880.165	48.3
880.337	33.96
880.509	70.83
880.681	74.92
880.854	33.96
881.026	3.24
881.198	36.01
881.37	48.3
881.542	13.48
881.714	25.77
881.886	68.78
882.058	27.82
882.23	1.19
882.402	13.48
882.574	-31.57
882.746	-23.38
882.918	-4.95
883.09	-0.85
883.262	31.91
883.434	13.48
883.606	-39.76
883.778	31.91
883.95	15.53
884.122	-7
884.293	36.01
884.465	27.82
884.637	58.54
884.809	29.87
884.98	44.2
885.152	93.35
885.324	-0.85
885.496	56.49
885.667	50.35
885.839	-0.85
886.011	103.59
886.182	29.87
886.354	15.53
886.525	64.68
886.697	52.39
886.869	1.19
887.04	11.43
887.212	64.68
887.383	74.92
887.555	52.39
887.726	25.77
887.897	15.53
888.069	36.01
888.24	99.5
888.412	15.53
888.583	-21.33
888.754	42.15
888.926	25.77
889.097	25.77
889.268	-4.95
889.44	33.96
889.611	87.21
889.782	130.22
889.953	19.63
890.125	68.78
890.296	-58.2
890.467	29.87
890.638	21.67
890.809	48.3
890.98	25.77
891.151	68.78
891.323	23.72
891.494	87.21
891.665	-33.62
891.836	36.01
892.007	1.19
892.178	58.54
892.349	66.73
892.52	-13.14
892.691	-17.24
892.862	-2.9
893.032	76.97
893.203	11.43
893.374	25.77
893.545	81.07
893.716	50.35
893.887	29.87
894.057	-23.38
894.228	72.87
894.399	-2.9
894.57	50.35
894.74	-0.85
894.911	23.72
895.082	40.11
895.253	36.01
895.423	-58.2
895.594	40.11
895.764	21.67
895.935	25.77
896.106	-4.95
896.276	3.24
896.447	-33.62
896.617	52.39
896.788	52.39
896.958	23.72
897.129	7.34
897.299	29.87
897.47	9.39
897.64	62.63
897.81	46.25
897.981	60.59
898.151	-0.85
898.322	81.07
898.492	38.06
898.662	-70.48
898.832	44.2
899.003	36.01
899.173	17.58
899.343	50.35
899.513	17.58
