Data from USB4F104151__240__14-01-00-178.txt Node

Date: Thu Mar 13 14:01:00 EDT 2025
User: louis
Spectrometer: USB4F10415
Trigger mode: 4
Integration Time (sec): 1.000000E-2
Scans to average: 1
Electric dark correction enabled: true
Nonlinearity correction enabled: false
Boxcar width: 0
XAxis mode: Wavelengths
Number of Pixels in Spectrum: 3648
>>>>>Begin Spectral Data<<<<<
178.204	-103.42
178.424	-103.42
178.644	-103.42
178.864	-23.55
179.084	-66.56
179.304	41.98
179.524	44.03
179.744	19.46
179.964	7.17
180.184	-3.07
180.404	-19.46
180.624	21.5
180.844	31.74
181.064	-29.7
181.283	-29.7
181.503	-52.22
181.723	-31.74
181.943	-58.37
182.163	-50.18
182.383	-1.02
182.602	-54.27
182.822	39.94
183.042	5.12
183.262	21.5
183.482	37.89
183.701	29.7
183.921	50.18
184.141	-35.84
184.361	-3.07
184.58	-9.22
184.8	-91.13
185.02	15.36
185.239	19.46
185.459	-60.42
185.679	-35.84
185.898	-37.89
186.118	35.84
186.338	23.55
186.557	5.12
186.777	-3.07
186.997	-11.26
187.216	-21.5
187.436	39.94
187.655	17.41
187.875	19.46
188.095	-1.02
188.314	54.27
188.534	-15.36
188.753	89.09
188.973	39.94
189.192	84.99
189.412	3.07
189.631	-13.31
189.851	52.22
190.07	52.22
190.29	-9.22
190.509	44.03
190.729	-3.07
190.948	13.31
191.168	35.84
191.387	-54.27
191.607	35.84
191.826	-9.22
192.045	-15.36
192.265	-64.51
192.484	-3.07
192.704	1.02
192.923	-46.08
193.142	37.89
193.362	84.99
193.581	35.84
193.8	72.7
194.02	-9.22
194.239	-78.85
194.458	33.79
194.678	-5.12
194.897	35.84
195.116	17.41
195.335	-29.7
195.555	-33.79
195.774	50.18
195.993	-1.02
196.212	70.65
196.432	-35.84
196.651	-25.6
196.87	27.65
197.089	-13.31
197.308	9.22
197.528	-7.17
197.747	33.79
197.966	-17.41
198.185	21.5
198.404	-44.03
198.623	-11.26
198.842	19.46
199.062	-50.18
199.281	-21.5
199.5	25.6
199.719	-54.27
199.938	91.13
200.157	11.26
200.376	70.65
200.595	13.31
200.814	-46.08
201.033	-27.65
201.252	91.13
201.471	-19.46
201.69	11.26
201.909	44.03
202.128	29.7
202.347	11.26
202.566	-7.17
202.785	46.08
203.004	-5.12
203.223	27.65
203.442	87.04
203.661	3.07
203.879	44.03
204.098	-31.74
204.317	35.84
204.536	113.66
204.755	5.12
204.974	52.22
205.193	23.55
205.411	70.65
205.63	72.7
205.849	76.8
206.068	62.46
206.287	31.74
206.505	70.65
206.724	-60.42
206.943	35.84
207.162	-9.22
207.381	-15.36
207.599	-27.65
207.818	56.32
208.037	13.31
208.255	13.31
208.474	-35.84
208.693	33.79
208.911	64.51
209.13	84.99
209.349	11.26
209.567	-29.7
209.786	5.12
210.005	-1.02
210.223	7.17
210.442	-37.89
210.661	-1.02
210.879	-3.07
211.098	-5.12
211.316	7.17
211.535	78.85
211.753	-37.89
211.972	11.26
212.191	58.37
212.409	109.57
212.628	48.13
212.846	46.08
213.065	91.13
213.283	78.85
213.502	41.98
213.72	52.22
213.938	-17.41
214.157	13.31
214.375	13.31
214.594	-3.07
214.812	62.46
215.031	97.28
215.249	19.46
215.467	54.27
215.686	-46.08
215.904	54.27
216.122	15.36
216.341	27.65
216.559	-17.41
216.778	46.08
216.996	-11.26
217.214	39.94
217.432	-11.26
217.651	35.84
217.869	29.7
218.087	-23.55
218.306	50.18
218.524	-44.03
218.742	3.07
218.96	25.6
219.179	82.94
219.397	-15.36
219.615	-13.31
219.833	68.61
220.051	-13.31
220.27	29.7
220.488	-37.89
220.706	9.22
220.924	-25.6
221.142	-35.84
221.36	-9.22
221.578	54.27
221.796	-3.07
222.015	39.94
222.233	87.04
222.451	-62.46
222.669	-7.17
222.887	25.6
223.105	1.02
223.323	11.26
223.541	35.84
223.759	19.46
223.977	48.13
224.195	-39.94
224.413	39.94
224.631	41.98
224.849	31.74
225.067	-7.17
225.285	-21.5
225.503	-13.31
225.721	15.36
225.939	-3.07
226.157	-62.46
226.375	52.22
226.592	-35.84
226.81	-7.17
227.028	44.03
227.246	39.94
227.464	-76.8
227.682	62.46
227.9	23.55
228.117	33.79
228.335	-17.41
228.553	23.55
228.771	-39.94
228.989	13.31
229.206	-35.84
229.424	-5.12
229.642	-13.31
229.86	35.84
230.077	56.32
230.295	9.22
230.513	9.22
230.731	37.89
230.948	7.17
231.166	25.6
231.384	-15.36
231.601	-27.65
231.819	-29.7
232.037	35.84
232.254	11.26
232.472	87.04
232.689	-68.61
232.907	-5.12
233.125	44.03
233.342	-13.31
233.56	-17.41
233.777	35.84
233.995	-41.98
234.213	46.08
234.43	19.46
234.648	9.22
234.865	52.22
235.083	23.55
235.3	-50.18
235.518	19.46
235.735	1.02
235.953	-5.12
236.17	3.07
236.388	-37.89
236.605	-78.85
236.822	39.94
237.04	46.08
237.257	-33.79
237.475	62.46
237.692	7.17
237.909	21.5
238.127	-33.79
238.344	-19.46
238.562	31.74
238.779	60.42
238.996	31.74
239.214	54.27
239.431	27.65
239.648	52.22
239.865	62.46
240.083	19.46
240.3	-21.5
240.517	7.17
240.735	39.94
240.952	5.12
241.169	54.27
241.386	-19.46
241.603	-44.03
241.821	-87.04
242.038	21.5
242.255	25.6
242.472	93.18
242.689	35.84
242.907	56.32
243.124	-25.6
243.341	-19.46
243.558	68.61
243.775	19.46
243.992	15.36
244.209	27.65
244.426	84.99
244.643	-3.07
244.86	19.46
245.078	17.41
245.295	3.07
245.512	3.07
245.729	29.7
245.946	5.12
246.163	41.98
246.38	-3.07
246.597	9.22
246.814	15.36
247.031	-37.89
247.248	39.94
247.464	-41.98
247.681	-33.79
247.898	-5.12
248.115	3.07
248.332	97.28
248.549	54.27
248.766	93.18
248.983	15.36
249.2	-13.31
249.417	23.55
249.633	44.03
249.85	-68.61
250.067	21.5
250.284	-3.07
250.501	-1.02
250.717	21.5
250.934	72.7
251.151	-29.7
251.368	54.27
251.585	-27.65
251.801	60.42
252.018	78.85
252.235	37.89
252.451	50.18
252.668	-19.46
252.885	-15.36
253.102	5.12
253.318	37.89
253.535	39.94
253.752	37.89
253.968	-5.12
254.185	-29.7
254.401	-50.18
254.618	23.55
254.835	27.65
255.051	25.6
255.268	31.74
255.484	44.03
255.701	21.5
255.917	11.26
256.134	11.26
256.351	-3.07
256.567	-93.18
256.784	60.42
257	13.31
257.217	56.32
257.433	-3.07
257.65	-7.17
257.866	44.03
258.082	37.89
258.299	-3.07
258.515	76.8
258.732	-5.12
258.948	19.46
259.165	41.98
259.381	-37.89
259.597	-41.98
259.814	25.6
260.03	25.6
260.246	27.65
260.463	31.74
260.679	52.22
260.895	-3.07
261.112	58.37
261.328	44.03
261.544	-27.65
261.761	76.8
261.977	19.46
262.193	15.36
262.409	39.94
262.626	-5.12
262.842	74.75
263.058	-11.26
263.274	-7.17
263.49	33.79
263.707	128
263.923	-5.12
264.139	-19.46
264.355	21.5
264.571	66.56
264.787	13.31
265.004	54.27
265.22	-13.31
265.436	35.84
265.652	-9.22
265.868	-25.6
266.084	-33.79
266.3	17.41
266.516	11.26
266.732	62.46
266.948	23.55
267.164	60.42
267.38	11.26
267.596	33.79
267.812	-5.12
268.028	37.89
268.244	-19.46
268.46	29.7
268.676	7.17
268.892	-68.61
269.108	15.36
269.324	-37.89
269.54	-27.65
269.756	7.17
269.972	27.65
270.188	44.03
270.403	58.37
270.619	-35.84
270.835	84.99
271.051	25.6
271.267	33.79
271.483	46.08
271.698	3.07
271.914	27.65
272.13	-21.5
272.346	15.36
272.562	35.84
272.777	5.12
272.993	-7.17
273.209	3.07
273.425	68.61
273.64	-46.08
273.856	23.55
274.072	37.89
274.287	-3.07
274.503	15.36
274.719	9.22
274.934	48.13
275.15	-31.74
275.366	-3.07
275.581	7.17
275.797	44.03
276.012	35.84
276.228	35.84
276.444	39.94
276.659	3.07
276.875	9.22
277.09	7.17
277.306	5.12
277.521	41.98
277.737	52.22
277.952	52.22
278.168	-46.08
278.383	-17.41
278.599	-58.37
278.814	7.17
279.03	23.55
279.245	60.42
279.461	52.22
279.676	52.22
279.892	-37.89
280.107	1.02
280.322	39.94
280.538	29.7
280.753	-13.31
280.969	-62.46
281.184	19.46
281.399	21.5
281.615	62.46
281.83	3.07
282.045	74.75
282.26	11.26
282.476	-29.7
282.691	-29.7
282.906	39.94
283.122	5.12
283.337	-33.79
283.552	7.17
283.767	11.26
283.983	64.51
284.198	82.94
284.413	72.7
284.628	27.65
284.843	78.85
285.058	3.07
285.274	3.07
285.489	35.84
285.704	-3.07
285.919	54.27
286.134	52.22
286.349	-99.33
286.564	-25.6
286.779	19.46
286.995	-25.6
287.21	-50.18
287.425	46.08
287.64	68.61
287.855	46.08
288.07	56.32
288.285	21.5
288.5	9.22
288.715	74.75
288.93	19.46
289.145	-13.31
289.36	52.22
289.575	19.46
289.79	5.12
290.004	50.18
290.219	7.17
290.434	48.13
290.649	21.5
290.864	50.18
291.079	7.17
291.294	-13.31
291.509	54.27
291.724	25.6
291.938	-5.12
292.153	68.61
292.368	17.41
292.583	62.46
292.798	41.98
293.012	27.65
293.227	-46.08
293.442	-21.5
293.657	46.08
293.871	39.94
294.086	-1.02
294.301	11.26
294.516	87.04
294.73	9.22
294.945	87.04
295.16	-23.55
295.374	41.98
295.589	-13.31
295.804	-11.26
296.018	23.55
296.233	-46.08
296.447	11.26
296.662	11.26
296.877	56.32
297.091	-46.08
297.306	7.17
297.52	-44.03
297.735	21.5
297.949	44.03
298.164	3.07
298.378	11.26
298.593	23.55
298.807	64.51
299.022	15.36
299.236	-11.26
299.451	13.31
299.665	-5.12
299.88	-21.5
300.094	3.07
300.309	5.12
300.523	58.37
300.737	-3.07
300.952	13.31
301.166	25.6
301.381	-44.03
301.595	-7.17
301.809	5.12
302.024	-7.17
302.238	52.22
302.452	-21.5
302.667	-19.46
302.881	-3.07
303.095	60.42
303.309	39.94
303.524	39.94
303.738	31.74
303.952	13.31
304.166	21.5
304.381	15.36
304.595	68.61
304.809	35.84
305.023	113.66
305.237	-37.89
305.452	-25.6
305.666	-15.36
305.88	27.65
306.094	37.89
306.308	29.7
306.522	-1.02
306.736	13.31
306.95	19.46
307.164	7.17
307.379	64.51
307.593	60.42
307.807	41.98
308.021	70.65
308.235	35.84
308.449	-56.32
308.663	23.55
308.877	44.03
309.091	-41.98
309.305	7.17
309.519	-7.17
309.733	21.5
309.947	5.12
310.161	27.65
310.374	52.22
310.588	1.02
310.802	1.02
311.016	-3.07
311.23	25.6
311.444	-52.22
311.658	-29.7
311.872	48.13
312.085	60.42
312.299	11.26
312.513	54.27
312.727	35.84
312.941	66.56
313.154	-9.22
313.368	11.26
313.582	-13.31
313.796	-25.6
314.009	15.36
314.223	21.5
314.437	-68.61
314.651	-1.02
314.864	35.84
315.078	60.42
315.292	-13.31
315.505	-37.89
315.719	31.74
315.933	-70.65
316.146	-35.84
316.36	-5.12
316.573	56.32
316.787	76.8
317.001	29.7
317.214	23.55
317.428	37.89
317.641	76.8
317.855	-1.02
318.068	-37.89
318.282	39.94
318.495	25.6
318.709	44.03
318.922	39.94
319.136	27.65
319.349	-15.36
319.563	-64.51
319.776	11.26
319.99	41.98
320.203	13.31
320.417	13.31
320.63	-13.31
320.843	27.65
321.057	76.8
321.27	21.5
321.483	17.41
321.697	39.94
321.91	17.41
322.124	60.42
322.337	11.26
322.55	52.22
322.763	82.94
322.977	78.85
323.19	-21.5
323.403	-11.26
323.617	56.32
323.83	3.07
324.043	-17.41
324.256	50.18
324.469	29.7
324.683	41.98
324.896	31.74
325.109	-9.22
325.322	33.79
325.535	44.03
325.748	44.03
325.962	21.5
326.175	-3.07
326.388	50.18
326.601	35.84
326.814	-46.08
327.027	44.03
327.24	44.03
327.453	-44.03
327.666	46.08
327.879	-15.36
328.092	-1.02
328.305	-21.5
328.518	84.99
328.731	44.03
328.944	17.41
329.157	68.61
329.37	1.02
329.583	52.22
329.796	72.7
330.009	17.41
330.222	17.41
330.435	66.56
330.648	-1.02
330.861	44.03
331.073	7.17
331.286	37.89
331.499	76.8
331.712	-11.26
331.925	27.65
332.138	64.51
332.35	-31.74
332.563	-27.65
332.776	25.6
332.989	11.26
333.202	25.6
333.414	52.22
333.627	11.26
333.84	1.02
334.053	-11.26
334.265	33.79
334.478	19.46
334.691	23.55
334.903	46.08
335.116	46.08
335.329	11.26
335.541	-15.36
335.754	27.65
335.966	15.36
336.179	35.84
336.392	-37.89
336.604	-3.07
336.817	21.5
337.029	7.17
337.242	29.7
337.454	19.46
337.667	13.31
337.88	-31.74
338.092	64.51
338.305	21.5
338.517	-31.74
338.729	105.47
338.942	95.23
339.154	25.6
339.367	-21.5
339.579	35.84
339.792	105.47
340.004	-27.65
340.217	58.37
340.429	17.41
340.641	-17.41
340.854	27.65
341.066	3.07
341.278	76.8
341.491	82.94
341.703	7.17
341.915	-29.7
342.128	17.41
342.34	9.22
342.552	35.84
342.764	-21.5
342.977	-15.36
343.189	3.07
343.401	41.98
343.613	41.98
343.826	37.89
344.038	23.55
344.25	27.65
344.462	19.46
344.674	64.51
344.886	11.26
345.099	58.37
345.311	44.03
345.523	5.12
345.735	19.46
345.947	-21.5
346.159	9.22
346.371	13.31
346.583	-15.36
346.795	60.42
347.007	-54.27
347.219	72.7
347.431	-15.36
347.643	84.99
347.855	-41.98
348.067	13.31
348.279	-9.22
348.491	130.05
348.703	-82.94
348.915	-19.46
349.127	-37.89
349.339	52.22
349.551	39.94
349.763	-5.12
349.975	11.26
350.187	-41.98
350.399	97.28
350.61	-9.22
350.822	64.51
351.034	11.26
351.246	25.6
351.458	74.75
351.669	60.42
351.881	27.65
352.093	52.22
352.305	60.42
352.517	-19.46
352.728	7.17
352.94	-33.79
353.152	37.89
353.363	54.27
353.575	99.33
353.787	37.89
353.999	3.07
354.21	-29.7
354.422	17.41
354.633	-19.46
354.845	48.13
355.057	3.07
355.268	-23.55
355.48	-48.13
355.692	76.8
355.903	-11.26
356.115	39.94
356.326	13.31
356.538	54.27
356.749	7.17
356.961	68.61
357.172	78.85
357.384	-13.31
357.595	54.27
357.807	41.98
358.018	68.61
358.23	56.32
358.441	33.79
358.653	21.5
358.864	9.22
359.075	91.13
359.287	91.13
359.498	-44.03
359.709	11.26
359.921	19.46
360.132	52.22
360.344	5.12
360.555	39.94
360.766	-68.61
360.977	62.46
361.189	15.36
361.4	76.8
361.611	39.94
361.823	19.46
362.034	-3.07
362.245	21.5
362.456	29.7
362.667	35.84
362.879	27.65
363.09	-1.02
363.301	44.03
363.512	11.26
363.723	-5.12
363.935	11.26
364.146	70.65
364.357	44.03
364.568	21.5
364.779	11.26
364.99	11.26
365.201	3.07
365.412	23.55
365.623	-72.7
365.834	25.6
366.045	13.31
366.256	-46.08
366.467	-31.74
366.678	46.08
366.889	27.65
367.1	62.46
367.311	91.13
367.522	50.18
367.733	58.37
367.944	-31.74
368.155	5.12
368.366	-27.65
368.577	-21.5
368.788	117.76
368.999	19.46
369.209	37.89
369.42	-17.41
369.631	1.02
369.842	25.6
370.053	27.65
370.264	99.33
370.474	11.26
370.685	11.26
370.896	11.26
371.107	-3.07
371.317	29.7
371.528	72.7
371.739	3.07
371.95	11.26
372.16	62.46
372.371	44.03
372.582	-19.46
372.792	87.04
373.003	54.27
373.214	33.79
373.424	39.94
373.635	11.26
373.846	117.76
374.056	62.46
374.267	37.89
374.477	54.27
374.688	1.02
374.898	52.22
375.109	35.84
375.319	-25.6
375.53	-11.26
375.74	25.6
375.951	11.26
376.161	15.36
376.372	39.94
376.582	-25.6
376.793	11.26
377.003	-1.02
377.214	44.03
377.424	-15.36
377.635	3.07
377.845	39.94
378.055	44.03
378.266	27.65
378.476	35.84
378.686	39.94
378.897	60.42
379.107	19.46
379.317	19.46
379.528	35.84
379.738	68.61
379.948	31.74
380.158	23.55
380.369	-11.26
380.579	29.7
380.789	3.07
380.999	21.5
381.21	-74.75
381.42	27.65
381.63	3.07
381.84	21.5
382.05	56.32
382.261	27.65
382.471	41.98
382.681	52.22
382.891	74.75
383.101	44.03
383.311	-58.37
383.521	31.74
383.731	68.61
383.941	60.42
384.151	11.26
384.361	15.36
384.571	13.31
384.781	-27.65
384.991	27.65
385.201	31.74
385.411	54.27
385.621	29.7
385.831	19.46
386.041	111.61
386.251	-29.7
386.461	15.36
386.671	70.65
386.881	35.84
387.091	-3.07
387.301	21.5
387.511	-5.12
387.72	19.46
387.93	56.32
388.14	-25.6
388.35	64.51
388.56	60.42
388.769	15.36
388.979	35.84
389.189	25.6
389.399	37.89
389.609	15.36
389.818	58.37
390.028	7.17
390.238	-19.46
390.447	31.74
390.657	13.31
390.867	-46.08
391.076	23.55
391.286	-52.22
391.496	-13.31
391.705	13.31
391.915	46.08
392.125	48.13
392.334	46.08
392.544	123.9
392.753	7.17
392.963	-17.41
393.172	23.55
393.382	9.22
393.591	25.6
393.801	37.89
394.01	41.98
394.22	-3.07
394.429	37.89
394.639	11.26
394.848	56.32
395.058	-41.98
395.267	-1.02
395.477	-11.26
395.686	70.65
395.895	99.33
396.105	72.7
396.314	29.7
396.524	19.46
396.733	46.08
396.942	31.74
397.152	101.37
397.361	11.26
397.57	160.77
397.78	144.38
397.989	31.74
398.198	33.79
398.407	68.61
398.617	72.7
398.826	-5.12
399.035	50.18
399.244	31.74
399.453	41.98
399.663	44.03
399.872	11.26
400.081	1.02
400.29	27.65
400.499	25.6
400.708	54.27
400.917	-39.94
401.127	-29.7
401.336	113.66
401.545	103.42
401.754	66.56
401.963	70.65
402.172	76.8
402.381	76.8
402.59	-19.46
402.799	62.46
403.008	64.51
403.217	195.58
403.426	64.51
403.635	119.81
403.844	70.65
404.053	56.32
404.262	91.13
404.471	123.9
404.68	41.98
404.888	97.28
405.097	119.81
405.306	121.85
405.515	68.61
405.724	97.28
405.933	91.13
406.142	136.19
406.35	87.04
406.559	84.99
406.768	9.22
406.977	103.42
407.185	117.76
407.394	93.18
407.603	13.31
407.812	97.28
408.02	87.04
408.229	160.77
408.438	97.28
408.646	111.61
408.855	76.8
409.064	41.98
409.272	113.66
409.481	146.43
409.69	132.09
409.898	93.18
410.107	130.05
410.315	107.52
410.524	146.43
410.733	207.87
410.941	128
411.15	209.92
411.358	105.47
411.567	197.63
411.775	195.58
411.984	91.13
412.192	134.14
412.401	181.25
412.609	216.06
412.818	242.68
413.026	224.25
413.234	334.84
413.443	287.74
413.651	269.31
413.86	236.54
414.068	297.98
414.276	232.44
414.485	275.45
414.693	281.6
414.901	367.61
415.11	375.8
415.318	308.22
415.526	277.5
415.734	314.36
415.943	359.42
416.151	412.67
416.359	316.41
416.567	390.14
416.776	381.95
416.984	478.2
417.192	474.1
417.4	328.7
417.608	390.14
417.817	541.69
418.025	472.06
418.233	461.82
418.441	535.54
418.649	510.97
418.857	535.54
419.065	429.05
419.273	625.65
419.481	570.36
419.689	560.12
419.897	674.81
420.105	691.19
420.313	734.2
420.521	623.61
420.729	707.57
420.937	697.33
421.145	814.07
421.353	781.3
421.561	830.45
421.769	859.12
421.977	924.66
422.185	828.4
422.393	959.47
422.601	988.14
422.809	1106.93
423.017	941.04
423.224	1037.3
423.432	961.52
423.64	1027.06
423.848	1188.85
424.056	1217.52
424.263	1240.05
424.471	1262.57
424.679	1262.57
424.887	1305.58
425.094	1358.83
425.302	1485.8
425.51	1438.7
425.718	1379.31
425.925	1577.96
426.133	1565.67
426.341	1528.81
426.548	1713.13
426.756	1637.35
426.964	1717.22
427.171	1749.99
427.379	1797.09
427.586	1913.83
427.794	1870.82
428.001	1944.55
428.209	2102.24
428.417	1979.36
428.624	2210.78
428.832	2241.5
429.039	2212.83
429.247	2210.78
429.454	2419.68
429.662	2550.75
429.869	2546.65
430.076	2595.8
430.284	2567.13
430.491	2649.05
430.699	2819.03
430.906	2753.49
431.114	2864.08
431.321	3003.35
431.528	2905.04
431.736	3199.95
431.943	3298.25
432.15	3175.38
432.358	3187.66
432.565	3328.97
432.772	3320.78
432.979	3632.07
433.187	3720.14
433.394	3599.31
433.601	3783.62
433.808	3986.37
434.016	3914.69
434.223	4127.68
434.43	4299.71
434.637	4295.61
434.844	4377.53
435.052	4436.92
435.259	4438.97
435.466	4565.95
435.673	4484.03
435.88	4871.09
436.087	5073.84
436.294	5008.31
436.501	4887.48
436.708	5059.51
436.915	5274.54
437.122	5481.39
437.329	5352.37
437.537	5790.63
437.743	5614.51
437.95	5628.84
438.157	6005.67
438.364	6130.59
438.571	6067.11
438.778	6269.86
438.985	6722.46
439.192	6484.89
439.399	6654.87
439.606	6579.1
439.813	6824.86
440.02	7216.02
440.227	7101.33
440.433	7003.03
440.64	7373.71
440.847	7246.74
441.054	7525.26
441.261	8096.64
441.467	7934.85
441.674	8014.73
441.881	8303.49
442.088	8326.02
442.294	8192.9
442.501	8287.11
442.708	8493.95
442.914	8973.18
443.121	9243.51
443.328	8813.43
443.534	9806.7
443.741	9550.7
443.948	9229.17
444.154	9968.49
444.361	9966.44
444.568	10074.98
444.774	10048.36
444.981	10113.89
445.187	10376.03
445.394	10847.07
445.6	10543.97
445.807	11782.99
446.013	11223.89
446.22	11311.96
446.426	11811.66
446.633	11897.67
446.839	12464.96
447.046	12004.17
447.252	12553.02
447.459	12432.19
447.665	12643.14
447.871	12915.51
448.078	13454.13
448.284	12809.02
448.491	13081.4
448.697	13634.35
448.903	14041.9
449.11	14056.23
449.316	13765.42
449.522	14310.18
449.728	14619.42
449.935	14650.14
450.141	14670.62
450.347	14809.89
450.553	14263.08
450.76	14615.33
450.966	15344.41
451.172	14926.62
451.378	15256.34
451.584	14846.75
451.791	15338.26
451.997	15059.74
452.203	15510.29
452.409	15522.58
452.615	15303.45
452.821	14994.2
453.027	15035.16
453.233	15553.3
453.44	14803.74
453.646	14818.08
453.852	15043.35
454.058	15199
454.264	14856.99
454.47	14900
454.676	14703.39
454.882	15420.18
455.088	14170.92
455.294	14197.54
455.5	14406.44
455.705	14455.59
455.911	13796.14
456.117	13775.66
456.323	13574.96
456.529	12942.14
456.735	13411.12
456.941	12981.05
457.147	12741.44
457.352	12426.05
457.558	12292.93
457.764	12573.5
457.97	12327.75
458.176	11778.89
458.381	11676.49
458.587	11344.72
458.793	11389.78
458.999	10658.65
459.204	11324.24
459.41	11174.74
459.616	10386.27
459.821	10265.44
460.027	10228.58
460.233	9988.97
460.438	9536.37
460.644	9665.39
460.85	9270.13
461.055	9309.04
461.261	9263.99
461.466	8485.76
461.672	8260.48
461.878	8835.96
462.083	8145.8
462.289	8074.12
462.494	8074.12
462.7	7670.67
462.905	7429.01
463.111	7605.13
463.316	7748.49
463.522	7578.51
463.727	7648.14
463.932	7664.52
464.138	7572.36
464.343	7607.18
464.549	7443.34
464.754	7660.43
464.959	7406.48
465.165	7359.38
465.37	7199.63
465.575	7115.67
465.781	7357.33
465.986	7252.88
466.191	7039.89
466.397	6851.48
466.602	6638.49
466.807	6949.78
467.012	6804.38
467.218	6812.57
467.423	6648.73
467.628	6652.83
467.833	7003.03
468.038	6783.9
468.244	6568.86
468.449	6798.23
468.654	6763.42
468.859	6495.13
469.064	6417.31
469.269	6253.47
469.474	6329.25
469.679	6329.25
469.885	6124.45
470.09	6306.72
470.295	6224.8
470.5	6093.73
470.705	6192.03
470.91	5921.7
471.115	6054.82
471.32	5868.45
471.525	5909.41
471.73	5962.66
471.935	5829.54
472.139	5643.18
472.344	5862.31
472.549	5641.13
472.754	5614.51
472.959	5563.31
473.164	5430.19
473.369	5417.9
473.574	5508.01
473.778	5385.13
473.983	5290.93
474.188	5305.26
474.393	5157.81
474.598	5108.66
474.802	5041.08
475.007	5090.23
475.212	5225.39
475.417	4973.49
475.621	4987.83
475.826	4936.63
476.031	4737.98
476.235	4836.28
476.44	4823.99
476.645	4844.47
476.849	4850.61
477.054	4664.25
477.259	4494.27
477.463	4557.75
477.668	4557.75
477.872	4524.99
478.077	4584.38
478.282	4268.99
478.486	4428.73
478.691	4412.35
478.895	4412.35
479.1	4336.57
479.304	4176.83
479.509	4232.13
479.713	4129.73
479.918	4287.42
480.122	4156.35
480.326	4156.35
480.531	4258.75
480.735	4139.97
480.94	4113.35
481.144	4158.4
481.348	4068.29
481.553	3996.61
481.757	3881.92
481.961	3974.08
482.166	4117.44
482.37	4000.71
482.574	3822.53
482.778	3922.88
482.983	4160.45
483.187	3988.42
483.391	4076.48
483.595	4045.76
483.8	3926.98
484.004	4049.86
484.208	3910.6
484.412	3959.75
484.616	3947.46
484.821	4072.39
485.025	4008.9
485.229	4053.95
485.433	3840.97
485.637	4109.25
485.841	3924.93
486.045	3845.06
486.249	4002.75
486.453	4035.52
486.657	4135.87
486.861	4039.62
487.065	4006.85
487.269	3980.23
487.473	3875.78
487.677	4070.34
487.881	3988.42
488.085	4111.3
488.289	3980.23
488.493	3990.47
488.697	4023.23
488.901	4076.48
489.105	3992.52
489.309	3976.13
489.512	4023.23
489.716	4023.23
489.92	4074.43
490.124	4066.24
490.328	4123.59
490.531	4021.19
490.735	4174.78
490.939	4266.94
491.143	4074.43
491.346	3990.47
491.55	4072.39
491.754	4236.22
491.958	4127.68
492.161	4211.65
492.365	4221.89
492.569	4228.03
492.772	4320.19
492.976	4187.07
493.18	4395.96
493.383	4481.98
493.587	4328.38
493.79	4363.2
493.994	4352.96
494.197	4467.64
494.401	4463.55
494.605	4563.9
494.808	4602.81
495.012	4572.09
495.215	4615.1
495.419	4662.2
495.622	4592.57
495.825	4791.22
496.029	4625.34
496.232	4713.4
496.436	4795.32
496.639	4856.76
496.843	5049.27
497.046	5026.74
497.249	4996.02
497.453	5120.95
497.656	5196.72
497.859	5190.58
498.063	5215.15
498.266	5295.02
498.469	5356.46
498.673	5477.29
498.876	5573.55
499.079	5483.44
499.282	5534.64
499.485	5677.99
499.689	5518.25
499.892	5819.3
500.095	5862.31
500.298	6013.86
500.501	5913.51
500.705	6071.2
500.908	6185.89
501.111	6153.12
501.314	6230.94
501.517	6319.01
501.72	6529.95
501.923	6458.27
502.126	6597.53
502.329	6880.15
502.532	6777.75
502.735	6704.03
502.938	6878.1
503.141	6957.97
503.344	7084.95
503.547	7189.39
503.75	7277.46
503.953	7336.85
504.156	7394.19
504.359	7457.68
504.562	7461.77
504.765	7785.35
504.968	7685
505.17	7783.31
505.373	7871.37
505.576	8272.77
505.779	8070.02
505.982	8188.8
506.185	8510.33
506.387	8530.81
506.59	8514.43
506.793	8682.36
506.996	8907.64
507.198	9229.17
507.401	8944.5
507.604	9272.18
507.807	9425.78
508.009	9329.52
508.212	9425.78
508.415	9610.09
508.617	9747.31
508.82	9720.68
509.022	9876.33
509.225	10081.13
509.428	10265.44
509.63	10261.35
509.833	10433.38
510.035	10566.49
510.238	10795.87
510.44	10795.87
510.643	10767.2
510.845	11125.59
511.048	11205.46
511.25	11254.61
511.453	11322.2
511.655	11869
511.858	11633.49
512.06	11864.91
512.262	11920.2
512.465	11862.86
512.667	12299.08
512.87	12561.22
513.072	12643.14
513.274	12610.37
513.477	13085.5
513.679	13044.54
513.881	13251.38
514.084	13331.25
514.286	13249.33
514.488	13515.57
514.69	14156.58
514.893	14193.45
515.095	14050.09
515.297	14545.7
515.499	14502.69
515.701	14693.15
515.904	14676.77
516.106	14912.28
516.308	15112.99
516.51	15299.35
516.712	15182.62
516.914	15739.66
517.116	15813.39
517.318	15786.77
517.52	16120.59
517.722	16106.25
517.925	16376.58
518.127	16913.15
518.329	16913.15
518.531	16876.29
518.733	17310.46
518.935	17351.42
519.136	17654.51
519.338	17699.57
519.54	18094.83
519.742	18354.92
519.944	18397.93
520.146	18549.48
520.348	18805.47
520.55	18682.59
520.752	18922.21
520.954	19274.46
521.155	19188.44
521.357	19632.85
521.559	19770.07
521.761	20101.84
521.963	20126.41
522.164	20531.91
522.366	20232.91
522.568	20437.7
522.77	20601.54
522.971	20822.72
523.173	20794.05
523.375	21314.23
523.576	21439.16
523.778	21447.35
523.98	21623.48
524.181	21844.66
524.383	21619.38
524.584	22192.81
524.786	22321.84
524.988	22180.53
525.189	22471.34
525.391	22477.48
525.592	22719.14
525.794	22868.64
525.995	23259.81
526.197	23136.93
526.398	23235.23
526.6	23235.23
526.801	23632.54
527.003	23810.71
527.204	23837.33
527.406	23999.12
527.607	24003.22
527.808	24193.68
528.01	23462.55
528.211	24001.17
528.412	24595.08
528.614	24412.81
528.815	24601.22
529.016	24564.36
529.218	24294.03
529.419	24844.93
529.62	24783.49
529.822	24990.34
530.023	24844.93
530.224	24681.1
530.425	24869.51
530.626	25186.94
530.828	24767.11
531.029	25444.99
531.23	24990.34
531.431	25459.32
531.632	25209.47
531.833	25436.8
532.035	25481.85
532.236	25580.15
532.437	25655.93
532.638	25598.59
532.839	25643.64
533.04	25717.37
533.241	25664.12
533.442	26290.8
533.643	25682.55
533.844	25727.61
534.045	25832.05
534.246	25698.94
534.447	25973.36
534.648	25793.14
534.849	25729.66
535.05	26030.71
535.251	26116.72
535.451	25545.34
535.652	26006.13
535.853	26042.99
536.054	25877.11
536.255	26030.71
536.456	25653.88
536.657	26255.98
536.857	25670.26
537.058	26022.51
537.259	26614.38
537.46	25932.4
537.66	26067.57
537.861	26337.9
538.062	25987.7
538.263	26448.49
538.463	25907.83
538.664	26059.38
538.865	26253.94
539.065	26176.11
539.266	25889.4
539.466	26282.61
539.667	25737.85
539.868	26401.39
540.068	26073.71
540.269	26262.13
540.469	26006.13
540.67	25956.98
540.87	26096.24
541.071	25737.85
541.271	25983.6
541.472	26311.28
541.672	25856.63
541.873	26147.44
542.073	25770.61
542.274	26301.04
542.474	26108.53
542.675	25930.36
542.875	26303.09
543.075	26313.33
543.276	25694.84
543.476	26169.97
543.676	25864.82
543.877	26077.81
544.077	26210.93
544.277	26131.06
544.478	25907.83
544.678	26434.16
544.878	25995.89
545.078	26124.91
545.279	25852.53
545.479	26186.35
545.679	26280.56
545.879	26004.08
546.079	26206.83
546.28	26024.56
546.48	25596.54
546.68	26104.43
546.88	25752.18
547.08	25989.75
547.28	25862.77
547.48	25590.39
547.68	26352.24
547.88	25756.28
548.081	26288.75
548.281	26290.8
548.481	25938.55
548.681	26258.03
548.881	26133.11
549.081	26315.37
549.28	25979.51
549.48	26190.45
549.68	26143.35
549.88	26434.16
550.08	26071.67
550.28	26145.39
550.48	26233.46
550.68	26464.88
550.88	26290.8
551.08	26264.18
551.279	26342
551.479	26057.33
551.679	25905.78
551.879	26065.52
552.079	26176.11
552.278	25909.88
552.478	26059.38
552.678	26133.11
552.878	26096.24
553.077	25977.46
553.277	25752.18
553.477	25801.33
553.676	25770.61
553.876	26143.35
554.076	25956.98
554.275	25883.25
554.475	25614.97
554.674	25598.59
554.874	25731.7
555.074	25449.08
555.273	25832.05
555.473	25723.51
555.672	25459.32
555.872	25739.9
556.071	25520.76
556.271	25559.67
556.47	25438.84
556.67	25272.96
556.869	25414.27
557.068	25391.74
557.268	25209.47
557.467	25488
557.667	25248.38
557.866	25385.6
558.065	25111.17
558.265	25021.06
558.464	25295.49
558.663	25336.45
558.863	24980.1
559.062	25277.05
559.261	25307.77
559.461	25045.63
559.66	24935.04
559.859	24930.95
560.058	24590.98
560.258	25115.26
560.457	24615.56
560.656	24728.2
560.855	24652.42
561.054	24824.45
561.253	24547.98
561.453	24713.86
561.652	24572.55
561.851	24554.12
562.05	24769.16
562.249	24408.72
562.448	24566.41
562.647	24535.69
562.846	24435.34
563.045	24586.89
563.244	24056.46
563.443	24554.12
563.642	24054.42
563.841	24269.45
564.04	23761.56
564.239	24173.2
564.438	23859.86
564.637	24003.22
564.836	24066.7
565.035	23982.74
565.234	23808.66
565.432	23825.04
565.631	23919.25
565.83	23792.28
566.029	23595.67
566.228	23698.07
566.427	23339.68
566.625	23206.56
566.824	23243.42
567.023	23374.49
567.222	23034.53
567.42	23478.94
567.619	23229.09
567.818	23102.11
568.016	23143.07
568.215	23390.88
568.414	23042.72
568.612	23214.75
568.811	22581.93
569.01	22905.51
569.208	22428.33
569.407	22903.46
569.605	22377.13
569.804	22639.27
570.002	22196.91
570.201	22534.82
570.4	22227.63
570.598	22282.92
570.797	21902
570.995	22155.95
571.193	21934.77
571.392	22268.59
571.59	21529.27
571.789	21990.06
571.987	21625.53
572.186	21654.2
572.384	21705.4
572.582	21742.26
572.781	21564.09
572.979	21506.74
573.177	21220.03
573.376	21584.57
573.574	21267.13
573.772	21076.67
573.971	20994.75
574.169	20749
574.367	20722.37
574.565	21099.2
574.763	20701.89
574.962	20859.59
575.16	20435.66
575.358	20777.67
575.556	20284.11
575.754	20472.52
575.952	20234.96
576.151	20445.9
576.349	19923.66
576.547	20163.28
576.745	20009.68
576.943	20515.53
577.141	20216.52
577.339	20280.01
577.537	19866.32
577.735	19974.86
577.933	19827.41
578.131	19628.76
578.329	19518.17
578.527	19606.23
578.725	19671.76
578.923	19454.68
579.121	19251.93
579.319	19546.84
579.516	19548.89
579.714	19040.99
579.912	19280.6
580.11	18930.4
580.308	19040.99
580.506	19112.67
580.704	18641.64
580.901	18875.1
581.099	18758.37
581.297	18557.67
581.495	18731.75
581.692	18823.9
581.89	18453.22
582.088	18514.66
582.285	18266.86
582.483	18359.02
582.681	18361.06
582.878	18209.51
583.076	18158.31
583.274	18328.3
583.471	18105.07
583.669	18250.47
583.866	18045.68
584.064	18256.62
584.262	17595.12
584.459	17865.46
584.657	17619.7
584.854	18111.21
585.052	17396.47
585.249	17668.85
585.447	17566.45
585.644	17505.01
585.841	17478.39
586.039	17541.88
586.236	17251.06
586.434	17292.02
586.631	17060.6
586.828	17263.35
587.026	17443.57
587.223	17103.61
587.42	16892.67
587.618	17054.46
587.815	16675.59
588.012	16907.01
588.21	16915.2
588.407	16722.69
588.604	16771.84
588.801	16575.24
588.999	16427.78
589.196	16589.57
589.393	16687.87
589.59	16362.25
589.787	16337.67
589.984	16380.68
590.182	16274.18
590.379	16364.29
590.576	16380.68
590.773	16024.33
590.97	16118.54
591.167	16265.99
591.364	15897.36
591.561	16177.93
591.758	15788.82
591.955	15944.46
592.152	15592.21
592.349	15639.31
592.546	15829.77
592.743	15797.01
592.94	15518.48
593.137	15627.03
593.334	15821.58
593.531	15469.33
593.727	15573.78
593.924	15682.32
594.121	15395.61
594.318	15196.95
594.515	15061.79
594.712	15385.37
594.908	15215.38
595.105	15268.63
595.302	15063.83
595.499	15252.25
595.696	14887.71
595.892	14709.54
596.089	14996.25
596.286	15026.97
596.482	14877.47
596.679	14846.75
596.876	14730.02
597.072	14859.04
597.269	14762.78
597.466	14637.86
597.662	14682.91
597.859	14469.92
598.055	14576.42
598.252	14428.96
598.448	14418.72
598.645	14486.31
598.841	14132.01
599.038	14361.38
599.234	14478.12
599.431	14209.83
599.627	13968.17
599.824	14218.02
600.02	14054.19
600.217	14025.51
600.413	14218.02
600.609	13695.79
600.806	13900.59
601.002	13912.88
601.198	13978.41
601.395	13804.33
601.591	13781.81
601.787	13880.11
601.984	13806.38
602.18	13577.01
602.376	13351.73
602.572	13370.16
602.769	13415.22
602.965	13038.39
603.161	13482.8
603.357	13171.51
603.553	13038.39
603.75	13267.77
603.946	13198.13
604.142	13171.51
604.338	12872.51
604.534	12954.43
604.73	12663.61
604.926	12962.62
605.122	12716.86
605.318	12782.4
605.514	12643.14
605.71	12598.08
605.906	12917.56
606.102	12743.49
606.298	12772.16
606.494	12534.59
606.69	12688.19
606.886	12491.59
607.082	12323.65
607.278	12528.45
607.474	12122.95
607.67	12401.47
607.866	12112.71
608.062	12393.28
608.257	11989.83
608.453	12309.32
608.649	12264.26
608.845	12034.89
609.041	11942.73
609.236	12081.99
609.432	11885.39
609.628	11856.72
609.824	11871.05
610.019	11823.95
610.215	11768.65
610.411	11912.01
610.606	11666.25
610.802	11809.61
610.998	11725.65
611.193	11600.72
611.389	11598.67
611.584	11613.01
611.78	11613.01
611.976	11436.88
612.171	11641.68
612.367	11336.53
612.562	11635.53
612.758	11402.07
612.953	11238.23
613.149	11490.13
613.344	11006.81
613.539	11318.1
613.735	11090.77
613.93	10908.51
614.126	11121.49
614.321	11152.21
614.517	11125.59
614.712	11144.02
614.907	10982.23
615.103	11021.14
615.298	10914.65
615.493	11053.91
615.688	10728.28
615.884	11055.96
616.079	10963.8
616.274	10898.27
616.47	10773.34
616.665	10763.1
616.86	10613.6
617.055	10756.96
617.25	10636.13
617.445	10613.6
617.641	10416.99
617.836	10515.3
618.031	10445.66
618.226	10523.49
618.421	10376.03
618.616	10468.19
618.811	10206.05
619.006	10373.99
619.201	10111.85
619.396	10228.58
619.591	9962.34
619.786	10120.04
619.981	9970.54
620.176	10066.79
620.371	10013.54
620.566	10023.78
620.761	9651.05
620.956	9964.39
621.151	9802.6
621.346	9739.12
621.541	9626.48
621.735	9775.98
621.93	9458.54
622.125	9321.33
622.32	9433.97
622.515	9421.68
622.709	9278.32
622.904	9259.89
623.099	9235.32
623.294	9186.16
623.488	9239.41
623.683	9304.95
623.878	9100.15
624.072	9114.48
624.267	9108.34
624.462	8956.79
624.656	8924.02
624.851	8856.44
625.046	8713.08
625.24	8870.78
625.435	8573.82
625.629	8444.8
625.824	8790.91
626.018	8655.74
626.213	8344.45
626.407	8391.55
626.602	8328.06
626.796	8477.57
626.991	8412.03
627.185	8342.4
627.38	8250.24
627.574	8127.36
627.768	8215.43
627.963	7996.29
628.157	8153.99
628.352	8031.11
628.546	8158.08
628.74	8022.92
628.935	8047.49
629.129	7799.69
629.323	7736.2
629.517	7590.8
629.712	7826.31
629.906	7687.05
630.1	7576.46
630.294	7437.2
630.489	7590.8
630.683	7351.18
630.877	7336.85
631.071	7359.38
631.265	7416.72
631.459	7527.31
631.653	7299.98
631.848	7222.16
632.042	7201.68
632.236	7353.23
632.43	7199.63
632.624	7134.1
632.818	7089.04
633.012	7154.58
633.206	6882.2
633.4	6972.31
633.594	7013.27
633.788	6943.64
633.982	6914.97
634.176	6798.23
634.369	6790.04
634.563	6831
634.757	6800.28
634.951	6634.39
635.145	6726.55
635.339	6714.27
635.533	6544.28
635.726	6417.31
635.92	6460.32
636.114	6564.76
636.308	6560.67
636.501	6458.27
636.695	6405.02
636.889	6187.94
637.083	6380.45
637.276	6321.06
637.47	6302.62
637.664	6093.73
637.857	6075.3
638.051	6198.18
638.244	5960.61
638.438	6140.83
638.632	6118.31
638.825	5940.13
639.019	5999.52
639.212	5809.06
639.406	5913.51
639.599	5890.98
639.793	5868.45
639.986	5702.57
640.18	5653.42
640.373	5667.75
640.567	5731.24
640.76	5553.07
640.954	5653.42
641.147	5706.66
641.34	5581.74
641.534	5680.04
641.727	5526.44
641.92	5622.7
642.114	5446.57
642.307	5295.02
642.5	5329.84
642.694	5288.88
642.887	5342.13
643.08	5299.12
643.273	5344.17
643.467	5243.82
643.66	5223.34
643.853	5276.59
644.046	5088.18
644.239	4987.83
644.432	4905.91
644.626	5016.5
644.819	4907.96
645.012	4793.27
645.205	4793.27
645.398	4803.51
645.591	4918.2
645.784	4897.72
645.977	4742.07
646.17	4903.86
646.363	4608.95
646.556	4641.72
646.749	4666.3
646.942	4588.47
647.135	4611
647.328	4641.72
647.521	4686.78
647.714	4649.91
647.907	4492.22
648.099	4506.56
648.292	4506.56
648.485	4443.07
648.678	4398.01
648.871	4469.69
649.064	4389.82
649.256	4225.98
649.449	4209.6
649.642	4295.61
649.835	4123.59
650.027	4244.42
650.22	4217.79
650.413	4053.95
650.605	4111.3
650.798	4166.59
650.991	4164.54
651.183	4017.09
651.376	3896.26
651.568	4002.75
651.761	3978.18
651.954	4041.67
652.146	3830.73
652.339	3834.82
652.531	3820.49
652.724	3765.19
652.916	3783.62
653.109	3859.4
653.301	3902.4
653.494	3836.87
653.686	3730.38
653.879	3806.15
654.071	3638.22
654.263	3597.26
654.456	3515.34
654.648	3623.88
654.84	3591.11
655.033	3654.6
655.225	3515.34
655.417	3587.02
655.61	3617.74
655.802	3584.97
655.994	3486.67
656.186	3324.88
656.379	3410.89
656.571	3550.15
656.763	3371.98
656.955	3337.17
657.148	3341.26
657.34	3439.56
657.532	3199.95
657.724	3470.28
657.916	3144.66
658.108	3283.92
658.3	3230.67
658.492	3181.52
658.684	3177.42
658.876	3236.81
659.068	3271.63
659.26	3085.26
659.452	3040.21
659.644	3054.55
659.836	3017.68
660.028	3124.18
660.22	2888.66
660.412	2968.53
660.604	2991.06
660.796	2950.1
660.988	2876.37
661.18	2978.77
661.372	2923.48
661.563	2870.23
661.755	2913.24
661.947	2878.42
662.139	2837.46
662.331	2812.89
662.522	2800.6
662.714	2757.59
662.906	2765.78
663.097	2708.44
663.289	2739.16
663.481	2575.32
663.673	2647
663.864	2575.32
664.056	2669.53
664.247	2659.29
664.439	2636.76
664.631	2671.58
664.822	2673.62
665.014	2595.8
665.205	2554.84
665.397	2546.65
665.588	2632.66
665.78	2503.64
665.971	2372.57
666.163	2356.19
666.354	2515.93
666.546	2431.96
666.737	2515.93
666.929	2411.48
667.12	2419.68
667.311	2345.95
667.503	2456.54
667.694	2431.96
667.885	2462.68
668.077	2440.15
668.268	2290.65
668.459	2382.81
668.651	2345.95
668.842	2307.04
669.033	2261.98
669.224	2206.69
669.416	2309.08
669.607	2239.45
669.798	2257.89
669.989	2309.08
670.18	2282.46
670.371	2194.4
670.563	2214.88
670.754	2231.26
670.945	2233.31
671.136	2302.94
671.327	2216.93
671.518	2089.95
671.709	2069.47
671.9	2198.49
672.091	2145.25
672.282	2135.01
672.473	2126.82
672.664	2057.18
672.855	2075.62
673.046	2165.73
673.237	2186.21
673.428	2034.66
673.619	2081.76
673.809	2100.19
674	2051.04
674.191	2089.95
674.382	2069.47
674.573	2057.18
674.764	2065.38
674.954	2046.94
675.145	2073.57
675.336	2012.13
675.527	2001.89
675.717	2098.14
675.908	1962.98
676.099	2038.75
676.289	2124.77
676.48	1932.26
676.671	1946.59
676.861	1829.86
677.052	1954.79
677.243	2001.89
677.433	1915.87
677.624	1944.55
677.814	2014.18
678.005	2010.08
678.195	1993.7
678.386	1985.51
678.576	1872.87
678.767	1928.16
678.957	1891.3
679.148	1924.07
679.338	1913.83
679.529	1844.2
679.719	1854.44
679.909	1856.48
680.1	1985.51
680.29	1862.63
680.481	1879.01
680.671	1844.2
680.861	1856.48
681.052	1870.82
681.242	1887.2
681.432	1952.74
681.622	1913.83
681.813	1899.49
682.003	1989.6
682.193	1848.29
682.383	1846.24
682.573	1919.97
682.764	1833.96
682.954	1811.43
683.144	1864.68
683.334	1917.92
683.524	1813.48
683.714	1881.06
683.904	1854.44
684.094	1805.28
684.284	1905.63
684.474	1760.23
684.664	1934.31
684.854	1782.76
685.044	1807.33
685.234	1866.72
685.424	1858.53
685.614	1881.06
685.804	1868.77
685.994	1797.09
686.184	1756.13
686.374	1772.52
686.564	1848.29
686.753	1874.92
686.943	1838.05
687.133	1813.48
687.323	1780.71
687.513	1797.09
687.702	1905.63
687.892	1805.28
688.082	1786.85
688.272	1745.89
688.461	1813.48
688.651	1805.28
688.841	1790.95
689.03	1807.33
689.22	1756.13
689.41	1793
689.599	1743.85
689.789	1848.29
689.979	1766.37
690.168	1852.39
690.358	1836
690.547	1741.8
690.737	1702.89
690.926	1735.65
691.116	1776.61
691.305	1731.56
691.495	1799.14
691.684	1762.28
691.874	1780.71
692.063	1815.52
692.252	1903.59
692.442	1807.33
692.631	1776.61
692.82	1825.76
693.01	1838.05
693.199	1797.09
693.388	1711.08
693.578	1856.48
693.767	1797.09
693.956	1758.18
694.146	1821.67
694.335	1881.06
694.524	1780.71
694.713	1737.7
694.902	1709.03
695.092	1821.67
695.281	1944.55
695.47	1754.09
695.659	1797.09
695.848	1815.52
696.037	1793
696.226	1856.48
696.415	1762.28
696.604	1756.13
696.793	1883.11
696.982	1887.2
697.171	1809.38
697.36	1756.13
697.549	1756.13
697.738	1805.28
697.927	1856.48
698.116	1924.07
698.305	1788.9
698.494	1864.68
698.683	1883.11
698.872	1805.28
699.061	1874.92
699.25	1729.51
699.438	1782.76
699.627	1711.08
699.816	1778.66
700.005	1821.67
700.193	1897.44
700.382	1913.83
700.571	1856.48
700.76	1786.85
700.948	1899.49
701.137	1731.56
701.326	1678.31
701.514	1825.76
701.703	1829.86
701.892	1747.94
702.08	1776.61
702.269	1866.72
702.457	1813.48
702.646	1803.24
702.834	1821.67
703.023	1893.35
703.212	1745.89
703.4	1825.76
703.589	1885.16
703.777	1686.5
703.965	1756.13
704.154	1815.52
704.342	1842.15
704.531	1725.41
704.719	1754.09
704.907	1793
705.096	1848.29
705.284	1762.28
705.472	1706.98
705.661	1793
705.849	1717.22
706.037	1768.42
706.226	1752.04
706.414	1743.85
706.602	1666.02
706.79	1833.96
706.979	1756.13
707.167	1686.5
707.355	1733.61
707.543	1795.04
707.731	1723.37
707.919	1651.69
708.107	1766.37
708.296	1754.09
708.484	1774.56
708.672	1702.89
708.86	1567.72
709.048	1655.78
709.236	1747.94
709.424	1633.26
709.612	1661.93
709.8	1545.19
709.988	1706.98
710.176	1706.98
710.364	1739.75
710.551	1747.94
710.739	1557.48
710.927	1666.02
711.115	1647.59
711.303	1661.93
711.491	1659.88
711.679	1518.57
711.866	1674.21
712.054	1563.62
712.242	1545.19
712.43	1653.73
712.617	1649.64
712.805	1625.06
712.993	1516.52
713.181	1496.04
713.368	1493.99
713.556	1633.26
713.744	1500.14
713.931	1596.39
714.119	1577.96
714.306	1510.38
714.494	1528.81
714.682	1457.13
714.869	1530.86
715.057	1584.1
715.244	1493.99
715.432	1518.57
715.619	1526.76
715.807	1590.25
715.994	1563.62
716.182	1395.69
716.369	1453.03
716.556	1444.84
716.744	1547.24
716.931	1487.85
717.119	1516.52
717.306	1465.32
717.493	1444.84
717.681	1403.88
717.868	1448.94
718.055	1424.36
718.242	1487.85
718.43	1438.7
718.617	1477.61
718.804	1395.69
718.991	1387.5
719.179	1383.4
719.366	1371.12
719.553	1354.73
719.74	1348.59
719.927	1373.16
720.114	1453.03
720.301	1461.23
720.488	1379.31
720.676	1373.16
720.863	1352.68
721.05	1428.46
721.237	1348.59
721.424	1307.63
721.611	1346.54
721.798	1207.28
721.985	1356.78
722.172	1334.25
722.358	1367.02
722.545	1240.05
722.732	1246.19
722.919	1231.85
723.106	1391.59
723.293	1344.49
723.48	1293.29
723.667	1321.96
723.853	1252.33
724.04	1403.88
724.227	1209.33
724.414	1301.48
724.6	1221.61
724.787	1321.96
724.974	1260.52
725.161	1321.96
725.347	1213.42
725.534	1281
725.72	1244.14
725.907	1188.85
726.094	1264.62
726.28	1328.11
726.467	1260.52
726.653	1250.28
726.84	1328.11
727.027	1276.91
727.213	1158.13
727.4	1162.22
727.586	1186.8
727.773	1199.09
727.959	1182.7
728.145	1162.22
728.332	1250.28
728.518	1240.05
728.705	1211.37
728.891	1123.31
729.077	1199.09
729.264	1225.71
729.45	1201.13
729.636	1305.58
729.823	1135.6
730.009	1174.51
730.195	1145.84
730.382	1205.23
730.568	1188.85
730.754	1102.83
730.94	1162.22
731.126	1113.07
731.313	1190.89
731.499	1121.26
731.685	1184.75
731.871	1121.26
732.057	1133.55
732.243	1147.89
732.429	1039.34
732.615	1106.93
732.801	1133.55
732.987	1080.3
733.173	1076.21
733.359	1051.63
733.545	1186.8
733.731	1080.3
733.917	1084.4
734.103	1127.41
734.289	1035.25
734.475	1104.88
734.661	1068.02
734.847	1113.07
735.033	1149.93
735.219	1115.12
735.404	1117.17
735.59	1125.36
735.776	1035.25
735.962	1020.91
736.148	1043.44
736.333	1078.26
736.519	1061.87
736.705	1039.34
736.89	1051.63
737.076	1022.96
737.262	1031.15
737.447	1070.06
737.633	1092.59
737.819	1037.3
738.004	1078.26
738.19	926.71
738.375	1172.46
738.561	971.76
738.747	984.05
738.932	930.8
739.118	1076.21
739.303	1022.96
739.489	1018.86
739.674	898.03
739.859	1055.73
740.045	957.43
740.23	1010.67
740.416	979.95
740.601	891.89
740.786	1037.3
740.972	947.19
741.157	977.91
741.342	900.08
741.528	893.94
741.713	916.47
741.898	891.89
742.084	957.43
742.269	904.18
742.454	904.18
742.639	924.66
742.824	898.03
743.01	951.28
743.195	936.95
743.38	959.47
743.565	881.65
743.75	867.31
743.935	879.6
744.12	938.99
744.305	822.26
744.49	781.3
744.675	922.61
744.86	885.75
745.045	887.79
745.23	848.88
745.415	932.85
745.6	863.22
745.785	840.69
745.97	812.02
746.155	826.36
746.34	898.03
746.525	863.22
746.71	875.51
746.895	865.27
747.079	830.45
747.264	830.45
747.449	769.01
747.634	775.16
747.819	797.68
748.003	881.65
748.188	871.41
748.373	769.01
748.557	709.62
748.742	683
748.927	820.21
749.111	746.48
749.296	701.43
749.481	799.73
749.665	809.97
749.85	797.68
750.034	719.86
750.219	760.82
750.404	785.4
750.588	695.29
750.773	726
750.957	693.24
751.141	775.16
751.326	672.76
751.51	627.7
751.695	789.49
751.879	662.52
752.064	711.67
752.248	685.05
752.432	672.76
752.617	631.8
752.801	695.29
752.985	824.31
753.17	674.81
753.354	648.18
753.538	637.94
753.722	656.37
753.907	648.18
754.091	551.93
754.275	619.51
754.459	654.33
754.643	703.48
754.828	631.8
755.012	617.46
755.196	601.08
755.38	711.67
755.564	715.77
755.748	504.82
755.932	646.13
756.116	644.09
756.3	576.5
756.484	543.74
756.668	635.89
756.852	658.42
757.036	566.26
757.22	613.37
757.404	594.93
757.588	527.35
757.772	564.22
757.956	525.3
758.14	568.31
758.323	510.97
758.507	549.88
758.691	502.78
758.875	560.12
759.059	517.11
759.242	572.41
759.426	572.41
759.61	560.12
759.794	488.44
759.977	492.54
760.161	535.54
760.345	521.21
760.528	531.45
760.712	455.67
760.895	478.2
761.079	510.97
761.263	508.92
761.446	461.82
761.63	463.86
761.813	533.5
761.997	521.21
762.18	486.39
762.364	519.16
762.547	437.24
762.731	422.91
762.914	513.02
763.098	484.34
763.281	523.26
763.464	453.63
763.648	463.86
763.831	490.49
764.015	443.39
764.198	420.86
764.381	467.96
764.564	486.39
764.748	470.01
764.931	424.95
765.114	392.19
765.297	543.74
765.481	383.99
765.664	408.57
765.847	406.52
766.03	383.99
766.213	457.72
766.397	369.66
766.58	369.66
766.763	437.24
766.946	388.09
767.129	422.91
767.312	461.82
767.495	453.63
767.678	470.01
767.861	386.04
768.044	496.63
768.227	427
768.41	412.67
768.593	400.38
768.776	431.1
768.959	408.57
769.142	398.33
769.324	504.82
769.507	441.34
769.69	357.37
769.873	451.58
770.056	433.15
770.239	459.77
770.421	474.1
770.604	379.9
770.787	498.68
770.97	361.47
771.152	472.06
771.335	322.56
771.518	332.79
771.7	429.05
771.883	363.51
772.066	383.99
772.248	334.84
772.431	291.84
772.613	351.23
772.796	336.89
772.978	422.91
773.161	420.86
773.343	357.37
773.526	373.75
773.708	347.13
773.891	353.27
774.073	355.32
774.256	381.95
774.438	381.95
774.621	336.89
774.803	316.41
774.985	320.51
775.168	328.7
775.35	375.8
775.532	359.42
775.715	334.84
775.897	289.79
776.079	371.71
776.261	439.29
776.444	330.75
776.626	332.79
776.808	400.38
776.99	363.51
777.173	371.71
777.355	379.9
777.537	349.18
777.719	314.36
777.901	277.5
778.083	285.69
778.265	205.82
778.447	357.37
778.629	232.44
778.811	300.03
778.993	334.84
779.175	379.9
779.357	283.64
779.539	265.21
779.721	277.5
779.903	265.21
780.085	293.88
780.267	363.51
780.449	214.01
780.631	291.84
780.812	228.35
780.994	349.18
781.176	281.6
781.358	263.16
781.54	199.68
781.721	275.45
781.903	238.59
782.085	320.51
782.267	220.16
782.448	269.31
782.63	248.83
782.812	289.79
782.993	214.01
783.175	195.58
783.357	254.97
783.538	324.6
783.72	191.49
783.901	338.94
784.083	250.88
784.264	281.6
784.446	283.64
784.627	199.68
784.809	216.06
784.99	191.49
785.172	179.2
785.353	226.3
785.535	199.68
785.716	216.06
785.897	164.86
786.079	216.06
786.26	181.25
786.441	207.87
786.623	275.45
786.804	279.55
786.985	166.91
787.167	230.4
787.348	224.25
787.529	193.53
787.71	226.3
787.891	191.49
788.073	222.2
788.254	259.07
788.435	254.97
788.616	152.57
788.797	216.06
788.978	158.72
789.159	154.62
789.34	154.62
789.522	220.16
789.703	244.73
789.884	154.62
790.065	146.43
790.246	138.24
790.427	183.29
790.607	166.91
790.788	130.05
790.969	160.77
791.15	138.24
791.331	101.37
791.512	103.42
791.693	84.99
791.874	220.16
792.054	125.95
792.235	156.67
792.416	93.18
792.597	140.29
792.778	132.09
792.958	125.95
793.139	136.19
793.32	113.66
793.5	148.48
793.681	185.34
793.862	148.48
794.042	117.76
794.223	171.01
794.404	109.57
794.584	111.61
794.765	132.09
794.945	117.76
795.126	162.81
795.306	150.53
795.487	160.77
795.667	142.33
795.848	158.72
796.028	144.38
796.209	111.61
796.389	150.53
796.57	66.56
796.75	93.18
796.93	158.72
797.111	95.23
797.291	125.95
797.471	132.09
797.652	166.91
797.832	89.09
798.012	158.72
798.192	136.19
798.373	103.42
798.553	140.29
798.733	123.9
798.913	103.42
799.093	154.62
799.274	134.14
799.454	109.57
799.634	152.57
799.814	181.25
799.994	68.61
800.174	152.57
800.354	78.85
800.534	119.81
800.714	125.95
800.894	70.65
801.074	109.57
801.254	130.05
801.434	109.57
801.614	121.85
801.794	72.7
801.974	363.51
802.154	123.9
802.334	154.62
802.514	89.09
802.693	103.42
802.873	62.46
803.053	175.1
803.233	76.8
803.413	140.29
803.592	144.38
803.772	95.23
803.952	89.09
804.131	72.7
804.311	74.75
804.491	152.57
804.67	72.7
804.85	48.13
805.03	74.75
805.209	113.66
805.389	84.99
805.568	52.22
805.748	136.19
805.928	105.47
806.107	128
806.287	117.76
806.466	111.61
806.646	84.99
806.825	142.33
807.004	84.99
807.184	78.85
807.363	136.19
807.543	162.81
807.722	113.66
807.901	154.62
808.081	60.42
808.26	95.23
808.439	54.27
808.619	62.46
808.798	70.65
808.977	72.7
809.156	58.37
809.336	64.51
809.515	123.9
809.694	111.61
809.873	84.99
810.052	99.33
810.231	105.47
810.411	33.79
810.59	87.04
810.769	66.56
810.948	27.65
811.127	91.13
811.306	93.18
811.485	5.12
811.664	138.24
811.843	64.51
812.022	115.71
812.201	84.99
812.38	5.12
812.559	93.18
812.737	97.28
812.916	41.98
813.095	31.74
813.274	97.28
813.453	115.71
813.632	101.37
813.811	60.42
813.989	23.55
814.168	54.27
814.347	52.22
814.526	113.66
814.704	95.23
814.883	97.28
815.062	27.65
815.24	52.22
815.419	3.07
815.598	93.18
815.776	44.03
815.955	44.03
816.133	64.51
816.312	27.65
816.49	68.61
816.669	41.98
816.847	3.07
817.026	-15.36
817.204	76.8
817.383	64.51
817.561	17.41
817.74	93.18
817.918	115.71
818.097	101.37
818.275	109.57
818.453	82.94
818.632	76.8
818.81	33.79
818.988	9.22
819.167	72.7
819.345	50.18
819.523	70.65
819.701	44.03
819.879	27.65
820.058	111.61
820.236	117.76
820.414	54.27
820.592	1.02
820.77	33.79
820.948	1.02
821.127	60.42
821.305	35.84
821.483	52.22
821.661	33.79
821.839	41.98
822.017	84.99
822.195	29.7
822.373	80.89
822.551	3.07
822.729	25.6
822.907	31.74
823.085	130.05
823.262	29.7
823.44	54.27
823.618	50.18
823.796	25.6
823.974	101.37
824.152	56.32
824.329	46.08
824.507	74.75
824.685	33.79
824.863	103.42
825.04	117.76
825.218	121.85
825.396	54.27
825.574	74.75
825.751	-15.36
825.929	19.46
826.107	23.55
826.284	13.31
826.462	52.22
826.639	7.17
826.817	41.98
826.994	21.5
827.172	23.55
827.349	70.65
827.527	7.17
827.704	11.26
827.882	25.6
828.059	82.94
828.237	39.94
828.414	74.75
828.591	64.51
828.769	31.74
828.946	52.22
829.124	70.65
829.301	39.94
829.478	58.37
829.655	109.57
829.833	27.65
830.01	70.65
830.187	80.89
830.364	62.46
830.542	37.89
830.719	62.46
830.896	44.03
831.073	13.31
831.25	29.7
831.427	19.46
831.604	21.5
831.782	-9.22
831.959	39.94
832.136	31.74
832.313	82.94
832.49	3.07
832.667	60.42
832.844	62.46
833.021	80.89
833.198	-35.84
833.374	3.07
833.551	93.18
833.728	-21.5
833.905	37.89
834.082	25.6
834.259	23.55
834.436	39.94
834.612	33.79
834.789	62.46
834.966	17.41
835.143	76.8
835.319	19.46
835.496	-5.12
835.673	29.7
835.85	11.26
836.026	91.13
836.203	9.22
836.38	56.32
836.556	19.46
836.733	44.03
836.909	68.61
837.086	144.38
837.262	-17.41
837.439	17.41
837.616	13.31
837.792	82.94
837.968	9.22
838.145	25.6
838.321	-33.79
838.498	37.89
838.674	-87.04
838.851	-19.46
839.027	95.23
839.203	-5.12
839.38	68.61
839.556	-58.37
839.732	46.08
839.909	35.84
840.085	15.36
840.261	11.26
840.437	99.33
840.614	19.46
840.79	54.27
840.966	27.65
841.142	80.89
841.318	-25.6
841.494	60.42
841.671	91.13
841.847	109.57
842.023	3.07
842.199	84.99
842.375	66.56
842.551	52.22
842.727	11.26
842.903	60.42
843.079	31.74
843.255	46.08
843.431	-21.5
843.607	64.51
843.783	7.17
843.959	46.08
844.134	-9.22
844.31	5.12
844.486	3.07
844.662	35.84
844.838	29.7
845.013	60.42
845.189	-3.07
845.365	93.18
845.541	21.5
845.716	13.31
845.892	76.8
846.068	13.31
846.244	84.99
846.419	-3.07
846.595	-3.07
846.77	29.7
846.946	78.85
847.122	-1.02
847.297	44.03
847.473	23.55
847.648	23.55
847.824	41.98
847.999	-46.08
848.175	29.7
848.35	11.26
848.526	31.74
848.701	3.07
848.876	93.18
849.052	1.02
849.227	52.22
849.403	48.13
849.578	1.02
849.753	21.5
849.929	37.89
850.104	1.02
850.279	-1.02
850.454	11.26
850.63	39.94
850.805	39.94
850.98	13.31
851.155	25.6
851.33	123.9
851.505	5.12
851.681	84.99
851.856	-29.7
852.031	99.33
852.206	23.55
852.381	23.55
852.556	7.17
852.731	56.32
852.906	11.26
853.081	23.55
853.256	-17.41
853.431	37.89
853.606	15.36
853.781	68.61
853.956	15.36
854.131	64.51
854.305	-7.17
854.48	46.08
854.655	68.61
854.83	-5.12
855.005	21.5
855.18	37.89
855.354	-23.55
855.529	31.74
855.704	-48.13
855.879	-62.46
856.053	37.89
856.228	27.65
856.403	15.36
856.577	-21.5
856.752	-1.02
856.926	5.12
857.101	7.17
857.276	11.26
857.45	101.37
857.625	-66.56
857.799	-50.18
857.974	27.65
858.148	-7.17
858.323	27.65
858.497	-84.99
858.672	60.42
858.846	41.98
859.02	-29.7
859.195	-19.46
859.369	15.36
859.543	35.84
859.718	23.55
859.892	-15.36
860.066	9.22
860.241	3.07
860.415	27.65
860.589	-9.22
860.763	46.08
860.938	3.07
861.112	25.6
861.286	11.26
861.46	15.36
861.634	-5.12
861.808	31.74
861.982	-37.89
862.157	58.37
862.331	-39.94
862.505	41.98
862.679	-11.26
862.853	54.27
863.027	23.55
863.201	68.61
863.375	-7.17
863.549	27.65
863.722	11.26
863.896	21.5
864.07	60.42
864.244	-1.02
864.418	-9.22
864.592	-9.22
864.766	11.26
864.939	60.42
865.113	-82.94
865.287	-25.6
865.461	-27.65
865.634	-25.6
865.808	33.79
865.982	80.89
866.156	27.65
866.329	25.6
866.503	19.46
866.676	3.07
866.85	54.27
867.024	13.31
867.197	-9.22
867.371	41.98
867.544	-37.89
867.718	13.31
867.891	-9.22
868.065	-29.7
868.238	-21.5
868.412	41.98
868.585	9.22
868.759	-33.79
868.932	-44.03
869.105	-27.65
869.279	-37.89
869.452	89.09
869.625	-11.26
869.799	5.12
869.972	-3.07
870.145	-29.7
870.319	-39.94
870.492	58.37
870.665	15.36
870.838	13.31
871.011	11.26
871.185	44.03
871.358	-13.31
871.531	-9.22
871.704	-5.12
871.877	44.03
872.05	-21.5
872.223	39.94
872.396	1.02
872.569	33.79
872.742	21.5
872.915	-1.02
873.088	3.07
873.261	29.7
873.434	5.12
873.607	-25.6
873.78	-7.17
873.953	-48.13
874.126	-66.56
874.299	48.13
874.471	-35.84
874.644	-52.22
874.817	46.08
874.99	-5.12
875.163	15.36
875.335	54.27
875.508	-9.22
875.681	1.02
875.853	-95.23
876.026	29.7
876.199	-33.79
876.371	19.46
876.544	-27.65
876.717	62.46
876.889	-70.65
877.062	29.7
877.234	-27.65
877.407	-74.75
877.579	21.5
877.752	5.12
877.924	-5.12
878.097	84.99
878.269	52.22
878.442	72.7
878.614	-5.12
878.786	35.84
878.959	-46.08
879.131	74.75
879.303	1.02
879.476	50.18
879.648	46.08
879.82	-25.6
879.993	-3.07
880.165	7.17
880.337	25.6
880.509	50.18
880.681	37.89
880.854	27.65
881.026	7.17
881.198	-21.5
881.37	-13.31
881.542	-41.98
881.714	27.65
881.886	60.42
882.058	-54.27
882.23	-84.99
882.402	9.22
882.574	17.41
882.746	-5.12
882.918	9.22
883.09	5.12
883.262	46.08
883.434	-1.02
883.606	46.08
883.778	-39.94
883.95	-3.07
884.122	-1.02
884.293	-29.7
884.465	33.79
884.637	5.12
884.809	-5.12
884.98	-78.85
885.152	-41.98
885.324	41.98
885.496	-52.22
885.667	1.02
885.839	-5.12
886.011	107.52
886.182	-17.41
886.354	68.61
886.525	-60.42
886.697	48.13
886.869	33.79
887.04	1.02
887.212	5.12
887.383	33.79
887.555	3.07
887.726	-5.12
887.897	-70.65
888.069	44.03
888.24	62.46
888.412	44.03
888.583	-13.31
888.754	46.08
888.926	13.31
889.097	80.89
889.268	52.22
889.44	27.65
889.611	-52.22
889.782	-48.13
889.953	17.41
890.125	-1.02
890.296	48.13
890.467	-35.84
890.638	-58.37
890.809	44.03
890.98	7.17
891.151	-17.41
891.323	-11.26
891.494	7.17
891.665	-15.36
891.836	-23.55
892.007	-23.55
892.178	27.65
892.349	35.84
892.52	84.99
892.691	-50.18
892.862	-5.12
893.032	54.27
893.203	-44.03
893.374	-13.31
893.545	27.65
893.716	-25.6
893.887	29.7
894.057	-62.46
894.228	-50.18
894.399	-27.65
894.57	72.7
894.74	-41.98
894.911	3.07
895.082	35.84
895.253	-84.99
895.423	3.07
895.594	21.5
895.764	46.08
895.935	46.08
896.106	9.22
896.276	23.55
896.447	17.41
896.617	-23.55
896.788	-37.89
896.958	-3.07
897.129	-7.17
897.299	-19.46
897.47	15.36
897.64	46.08
897.81	1.02
897.981	15.36
898.151	15.36
898.322	-48.13
898.492	5.12
898.662	-21.5
898.832	-33.79
899.003	11.26
899.173	7.17
899.343	-9.22
899.513	11.26
