Data from USB4F104151__63__13-53-41-636.txt Node

Date: Thu Mar 13 13:53:41 EDT 2025
User: louis
Spectrometer: USB4F10415
Trigger mode: 4
Integration Time (sec): 1.000000E-2
Scans to average: 1
Electric dark correction enabled: true
Nonlinearity correction enabled: false
Boxcar width: 0
XAxis mode: Wavelengths
Number of Pixels in Spectrum: 3648
>>>>>Begin Spectral Data<<<<<
178.204	-12.29
178.424	-12.29
178.644	-12.29
178.864	-16.38
179.084	-65.53
179.304	0
179.524	-10.24
179.744	2.05
179.964	-40.96
180.184	-47.1
180.404	-4.1
180.624	-38.91
180.844	34.82
181.064	-30.72
181.283	18.43
181.503	45.06
181.723	71.68
181.943	16.38
182.163	67.58
182.383	14.34
182.602	2.05
182.822	24.58
183.042	38.91
183.262	30.72
183.482	34.82
183.701	57.34
183.921	30.72
184.141	26.62
184.361	34.82
184.58	-2.05
184.8	0
185.02	32.77
185.239	-32.77
185.459	-4.1
185.679	69.63
185.898	18.43
186.118	38.91
186.338	6.14
186.557	-4.1
186.777	0
186.997	30.72
187.216	-22.53
187.436	65.54
187.655	92.16
187.875	55.3
188.095	-12.29
188.314	32.77
188.534	45.06
188.753	-34.82
188.973	-71.68
189.192	-18.43
189.412	59.39
189.631	-61.44
189.851	-12.29
190.07	81.92
190.29	-36.86
190.509	40.96
190.729	-40.96
190.948	26.62
191.168	57.34
191.387	86.01
191.607	20.48
191.826	6.14
192.045	65.54
192.265	-24.58
192.484	30.72
192.704	108.54
192.923	-40.96
193.142	24.58
193.362	16.38
193.581	-2.05
193.8	-14.34
194.02	24.58
194.239	10.24
194.458	28.67
194.678	57.34
194.897	8.19
195.116	18.43
195.335	18.43
195.555	-24.58
195.774	4.1
195.993	-24.58
196.212	26.62
196.432	30.72
196.651	30.72
196.87	108.54
197.089	28.67
197.308	51.2
197.528	36.86
197.747	43.01
197.966	67.58
198.185	28.67
198.404	-20.48
198.623	32.77
198.842	14.34
199.062	47.1
199.281	-40.96
199.5	14.34
199.719	65.54
199.938	-2.05
200.157	-38.91
200.376	47.1
200.595	38.91
200.814	38.91
201.033	22.53
201.252	40.96
201.471	-45.06
201.69	40.96
201.909	20.48
202.128	51.2
202.347	73.73
202.566	81.92
202.785	47.1
203.004	-10.24
203.223	57.34
203.442	-6.14
203.661	14.34
203.879	22.53
204.098	8.19
204.317	26.62
204.536	-2.05
204.755	4.1
204.974	20.48
205.193	2.05
205.411	-8.19
205.63	32.77
205.849	55.3
206.068	20.48
206.287	-12.29
206.505	14.34
206.724	-20.48
206.943	16.38
207.162	69.63
207.381	53.25
207.599	51.2
207.818	-4.1
208.037	-4.1
208.255	-28.67
208.474	71.68
208.693	49.15
208.911	77.82
209.13	30.72
209.349	34.82
209.567	30.72
209.786	20.48
210.005	18.43
210.223	38.91
210.442	71.68
210.661	63.49
210.879	-8.19
211.098	-49.15
211.316	20.48
211.535	16.38
211.753	34.82
211.972	45.06
212.191	53.25
212.409	18.43
212.628	77.82
212.846	43.01
213.065	55.3
213.283	79.87
213.502	10.24
213.72	36.86
213.938	40.96
214.157	6.14
214.375	-55.3
214.594	30.72
214.812	22.53
215.031	14.34
215.249	14.34
215.467	-12.29
215.686	32.77
215.904	30.72
216.122	18.43
216.341	18.43
216.559	43.01
216.778	-2.05
216.996	6.14
217.214	2.05
217.432	30.72
217.651	112.64
217.869	32.77
218.087	16.38
218.306	69.63
218.524	30.72
218.742	73.73
218.96	28.67
219.179	-40.96
219.397	79.87
219.615	81.92
219.833	45.06
220.051	22.53
220.27	43.01
220.488	0
220.706	-8.19
220.924	-112.64
221.142	43.01
221.36	-40.96
221.578	-36.86
221.796	-32.77
222.015	8.19
222.233	92.16
222.451	100.35
222.669	69.63
222.887	-26.62
223.105	-59.39
223.323	6.14
223.541	-6.14
223.759	14.34
223.977	24.58
224.195	6.14
224.413	26.62
224.631	47.1
224.849	90.11
225.067	47.1
225.285	0
225.503	0
225.721	2.05
225.939	61.44
226.157	-6.14
226.375	22.53
226.592	6.14
226.81	14.34
227.028	124.93
227.246	30.72
227.464	8.19
227.682	-104.45
227.9	45.06
228.117	-30.72
228.335	90.11
228.553	-2.05
228.771	47.1
228.989	-16.38
229.206	120.83
229.424	-14.34
229.642	-2.05
229.86	18.43
230.077	71.68
230.295	73.73
230.513	43.01
230.731	65.54
230.948	-22.53
231.166	75.77
231.384	55.3
231.601	18.43
231.819	20.48
232.037	-2.05
232.254	55.3
232.472	14.34
232.689	34.82
232.907	110.59
233.125	36.86
233.342	-26.62
233.56	8.19
233.777	-4.1
233.995	-32.77
234.213	22.53
234.43	16.38
234.648	-2.05
234.865	36.86
235.083	75.77
235.3	-30.72
235.518	30.72
235.735	-40.96
235.953	126.97
236.17	4.1
236.388	6.14
236.605	40.96
236.822	77.82
237.04	49.15
237.257	2.05
237.475	65.54
237.692	20.48
237.909	61.44
238.127	-6.14
238.344	-12.29
238.562	94.21
238.779	24.58
238.996	47.1
239.214	26.62
239.431	69.63
239.648	40.96
239.865	-12.29
240.083	-20.48
240.3	63.49
240.517	18.43
240.735	-10.24
240.952	-4.1
241.169	65.54
241.386	71.68
241.603	12.29
241.821	-47.1
242.038	90.11
242.255	28.67
242.472	43.01
242.689	40.96
242.907	40.96
243.124	-14.34
243.341	69.63
243.558	32.77
243.775	4.1
243.992	16.38
244.209	61.44
244.426	8.19
244.643	26.62
244.86	36.86
245.078	45.06
245.295	-6.14
245.512	18.43
245.729	8.19
245.946	40.96
246.163	63.49
246.38	-10.24
246.597	129.02
246.814	51.2
247.031	-4.1
247.248	57.34
247.464	14.34
247.681	-16.38
247.898	24.58
248.115	73.73
248.332	88.06
248.549	12.29
248.766	71.68
248.983	34.82
249.2	18.43
249.417	18.43
249.633	2.05
249.85	20.48
250.067	47.1
250.284	40.96
250.501	24.58
250.717	24.58
250.934	47.1
251.151	26.62
251.368	-67.58
251.585	49.15
251.801	22.53
252.018	18.43
252.235	30.72
252.451	53.25
252.668	-36.86
252.885	-34.82
253.102	6.14
253.318	67.58
253.535	30.72
253.752	40.96
253.968	34.82
254.185	2.05
254.401	-22.53
254.618	55.3
254.835	-2.05
255.051	65.54
255.268	8.19
255.484	118.78
255.701	-51.2
255.917	122.88
256.134	18.43
256.351	28.67
256.567	-59.39
256.784	16.38
257	81.92
257.217	12.29
257.433	47.1
257.65	75.77
257.866	28.67
258.082	65.54
258.299	49.15
258.515	28.67
258.732	36.86
258.948	53.25
259.165	38.91
259.381	-2.05
259.597	12.29
259.814	-38.91
260.03	49.15
260.246	77.82
260.463	-20.48
260.679	6.14
260.895	43.01
261.112	10.24
261.328	14.34
261.544	86.01
261.761	104.45
261.977	8.19
262.193	-22.53
262.409	116.73
262.626	-49.15
262.842	65.54
263.058	14.34
263.274	47.1
263.49	2.05
263.707	-4.1
263.923	18.43
264.139	4.1
264.355	81.92
264.571	63.49
264.787	30.72
265.004	28.67
265.22	75.77
265.436	-20.48
265.652	30.72
265.868	30.72
266.084	2.05
266.3	43.01
266.516	24.58
266.732	38.91
266.948	8.19
267.164	24.58
267.38	116.73
267.596	30.72
267.812	-14.34
268.028	30.72
268.244	36.86
268.46	38.91
268.676	40.96
268.892	6.14
269.108	51.2
269.324	22.53
269.54	71.68
269.756	32.77
269.972	32.77
270.188	73.73
270.403	6.14
270.619	22.53
270.835	24.58
271.051	20.48
271.267	4.1
271.483	100.35
271.698	65.54
271.914	2.05
272.13	69.63
272.346	102.4
272.562	-4.1
272.777	53.25
272.993	38.91
273.209	61.44
273.425	-24.58
273.64	28.67
273.856	88.06
274.072	28.67
274.287	32.77
274.503	16.38
274.719	10.24
274.934	83.97
275.15	28.67
275.366	32.77
275.581	47.1
275.797	26.62
276.012	67.58
276.228	96.25
276.444	34.82
276.659	49.15
276.875	-22.53
277.09	73.73
277.306	26.62
277.521	71.68
277.737	4.1
277.952	47.1
278.168	45.06
278.383	34.82
278.599	65.54
278.814	6.14
279.03	4.1
279.245	71.68
279.461	63.49
279.676	30.72
279.892	-6.14
280.107	10.24
280.322	-6.14
280.538	94.21
280.753	-40.96
280.969	88.06
281.184	73.73
281.399	2.05
281.615	43.01
281.83	38.91
282.045	-6.14
282.26	36.86
282.476	-8.19
282.691	75.77
282.906	59.39
283.122	57.34
283.337	26.62
283.552	24.58
283.767	36.86
283.983	-22.53
284.198	55.3
284.413	81.92
284.628	45.06
284.843	24.58
285.058	6.14
285.274	55.3
285.489	43.01
285.704	36.86
285.919	-28.67
286.134	69.63
286.349	73.73
286.564	30.72
286.779	12.29
286.995	2.05
287.21	32.77
287.425	79.87
287.64	45.06
287.855	34.82
288.07	-49.15
288.285	45.06
288.5	24.58
288.715	36.86
288.93	10.24
289.145	43.01
289.36	-22.53
289.575	24.58
289.79	59.39
290.004	57.34
290.219	-22.53
290.434	38.91
290.649	36.86
290.864	0
291.079	38.91
291.294	-20.48
291.509	45.06
291.724	-26.62
291.938	16.38
292.153	-14.34
292.368	24.58
292.583	-12.29
292.798	28.67
293.012	43.01
293.227	94.21
293.442	-2.05
293.657	38.91
293.871	108.54
294.086	61.44
294.301	53.25
294.516	22.53
294.73	-28.67
294.945	2.05
295.16	92.16
295.374	-12.29
295.589	36.86
295.804	14.34
296.018	14.34
296.233	81.92
296.447	57.34
296.662	8.19
296.877	2.05
297.091	67.58
297.306	36.86
297.52	-28.67
297.735	49.15
297.949	6.14
298.164	43.01
298.378	20.48
298.593	-12.29
298.807	16.38
299.022	49.15
299.236	16.38
299.451	-32.77
299.665	-4.1
299.88	-51.2
300.094	96.25
300.309	0
300.523	40.96
300.737	34.82
300.952	40.96
301.166	-6.14
301.381	59.39
301.595	0
301.809	81.92
302.024	79.87
302.238	-4.1
302.452	10.24
302.667	36.86
302.881	-16.38
303.095	6.14
303.309	-61.44
303.524	-40.96
303.738	32.77
303.952	96.25
304.166	-2.05
304.381	51.2
304.595	8.19
304.809	47.1
305.023	51.2
305.237	51.2
305.452	69.63
305.666	-14.34
305.88	47.1
306.094	57.34
306.308	14.34
306.522	59.39
306.736	59.39
306.95	-38.91
307.164	59.39
307.379	-45.06
307.593	20.48
307.807	24.58
308.021	38.91
308.235	2.05
308.449	-28.67
308.663	-22.53
308.877	96.25
309.091	43.01
309.305	18.43
309.519	-26.62
309.733	-30.72
309.947	92.16
310.161	94.21
310.374	0
310.588	47.1
310.802	-43.01
311.016	-16.38
311.23	4.1
311.444	2.05
311.658	0
311.872	67.58
312.085	-16.38
312.299	24.58
312.513	81.92
312.727	59.39
312.941	-18.43
313.154	90.11
313.368	61.44
313.582	71.68
313.796	43.01
314.009	-26.62
314.223	36.86
314.437	-2.05
314.651	8.19
314.864	36.86
315.078	8.19
315.292	14.34
315.505	-40.96
315.719	49.15
315.933	43.01
316.146	45.06
316.36	71.68
316.573	24.58
316.787	69.63
317.001	24.58
317.214	88.06
317.428	16.38
317.641	30.72
317.855	2.05
318.068	51.2
318.282	96.25
318.495	28.67
318.709	-4.1
318.922	32.77
319.136	98.3
319.349	53.25
319.563	16.38
319.776	16.38
319.99	-10.24
320.203	43.01
320.417	96.25
320.63	53.25
320.843	36.86
321.057	75.77
321.27	-4.1
321.483	-28.67
321.697	108.54
321.91	28.67
322.124	38.91
322.337	77.82
322.55	20.48
322.763	34.82
322.977	40.96
323.19	32.77
323.403	86.01
323.617	12.29
323.83	98.3
324.043	40.96
324.256	24.58
324.469	10.24
324.683	-26.62
324.896	61.44
325.109	-22.53
325.322	36.86
325.535	53.25
325.748	75.77
325.962	-18.43
326.175	-67.58
326.388	8.19
326.601	10.24
326.814	38.91
327.027	-22.53
327.24	43.01
327.453	-47.1
327.666	96.25
327.879	38.91
328.092	116.73
328.305	-4.1
328.518	-8.19
328.731	-8.19
328.944	18.43
329.157	10.24
329.37	-2.05
329.583	79.87
329.796	69.63
330.009	2.05
330.222	49.15
330.435	51.2
330.648	96.25
330.861	10.24
331.073	47.1
331.286	57.34
331.499	-16.38
331.712	38.91
331.925	24.58
332.138	55.3
332.35	83.97
332.563	49.15
332.776	4.1
332.989	-57.34
333.202	92.16
333.414	-24.58
333.627	59.39
333.84	47.1
334.053	71.68
334.265	47.1
334.478	-10.24
334.691	-63.49
334.903	36.86
335.116	20.48
335.329	55.3
335.541	88.06
335.754	14.34
335.966	49.15
336.179	6.14
336.392	-40.96
336.604	2.05
336.817	100.35
337.029	-20.48
337.242	26.62
337.454	43.01
337.667	43.01
337.88	67.58
338.092	22.53
338.305	6.14
338.517	-59.39
338.729	16.38
338.942	14.34
339.154	18.43
339.367	-26.62
339.579	-57.34
339.792	34.82
340.004	45.06
340.217	49.15
340.429	-4.1
340.641	79.87
340.854	16.38
341.066	22.53
341.278	59.39
341.491	14.34
341.703	-16.38
341.915	28.67
342.128	34.82
342.34	-4.1
342.552	71.68
342.764	86.01
342.977	83.97
343.189	26.62
343.401	49.15
343.613	88.06
343.826	28.67
344.038	30.72
344.25	43.01
344.462	6.14
344.674	98.3
344.886	30.72
345.099	53.25
345.311	32.77
345.523	57.34
345.735	55.3
345.947	22.53
346.159	-14.34
346.371	-14.34
346.583	-20.48
346.795	45.06
347.007	45.06
347.219	77.82
347.431	-30.72
347.643	30.72
347.855	79.87
348.067	47.1
348.279	8.19
348.491	81.92
348.703	-12.29
348.915	83.97
349.127	36.86
349.339	88.06
349.551	45.06
349.763	36.86
349.975	-2.05
350.187	-28.67
350.399	49.15
350.61	106.49
350.822	-4.1
351.034	53.25
351.246	36.86
351.458	100.35
351.669	79.87
351.881	30.72
352.093	90.11
352.305	45.06
352.517	55.3
352.728	92.16
352.94	108.54
353.152	75.77
353.363	43.01
353.575	14.34
353.787	-16.38
353.999	8.19
354.21	90.11
354.422	-8.19
354.633	83.97
354.845	18.43
355.057	63.49
355.268	81.92
355.48	30.72
355.692	-16.38
355.903	38.91
356.115	-22.53
356.326	65.54
356.538	8.19
356.749	114.69
356.961	61.44
357.172	63.49
357.384	-14.34
357.595	-4.1
357.807	55.3
358.018	30.72
358.23	94.21
358.441	47.1
358.653	55.3
358.864	32.77
359.075	77.82
359.287	-10.24
359.498	81.92
359.709	22.53
359.921	73.73
360.132	69.63
360.344	0
360.555	-4.1
360.766	71.68
360.977	2.05
361.189	14.34
361.4	2.05
361.611	8.19
361.823	43.01
362.034	28.67
362.245	-8.19
362.456	32.77
362.667	-20.48
362.879	77.82
363.09	-16.38
363.301	75.77
363.512	69.63
363.723	38.91
363.935	-8.19
364.146	34.82
364.357	12.29
364.568	36.86
364.779	45.06
364.99	8.19
365.201	75.77
365.412	53.25
365.623	10.24
365.834	90.11
366.045	67.58
366.256	102.4
366.467	20.48
366.678	22.53
366.889	102.4
367.1	96.25
367.311	16.38
367.522	-4.1
367.733	30.72
367.944	92.16
368.155	61.44
368.366	75.77
368.577	40.96
368.788	88.06
368.999	26.62
369.209	45.06
369.42	110.59
369.631	86.01
369.842	28.67
370.053	30.72
370.264	22.53
370.474	67.58
370.685	47.1
370.896	73.73
371.107	55.3
371.317	-8.19
371.528	53.25
371.739	71.68
371.95	-45.06
372.16	-26.62
372.371	12.29
372.582	38.91
372.792	-12.29
373.003	36.86
373.214	45.06
373.424	96.25
373.635	14.34
373.846	69.63
374.056	24.58
374.267	-34.82
374.477	65.54
374.688	40.96
374.898	12.29
375.109	53.25
375.319	55.3
375.53	92.16
375.74	69.63
375.951	-8.19
376.161	8.19
376.372	108.54
376.582	63.49
376.793	24.58
377.003	24.58
377.214	77.82
377.424	22.53
377.635	75.77
377.845	92.16
378.055	59.39
378.266	-8.19
378.476	43.01
378.686	75.77
378.897	55.3
379.107	6.14
379.317	69.63
379.528	81.92
379.738	34.82
379.948	49.15
380.158	92.16
380.369	81.92
380.579	102.4
380.789	49.15
380.999	36.86
381.21	75.77
381.42	-8.19
381.63	55.3
381.84	75.77
382.05	38.91
382.261	0
382.471	75.77
382.681	88.06
382.891	43.01
383.101	55.3
383.311	-30.72
383.521	12.29
383.731	61.44
383.941	36.86
384.151	2.05
384.361	6.14
384.571	4.1
384.781	-2.05
384.991	32.77
385.201	63.49
385.411	57.34
385.621	14.34
385.831	88.06
386.041	55.3
386.251	4.1
386.461	28.67
386.671	53.25
386.881	94.21
387.091	14.34
387.301	106.49
387.511	28.67
387.72	32.77
387.93	61.44
388.14	-22.53
388.35	43.01
388.56	20.48
388.769	34.82
388.979	102.4
389.189	32.77
389.399	8.19
389.609	30.72
389.818	38.91
390.028	28.67
390.238	71.68
390.447	14.34
390.657	83.97
390.867	12.29
391.076	12.29
391.286	75.77
391.496	67.58
391.705	57.34
391.915	67.58
392.125	83.97
392.334	16.38
392.544	114.69
392.753	20.48
392.963	28.67
393.172	61.44
393.382	-6.14
393.591	6.14
393.801	51.2
394.01	38.91
394.22	14.34
394.429	94.21
394.639	102.4
394.848	32.77
395.058	43.01
395.267	129.02
395.477	43.01
395.686	53.25
395.895	77.82
396.105	100.35
396.314	65.54
396.524	38.91
396.733	73.73
396.942	63.49
397.152	43.01
397.361	22.53
397.57	14.34
397.78	73.73
397.989	73.73
398.198	120.83
398.407	6.14
398.617	88.06
398.826	47.1
399.035	77.82
399.244	139.26
399.453	0
399.663	22.53
399.872	49.15
400.081	40.96
400.29	94.21
400.499	114.69
400.708	96.25
400.917	47.1
401.127	61.44
401.336	32.77
401.545	65.54
401.754	88.06
401.963	79.87
402.172	12.29
402.381	-26.62
402.59	65.54
402.799	55.3
403.008	67.58
403.217	172.03
403.426	49.15
403.635	55.3
403.844	26.62
404.053	53.25
404.262	137.21
404.471	106.49
404.68	63.49
404.888	133.12
405.097	51.2
405.306	57.34
405.515	79.87
405.724	71.68
405.933	47.1
406.142	133.12
406.35	55.3
406.559	141.31
406.768	110.59
406.977	210.94
407.185	133.12
407.394	126.97
407.603	86.01
407.812	182.27
408.02	83.97
408.229	159.74
408.438	133.12
408.646	143.36
408.855	100.35
409.064	135.17
409.272	88.06
409.481	88.06
409.69	169.98
409.898	172.03
410.107	157.69
410.315	165.89
410.524	133.12
410.733	161.79
410.941	180.22
411.15	215.04
411.358	208.89
411.567	243.71
411.775	215.04
411.984	157.69
412.192	243.71
412.401	294.91
412.609	219.13
412.818	325.63
413.026	290.81
413.234	186.37
413.443	342.01
413.651	260.09
413.86	290.81
414.068	299
414.276	366.59
414.485	292.86
414.693	485.37
414.901	364.54
415.11	339.96
415.318	356.35
415.526	413.69
415.734	438.27
415.943	450.55
416.151	444.41
416.359	450.55
416.567	483.32
416.776	415.74
416.984	497.66
417.192	626.68
417.4	532.47
417.608	550.9
417.817	546.81
418.025	522.23
418.233	673.78
418.441	567.29
418.649	698.36
418.857	692.21
419.065	729.08
419.273	657.4
419.481	708.6
419.689	729.08
419.897	811
420.105	821.24
420.313	874.48
420.521	800.76
420.729	858.1
420.937	862.19
421.145	937.97
421.353	946.16
421.561	1021.94
421.769	1066.99
421.977	1085.42
422.185	1048.56
422.393	1112.05
422.601	1232.88
422.809	1198.06
423.017	1275.88
423.224	1286.12
423.432	1298.41
423.64	1394.67
423.848	1400.81
424.056	1366
424.263	1466.35
424.471	1406.95
424.679	1552.36
424.887	1542.12
425.094	1650.66
425.302	1777.64
425.51	1615.85
425.718	1773.54
425.925	1679.33
426.133	1851.36
426.341	1953.76
426.548	2084.83
426.756	2066.4
426.964	1996.77
427.171	2240.48
427.379	2269.15
427.586	2310.11
427.794	2330.59
428.001	2453.47
428.209	2598.87
428.417	2607.06
428.624	2596.82
428.832	2660.31
429.039	2598.87
429.247	2564.06
429.454	2875.35
429.662	3069.91
429.869	2822.1
430.076	3153.87
430.284	3121.1
430.491	3149.78
430.699	3250.13
430.906	3166.16
431.114	3289.04
431.321	3413.96
431.528	3432.4
431.736	3813.32
431.943	3940.29
432.15	3862.47
432.358	3897.28
432.565	4048.83
432.772	4071.36
432.979	4229.06
433.187	4392.89
433.394	4470.72
433.601	4575.16
433.808	4833.21
434.016	4605.88
434.223	4911.03
434.43	5148.59
434.637	5138.35
434.844	5339.05
435.052	5445.55
435.259	5478.32
435.466	5572.52
435.673	5484.46
435.88	5875.62
436.087	6154.15
436.294	5982.12
436.501	5910.44
436.708	6098.85
436.915	6242.21
437.122	6463.39
437.329	6436.77
437.537	6729.63
437.743	6889.37
437.95	6844.31
438.157	7188.37
438.364	7272.34
438.571	7284.62
438.778	7331.73
438.985	7905.16
439.192	7815.05
439.399	7968.65
439.606	7970.69
439.813	8034.18
440.02	8879.99
440.227	8576.89
440.433	8531.84
440.64	8640.38
440.847	8843.13
441.054	8920.95
441.261	9523.05
441.467	9498.48
441.674	9623.41
441.881	9934.7
442.088	10028.9
442.294	9912.17
442.501	10288.99
442.708	10493.79
442.914	10936.15
443.121	11231.06
443.328	10665.82
443.534	11646.8
443.741	11257.68
443.948	11124.57
444.154	12033.86
444.361	12195.65
444.568	11939.66
444.774	12037.96
444.981	12420.93
445.187	12476.23
445.394	13098.81
445.6	12912.44
445.807	14262.05
446.013	13336.37
446.22	13528.88
446.426	14124.84
446.633	14077.74
446.839	14862.11
447.046	14280.49
447.252	14896.92
447.459	14948.12
447.665	14970.65
447.871	15666.96
448.078	16158.47
448.284	15605.52
448.491	16000.78
448.697	16566.02
448.903	16994.04
449.11	16776.96
449.316	16492.29
449.522	16893.69
449.728	17334.01
449.935	17676.02
450.141	17301.24
450.347	17753.84
450.553	17012.48
450.76	17342.2
450.966	18089.71
451.172	17772.27
451.378	18274.03
451.584	17823.47
451.791	18437.86
451.997	18022.12
452.203	18470.63
452.409	18296.55
452.615	18388.71
452.821	17477.37
453.027	17567.48
453.233	18026.22
453.44	17899.25
453.646	17626.87
453.852	18104.04
454.058	18308.84
454.264	17420.02
454.47	18050.8
454.676	17268.47
454.882	18171.63
455.088	16596.74
455.294	16582.4
455.5	16971.52
455.705	16948.99
455.911	16312.07
456.117	15765.26
456.323	15931.15
456.529	14845.73
456.735	15685.39
456.941	15343.38
457.147	15030.04
457.352	14448.42
457.558	14227.24
457.764	14389.03
457.97	14173.99
458.176	13541.17
458.381	13686.58
458.587	12887.87
458.793	12791.61
458.999	12212.04
459.204	13281.08
459.41	12885.82
459.616	12003.14
459.821	11827.02
460.027	12056.39
460.233	11767.63
460.438	11341.65
460.644	11233.11
460.85	10567.52
461.055	10512.22
461.261	10635.1
461.466	9658.22
461.672	9359.22
461.878	10098.53
462.083	9596.78
462.289	9357.17
462.494	9242.48
462.7	8947.58
462.905	8486.78
463.111	8931.19
463.316	8949.62
463.522	8757.11
463.727	8691.58
463.932	8763.26
464.138	8933.24
464.343	8775.55
464.549	8697.72
464.754	8789.88
464.959	8759.16
465.165	8513.41
465.37	8363.9
465.575	7939.97
465.781	8550.27
465.986	8499.07
466.191	8183.68
466.397	8046.47
466.602	7587.72
466.807	7944.07
467.012	7935.88
467.218	7800.71
467.423	7810.95
467.628	7724.94
467.833	8107.91
468.038	7817.1
468.244	7683.98
468.449	7831.43
468.654	7696.27
468.859	7657.36
469.064	7649.16
469.269	7282.58
469.474	7258
469.679	7313.3
469.885	7075.73
470.09	7387.02
470.295	7192.47
470.5	6952.85
470.705	7307.15
470.91	6762.39
471.115	7073.68
471.32	7034.77
471.525	6885.27
471.73	6887.32
471.935	6721.43
472.139	6653.85
472.344	6653.85
472.549	6621.08
472.754	6619.03
472.959	6305.7
473.164	5998.5
473.369	6111.14
473.574	6438.81
473.778	6391.71
473.983	6291.36
474.188	6156.19
474.393	6023.08
474.598	5945.25
474.802	5879.72
475.007	5799.85
475.212	5982.12
475.417	5541.8
475.621	5588.91
475.826	5738.41
476.031	5506.99
476.235	5545.9
476.44	5646.25
476.645	5291.95
476.849	5375.92
477.054	5420.97
477.259	5257.14
477.463	5359.53
477.668	5126.07
477.872	5216.18
478.077	5232.56
478.282	5152.69
478.486	4921.27
478.691	5107.63
478.895	4986.8
479.1	4888.5
479.304	4972.47
479.509	4870.07
479.713	4904.89
479.918	4687.8
480.122	4749.24
480.326	4755.38
480.531	4847.54
480.735	4722.62
480.94	4698.04
481.144	4870.07
481.348	4683.7
481.553	4708.28
481.757	4511.68
481.961	4587.45
482.166	4741.05
482.37	4677.56
482.574	4661.18
482.778	4648.89
482.983	4591.55
483.187	4607.93
483.391	4689.85
483.595	4583.35
483.8	4464.57
484.004	4589.5
484.208	4599.74
484.412	4646.84
484.616	4573.11
484.821	4509.63
485.025	4511.68
485.229	4571.07
485.433	4495.29
485.637	4628.41
485.841	4534.2
486.045	4550.59
486.249	4579.26
486.453	4593.59
486.657	4652.98
486.861	4595.64
487.065	4622.27
487.269	4540.35
487.473	4616.12
487.677	4546.49
487.881	4589.5
488.085	4495.29
488.289	4587.45
488.493	4450.24
488.697	4605.88
488.901	4507.58
489.105	4700.09
489.309	4769.72
489.512	4495.29
489.716	4558.78
489.92	4624.31
490.124	4677.56
490.328	4687.8
490.531	4675.51
490.735	4638.65
490.939	4739
491.143	4782.01
491.346	4728.76
491.55	4822.97
491.754	4857.78
491.958	4800.44
492.161	4870.07
492.365	4825.01
492.569	4939.7
492.772	4855.73
492.976	4822.97
493.18	4933.56
493.383	5152.69
493.587	5015.48
493.79	5023.67
493.994	5027.76
494.197	4972.47
494.401	5162.93
494.605	5058.48
494.808	5214.13
495.012	5242.8
495.215	5320.62
495.419	5298.1
495.622	5177.27
495.825	5285.81
496.029	5435.31
496.232	5545.9
496.436	5523.37
496.639	5545.9
496.843	5746.6
497.046	5742.5
497.249	5736.36
497.453	5805.99
497.656	5873.57
497.859	5902.25
498.063	5830.57
498.266	6051.75
498.469	6098.85
498.673	6088.61
498.876	6297.5
499.079	6334.37
499.282	6227.87
499.485	6492.06
499.689	6533.02
499.892	6537.12
500.095	6584.22
500.298	6850.46
500.501	6762.39
500.705	7018.39
500.908	6840.22
501.111	7053.2
501.314	7194.51
501.517	7206.8
501.72	7364.5
501.923	7368.59
502.126	7587.72
502.329	7577.48
502.532	7444.37
502.735	7778.19
502.938	7790.47
503.141	7837.58
503.344	7937.93
503.547	8114.05
503.75	8048.52
503.953	8298.37
504.156	8454.01
504.359	8265.6
504.562	8343.42
504.765	8726.39
504.968	8757.11
505.17	8886.14
505.373	8914.81
505.576	9170.8
505.779	9174.9
505.982	9338.74
506.185	9451.38
506.387	9514.86
506.59	9619.31
506.793	9811.82
506.996	9674.6
507.198	9961.32
507.401	9770.86
507.604	10090.34
507.807	10295.14
508.009	10475.36
508.212	10583.9
508.415	10766.17
508.617	10907.48
508.82	10794.84
509.022	10979.16
509.225	11218.77
509.428	11196.25
509.63	11450.19
509.833	11591.5
510.035	11730.76
510.238	11741
510.44	11953.99
510.643	12181.32
510.845	12150.6
511.048	12154.69
511.25	12332.87
511.453	12635.97
511.655	12887.87
511.858	12744.51
512.06	12922.68
512.262	13199.16
512.465	13186.87
512.667	13358.9
512.87	13229.88
513.072	13516.59
513.274	13952.81
513.477	14053.16
513.679	14028.59
513.881	14155.56
514.084	14438.18
514.286	14532.39
514.488	14655.26
514.69	15210.26
514.893	15089.43
515.095	15071
515.297	15482.64
515.499	15648.53
515.701	15716.11
515.904	16056.07
516.106	16033.55
516.308	16103.18
516.51	16615.17
516.712	16469.76
516.914	16805.63
517.116	16836.35
517.318	17221.37
517.52	17264.38
517.722	17139.45
517.925	17428.21
518.127	17768.18
518.329	18087.66
518.531	17669.87
518.733	18165.48
518.935	18513.64
519.136	18251.5
519.338	19027.68
519.54	18745.06
519.742	18935.52
519.944	19306.2
520.146	19341.02
520.348	19619.54
520.55	19906.26
520.752	19762.9
520.954	20317.9
521.155	20242.12
521.357	20567.75
521.559	20762.31
521.761	20786.88
521.963	20829.89
522.164	20948.67
522.366	21311.16
522.568	21477.05
522.77	22109.87
522.971	21868.21
523.173	21929.65
523.375	21997.23
523.576	22208.17
523.778	22064.82
523.98	22754.98
524.181	22914.72
524.383	22779.56
524.584	22994.59
524.786	23049.89
524.988	23101.09
525.189	23557.78
525.391	23631.51
525.592	23608.98
525.794	23887.51
525.995	23668.37
526.197	23801.49
526.398	23840.4
526.6	24102.54
526.801	24364.68
527.003	24362.64
527.204	24477.32
527.406	24743.56
527.607	24852.1
527.808	24794.76
528.01	24458.89
528.211	24741.51
528.412	25206.4
528.614	25015.94
528.815	25314.94
529.016	25288.32
529.218	25009.79
529.419	25003.65
529.62	25357.95
529.822	25329.28
530.023	25523.83
530.224	25468.54
530.425	25503.35
530.626	25486.97
530.828	25245.31
531.029	26021.49
531.23	25704.06
531.431	25857.65
531.632	25577.08
531.833	26021.49
532.035	25998.96
532.236	26320.49
532.437	25828.98
532.638	25769.59
532.839	26064.5
533.04	26087.03
533.241	26070.64
533.442	26359.41
533.643	26144.37
533.844	26267.25
534.045	26539.63
534.246	25761.4
534.447	26244.72
534.648	25990.77
534.849	26728.04
535.05	26310.25
535.251	26338.93
535.451	26295.92
535.652	26412.65
535.853	26054.26
536.054	26367.6
536.255	26549.87
536.456	26242.67
536.657	26443.37
536.857	26193.52
537.058	26140.27
537.259	26474.09
537.46	26590.83
537.66	26523.24
537.861	26639.98
538.062	26588.78
538.263	26930.79
538.463	26599.02
538.664	26513
538.865	26132.08
539.065	26758.76
539.266	26271.34
539.466	26349.17
539.667	26277.49
539.868	26855.01
540.068	26568.3
540.269	26629.74
540.469	26592.87
540.67	26420.84
540.87	26756.71
541.071	26617.45
541.271	26601.07
541.472	26306.16
541.672	26570.35
541.873	26465.9
542.073	26183.28
542.274	27022.95
542.474	26326.64
542.675	26625.64
542.875	26584.68
543.075	26535.53
543.276	26269.3
543.476	26703.46
543.676	26191.47
543.877	26670.7
544.077	26306.16
544.277	26594.92
544.478	26529.39
544.678	26513
544.878	26238.58
545.078	26609.26
545.279	26404.46
545.479	26175.09
545.679	26291.82
545.879	26439.28
546.079	26373.74
546.28	26367.6
546.48	26019.44
546.68	26852.97
546.88	26560.11
547.08	26355.31
547.28	26365.55
547.48	26410.6
547.68	26365.55
547.88	26310.25
548.081	26218.1
548.281	26353.26
548.481	26195.57
548.681	26453.61
548.881	26195.57
549.081	26259.06
549.28	26455.66
549.48	26359.41
549.68	26470
549.88	26513
550.08	26371.69
550.28	26394.22
550.48	26529.39
550.68	26459.76
550.88	26267.25
551.08	26136.18
551.279	26207.86
551.479	26054.26
551.679	26185.33
551.879	26232.43
552.079	26459.76
552.278	25994.87
552.478	26074.74
552.678	26203.76
552.878	26365.55
553.077	25939.57
553.277	25962.1
553.477	26379.89
553.676	26125.94
553.876	26150.51
554.076	26017.4
554.275	26117.75
554.475	25822.84
554.674	26076.79
554.874	26220.14
555.074	26048.11
555.273	25874.04
555.473	26449.52
555.672	25644.66
555.872	25917.04
556.071	26109.55
556.271	26304.11
556.47	25906.8
556.67	25749.11
556.869	25654.9
557.068	25929.33
557.268	25450.11
557.467	25695.86
557.667	25572.99
557.866	25712.25
558.065	25392.76
558.265	25527.93
558.464	25390.72
558.663	25562.75
558.863	25249.41
559.062	25693.82
559.261	25196.16
559.461	25489.02
559.66	25218.69
559.859	25233.02
560.058	25190.02
560.258	25036.42
560.457	24979.07
560.656	25304.7
560.855	25013.89
561.054	24858.24
561.253	24655.5
561.453	25208.45
561.652	25288.32
561.851	24983.17
562.05	24929.92
562.249	24583.82
562.448	24815.24
562.647	24600.2
562.846	24696.46
563.045	24522.38
563.244	24374.92
563.443	24567.43
563.642	24125.07
563.841	24624.78
564.04	24225.42
564.239	24606.34
564.438	24280.72
564.637	24497.8
564.836	24252.05
565.035	23801.49
565.234	24063.63
565.432	23721.62
565.631	23883.41
565.83	23963.28
566.029	23826.07
566.228	23787.16
566.427	23946.9
566.625	23858.84
566.824	23504.54
567.023	23637.66
567.222	23293.6
567.42	23703.19
567.619	23905.94
567.818	23389.85
568.016	23346.84
568.215	23500.44
568.414	23316.12
568.612	23226.01
568.811	23178.91
569.01	22959.78
569.208	22820.52
569.407	23193.25
569.605	22822.56
569.804	22914.72
570.002	22558.38
570.201	23066.27
570.4	22617.77
570.598	22607.53
570.797	22388.39
570.995	22621.86
571.193	22308.52
571.392	22367.91
571.59	22259.37
571.789	22175.41
571.987	22392.49
572.186	22265.52
572.384	21841.59
572.582	22122.16
572.781	21868.21
572.979	22073.01
573.177	21794.48
573.376	21757.62
573.574	21528.25
573.772	21630.65
573.971	21501.62
574.169	21413.56
574.367	21466.81
574.565	21331.64
574.763	21247.68
574.962	21096.13
575.16	21083.84
575.358	21227.2
575.556	21042.88
575.754	21204.67
575.952	20958.91
576.151	20960.96
576.349	20733.64
576.547	20655.81
576.745	20827.84
576.943	20694.72
577.141	20627.14
577.339	20666.05
577.537	20338.38
577.735	20606.66
577.933	20125.39
578.131	20254.41
578.329	20195.02
578.527	20022.99
578.725	20143.82
578.923	20070.09
579.121	19810
579.319	19963.6
579.516	20231.88
579.714	19762.9
579.912	19836.63
580.11	19728.08
580.308	19789.52
580.506	19584.73
580.704	19463.9
580.901	19490.52
581.099	19586.77
581.297	19375.83
581.495	19085.02
581.692	19265.24
581.89	19211.99
582.088	19422.94
582.285	19042.01
582.483	19209.95
582.681	19050.21
582.878	19080.92
583.076	18921.18
583.274	18994.91
583.471	18978.53
583.669	18747.11
583.866	18534.12
584.064	18577.12
584.262	18349.8
584.459	18382.57
584.657	18378.47
584.854	18495.21
585.052	18026.22
585.249	18224.87
585.447	18413.29
585.644	17952.49
585.841	17983.21
586.039	18439.91
586.236	17823.47
586.434	18044.65
586.631	17774.32
586.828	17837.81
587.026	17870.58
587.223	17667.83
587.42	17716.98
587.618	17641.2
587.815	17106.68
588.012	17637.11
588.21	17647.35
588.407	17590
588.604	17266.42
588.801	17362.68
588.999	17118.97
589.196	17334.01
589.393	17278.71
589.59	17024.76
589.787	16959.23
589.984	16983.8
590.182	16797.44
590.379	16883.45
590.576	16856.83
590.773	16963.33
590.97	16668.42
591.167	16959.23
591.364	16473.86
591.561	16576.26
591.758	16332.55
591.955	16224.01
592.152	16416.52
592.349	16299.78
592.546	16320.26
592.743	16465.67
592.94	16160.52
593.137	16287.5
593.334	16230.15
593.531	15824.65
593.727	15904.53
593.924	16013.07
594.121	15822.61
594.318	15875.85
594.515	15648.53
594.712	15724.3
594.908	15613.71
595.105	15619.86
595.302	15494.93
595.499	15828.75
595.696	15626
595.892	15558.42
596.089	15539.99
596.286	15490.84
596.482	15308.57
596.679	15367.96
596.876	15501.08
597.072	15081.24
597.269	15496.98
597.466	14808.86
597.662	14956.32
597.859	14950.17
598.055	15060.76
598.252	14982.94
598.448	15003.42
598.645	15013.66
598.841	14864.16
599.038	14989.08
599.234	14792.48
599.431	14341.93
599.627	14532.39
599.824	14786.33
600.02	14524.19
600.217	14759.71
600.413	14536.48
600.609	14432.04
600.806	14284.58
601.002	14599.97
601.198	14178.09
601.395	14266.15
601.591	14274.34
601.787	14460.71
601.984	14008.11
602.18	14114.6
602.376	13967.15
602.572	13840.17
602.769	13956.91
602.965	13940.52
603.161	13913.9
603.357	13899.56
603.553	13739.82
603.75	13782.83
603.946	13498.16
604.142	13709.1
604.338	13381.43
604.534	13719.34
604.73	13506.35
604.926	13510.45
605.122	13459.25
605.318	13420.34
605.514	13127.48
605.71	13168.44
605.906	13215.54
606.102	12994.36
606.298	13289.27
606.494	13139.77
606.69	13127.48
606.886	12998.46
607.082	12914.49
607.278	13006.65
607.474	12842.81
607.67	12941.11
607.866	12932.92
608.062	13018.94
608.257	12666.69
608.453	12701.5
608.649	12642.11
608.845	12601.15
609.041	12744.51
609.236	12611.39
609.432	12599.1
609.628	12508.99
609.824	12453.7
610.019	12420.93
610.215	12488.51
610.411	12431.17
610.606	11999.05
610.802	12347.2
610.998	12427.07
611.193	12246.85
611.389	12175.17
611.584	12109.64
611.78	12068.68
611.976	12263.24
612.171	12042.06
612.367	12068.68
612.562	11994.95
612.758	11855.69
612.953	11921.23
613.149	11931.47
613.344	11724.62
613.539	11931.47
613.735	11638.61
613.93	11755.34
614.126	11882.31
614.321	11880.27
614.517	11630.41
614.712	11642.7
614.907	11650.89
615.103	11681.61
615.298	11591.5
615.493	11693.9
615.688	11425.62
615.884	11810.64
616.079	11515.73
616.274	11517.78
616.47	11462.48
616.665	11556.69
616.86	11300.69
617.055	11405.14
617.25	11505.49
617.445	11384.66
617.641	11063.13
617.836	11419.47
618.031	11118.42
618.226	11112.28
618.421	10993.5
618.616	11188.05
618.811	10749.79
619.006	11077.46
619.201	10903.39
619.396	10874.71
619.591	10729.31
619.786	10997.59
619.981	10835.8
620.176	10948.44
620.371	10538.85
620.566	10647.39
620.761	10624.86
620.956	10512.22
621.151	10268.52
621.346	10452.83
621.541	10346.34
621.735	10387.3
621.93	10071.91
622.125	10270.56
622.32	9830.25
622.515	10137.45
622.709	10035.05
622.904	9936.74
623.099	9969.51
623.294	9850.73
623.488	9932.65
623.683	9793.39
623.878	9516.91
624.072	9783.15
624.267	9832.3
624.462	9275.25
624.656	9430.9
624.851	9488.24
625.046	9480.05
625.24	9269.11
625.435	9340.79
625.629	9168.76
625.824	9301.87
626.018	9142.13
626.213	8812.41
626.407	9113.46
626.602	8892.28
626.796	8761.21
626.991	8992.63
627.185	8718.2
627.38	8802.17
627.574	8734.59
627.768	8728.44
627.963	8472.45
628.157	8689.53
628.352	8515.45
628.546	8347.52
628.74	8300.42
628.935	8505.21
629.129	8263.55
629.323	8372.1
629.517	8308.61
629.712	8275.84
629.906	8339.33
630.1	8087.43
630.294	8122.24
630.489	8048.52
630.683	8181.64
630.877	7862.15
631.071	7919.5
631.265	7800.71
631.459	7878.54
631.653	7745.42
631.848	7819.14
632.042	7724.94
632.236	7692.17
632.43	7688.07
632.624	7749.51
632.818	7595.92
633.012	7419.79
633.206	7485.33
633.4	7530.38
633.594	7397.26
633.788	7253.91
633.982	7313.3
634.176	7268.24
634.369	7243.67
634.563	7190.42
634.757	7247.76
634.951	7120.79
635.145	7188.37
635.339	7088.02
635.533	7073.68
635.726	7047.06
635.92	6870.94
636.114	6887.32
636.308	7016.34
636.501	6784.92
636.695	6963.09
636.889	6889.37
637.083	6760.34
637.276	6819.74
637.47	6703
637.664	6768.54
637.857	6672.28
638.051	6612.89
638.244	6616.99
638.438	6426.53
638.632	6463.39
638.825	6338.46
639.019	6268.83
639.212	6350.75
639.406	6307.74
639.599	6215.59
639.793	6274.98
639.986	6072.23
640.18	6240.16
640.373	6133.67
640.567	6010.79
640.76	6100.9
640.954	5947.3
641.147	6043.56
641.34	6018.98
641.534	5773.22
641.727	5889.96
641.92	5961.64
642.114	5957.54
642.307	5664.68
642.5	5597.1
642.694	5705.64
642.887	5676.97
643.08	5621.67
643.273	5509.04
643.467	5689.26
643.66	5455.79
643.853	5347.25
644.046	5316.53
644.239	5423.02
644.432	5423.02
644.626	5343.15
644.819	5326.77
645.012	5283.76
645.205	5253.04
645.398	5294
645.591	5205.94
645.784	5261.23
645.977	5121.97
646.17	5068.72
646.363	5056.43
646.556	4859.83
646.749	4923.32
646.942	4986.8
647.135	4970.42
647.328	4937.65
647.521	4855.73
647.714	4859.83
647.907	4865.97
648.099	4786.1
648.292	4818.87
648.485	4777.91
648.678	4749.24
648.871	4495.29
649.064	4687.8
649.256	4718.52
649.449	4693.94
649.642	4542.39
649.835	4442.04
650.027	4579.26
650.22	4562.87
650.413	4593.59
650.605	4431.8
650.798	4413.37
650.991	4310.97
651.183	4437.95
651.376	4325.31
651.568	4351.93
651.761	4304.83
651.954	4358.08
652.146	4376.51
652.339	4235.2
652.531	4210.62
652.724	4216.77
652.916	3919.81
653.109	4087.75
653.301	4083.65
653.494	4161.47
653.686	4065.22
653.879	4136.9
654.071	4001.73
654.263	3968.96
654.456	4081.6
654.648	3966.92
654.84	4014.02
655.033	3952.58
655.225	3944.39
655.417	3708.87
655.61	3913.67
655.802	3844.04
655.994	3895.24
656.186	3770.31
656.379	3629
656.571	3755.97
656.763	3674.06
656.955	3661.77
657.148	3745.73
657.34	3649.48
657.532	3626.95
657.724	3542.99
657.916	3567.56
658.108	3616.71
658.3	3364.81
658.492	3510.22
658.684	3420.11
658.876	3434.44
659.068	3497.93
659.26	3522.51
659.452	3397.58
659.644	3542.99
659.836	3403.72
660.028	3323.85
660.22	3307.47
660.412	3227.6
660.604	3219.41
660.796	3215.31
660.988	3184.59
661.18	3194.83
661.372	3172.3
661.563	3295.18
661.755	3133.39
661.947	3190.74
662.139	3188.69
662.331	3133.39
662.522	3045.33
662.714	3123.15
662.906	2973.65
663.097	3033.04
663.289	3047.38
663.481	2979.79
663.673	2971.6
663.864	2934.74
664.056	2916.31
664.247	3084.24
664.439	2834.39
664.631	2926.55
664.822	3018.71
665.014	2830.29
665.205	2897.88
665.397	2820.05
665.588	2815.96
665.78	2901.97
665.971	2795.48
666.163	2824.15
666.354	2715.61
666.546	2699.22
666.737	2725.85
666.929	2779.09
667.12	2727.89
667.311	2615.26
667.503	2623.45
667.694	2705.37
667.885	2672.6
668.077	2559.96
668.268	2615.26
668.459	2641.88
668.651	2541.53
668.842	2670.55
669.033	2588.63
669.224	2654.17
669.416	2549.72
669.607	2572.25
669.798	2488.28
669.989	2645.98
670.18	2566.1
670.371	2449.37
670.563	2484.19
670.754	2385.88
670.945	2541.53
671.136	2375.64
671.327	2398.17
671.518	2418.65
671.709	2330.59
671.9	2377.69
672.091	2279.39
672.282	2406.36
672.473	2389.98
672.664	2369.5
672.855	2371.55
673.046	2316.25
673.237	2371.55
673.428	2250.72
673.619	2330.59
673.809	2342.88
674	2328.54
674.191	2357.21
674.382	2277.34
674.573	2240.48
674.764	2277.34
674.954	2316.25
675.145	2269.15
675.336	2228.19
675.527	2332.64
675.717	2363.36
675.908	2172.89
676.099	2240.48
676.289	2217.95
676.48	2060.26
676.671	2187.23
676.861	2291.68
677.052	2179.04
677.243	2252.77
677.433	2172.89
677.624	2154.46
677.814	2277.34
678.005	2191.33
678.195	2111.46
678.386	2283.49
678.576	2160.61
678.767	2148.32
678.957	2111.46
679.148	2160.61
679.338	2133.98
679.529	2111.46
679.719	2111.46
679.909	2103.26
680.1	2050.02
680.29	2021.35
680.481	2195.42
680.671	2146.27
680.861	2023.39
681.052	2242.53
681.242	2019.3
681.432	2111.46
681.622	2058.21
681.813	2041.82
682.003	1964
682.193	2031.58
682.383	1970.15
682.573	1931.23
682.764	1935.33
682.954	2025.44
683.144	2146.27
683.334	2004.96
683.524	1945.57
683.714	1953.76
683.904	2062.3
684.094	2060.26
684.284	2019.3
684.474	1953.76
684.664	2039.78
684.854	2054.11
685.044	2105.31
685.234	2019.3
685.424	2007.01
685.614	1920.99
685.804	2047.97
685.994	2002.91
686.184	1906.66
686.374	1888.23
686.564	1947.62
686.753	1918.95
686.943	1961.95
687.133	1906.66
687.323	1982.43
687.513	1974.24
687.702	1994.72
687.892	1925.09
688.082	1957.86
688.272	2007.01
688.461	1857.51
688.651	2013.15
688.841	1855.46
689.03	1859.56
689.22	1863.65
689.41	1914.85
689.599	1916.9
689.789	1888.23
689.979	1871.84
690.168	1910.75
690.358	1804.26
690.547	1941.47
690.737	1861.6
690.926	1986.53
691.116	1908.71
691.305	1871.84
691.495	1902.56
691.684	1785.83
691.874	1855.46
692.063	1742.82
692.252	1824.74
692.442	1875.94
692.631	1890.28
692.82	1716.2
693.01	1880.04
693.199	1824.74
693.388	1740.77
693.578	1716.2
693.767	1839.08
693.956	1851.36
694.146	1824.74
694.335	1830.88
694.524	1751.01
694.713	1757.16
694.902	1863.65
695.092	1834.98
695.281	1892.32
695.47	1812.45
695.659	1765.35
695.848	1783.78
696.037	1806.31
696.226	1802.21
696.415	1734.63
696.604	1896.42
696.793	1894.37
696.982	1904.61
697.171	1783.78
697.36	1859.56
697.549	1853.41
697.738	1791.97
697.927	1806.31
698.116	1771.49
698.305	1875.94
698.494	1732.58
698.683	1763.3
698.872	1794.02
699.061	1875.94
699.25	1763.3
699.438	1818.6
699.627	1820.64
699.816	1853.41
700.005	1701.86
700.193	1816.55
700.382	1869.8
700.571	1877.99
700.76	1777.64
700.948	1935.33
701.137	1789.92
701.326	1871.84
701.514	1697.77
701.703	1789.92
701.892	1865.7
702.08	1892.32
702.269	1828.84
702.457	1839.08
702.646	1738.73
702.834	1789.92
703.023	1810.4
703.212	1763.3
703.4	1804.26
703.589	1751.01
703.777	1775.59
703.965	1761.25
704.154	1697.77
704.342	1746.92
704.531	1771.49
704.719	1710.05
704.907	1865.7
705.096	1804.26
705.284	1783.78
705.472	1812.45
705.661	1751.01
705.849	1732.58
706.037	1732.58
706.226	1820.64
706.414	1757.16
706.602	1683.43
706.79	1806.31
706.979	1673.19
707.167	1708.01
707.355	1665
707.543	1662.95
707.731	1718.25
707.919	1708.01
708.107	1609.7
708.296	1736.68
708.484	1621.99
708.672	1763.3
708.86	1720.29
709.048	1736.68
709.236	1720.29
709.424	1630.18
709.612	1679.33
709.8	1609.7
709.988	1646.57
710.176	1685.48
710.364	1685.48
710.551	1691.62
710.739	1669.09
710.927	1601.51
711.115	1628.14
711.303	1648.61
711.491	1619.94
711.679	1611.75
711.866	1601.51
712.054	1619.94
712.242	1718.25
712.43	1550.31
712.617	1574.89
712.805	1603.56
712.993	1595.37
713.181	1574.89
713.368	1583.08
713.556	1480.68
713.744	1660.9
713.931	1605.61
714.119	1449.96
714.306	1656.81
714.494	1601.51
714.682	1601.51
714.869	1619.94
715.057	1603.56
715.244	1472.49
715.432	1499.11
715.619	1519.59
715.807	1585.13
715.994	1480.68
716.182	1497.07
716.369	1517.54
716.556	1513.45
716.744	1544.17
716.931	1572.84
717.119	1501.16
717.306	1533.93
717.493	1406.95
717.681	1546.22
717.868	1515.5
718.055	1435.63
718.242	1406.95
718.43	1554.41
718.617	1490.92
718.804	1497.07
718.991	1507.31
719.179	1388.52
719.366	1478.63
719.553	1366
719.74	1415.15
719.927	1458.15
720.114	1449.96
720.301	1361.9
720.488	1431.53
720.676	1304.56
720.863	1400.81
721.05	1423.34
721.237	1406.95
721.424	1472.49
721.611	1417.19
721.798	1396.71
721.985	1335.28
722.172	1439.72
722.358	1447.91
722.545	1343.47
722.732	1353.71
722.919	1279.98
723.106	1316.84
723.293	1316.84
723.48	1402.86
723.667	1331.18
723.853	1335.28
724.04	1427.43
724.227	1302.51
724.414	1361.9
724.6	1320.94
724.787	1294.32
724.974	1406.95
725.161	1359.85
725.347	1316.84
725.534	1304.56
725.72	1310.7
725.907	1251.31
726.094	1279.98
726.28	1263.6
726.467	1220.59
726.653	1275.88
726.84	1267.69
727.027	1337.32
727.213	1312.75
727.4	1343.47
727.586	1296.36
727.773	1376.23
727.959	1275.88
728.145	1294.32
728.332	1265.64
728.518	1214.45
728.705	1337.32
728.891	1241.07
729.077	1294.32
729.264	1226.73
729.45	1206.25
729.636	1230.83
729.823	1175.53
730.009	1279.98
730.195	1193.97
730.382	1226.73
730.568	1265.64
730.754	1198.06
730.94	1202.16
731.126	1161.2
731.313	1329.13
731.499	1239.02
731.685	1196.01
731.871	1146.86
732.057	1171.44
732.243	1175.53
732.429	1206.25
732.615	1200.11
732.801	1208.3
732.987	1105.9
733.173	1167.34
733.359	1161.2
733.545	1140.72
733.731	1169.39
733.917	1075.18
734.103	1144.81
734.289	1153.01
734.475	1198.06
734.661	1173.49
734.847	1122.29
735.033	1167.34
735.219	1202.16
735.404	1148.91
735.59	1167.34
735.776	1138.67
735.962	1187.82
736.148	1042.42
736.333	1091.57
736.519	1179.63
736.705	1095.66
736.89	1064.94
737.076	1142.77
737.262	1138.67
737.447	1148.91
737.633	995.31
737.819	1036.27
738.004	1054.7
738.19	1110
738.375	1243.12
738.561	1073.14
738.747	1032.18
738.932	1054.7
739.118	1036.27
739.303	1116.14
739.489	1112.05
739.674	1083.38
739.859	997.36
740.045	1091.57
740.23	1038.32
740.416	987.12
740.601	1142.77
740.786	1075.18
740.972	1062.9
741.157	1023.98
741.342	997.36
741.528	960.5
741.713	1087.47
741.898	1050.61
742.084	1040.37
742.269	1042.42
742.454	1038.32
742.639	958.45
742.824	940.02
743.01	1048.56
743.195	972.79
743.38	929.78
743.565	942.07
743.75	931.83
743.935	862.19
744.12	960.5
744.305	901.11
744.49	944.11
744.675	913.39
744.86	911.35
745.045	935.92
745.23	845.81
745.415	890.87
745.6	944.11
745.785	905.2
745.97	858.1
746.155	897.01
746.34	839.67
746.525	935.92
746.71	892.91
746.895	946.16
747.079	782.32
747.264	835.57
747.449	921.59
747.634	829.43
747.819	858.1
748.003	823.28
748.188	905.2
748.373	862.19
748.557	880.63
748.742	876.53
748.927	856.05
749.111	811
749.296	757.75
749.481	755.7
749.665	823.28
749.85	761.84
750.034	858.1
750.219	774.13
750.404	802.8
750.588	788.47
750.773	782.32
750.957	743.41
751.141	815.09
751.326	724.98
751.51	755.7
751.695	745.46
751.879	708.6
752.064	731.12
752.248	811
752.432	698.36
752.617	630.77
752.801	749.56
752.985	720.88
753.17	741.36
753.354	722.93
753.538	681.97
753.722	731.12
753.907	626.68
754.091	620.53
754.275	671.73
754.459	694.26
754.643	653.3
754.828	747.51
755.012	606.2
755.196	657.4
755.38	643.06
755.564	610.29
755.748	626.68
755.932	684.02
756.116	665.59
756.3	616.44
756.484	636.92
756.668	575.48
756.852	591.86
757.036	598.01
757.22	579.58
757.404	595.96
757.588	620.53
757.772	653.3
757.956	610.29
758.14	665.59
758.323	571.38
758.507	563.19
758.691	555
758.875	628.73
759.059	514.04
759.242	581.62
759.426	552.95
759.61	598.01
759.794	557.05
759.977	628.73
760.161	528.38
760.345	501.75
760.528	550.9
760.712	548.86
760.895	595.96
761.079	583.67
761.263	561.14
761.446	473.08
761.63	542.71
761.813	483.32
761.997	575.48
762.18	522.23
762.364	538.62
762.547	491.51
762.731	571.38
762.914	511.99
763.098	573.43
763.281	548.86
763.464	526.33
763.648	585.72
763.831	548.86
764.015	468.98
764.198	507.9
764.381	489.46
764.564	518.14
764.748	559.1
764.931	473.08
765.114	444.41
765.297	471.03
765.481	452.6
765.664	526.33
765.847	485.37
766.03	421.88
766.213	452.6
766.397	489.46
766.58	397.31
766.763	485.37
766.946	462.84
767.129	485.37
767.312	479.22
767.495	575.48
767.678	538.62
767.861	577.53
768.044	530.42
768.227	479.22
768.41	425.98
768.593	434.17
768.776	532.47
768.959	499.7
769.142	468.98
769.324	452.6
769.507	430.07
769.69	434.17
769.873	540.66
770.056	454.65
770.239	503.8
770.421	555
770.604	339.96
770.787	415.74
770.97	471.03
771.152	399.35
771.335	434.17
771.518	450.55
771.7	514.04
771.883	423.93
772.066	368.63
772.248	471.03
772.431	509.94
772.613	468.98
772.796	417.79
772.978	479.22
773.161	382.97
773.343	456.7
773.526	370.68
773.708	462.84
773.891	354.3
774.073	368.63
774.256	415.74
774.438	372.73
774.621	387.07
774.803	342.01
774.985	421.88
775.168	358.39
775.35	387.07
775.532	372.73
775.715	364.54
775.897	358.39
776.079	331.77
776.261	335.87
776.444	389.11
776.626	356.35
776.808	366.59
776.99	376.83
777.173	370.68
777.355	362.49
777.537	337.91
777.719	380.92
777.901	350.2
778.083	331.77
778.265	380.92
778.447	337.91
778.629	315.39
778.811	372.73
778.993	286.72
779.175	368.63
779.357	403.45
779.539	303.1
779.721	397.31
779.903	372.73
780.085	210.94
780.267	311.29
780.449	335.87
780.631	337.91
780.812	272.38
780.994	256
781.176	268.28
781.358	270.33
781.54	305.15
781.721	354.3
781.903	272.38
782.085	325.63
782.267	329.72
782.448	266.24
782.63	258.04
782.812	243.71
782.993	221.18
783.175	243.71
783.357	301.05
783.538	268.28
783.72	239.61
783.901	280.57
784.083	247.8
784.264	329.72
784.446	208.89
784.627	204.8
784.809	264.19
784.99	256
785.172	247.8
785.353	208.89
785.535	268.28
785.716	231.42
785.897	225.28
786.079	335.87
786.26	335.87
786.441	247.8
786.623	288.76
786.804	280.57
786.985	313.34
787.167	217.08
787.348	208.89
787.529	241.66
787.71	217.08
787.891	208.89
788.073	167.93
788.254	239.61
788.435	212.99
788.616	178.17
788.797	212.99
788.978	225.28
789.159	190.46
789.34	260.09
789.522	190.46
789.703	237.56
789.884	233.47
790.065	208.89
790.246	258.04
790.427	178.17
790.607	223.23
790.788	223.23
790.969	200.7
791.15	182.27
791.331	188.41
791.512	215.04
791.693	165.89
791.874	192.51
792.054	178.17
792.235	235.52
792.416	182.27
792.597	237.56
792.778	145.41
792.958	221.18
793.139	243.71
793.32	221.18
793.5	126.97
793.681	159.74
793.862	172.03
794.042	247.8
794.223	196.61
794.404	186.37
794.584	215.04
794.765	190.46
794.945	186.37
795.126	169.98
795.306	149.5
795.487	188.41
795.667	151.55
795.848	188.41
796.028	126.97
796.209	169.98
796.389	176.13
796.57	165.89
796.75	188.41
796.93	120.83
797.111	112.64
797.291	217.08
797.471	96.25
797.652	198.65
797.832	129.02
798.012	106.49
798.192	88.06
798.373	135.17
798.553	104.45
798.733	151.55
798.913	167.93
799.093	126.97
799.274	96.25
799.454	139.26
799.634	116.73
799.814	110.59
799.994	92.16
800.174	129.02
800.354	180.22
800.534	206.84
800.714	110.59
800.894	114.69
801.074	79.87
801.254	145.41
801.434	157.69
801.614	12.29
801.794	239.61
801.974	434.17
802.154	47.1
802.334	145.41
802.514	112.64
802.693	161.79
802.873	118.78
803.053	163.84
803.233	75.77
803.413	182.27
803.592	135.17
803.772	114.69
803.952	73.73
804.131	124.93
804.311	172.03
804.491	116.73
804.67	34.82
804.85	133.12
805.03	131.07
805.209	124.93
805.389	55.3
805.568	165.89
805.748	120.83
805.928	49.15
806.107	157.69
806.287	77.82
806.466	100.35
806.646	81.92
806.825	69.63
807.004	104.45
807.184	73.73
807.363	55.3
807.543	178.17
807.722	38.91
807.901	165.89
808.081	133.12
808.26	30.72
808.439	161.79
808.619	110.59
808.798	182.27
808.977	51.2
809.156	94.21
809.336	126.97
809.515	141.31
809.694	114.69
809.873	90.11
810.052	43.01
810.231	147.45
810.411	96.25
810.59	137.21
810.769	45.06
810.948	47.1
811.127	75.77
811.306	176.13
811.485	69.63
811.664	122.88
811.843	102.4
812.022	126.97
812.201	169.98
812.38	83.97
812.559	81.92
812.737	174.08
812.916	77.82
813.095	94.21
813.274	65.54
813.453	88.06
813.632	108.54
813.811	86.01
813.989	81.92
814.168	86.01
814.347	118.78
814.526	67.58
814.704	110.59
814.883	116.73
815.062	38.91
815.24	94.21
815.419	65.54
815.598	118.78
815.776	47.1
815.955	73.73
816.133	86.01
816.312	112.64
816.49	79.87
816.669	57.34
816.847	59.39
817.026	55.3
817.204	81.92
817.383	49.15
817.561	51.2
817.74	90.11
817.918	69.63
818.097	120.83
818.275	63.49
818.453	61.44
818.632	81.92
818.81	88.06
818.988	81.92
819.167	24.58
819.345	69.63
819.523	94.21
819.701	73.73
819.879	100.35
820.058	110.59
820.236	124.93
820.414	81.92
820.592	53.25
820.77	100.35
820.948	96.25
821.127	73.73
821.305	69.63
821.483	51.2
821.661	77.82
821.839	79.87
822.017	98.3
822.195	47.1
822.373	94.21
822.551	73.73
822.729	133.12
822.907	75.77
823.085	47.1
823.262	75.77
823.44	75.77
823.618	120.83
823.796	65.54
823.974	137.21
824.152	30.72
824.329	18.43
824.507	120.83
824.685	83.97
824.863	-2.05
825.04	49.15
825.218	129.02
825.396	45.06
825.574	8.19
825.751	94.21
825.929	36.86
826.107	151.55
826.284	75.77
826.462	55.3
826.639	147.45
826.817	86.01
826.994	88.06
827.172	71.68
827.349	69.63
827.527	2.05
827.704	63.49
827.882	10.24
828.059	159.74
828.237	122.88
828.414	77.82
828.591	59.39
828.769	63.49
828.946	2.05
829.124	75.77
829.301	77.82
829.478	110.59
829.655	126.97
829.833	75.77
830.01	32.77
830.187	16.38
830.364	71.68
830.542	47.1
830.719	122.88
830.896	169.98
831.073	8.19
831.25	75.77
831.427	49.15
831.604	47.1
831.782	4.1
831.959	43.01
832.136	73.73
832.313	34.82
832.49	120.83
832.667	38.91
832.844	83.97
833.021	-4.1
833.198	47.1
833.374	47.1
833.551	51.2
833.728	79.87
833.905	34.82
834.082	-14.34
834.259	69.63
834.436	30.72
834.612	45.06
834.789	47.1
834.966	-2.05
835.143	14.34
835.319	86.01
835.496	4.1
835.673	18.43
835.85	104.45
836.026	75.77
836.203	12.29
836.38	63.49
836.556	61.44
836.733	75.77
836.909	18.43
837.086	-71.68
837.262	108.54
837.439	47.1
837.616	61.44
837.792	14.34
837.968	77.82
838.145	92.16
838.321	43.01
838.498	12.29
838.674	106.49
838.851	-14.34
839.027	79.87
839.203	63.49
839.38	65.54
839.556	65.54
839.732	47.1
839.909	-18.43
840.085	40.96
840.261	26.62
840.437	47.1
840.614	94.21
840.79	28.67
840.966	-20.48
841.142	75.77
841.318	16.38
841.494	59.39
841.671	69.63
841.847	32.77
842.023	26.62
842.199	-4.1
842.375	49.15
842.551	65.54
842.727	-24.58
842.903	45.06
843.079	20.48
843.255	81.92
843.431	90.11
843.607	57.34
843.783	47.1
843.959	-8.19
844.134	26.62
844.31	53.25
844.486	61.44
844.662	14.34
844.838	6.14
845.013	61.44
845.189	43.01
845.365	18.43
845.541	49.15
845.716	6.14
845.892	40.96
846.068	-10.24
846.244	59.39
846.419	65.54
846.595	26.62
846.77	43.01
846.946	126.97
847.122	34.82
847.297	57.34
847.473	75.77
847.648	26.62
847.824	43.01
847.999	22.53
848.175	-12.29
848.35	-43.01
848.526	10.24
848.701	36.86
848.876	53.25
849.052	-2.05
849.227	20.48
849.403	22.53
849.578	51.2
849.753	4.1
849.929	6.14
850.104	-61.44
850.279	63.49
850.454	30.72
850.63	-4.1
850.805	55.3
850.98	63.49
851.155	63.49
851.33	30.72
851.505	4.1
851.681	24.58
851.856	30.72
852.031	75.77
852.206	43.01
852.381	55.3
852.556	12.29
852.731	14.34
852.906	79.87
853.081	71.68
853.256	36.86
853.431	-51.2
853.606	14.34
853.781	65.54
853.956	45.06
854.131	49.15
854.305	38.91
854.48	-10.24
854.655	67.58
854.83	-26.62
855.005	30.72
855.18	57.34
855.354	-14.34
855.529	47.1
855.704	-43.01
855.879	32.77
856.053	22.53
856.228	71.68
856.403	18.43
856.577	55.3
856.752	49.15
856.926	90.11
857.101	8.19
857.276	-4.1
857.45	10.24
857.625	-24.58
857.799	-34.82
857.974	16.38
858.148	61.44
858.323	49.15
858.497	38.91
858.672	47.1
858.846	-14.34
859.02	94.21
859.195	40.96
859.369	83.97
859.543	63.49
859.718	53.25
859.892	22.53
860.066	-18.43
860.241	22.53
860.415	40.96
860.589	47.1
860.763	-22.53
860.938	38.91
861.112	28.67
861.286	38.91
861.46	-6.14
861.634	6.14
861.808	36.86
861.982	22.53
862.157	57.34
862.331	-24.58
862.505	-16.38
862.679	-53.25
862.853	16.38
863.027	28.67
863.201	22.53
863.375	32.77
863.549	14.34
863.722	79.87
863.896	59.39
864.07	16.38
864.244	14.34
864.418	22.53
864.592	69.63
864.766	67.58
864.939	28.67
865.113	4.1
865.287	14.34
865.461	-2.05
865.634	30.72
865.808	47.1
865.982	0
866.156	24.58
866.329	94.21
866.503	20.48
866.676	-8.19
866.85	-16.38
867.024	-8.19
867.197	36.86
867.371	20.48
867.544	-10.24
867.718	-4.1
867.891	47.1
868.065	10.24
868.238	-86.01
868.412	-8.19
868.585	-40.96
868.759	69.63
868.932	14.34
869.105	20.48
869.279	26.62
869.452	47.1
869.625	20.48
869.799	6.14
869.972	-4.1
870.145	14.34
870.319	2.05
870.492	10.24
870.665	-20.48
870.838	24.58
871.011	16.38
871.185	124.93
871.358	16.38
871.531	43.01
871.704	2.05
871.877	-34.82
872.05	-38.91
872.223	22.53
872.396	-12.29
872.569	51.2
872.742	47.1
872.915	36.86
873.088	-14.34
873.261	24.58
873.434	-43.01
873.607	30.72
873.78	6.14
873.953	10.24
874.126	-14.34
874.299	18.43
874.471	57.34
874.644	20.48
874.817	133.12
874.99	28.67
875.163	8.19
875.335	12.29
875.508	69.63
875.681	12.29
875.853	0
876.026	-16.38
876.199	51.2
876.371	65.54
876.544	-12.29
876.717	49.15
876.889	61.44
877.062	2.05
877.234	-12.29
877.407	-16.38
877.579	53.25
877.752	51.2
877.924	36.86
878.097	-4.1
878.269	8.19
878.442	22.53
878.614	-18.43
878.786	51.2
878.959	6.14
879.131	63.49
879.303	73.73
879.476	88.06
879.648	-22.53
879.82	30.72
879.993	10.24
880.165	53.25
880.337	-47.1
880.509	73.73
880.681	-12.29
880.854	-6.14
881.026	2.05
881.198	6.14
881.37	51.2
881.542	71.68
881.714	67.58
881.886	14.34
882.058	-16.38
882.23	-55.3
882.402	28.67
882.574	6.14
882.746	30.72
882.918	24.58
883.09	-40.96
883.262	-22.53
883.434	-2.05
883.606	10.24
883.778	-4.1
883.95	12.29
884.122	12.29
884.293	-32.77
884.465	24.58
884.637	36.86
884.809	-26.62
884.98	0
885.152	63.49
885.324	18.43
885.496	-10.24
885.667	4.1
885.839	47.1
886.011	55.3
886.182	18.43
886.354	77.82
886.525	12.29
886.697	47.1
886.869	16.38
887.04	-28.67
887.212	47.1
887.383	100.35
887.555	-28.67
887.726	-30.72
887.897	-2.05
888.069	47.1
888.24	16.38
888.412	69.63
888.583	49.15
888.754	-16.38
888.926	-49.15
889.097	24.58
889.268	-63.49
889.44	59.39
889.611	-16.38
889.782	-18.43
889.953	106.49
890.125	34.82
890.296	63.49
890.467	10.24
890.638	30.72
890.809	55.3
890.98	32.77
891.151	0
891.323	26.62
891.494	34.82
891.665	-30.72
891.836	55.3
892.007	102.4
892.178	30.72
892.349	14.34
892.52	0
892.691	-4.1
892.862	-36.86
893.032	-79.87
893.203	-36.86
893.374	14.34
893.545	26.62
893.716	-51.2
893.887	30.72
894.057	16.38
894.228	-2.05
894.399	24.58
894.57	34.82
894.74	-12.29
894.911	12.29
895.082	-28.67
895.253	43.01
895.423	-40.96
895.594	75.77
895.764	22.53
895.935	-12.29
896.106	51.2
896.276	26.62
896.447	-63.49
896.617	57.34
896.788	-8.19
896.958	2.05
897.129	6.14
897.299	30.72
897.47	6.14
897.64	36.86
897.81	16.38
897.981	-18.43
898.151	16.38
898.322	-28.67
898.492	18.43
898.662	0
898.832	-18.43
899.003	24.58
899.173	18.43
899.343	22.53
899.513	-63.49
