Data from USB4F104151__117__13-55-01-886.txt Node

Date: Thu Mar 13 13:55:01 EDT 2025
User: louis
Spectrometer: USB4F10415
Trigger mode: 4
Integration Time (sec): 1.000000E-2
Scans to average: 1
Electric dark correction enabled: true
Nonlinearity correction enabled: false
Boxcar width: 0
XAxis mode: Wavelengths
Number of Pixels in Spectrum: 3648
>>>>>Begin Spectral Data<<<<<
178.204	-1.54
178.424	-1.54
178.644	-1.54
178.864	-69.12
179.084	-81.41
179.304	-5.63
179.524	10.75
179.744	23.04
179.964	14.85
180.184	-28.16
180.404	47.62
180.624	-11.78
180.844	-17.92
181.064	-28.16
181.283	16.9
181.503	-38.4
181.723	16.9
181.943	-46.59
182.163	88.57
182.383	59.9
182.602	12.8
182.822	27.14
183.042	33.28
183.262	74.24
183.482	4.61
183.701	74.24
183.921	18.94
184.141	0.51
184.361	35.33
184.58	70.14
184.8	-62.98
185.02	53.76
185.239	14.85
185.459	-95.74
185.679	29.18
185.898	37.38
186.118	-7.68
186.338	10.75
186.557	35.33
186.777	31.23
186.997	8.7
187.216	55.81
187.436	84.48
187.655	78.33
187.875	18.94
188.095	29.18
188.314	-9.73
188.534	76.29
188.753	-3.58
188.973	-17.92
189.192	70.14
189.412	-42.5
189.631	51.71
189.851	39.42
190.07	41.47
190.29	0.51
190.509	-11.78
190.729	-5.63
190.948	23.04
191.168	49.66
191.387	20.99
191.607	6.66
191.826	8.7
192.045	57.86
192.265	98.81
192.484	86.53
192.704	57.86
192.923	88.57
193.142	-36.35
193.362	-7.68
193.581	117.25
193.8	84.48
194.02	96.77
194.239	16.9
194.458	31.23
194.678	45.57
194.897	4.61
195.116	20.99
195.335	53.76
195.555	33.28
195.774	-22.02
195.993	-54.78
196.212	78.33
196.432	-32.26
196.651	41.47
196.87	33.28
197.089	33.28
197.308	18.94
197.528	47.62
197.747	53.76
197.966	43.52
198.185	16.9
198.404	-24.06
198.623	82.43
198.842	53.76
199.062	14.85
199.281	23.04
199.5	37.38
199.719	16.9
199.938	37.38
200.157	10.75
200.376	59.9
200.595	102.91
200.814	41.47
201.033	-5.63
201.252	16.9
201.471	8.7
201.69	41.47
201.909	14.85
202.128	-1.54
202.347	51.71
202.566	72.19
202.785	25.09
203.004	80.38
203.223	47.62
203.442	-34.3
203.661	12.8
203.879	-50.69
204.098	2.56
204.317	2.56
204.536	98.81
204.755	35.33
204.974	-42.5
205.193	29.18
205.411	59.9
205.63	-48.64
205.849	68.09
206.068	-26.11
206.287	43.52
206.505	47.62
206.724	131.58
206.943	53.76
207.162	74.24
207.381	39.42
207.599	6.66
207.818	2.56
208.037	35.33
208.255	0.51
208.474	16.9
208.693	10.75
208.911	-24.06
209.13	-36.35
209.349	6.66
209.567	-3.58
209.786	51.71
210.005	-3.58
210.223	43.52
210.442	-3.58
210.661	20.99
210.879	59.9
211.098	4.61
211.316	39.42
211.535	51.71
211.753	-38.4
211.972	45.57
212.191	33.28
212.409	6.66
212.628	37.38
212.846	16.9
213.065	16.9
213.283	64
213.502	-46.59
213.72	-54.78
213.938	12.8
214.157	-1.54
214.375	37.38
214.594	84.48
214.812	2.56
215.031	33.28
215.249	12.8
215.467	49.66
215.686	-24.06
215.904	82.43
216.122	-7.68
216.341	18.94
216.559	-13.82
216.778	43.52
216.996	51.71
217.214	37.38
217.432	-36.35
217.651	-28.16
217.869	4.61
218.087	2.56
218.306	53.76
218.524	33.28
218.742	-7.68
218.96	66.05
219.179	-9.73
219.397	-26.11
219.615	-38.4
219.833	14.85
220.051	-38.4
220.27	-40.45
220.488	57.86
220.706	55.81
220.924	-19.97
221.142	33.28
221.36	64
221.578	-11.78
221.796	68.09
222.015	4.61
222.233	2.56
222.451	139.77
222.669	-56.83
222.887	20.99
223.105	64
223.323	61.95
223.541	86.53
223.759	78.33
223.977	-11.78
224.195	78.33
224.413	-15.87
224.631	31.23
224.849	27.14
225.067	76.29
225.285	20.99
225.503	35.33
225.721	12.8
225.939	-15.87
226.157	33.28
226.375	47.62
226.592	-22.02
226.81	57.86
227.028	64
227.246	109.05
227.464	2.56
227.682	33.28
227.9	43.52
228.117	57.86
228.335	31.23
228.553	-15.87
228.771	41.47
228.989	25.09
229.206	51.71
229.424	72.19
229.642	-9.73
229.86	16.9
230.077	45.57
230.295	90.62
230.513	29.18
230.731	70.14
230.948	12.8
231.166	-19.97
231.384	-5.63
231.601	90.62
231.819	43.52
232.037	-38.4
232.254	47.62
232.472	33.28
232.689	16.9
232.907	37.38
233.125	-13.82
233.342	74.24
233.56	61.95
233.777	-24.06
233.995	25.09
234.213	88.57
234.43	74.24
234.648	-7.68
234.865	0.51
235.083	-19.97
235.3	8.7
235.518	45.57
235.735	-58.88
235.953	27.14
236.17	-3.58
236.388	-62.98
236.605	-15.87
236.822	37.38
237.04	76.29
237.257	78.33
237.475	14.85
237.692	47.62
237.909	49.66
238.127	45.57
238.344	61.95
238.562	31.23
238.779	-1.54
238.996	8.7
239.214	18.94
239.431	96.77
239.648	10.75
239.865	76.29
240.083	-46.59
240.3	57.86
240.517	2.56
240.735	41.47
240.952	51.71
241.169	27.14
241.386	47.62
241.603	-9.73
241.821	-24.06
242.038	8.7
242.255	20.99
242.472	27.14
242.689	12.8
242.907	78.33
243.124	8.7
243.341	33.28
243.558	-1.54
243.775	121.34
243.992	-11.78
244.209	39.42
244.426	27.14
244.643	25.09
244.86	-3.58
245.078	14.85
245.295	-22.02
245.512	49.66
245.729	31.23
245.946	57.86
246.163	33.28
246.38	-1.54
246.597	31.23
246.814	14.85
247.031	10.75
247.248	6.66
247.464	16.9
247.681	74.24
247.898	84.48
248.115	-69.12
248.332	-9.73
248.549	84.48
248.766	45.57
248.983	33.28
249.2	16.9
249.417	107.01
249.633	61.95
249.85	82.43
250.067	35.33
250.284	16.9
250.501	16.9
250.717	45.57
250.934	-34.3
251.151	35.33
251.368	-34.3
251.585	10.75
251.801	51.71
252.018	72.19
252.235	2.56
252.451	-7.68
252.668	16.9
252.885	94.72
253.102	35.33
253.318	33.28
253.535	10.75
253.752	12.8
253.968	61.95
254.185	35.33
254.401	31.23
254.618	57.86
254.835	45.57
255.051	12.8
255.268	-1.54
255.484	27.14
255.701	4.61
255.917	33.28
256.134	27.14
256.351	25.09
256.567	-24.06
256.784	27.14
257	-24.06
257.217	61.95
257.433	37.38
257.65	6.66
257.866	-1.54
258.082	39.42
258.299	29.18
258.515	-1.54
258.732	117.25
258.948	-15.87
259.165	39.42
259.381	49.66
259.597	43.52
259.814	39.42
260.03	47.62
260.246	-13.82
260.463	10.75
260.679	18.94
260.895	-7.68
261.112	92.67
261.328	51.71
261.544	23.04
261.761	8.7
261.977	33.28
262.193	2.56
262.409	82.43
262.626	61.95
262.842	88.57
263.058	20.99
263.274	80.38
263.49	88.57
263.707	66.05
263.923	18.94
264.139	47.62
264.355	33.28
264.571	90.62
264.787	20.99
265.004	68.09
265.22	8.7
265.436	-9.73
265.652	41.47
265.868	94.72
266.084	25.09
266.3	53.76
266.516	29.18
266.732	25.09
266.948	2.56
267.164	47.62
267.38	37.38
267.596	55.81
267.812	2.56
268.028	94.72
268.244	27.14
268.46	-11.78
268.676	2.56
268.892	27.14
269.108	39.42
269.324	-11.78
269.54	-5.63
269.756	-1.54
269.972	80.38
270.188	-28.16
270.403	-32.26
270.619	25.09
270.835	37.38
271.051	23.04
271.267	-19.97
271.483	14.85
271.698	-7.68
271.914	12.8
272.13	-13.82
272.346	70.14
272.562	39.42
272.777	51.71
272.993	49.66
273.209	23.04
273.425	12.8
273.64	137.73
273.856	-13.82
274.072	-42.5
274.287	74.24
274.503	-1.54
274.719	-85.5
274.934	57.86
275.15	-28.16
275.366	-15.87
275.581	8.7
275.797	8.7
276.012	-3.58
276.228	55.81
276.444	2.56
276.659	68.09
276.875	-13.82
277.09	43.52
277.306	4.61
277.521	64
277.737	111.1
277.952	-11.78
278.168	-7.68
278.383	-13.82
278.599	-54.78
278.814	100.86
279.03	41.47
279.245	-28.16
279.461	6.66
279.676	25.09
279.892	-11.78
280.107	-9.73
280.322	35.33
280.538	35.33
280.753	57.86
280.969	68.09
281.184	84.48
281.399	14.85
281.615	10.75
281.83	18.94
282.045	49.66
282.26	109.05
282.476	35.33
282.691	55.81
282.906	-1.54
283.122	94.72
283.337	-26.11
283.552	55.81
283.767	-34.3
283.983	70.14
284.198	6.66
284.413	31.23
284.628	6.66
284.843	-30.21
285.058	53.76
285.274	53.76
285.489	18.94
285.704	39.42
285.919	33.28
286.134	49.66
286.349	-81.41
286.564	-11.78
286.779	23.04
286.995	98.81
287.21	10.75
287.425	39.42
287.64	2.56
287.855	39.42
288.07	113.15
288.285	51.71
288.5	70.14
288.715	45.57
288.93	33.28
289.145	31.23
289.36	53.76
289.575	-17.92
289.79	70.14
290.004	-1.54
290.219	-1.54
290.434	123.39
290.649	4.61
290.864	33.28
291.079	35.33
291.294	-24.06
291.509	10.75
291.724	-15.87
291.938	-19.97
292.153	29.18
292.368	86.53
292.583	57.86
292.798	66.05
293.012	49.66
293.227	33.28
293.442	23.04
293.657	41.47
293.871	76.29
294.086	23.04
294.301	-3.58
294.516	8.7
294.73	31.23
294.945	-13.82
295.16	39.42
295.374	53.76
295.589	33.28
295.804	16.9
296.018	47.62
296.233	59.9
296.447	47.62
296.662	6.66
296.877	-34.3
297.091	27.14
297.306	41.47
297.52	47.62
297.735	33.28
297.949	41.47
298.164	45.57
298.378	23.04
298.593	35.33
298.807	27.14
299.022	-13.82
299.236	86.53
299.451	20.99
299.665	45.57
299.88	-5.63
300.094	55.81
300.309	111.1
300.523	111.1
300.737	-7.68
300.952	45.57
301.166	74.24
301.381	12.8
301.595	74.24
301.809	43.52
302.024	27.14
302.238	23.04
302.452	64
302.667	61.95
302.881	-9.73
303.095	31.23
303.309	94.72
303.524	-1.54
303.738	43.52
303.952	82.43
304.166	27.14
304.381	18.94
304.595	41.47
304.809	25.09
305.023	20.99
305.237	-9.73
305.452	68.09
305.666	-48.64
305.88	18.94
306.094	51.71
306.308	31.23
306.522	23.04
306.736	59.9
306.95	45.57
307.164	25.09
307.379	76.29
307.593	100.86
307.807	70.14
308.021	68.09
308.235	57.86
308.449	37.38
308.663	51.71
308.877	82.43
309.091	35.33
309.305	55.81
309.519	55.81
309.733	-44.54
309.947	20.99
310.161	43.52
310.374	6.66
310.588	111.1
310.802	-56.83
311.016	31.23
311.23	27.14
311.444	47.62
311.658	55.81
311.872	72.19
312.085	47.62
312.299	43.52
312.513	-81.41
312.727	18.94
312.941	8.7
313.154	-3.58
313.368	57.86
313.582	70.14
313.796	20.99
314.009	-9.73
314.223	25.09
314.437	55.81
314.651	66.05
314.864	-5.63
315.078	-7.68
315.292	55.81
315.505	66.05
315.719	100.86
315.933	82.43
316.146	53.76
316.36	12.8
316.573	23.04
316.787	-9.73
317.001	29.18
317.214	27.14
317.428	23.04
317.641	14.85
317.855	133.63
318.068	27.14
318.282	37.38
318.495	41.47
318.709	53.76
318.922	12.8
319.136	113.15
319.349	53.76
319.563	66.05
319.776	57.86
319.99	8.7
320.203	80.38
320.417	96.77
320.63	80.38
320.843	49.66
321.057	49.66
321.27	16.9
321.483	68.09
321.697	51.71
321.91	39.42
322.124	10.75
322.337	33.28
322.55	-40.45
322.763	35.33
322.977	64
323.19	-3.58
323.403	96.77
323.617	20.99
323.83	47.62
324.043	-40.45
324.256	14.85
324.469	53.76
324.683	51.71
324.896	14.85
325.109	43.52
325.322	-28.16
325.535	49.66
325.748	-19.97
325.962	-13.82
326.175	33.28
326.388	86.53
326.601	-19.97
326.814	-1.54
327.027	74.24
327.24	70.14
327.453	51.71
327.666	35.33
327.879	55.81
328.092	0.51
328.305	41.47
328.518	55.81
328.731	49.66
328.944	18.94
329.157	131.58
329.37	45.57
329.583	20.99
329.796	51.71
330.009	-52.74
330.222	84.48
330.435	-3.58
330.648	68.09
330.861	80.38
331.073	47.62
331.286	90.62
331.499	84.48
331.712	14.85
331.925	-7.68
332.138	-1.54
332.35	45.57
332.563	39.42
332.776	61.95
332.989	59.9
333.202	47.62
333.414	94.72
333.627	94.72
333.84	-30.21
334.053	82.43
334.265	84.48
334.478	23.04
334.691	-36.35
334.903	86.53
335.116	84.48
335.329	55.81
335.541	-17.92
335.754	86.53
335.966	-3.58
336.179	8.7
336.392	55.81
336.604	51.71
336.817	37.38
337.029	127.49
337.242	16.9
337.454	18.94
337.667	66.05
337.88	45.57
338.092	16.9
338.305	0.51
338.517	-42.5
338.729	107.01
338.942	94.72
339.154	76.29
339.367	64
339.579	51.71
339.792	102.91
340.004	61.95
340.217	35.33
340.429	37.38
340.641	96.77
340.854	-7.68
341.066	20.99
341.278	2.56
341.491	111.1
341.703	45.57
341.915	-75.26
342.128	37.38
342.34	78.33
342.552	59.9
342.764	-5.63
342.977	92.67
343.189	35.33
343.401	23.04
343.613	-54.78
343.826	31.23
344.038	31.23
344.25	82.43
344.462	57.86
344.674	10.75
344.886	29.18
345.099	61.95
345.311	10.75
345.523	49.66
345.735	-46.59
345.947	39.42
346.159	-1.54
346.371	-1.54
346.583	82.43
346.795	78.33
347.007	94.72
347.219	-22.02
347.431	41.47
347.643	51.71
347.855	-1.54
348.067	78.33
348.279	2.56
348.491	90.62
348.703	78.33
348.915	49.66
349.127	14.85
349.339	23.04
349.551	-22.02
349.763	66.05
349.975	57.86
350.187	76.29
350.399	39.42
350.61	43.52
350.822	31.23
351.034	51.71
351.246	33.28
351.458	35.33
351.669	27.14
351.881	82.43
352.093	27.14
352.305	31.23
352.517	74.24
352.728	76.29
352.94	29.18
353.152	47.62
353.363	0.51
353.575	84.48
353.787	29.18
353.999	59.9
354.21	88.57
354.422	27.14
354.633	-38.4
354.845	35.33
355.057	16.9
355.268	45.57
355.48	51.71
355.692	55.81
355.903	37.38
356.115	94.72
356.326	35.33
356.538	16.9
356.749	27.14
356.961	41.47
357.172	20.99
357.384	39.42
357.595	68.09
357.807	8.7
358.018	-1.54
358.23	76.29
358.441	78.33
358.653	31.23
358.864	-17.92
359.075	39.42
359.287	115.2
359.498	18.94
359.709	43.52
359.921	45.57
360.132	43.52
360.344	37.38
360.555	18.94
360.766	12.8
360.977	16.9
361.189	31.23
361.4	53.76
361.611	68.09
361.823	102.91
362.034	16.9
362.245	-22.02
362.456	27.14
362.667	61.95
362.879	43.52
363.09	59.9
363.301	96.77
363.512	80.38
363.723	29.18
363.935	-24.06
364.146	41.47
364.357	41.47
364.568	72.19
364.779	14.85
364.99	45.57
365.201	27.14
365.412	25.09
365.623	47.62
365.834	82.43
366.045	2.56
366.256	51.71
366.467	43.52
366.678	35.33
366.889	14.85
367.1	86.53
367.311	43.52
367.522	4.61
367.733	35.33
367.944	78.33
368.155	-1.54
368.366	64
368.577	74.24
368.788	88.57
368.999	90.62
369.209	57.86
369.42	27.14
369.631	8.7
369.842	84.48
370.053	-30.21
370.264	39.42
370.474	98.81
370.685	121.34
370.896	70.14
371.107	53.76
371.317	39.42
371.528	49.66
371.739	164.35
371.95	80.38
372.16	66.05
372.371	96.77
372.582	47.62
372.792	33.28
373.003	94.72
373.214	64
373.424	2.56
373.635	78.33
373.846	160.25
374.056	64
374.267	45.57
374.477	37.38
374.688	84.48
374.898	33.28
375.109	4.61
375.319	64
375.53	104.96
375.74	76.29
375.951	123.39
376.161	33.28
376.372	86.53
376.582	49.66
376.793	76.29
377.003	59.9
377.214	8.7
377.424	6.66
377.635	123.39
377.845	43.52
378.055	41.47
378.266	86.53
378.476	-5.63
378.686	59.9
378.897	137.73
379.107	59.9
379.317	94.72
379.528	-28.16
379.738	25.09
379.948	31.23
380.158	76.29
380.369	33.28
380.579	47.62
380.789	72.19
380.999	-9.73
381.21	88.57
381.42	51.71
381.63	-9.73
381.84	41.47
382.05	51.71
382.261	84.48
382.471	61.95
382.681	47.62
382.891	51.71
383.101	-19.97
383.311	20.99
383.521	123.39
383.731	61.95
383.941	57.86
384.151	61.95
384.361	68.09
384.571	90.62
384.781	100.86
384.991	14.85
385.201	18.94
385.411	104.96
385.621	29.18
385.831	45.57
386.041	86.53
386.251	74.24
386.461	78.33
386.671	27.14
386.881	86.53
387.091	33.28
387.301	88.57
387.511	113.15
387.72	92.67
387.93	84.48
388.14	98.81
388.35	57.86
388.56	59.9
388.769	117.25
388.979	160.25
389.189	70.14
389.399	125.44
389.609	-11.78
389.818	104.96
390.028	20.99
390.238	96.77
390.447	57.86
390.657	90.62
390.867	43.52
391.076	33.28
391.286	119.29
391.496	115.2
391.705	107.01
391.915	47.62
392.125	57.86
392.334	-5.63
392.544	84.48
392.753	96.77
392.963	47.62
393.172	55.81
393.382	104.96
393.591	59.9
393.801	51.71
394.01	4.61
394.22	35.33
394.429	2.56
394.639	55.81
394.848	139.77
395.058	57.86
395.267	80.38
395.477	88.57
395.686	78.33
395.895	107.01
396.105	61.95
396.314	102.91
396.524	68.09
396.733	131.58
396.942	35.33
397.152	84.48
397.361	74.24
397.57	160.25
397.78	111.1
397.989	117.25
398.198	133.63
398.407	111.1
398.617	29.18
398.826	88.57
399.035	150.01
399.244	152.06
399.453	117.25
399.663	31.23
399.872	92.67
400.081	70.14
400.29	176.64
400.499	82.43
400.708	145.92
400.917	72.19
401.127	141.82
401.336	166.4
401.545	100.86
401.754	150.01
401.963	78.33
402.172	147.97
402.381	141.82
402.59	156.16
402.799	121.34
403.008	113.15
403.217	205.31
403.426	195.07
403.635	82.43
403.844	174.59
404.053	125.44
404.262	111.1
404.471	129.53
404.68	139.77
404.888	164.35
405.097	94.72
405.306	184.83
405.515	178.69
405.724	107.01
405.933	227.84
406.142	117.25
406.35	96.77
406.559	205.31
406.768	238.08
406.977	238.08
407.185	150.01
407.394	252.41
407.603	231.93
407.812	190.97
408.02	223.74
408.229	117.25
408.438	240.12
408.646	227.84
408.855	307.71
409.064	246.27
409.272	297.47
409.481	313.85
409.69	287.23
409.898	348.67
410.107	266.75
410.315	320
410.524	250.36
410.733	424.44
410.941	373.24
411.15	424.44
411.358	387.58
411.567	377.34
411.775	375.29
411.984	408.06
412.192	393.72
412.401	401.91
412.609	457.21
412.818	467.45
413.026	461.3
413.234	524.79
413.443	569.85
413.651	508.41
413.86	467.45
414.068	616.95
414.276	582.14
414.485	582.14
414.693	608.76
414.901	672.25
415.11	682.49
415.318	674.29
415.526	741.88
415.734	727.54
415.943	680.44
416.151	739.83
416.359	840.18
416.567	834.04
416.776	864.75
416.984	883.19
417.192	963.06
417.4	993.78
417.608	889.33
417.817	991.73
418.025	1178.09
418.233	1161.71
418.441	989.68
418.649	1169.9
418.857	1237.49
419.065	1282.54
419.273	1262.06
419.481	1315.31
419.689	1386.99
419.897	1458.67
420.105	1417.71
420.313	1473
420.521	1608.17
420.729	1475.05
420.937	1645.03
421.145	1712.61
421.353	1718.76
421.561	1866.21
421.769	1808.87
421.977	1958.37
422.185	1896.93
422.393	2111.97
422.601	2361.82
422.809	2249.18
423.017	2169.31
423.224	2335.2
423.432	2310.62
423.64	2410.97
423.848	2679.26
424.056	2544.09
424.263	2726.36
424.471	2800.09
424.679	2763.22
424.887	3011.03
425.094	3049.94
425.302	3148.24
425.51	3205.58
425.718	3211.73
425.925	3428.81
426.133	3531.21
426.341	3709.38
426.548	3791.3
426.756	3729.86
426.964	3785.16
427.171	4047.3
427.379	4264.38
427.586	4291.01
427.794	4350.4
428.001	4626.87
428.209	4897.21
428.417	4600.25
428.624	5173.68
428.832	5026.23
429.039	5063.09
429.247	5005.75
429.454	5509.55
429.662	5953.96
429.869	5501.36
430.076	5806.5
430.284	5849.51
430.491	5951.91
430.699	6338.98
430.906	6195.62
431.114	6427.04
431.321	6597.02
431.528	6826.39
431.736	7066
431.943	7446.93
432.15	7037.33
432.358	7446.93
432.565	7729.55
432.772	7856.52
432.979	8126.85
433.187	8307.07
433.394	8176
433.601	8870.26
433.808	9038.2
434.016	9003.38
434.223	9236.85
434.43	9953.64
434.637	9730.41
434.844	10172.77
435.052	10389.86
435.259	10248.55
435.466	10459.49
435.673	10215.78
435.88	10887.51
436.087	11405.65
436.294	11493.71
436.501	11362.64
436.708	11663.69
436.915	11911.5
437.122	12398.91
437.329	12357.96
437.537	12923.19
437.743	13158.71
437.95	12874.04
438.157	13639.98
438.364	14045.48
438.571	13930.8
438.778	14338.34
438.985	15421.72
439.192	14862.62
439.399	15282.45
439.606	14915.87
439.813	15765.78
440.02	16791.81
440.227	16091.4
440.433	16548.1
440.64	17015.04
440.847	16636.16
441.054	17180.92
441.261	18118.89
441.467	18002.16
441.674	18450.66
441.881	19126.49
442.088	19046.62
442.294	18968.8
442.501	19228.89
442.708	19851.47
442.914	20478.15
443.121	21319.87
443.328	20932.8
443.534	21975.22
443.741	21653.69
443.948	21217.47
444.154	23058.59
444.361	22829.22
444.568	22835.36
444.774	23095.46
444.981	23199.9
445.187	23711.89
445.394	25004.16
445.6	24535.18
445.807	26923.11
446.013	25759.86
446.22	26105.97
446.426	27023.46
446.633	27613.27
446.839	28360.78
447.046	27140.19
447.252	28541
447.459	29007.94
447.665	28500.05
447.871	29489.21
448.078	31270.95
448.284	29655.1
448.491	30220.34
448.697	31397.92
448.903	32108.57
449.11	31905.82
449.316	31488.03
449.522	32296.98
449.728	32851.98
449.935	33488.9
450.141	33173.51
450.347	33675.26
450.553	33263.62
450.76	33458.18
450.966	34689.01
451.172	34109.43
451.378	34805.74
451.584	34156.53
451.791	34959.34
451.997	35033.07
452.203	35456.99
452.409	35583.97
452.615	35555.3
452.821	33738.75
453.027	33413.12
453.233	35579.87
453.44	34043.9
453.646	34322.42
453.852	34267.13
454.058	35114.98
454.264	34025.46
454.47	34732.01
454.676	34056.18
454.882	34826.22
455.088	31932.44
455.294	32395.28
455.5	32843.79
455.705	33417.22
455.911	32071.7
456.117	31555.61
456.323	30892.07
456.529	29167.68
456.735	30650.41
456.941	29554.75
457.147	29397.06
457.352	28332.11
457.558	27820.12
457.764	28125.27
457.97	27701.34
458.176	26859.62
458.381	27359.33
458.587	25786.49
458.793	25567.35
458.999	24559.75
459.204	26003.57
459.41	25409.66
459.616	23533.72
459.821	23754.9
460.027	23728.28
460.233	23195.81
460.438	21975.22
460.644	22186.16
460.85	21029.06
461.055	20826.31
461.261	20848.83
461.466	19204.31
461.672	18747.62
461.878	20211.92
462.083	18649.32
462.289	18639.08
462.494	18049.26
462.7	17307.9
462.905	17068.28
463.111	17606.9
463.316	17428.73
463.522	17064.19
463.727	17232.12
463.932	17078.52
464.138	16886.01
464.343	16703.75
464.549	16341.25
464.754	16832.77
464.959	17037.56
465.165	16613.63
465.37	16230.66
465.575	15632.66
465.781	16273.67
465.986	16732.42
466.191	15769.87
466.397	15311.13
466.602	14651.68
466.807	15253.78
467.012	15462.68
467.218	15440.15
467.423	15114.52
467.628	15042.84
467.833	15630.61
468.038	15132.95
468.244	14772.51
468.449	15438.1
468.654	14764.32
468.859	14663.97
469.064	14688.54
469.269	14231.85
469.474	13967.66
469.679	14424.36
469.885	14127.4
470.09	14412.07
470.295	13969.71
470.5	13592.88
470.705	13945.13
470.91	13678.9
471.115	13551.92
471.32	13930.8
471.525	13779.25
471.73	13254.97
471.935	13279.54
472.139	12912.95
472.344	13025.59
472.549	12769.6
472.754	12691.77
472.959	12448.07
473.164	12126.53
473.369	12061
473.574	12509.51
473.778	12317
473.983	12017.99
474.188	12024.14
474.393	11514.19
474.598	11454.8
474.802	11506
475.007	11188.57
475.212	11436.37
475.417	11174.23
475.621	11168.09
475.826	11010.39
476.031	10860.89
476.235	10613.09
476.44	10848.6
476.645	10643.81
476.849	10627.42
477.054	10527.07
477.259	10101.09
477.463	10238.31
477.668	10164.58
477.872	10244.45
478.077	9986.41
478.282	9843.05
478.486	9806.19
478.691	9642.35
478.895	9691.5
479.1	9464.18
479.304	9578.86
479.509	9283.95
479.713	9419.12
479.918	9122.16
480.122	9116.02
480.326	9130.36
480.531	9349.49
480.735	9003.38
480.94	9140.6
481.144	9359.73
481.348	8909.18
481.553	8991.09
481.757	8675.71
481.961	8849.78
482.166	9040.25
482.37	9038.2
482.574	8763.77
482.778	8892.79
482.983	8966.52
483.187	8788.35
483.391	8958.33
483.595	8769.91
483.8	8704.38
484.004	8909.18
484.208	8898.94
484.412	8903.03
484.616	8982.9
484.821	8778.11
485.025	8534.4
485.229	8827.26
485.433	8843.64
485.637	8761.72
485.841	8581.5
486.045	8845.69
486.249	9023.86
486.453	8698.24
486.657	8761.72
486.861	8960.38
487.065	8479.1
487.269	8786.3
487.473	8661.37
487.677	8903.03
487.881	8892.79
488.085	8917.37
488.289	8980.85
488.493	8608.12
488.697	8747.39
488.901	8735.1
489.105	8882.55
489.309	8821.11
489.512	8907.13
489.716	9036.15
489.92	8976.76
490.124	8982.9
490.328	9015.67
490.531	9148.79
490.735	8970.62
490.939	9050.49
491.143	9202.04
491.346	9204.08
491.55	9206.13
491.754	9208.18
491.958	9445.74
492.161	9027.96
492.365	9320.82
492.569	9140.6
492.772	9275.76
492.976	9349.49
493.18	9310.58
493.383	9396.59
493.587	9664.88
493.79	9730.41
493.994	9640.3
494.197	9867.63
494.401	9767.27
494.605	9775.47
494.808	9976.17
495.012	9804.14
495.215	9972.07
495.419	10230.12
495.622	9984.36
495.825	10146.15
496.029	10127.72
496.232	10477.92
496.436	10277.22
496.639	10725.72
496.843	10799.45
497.046	10805.6
497.249	10692.96
497.453	11006.3
497.656	11215.19
497.859	10862.94
498.063	11368.79
498.266	11231.57
498.469	11393.36
498.673	11577.68
498.876	11696.46
499.079	11825.48
499.282	11919.69
499.485	12179.78
499.689	12390.72
499.892	12458.31
500.095	12456.26
500.298	12726.59
500.501	12511.55
500.705	13017.4
500.908	13242.68
501.111	13134.14
501.314	13494.58
501.517	13623.6
501.72	13754.67
501.923	13644.08
502.126	14043.43
502.329	14317.86
502.532	14397.73
502.735	14629.15
502.938	14582.05
503.141	14827.81
503.344	15003.93
503.547	15083.8
503.75	15110.43
503.953	15558.93
504.156	15757.58
504.359	15722.77
504.562	16169.23
504.765	16292.1
504.968	16433.41
505.17	16527.62
505.373	16677.12
505.576	17015.04
505.779	17187.07
505.982	17266.94
506.185	17531.12
506.387	17828.08
506.59	17856.75
506.793	18403.56
506.996	18223.34
507.198	18686.18
507.401	18680.03
507.604	18901.22
507.807	19106.01
508.009	19230.94
508.212	19456.22
508.415	19673.3
508.617	20050.13
508.82	20240.59
509.022	19919.06
509.225	20562.12
509.428	21002.43
509.63	20971.71
509.833	21078.21
510.035	21588.15
510.238	21563.57
510.44	22069.42
510.643	22341.8
510.845	22476.97
511.048	22560.94
511.25	22692.01
511.453	22980.77
511.655	23726.23
511.858	23613.59
512.06	23875.73
512.262	24217.74
512.465	23939.22
512.667	24504.46
512.87	24547.47
513.072	24881.28
513.274	25301.12
513.477	25737.34
513.679	25700.47
513.881	26026.1
514.084	26472.56
514.286	26128.5
514.488	26538.09
514.69	26990.69
514.893	27273.31
515.095	27533.4
515.297	27689.05
515.499	28301.39
515.701	28393.55
515.904	28823.62
516.106	28885.06
516.308	29374.53
516.51	29653.05
516.712	29694.01
516.914	30244.91
517.116	30623.79
517.318	30787.63
517.52	31062.05
517.722	31168.55
517.925	31363.11
518.127	32047.13
518.329	32161.81
518.531	32213.01
518.733	32520.21
518.935	32942.09
519.136	32821.26
519.338	33550.34
519.54	33812.48
519.742	34156.53
519.944	34091
520.146	34586.61
520.348	34781.17
520.55	35393.51
520.752	35422.18
520.954	36214.74
521.155	35733.47
521.357	36487.12
521.559	36612.05
521.761	37052.36
521.963	37263.3
522.164	37361.61
522.366	37455.81
522.568	38072.25
522.77	37881.79
522.971	38576.05
523.173	38270.9
523.375	38963.12
523.576	38881.2
523.778	39040.94
523.98	39923.61
524.181	39581.6
524.383	39731.11
524.584	40394.65
524.786	40433.56
524.988	40478.61
525.189	40882.06
525.391	41338.76
525.592	41582.47
525.794	41293.71
525.995	41688.96
526.197	41496.45
526.398	41635.72
526.6	42155.9
526.801	42385.27
527.003	42366.84
527.204	42246.01
527.406	43026.29
527.607	42962.8
527.808	43022.19
528.01	42463.1
528.211	43298.67
528.412	43724.64
528.614	43808.61
528.815	43802.47
529.016	44275.55
529.218	43624.29
529.419	44009.31
529.62	44261.21
529.822	43829.09
530.023	44025.7
530.224	44230.49
530.425	44330.84
530.626	44283.74
530.828	43827.04
531.029	45088.59
531.23	44433.24
531.431	44511.06
531.632	44805.97
531.833	45037.39
532.035	44951.38
532.236	45100.88
532.437	45510.47
532.638	44685.14
532.839	45588.3
533.04	45453.13
533.241	45141.84
533.442	46018.37
533.643	45037.39
533.844	45610.82
534.045	45903.68
534.246	45002.58
534.447	45535.05
534.648	45387.6
534.849	45467.47
535.05	45268.81
535.251	45641.54
535.451	45117.26
535.652	46063.43
535.853	45420.36
536.054	45573.96
536.255	46145.34
536.456	45322.06
536.657	46231.36
536.857	45289.29
537.058	45518.67
537.259	46053.19
537.46	46059.33
537.66	45641.54
537.861	46059.33
538.062	45422.41
538.263	46358.33
538.463	45244.24
538.664	45686.6
538.865	45625.16
539.065	45858.63
539.266	45166.41
539.466	46194.5
539.667	45391.69
539.868	45813.57
540.068	46010.18
540.269	45481.8
540.469	45723.46
540.67	45545.29
540.87	45555.53
541.071	45803.33
541.271	45545.29
541.472	45647.69
541.672	45832
541.873	45268.81
542.073	44748.63
542.274	45715.27
542.474	45504.33
542.675	45723.46
542.875	45858.63
543.075	45479.75
543.276	44859.22
543.476	45809.48
543.676	45231.95
543.877	45829.96
544.077	45367.12
544.277	45244.24
544.478	45039.44
544.678	45864.77
544.878	45354.83
545.078	45670.22
545.279	45676.36
545.479	45457.23
545.679	45485.9
545.879	45502.28
546.079	45365.07
546.28	45176.65
546.48	45393.74
546.68	45682.5
546.88	45471.56
547.08	45367.12
547.28	45279.05
547.48	44869.46
547.68	45436.75
547.88	45344.59
548.081	45025.1
548.281	45631.3
548.481	45125.46
548.681	45711.17
548.881	45627.21
549.081	45332.3
549.28	44996.43
549.48	45537.1
549.68	45096.78
549.88	45846.34
550.08	45367.12
550.28	45383.5
550.48	45074.26
550.68	45705.03
550.88	45018.96
551.08	45317.96
551.279	45213.52
551.479	45137.74
551.679	45596.49
551.879	45244.24
552.079	45623.11
552.278	44695.38
552.478	44894.03
552.678	45199.18
552.878	45223.76
553.077	44945.23
553.277	44840.79
553.477	45383.5
553.676	44691.29
553.876	45182.8
554.076	44490.59
554.275	44926.8
554.475	44347.23
554.674	44932.95
554.874	44961.62
555.074	44435.29
555.273	44969.81
555.473	45006.67
555.672	44592.98
555.872	44527.45
556.071	44625.75
556.271	44672.85
556.47	44357.47
556.67	43984.74
556.869	44080.99
557.068	44439.39
557.268	44154.72
557.467	44160.86
557.667	44009.31
557.866	44365.66
558.065	44195.68
558.265	43693.93
558.464	43876.19
558.663	44136.29
558.863	43429.74
559.062	44113.76
559.261	43620.2
559.461	43810.66
559.66	43020.14
559.859	43693.93
560.058	43130.73
560.258	43833.19
560.457	42962.8
560.656	43861.86
560.855	43624.29
561.054	43583.33
561.253	43032.43
561.453	43171.69
561.652	43097.97
561.851	43095.92
562.05	43390.83
562.249	42725.24
562.448	43091.82
562.647	42710.9
562.846	42583.93
563.045	43065.2
563.244	42200.96
563.443	43298.67
563.642	42268.54
563.841	42387.32
564.04	41707.4
564.239	42753.91
564.438	41705.35
564.637	42024.83
564.836	42205.05
565.035	41803.65
565.234	42207.1
565.432	41639.81
565.631	41832.32
565.83	42129.28
566.029	41521.03
566.228	41285.51
566.427	41537.41
566.625	41148.3
566.824	41408.39
567.023	41865.09
567.222	40871.82
567.42	41217.93
567.619	41328.52
567.818	41086.86
568.016	40849.3
568.215	41174.92
568.414	40255.39
568.612	41463.69
568.811	40535.96
569.01	40824.72
569.208	40083.36
569.407	40595.35
569.605	40425.37
569.804	40451.99
570.002	39804.83
570.201	40460.18
570.4	40060.83
570.598	39618.47
570.797	39796.64
570.995	39587.75
571.193	39114.67
571.392	39210.92
571.59	39335.85
571.789	39374.76
571.987	39161.77
572.186	38836.14
572.384	39040.94
572.582	39450.53
572.781	38830
572.979	38244.28
573.177	38766.51
573.376	38420.41
573.574	37775.3
573.772	38588.34
573.971	37892.03
574.169	37699.52
574.367	37726.14
574.565	38045.63
574.763	37539.78
574.962	37396.42
575.16	37216.2
575.358	37443.52
575.556	36689.87
575.754	37472.2
575.952	36741.07
576.151	37545.92
576.349	36892.62
576.547	36440.02
576.745	36917.2
576.943	37162.95
577.141	36687.82
577.339	36517.84
577.537	36536.27
577.735	36141.02
577.933	36141.02
578.131	36429.78
578.329	35901.4
578.527	35805.15
578.725	35979.23
578.923	36294.61
579.121	35506.15
579.319	35465.19
579.516	35377.12
579.714	35463.14
579.912	35092.46
580.11	35063.78
580.308	35358.69
580.506	35282.92
580.704	34303.99
580.901	35346.4
581.099	34887.66
581.297	34394.1
581.495	34559.98
581.692	34662.38
581.89	34037.75
582.088	34705.39
582.285	34347
582.483	34353.14
582.681	34019.32
582.878	33794.04
583.076	33726.46
583.274	34064.38
583.471	33519.62
583.669	33755.13
583.866	33345.54
584.064	33345.54
584.262	33349.64
584.459	33288.2
584.657	33144.84
584.854	33402.88
585.052	32735.24
585.249	32808.97
585.447	33120.26
585.644	32247.83
585.841	32409.62
586.039	33019.91
586.236	32215.06
586.434	32000.02
586.631	32002.07
586.828	31907.87
587.026	32063.51
587.223	32079.89
587.42	31784.99
587.618	31928.34
587.815	31770.65
588.012	31334.43
588.21	31338.53
588.407	31649.82
588.604	31256.61
588.801	31293.47
588.999	31006.76
589.196	30943.27
589.393	30754.86
589.59	30650.41
589.787	30541.87
589.984	30527.53
590.182	30496.81
590.379	30756.91
590.576	30183.48
590.773	30529.58
590.97	29950.01
591.167	30328.88
591.364	30036.02
591.561	30160.95
591.758	29812.79
591.955	29935.67
592.152	29956.15
592.349	29894.71
592.546	29896.76
592.743	29454.4
592.94	29360.19
593.137	29313.09
593.334	29493.31
593.531	28899.4
593.727	29204.55
593.924	29315.14
594.121	28784.71
594.318	28889.16
594.515	28604.49
594.712	28760.14
594.908	28371.02
595.105	28645.45
595.302	28151.89
595.499	28442.7
595.696	28018.77
595.892	27725.91
596.089	28274.77
596.286	27924.57
596.482	27830.36
596.679	27809.88
596.876	27838.55
597.072	27514.97
597.269	27701.34
597.466	27576.41
597.662	27250.78
597.859	27277.41
598.055	27527.26
598.252	27183.2
598.448	27238.5
598.645	27101.28
598.841	26679.4
599.038	26890.34
599.234	26966.12
599.431	26757.22
599.627	26605.67
599.824	26777.7
600.02	26472.56
600.217	26589.29
600.413	26298.48
600.609	26224.75
600.806	25862.26
601.002	26259.57
601.198	26099.83
601.395	25749.62
601.591	25665.66
601.787	25839.73
601.984	25573.5
602.18	25598.07
602.376	25403.52
602.572	25223.3
602.769	25585.79
602.965	24971.39
603.161	25245.82
603.357	25028.74
603.553	24938.63
603.75	25006.21
603.946	24735.88
604.142	24940.68
604.338	24719.49
604.534	24504.46
604.73	24260.75
604.926	24316.04
605.122	24391.82
605.318	24174.74
605.514	24262.8
605.71	24004.75
605.906	24166.54
606.102	23937.17
606.298	23875.73
606.494	23812.24
606.69	23625.88
606.886	23912.6
607.082	23535.77
607.278	23470.23
607.474	23242.91
607.67	23627.93
607.866	23244.96
608.062	23521.43
608.257	23281.82
608.453	23447.71
608.649	23388.32
608.845	22974.63
609.041	23050.4
609.236	23113.89
609.432	22851.75
609.628	22651.05
609.824	22706.34
610.019	22505.64
610.215	22544.55
610.411	22698.15
610.606	22538.41
610.802	22454.44
610.998	22298.8
611.193	22515.88
611.389	22536.36
611.584	22274.22
611.78	22386.86
611.976	22096.05
612.171	22438.06
612.367	22075.57
612.562	21790.9
612.758	21291.2
612.953	21436.6
613.149	21952.69
613.344	21573.81
613.539	21852.34
613.735	21250.24
613.93	21811.38
614.126	21653.69
614.321	21309.63
614.517	21606.58
614.712	21493.94
614.907	21389.5
615.103	21313.72
615.298	21153.98
615.493	21452.98
615.688	20828.35
615.884	21336.25
616.079	21117.12
616.274	20906.18
616.47	21010.62
616.665	20893.89
616.86	20773.06
617.055	20748.48
617.25	20455.62
617.445	20658.37
617.641	20099.28
617.836	20531.4
618.031	20195.53
618.226	20685
618.421	20232.4
618.616	20330.7
618.811	19826.9
619.006	20517.06
619.201	19833.04
619.396	19919.06
619.591	19302.62
619.786	19888.34
619.981	19312.86
620.176	19787.99
620.371	19310.81
620.566	19525.85
620.761	19146.97
620.956	19425.5
621.151	18804.96
621.346	19237.08
621.541	19030.24
621.735	19015.9
621.93	18714.85
622.125	18766.05
622.32	18362.6
622.515	18415.85
622.709	18301.16
622.904	18227.43
623.099	18096.36
623.294	18170.09
623.488	17858.8
623.683	17996.01
623.878	17735.92
624.072	17766.64
624.267	17606.9
624.462	17338.62
624.656	17246.46
624.851	17287.42
625.046	17092.86
625.24	17273.08
625.435	16916.73
625.629	16914.69
625.824	16963.84
626.018	16861.44
626.213	16705.79
626.407	16720.13
626.602	16572.68
626.796	16331.01
626.991	16466.18
627.185	16193.8
627.38	16085.26
627.574	15982.86
627.768	16081.16
627.963	15833.36
628.157	15909.13
628.352	15939.85
628.546	15511.83
628.74	15741.2
628.935	15341.85
629.129	15597.84
629.323	15362.33
629.517	15323.41
629.712	15296.79
629.906	15020.31
630.1	14958.88
630.294	14788.89
630.489	14776.61
630.683	14913.82
630.877	14573.86
631.071	14641.44
631.265	14649.63
631.459	14596.39
631.653	14518.56
631.848	14465.32
632.042	14172.46
632.236	14164.26
632.43	14043.43
632.624	14102.82
632.818	14154.02
633.012	14002.47
633.206	13906.22
633.4	13742.38
633.594	13474.1
633.788	13543.73
633.982	13513.01
634.176	13797.68
634.369	13457.71
634.563	13381.94
634.757	13244.73
634.951	13623.6
635.145	13297.97
635.339	13001.02
635.533	13095.22
635.726	12912.95
635.92	12861.76
636.114	12751.17
636.308	12767.55
636.501	12716.35
636.695	12648.77
636.889	12394.82
637.083	12466.5
637.276	12421.44
637.47	12538.18
637.664	12378.44
637.857	12204.36
638.051	12007.75
638.244	11915.59
638.438	12073.29
638.632	12007.75
638.825	11651.41
639.019	11766.09
639.212	11669.84
639.406	11503.95
639.599	11708.75
639.793	11673.93
639.986	11508.05
640.18	11356.5
640.373	11383.12
640.567	11235.67
640.76	11293.01
640.954	11067.74
641.147	11063.64
641.34	11131.22
641.534	11014.49
641.727	11053.4
641.92	10899.8
642.114	10830.17
642.307	10797.4
642.5	10680.67
642.694	10449.25
642.887	10660.19
643.08	10547.55
643.273	10633.57
643.467	10527.07
643.66	10260.84
643.853	10027.37
644.046	10314.08
644.239	9955.69
644.432	10187.11
644.626	9951.59
644.819	10109.29
645.012	10094.95
645.205	9820.52
645.398	9800.04
645.591	9707.88
645.784	9738.6
645.977	9568.62
646.17	9607.53
646.363	9550.19
646.556	9382.26
646.749	9257.33
646.942	9503.09
647.135	9222.52
647.328	9415.02
647.521	9273.71
647.714	9154.93
647.907	9128.31
648.099	8968.57
648.292	8870.26
648.485	9003.38
648.678	8649.08
648.871	8708.48
649.064	8911.22
649.256	8782.2
649.449	8776.06
649.642	8665.47
649.835	8563.07
650.027	8626.56
650.22	8399.23
650.413	8305.03
650.605	8368.51
650.798	8360.32
650.991	8292.74
651.183	8311.17
651.376	8069.51
651.568	8182.15
651.761	8210.82
651.954	8075.65
652.146	7963.01
652.339	7844.23
652.531	7860.62
652.724	7917.96
652.916	7711.11
653.109	7877
653.301	7889.29
653.494	7909.77
653.686	7575.95
653.879	7678.35
654.071	7688.59
654.263	7360.91
654.456	7684.49
654.648	7596.43
654.84	7299.47
655.033	7299.47
655.225	7369.1
655.417	7186.83
655.61	7123.35
655.802	7268.75
655.994	7180.69
656.186	7098.77
656.379	7098.77
656.571	7033.24
656.763	6926.74
656.955	6900.12
657.148	6947.22
657.34	6865.3
657.532	6795.67
657.724	6830.49
657.916	6732.19
658.108	6721.95
658.3	6644.12
658.492	6652.31
658.684	6443.42
658.876	6554.01
659.068	6533.53
659.26	6568.35
659.452	6511
659.644	6252.96
659.836	6384.03
660.028	6295.97
660.22	6187.43
660.412	6121.89
660.604	6152.61
660.796	6064.55
660.988	6109.6
661.18	5908.9
661.372	6007.2
661.563	5869.99
661.755	6068.64
661.947	5974.44
662.139	5790.12
662.331	5804.46
662.522	5822.89
662.714	5700.01
662.906	5740.97
663.097	5814.7
663.289	5609.9
663.481	5593.51
663.673	5622.19
663.864	5470.64
664.056	5460.4
664.247	5519.79
664.439	5235.12
664.631	5489.07
664.822	5577.13
665.014	5401.01
665.205	5335.47
665.397	5124.53
665.588	5310.89
665.78	5419.44
665.971	5237.17
666.163	5167.54
666.354	5249.46
666.546	5212.59
666.737	5054.9
666.929	5104.05
667.12	5065.14
667.311	5194.16
667.503	4989.36
667.694	5102
667.885	4835.77
668.077	5001.65
668.268	4968.88
668.459	4917.68
668.651	4870.58
668.842	4979.12
669.033	4815.29
669.224	4817.33
669.416	4757.94
669.607	4792.76
669.798	4577.72
669.989	4665.78
670.18	4745.66
670.371	4549.05
670.563	4665.78
670.754	4487.61
670.945	4409.79
671.136	4553.15
671.327	4434.36
671.518	4479.42
671.709	4577.72
671.9	4393.4
672.091	4508.09
672.282	4547
672.473	4391.36
672.664	4352.45
672.855	4317.63
673.046	4393.4
673.237	4342.21
673.428	4135.36
673.619	4291.01
673.809	4184.51
674	4141.5
674.191	4159.94
674.382	4161.98
674.573	4176.32
674.764	4186.56
674.954	4135.36
675.145	4204.99
675.336	4032.96
675.527	4080.07
675.717	4155.84
675.908	4110.79
676.099	3893.7
676.289	3967.43
676.48	4037.06
676.671	4172.22
676.861	3912.13
677.052	3924.42
677.243	3865.03
677.433	3973.57
677.624	3867.08
677.814	3885.51
678.005	3803.59
678.195	3817.93
678.386	3752.39
678.576	3817.93
678.767	3901.89
678.957	3721.67
679.148	3762.63
679.338	3779.01
679.529	3697.1
679.719	3664.33
679.909	3760.58
680.1	3707.34
680.29	3744.2
680.481	3809.73
680.671	3635.66
680.861	3672.52
681.052	3590.6
681.242	3545.55
681.432	3717.58
681.622	3686.86
681.813	3568.07
682.003	3537.35
682.193	3666.38
682.383	3500.49
682.573	3604.94
682.764	3445.2
682.954	3543.5
683.144	3596.75
683.334	3463.63
683.524	3574.22
683.714	3465.68
683.904	3506.63
684.094	3500.49
684.284	3371.47
684.474	3363.28
684.664	3408.33
684.854	3496.39
685.044	3391.95
685.234	3439.05
685.424	3355.08
685.614	3385.8
685.804	3344.84
685.994	3375.56
686.184	3508.68
686.374	3254.73
686.564	3242.45
686.753	3469.77
686.943	3201.49
687.133	3252.69
687.323	3342.8
687.513	3348.94
687.702	3289.55
687.892	3207.63
688.082	3228.11
688.272	3209.68
688.461	3140.05
688.651	3101.14
688.841	3293.65
689.03	3140.05
689.22	3133.9
689.41	3172.82
689.599	3178.96
689.789	3230.16
689.979	3140.05
690.168	3211.73
690.358	3152.34
690.547	3258.83
690.737	3103.18
690.926	3156.43
691.116	3062.23
691.305	3033.55
691.495	2994.64
691.684	3066.32
691.874	2988.5
692.063	3004.88
692.252	2929.11
692.442	2935.25
692.631	3054.03
692.82	3025.36
693.01	2998.74
693.199	3099.09
693.388	3074.51
693.578	2929.11
693.767	2978.26
693.956	2951.63
694.146	2974.16
694.335	2916.82
694.524	2974.16
694.713	2757.08
694.902	3021.27
695.092	2955.73
695.281	2959.83
695.47	3045.84
695.659	2990.55
695.848	2996.69
696.037	2925.01
696.226	2935.25
696.415	2914.77
696.604	2927.06
696.793	3086.8
696.982	2961.87
697.171	2843.09
697.36	2816.47
697.549	2925.01
697.738	2972.11
697.927	2849.24
698.116	2965.97
698.305	2884.05
698.494	2869.72
698.683	2886.1
698.872	2802.13
699.061	2965.97
699.25	2914.77
699.438	2894.29
699.627	2892.24
699.816	2945.49
700.005	2828.76
700.193	2863.57
700.382	2841.04
700.571	2845.14
700.76	2875.86
700.948	2812.37
701.137	2771.41
701.326	2963.92
701.514	2775.51
701.703	2740.69
701.892	2906.58
702.08	2767.32
702.269	2830.8
702.457	2818.52
702.646	2763.22
702.834	2820.56
703.023	2730.45
703.212	2777.56
703.4	2726.36
703.589	2728.41
703.777	2757.08
703.965	2658.78
704.154	2763.22
704.342	2644.44
704.531	2732.5
704.719	2576.86
704.907	2771.41
705.096	2744.79
705.284	2673.11
705.472	2642.39
705.661	2648.54
705.849	2671.06
706.037	2566.62
706.226	2728.41
706.414	2681.3
706.602	2683.35
706.79	2662.87
706.979	2666.97
707.167	2539.99
707.355	2554.33
707.543	2527.71
707.731	2566.62
707.919	2521.56
708.107	2458.07
708.296	2509.27
708.484	2499.03
708.672	2619.86
708.86	2568.66
709.048	2605.53
709.236	2574.81
709.424	2560.47
709.612	2533.85
709.8	2580.95
709.988	2435.55
710.176	2494.94
710.364	2439.64
710.551	2386.4
710.739	2568.66
710.927	2294.24
711.115	2439.64
711.303	2441.69
711.491	2482.65
711.679	2398.68
711.866	2394.59
712.054	2423.26
712.242	2402.78
712.43	2462.17
712.617	2300.38
712.805	2337.24
712.993	2386.4
713.181	2302.43
713.368	2349.53
713.556	2298.33
713.744	2171.36
713.931	2372.06
714.119	2271.71
714.306	2226.65
714.494	2259.42
714.682	2202.08
714.869	2105.82
715.057	2288.09
715.244	2279.9
715.432	2132.45
715.619	2245.09
715.807	2210.27
715.994	2212.32
716.182	2169.31
716.369	2255.33
716.556	2214.37
716.744	2195.93
716.931	2107.87
717.119	2175.45
717.306	2251.23
717.493	2140.64
717.681	2107.87
717.868	2085.34
718.055	2128.35
718.242	2003.43
718.43	1923.55
718.617	2034.14
718.804	2068.96
718.991	2073.06
719.179	2068.96
719.366	1976.8
719.553	2068.96
719.74	2085.34
719.927	2058.72
720.114	1931.75
720.301	2013.67
720.488	1993.19
720.676	1982.95
720.863	2001.38
721.05	2001.38
721.237	2013.67
721.424	1964.51
721.611	1937.89
721.798	1843.68
721.985	1987.04
722.172	1837.54
722.358	1878.5
722.545	1915.36
722.732	1849.83
722.919	1964.51
723.106	1837.54
723.293	1888.74
723.48	1800.68
723.667	1751.53
723.853	1837.54
724.04	1860.07
724.227	1804.77
724.414	1790.44
724.6	1769.96
724.787	1876.45
724.974	1866.21
725.161	1731.05
725.347	1794.53
725.534	1753.57
725.72	1782.24
725.907	1724.9
726.094	1821.16
726.28	1735.14
726.467	1708.52
726.653	1698.28
726.84	1788.39
727.027	1798.63
727.213	1708.52
727.4	1688.04
727.586	1655.27
727.773	1790.44
727.959	1712.61
728.145	1638.89
728.332	1679.85
728.518	1593.83
728.705	1638.89
728.891	1726.95
729.077	1649.13
729.264	1729
729.45	1700.33
729.636	1669.61
729.823	1632.74
730.009	1690.09
730.195	1720.81
730.382	1661.41
730.568	1583.59
730.754	1571.3
730.94	1538.54
731.126	1526.25
731.313	1614.31
731.499	1624.55
731.685	1499.63
731.871	1501.67
732.057	1544.68
732.243	1552.87
732.429	1618.41
732.615	1595.88
732.801	1411.56
732.987	1513.96
733.173	1454.57
733.359	1647.08
733.545	1421.8
733.731	1464.81
733.917	1487.34
734.103	1587.69
734.289	1442.28
734.475	1493.48
734.661	1444.33
734.847	1411.56
735.033	1481.19
735.219	1436.14
735.404	1432.04
735.59	1473
735.776	1409.51
735.962	1427.95
736.148	1432.04
736.333	1362.41
736.519	1499.63
736.705	1452.52
736.89	1448.43
737.076	1346.03
737.262	1300.97
737.447	1366.51
737.633	1358.32
737.819	1358.32
738.004	1286.64
738.19	1421.8
738.375	1417.71
738.561	1401.32
738.747	1262.06
738.932	1417.71
739.118	1311.21
739.303	1292.78
739.489	1339.88
739.674	1303.02
739.859	1296.88
740.045	1272.3
740.23	1286.64
740.416	1247.72
740.601	1296.88
740.786	1300.97
740.972	1341.93
741.157	1282.54
741.342	1231.34
741.528	1288.68
741.713	1286.64
741.898	1212.91
742.084	1231.34
742.269	1309.16
742.454	1307.12
742.639	1249.77
742.824	1190.38
743.01	1192.43
743.195	1147.37
743.38	1145.33
743.565	1155.57
743.75	1251.82
743.935	1219.05
744.12	1206.77
744.305	1124.85
744.49	1178.09
744.675	1227.25
744.86	1116.65
745.045	1145.33
745.23	1077.74
745.415	1157.61
745.6	1098.22
745.785	1102.32
745.97	1143.28
746.155	1108.46
746.34	1153.52
746.525	1073.65
746.71	1157.61
746.895	1112.56
747.079	991.73
747.264	1139.18
747.449	1032.69
747.634	1053.17
747.819	1083.89
748.003	1047.02
748.188	997.87
748.373	1063.41
748.557	1022.45
748.742	1053.17
748.927	989.68
749.111	1051.12
749.296	901.62
749.481	1036.78
749.665	909.81
749.85	987.63
750.034	1057.26
750.219	940.53
750.404	928.24
750.588	936.43
750.773	987.63
750.957	965.11
751.141	887.28
751.326	936.43
751.51	811.51
751.695	1016.3
751.879	956.91
752.064	924.15
752.248	901.62
752.432	913.91
752.617	872.95
752.801	956.91
752.985	893.43
753.17	819.7
753.354	825.84
753.538	860.66
753.722	821.75
753.907	866.8
754.091	895.47
754.275	846.32
754.459	858.61
754.643	754.16
754.828	829.94
755.012	821.75
755.196	842.23
755.38	809.46
755.564	805.36
755.748	768.5
755.932	807.41
756.116	815.6
756.3	807.41
756.484	748.02
756.668	676.34
756.852	682.49
757.036	700.92
757.22	831.99
757.404	776.69
757.588	748.02
757.772	766.45
757.956	756.21
758.14	694.77
758.323	705.01
758.507	711.16
758.691	655.86
758.875	643.57
759.059	664.05
759.242	733.68
759.426	721.4
759.61	698.87
759.794	786.93
759.977	731.64
760.161	727.54
760.345	737.78
760.528	588.28
760.712	717.3
760.895	614.9
761.079	739.83
761.263	606.71
761.446	672.25
761.63	731.64
761.813	748.02
761.997	688.63
762.18	676.34
762.364	670.2
762.547	713.21
762.731	535.03
762.914	625.14
763.098	592.37
763.281	670.2
763.464	594.42
763.648	676.34
763.831	612.85
764.015	551.42
764.198	668.15
764.381	666.1
764.564	582.14
764.748	637.43
764.931	664.05
765.114	582.14
765.297	575.99
765.481	573.94
765.664	604.66
765.847	571.9
766.03	549.37
766.213	580.09
766.397	539.13
766.58	530.94
766.763	635.38
766.946	518.65
767.129	641.53
767.312	588.28
767.495	602.61
767.678	645.62
767.861	702.97
768.044	651.77
768.227	559.61
768.41	524.79
768.593	578.04
768.776	592.37
768.959	590.33
769.142	545.27
769.324	606.71
769.507	516.6
769.69	580.09
769.873	487.93
770.056	547.32
770.239	561.66
770.421	578.04
770.604	582.14
770.787	532.98
770.97	555.51
771.152	582.14
771.335	496.12
771.518	530.94
771.7	557.56
771.883	567.8
772.066	537.08
772.248	553.46
772.431	502.26
772.613	526.84
772.796	434.68
772.978	512.5
773.161	518.65
773.343	539.13
773.526	475.64
773.708	516.6
773.891	451.07
774.073	489.98
774.256	467.45
774.438	440.83
774.621	455.16
774.803	504.31
774.985	434.68
775.168	487.93
775.35	504.31
775.532	500.22
775.715	526.84
775.897	483.83
776.079	440.83
776.261	453.11
776.444	481.78
776.626	510.46
776.808	442.87
776.99	453.11
777.173	444.92
777.355	483.83
777.537	434.68
777.719	467.45
777.901	444.92
778.083	391.67
778.265	451.07
778.447	418.3
778.629	385.53
778.811	420.35
778.993	395.77
779.175	471.54
779.357	440.83
779.539	332.28
779.721	389.63
779.903	455.16
780.085	371.19
780.267	410.11
780.449	393.72
780.631	391.67
780.812	377.34
780.994	426.49
781.176	385.53
781.358	330.23
781.54	330.23
781.721	320
781.903	301.56
782.085	401.91
782.267	367.1
782.448	375.29
782.63	334.33
782.812	352.76
782.993	389.63
783.175	369.15
783.357	371.19
783.538	289.28
783.72	252.41
783.901	387.58
784.083	328.19
784.264	311.8
784.446	289.28
784.627	317.95
784.809	354.81
784.99	229.88
785.172	350.71
785.353	406.01
785.535	309.76
785.716	328.19
785.897	307.71
786.079	320
786.26	205.31
786.441	268.8
786.623	295.42
786.804	326.14
786.985	268.8
787.167	328.19
787.348	213.5
787.529	225.79
787.71	281.08
787.891	256.51
788.073	242.17
788.254	252.41
788.435	297.47
788.616	217.6
788.797	248.32
788.978	315.9
789.159	262.65
789.34	215.55
789.522	252.41
789.703	236.03
789.884	260.6
790.065	244.22
790.246	254.46
790.427	256.51
790.607	211.45
790.788	287.23
790.969	248.32
791.15	233.98
791.331	229.88
791.512	258.56
791.693	221.69
791.874	215.55
792.054	223.74
792.235	285.18
792.416	190.97
792.597	186.88
792.778	221.69
792.958	213.5
793.139	260.6
793.32	281.08
793.5	172.54
793.681	215.55
793.862	270.84
794.042	207.36
794.223	139.77
794.404	209.4
794.584	168.45
794.765	156.16
794.945	217.6
795.126	199.16
795.306	274.94
795.487	193.02
795.667	137.73
795.848	231.93
796.028	166.4
796.209	291.32
796.389	205.31
796.57	143.87
796.75	123.39
796.93	197.12
797.111	184.83
797.291	94.72
797.471	121.34
797.652	168.45
797.832	94.72
798.012	150.01
798.192	147.97
798.373	170.49
798.553	127.49
798.733	168.45
798.913	197.12
799.093	209.4
799.274	178.69
799.454	166.4
799.634	166.4
799.814	209.4
799.994	111.1
800.174	219.64
800.354	172.54
800.534	127.49
800.714	180.73
800.894	164.35
801.074	174.59
801.254	160.25
801.434	125.44
801.614	78.33
801.794	143.87
801.974	440.83
802.154	131.58
802.334	70.14
802.514	176.64
802.693	180.73
802.873	90.62
803.053	59.9
803.233	182.78
803.413	178.69
803.592	125.44
803.772	158.21
803.952	201.21
804.131	117.25
804.311	137.73
804.491	172.54
804.67	135.68
804.85	170.49
805.03	164.35
805.209	223.74
805.389	133.63
805.568	190.97
805.748	139.77
805.928	131.58
806.107	104.96
806.287	94.72
806.466	158.21
806.646	156.16
806.825	184.83
807.004	70.14
807.184	117.25
807.363	178.69
807.543	127.49
807.722	113.15
807.901	70.14
808.081	133.63
808.26	49.66
808.439	66.05
808.619	129.53
808.798	119.29
808.977	166.4
809.156	162.3
809.336	104.96
809.515	174.59
809.694	109.05
809.873	90.62
810.052	78.33
810.231	139.77
810.411	104.96
810.59	139.77
810.769	111.1
810.948	197.12
811.127	74.24
811.306	131.58
811.485	98.81
811.664	147.97
811.843	111.1
812.022	145.92
812.201	102.91
812.38	92.67
812.559	166.4
812.737	100.86
812.916	76.29
813.095	176.64
813.274	117.25
813.453	100.86
813.632	72.19
813.811	47.62
813.989	57.86
814.168	53.76
814.347	117.25
814.526	197.12
814.704	80.38
814.883	123.39
815.062	57.86
815.24	137.73
815.419	64
815.598	49.66
815.776	80.38
815.955	96.77
816.133	82.43
816.312	102.91
816.49	47.62
816.669	158.21
816.847	117.25
817.026	107.01
817.204	80.38
817.383	141.82
817.561	117.25
817.74	84.48
817.918	111.1
818.097	31.23
818.275	43.52
818.453	117.25
818.632	10.75
818.81	127.49
818.988	90.62
819.167	123.39
819.345	25.09
819.523	53.76
819.701	8.7
819.879	145.92
820.058	59.9
820.236	70.14
820.414	102.91
820.592	90.62
820.77	123.39
820.948	59.9
821.127	35.33
821.305	57.86
821.483	41.47
821.661	94.72
821.839	121.34
822.017	23.04
822.195	74.24
822.373	115.2
822.551	55.81
822.729	41.47
822.907	131.58
823.085	141.82
823.262	156.16
823.44	64
823.618	31.23
823.796	76.29
823.974	133.63
824.152	98.81
824.329	72.19
824.507	82.43
824.685	57.86
824.863	115.2
825.04	78.33
825.218	35.33
825.396	53.76
825.574	61.95
825.751	53.76
825.929	119.29
826.107	72.19
826.284	70.14
826.462	70.14
826.639	57.86
826.817	66.05
826.994	64
827.172	66.05
827.349	57.86
827.527	29.18
827.704	72.19
827.882	94.72
828.059	41.47
828.237	47.62
828.414	57.86
828.591	27.14
828.769	55.81
828.946	10.75
829.124	41.47
829.301	59.9
829.478	61.95
829.655	125.44
829.833	115.2
830.01	125.44
830.187	45.57
830.364	33.28
830.542	90.62
830.719	37.38
830.896	61.95
831.073	18.94
831.25	92.67
831.427	47.62
831.604	88.57
831.782	66.05
831.959	184.83
832.136	-22.02
832.313	61.95
832.49	107.01
832.667	59.9
832.844	82.43
833.021	64
833.198	90.62
833.374	55.81
833.551	82.43
833.728	66.05
833.905	10.75
834.082	98.81
834.259	53.76
834.436	86.53
834.612	107.01
834.789	45.57
834.966	35.33
835.143	135.68
835.319	-26.11
835.496	29.18
835.673	8.7
835.85	-3.58
836.026	109.05
836.203	123.39
836.38	90.62
836.556	57.86
836.733	78.33
836.909	100.86
837.086	27.14
837.262	-34.3
837.439	35.33
837.616	84.48
837.792	66.05
837.968	53.76
838.145	14.85
838.321	90.62
838.498	47.62
838.674	-5.63
838.851	59.9
839.027	68.09
839.203	-5.63
839.38	49.66
839.556	45.57
839.732	123.39
839.909	23.04
840.085	115.2
840.261	16.9
840.437	-15.87
840.614	-11.78
840.79	86.53
840.966	33.28
841.142	-44.54
841.318	-99.84
841.494	90.62
841.671	121.34
841.847	20.99
842.023	-7.68
842.199	39.42
842.375	90.62
842.551	41.47
842.727	20.99
842.903	51.71
843.079	35.33
843.255	10.75
843.431	39.42
843.607	31.23
843.783	96.77
843.959	-1.54
844.134	25.09
844.31	111.1
844.486	-5.63
844.662	100.86
844.838	-30.21
845.013	10.75
845.189	53.76
845.365	72.19
845.541	25.09
845.716	66.05
845.892	6.66
846.068	25.09
846.244	49.66
846.419	84.48
846.595	-24.06
846.77	-62.98
846.946	-7.68
847.122	-5.63
847.297	43.52
847.473	100.86
847.648	72.19
847.824	25.09
847.999	-28.16
848.175	68.09
848.35	39.42
848.526	111.1
848.701	45.57
848.876	45.57
849.052	33.28
849.227	-52.74
849.403	-32.26
849.578	20.99
849.753	55.81
849.929	55.81
850.104	37.38
850.279	96.77
850.454	16.9
850.63	-40.45
850.805	16.9
850.98	86.53
851.155	84.48
851.33	-19.97
851.505	6.66
851.681	125.44
851.856	16.9
852.031	8.7
852.206	8.7
852.381	-11.78
852.556	80.38
852.731	29.18
852.906	4.61
853.081	35.33
853.256	64
853.431	66.05
853.606	-3.58
853.781	45.57
853.956	45.57
854.131	70.14
854.305	51.71
854.48	55.81
854.655	-24.06
854.83	74.24
855.005	2.56
855.18	4.61
855.354	14.85
855.529	14.85
855.704	127.49
855.879	10.75
856.053	-9.73
856.228	-32.26
856.403	20.99
856.577	-32.26
856.752	-19.97
856.926	37.38
857.101	68.09
857.276	33.28
857.45	39.42
857.625	-62.98
857.799	66.05
857.974	51.71
858.148	31.23
858.323	10.75
858.497	-7.68
858.672	39.42
858.846	6.66
859.02	45.57
859.195	8.7
859.369	33.28
859.543	51.71
859.718	4.61
859.892	59.9
860.066	-7.68
860.241	88.57
860.415	76.29
860.589	20.99
860.763	23.04
860.938	10.75
861.112	127.49
861.286	18.94
861.46	41.47
861.634	51.71
861.808	53.76
861.982	53.76
862.157	31.23
862.331	59.9
862.505	49.66
862.679	70.14
862.853	16.9
863.027	47.62
863.201	39.42
863.375	80.38
863.549	41.47
863.722	18.94
863.896	55.81
864.07	20.99
864.244	31.23
864.418	-36.35
864.592	-13.82
864.766	39.42
864.939	35.33
865.113	35.33
865.287	33.28
865.461	-19.97
865.634	-19.97
865.808	41.47
865.982	4.61
866.156	57.86
866.329	43.52
866.503	27.14
866.676	25.09
866.85	10.75
867.024	12.8
867.197	-13.82
867.371	55.81
867.544	86.53
867.718	25.09
867.891	45.57
868.065	31.23
868.238	-3.58
868.412	27.14
868.585	0.51
868.759	43.52
868.932	2.56
869.105	-24.06
869.279	20.99
869.452	-15.87
869.625	88.57
869.799	53.76
869.972	-13.82
870.145	39.42
870.319	35.33
870.492	25.09
870.665	31.23
870.838	6.66
871.011	14.85
871.185	49.66
871.358	12.8
871.531	61.95
871.704	8.7
871.877	33.28
872.05	8.7
872.223	98.81
872.396	-15.87
872.569	51.71
872.742	33.28
872.915	55.81
873.088	12.8
873.261	43.52
873.434	86.53
873.607	-1.54
873.78	14.85
873.953	33.28
874.126	-52.74
874.299	45.57
874.471	0.51
874.644	-28.16
874.817	45.57
874.99	-28.16
875.163	64
875.335	-54.78
875.508	-44.54
875.681	-40.45
875.853	43.52
876.026	55.81
876.199	90.62
876.371	23.04
876.544	-50.69
876.717	-38.4
876.889	2.56
877.062	23.04
877.234	6.66
877.407	16.9
877.579	59.9
877.752	16.9
877.924	14.85
878.097	4.61
878.269	43.52
878.442	55.81
878.614	-13.82
878.786	-5.63
878.959	49.66
879.131	43.52
879.303	-11.78
879.476	61.95
879.648	64
879.82	31.23
879.993	76.29
880.165	-42.5
880.337	43.52
880.509	-15.87
880.681	6.66
880.854	68.09
881.026	-11.78
881.198	41.47
881.37	70.14
881.542	-24.06
881.714	6.66
881.886	6.66
882.058	-26.11
882.23	66.05
882.402	47.62
882.574	33.28
882.746	-38.4
882.918	-54.78
883.09	-13.82
883.262	-3.58
883.434	29.18
883.606	-32.26
883.778	4.61
883.95	64
884.122	39.42
884.293	-1.54
884.465	-3.58
884.637	-60.93
884.809	12.8
884.98	43.52
885.152	18.94
885.324	29.18
885.496	-50.69
885.667	88.57
885.839	-13.82
886.011	-17.92
886.182	-11.78
886.354	-34.3
886.525	-26.11
886.697	10.75
886.869	29.18
887.04	37.38
887.212	-15.87
887.383	76.29
887.555	45.57
887.726	-9.73
887.897	10.75
888.069	2.56
888.24	53.76
888.412	23.04
888.583	55.81
888.754	-17.92
888.926	2.56
889.097	41.47
889.268	10.75
889.44	18.94
889.611	25.09
889.782	35.33
889.953	-81.41
890.125	72.19
890.296	-13.82
890.467	84.48
890.638	-17.92
890.809	12.8
890.98	43.52
891.151	-46.59
891.323	8.7
891.494	43.52
891.665	-5.63
891.836	55.81
892.007	-42.5
892.178	-40.45
892.349	-22.02
892.52	-5.63
892.691	-7.68
892.862	16.9
893.032	-19.97
893.203	-38.4
893.374	47.62
893.545	94.72
893.716	-36.35
893.887	-3.58
894.057	-40.45
894.228	61.95
894.399	-36.35
894.57	6.66
894.74	2.56
894.911	-3.58
895.082	-11.78
895.253	37.38
895.423	35.33
895.594	-24.06
895.764	-30.21
895.935	-7.68
896.106	37.38
896.276	18.94
896.447	16.9
896.617	10.75
896.788	-30.21
896.958	-11.78
897.129	14.85
897.299	-22.02
897.47	16.9
897.64	-19.97
897.81	31.23
897.981	-11.78
898.151	41.47
898.322	-38.4
898.492	-15.87
898.662	-7.68
898.832	-52.74
899.003	18.94
899.173	51.71
899.343	78.33
899.513	25.09
