Data from USB4F104151__81__13-54-22-711.txt Node

Date: Thu Mar 13 13:54:22 EDT 2025
User: louis
Spectrometer: USB4F10415
Trigger mode: 4
Integration Time (sec): 1.000000E-2
Scans to average: 1
Electric dark correction enabled: true
Nonlinearity correction enabled: false
Boxcar width: 0
XAxis mode: Wavelengths
Number of Pixels in Spectrum: 3648
>>>>>Begin Spectral Data<<<<<
178.204	-102.91
178.424	-102.91
178.644	-102.91
178.864	-57.86
179.084	-4.61
179.304	22.02
179.524	17.92
179.744	-2.56
179.964	5.63
180.184	-2.56
180.404	7.68
180.624	-35.33
180.844	38.4
181.064	-61.95
181.283	1.54
181.503	-41.47
181.723	50.69
181.943	-27.14
182.163	-8.7
182.383	83.45
182.602	-16.9
182.822	-43.52
183.042	11.78
183.262	13.82
183.482	-27.14
183.701	-8.7
183.921	-18.94
184.141	11.78
184.361	9.73
184.58	34.3
184.8	-27.14
185.02	62.98
185.239	-0.51
185.459	28.16
185.679	-37.38
185.898	-41.47
186.118	40.45
186.338	13.82
186.557	-47.62
186.777	7.68
186.997	-111.1
187.216	75.26
187.436	38.4
187.655	73.21
187.875	22.02
188.095	-35.33
188.314	15.87
188.534	17.92
188.753	15.87
188.973	15.87
189.192	-2.56
189.412	-49.66
189.631	-41.47
189.851	9.73
190.07	-33.28
190.29	-23.04
190.509	-41.47
190.729	34.3
190.948	52.74
191.168	9.73
191.387	40.45
191.607	13.82
191.826	-4.61
192.045	-16.9
192.265	-35.33
192.484	38.4
192.704	-2.56
192.923	-64
193.142	44.54
193.362	-29.18
193.581	48.64
193.8	-25.09
194.02	85.5
194.239	-14.85
194.458	28.16
194.678	19.97
194.897	-4.61
195.116	22.02
195.335	-47.62
195.555	-27.14
195.774	46.59
195.993	-10.75
196.212	13.82
196.432	42.5
196.651	-10.75
196.87	-16.9
197.089	83.45
197.308	34.3
197.528	-29.18
197.747	5.63
197.966	1.54
198.185	-2.56
198.404	3.58
198.623	-37.38
198.842	26.11
199.062	-20.99
199.281	60.93
199.5	-25.09
199.719	48.64
199.938	11.78
200.157	-18.94
200.376	-16.9
200.595	40.45
200.814	-37.38
201.033	60.93
201.252	30.21
201.471	-14.85
201.69	34.3
201.909	1.54
202.128	-0.51
202.347	-8.7
202.566	-37.38
202.785	-10.75
203.004	9.73
203.223	-29.18
203.442	58.88
203.661	7.68
203.879	-4.61
204.098	46.59
204.317	9.73
204.536	60.93
204.755	-20.99
204.974	15.87
205.193	69.12
205.411	-35.33
205.63	1.54
205.849	-0.51
206.068	-29.18
206.287	-6.66
206.505	89.6
206.724	-49.66
206.943	-10.75
207.162	-20.99
207.381	28.16
207.599	32.26
207.818	7.68
208.037	-29.18
208.255	-8.7
208.474	50.69
208.693	28.16
208.911	11.78
209.13	48.64
209.349	-4.61
209.567	-23.04
209.786	3.58
210.005	-10.75
210.223	67.07
210.442	-37.38
210.661	46.59
210.879	-25.09
211.098	9.73
211.316	-82.43
211.535	-37.38
211.753	-66.05
211.972	7.68
212.191	22.02
212.409	-6.66
212.628	54.78
212.846	-8.7
213.065	-8.7
213.283	67.07
213.502	-59.9
213.72	-23.04
213.938	-18.94
214.157	40.45
214.375	-10.75
214.594	3.58
214.812	-18.94
215.031	40.45
215.249	-0.51
215.467	56.83
215.686	-20.99
215.904	13.82
216.122	-16.9
216.341	-23.04
216.559	-25.09
216.778	101.89
216.996	26.11
217.214	13.82
217.432	-10.75
217.651	-61.95
217.869	-12.8
218.087	50.69
218.306	-31.23
218.524	54.78
218.742	-35.33
218.96	-14.85
219.179	-43.52
219.397	26.11
219.615	-29.18
219.833	-53.76
220.051	42.5
220.27	46.59
220.488	17.92
220.706	-20.99
220.924	62.98
221.142	24.06
221.36	138.75
221.578	-2.56
221.796	30.21
222.015	46.59
222.233	-53.76
222.451	71.17
222.669	36.35
222.887	34.3
223.105	-25.09
223.323	38.4
223.541	34.3
223.759	-66.05
223.977	-4.61
224.195	-53.76
224.413	3.58
224.631	-37.38
224.849	9.73
225.067	24.06
225.285	3.58
225.503	52.74
225.721	-43.52
225.939	22.02
226.157	-49.66
226.375	-43.52
226.592	15.87
226.81	9.73
227.028	15.87
227.246	24.06
227.464	24.06
227.682	44.54
227.9	-31.23
228.117	-35.33
228.335	17.92
228.553	19.97
228.771	-4.61
228.989	15.87
229.206	-16.9
229.424	24.06
229.642	40.45
229.86	-20.99
230.077	50.69
230.295	-0.51
230.513	26.11
230.731	-2.56
230.948	-39.42
231.166	22.02
231.384	1.54
231.601	19.97
231.819	-14.85
232.037	-70.14
232.254	-33.28
232.472	36.35
232.689	50.69
232.907	-16.9
233.125	-53.76
233.342	-25.09
233.56	-2.56
233.777	79.36
233.995	28.16
234.213	17.92
234.43	-6.66
234.648	44.54
234.865	-25.09
235.083	-4.61
235.3	5.63
235.518	-2.56
235.735	15.87
235.953	40.45
236.17	-35.33
236.388	62.98
236.605	-35.33
236.822	-18.94
237.04	15.87
237.257	38.4
237.475	-4.61
237.692	-2.56
237.909	30.21
238.127	3.58
238.344	-37.38
238.562	122.37
238.779	22.02
238.996	-31.23
239.214	-14.85
239.431	34.3
239.648	19.97
239.865	7.68
240.083	-6.66
240.3	7.68
240.517	11.78
240.735	-10.75
240.952	-12.8
241.169	-70.14
241.386	-16.9
241.603	17.92
241.821	-20.99
242.038	-25.09
242.255	-31.23
242.472	-23.04
242.689	22.02
242.907	15.87
243.124	3.58
243.341	-12.8
243.558	-12.8
243.775	24.06
243.992	-31.23
244.209	-0.51
244.426	11.78
244.643	17.92
244.86	-33.28
245.078	-27.14
245.295	-6.66
245.512	13.82
245.729	-18.94
245.946	-18.94
246.163	-20.99
246.38	15.87
246.597	71.17
246.814	-8.7
247.031	-31.23
247.248	28.16
247.464	77.31
247.681	56.83
247.898	36.35
248.115	7.68
248.332	-37.38
248.549	42.5
248.766	5.63
248.983	-33.28
249.2	-18.94
249.417	-25.09
249.633	50.69
249.85	3.58
250.067	-35.33
250.284	17.92
250.501	32.26
250.717	-4.61
250.934	3.58
251.151	-10.75
251.368	-66.05
251.585	67.07
251.801	17.92
252.018	13.82
252.235	36.35
252.451	-18.94
252.668	34.3
252.885	-16.9
253.102	-35.33
253.318	-25.09
253.535	46.59
253.752	-33.28
253.968	-4.61
254.185	34.3
254.401	-53.76
254.618	15.87
254.835	40.45
255.051	-8.7
255.268	-2.56
255.484	36.35
255.701	7.68
255.917	46.59
256.134	-29.18
256.351	24.06
256.567	9.73
256.784	89.6
257	-64
257.217	28.16
257.433	-12.8
257.65	46.59
257.866	-37.38
258.082	36.35
258.299	11.78
258.515	1.54
258.732	-123.39
258.948	-51.71
259.165	-23.04
259.381	-8.7
259.597	52.74
259.814	48.64
260.03	11.78
260.246	-25.09
260.463	-8.7
260.679	3.58
260.895	13.82
261.112	-4.61
261.328	7.68
261.544	5.63
261.761	11.78
261.977	-47.62
262.193	-0.51
262.409	52.74
262.626	1.54
262.842	69.12
263.058	3.58
263.274	11.78
263.49	26.11
263.707	-2.56
263.923	-68.09
264.139	-33.28
264.355	17.92
264.571	-16.9
264.787	13.82
265.004	3.58
265.22	-4.61
265.436	3.58
265.652	-27.14
265.868	13.82
266.084	-33.28
266.3	-39.42
266.516	-61.95
266.732	-2.56
266.948	-25.09
267.164	-55.81
267.38	30.21
267.596	19.97
267.812	36.35
268.028	19.97
268.244	-53.76
268.46	-29.18
268.676	-45.57
268.892	-4.61
269.108	-31.23
269.324	-16.9
269.54	-64
269.756	36.35
269.972	-39.42
270.188	-27.14
270.403	11.78
270.619	-45.57
270.835	7.68
271.051	11.78
271.267	34.3
271.483	-51.71
271.698	7.68
271.914	-23.04
272.13	-45.57
272.346	15.87
272.562	38.4
272.777	46.59
272.993	9.73
273.209	-27.14
273.425	26.11
273.64	-43.52
273.856	30.21
274.072	-33.28
274.287	-33.28
274.503	24.06
274.719	1.54
274.934	-20.99
275.15	-16.9
275.366	-41.47
275.581	-45.57
275.797	79.36
276.012	-16.9
276.228	-4.61
276.444	-16.9
276.659	13.82
276.875	-53.76
277.09	-61.95
277.306	71.17
277.521	-4.61
277.737	-12.8
277.952	-53.76
278.168	-0.51
278.383	-27.14
278.599	-68.09
278.814	32.26
279.03	-74.24
279.245	26.11
279.461	-18.94
279.676	15.87
279.892	44.54
280.107	32.26
280.322	-49.66
280.538	9.73
280.753	38.4
280.969	-10.75
281.184	32.26
281.399	58.88
281.615	-41.47
281.83	28.16
282.045	5.63
282.26	-72.19
282.476	-59.9
282.691	62.98
282.906	-70.14
283.122	40.45
283.337	13.82
283.552	-23.04
283.767	-29.18
283.983	-18.94
284.198	19.97
284.413	52.74
284.628	-0.51
284.843	9.73
285.058	17.92
285.274	48.64
285.489	-115.2
285.704	17.92
285.919	5.63
286.134	-4.61
286.349	-37.38
286.564	36.35
286.779	3.58
286.995	-4.61
287.21	32.26
287.425	9.73
287.64	-12.8
287.855	60.93
288.07	-4.61
288.285	-43.52
288.5	-74.24
288.715	5.63
288.93	-23.04
289.145	17.92
289.36	-37.38
289.575	-20.99
289.79	-72.19
290.004	-12.8
290.219	-37.38
290.434	73.21
290.649	-37.38
290.864	3.58
291.079	-72.19
291.294	-64
291.509	67.07
291.724	-29.18
291.938	-6.66
292.153	1.54
292.368	-10.75
292.583	13.82
292.798	3.58
293.012	52.74
293.227	-80.38
293.442	19.97
293.657	17.92
293.871	-31.23
294.086	40.45
294.301	36.35
294.516	-0.51
294.73	36.35
294.945	-2.56
295.16	-39.42
295.374	-16.9
295.589	-31.23
295.804	-53.76
296.018	67.07
296.233	-6.66
296.447	36.35
296.662	19.97
296.877	32.26
297.091	15.87
297.306	-33.28
297.52	-4.61
297.735	44.54
297.949	-49.66
298.164	36.35
298.378	-18.94
298.593	32.26
298.807	-6.66
299.022	19.97
299.236	15.87
299.451	-45.57
299.665	7.68
299.88	-45.57
300.094	-68.09
300.309	-27.14
300.523	-33.28
300.737	42.5
300.952	50.69
301.166	32.26
301.381	26.11
301.595	-25.09
301.809	1.54
302.024	46.59
302.238	-18.94
302.452	-51.71
302.667	3.58
302.881	-12.8
303.095	22.02
303.309	-2.56
303.524	44.54
303.738	26.11
303.952	19.97
304.166	-12.8
304.381	28.16
304.595	-4.61
304.809	-66.05
305.023	32.26
305.237	50.69
305.452	-37.38
305.666	77.31
305.88	56.83
306.094	-25.09
306.308	-35.33
306.522	32.26
306.736	-2.56
306.95	19.97
307.164	-12.8
307.379	40.45
307.593	62.98
307.807	-41.47
308.021	17.92
308.235	1.54
308.449	1.54
308.663	15.87
308.877	17.92
309.091	-25.09
309.305	-2.56
309.519	13.82
309.733	-12.8
309.947	32.26
310.161	79.36
310.374	28.16
310.588	9.73
310.802	28.16
311.016	-2.56
311.23	56.83
311.444	26.11
311.658	-8.7
311.872	-86.53
312.085	28.16
312.299	9.73
312.513	15.87
312.727	-2.56
312.941	-31.23
313.154	48.64
313.368	3.58
313.582	11.78
313.796	-12.8
314.009	38.4
314.223	56.83
314.437	28.16
314.651	-33.28
314.864	42.5
315.078	-23.04
315.292	-25.09
315.505	22.02
315.719	69.12
315.933	-18.94
316.146	-35.33
316.36	-2.56
316.573	5.63
316.787	-45.57
317.001	-33.28
317.214	-64
317.428	-64
317.641	-14.85
317.855	-6.66
318.068	-64
318.282	17.92
318.495	58.88
318.709	36.35
318.922	24.06
319.136	-31.23
319.349	9.73
319.563	30.21
319.776	15.87
319.99	13.82
320.203	11.78
320.417	24.06
320.63	13.82
320.843	54.78
321.057	-25.09
321.27	-27.14
321.483	15.87
321.697	-8.7
321.91	-53.76
322.124	28.16
322.337	69.12
322.55	36.35
322.763	91.65
322.977	54.78
323.19	-23.04
323.403	24.06
323.617	30.21
323.83	-4.61
324.043	50.69
324.256	32.26
324.469	32.26
324.683	93.69
324.896	-39.42
325.109	69.12
325.322	-72.19
325.535	28.16
325.748	32.26
325.962	56.83
326.175	-23.04
326.388	-2.56
326.601	-29.18
326.814	5.63
327.027	34.3
327.24	32.26
327.453	-0.51
327.666	36.35
327.879	30.21
328.092	-39.42
328.305	60.93
328.518	-0.51
328.731	17.92
328.944	44.54
329.157	19.97
329.37	-12.8
329.583	-25.09
329.796	40.45
330.009	5.63
330.222	34.3
330.435	-10.75
330.648	-37.38
330.861	1.54
331.073	-12.8
331.286	-10.75
331.499	46.59
331.712	-45.57
331.925	-23.04
332.138	-4.61
332.35	-86.53
332.563	-0.51
332.776	54.78
332.989	22.02
333.202	9.73
333.414	-33.28
333.627	38.4
333.84	19.97
334.053	34.3
334.265	-39.42
334.478	19.97
334.691	-51.71
334.903	-100.86
335.116	-12.8
335.329	11.78
335.541	19.97
335.754	1.54
335.966	62.98
336.179	-2.56
336.392	-23.04
336.604	30.21
336.817	15.87
337.029	-47.62
337.242	-61.95
337.454	-0.51
337.667	9.73
337.88	13.82
338.092	-33.28
338.305	28.16
338.517	-8.7
338.729	26.11
338.942	9.73
339.154	-10.75
339.367	-16.9
339.579	19.97
339.792	-0.51
340.004	-27.14
340.217	-41.47
340.429	17.92
340.641	-33.28
340.854	17.92
341.066	52.74
341.278	-59.9
341.491	22.02
341.703	-51.71
341.915	3.58
342.128	40.45
342.34	-8.7
342.552	-23.04
342.764	126.46
342.977	-10.75
343.189	9.73
343.401	-12.8
343.613	-6.66
343.826	34.3
344.038	-33.28
344.25	-0.51
344.462	9.73
344.674	28.16
344.886	-49.66
345.099	-16.9
345.311	-10.75
345.523	7.68
345.735	5.63
345.947	-2.56
346.159	46.59
346.371	42.5
346.583	-29.18
346.795	54.78
347.007	13.82
347.219	-2.56
347.431	-12.8
347.643	11.78
347.855	36.35
348.067	34.3
348.279	40.45
348.491	9.73
348.703	13.82
348.915	5.63
349.127	-37.38
349.339	15.87
349.551	-16.9
349.763	5.63
349.975	-53.76
350.187	-37.38
350.399	5.63
350.61	36.35
350.822	-37.38
351.034	38.4
351.246	-12.8
351.458	-4.61
351.669	-57.86
351.881	62.98
352.093	-43.52
352.305	50.69
352.517	-29.18
352.728	60.93
352.94	58.88
353.152	48.64
353.363	65.02
353.575	65.02
353.787	17.92
353.999	56.83
354.21	-29.18
354.422	5.63
354.633	91.65
354.845	30.21
355.057	-10.75
355.268	-18.94
355.48	1.54
355.692	-31.23
355.903	-25.09
356.115	-12.8
356.326	13.82
356.538	5.63
356.749	22.02
356.961	69.12
357.172	77.31
357.384	11.78
357.595	-2.56
357.807	5.63
358.018	-14.85
358.23	36.35
358.441	-10.75
358.653	-6.66
358.864	-8.7
359.075	1.54
359.287	-8.7
359.498	30.21
359.709	9.73
359.921	85.5
360.132	-25.09
360.344	46.59
360.555	-45.57
360.766	15.87
360.977	-20.99
361.189	3.58
361.4	-12.8
361.611	-10.75
361.823	5.63
362.034	-33.28
362.245	-23.04
362.456	-23.04
362.667	-18.94
362.879	3.58
363.09	-96.77
363.301	-0.51
363.512	-49.66
363.723	69.12
363.935	22.02
364.146	-2.56
364.357	-39.42
364.568	71.17
364.779	9.73
364.99	-35.33
365.201	3.58
365.412	58.88
365.623	13.82
365.834	32.26
366.045	24.06
366.256	5.63
366.467	-27.14
366.678	34.3
366.889	38.4
367.1	48.64
367.311	46.59
367.522	-35.33
367.733	52.74
367.944	32.26
368.155	-10.75
368.366	38.4
368.577	-37.38
368.788	40.45
368.999	42.5
369.209	-2.56
369.42	65.02
369.631	-20.99
369.842	-4.61
370.053	40.45
370.264	-25.09
370.474	-14.85
370.685	19.97
370.896	-25.09
371.107	17.92
371.317	-27.14
371.528	5.63
371.739	71.17
371.95	9.73
372.16	28.16
372.371	-80.38
372.582	22.02
372.792	54.78
373.003	32.26
373.214	-2.56
373.424	30.21
373.635	-35.33
373.846	22.02
374.056	48.64
374.267	77.31
374.477	7.68
374.688	32.26
374.898	-20.99
375.109	13.82
375.319	-39.42
375.53	44.54
375.74	46.59
375.951	-2.56
376.161	-16.9
376.372	42.5
376.582	56.83
376.793	-31.23
377.003	13.82
377.214	-2.56
377.424	-0.51
377.635	60.93
377.845	28.16
378.055	5.63
378.266	1.54
378.476	67.07
378.686	26.11
378.897	3.58
379.107	26.11
379.317	28.16
379.528	46.59
379.738	30.21
379.948	-35.33
380.158	1.54
380.369	36.35
380.579	-4.61
380.789	46.59
380.999	-0.51
381.21	-16.9
381.42	69.12
381.63	-53.76
381.84	32.26
382.05	110.08
382.261	38.4
382.471	44.54
382.681	-33.28
382.891	42.5
383.101	-23.04
383.311	-8.7
383.521	-45.57
383.731	-43.52
383.941	62.98
384.151	-20.99
384.361	22.02
384.571	24.06
384.781	19.97
384.991	36.35
385.201	-37.38
385.411	48.64
385.621	-8.7
385.831	-0.51
386.041	30.21
386.251	-20.99
386.461	22.02
386.671	11.78
386.881	65.02
387.091	-45.57
387.301	9.73
387.511	81.41
387.72	-10.75
387.93	40.45
388.14	-74.24
388.35	-49.66
388.56	40.45
388.769	56.83
388.979	30.21
389.189	13.82
389.399	65.02
389.609	-6.66
389.818	52.74
390.028	60.93
390.238	3.58
390.447	-33.28
390.657	60.93
390.867	58.88
391.076	26.11
391.286	34.3
391.496	48.64
391.705	-4.61
391.915	-2.56
392.125	52.74
392.334	3.58
392.544	67.07
392.753	-18.94
392.963	17.92
393.172	73.21
393.382	3.58
393.591	19.97
393.801	3.58
394.01	9.73
394.22	-35.33
394.429	11.78
394.639	-18.94
394.848	38.4
395.058	30.21
395.267	112.13
395.477	-29.18
395.686	62.98
395.895	13.82
396.105	-8.7
396.314	13.82
396.524	-27.14
396.733	15.87
396.942	67.07
397.152	46.59
397.361	3.58
397.57	-12.8
397.78	50.69
397.989	54.78
398.198	62.98
398.407	91.65
398.617	83.45
398.826	54.78
399.035	36.35
399.244	15.87
399.453	28.16
399.663	87.55
399.872	-25.09
400.081	3.58
400.29	34.3
400.499	-14.85
400.708	19.97
400.917	-29.18
401.127	19.97
401.336	85.5
401.545	114.17
401.754	26.11
401.963	67.07
402.172	-2.56
402.381	71.17
402.59	24.06
402.799	5.63
403.008	9.73
403.217	15.87
403.426	19.97
403.635	93.69
403.844	87.55
404.053	134.65
404.262	46.59
404.471	93.69
404.68	73.21
404.888	34.3
405.097	34.3
405.306	99.84
405.515	30.21
405.724	73.21
405.933	60.93
406.142	42.5
406.35	77.31
406.559	62.98
406.768	73.21
406.977	75.26
407.185	79.36
407.394	85.5
407.603	38.4
407.812	89.6
408.02	116.22
408.229	142.85
408.438	46.59
408.646	17.92
408.855	118.27
409.064	44.54
409.272	44.54
409.481	73.21
409.69	112.13
409.898	136.7
410.107	144.89
410.315	183.81
410.524	138.75
410.733	159.23
410.941	163.33
411.15	161.28
411.358	189.95
411.567	220.67
411.775	140.8
411.984	103.93
412.192	163.33
412.401	130.56
412.609	124.41
412.818	179.71
413.026	153.09
413.234	189.95
413.443	245.24
413.651	155.13
413.86	261.63
414.068	200.19
414.276	212.48
414.485	257.53
414.693	245.24
414.901	306.68
415.11	251.39
415.318	216.57
415.526	300.54
415.734	345.59
415.943	261.63
416.151	296.44
416.359	241.15
416.567	355.83
416.776	325.12
416.984	310.78
417.192	376.31
417.4	388.6
417.608	353.79
417.817	423.42
418.025	407.03
418.233	421.37
418.441	450.04
418.649	534.01
418.857	458.23
419.065	507.38
419.273	540.15
419.481	478.71
419.689	525.82
419.897	624.12
420.105	597.49
420.313	622.07
420.521	599.54
420.729	701.94
420.937	769.52
421.145	689.65
421.353	703.99
421.561	781.81
421.769	759.28
421.977	806.39
422.185	787.96
422.393	833.01
422.601	902.64
422.809	865.78
423.017	853.49
423.224	937.46
423.432	986.61
423.64	986.61
423.848	1021.42
424.056	1086.96
424.263	1035.76
424.471	1119.73
424.679	1197.55
424.887	1142.25
425.094	1195.5
425.302	1193.45
425.51	1308.14
425.718	1308.14
425.925	1326.57
426.133	1377.77
426.341	1519.08
426.548	1592.81
426.756	1347.05
426.964	1521.13
427.171	1689.06
427.379	1603.05
427.586	1633.77
427.794	1773.03
428.001	1762.79
428.209	1959.39
428.417	1930.72
428.624	2031.07
428.832	1990.11
429.039	2035.17
429.247	2104.8
429.454	2221.53
429.662	2393.56
429.869	2125.28
430.076	2405.85
430.284	2311.64
430.491	2416.09
430.699	2563.54
430.906	2577.88
431.114	2457.05
431.321	2635.22
431.528	2696.66
431.736	2715.09
431.943	3003.86
432.15	2790.87
432.358	2874.84
432.565	2989.52
432.772	3010
432.979	3208.66
433.187	3442.12
433.394	3321.29
433.601	3517.9
433.808	3466.7
434.016	3487.18
434.223	3552.71
434.43	3954.12
434.637	3691.98
434.844	4048.32
435.052	4093.38
435.259	4081.09
435.466	4183.49
435.673	4167.1
435.88	4398.52
436.087	4576.7
436.294	4629.95
436.501	4505.02
436.708	4726.2
436.915	4742.58
437.122	4877.75
437.329	4943.28
437.537	5012.92
437.743	5002.68
437.95	5049.78
438.157	5404.08
438.364	5504.43
438.571	5545.39
438.778	5569.96
438.985	6253.98
439.192	5934.5
439.399	6024.61
439.606	5911.97
439.813	6319.52
440.02	6653.34
440.227	6557.08
440.433	6563.23
440.64	6583.71
440.847	6499.74
441.054	6864.28
441.261	7308.69
441.467	7214.48
441.674	7253.39
441.881	7493.01
442.088	7435.66
442.294	7644.56
442.501	7859.59
442.708	7777.67
442.914	8226.18
443.121	8547.71
443.328	8226.18
443.534	8670.59
443.741	8768.89
443.948	8549.76
444.154	9158
444.361	8975.74
444.568	9110.9
444.774	9092.47
444.981	9190.77
445.187	9520.49
445.394	10153.32
445.6	9983.34
445.807	10495.33
446.013	10122.6
446.22	10440.03
446.426	10734.94
446.633	10970.46
446.839	11285.84
447.046	10966.36
447.252	11619.66
447.459	11400.53
447.665	11468.11
447.871	11889.99
448.078	12512.58
448.284	11910.47
448.491	12096.84
448.697	12426.56
448.903	12815.68
449.11	12821.82
449.316	12727.61
449.522	12821.82
449.728	13325.62
449.935	13344.05
450.141	13251.89
450.347	13540.66
450.553	13110.58
450.76	13387.06
450.966	13864.24
451.172	13778.22
451.378	14054.7
451.584	13628.72
451.791	13675.82
451.997	13759.79
452.203	14148.9
452.409	14060.84
452.615	14089.51
452.821	13503.79
453.027	13290.81
453.233	14050.6
453.44	13544.75
453.646	13638.96
453.852	13694.26
454.058	14150.95
454.264	13507.89
454.47	14052.65
454.676	13442.35
454.882	14134.57
455.088	12866.88
455.294	12975.42
455.5	13045.05
455.705	13407.54
455.911	12447.04
456.117	12531.01
456.323	12242.25
456.529	11582.8
456.735	12369.22
456.941	11838.8
457.147	11806.03
457.352	11302.23
457.558	11025.75
457.764	11117.91
457.97	10786.14
458.176	10487.14
458.381	10775.9
458.587	10028.39
458.793	10192.23
458.999	9559.41
459.204	10261.86
459.41	10175.84
459.616	9330.03
459.821	9522.54
460.027	9403.76
460.233	9219.44
460.438	8701.31
460.644	8793.47
460.85	8564.09
461.055	8332.67
461.261	8357.25
461.466	7632.27
461.672	7544.2
461.878	7906.7
462.083	7493.01
462.289	7306.64
462.494	7406.99
462.7	6903.19
462.905	6874.52
463.111	7005.59
463.316	6933.91
463.522	6923.67
463.727	6778.26
463.932	6950.29
464.138	6892.95
464.343	6737.31
464.549	6679.96
464.754	6851.99
464.959	6849.94
465.165	6778.26
465.37	6387.1
465.575	6223.27
465.781	6641.05
465.986	6647.19
466.191	6198.69
466.397	6301.09
466.602	6061.48
466.807	6129.06
467.012	6180.26
467.218	6112.67
467.423	6084
467.628	6188.45
467.833	6434.21
468.038	6116.77
468.244	5961.13
468.449	6051.24
468.654	5948.84
468.859	5811.62
469.064	5799.34
469.269	5676.46
469.474	5868.97
469.679	5828.01
469.885	5782.95
470.09	5584.3
470.295	5821.86
470.5	5692.84
470.705	5711.27
470.91	5537.2
471.115	5416.37
471.32	5518.76
471.525	5377.45
471.73	5273.01
471.935	5352.88
472.139	5109.17
472.344	5195.18
472.549	5150.13
472.754	5017.01
472.959	4926.9
473.164	4885.94
473.369	4752.82
473.574	4939.19
473.778	4928.95
473.983	4865.46
474.188	4832.69
474.393	4578.75
474.598	4830.65
474.802	4488.64
475.007	4613.56
475.212	4652.47
475.417	4228.54
475.621	4453.82
475.826	4474.3
476.031	4255.17
476.235	4201.92
476.44	4339.13
476.645	4294.08
476.849	4339.13
477.054	4261.31
477.259	4238.78
477.463	4038.08
477.668	4117.95
477.872	4206.02
478.077	4038.08
478.282	3907.01
478.486	3988.93
478.691	3872.2
478.895	3880.39
479.1	3921.35
479.304	3915.2
479.509	3909.06
479.713	3919.3
479.918	3704.26
480.122	3626.44
480.326	3802.57
480.531	3812.81
480.735	3814.85
480.94	3622.34
481.144	3872.2
481.348	3487.18
481.553	3620.3
481.757	3665.35
481.961	3538.38
482.166	3620.3
482.37	3720.65
482.574	3515.85
482.778	3605.96
482.983	3630.54
483.187	3663.3
483.391	3624.39
483.595	3587.53
483.8	3493.32
484.004	3628.49
484.208	3667.4
484.412	3487.18
484.616	3476.94
484.821	3632.58
485.025	3466.7
485.229	3706.31
485.433	3395.02
485.637	3458.51
485.841	3614.15
486.045	3622.34
486.249	3536.33
486.453	3669.45
486.657	3671.5
486.861	3642.82
487.065	3501.51
487.269	3687.88
487.473	3587.53
487.677	3657.16
487.881	3716.55
488.085	3503.56
488.289	3593.67
488.493	3608.01
488.697	3767.75
488.901	3663.3
489.105	3726.79
489.309	3677.64
489.512	3741.13
489.716	3610.06
489.92	3714.5
490.124	3712.46
490.328	3767.75
490.531	3700.17
490.735	3763.65
490.939	3743.17
491.143	3741.13
491.346	3655.11
491.55	3841.48
491.754	3954.12
491.958	3958.21
492.161	3890.63
492.365	3759.56
492.569	3878.34
492.772	4023.75
492.976	3884.48
493.18	4019.65
493.383	3941.83
493.587	3976.64
493.79	4052.42
493.994	4091.33
494.197	3913.16
494.401	4122.05
494.605	4117.95
494.808	4263.36
495.012	4132.29
495.215	4132.29
495.419	4208.06
495.622	4328.89
495.825	4234.69
496.029	4382.14
496.232	4539.83
496.436	4472.25
496.639	4507.07
496.843	4519.36
497.046	4748.73
497.249	4613.56
497.453	4808.12
497.656	4797.88
497.859	4580.79
498.063	4863.41
498.266	4965.81
498.469	4959.67
498.673	5002.68
498.876	5268.91
499.079	5160.37
499.282	5121.46
499.485	5254.58
499.689	5395.89
499.892	5399.98
500.095	5483.95
500.298	5490.09
500.501	5514.67
500.705	5477.8
500.908	5733.8
501.111	5846.44
501.314	5911.97
501.517	5838.25
501.72	6026.66
501.923	5975.46
502.126	6098.34
502.329	6426.01
502.532	6305.18
502.735	6378.91
502.938	6448.54
503.141	6569.37
503.344	6516.12
503.547	6745.5
503.75	6819.22
503.953	7030.16
504.156	7011.73
504.359	7185.81
504.562	7222.67
504.765	7224.72
504.968	7255.44
505.17	7507.34
505.373	7437.71
505.576	7654.8
505.779	7878.02
505.982	7693.71
506.185	7953.8
506.387	8115.59
506.59	8244.61
506.793	8271.23
506.996	8318.34
507.198	8553.85
507.401	8576.38
507.604	8668.54
507.807	8793.47
508.009	9084.28
508.212	8899.96
508.415	9225.59
508.617	9221.49
508.82	9307.51
509.022	9299.31
509.225	9586.03
509.428	9733.48
509.63	9905.51
509.833	9831.79
510.035	10349.92
510.238	10106.21
510.44	10196.32
510.643	10511.71
510.845	10634.59
511.048	10648.93
511.25	10945.88
511.453	10941.79
511.655	11414.87
511.858	11203.93
512.06	11312.47
512.262	11806.03
512.465	11509.07
512.667	11867.47
512.87	12037.45
513.072	12012.87
513.274	12422.47
513.477	12547.39
513.679	12643.65
513.881	12926.27
514.084	12979.51
514.286	13135.16
514.488	13272.37
514.69	13524.27
514.893	13645.1
515.095	13645.1
515.297	13978.92
515.499	14116.14
515.701	14040.36
515.904	14335.27
516.106	14507.3
516.308	14681.38
516.51	14986.52
516.712	15074.59
516.914	15240.47
517.116	15512.85
517.318	15645.97
517.52	15734.03
517.722	15975.69
517.925	16076.04
518.127	16555.27
518.329	16354.57
518.531	16448.77
518.733	17052.92
518.935	17083.64
519.136	17300.73
519.338	17532.15
519.54	17483
519.742	17827.06
519.944	17925.36
520.146	18199.79
520.348	18394.34
520.55	18433.25
520.752	18742.5
520.954	19102.94
521.155	18992.35
521.357	19397.85
521.559	19403.99
521.761	19682.52
521.963	19786.96
522.164	20141.26
522.366	20272.33
522.568	20466.89
522.77	20567.24
522.971	20929.73
523.173	20831.43
523.375	21185.72
523.576	21417.15
523.778	21333.18
523.98	21648.57
524.181	21677.24
524.383	21703.86
524.584	21933.23
524.786	22246.57
524.988	22271.15
525.189	22703.27
525.391	22787.24
525.592	22957.22
525.794	22908.07
525.995	23266.46
526.197	22985.89
526.398	23153.82
526.6	23450.78
526.801	23340.19
527.003	23616.66
527.204	23516.31
527.406	24013.97
527.607	23934.1
527.808	24167.57
528.01	24016.02
528.211	24341.64
528.412	24720.52
528.614	24425.61
528.815	24972.42
529.016	24933.51
529.218	24673.42
529.419	25066.63
529.62	24951.94
529.822	24738.95
530.023	25171.07
530.224	25369.72
530.425	25187.46
530.626	25058.43
530.828	24867.97
531.029	25773.17
531.23	25529.47
531.431	25437.31
531.632	25422.97
531.833	25590.91
532.035	25429.12
532.236	25535.61
532.437	25769.08
532.638	25810.04
532.839	26209.39
533.04	26139.76
533.241	25754.74
533.442	26070.13
533.643	26190.96
533.844	26299.5
534.045	26145.91
534.246	25986.16
534.447	26186.86
534.648	26039.41
534.849	26139.76
535.05	26117.23
535.251	25986.16
535.451	26227.82
535.652	26291.31
535.853	26504.3
536.054	26477.68
536.255	26457.2
536.456	26252.4
536.657	26725.48
536.857	26309.74
537.058	26231.92
537.259	26264.69
537.46	26541.16
537.66	26725.48
537.861	26586.22
538.062	26502.25
538.263	26637.42
538.463	26750.06
538.664	26606.7
538.865	26496.11
539.065	26573.93
539.266	26426.48
539.466	26741.86
539.667	26481.77
539.868	26795.11
540.068	26926.18
540.269	26756.2
540.469	26594.41
540.67	26125.43
540.87	26829.93
541.071	26506.35
541.271	26618.99
541.472	26741.86
541.672	26483.82
541.873	26328.17
542.073	26209.39
542.274	26614.89
542.474	26635.37
542.675	26655.85
542.875	26539.12
543.075	26485.87
543.276	26369.13
543.476	26612.84
543.676	26379.37
543.877	26840.17
544.077	26831.97
544.277	26422.38
544.478	26782.82
544.678	26625.13
544.878	26512.49
545.078	26614.89
545.279	26614.89
545.479	26567.79
545.679	26354.8
545.879	26829.93
546.079	27010.15
546.28	26672.23
546.48	26645.61
546.68	26678.38
546.88	26700.9
547.08	26641.51
547.28	26500.2
547.48	26582.12
547.68	26700.9
547.88	26520.68
548.081	26963.04
548.281	26614.89
548.481	26791.02
548.681	26723.43
548.881	26719.34
549.081	26764.39
549.28	26709.1
549.48	26692.71
549.68	26524.78
549.88	26805.35
550.08	26395.76
550.28	26684.52
550.48	26528.88
550.68	26664.04
550.88	26705
551.08	27020.39
551.279	26963.04
551.479	26514.54
551.679	26420.33
551.879	26449
552.079	26758.25
552.278	26180.72
552.478	26555.5
552.678	26412.14
552.878	26967.14
553.077	26461.29
553.277	26336.37
553.477	26725.48
553.676	26389.61
553.876	26299.5
554.076	26377.33
554.275	26700.9
554.475	26205.3
554.674	26502.25
554.874	26434.67
555.074	25955.44
555.273	26391.66
555.473	26598.51
555.672	26432.62
555.872	26131.57
556.071	25910.39
556.271	25959.54
556.47	25746.55
556.67	26018.93
556.869	26063.99
557.068	26133.62
557.268	25830.52
557.467	25992.31
557.667	26076.27
557.866	25846.9
558.065	25937.01
558.265	25818.23
558.464	25302.14
558.663	25844.85
558.863	25318.53
559.062	25644.15
559.261	25767.03
559.461	25795.7
559.66	25420.92
559.859	25560.19
560.058	25244.8
560.258	25678.97
560.457	25207.94
560.656	25064.58
560.855	25087.11
561.054	25318.53
561.253	25207.94
561.453	24900.74
561.652	25529.47
561.851	25152.64
562.05	25103.49
562.249	24562.83
562.448	25054.34
562.647	24816.77
562.846	24816.77
563.045	24865.92
563.244	24933.51
563.443	24843.4
563.642	24589.45
563.841	24745.09
564.04	24358.03
564.239	24851.59
564.438	24331.4
564.637	24446.09
564.836	24474.76
565.035	24188.05
565.234	24556.68
565.432	24198.29
565.631	24097.94
565.83	23962.77
566.029	23940.24
566.228	23921.81
566.427	23874.71
566.625	23829.65
566.824	23489.69
567.023	23776.41
567.222	23303.32
567.42	23698.58
567.619	23483.55
567.818	23694.49
568.016	23344.28
568.215	23596.18
568.414	23590.04
568.612	23389.34
568.811	23149.73
569.01	23383.2
569.208	23002.27
569.407	23151.77
569.605	22756.52
569.804	23057.57
570.002	22803.62
570.201	22805.67
570.4	22647.97
570.598	22475.95
570.797	22252.72
570.995	22346.92
571.193	22287.53
571.392	22537.38
571.59	22131.89
571.789	21916.85
571.987	21957.81
572.186	22023.34
572.384	21875.89
572.582	21802.16
572.781	22015.15
572.979	21363.9
573.177	21638.33
573.376	21585.08
573.574	21241.02
573.772	21490.87
573.971	21066.94
574.169	21343.42
574.367	21021.89
574.565	21449.91
574.763	21021.89
574.962	20876.48
575.16	20679.88
575.358	21050.56
575.556	20581.57
575.754	21005.5
575.952	20333.77
576.151	20856
576.349	20552.9
576.547	20346.06
576.745	20389.06
576.943	20606.15
577.141	20096.21
577.339	20065.49
577.537	20124.88
577.735	19930.32
577.933	19643.6
578.131	20008.14
578.329	19653.84
578.527	19844.31
578.725	19848.4
578.923	19735.76
579.121	19594.45
579.319	19670.23
579.516	19700.95
579.714	19389.66
579.912	19231.96
580.11	19264.73
580.308	19313.88
580.506	19285.21
580.704	19133.66
580.901	19115.23
581.099	19158.24
581.297	18748.64
581.495	18984.16
581.692	18734.31
581.89	18584.8
582.088	18543.85
582.285	18533.61
582.483	18875.62
582.681	18615.52
582.878	18615.52
583.076	18177.26
583.274	18277.61
583.471	17888.5
583.669	18056.43
583.866	17978.61
584.064	18195.69
584.262	17612.02
584.459	18191.59
584.657	17962.22
584.854	18142.44
585.052	17632.5
585.249	17624.31
585.447	17964.27
585.644	17540.34
585.841	17591.54
586.039	17480.95
586.236	17216.76
586.434	17337.59
586.631	17155.32
586.828	17194.23
587.026	17218.81
587.223	17411.32
587.42	17163.51
587.618	16948.48
587.815	16801.02
588.012	16557.32
588.21	16786.69
588.407	16755.97
588.604	16895.23
588.801	16692.48
588.999	16823.55
589.196	16514.31
589.393	16547.08
589.59	16512.26
589.787	16315.66
589.984	16528.64
590.182	16217.35
590.379	16448.77
590.576	16252.17
590.773	16166.15
590.97	16160.01
591.167	15996.17
591.364	16157.96
591.561	15934.73
591.758	15813.9
591.955	15910.16
592.152	16119.05
592.349	16002.32
592.546	15901.97
592.743	15789.33
592.94	15506.71
593.137	15611.15
593.334	15754.51
593.531	15416.6
593.727	15512.85
593.924	15500.56
594.121	15080.73
594.318	15402.26
594.515	15146.26
594.712	15531.28
594.908	15224.09
595.105	14943.52
595.302	15146.26
595.499	15316.25
595.696	15037.72
595.892	15254.81
596.089	14945.56
596.286	14961.95
596.482	14955.8
596.679	14841.12
596.876	14882.08
597.072	14777.63
597.269	14732.58
597.466	14384.42
597.662	14613.79
597.859	14544.16
598.055	14439.72
598.252	14392.61
598.448	14216.49
598.645	14286.12
598.841	14363.94
599.038	14316.84
599.234	14216.49
599.431	13894.96
599.627	13870.38
599.824	14171.43
600.02	13569.33
600.217	13987.11
600.413	13993.26
600.609	13882.67
600.806	13727.02
601.002	13890.86
601.198	13847.85
601.395	13565.23
601.591	13663.54
601.787	13702.45
601.984	13614.38
602.18	13741.36
602.376	13409.59
602.572	13255.99
602.769	13436.21
602.965	13266.23
603.161	13071.67
603.357	13133.11
603.553	13301.05
603.75	13235.51
603.946	13180.21
604.142	13215.03
604.338	12928.31
604.534	12956.99
604.73	12643.65
604.926	12946.75
605.122	12787
605.318	12760.38
605.514	12762.43
605.71	12682.56
605.906	12492.1
606.102	12469.57
606.298	12590.4
606.494	12334.4
606.69	12731.71
606.886	12637.5
607.082	12127.56
607.278	12315.97
607.474	12199.24
607.67	12375.36
607.866	12166.47
608.062	12199.24
608.257	12340.55
608.453	11887.95
608.649	12367.17
608.845	11959.63
609.041	11930.95
609.236	11939.15
609.432	11978.06
609.628	11818.32
609.824	11713.87
610.019	11799.88
610.215	11681.1
610.411	11642.19
610.606	11470.16
610.802	11869.51
610.998	11666.77
611.193	11599.18
611.389	11527.5
611.584	11482.45
611.78	11330.9
611.976	11083.09
612.171	11441.49
612.367	11269.46
612.562	11312.47
612.758	11183.45
612.953	11103.57
613.149	11322.71
613.344	10978.65
613.539	11066.71
613.735	11009.37
613.93	11064.66
614.126	10945.88
614.321	10939.74
614.517	10868.06
614.712	10800.48
614.907	10775.9
615.103	10923.35
615.298	10775.9
615.493	10859.87
615.688	10612.06
615.884	10976.6
616.079	10661.21
616.274	10640.73
616.47	10800.48
616.665	10679.65
616.86	10472.8
617.055	10683.74
617.25	10452.32
617.445	10646.88
617.641	10241.38
617.836	10368.35
618.031	10102.12
618.226	10243.43
618.421	10261.86
618.616	10413.41
618.811	10218.85
619.006	10347.87
619.201	9991.53
619.396	9934.18
619.591	9825.64
619.786	10007.91
619.981	9588.08
620.176	9921.9
620.371	9583.98
620.566	9760.11
620.761	9796.97
620.956	9715.05
621.151	9485.68
621.346	9612.65
621.541	9434.48
621.735	9362.8
621.93	9377.14
622.125	9344.37
622.32	9256.31
622.515	9338.23
622.709	9127.28
622.904	9276.79
623.099	8918.39
623.294	9006.45
623.488	9049.46
623.683	9110.9
623.878	8861.05
624.072	8924.54
624.267	9035.13
624.462	8793.47
624.656	8664.44
624.851	8633.72
625.046	8732.03
625.24	8590.72
625.435	8529.28
625.629	8424.83
625.824	8398.21
626.018	8369.54
626.213	8125.83
626.407	8250.75
626.602	8154.5
626.796	8140.16
626.991	8242.56
627.185	7953.8
627.38	8025.48
627.574	7898.5
627.768	7923.08
627.963	7937.41
628.157	7746.95
628.352	7828.87
628.546	7835.02
628.74	7728.52
628.935	7738.76
629.129	7703.95
629.323	7443.85
629.517	7566.73
629.712	7523.73
629.906	7505.29
630.1	7486.86
630.294	7320.98
630.489	7409.04
630.683	7181.71
630.877	7445.9
631.071	7216.53
631.265	7372.18
631.459	7122.32
631.653	7126.42
631.848	7122.32
632.042	6901.14
632.236	6872.47
632.43	6899.09
632.624	6903.19
632.818	7032.21
633.012	6864.28
633.206	6884.76
633.4	6694.3
633.594	6714.78
633.788	6813.08
633.982	6778.26
634.176	6725.02
634.369	6581.66
634.563	6643.1
634.757	6536.6
634.951	6542.75
635.145	6567.32
635.339	6380.96
635.533	6335.9
635.726	6444.45
635.92	6305.18
636.114	6491.55
636.308	6360.48
636.501	6219.17
636.695	6311.33
636.889	6305.18
637.083	6159.78
637.276	6200.74
637.47	6149.54
637.664	5879.21
637.857	6061.48
638.051	6041
638.244	5838.25
638.438	5848.49
638.632	5948.84
638.825	5778.86
639.019	5770.66
639.212	5739.94
639.406	5805.48
639.599	5778.86
639.793	5848.49
639.986	5592.49
640.18	5563.82
640.373	5553.58
640.567	5563.82
640.76	5682.6
640.954	5379.5
641.147	5365.17
641.34	5395.89
641.534	5483.95
641.727	5307.82
641.92	5414.32
642.114	5328.3
642.307	5375.41
642.5	5184.94
642.694	5180.85
642.887	5234.1
643.08	5182.9
643.273	5137.84
643.467	5064.11
643.66	4906.42
643.853	5100.98
644.046	4916.66
644.239	4844.98
644.432	5041.59
644.626	4840.89
644.819	4740.54
645.012	4777.4
645.205	4752.82
645.398	4810.17
645.591	4785.59
645.784	4740.54
645.977	4535.74
646.17	4646.33
646.363	4621.75
646.556	4482.49
646.749	4541.88
646.942	4728.25
647.135	4320.7
647.328	4394.43
647.521	4392.38
647.714	4355.52
647.907	4312.51
648.099	4269.5
648.292	4416.96
648.485	4277.69
648.678	4115.91
648.871	4175.3
649.064	4146.62
649.256	4222.4
649.449	4177.34
649.642	4068.8
649.835	3974.6
650.027	3984.84
650.22	3974.6
650.413	3972.55
650.605	3995.08
650.798	3997.12
650.991	3896.77
651.183	3745.22
651.376	3825.09
651.568	3855.81
651.761	3886.53
651.954	3876.29
652.146	3853.77
652.339	3790.28
652.531	3751.37
652.724	3771.85
652.916	3677.64
653.109	3636.68
653.301	3683.78
653.494	3610.06
653.686	3497.42
653.879	3587.53
654.071	3581.39
654.263	3608.01
654.456	3423.69
654.648	3470.8
654.84	3337.68
655.033	3444.17
655.225	3450.32
655.417	3415.5
655.61	3339.73
655.802	3325.39
655.994	3255.76
656.186	3501.51
656.379	3136.98
656.571	3288.53
656.763	3194.32
656.955	3139.02
657.148	3208.66
657.34	2987.47
657.532	3044.82
657.724	3055.06
657.916	3126.74
658.108	3067.35
658.3	3081.68
658.492	3075.54
658.684	2883.03
658.876	2887.12
659.068	3050.96
659.26	2868.69
659.452	2944.47
659.644	2958.8
659.836	2790.87
660.028	2758.1
660.22	2715.09
660.412	2663.9
660.604	2792.92
660.796	2747.86
660.988	2887.12
661.18	2817.49
661.372	2696.66
661.563	2635.22
661.755	2653.66
661.947	2698.71
662.139	2493.91
662.331	2702.81
662.522	2678.23
662.714	2495.96
662.906	2516.44
663.097	2489.82
663.289	2512.35
663.481	2461.15
663.673	2567.64
663.864	2420.19
664.056	2393.56
664.247	2448.86
664.439	2348.51
664.631	2512.35
664.822	2379.23
665.014	2430.43
665.205	2352.6
665.397	2350.56
665.588	2371.04
665.78	2258.4
665.971	2272.73
666.163	2362.84
666.354	2233.82
666.546	2325.98
666.737	2235.87
666.929	2258.4
667.12	2211.29
667.311	2219.49
667.503	2227.68
667.694	2180.57
667.885	2127.33
668.077	2096.61
668.268	2119.14
668.459	2182.62
668.651	2061.79
668.842	2199.01
669.033	2072.03
669.224	2004.45
669.416	2098.66
669.607	2045.41
669.798	1967.59
669.989	2000.35
670.18	2074.08
670.371	2065.89
670.563	2084.32
670.754	1940.96
670.945	2086.37
671.136	1992.16
671.327	2008.55
671.518	1922.53
671.709	1998.31
671.9	1932.77
672.091	2010.59
672.282	2000.35
672.473	1797.6
672.664	1920.48
672.855	1943.01
673.046	1959.39
673.237	1826.28
673.428	1943.01
673.619	1877.48
673.809	1861.09
674	1953.25
674.191	1869.28
674.382	1861.09
674.573	1904.1
674.764	1910.24
674.954	1873.38
675.145	1947.11
675.336	1904.1
675.527	1900
675.717	1889.76
675.908	1789.41
676.099	1807.84
676.289	1875.43
676.48	1887.72
676.671	1744.36
676.861	1879.52
677.052	1738.21
677.243	1725.93
677.433	1781.22
677.624	1754.6
677.814	1740.26
678.005	1723.88
678.195	1783.27
678.386	1768.93
678.576	1711.59
678.767	1840.61
678.957	1797.6
679.148	1781.22
679.338	1738.21
679.529	1766.89
679.719	1795.56
679.909	1813.99
680.1	1758.69
680.29	1734.12
680.481	1713.64
680.671	1764.84
680.861	1803.75
681.052	1762.79
681.242	1658.34
681.432	1760.74
681.622	1723.88
681.813	1644.01
682.003	1770.98
682.193	1758.69
682.383	1709.54
682.573	1807.84
682.764	1738.21
682.954	1701.35
683.144	1756.65
683.334	1752.55
683.524	1811.94
683.714	1609.19
683.904	1707.49
684.094	1699.3
684.284	1660.39
684.474	1705.45
684.664	1760.74
684.854	1734.12
685.044	1703.4
685.234	1693.16
685.424	1732.07
685.614	1711.59
685.804	1738.21
685.994	1762.79
686.184	1813.99
686.374	1596.9
686.564	1758.69
686.753	1644.01
686.943	1648.1
687.133	1697.25
687.323	1715.69
687.513	1699.3
687.702	1656.29
687.892	1687.01
688.082	1699.3
688.272	1693.16
688.461	1617.38
688.651	1707.49
688.841	1795.56
689.03	1617.38
689.22	1824.23
689.41	1635.82
689.599	1658.34
689.789	1793.51
689.979	1713.64
690.168	1666.53
690.358	1748.45
690.547	1562.09
690.737	1656.29
690.926	1664.49
691.116	1650.15
691.305	1738.21
691.495	1648.1
691.684	1652.2
691.874	1635.82
692.063	1623.53
692.252	1668.58
692.442	1648.1
692.631	1594.86
692.82	1682.92
693.01	1754.6
693.199	1727.97
693.388	1652.2
693.578	1656.29
693.767	1703.4
693.956	1721.83
694.146	1695.21
694.335	1752.55
694.524	1734.12
694.713	1697.25
694.902	1719.78
695.092	1723.88
695.281	1736.17
695.47	1670.63
695.659	1660.39
695.848	1746.41
696.037	1777.12
696.226	1791.46
696.415	1723.88
696.604	1736.17
696.793	1717.73
696.982	1680.87
697.171	1756.65
697.36	1684.97
697.549	1699.3
697.738	1754.6
697.927	1668.58
698.116	1744.36
698.305	1674.73
698.494	1727.97
698.683	1910.24
698.872	1799.65
699.061	1693.16
699.25	1760.74
699.438	1807.84
699.627	1691.11
699.816	1740.26
700.005	1721.83
700.193	1756.65
700.382	1805.8
700.571	1822.18
700.76	1623.53
700.948	1832.42
701.137	1672.68
701.326	1906.15
701.514	1766.89
701.703	1766.89
701.892	1719.78
702.08	1723.88
702.269	1871.33
702.457	1756.65
702.646	1764.84
702.834	1795.56
703.023	1709.54
703.212	1768.93
703.4	1807.84
703.589	1711.59
703.777	1758.69
703.965	1676.77
704.154	1799.65
704.342	1813.99
704.531	1752.55
704.719	1650.15
704.907	1801.7
705.096	1605.1
705.284	1668.58
705.472	1715.69
705.661	1699.3
705.849	1684.97
706.037	1738.21
706.226	1713.64
706.414	1695.21
706.602	1668.58
706.79	1852.9
706.979	1605.1
707.167	1736.17
707.355	1641.96
707.543	1711.59
707.731	1672.68
707.919	1594.86
708.107	1687.01
708.296	1607.14
708.484	1603.05
708.672	1664.49
708.86	1746.41
709.048	1646.05
709.236	1711.59
709.424	1703.4
709.612	1644.01
709.8	1635.82
709.988	1691.11
710.176	1668.58
710.364	1658.34
710.551	1557.99
710.739	1601
710.927	1619.43
711.115	1664.49
711.303	1656.29
711.491	1576.42
711.679	1523.18
711.866	1611.24
712.054	1601
712.242	1471.98
712.43	1639.91
712.617	1592.81
712.805	1557.99
712.993	1611.24
713.181	1514.98
713.368	1527.27
713.556	1570.28
713.744	1496.55
713.931	1641.96
714.119	1498.6
714.306	1508.84
714.494	1586.66
714.682	1590.76
714.869	1533.42
715.057	1570.28
715.244	1498.6
715.432	1514.98
715.619	1527.27
715.807	1551.85
715.994	1498.6
716.182	1504.75
716.369	1529.32
716.556	1439.21
716.744	1465.83
716.931	1566.18
717.119	1433.07
717.306	1478.12
717.493	1482.22
717.681	1363.44
717.868	1486.31
718.055	1375.72
718.242	1431.02
718.43	1369.58
718.617	1357.29
718.804	1371.63
718.991	1281.52
719.179	1484.27
719.366	1359.34
719.553	1404.39
719.74	1490.41
719.927	1314.28
720.114	1365.48
720.301	1328.62
720.488	1287.66
720.676	1342.96
720.863	1320.43
721.05	1316.33
721.237	1312.24
721.424	1383.91
721.611	1342.96
721.798	1308.14
721.985	1277.42
722.172	1254.89
722.358	1381.87
722.545	1310.19
722.732	1252.84
722.919	1308.14
723.106	1330.67
723.293	1377.77
723.48	1347.05
723.667	1322.48
723.853	1365.48
724.04	1246.7
724.227	1279.47
724.414	1304.04
724.6	1246.7
724.787	1103.34
724.974	1271.28
725.161	1302
725.347	1170.93
725.534	1320.43
725.72	1224.17
725.907	1275.37
726.094	1258.99
726.28	1246.7
726.467	1283.56
726.653	1170.93
726.84	1199.6
727.027	1215.98
727.213	1244.65
727.4	1158.64
727.586	1211.89
727.773	1195.5
727.959	1226.22
728.145	1148.4
728.332	1205.74
728.518	1172.97
728.705	1205.74
728.891	1127.92
729.077	1181.17
729.264	1115.63
729.45	1164.78
729.636	1244.65
729.823	1052.14
730.009	1119.73
730.195	1175.02
730.382	1183.21
730.568	1175.02
730.754	1142.25
730.94	1132.01
731.126	1109.49
731.313	1160.69
731.499	1052.14
731.685	1084.91
731.871	1150.45
732.057	1123.82
732.243	1117.68
732.429	1089.01
732.615	1175.02
732.801	1027.57
732.987	1107.44
733.173	1107.44
733.359	1074.67
733.545	1089.01
733.731	992.75
733.917	1160.69
734.103	1127.92
734.289	1138.16
734.475	1066.48
734.661	1146.35
734.847	1115.63
735.033	1148.4
735.219	1127.92
735.404	964.08
735.59	1002.99
735.776	1035.76
735.962	980.47
736.148	1076.72
736.333	1011.18
736.519	1054.19
736.705	1021.42
736.89	953.84
737.076	1056.24
737.262	1039.86
737.447	982.51
737.633	1056.24
737.819	984.56
738.004	1093.1
738.19	996.85
738.375	959.99
738.561	1076.72
738.747	910.83
738.932	970.23
739.118	1019.38
739.303	1023.47
739.489	994.8
739.674	931.31
739.859	857.59
740.045	888.31
740.23	980.47
740.416	964.08
740.601	1005.04
740.786	980.47
740.972	890.35
741.157	943.6
741.342	937.46
741.528	828.92
741.713	933.36
741.898	873.97
742.084	955.89
742.269	890.35
742.454	898.55
742.639	912.88
742.824	927.22
743.01	878.07
743.195	974.32
743.38	904.69
743.565	921.07
743.75	835.06
743.935	892.4
744.12	880.11
744.305	798.2
744.49	878.07
744.675	876.02
744.86	886.26
745.045	871.92
745.23	914.93
745.415	843.25
745.6	810.48
745.785	800.24
745.97	951.79
746.155	794.1
746.34	771.57
746.525	851.44
746.71	835.06
746.895	804.34
747.079	759.28
747.264	773.62
747.449	790
747.634	730.61
747.819	816.63
748.003	816.63
748.188	693.75
748.373	716.28
748.557	730.61
748.742	710.13
748.927	798.2
749.111	734.71
749.296	742.9
749.481	724.47
749.665	722.42
749.85	775.67
750.034	736.76
750.219	753.14
750.404	722.42
750.588	736.76
750.773	718.33
750.957	673.27
751.141	632.31
751.326	681.46
751.51	617.97
751.695	663.03
751.879	642.55
752.064	634.36
752.248	710.13
752.432	658.93
752.617	697.85
752.801	615.93
752.985	636.41
753.17	599.54
753.354	638.45
753.538	634.36
753.722	613.88
753.907	663.03
754.091	534.01
754.275	718.33
754.459	583.16
754.643	671.22
754.828	652.79
755.012	587.26
755.196	683.51
755.38	638.45
755.564	595.45
755.748	562.68
755.932	663.03
756.116	622.07
756.3	605.69
756.484	472.57
756.668	536.06
756.852	493.05
757.036	628.21
757.22	552.44
757.404	603.64
757.588	538.1
757.772	572.92
757.956	554.49
758.14	540.15
758.323	613.88
758.507	564.73
758.691	501.24
758.875	577.02
759.059	472.57
759.242	597.49
759.426	470.52
759.61	542.2
759.794	491
759.977	564.73
760.161	527.86
760.345	542.2
760.528	579.06
760.712	370.17
760.895	423.42
761.079	493.05
761.263	484.86
761.446	413.18
761.63	441.85
761.813	499.19
761.997	501.24
762.18	470.52
762.364	534.01
762.547	454.14
762.731	458.23
762.914	452.09
763.098	511.48
763.281	425.47
763.464	509.43
763.648	519.67
763.831	486.9
764.015	450.04
764.198	390.65
764.381	443.9
764.564	486.9
764.748	417.27
764.931	472.57
765.114	429.56
765.297	458.23
765.481	368.12
765.664	472.57
765.847	429.56
766.03	439.8
766.213	435.71
766.397	370.17
766.58	390.65
766.763	390.65
766.946	464.38
767.129	404.99
767.312	437.75
767.495	357.88
767.678	417.27
767.861	396.79
768.044	413.18
768.227	454.14
768.41	419.32
768.593	398.84
768.776	515.58
768.959	458.23
769.142	423.42
769.324	392.7
769.507	378.36
769.69	450.04
769.873	392.7
770.056	441.85
770.239	425.47
770.421	386.55
770.604	439.8
770.787	419.32
770.97	321.02
771.152	353.79
771.335	306.68
771.518	474.62
771.7	447.99
771.883	341.5
772.066	407.03
772.248	388.6
772.431	376.31
772.613	407.03
772.796	382.46
772.978	368.12
773.161	398.84
773.343	398.84
773.526	353.79
773.708	347.64
773.891	439.8
774.073	323.07
774.256	370.17
774.438	400.89
774.621	335.35
774.803	273.92
774.985	351.74
775.168	335.35
775.35	349.69
775.532	220.67
775.715	323.07
775.897	329.21
776.079	282.11
776.261	366.07
776.444	361.98
776.626	310.78
776.808	323.07
776.99	298.49
777.173	300.54
777.355	290.3
777.537	339.45
777.719	325.12
777.901	339.45
778.083	308.73
778.265	370.17
778.447	300.54
778.629	280.06
778.811	253.44
778.993	316.92
779.175	296.44
779.357	251.39
779.539	329.21
779.721	296.44
779.903	347.64
780.085	357.88
780.267	370.17
780.449	306.68
780.631	267.77
780.812	302.59
780.994	218.62
781.176	296.44
781.358	333.31
781.54	261.63
781.721	222.72
781.903	249.34
782.085	198.14
782.267	206.33
782.448	228.86
782.63	200.19
782.812	282.11
782.993	249.34
783.175	245.24
783.357	159.23
783.538	247.29
783.72	237.05
783.901	269.82
784.083	206.33
784.264	298.49
784.446	153.09
784.627	257.53
784.809	198.14
784.99	230.91
785.172	208.38
785.353	228.86
785.535	200.19
785.716	257.53
785.897	177.66
786.079	235
786.26	95.74
786.441	224.76
786.623	218.62
786.804	146.94
786.985	267.77
787.167	261.63
787.348	181.76
787.529	200.19
787.71	187.9
787.891	99.84
788.073	181.76
788.254	189.95
788.435	218.62
788.616	206.33
788.797	62.98
788.978	161.28
789.159	230.91
789.34	200.19
789.522	157.18
789.703	261.63
789.884	151.04
790.065	114.17
790.246	108.03
790.427	208.38
790.607	218.62
790.788	181.76
790.969	126.46
791.15	214.52
791.331	138.75
791.512	235
791.693	204.28
791.874	216.57
792.054	173.57
792.235	253.44
792.416	169.47
792.597	116.22
792.778	171.52
792.958	140.8
793.139	202.24
793.32	101.89
793.5	163.33
793.681	134.65
793.862	144.89
794.042	167.42
794.223	167.42
794.404	169.47
794.584	157.18
794.765	189.95
794.945	173.57
795.126	120.32
795.306	192
795.487	134.65
795.667	101.89
795.848	134.65
796.028	165.37
796.209	142.85
796.389	146.94
796.57	132.61
796.75	89.6
796.93	124.41
797.111	118.27
797.291	157.18
797.471	105.98
797.652	132.61
797.832	146.94
798.012	118.27
798.192	153.09
798.373	105.98
798.553	77.31
798.733	134.65
798.913	151.04
799.093	187.9
799.274	173.57
799.454	114.17
799.634	120.32
799.814	105.98
799.994	112.13
800.174	114.17
800.354	128.51
800.534	173.57
800.714	89.6
800.894	144.89
801.074	73.21
801.254	155.13
801.434	114.17
801.614	38.4
801.794	99.84
801.974	355.83
802.154	142.85
802.334	146.94
802.514	69.12
802.693	108.03
802.873	38.4
803.053	85.5
803.233	9.73
803.413	132.61
803.592	44.54
803.772	114.17
803.952	124.41
804.131	130.56
804.311	77.31
804.491	97.79
804.67	173.57
804.85	54.78
805.03	79.36
805.209	85.5
805.389	54.78
805.568	87.55
805.748	87.55
805.928	71.17
806.107	114.17
806.287	67.07
806.466	56.83
806.646	159.23
806.825	30.21
807.004	71.17
807.184	56.83
807.363	112.13
807.543	40.45
807.722	99.84
807.901	60.93
808.081	56.83
808.26	103.93
808.439	95.74
808.619	120.32
808.798	126.46
808.977	120.32
809.156	44.54
809.336	58.88
809.515	83.45
809.694	105.98
809.873	22.02
810.052	83.45
810.231	73.21
810.411	9.73
810.59	38.4
810.769	97.79
810.948	67.07
811.127	54.78
811.306	19.97
811.485	60.93
811.664	120.32
811.843	9.73
812.022	97.79
812.201	67.07
812.38	73.21
812.559	34.3
812.737	48.64
812.916	52.74
813.095	13.82
813.274	52.74
813.453	30.21
813.632	58.88
813.811	69.12
813.989	-33.28
814.168	28.16
814.347	11.78
814.526	-25.09
814.704	44.54
814.883	85.5
815.062	32.26
815.24	77.31
815.419	142.85
815.598	46.59
815.776	5.63
815.955	46.59
816.133	28.16
816.312	112.13
816.49	34.3
816.669	38.4
816.847	95.74
817.026	91.65
817.204	71.17
817.383	69.12
817.561	81.41
817.74	62.98
817.918	-0.51
818.097	69.12
818.275	79.36
818.453	48.64
818.632	34.3
818.81	56.83
818.988	58.88
819.167	-18.94
819.345	58.88
819.523	30.21
819.701	81.41
819.879	58.88
820.058	32.26
820.236	30.21
820.414	75.26
820.592	28.16
820.77	50.69
820.948	56.83
821.127	26.11
821.305	46.59
821.483	22.02
821.661	101.89
821.839	26.11
822.017	19.97
822.195	60.93
822.373	89.6
822.551	44.54
822.729	36.35
822.907	112.13
823.085	54.78
823.262	-23.04
823.44	103.93
823.618	93.69
823.796	-14.85
823.974	-61.95
824.152	40.45
824.329	-6.66
824.507	-18.94
824.685	62.98
824.863	44.54
825.04	87.55
825.218	19.97
825.396	32.26
825.574	101.89
825.751	38.4
825.929	77.31
826.107	3.58
826.284	48.64
826.462	36.35
826.639	19.97
826.817	69.12
826.994	52.74
827.172	56.83
827.349	34.3
827.527	13.82
827.704	15.87
827.882	71.17
828.059	38.4
828.237	-14.85
828.414	40.45
828.591	-57.86
828.769	-2.56
828.946	40.45
829.124	44.54
829.301	52.74
829.478	40.45
829.655	-16.9
829.833	32.26
830.01	-2.56
830.187	62.98
830.364	54.78
830.542	56.83
830.719	34.3
830.896	34.3
831.073	75.26
831.25	-23.04
831.427	-10.75
831.604	36.35
831.782	-12.8
831.959	42.5
832.136	-4.61
832.313	67.07
832.49	60.93
832.667	-12.8
832.844	3.58
833.021	15.87
833.198	54.78
833.374	126.46
833.551	-33.28
833.728	46.59
833.905	40.45
834.082	24.06
834.259	-6.66
834.436	11.78
834.612	30.21
834.789	24.06
834.966	22.02
835.143	67.07
835.319	-45.57
835.496	65.02
835.673	85.5
835.85	44.54
836.026	-16.9
836.203	28.16
836.38	-0.51
836.556	-35.33
836.733	-4.61
836.909	120.32
837.086	-18.94
837.262	11.78
837.439	-2.56
837.616	28.16
837.792	-6.66
837.968	24.06
838.145	42.5
838.321	9.73
838.498	22.02
838.674	15.87
838.851	-20.99
839.027	17.92
839.203	34.3
839.38	-6.66
839.556	-37.38
839.732	19.97
839.909	108.03
840.085	30.21
840.261	-45.57
840.437	56.83
840.614	28.16
840.79	7.68
840.966	-8.7
841.142	22.02
841.318	9.73
841.494	-23.04
841.671	73.21
841.847	24.06
842.023	52.74
842.199	7.68
842.375	-2.56
842.551	48.64
842.727	-45.57
842.903	13.82
843.079	19.97
843.255	38.4
843.431	-29.18
843.607	9.73
843.783	26.11
843.959	-4.61
844.134	11.78
844.31	-49.66
844.486	19.97
844.662	26.11
844.838	73.21
845.013	3.58
845.189	-23.04
845.365	32.26
845.541	7.68
845.716	-45.57
845.892	1.54
846.068	-23.04
846.244	13.82
846.419	34.3
846.595	-4.61
846.77	15.87
846.946	-20.99
847.122	-18.94
847.297	9.73
847.473	65.02
847.648	44.54
847.824	24.06
847.999	1.54
848.175	-16.9
848.35	11.78
848.526	5.63
848.701	-100.86
848.876	9.73
849.052	-23.04
849.227	-45.57
849.403	40.45
849.578	22.02
849.753	-14.85
849.929	-31.23
850.104	32.26
850.279	26.11
850.454	11.78
850.63	42.5
850.805	-25.09
850.98	19.97
851.155	42.5
851.33	-27.14
851.505	-20.99
851.681	-33.28
851.856	-49.66
852.031	-41.47
852.206	60.93
852.381	24.06
852.556	-4.61
852.731	9.73
852.906	5.63
853.081	34.3
853.256	36.35
853.431	-39.42
853.606	-25.09
853.781	-10.75
853.956	1.54
854.131	60.93
854.305	-47.62
854.48	5.63
854.655	-20.99
854.83	1.54
855.005	-45.57
855.18	30.21
855.354	-4.61
855.529	103.93
855.704	-23.04
855.879	46.59
856.053	-23.04
856.228	-14.85
856.403	-39.42
856.577	-68.09
856.752	73.21
856.926	-8.7
857.101	44.54
857.276	1.54
857.45	-18.94
857.625	-88.57
857.799	-29.18
857.974	19.97
858.148	-14.85
858.323	32.26
858.497	-10.75
858.672	-29.18
858.846	17.92
859.02	-25.09
859.195	15.87
859.369	95.74
859.543	32.26
859.718	-68.09
859.892	19.97
860.066	44.54
860.241	3.58
860.415	22.02
860.589	15.87
860.763	3.58
860.938	3.58
861.112	-6.66
861.286	-10.75
861.46	118.27
861.634	-29.18
861.808	34.3
861.982	-47.62
862.157	56.83
862.331	-59.9
862.505	-70.14
862.679	-2.56
862.853	-14.85
863.027	7.68
863.201	56.83
863.375	-27.14
863.549	-0.51
863.722	67.07
863.896	7.68
864.07	-27.14
864.244	-23.04
864.418	-14.85
864.592	40.45
864.766	50.69
864.939	28.16
865.113	1.54
865.287	19.97
865.461	-39.42
865.634	44.54
865.808	32.26
865.982	112.13
866.156	11.78
866.329	22.02
866.503	-20.99
866.676	38.4
866.85	9.73
867.024	-37.38
867.197	30.21
867.371	5.63
867.544	-41.47
867.718	-33.28
867.891	-16.9
868.065	-8.7
868.238	13.82
868.412	26.11
868.585	5.63
868.759	-29.18
868.932	-16.9
869.105	11.78
869.279	11.78
869.452	-43.52
869.625	11.78
869.799	11.78
869.972	22.02
870.145	-23.04
870.319	-61.95
870.492	79.36
870.665	9.73
870.838	-27.14
871.011	11.78
871.185	5.63
871.358	7.68
871.531	36.35
871.704	-45.57
871.877	1.54
872.05	22.02
872.223	73.21
872.396	-51.71
872.569	56.83
872.742	-4.61
872.915	97.79
873.088	13.82
873.261	-18.94
873.434	-8.7
873.607	-59.9
873.78	-0.51
873.953	71.17
874.126	58.88
874.299	7.68
874.471	5.63
874.644	58.88
874.817	44.54
874.99	52.74
875.163	24.06
875.335	-33.28
875.508	15.87
875.681	-66.05
875.853	-4.61
876.026	28.16
876.199	-16.9
876.371	56.83
876.544	-8.7
876.717	11.78
876.889	-39.42
877.062	28.16
877.234	-25.09
877.407	26.11
877.579	-33.28
877.752	-18.94
877.924	11.78
878.097	-31.23
878.269	110.08
878.442	-27.14
878.614	56.83
878.786	13.82
878.959	-66.05
879.131	-78.33
879.303	-51.71
879.476	38.4
879.648	-4.61
879.82	36.35
879.993	-29.18
880.165	-49.66
880.337	-29.18
880.509	-33.28
880.681	22.02
880.854	-20.99
881.026	85.5
881.198	-43.52
881.37	-41.47
881.542	75.26
881.714	5.63
881.886	-8.7
882.058	-14.85
882.23	11.78
882.402	-35.33
882.574	11.78
882.746	77.31
882.918	3.58
883.09	-4.61
883.262	13.82
883.434	50.69
883.606	-2.56
883.778	-39.42
883.95	-18.94
884.122	-18.94
884.293	13.82
884.465	11.78
884.637	-2.56
884.809	-35.33
884.98	62.98
885.152	48.64
885.324	-2.56
885.496	-25.09
885.667	-51.71
885.839	-18.94
886.011	5.63
886.182	32.26
886.354	-33.28
886.525	81.41
886.697	-68.09
886.869	-61.95
887.04	-2.56
887.212	38.4
887.383	-59.9
887.555	-43.52
887.726	34.3
887.897	22.02
888.069	32.26
888.24	-2.56
888.412	-25.09
888.583	9.73
888.754	-53.76
888.926	-20.99
889.097	-92.67
889.268	-25.09
889.44	28.16
889.611	11.78
889.782	9.73
889.953	3.58
890.125	120.32
890.296	-51.71
890.467	17.92
890.638	73.21
890.809	28.16
890.98	-57.86
891.151	79.36
891.323	-12.8
891.494	42.5
891.665	-57.86
891.836	30.21
892.007	-23.04
892.178	30.21
892.349	-31.23
892.52	22.02
892.691	-6.66
892.862	-25.09
893.032	-8.7
893.203	52.74
893.374	17.92
893.545	28.16
893.716	-6.66
893.887	-72.19
894.057	32.26
894.228	17.92
894.399	-37.38
894.57	-41.47
894.74	67.07
894.911	17.92
895.082	-10.75
895.253	67.07
895.423	-35.33
895.594	-18.94
895.764	-82.43
895.935	17.92
896.106	3.58
896.276	11.78
896.447	17.92
896.617	5.63
896.788	19.97
896.958	-23.04
897.129	-18.94
897.299	13.82
897.47	34.3
897.64	-8.7
897.81	-18.94
897.981	-18.94
898.151	-25.09
898.322	40.45
898.492	-6.66
898.662	44.54
898.832	19.97
899.003	36.35
899.173	-31.23
899.343	19.97
899.513	-27.14
