Data from USB4F104151__172__13-58-56-111.txt Node

Date: Thu Mar 13 13:58:56 EDT 2025
User: louis
Spectrometer: USB4F10415
Trigger mode: 4
Integration Time (sec): 1.000000E-2
Scans to average: 1
Electric dark correction enabled: true
Nonlinearity correction enabled: false
Boxcar width: 0
XAxis mode: Wavelengths
Number of Pixels in Spectrum: 3648
>>>>>Begin Spectral Data<<<<<
178.204	-67.41
178.424	-67.41
178.644	-67.41
178.864	-71.51
179.084	-44.88
179.304	-44.88
179.524	-24.4
179.744	-30.55
179.964	-48.98
180.184	73.9
180.404	47.27
180.624	-53.08
180.844	37.03
181.064	-8.02
181.283	34.99
181.503	-18.26
181.723	34.99
181.943	51.37
182.163	22.7
182.383	-12.12
182.602	49.32
182.822	-28.5
183.042	43.18
183.262	24.75
183.482	82.09
183.701	55.47
183.921	47.27
184.141	-24.4
184.361	82.09
184.58	-1.88
184.8	30.89
185.02	30.89
185.239	-28.5
185.459	-18.26
185.679	53.42
185.898	10.41
186.118	4.27
186.338	41.13
186.557	6.31
186.777	-24.4
186.997	73.9
187.216	-40.79
187.436	-1.88
187.655	-34.64
187.875	-1.88
188.095	67.75
188.314	39.08
188.534	37.03
188.753	14.51
188.973	77.99
189.192	63.66
189.412	22.7
189.631	26.79
189.851	0.17
190.07	34.99
190.29	47.27
190.509	-3.93
190.729	123.05
190.948	39.08
191.168	41.13
191.387	10.41
191.607	-12.12
191.826	47.27
192.045	-12.12
192.265	61.61
192.484	73.9
192.704	24.75
192.923	34.99
193.142	22.7
193.362	-16.21
193.581	53.42
193.8	-1.88
194.02	8.36
194.239	63.66
194.458	51.37
194.678	41.13
194.897	-12.12
195.116	20.65
195.335	32.94
195.555	94.38
195.774	45.23
195.993	37.03
196.212	57.51
196.432	28.84
196.651	-14.17
196.87	-3.93
197.089	20.65
197.308	22.7
197.528	26.79
197.747	69.8
197.966	8.36
198.185	77.99
198.404	-28.5
198.623	45.23
198.842	51.37
199.062	-18.26
199.281	16.55
199.5	-34.64
199.719	39.08
199.938	37.03
200.157	28.84
200.376	2.22
200.595	80.04
200.814	67.75
201.033	-1.88
201.252	39.08
201.471	51.37
201.69	57.51
201.909	51.37
202.128	-3.93
202.347	0.17
202.566	-36.69
202.785	16.55
203.004	-28.5
203.223	114.86
203.442	-22.36
203.661	-30.55
203.879	12.46
204.098	73.9
204.317	41.13
204.536	55.47
204.755	24.75
204.974	65.71
205.193	-8.02
205.411	57.51
205.63	30.89
205.849	12.46
206.068	-12.12
206.287	45.23
206.505	-12.12
206.724	-1.88
206.943	-5.97
207.162	-1.88
207.381	8.36
207.599	102.57
207.818	37.03
208.037	88.23
208.255	10.41
208.474	71.85
208.693	24.75
208.911	41.13
209.13	41.13
209.349	47.27
209.567	57.51
209.786	18.6
210.005	77.99
210.223	30.89
210.442	-48.98
210.661	34.99
210.879	30.89
211.098	47.27
211.316	75.95
211.535	18.6
211.753	39.08
211.972	41.13
212.191	-30.55
212.409	20.65
212.628	26.79
212.846	-42.84
213.065	-1.88
213.283	32.94
213.502	8.36
213.72	41.13
213.938	-3.93
214.157	30.89
214.375	55.47
214.594	30.89
214.812	-8.02
215.031	18.6
215.249	-16.21
215.467	41.13
215.686	30.89
215.904	-5.97
216.122	-26.45
216.341	71.85
216.559	-12.12
216.778	55.47
216.996	63.66
217.214	2.22
217.432	-1.88
217.651	-22.36
217.869	37.03
218.087	59.56
218.306	8.36
218.524	6.31
218.742	-3.93
218.96	22.7
219.179	39.08
219.397	49.32
219.615	75.95
219.833	-8.02
220.051	-1.88
220.27	-1.88
220.488	55.47
220.706	26.79
220.924	37.03
221.142	24.75
221.36	-12.12
221.578	22.7
221.796	28.84
222.015	71.85
222.233	41.13
222.451	24.75
222.669	2.22
222.887	24.75
223.105	22.7
223.323	14.51
223.541	-5.97
223.759	-1.88
223.977	39.08
224.195	-40.79
224.413	55.47
224.631	-8.02
224.849	28.84
225.067	-36.69
225.285	84.14
225.503	12.46
225.721	-55.12
225.939	26.79
226.157	41.13
226.375	98.47
226.592	45.23
226.81	10.41
227.028	30.89
227.246	45.23
227.464	-1.88
227.682	24.75
227.9	39.08
228.117	55.47
228.335	12.46
228.553	-46.93
228.771	-5.97
228.989	2.22
229.206	-8.02
229.424	-38.74
229.642	-1.88
229.86	26.79
230.077	57.51
230.295	106.67
230.513	-5.97
230.731	51.37
230.948	55.47
231.166	28.84
231.384	14.51
231.601	37.03
231.819	82.09
232.037	16.55
232.254	4.27
232.472	4.27
232.689	30.89
232.907	41.13
233.125	16.55
233.342	-40.79
233.56	61.61
233.777	-16.21
233.995	24.75
234.213	73.9
234.43	-14.17
234.648	34.99
234.865	47.27
235.083	14.51
235.3	63.66
235.518	22.7
235.735	-8.02
235.953	55.47
236.17	4.27
236.388	32.94
236.605	67.75
236.822	-10.07
237.04	63.66
237.257	6.31
237.475	12.46
237.692	43.18
237.909	59.56
238.127	18.6
238.344	10.41
238.562	14.51
238.779	-8.02
238.996	77.99
239.214	-14.17
239.431	-10.07
239.648	14.51
239.865	12.46
240.083	14.51
240.3	-40.79
240.517	16.55
240.735	28.84
240.952	10.41
241.169	71.85
241.386	22.7
241.603	8.36
241.821	32.94
242.038	82.09
242.255	118.95
242.472	-8.02
242.689	61.61
242.907	-8.02
243.124	43.18
243.341	14.51
243.558	12.46
243.775	59.56
243.992	39.08
244.209	32.94
244.426	63.66
244.643	-32.6
244.86	2.22
245.078	51.37
245.295	51.37
245.512	22.7
245.729	10.41
245.946	-3.93
246.163	12.46
246.38	-5.97
246.597	14.51
246.814	-24.4
247.031	57.51
247.248	-1.88
247.464	69.8
247.681	-32.6
247.898	-1.88
248.115	39.08
248.332	55.47
248.549	30.89
248.766	16.55
248.983	88.23
249.2	-22.36
249.417	20.65
249.633	6.31
249.85	43.18
250.067	-14.17
250.284	-38.74
250.501	41.13
250.717	10.41
250.934	-8.02
251.151	34.99
251.368	28.84
251.585	114.86
251.801	88.23
252.018	-1.88
252.235	53.42
252.451	57.51
252.668	16.55
252.885	14.51
253.102	6.31
253.318	-51.03
253.535	20.65
253.752	2.22
253.968	51.37
254.185	39.08
254.401	22.7
254.618	32.94
254.835	14.51
255.051	16.55
255.268	2.22
255.484	69.8
255.701	-16.21
255.917	14.51
256.134	-22.36
256.351	22.7
256.567	4.27
256.784	41.13
257	-5.97
257.217	82.09
257.433	61.61
257.65	77.99
257.866	41.13
258.082	-44.88
258.299	-48.98
258.515	84.14
258.732	18.6
258.948	84.14
259.165	63.66
259.381	55.47
259.597	-24.4
259.814	104.62
260.03	10.41
260.246	22.7
260.463	41.13
260.679	16.55
260.895	-22.36
261.112	41.13
261.328	49.32
261.544	4.27
261.761	88.23
261.977	-1.88
262.193	-48.98
262.409	-36.69
262.626	65.71
262.842	67.75
263.058	37.03
263.274	55.47
263.49	63.66
263.707	45.23
263.923	22.7
264.139	32.94
264.355	41.13
264.571	80.04
264.787	34.99
265.004	73.9
265.22	82.09
265.436	28.84
265.652	18.6
265.868	-63.32
266.084	-38.74
266.3	-18.26
266.516	26.79
266.732	22.7
266.948	20.65
267.164	22.7
267.38	53.42
267.596	32.94
267.812	14.51
268.028	-40.79
268.244	73.9
268.46	63.66
268.676	2.22
268.892	37.03
269.108	-12.12
269.324	47.27
269.54	-36.69
269.756	12.46
269.972	14.51
270.188	100.52
270.403	24.75
270.619	53.42
270.835	22.7
271.051	12.46
271.267	67.75
271.483	-14.17
271.698	8.36
271.914	8.36
272.13	-16.21
272.346	16.55
272.562	30.89
272.777	-34.64
272.993	20.65
273.209	82.09
273.425	30.89
273.64	2.22
273.856	73.9
274.072	63.66
274.287	-1.88
274.503	-14.17
274.719	51.37
274.934	24.75
275.15	55.47
275.366	59.56
275.581	51.37
275.797	-28.5
276.012	14.51
276.228	51.37
276.444	47.27
276.659	8.36
276.875	14.51
277.09	49.32
277.306	-12.12
277.521	104.62
277.737	51.37
277.952	73.9
278.168	34.99
278.383	47.27
278.599	26.79
278.814	73.9
279.03	24.75
279.245	24.75
279.461	2.22
279.676	59.56
279.892	0.17
280.107	18.6
280.322	-14.17
280.538	-26.45
280.753	-10.07
280.969	26.79
281.184	-1.88
281.399	141.48
281.615	14.51
281.83	32.94
282.045	43.18
282.26	63.66
282.476	-26.45
282.691	45.23
282.906	12.46
283.122	26.79
283.337	-24.4
283.552	24.75
283.767	30.89
283.983	71.85
284.198	-12.12
284.413	28.84
284.628	59.56
284.843	-1.88
285.058	28.84
285.274	16.55
285.489	77.99
285.704	73.9
285.919	84.14
286.134	-75.6
286.349	100.52
286.564	-5.97
286.779	39.08
286.995	41.13
287.21	22.7
287.425	55.47
287.64	75.95
287.855	2.22
288.07	8.36
288.285	-8.02
288.5	34.99
288.715	71.85
288.93	20.65
289.145	94.38
289.36	88.23
289.575	47.27
289.79	53.42
290.004	80.04
290.219	-1.88
290.434	32.94
290.649	39.08
290.864	0.17
291.079	43.18
291.294	55.47
291.509	90.28
291.724	37.03
291.938	43.18
292.153	98.47
292.368	41.13
292.583	39.08
292.798	39.08
293.012	55.47
293.227	67.75
293.442	20.65
293.657	-16.21
293.871	45.23
294.086	47.27
294.301	41.13
294.516	65.71
294.73	75.95
294.945	-34.64
295.16	45.23
295.374	71.85
295.589	71.85
295.804	39.08
296.018	63.66
296.233	133.29
296.447	47.27
296.662	43.18
296.877	-3.93
297.091	18.6
297.306	26.79
297.52	88.23
297.735	26.79
297.949	-1.88
298.164	65.71
298.378	2.22
298.593	26.79
298.807	55.47
299.022	53.42
299.236	-8.02
299.451	24.75
299.665	10.41
299.88	45.23
300.094	2.22
300.309	67.75
300.523	51.37
300.737	-22.36
300.952	24.75
301.166	82.09
301.381	63.66
301.595	67.75
301.809	24.75
302.024	55.47
302.238	71.85
302.452	-22.36
302.667	67.75
302.881	39.08
303.095	26.79
303.309	55.47
303.524	112.81
303.738	69.8
303.952	59.56
304.166	55.47
304.381	37.03
304.595	30.89
304.809	102.57
305.023	108.71
305.237	41.13
305.452	77.99
305.666	6.31
305.88	-26.45
306.094	-3.93
306.308	47.27
306.522	69.8
306.736	104.62
306.95	71.85
307.164	53.42
307.379	22.7
307.593	41.13
307.807	8.36
308.021	45.23
308.235	69.8
308.449	59.56
308.663	32.94
308.877	92.33
309.091	20.65
309.305	63.66
309.519	18.6
309.733	80.04
309.947	61.61
310.161	43.18
310.374	14.51
310.588	-14.17
310.802	18.6
311.016	57.51
311.23	39.08
311.444	-32.6
311.658	32.94
311.872	12.46
312.085	32.94
312.299	37.03
312.513	61.61
312.727	51.37
312.941	8.36
313.154	18.6
313.368	22.7
313.582	59.56
313.796	-51.03
314.009	24.75
314.223	57.51
314.437	65.71
314.651	18.6
314.864	82.09
315.078	10.41
315.292	20.65
315.505	41.13
315.719	0.17
315.933	6.31
316.146	49.32
316.36	14.51
316.573	75.95
316.787	-30.55
317.001	57.51
317.214	43.18
317.428	32.94
317.641	6.31
317.855	47.27
318.068	57.51
318.282	4.27
318.495	28.84
318.709	12.46
318.922	57.51
319.136	20.65
319.349	12.46
319.563	75.95
319.776	32.94
319.99	55.47
320.203	4.27
320.417	12.46
320.63	88.23
320.843	-8.02
321.057	20.65
321.27	67.75
321.483	30.89
321.697	43.18
321.91	10.41
322.124	26.79
322.337	16.55
322.55	77.99
322.763	-71.51
322.977	55.47
323.19	39.08
323.403	43.18
323.617	18.6
323.83	63.66
324.043	14.51
324.256	30.89
324.469	8.36
324.683	-26.45
324.896	43.18
325.109	51.37
325.322	-38.74
325.535	108.71
325.748	18.6
325.962	30.89
326.175	51.37
326.388	30.89
326.601	24.75
326.814	22.7
327.027	47.27
327.24	45.23
327.453	32.94
327.666	8.36
327.879	34.99
328.092	123.05
328.305	47.27
328.518	6.31
328.731	75.95
328.944	45.23
329.157	8.36
329.37	104.62
329.583	16.55
329.796	32.94
330.009	-22.36
330.222	-8.02
330.435	6.31
330.648	43.18
330.861	80.04
331.073	-1.88
331.286	63.66
331.499	30.89
331.712	37.03
331.925	20.65
332.138	20.65
332.35	51.37
332.563	16.55
332.776	6.31
332.989	82.09
333.202	14.51
333.414	37.03
333.627	65.71
333.84	6.31
334.053	61.61
334.265	10.41
334.478	43.18
334.691	43.18
334.903	63.66
335.116	-1.88
335.329	24.75
335.541	43.18
335.754	73.9
335.966	63.66
336.179	67.75
336.392	-63.32
336.604	90.28
336.817	20.65
337.029	12.46
337.242	28.84
337.454	92.33
337.667	28.84
337.88	10.41
338.092	73.9
338.305	18.6
338.517	69.8
338.729	92.33
338.942	10.41
339.154	28.84
339.367	32.94
339.579	45.23
339.792	-18.26
340.004	49.32
340.217	57.51
340.429	-10.07
340.641	18.6
340.854	77.99
341.066	-38.74
341.278	49.32
341.491	-22.36
341.703	53.42
341.915	30.89
342.128	71.85
342.34	22.7
342.552	82.09
342.764	90.28
342.977	10.41
343.189	-12.12
343.401	100.52
343.613	92.33
343.826	39.08
344.038	-8.02
344.25	34.99
344.462	82.09
344.674	-28.5
344.886	102.57
345.099	84.14
345.311	32.94
345.523	24.75
345.735	108.71
345.947	24.75
346.159	69.8
346.371	61.61
346.583	47.27
346.795	69.8
347.007	2.22
347.219	61.61
347.431	86.19
347.643	108.71
347.855	6.31
348.067	26.79
348.279	55.47
348.491	-26.45
348.703	104.62
348.915	8.36
349.127	55.47
349.339	41.13
349.551	-16.21
349.763	61.61
349.975	75.95
350.187	90.28
350.399	63.66
350.61	47.27
350.822	73.9
351.034	106.67
351.246	47.27
351.458	86.19
351.669	47.27
351.881	53.42
352.093	57.51
352.305	-22.36
352.517	92.33
352.728	14.51
352.94	143.53
353.152	-10.07
353.363	55.47
353.575	22.7
353.787	41.13
353.999	8.36
354.21	63.66
354.422	8.36
354.633	96.43
354.845	28.84
355.057	92.33
355.268	-18.26
355.48	30.89
355.692	20.65
355.903	67.75
356.115	30.89
356.326	24.75
356.538	55.47
356.749	22.7
356.961	61.61
357.172	88.23
357.384	-30.55
357.595	12.46
357.807	145.58
358.018	41.13
358.23	30.89
358.441	106.67
358.653	30.89
358.864	10.41
359.075	-51.03
359.287	39.08
359.498	125.1
359.709	61.61
359.921	26.79
360.132	2.22
360.344	34.99
360.555	4.27
360.766	39.08
360.977	32.94
361.189	55.47
361.4	100.52
361.611	80.04
361.823	-18.26
362.034	22.7
362.245	37.03
362.456	71.85
362.667	-16.21
362.879	67.75
363.09	88.23
363.301	51.37
363.512	73.9
363.723	67.75
363.935	-75.6
364.146	104.62
364.357	22.7
364.568	2.22
364.779	41.13
364.99	-8.02
365.201	43.18
365.412	-30.55
365.623	112.81
365.834	34.99
366.045	20.65
366.256	88.23
366.467	45.23
366.678	53.42
366.889	2.22
367.1	45.23
367.311	39.08
367.522	45.23
367.733	75.95
367.944	53.42
368.155	-38.74
368.366	34.99
368.577	18.6
368.788	67.75
368.999	41.13
369.209	63.66
369.42	82.09
369.631	14.51
369.842	-8.02
370.053	92.33
370.264	4.27
370.474	90.28
370.685	-3.93
370.896	-1.88
371.107	69.8
371.317	92.33
371.528	-26.45
371.739	18.6
371.95	57.51
372.16	14.51
372.371	69.8
372.582	121
372.792	22.7
373.003	45.23
373.214	-34.64
373.424	61.61
373.635	-10.07
373.846	47.27
374.056	0.17
374.267	18.6
374.477	30.89
374.688	6.31
374.898	20.65
375.109	34.99
375.319	45.23
375.53	92.33
375.74	22.7
375.951	20.65
376.161	34.99
376.372	20.65
376.582	10.41
376.793	86.19
377.003	-1.88
377.214	90.28
377.424	-8.02
377.635	32.94
377.845	6.31
378.055	59.56
378.266	57.51
378.476	84.14
378.686	49.32
378.897	137.38
379.107	-8.02
379.317	18.6
379.528	88.23
379.738	14.51
379.948	-5.97
380.158	90.28
380.369	-18.26
380.579	88.23
380.789	55.47
380.999	39.08
381.21	49.32
381.42	80.04
381.63	45.23
381.84	57.51
382.05	14.51
382.261	34.99
382.471	22.7
382.681	98.47
382.891	30.89
383.101	65.71
383.311	-5.97
383.521	-1.88
383.731	10.41
383.941	112.81
384.151	110.76
384.361	67.75
384.571	67.75
384.781	-22.36
384.991	12.46
385.201	57.51
385.411	94.38
385.621	75.95
385.831	57.51
386.041	82.09
386.251	26.79
386.461	43.18
386.671	10.41
386.881	86.19
387.091	20.65
387.301	51.37
387.511	32.94
387.72	30.89
387.93	32.94
388.14	-36.69
388.35	61.61
388.56	20.65
388.769	51.37
388.979	-30.55
389.189	45.23
389.399	63.66
389.609	49.32
389.818	55.47
390.028	96.43
390.238	34.99
390.447	-16.21
390.657	55.47
390.867	51.37
391.076	96.43
391.286	104.62
391.496	24.75
391.705	26.79
391.915	-5.97
392.125	69.8
392.334	104.62
392.544	125.1
392.753	8.36
392.963	55.47
393.172	14.51
393.382	32.94
393.591	112.81
393.801	4.27
394.01	147.62
394.22	47.27
394.429	104.62
394.639	39.08
394.848	55.47
395.058	75.95
395.267	92.33
395.477	69.8
395.686	112.81
395.895	123.05
396.105	47.27
396.314	82.09
396.524	84.14
396.733	90.28
396.942	88.23
397.152	67.75
397.361	82.09
397.57	75.95
397.78	92.33
397.989	55.47
398.198	131.24
398.407	37.03
398.617	114.86
398.826	47.27
399.035	137.38
399.244	80.04
399.453	26.79
399.663	121
399.872	184.49
400.081	55.47
400.29	82.09
400.499	110.76
400.708	141.48
400.917	53.42
401.127	30.89
401.336	133.29
401.545	176.3
401.754	123.05
401.963	129.19
402.172	24.75
402.381	47.27
402.59	145.58
402.799	129.19
403.008	-3.93
403.217	73.9
403.426	-3.93
403.635	104.62
403.844	55.47
404.053	94.38
404.262	96.43
404.471	53.42
404.68	129.19
404.888	98.47
405.097	129.19
405.306	145.58
405.515	131.24
405.724	98.47
405.933	90.28
406.142	104.62
406.35	186.54
406.559	207.02
406.768	135.34
406.977	155.82
407.185	153.77
407.394	131.24
407.603	190.63
407.812	123.05
408.02	153.77
408.229	172.2
408.438	121
408.646	149.67
408.855	229.54
409.064	188.58
409.272	131.24
409.481	131.24
409.69	149.67
409.898	57.51
410.107	280.74
410.315	276.65
410.524	161.96
410.733	245.93
410.941	176.3
411.15	178.34
411.358	284.84
411.567	266.41
411.775	264.36
411.984	280.74
412.192	325.8
412.401	282.79
412.609	336.04
412.818	299.17
413.026	321.7
413.234	323.75
413.443	333.99
413.651	424.1
413.86	299.17
414.068	358.57
414.276	393.38
414.485	309.41
414.693	440.48
414.901	415.91
415.11	399.52
415.318	377
415.526	489.64
415.734	467.11
415.943	485.54
416.151	506.02
416.359	526.5
416.567	483.49
416.776	604.32
416.984	612.51
417.192	637.09
417.4	583.84
417.608	608.42
417.817	581.79
418.025	651.42
418.233	751.78
418.441	671.9
418.649	741.54
418.857	768.16
419.065	850.08
419.273	800.93
419.481	858.27
419.689	866.46
419.897	985.24
420.105	919.71
420.313	1030.3
420.521	1065.11
420.729	1067.16
420.937	1067.16
421.145	1028.25
421.353	1097.88
421.561	1165.46
421.769	1253.53
421.977	1274.01
422.185	1294.49
422.393	1310.87
422.601	1431.7
422.809	1312.92
423.017	1433.75
423.224	1415.32
423.432	1534.1
423.64	1564.82
423.848	1581.2
424.056	1663.12
424.263	1689.74
424.471	1759.38
424.679	1829.01
424.887	1976.46
425.094	2023.56
425.302	1955.98
425.51	1923.21
425.718	2132.11
425.925	2121.87
426.133	2224.26
426.341	2373.77
426.548	2406.53
426.756	2375.81
426.964	2484.36
427.171	2545.8
427.379	2621.57
427.586	2713.73
427.794	2709.63
428.001	2941.05
428.209	3014.78
428.417	2914.43
428.624	3082.36
428.832	3213.43
429.039	3049.6
429.247	3131.51
429.454	3569.78
429.662	3639.41
429.869	3534.96
430.076	3692.66
430.284	3563.64
430.491	3612.79
430.699	3952.75
430.906	3862.64
431.114	4163.69
431.321	4169.84
431.528	4114.54
431.736	4417.64
431.943	4667.49
432.15	4595.81
432.358	4499.56
432.565	4761.7
432.772	4849.76
432.979	4929.63
433.187	5118.04
433.394	5165.15
433.601	5494.87
433.808	5587.03
434.016	5535.83
434.223	5564.5
434.43	6123.6
434.637	5990.48
434.844	6148.17
435.052	6531.14
435.259	6510.66
435.466	6514.76
435.673	6541.38
435.88	6842.43
436.087	7084.09
436.294	7047.23
436.501	6922.31
436.708	7100.48
436.915	7454.78
437.122	7915.57
437.329	7700.53
437.537	7997.49
437.743	8177.71
437.95	8155.18
438.157	8343.6
438.364	8589.35
438.571	8503.34
438.778	8749.09
438.985	9523.23
439.192	9203.74
439.399	9340.96
439.606	9267.23
439.813	9732.12
440.02	10487.82
440.227	10129.42
440.433	9971.73
440.64	10491.91
440.847	10541.07
441.054	10653.7
441.261	11184.13
441.467	11079.68
441.674	11313.15
441.881	11896.82
442.088	11759.61
442.294	11540.47
442.501	11968.5
442.708	12226.54
442.914	12550.12
443.121	13359.07
443.328	12822.5
443.534	13799.38
443.741	13326.3
443.948	13148.13
444.154	14069.72
444.361	14135.25
444.568	14413.77
444.774	14149.59
444.981	14243.79
445.187	14546.89
445.394	15630.27
445.6	15079.36
445.807	16687.02
446.013	15884.22
446.22	16068.53
446.426	16695.21
446.633	17010.6
446.839	17489.82
447.046	16830.38
447.252	17596.32
447.459	17885.08
447.665	17848.22
447.871	18579.34
448.078	19400.58
448.284	18464.66
448.491	18810.76
448.697	19595.14
448.903	19881.85
449.11	19855.23
449.316	19543.94
449.522	20168.57
449.728	20436.85
449.935	20834.16
450.141	20705.13
450.347	21243.75
450.553	20490.1
450.76	20539.25
450.966	21372.77
451.172	21356.39
451.378	21682.02
451.584	21094.25
451.791	21872.48
451.997	21755.74
452.203	22122.33
452.409	22224.73
452.615	21968.73
452.821	21288.81
453.027	21002.09
453.233	22165.34
453.44	21206.89
453.646	21360.48
453.852	21415.78
454.058	21845.85
454.264	21231.46
454.47	21708.64
454.676	21292.9
454.882	22167.38
455.088	19728.25
455.294	19988.35
455.5	20600.69
455.705	20782.96
455.911	19726.21
456.117	19554.18
456.323	19300.23
456.529	18327.44
456.735	18937.74
456.941	18677.65
457.147	18347.92
457.352	17708.96
457.558	17577.89
457.764	17520.54
457.97	17330.08
458.176	16965.54
458.381	16832.43
458.587	16025.53
458.793	16035.77
458.999	14981.06
459.204	16125.88
459.41	15701.95
459.616	14841.8
459.821	14761.93
460.027	14723.02
460.233	14403.53
460.438	13688.79
460.644	13834.2
460.85	13268.96
461.055	13043.68
461.261	13074.4
461.466	12181.49
461.672	11796.47
461.878	12689.39
462.083	11700.22
462.289	11546.62
462.494	11309.05
462.7	11057.15
462.905	10469.39
463.111	11145.22
463.316	10932.23
463.522	10811.4
463.727	10657.8
463.932	10983.43
464.138	10547.21
464.343	10698.76
464.549	10395.66
464.754	10696.71
464.959	10780.68
465.165	10612.74
465.37	10133.52
465.575	10067.99
465.781	10254.35
465.986	10356.75
466.191	9996.31
466.397	9748.5
466.602	9320.48
466.807	9920.53
467.012	9631.77
467.218	9666.58
467.423	9472.03
467.628	9603.1
467.833	10221.58
468.038	9822.23
468.244	9312.28
468.449	9599
468.654	9517.08
468.859	9463.83
469.064	9351.2
469.269	9119.78
469.474	9021.47
469.679	9144.35
469.885	8880.16
470.09	9015.33
470.295	9003.04
470.5	8603.69
470.705	8855.59
470.91	8695.85
471.115	8589.35
471.32	8695.85
471.525	8839.2
471.73	8398.89
471.935	8398.89
472.139	8144.94
472.344	8276.01
472.549	8134.7
472.754	8161.33
472.959	7966.77
473.164	7643.19
473.369	7669.81
473.574	7890.99
473.778	7931.95
473.983	7706.68
474.188	7667.77
474.393	7589.94
474.598	7534.65
474.802	7274.56
475.007	7239.74
475.212	7505.98
475.417	6877.25
475.621	6899.78
475.826	7008.32
476.031	7094.33
476.235	6893.63
476.44	6914.11
476.645	6864.96
476.849	6778.95
477.054	6809.67
477.259	6512.71
477.463	6576.2
477.668	6395.98
477.872	6596.68
478.077	6465.61
478.282	6279.24
478.486	6330.44
478.691	6256.72
478.895	6150.22
479.1	6244.43
479.304	6094.93
479.509	5814.35
479.713	6000.72
479.918	5996.62
480.122	5877.84
480.326	6058.06
480.531	5945.42
480.735	5826.64
480.94	5871.7
481.144	6049.87
481.348	5619.8
481.553	5808.21
481.757	5685.33
481.961	5865.55
482.166	5840.98
482.37	5785.68
482.574	5675.09
482.778	5843.03
482.983	5728.34
483.187	5759.06
483.391	5613.65
483.595	5683.28
483.8	5634.13
484.004	5666.9
484.208	5707.86
484.412	5716.05
484.616	5773.39
484.821	5691.48
485.025	5691.48
485.229	5662.8
485.433	5779.54
485.637	5871.7
485.841	5732.44
486.045	5699.67
486.249	5671
486.453	5699.67
486.657	5433.43
486.861	5769.3
487.065	5595.22
487.269	5505.11
487.473	5716.05
487.677	5847.12
487.881	5732.44
488.085	5730.39
488.289	5824.59
488.493	5736.53
488.697	5822.55
488.901	5783.63
489.105	5822.55
489.309	5853.27
489.512	5937.23
489.716	5836.88
489.92	5908.56
490.124	5865.55
490.328	5924.94
490.531	5861.46
490.735	5945.42
490.939	5998.67
491.143	6010.96
491.346	5986.38
491.55	5978.19
491.754	6019.15
491.958	6066.25
492.161	6053.97
492.365	6082.64
492.569	6285.39
492.772	6029.39
492.976	6160.46
493.18	6275.15
493.383	6418.5
493.587	6387.79
493.79	6494.28
493.994	6332.49
494.197	6457.42
494.401	6475.85
494.605	6525
494.808	6688.84
495.012	6588.49
495.215	6619.21
495.419	6828.1
495.622	6797.38
495.825	6793.28
496.029	6846.53
496.232	7161.92
496.436	6727.75
496.639	7131.2
496.843	7321.66
497.046	7260.22
497.249	7348.28
497.453	7493.69
497.656	7288.89
497.859	7591.99
498.063	7403.58
498.266	7577.66
498.469	7905.33
498.673	7784.5
498.876	7778.36
499.079	8192.05
499.282	7895.09
499.485	8243.24
499.689	8316.97
499.892	8394.79
500.095	8554.54
500.298	8876.07
500.501	8701.99
500.705	8968.23
500.908	8990.75
501.111	8970.27
501.314	9297.95
501.517	9275.42
501.72	9338.91
501.923	9441.31
502.126	9680.92
502.329	9867.28
502.532	9682.97
502.735	9959.44
502.938	10156.05
503.141	10246.16
503.344	10434.57
503.547	10457.1
503.75	10569.74
503.953	10752.01
504.156	10807.3
504.359	10999.81
504.562	11048.96
504.765	11204.61
504.968	11601.91
505.17	11522.04
505.373	11696.12
505.576	12052.47
505.779	12064.75
505.982	12122.1
506.185	12240.88
506.387	12347.37
506.59	12445.68
506.793	12885.99
506.996	12976.1
507.198	13180.9
507.401	13123.55
507.604	13322.21
507.807	13828.06
508.009	13844.44
508.212	13928.41
508.415	14176.21
508.617	14272.46
508.82	14274.51
509.022	14321.62
509.225	14835.66
509.428	14884.81
509.63	14919.62
509.833	14903.24
510.035	15540.16
510.238	15568.83
510.44	15845.3
510.643	16353.2
510.845	16338.87
511.048	16082.87
511.25	16758.7
511.453	16768.94
511.655	17354.66
511.858	17383.33
512.06	17190.82
512.262	17528.74
512.465	17629.09
512.667	18116.5
512.87	18431.89
513.072	18255.76
513.274	18683.79
513.477	18954.12
513.679	19179.4
513.881	19257.22
514.084	19728.25
514.286	19545.98
514.488	20060.02
514.69	20318.07
514.893	20469.62
515.095	20795.25
515.297	20776.81
515.499	21167.98
515.701	21079.91
515.904	21512.03
516.106	21944.16
516.308	22060.89
516.51	22511.44
516.712	22474.58
516.914	22685.52
517.116	23248.71
517.318	23586.63
517.52	23396.17
517.722	23412.55
517.925	23983.93
518.127	24051.52
518.329	24520.5
518.531	24409.91
518.733	25341.74
518.935	25407.27
519.136	25227.05
519.338	25644.84
519.54	25802.53
519.742	26384.15
519.944	26373.91
520.146	26873.62
520.348	26617.62
520.55	27107.09
520.752	27227.92
520.954	27877.12
521.155	27657.99
521.357	28337.91
521.559	28483.32
521.761	28790.52
521.963	28385.02
522.164	29202.16
522.366	29222.64
522.568	29460.2
522.77	29581.03
522.971	29880.03
523.173	30365.4
523.375	30439.13
523.576	30306.01
523.778	30506.71
523.98	30977.75
524.181	31004.37
524.383	30895.83
524.584	31565.51
524.786	31262.41
524.988	31844.04
525.189	31643.34
525.391	32188.1
525.592	32450.24
525.794	32669.37
525.995	32589.5
526.197	32898.74
526.398	32896.69
526.6	33183.41
526.801	33463.98
527.003	33775.27
527.204	33423.02
527.406	34191.01
527.607	33709.74
527.808	34168.48
528.01	33568.43
528.211	34373.28
528.412	34764.44
528.614	34813.59
528.815	34451.1
529.016	35004.05
529.218	34483.87
529.419	34924.18
529.62	34782.87
529.822	34764.44
530.023	34959
530.224	35002
530.425	35354.26
530.626	34983.57
530.828	34778.78
531.029	36126.34
531.23	35378.83
531.431	35475.09
531.632	35346.06
531.833	36099.72
532.035	35686.03
532.236	35739.27
532.437	36071.04
532.638	35524.24
532.839	36054.66
533.04	36120.2
533.241	35759.75
533.442	36406.91
533.643	35939.97
533.844	36136.58
534.045	36040.32
534.246	35620.49
534.447	36505.21
534.648	36181.63
534.849	36646.52
535.05	35790.47
535.251	36265.6
535.451	36220.55
535.652	36441.73
535.853	36069
536.054	36361.86
536.255	36523.65
536.456	36214.4
536.657	36630.14
536.857	36363.9
537.058	36185.73
537.259	36984.44
537.46	36533.89
537.66	36238.98
537.861	36187.78
538.062	36484.73
538.263	36480.64
538.463	36353.66
538.664	36474.49
538.865	36531.84
539.065	36716.15
539.266	36345.47
539.466	36959.86
539.667	36277.89
539.868	36589.18
540.068	36765.31
540.269	36830.84
540.469	36474.49
540.67	36304.51
540.87	36609.66
541.071	36402.82
541.271	36750.97
541.472	36693.63
541.672	36507.26
541.873	36429.44
542.073	36097.67
542.274	36626.04
542.474	36269.7
542.675	36408.96
542.875	36675.2
543.075	36554.36
543.276	35909.25
543.476	36601.47
543.676	36546.17
543.877	36753.02
544.077	36300.42
544.277	36056.71
544.478	36669.05
544.678	36550.27
544.878	36308.61
545.078	36492.93
545.279	36396.67
545.479	36202.11
545.679	36335.23
545.879	36480.64
546.079	36531.84
546.28	36189.83
546.48	36376.19
546.68	36193.92
546.88	36525.69
547.08	36374.14
547.28	36222.59
547.48	36456.06
547.68	36363.9
547.88	35995.27
548.081	36560.51
548.281	36251.27
548.481	36107.91
548.681	36386.43
548.881	36394.62
549.081	36343.42
549.28	36288.13
549.48	36361.86
549.68	35593.87
549.88	36738.68
550.08	36171.39
550.28	36378.24
550.48	36114.05
550.68	36312.7
550.88	36312.7
551.08	36093.57
551.279	36529.79
551.479	36187.78
551.679	36308.61
551.879	36316.8
552.079	36447.87
552.278	36386.43
552.478	35933.83
552.678	36118.15
552.878	36318.85
553.077	36179.59
553.277	36255.36
553.477	36365.95
553.676	36234.88
553.876	35833.48
554.076	36097.67
554.275	35554.96
554.475	35841.67
554.674	36349.57
554.874	35776.14
555.074	35862.15
555.273	35962.5
555.473	36132.48
555.672	35960.45
555.872	36073.09
556.071	35968.65
556.271	36290.18
556.47	35792.52
556.67	35718.79
556.869	35747.47
557.068	35554.96
557.268	35649.16
557.467	35624.59
557.667	35698.31
557.866	35585.68
558.065	35344.02
558.265	34922.13
558.464	35108.5
558.663	35489.42
558.863	34645.66
559.062	35298.96
559.261	35075.73
559.461	35274.38
559.66	34827.93
559.859	35243.66
560.058	34434.72
560.258	35245.71
560.457	34649.75
560.656	34918.04
560.855	34541.21
561.054	35071.64
561.253	34606.75
561.453	34600.6
561.652	34786.97
561.851	34655.9
562.05	34786.97
562.249	34344.61
562.448	34604.7
562.647	34719.38
562.846	34371.23
563.045	34471.58
563.244	33959.59
563.443	34776.73
563.642	33640.11
563.841	34260.64
564.04	33984.16
564.239	34641.56
564.438	33746.6
564.637	33945.25
564.836	34148
565.035	33744.55
565.234	34213.54
565.432	33656.49
565.631	33681.06
565.83	33808.04
566.029	33722.02
566.228	33633.96
566.427	33294
566.625	33310.38
566.824	33189.55
567.023	33320.62
567.222	32892.6
567.42	33349.29
567.619	33210.03
567.818	33113.78
568.016	32915.12
568.215	33029.81
568.414	32839.35
568.612	32962.23
568.811	32702.14
569.01	32648.89
569.208	32140.99
569.407	32712.38
569.605	31997.63
569.804	32329.41
570.002	31977.15
570.201	32368.32
570.4	31422.16
570.598	31889.09
570.797	31684.3
570.995	31917.76
571.193	31375.05
571.392	31626.95
571.59	31604.42
571.789	31530.7
571.987	31149.78
572.186	31121.1
572.384	31465.16
572.582	31450.83
572.781	31538.89
572.979	30701.27
573.177	31028.95
573.376	31071.95
573.574	30844.63
573.772	30977.75
573.971	30389.98
574.169	30480.09
574.367	30140.13
574.565	30602.97
574.763	30263
574.962	30174.94
575.16	29888.23
575.358	30527.19
575.556	29871.84
575.754	30148.32
575.952	29855.46
576.151	29798.12
576.349	29538.02
576.547	29464.3
576.745	29384.43
576.943	29607.65
577.141	29318.89
577.339	29544.17
577.537	28872.43
577.735	29038.32
577.933	28956.4
578.131	29054.7
578.329	28774.13
578.527	28659.45
578.725	28380.92
578.923	29136.62
579.121	28436.22
579.319	27991.81
579.516	28616.44
579.714	28364.54
579.912	28090.11
580.11	28188.41
580.308	28034.81
580.506	27942.66
580.704	27627.27
580.901	27909.89
581.099	28184.32
581.297	27535.11
581.495	27463.43
581.692	27356.94
581.89	27404.04
582.088	27590.41
582.285	27080.46
582.483	27522.82
582.681	27170.57
582.878	27078.41
583.076	26971.92
583.274	26926.86
583.471	26699.54
583.669	26810.13
583.866	26431.26
584.064	26765.07
584.262	26308.38
584.459	26457.88
584.657	26679.06
584.854	26386.2
585.052	26048.29
585.249	26349.34
585.447	26195.74
585.644	25825.06
585.841	25868.06
586.039	26259.23
586.236	25433.89
586.434	25622.31
586.631	25319.21
586.828	25386.79
587.026	25763.62
587.223	25515.81
587.42	25239.34
587.618	25626.4
587.815	24885.04
588.012	25237.29
588.21	25089.84
588.407	25071.4
588.604	24911.66
588.801	24555.32
588.999	24700.72
589.196	24536.88
589.393	25024.3
589.59	24571.7
589.787	24508.21
589.984	24618.8
590.182	23994.17
590.379	24274.74
590.576	24209.21
590.773	24110.91
590.97	23881.53
591.167	24112.95
591.364	23535.43
591.561	24158.01
591.758	23697.22
591.955	23734.08
592.152	23725.89
592.349	23766.85
592.546	23615.3
592.743	23560
592.94	23113.55
593.137	23373.64
593.334	23562.05
593.531	22837.07
593.727	23310.15
593.924	23529.28
594.121	22970.19
594.318	23117.64
594.515	22730.58
594.712	23062.35
594.908	22716.24
595.105	22716.24
595.302	22464.34
595.499	22540.11
595.696	22314.84
595.892	22646.61
596.089	22398.8
596.286	22441.81
596.482	22177.62
596.679	22388.57
596.876	21968.73
597.072	21872.48
597.269	22212.44
597.466	21784.41
597.662	21811.04
597.859	21804.89
598.055	22052.7
598.252	21682.02
598.448	21548.9
598.645	21555.04
598.841	21305.19
599.038	21686.11
599.234	21325.67
599.431	21200.74
599.627	21028.71
599.824	21208.94
600.02	21120.87
600.217	21335.91
600.413	20809.58
600.609	20825.96
600.806	20834.16
601.002	21098.34
601.198	20791.15
601.395	20574.06
601.591	20690.8
601.787	20502.39
601.984	20221.81
602.18	20324.21
602.376	20330.36
602.572	20373.36
602.769	20053.88
602.965	19601.28
603.161	20223.86
603.357	19984.25
603.553	19795.84
603.75	20023.16
603.946	19904.38
604.142	19898.24
604.338	19513.22
604.534	19761.02
604.73	19357.57
604.926	19486.59
605.122	19357.57
605.318	19064.71
605.514	19230.6
605.71	19230.6
605.906	18921.35
606.102	19138.44
606.298	18966.41
606.494	18790.28
606.69	18796.43
606.886	19027.85
607.082	18608.01
607.278	18446.23
607.474	18190.23
607.67	18642.83
607.866	18126.74
608.062	18290.58
608.257	18376.59
608.453	18374.55
608.649	18519.95
608.845	18177.94
609.041	18112.41
609.236	18292.63
609.432	18067.35
609.628	18108.31
609.824	17739.68
610.019	17901.47
610.215	17811.35
610.411	17727.39
610.606	17702.81
610.802	17713.05
610.998	17432.48
611.193	17586.08
611.389	17311.65
611.584	17495.97
611.78	17371.04
611.976	17536.93
612.171	17528.74
612.367	17266.6
612.562	17129.38
612.758	16977.83
612.953	17295.27
613.149	17069.99
613.344	17119.14
613.539	17137.57
613.735	17059.75
613.93	16842.67
614.126	16506.8
614.321	16830.38
614.517	16633.77
614.712	16594.86
614.907	16590.77
615.103	16394.16
615.298	16398.26
615.493	16582.57
615.688	16365.49
615.884	16574.38
616.079	16279.47
616.274	16046.01
616.47	16275.38
616.665	16373.68
616.86	16205.75
617.055	16095.16
617.25	16125.88
617.445	16050.1
617.641	15824.83
617.836	15896.5
618.031	15730.62
618.226	15996.85
618.421	15761.34
618.616	15914.94
618.811	15673.28
619.006	15781.82
619.201	14895.05
619.396	15591.36
619.591	15144.9
619.786	15192
619.981	15032.26
620.176	15431.62
620.371	14987.21
620.566	15163.33
620.761	14942.15
620.956	14890.95
621.151	14899.14
621.346	14784.46
621.541	14745.55
621.735	14794.7
621.93	14378.96
622.125	14438.35
622.32	14516.17
622.515	14258.13
622.709	14258.13
622.904	14043.09
623.099	14032.85
623.294	13940.69
623.488	13928.41
623.683	13750.23
623.878	13567.96
624.072	13565.92
624.267	13750.23
624.462	13711.32
624.656	13537.24
624.851	13434.85
625.046	13344.74
625.24	13453.28
625.435	13248.48
625.629	13445.09
625.824	12996.58
626.018	13174.75
626.213	12709.86
626.407	13043.68
626.602	12447.72
626.796	12670.95
626.991	12675.05
627.185	12556.27
627.38	12642.28
627.574	12482.54
627.768	12437.48
627.963	12306.41
628.157	12195.82
628.352	12232.69
628.546	12058.61
628.74	12161.01
628.935	12113.91
629.129	11761.66
629.323	11927.54
629.517	11730.94
629.712	11642.87
629.906	11726.84
630.1	11479.04
630.294	11716.6
630.489	11454.46
630.683	11497.47
630.877	11442.17
631.071	11200.51
631.265	11352.06
631.459	11188.22
631.653	11343.87
631.848	11220.99
632.042	11067.39
632.236	10989.57
632.43	10881.03
632.624	11065.35
632.818	10932.23
633.012	10557.45
633.206	10754.05
633.4	10682.38
633.594	10584.07
633.788	10594.31
633.982	10665.99
634.176	10555.4
634.369	10366.99
634.563	10389.52
634.757	10338.32
634.951	10309.65
635.145	10303.5
635.339	10209.29
635.533	10137.62
635.726	10016.79
635.92	10125.33
636.114	9920.53
636.308	9844.76
636.501	9865.24
636.695	9902.1
636.889	9734.17
637.083	9828.37
637.276	9697.3
637.47	9781.27
637.664	9388.06
637.857	9619.48
638.051	9644.06
638.244	9394.2
638.438	9537.56
638.632	9273.37
638.825	9312.28
639.019	9121.82
639.212	9242.65
639.406	9123.87
639.599	9041.95
639.793	8970.27
639.986	8955.94
640.18	8794.15
640.373	8867.88
640.567	8667.17
640.76	8806.44
640.954	8544.3
641.147	8648.74
641.34	8409.13
641.534	8800.29
641.727	8517.67
641.92	8648.74
642.114	8513.58
642.307	8538.15
642.5	8462.38
642.694	8226.86
642.887	7981.1
643.08	8329.26
643.273	8245.29
643.467	8075.31
643.66	8083.5
643.853	7981.1
644.046	7907.38
644.239	8026.16
644.432	7798.84
644.626	7921.71
644.819	7602.23
645.012	7622.71
645.205	7583.8
645.398	7622.71
645.591	7458.87
645.784	7661.62
645.977	7419.96
646.17	7559.22
646.363	7321.66
646.556	7301.18
646.749	7245.88
646.942	7176.25
647.135	7133.25
647.328	7184.45
647.521	7159.87
647.714	7125.05
647.907	7032.9
648.099	7061.57
648.292	6899.78
648.485	7086.14
648.678	6959.17
648.871	6910.02
649.064	6772.8
649.256	6844.48
649.449	6733.89
649.642	6578.25
649.835	6537.29
650.027	6539.33
650.22	6488.14
650.413	6529.1
650.605	6375.5
650.798	6518.86
650.991	6367.31
651.183	6461.51
651.376	6312.01
651.568	6326.35
651.761	6279.24
651.954	6168.65
652.146	6234.19
652.339	6027.34
652.531	6076.49
652.724	6080.59
652.916	6015.05
653.109	5826.64
653.301	5980.24
653.494	6033.49
653.686	5843.03
653.879	5736.53
654.071	5830.74
654.263	5744.72
654.456	5664.85
654.648	5789.78
654.84	5671
655.033	5511.25
655.225	5560.41
655.417	5513.3
655.61	5498.97
655.802	5382.23
655.994	5322.84
656.186	5275.74
656.379	5324.89
656.571	5199.96
656.763	5300.31
656.955	5136.48
657.148	5175.39
657.34	5128.28
657.532	5070.94
657.724	5085.28
657.916	4941.92
658.108	4892.77
658.3	4870.24
658.492	4862.05
658.684	4864.1
658.876	4745.31
659.068	4681.83
659.26	4767.84
659.452	4726.88
659.644	4706.4
659.836	4757.6
660.028	4657.25
660.22	4434.02
660.412	4530.28
660.604	4520.04
660.796	4595.81
660.988	4581.48
661.18	4284.52
661.372	4296.81
661.563	4364.39
661.755	4325.48
661.947	4374.63
662.139	4331.62
662.331	4147.31
662.522	4106.35
662.714	4081.77
662.906	4221.03
663.097	4296.81
663.289	4110.44
663.481	4178.03
663.673	4001.9
663.864	3952.75
664.056	4003.95
664.247	3928.17
664.439	3893.36
664.631	3821.68
664.822	3758.19
665.014	3883.12
665.205	3962.99
665.397	3786.86
665.588	3666.03
665.78	3758.19
665.971	3737.71
666.163	3700.85
666.354	3610.74
666.546	3532.92
666.737	3594.36
666.929	3602.55
667.12	3604.6
667.311	3553.4
667.503	3481.72
667.694	3549.3
667.885	3569.78
668.077	3516.53
668.268	3453.05
668.459	3420.28
668.651	3526.77
668.842	3389.56
669.033	3319.93
669.224	3424.37
669.416	3457.14
669.607	3375.22
669.798	3342.46
669.989	3360.89
670.18	3219.58
670.371	3315.83
670.563	3260.54
670.754	3252.35
670.945	3307.64
671.136	3242.11
671.327	3080.32
671.518	3137.66
671.709	3098.75
671.9	3270.78
672.091	3098.75
672.282	3035.26
672.473	3039.36
672.664	3096.7
672.855	3039.36
673.046	3041.4
673.237	3047.55
673.428	3037.31
673.619	3086.46
673.809	2922.62
674	2988.16
674.191	3065.98
674.382	3022.97
674.573	2943.1
674.764	2906.24
674.954	2850.94
675.145	2949.25
675.336	2889.85
675.527	2857.09
675.717	2805.89
675.908	2988.16
676.099	2865.28
676.289	2779.26
676.48	2910.33
676.671	2754.69
676.861	2666.63
677.052	2674.82
677.243	2883.71
677.433	2785.41
677.624	2713.73
677.814	2787.46
678.005	2732.16
678.195	2717.83
678.386	2791.55
678.576	2670.72
678.767	2668.67
678.957	2621.57
679.148	2730.11
679.338	2746.5
679.529	2654.34
679.719	2611.33
679.909	2695.3
680.1	2664.58
680.29	2662.53
680.481	2594.95
680.671	2633.86
680.861	2685.06
681.052	2642.05
681.242	2644.1
681.432	2662.53
681.622	2625.67
681.813	2572.42
682.003	2644.1
682.193	2619.52
682.383	2564.23
682.573	2547.84
682.764	2662.53
682.954	2539.65
683.144	2504.84
683.334	2590.85
683.524	2582.66
683.714	2515.08
683.904	2568.32
684.094	2447.49
684.284	2539.65
684.474	2566.28
684.664	2470.02
684.854	2597
685.044	2537.6
685.234	2470.02
685.424	2521.22
685.614	2553.99
685.804	2439.3
685.994	2406.53
686.184	2517.12
686.374	2605.19
686.564	2443.4
686.753	2416.77
686.943	2445.45
687.133	2377.86
687.323	2400.39
687.513	2472.07
687.702	2404.49
687.892	2451.59
688.082	2488.45
688.272	2562.18
688.461	2525.32
688.651	2338.95
688.841	2474.12
689.03	2472.07
689.22	2459.78
689.41	2459.78
689.599	2455.69
689.789	2515.08
689.979	2427.01
690.168	2486.4
690.358	2369.67
690.547	2463.88
690.737	2537.6
690.926	2455.69
691.116	2347.14
691.305	2513.03
691.495	2381.96
691.684	2328.71
691.874	2322.57
692.063	2424.97
692.252	2404.49
692.442	2451.59
692.631	2418.82
692.82	2519.17
693.01	2531.46
693.199	2547.84
693.388	2377.86
693.578	2328.71
693.767	2504.84
693.956	2328.71
694.146	2494.6
694.335	2394.25
694.524	2386.05
694.713	2506.88
694.902	2422.92
695.092	2379.91
695.281	2470.02
695.47	2453.64
695.659	2404.49
695.848	2424.97
696.037	2510.98
696.226	2318.47
696.415	2330.76
696.604	2515.08
696.793	2549.89
696.982	2279.56
697.171	2408.58
697.36	2361.48
697.549	2447.49
697.738	2402.44
697.927	2404.49
698.116	2365.57
698.305	2261.13
698.494	2291.85
698.683	2486.4
698.872	2445.45
699.061	2283.66
699.25	2349.19
699.438	2416.77
699.627	2295.94
699.816	2381.96
700.005	2443.4
700.193	2250.89
700.382	2384.01
700.571	2285.7
700.76	2308.23
700.948	2422.92
701.137	2267.27
701.326	2357.38
701.514	2328.71
701.703	2308.23
701.892	2195.59
702.08	2386.05
702.269	2314.38
702.457	2232.46
702.646	2316.42
702.834	2269.32
703.023	2308.23
703.212	2246.79
703.4	2349.19
703.589	2279.56
703.777	2267.27
703.965	2230.41
704.154	2216.07
704.342	2250.89
704.531	2189.45
704.719	2293.9
704.907	2226.31
705.096	2224.26
705.284	2138.25
705.472	2232.46
705.661	2107.53
705.849	2207.88
706.037	2162.83
706.226	2234.5
706.414	2244.74
706.602	2134.15
706.79	2254.98
706.979	2152.59
707.167	2160.78
707.355	2128.01
707.543	2115.72
707.731	2168.97
707.919	2119.82
708.107	2179.21
708.296	2068.62
708.484	2072.72
708.672	2064.52
708.86	2064.52
709.048	2060.43
709.236	2019.47
709.424	2046.09
709.612	2072.72
709.8	2017.42
709.988	2009.23
710.176	1958.03
710.364	1939.6
710.551	1949.84
710.739	1955.98
710.927	1970.32
711.115	1978.51
711.303	1904.78
711.491	1990.8
711.679	1892.49
711.866	1947.79
712.054	1886.35
712.242	1947.79
712.43	1874.06
712.617	1933.45
712.805	1861.77
712.993	1910.93
713.181	1917.07
713.368	1878.16
713.556	1937.55
713.744	1802.38
713.931	1800.34
714.119	1824.91
714.306	1808.53
714.494	1933.45
714.682	1761.42
714.869	1720.46
715.057	1763.47
715.244	1812.62
715.432	1738.9
715.619	1716.37
715.807	1757.33
715.994	1786
716.182	1802.38
716.369	1753.23
716.556	1775.76
716.744	1745.04
716.931	1691.79
717.119	1800.34
717.306	1796.24
717.493	1779.86
717.681	1745.04
717.868	1691.79
718.055	1626.26
718.242	1654.93
718.43	1652.88
718.617	1616.02
718.804	1640.59
718.991	1552.53
719.179	1693.84
719.366	1693.84
719.553	1644.69
719.74	1648.79
719.927	1577.11
720.114	1523.86
720.301	1601.68
720.488	1646.74
720.676	1599.63
720.863	1503.38
721.05	1530
721.237	1562.77
721.424	1521.81
721.611	1521.81
721.798	1482.9
721.985	1466.52
722.172	1542.29
722.358	1482.9
722.545	1487
722.732	1521.81
722.919	1558.67
723.106	1425.56
723.293	1448.08
723.48	1417.37
723.667	1421.46
723.853	1343.64
724.04	1505.43
724.227	1398.93
724.414	1380.5
724.6	1439.89
724.787	1482.9
724.974	1462.42
725.161	1329.3
725.347	1458.32
725.534	1487
725.72	1419.41
725.907	1396.89
726.094	1366.17
726.28	1394.84
726.467	1353.88
726.653	1364.12
726.84	1339.54
727.027	1382.55
727.213	1366.17
727.4	1333.4
727.586	1355.93
727.773	1241.24
727.959	1329.3
728.145	1253.53
728.332	1294.49
728.518	1237.14
728.705	1329.3
728.891	1343.64
729.077	1228.95
729.264	1208.47
729.45	1251.48
729.636	1276.06
729.823	1153.18
730.009	1161.37
730.195	1214.62
730.382	1228.95
730.568	1222.81
730.754	1231
730.94	1177.75
731.126	1161.37
731.313	1228.95
731.499	1216.66
731.685	1214.62
731.871	1132.7
732.057	1075.35
732.243	1251.48
732.429	1235.1
732.615	1231
732.801	1171.61
732.987	1190.04
733.173	1120.41
733.359	1208.47
733.545	1071.26
733.731	1136.79
733.917	1136.79
734.103	1177.75
734.289	1095.83
734.475	1083.55
734.661	1093.79
734.847	1122.46
735.033	1155.23
735.219	1106.07
735.404	1101.98
735.59	1151.13
735.776	1042.59
735.962	1097.88
736.148	1108.12
736.333	1071.26
736.519	1028.25
736.705	1083.55
736.89	1032.35
737.076	1005.72
737.262	1052.83
737.447	1032.35
737.633	1110.17
737.819	1061.02
738.004	1165.46
738.19	1089.69
738.375	1079.45
738.561	972.96
738.747	972.96
738.932	1056.92
739.118	1005.72
739.303	985.24
739.489	1030.3
739.674	999.58
739.859	958.62
740.045	991.39
740.23	915.61
740.416	1065.11
740.601	927.9
740.786	977.05
740.972	925.85
741.157	991.39
741.342	870.56
741.528	886.94
741.713	975
741.898	948.38
742.084	905.37
742.269	977.05
742.454	891.04
742.639	909.47
742.824	968.86
743.01	903.32
743.195	895.13
743.38	880.8
743.565	999.58
743.75	874.65
743.935	921.76
744.12	915.61
744.305	911.52
744.49	800.93
744.675	886.94
744.86	827.55
745.045	827.55
745.23	919.71
745.415	854.17
745.6	860.32
745.785	811.17
745.97	813.21
746.155	891.04
746.34	780.45
746.525	868.51
746.71	780.45
746.895	743.58
747.079	786.59
747.264	870.56
747.449	788.64
747.634	784.54
747.819	819.36
748.003	725.15
748.188	821.41
748.373	778.4
748.557	727.2
748.742	919.71
748.927	729.25
749.111	764.06
749.296	719.01
749.481	835.74
749.665	716.96
749.85	774.3
750.034	751.78
750.219	729.25
750.404	678.05
750.588	743.58
750.773	727.2
750.957	739.49
751.141	663.71
751.326	749.73
751.51	667.81
751.695	639.14
751.879	682.14
752.064	680.1
752.248	665.76
752.432	712.86
752.617	628.9
752.801	669.86
752.985	655.52
753.17	637.09
753.354	641.18
753.538	647.33
753.722	581.79
753.907	669.86
754.091	626.85
754.275	637.09
754.459	663.71
754.643	618.66
754.828	655.52
755.012	612.51
755.196	520.35
755.38	546.98
755.564	516.26
755.748	630.95
755.932	637.09
756.116	608.42
756.3	577.7
756.484	563.36
756.668	549.03
756.852	483.49
757.036	600.23
757.22	569.51
757.404	475.3
757.588	555.17
757.772	526.5
757.956	549.03
758.14	528.55
758.323	522.4
758.507	565.41
758.691	522.4
758.875	575.65
759.059	567.46
759.242	567.46
759.426	596.13
759.61	512.16
759.794	516.26
759.977	518.31
760.161	493.73
760.345	485.54
760.528	592.03
760.712	549.03
760.895	469.16
761.079	551.07
761.263	383.14
761.446	452.77
761.63	510.11
761.813	489.64
761.997	493.73
762.18	456.87
762.364	465.06
762.547	491.68
762.731	563.36
762.914	499.88
763.098	481.44
763.281	506.02
763.464	407.72
763.648	411.81
763.831	420
764.015	413.86
764.198	428.2
764.381	417.96
764.564	391.33
764.748	452.77
764.931	442.53
765.114	417.96
765.297	536.74
765.481	479.4
765.664	395.43
765.847	393.38
766.03	440.48
766.213	403.62
766.397	417.96
766.58	452.77
766.763	491.68
766.946	430.24
767.129	485.54
767.312	393.38
767.495	415.91
767.678	432.29
767.861	473.25
768.044	422.05
768.227	387.24
768.41	358.57
768.593	391.33
768.776	426.15
768.959	381.09
769.142	465.06
769.324	491.68
769.507	514.21
769.69	424.1
769.873	383.14
770.056	432.29
770.239	456.87
770.421	405.67
770.604	456.87
770.787	377
770.97	333.99
771.152	424.1
771.335	465.06
771.518	389.28
771.7	436.39
771.883	329.89
772.066	358.57
772.248	395.43
772.431	442.53
772.613	411.81
772.796	381.09
772.978	475.3
773.161	366.76
773.343	350.37
773.526	370.85
773.708	338.09
773.891	346.28
774.073	313.51
774.256	362.66
774.438	413.86
774.621	342.18
774.803	417.96
774.985	342.18
775.168	399.52
775.35	301.22
775.532	346.28
775.715	307.37
775.897	362.66
776.079	346.28
776.261	397.48
776.444	354.47
776.626	331.94
776.808	329.89
776.99	354.47
777.173	395.43
777.355	307.37
777.537	315.56
777.719	338.09
777.901	319.65
778.083	360.61
778.265	344.23
778.447	270.5
778.629	311.46
778.811	270.5
778.993	293.03
779.175	360.61
779.357	317.61
779.539	348.33
779.721	321.7
779.903	293.03
780.085	346.28
780.267	305.32
780.449	258.21
780.631	352.42
780.812	297.13
780.994	286.89
781.176	231.59
781.358	276.65
781.54	305.32
781.721	209.06
781.903	233.64
782.085	286.89
782.267	260.26
782.448	278.69
782.63	317.61
782.812	274.6
782.993	286.89
783.175	301.22
783.357	200.87
783.538	241.83
783.72	293.03
783.901	256.17
784.083	278.69
784.264	254.12
784.446	225.45
784.627	241.83
784.809	305.32
784.99	239.78
785.172	301.22
785.353	209.06
785.535	153.77
785.716	194.73
785.897	194.73
786.079	290.98
786.26	221.35
786.441	196.78
786.623	227.5
786.804	209.06
786.985	239.78
787.167	276.65
787.348	235.69
787.529	223.4
787.71	178.34
787.891	110.76
788.073	252.07
788.254	243.88
788.435	233.64
788.616	196.78
788.797	161.96
788.978	174.25
789.159	247.97
789.34	198.82
789.522	161.96
789.703	164.01
789.884	202.92
790.065	176.3
790.246	186.54
790.427	198.82
790.607	239.78
790.788	213.16
790.969	131.24
791.15	172.2
791.331	270.5
791.512	184.49
791.693	155.82
791.874	164.01
792.054	172.2
792.235	90.28
792.416	157.86
792.597	147.62
792.778	188.58
792.958	176.3
793.139	182.44
793.32	127.14
793.5	209.06
793.681	143.53
793.862	155.82
794.042	176.3
794.223	219.3
794.404	176.3
794.584	153.77
794.765	170.15
794.945	170.15
795.126	137.38
795.306	182.44
795.487	80.04
795.667	67.75
795.848	178.34
796.028	110.76
796.209	188.58
796.389	198.82
796.57	155.82
796.75	182.44
796.93	215.21
797.111	157.86
797.291	188.58
797.471	186.54
797.652	88.23
797.832	161.96
798.012	166.06
798.192	121
798.373	172.2
798.553	125.1
798.733	147.62
798.913	90.28
799.093	121
799.274	170.15
799.454	170.15
799.634	151.72
799.814	145.58
799.994	194.73
800.174	98.47
800.354	104.62
800.534	196.78
800.714	147.62
800.894	112.81
801.074	49.32
801.254	137.38
801.434	164.01
801.614	172.2
801.794	100.52
801.974	344.23
802.154	100.52
802.334	137.38
802.514	112.81
802.693	96.43
802.873	114.86
803.053	161.96
803.233	63.66
803.413	151.72
803.592	92.33
803.772	63.66
803.952	123.05
804.131	10.41
804.311	75.95
804.491	180.39
804.67	139.43
804.85	43.18
805.03	129.19
805.209	102.57
805.389	155.82
805.568	207.02
805.748	151.72
805.928	88.23
806.107	180.39
806.287	110.76
806.466	108.71
806.646	123.05
806.825	106.67
807.004	88.23
807.184	118.95
807.363	123.05
807.543	137.38
807.722	96.43
807.901	84.14
808.081	94.38
808.26	100.52
808.439	137.38
808.619	65.71
808.798	96.43
808.977	135.34
809.156	129.19
809.336	53.42
809.515	88.23
809.694	94.38
809.873	121
810.052	77.99
810.231	77.99
810.411	34.99
810.59	139.43
810.769	71.85
810.948	112.81
811.127	80.04
811.306	63.66
811.485	88.23
811.664	90.28
811.843	73.9
812.022	49.32
812.201	133.29
812.38	57.51
812.559	47.27
812.737	131.24
812.916	90.28
813.095	75.95
813.274	84.14
813.453	65.71
813.632	110.76
813.811	80.04
813.989	6.31
814.168	80.04
814.347	80.04
814.526	63.66
814.704	45.23
814.883	0.17
815.062	49.32
815.24	149.67
815.419	80.04
815.598	49.32
815.776	41.13
815.955	67.75
816.133	102.57
816.312	80.04
816.49	73.9
816.669	34.99
816.847	34.99
817.026	98.47
817.204	69.8
817.383	100.52
817.561	22.7
817.74	116.9
817.918	-18.26
818.097	88.23
818.275	41.13
818.453	96.43
818.632	80.04
818.81	96.43
818.988	69.8
819.167	71.85
819.345	20.65
819.523	114.86
819.701	43.18
819.879	88.23
820.058	98.47
820.236	114.86
820.414	47.27
820.592	170.15
820.77	84.14
820.948	75.95
821.127	55.47
821.305	-34.64
821.483	100.52
821.661	45.23
821.839	14.51
822.017	102.57
822.195	49.32
822.373	118.95
822.551	110.76
822.729	112.81
822.907	8.36
823.085	106.67
823.262	75.95
823.44	0.17
823.618	84.14
823.796	34.99
823.974	49.32
824.152	96.43
824.329	53.42
824.507	100.52
824.685	82.09
824.863	108.71
825.04	67.75
825.218	39.08
825.396	63.66
825.574	57.51
825.751	47.27
825.929	39.08
826.107	28.84
826.284	94.38
826.462	57.51
826.639	57.51
826.817	67.75
826.994	0.17
827.172	86.19
827.349	164.01
827.527	84.14
827.704	47.27
827.882	55.47
828.059	18.6
828.237	131.24
828.414	92.33
828.591	69.8
828.769	57.51
828.946	43.18
829.124	63.66
829.301	88.23
829.478	90.28
829.655	77.99
829.833	6.31
830.01	-16.21
830.187	41.13
830.364	34.99
830.542	90.28
830.719	67.75
830.896	45.23
831.073	0.17
831.25	37.03
831.427	12.46
831.604	24.75
831.782	39.08
831.959	55.47
832.136	-20.31
832.313	10.41
832.49	57.51
832.667	88.23
832.844	71.85
833.021	43.18
833.198	43.18
833.374	110.76
833.551	28.84
833.728	47.27
833.905	39.08
834.082	98.47
834.259	28.84
834.436	41.13
834.612	14.51
834.789	63.66
834.966	67.75
835.143	63.66
835.319	80.04
835.496	14.51
835.673	55.47
835.85	41.13
836.026	43.18
836.203	102.57
836.38	55.47
836.556	55.47
836.733	6.31
836.909	98.47
837.086	84.14
837.262	30.89
837.439	82.09
837.616	108.71
837.792	0.17
837.968	-8.02
838.145	80.04
838.321	104.62
838.498	49.32
838.674	32.94
838.851	26.79
839.027	37.03
839.203	86.19
839.38	14.51
839.556	57.51
839.732	90.28
839.909	32.94
840.085	0.17
840.261	102.57
840.437	0.17
840.614	24.75
840.79	71.85
840.966	2.22
841.142	0.17
841.318	14.51
841.494	43.18
841.671	24.75
841.847	-8.02
842.023	30.89
842.199	-3.93
842.375	22.7
842.551	26.79
842.727	-32.6
842.903	102.57
843.079	-1.88
843.255	67.75
843.431	18.6
843.607	71.85
843.783	37.03
843.959	22.7
844.134	63.66
844.31	37.03
844.486	55.47
844.662	34.99
844.838	12.46
845.013	49.32
845.189	82.09
845.365	10.41
845.541	10.41
845.716	67.75
845.892	88.23
846.068	51.37
846.244	0.17
846.419	53.42
846.595	-34.64
846.77	41.13
846.946	-1.88
847.122	55.47
847.297	-28.5
847.473	65.71
847.648	-22.36
847.824	0.17
847.999	-69.46
848.175	67.75
848.35	30.89
848.526	24.75
848.701	26.79
848.876	80.04
849.052	-8.02
849.227	20.65
849.403	63.66
849.578	82.09
849.753	59.56
849.929	39.08
850.104	-1.88
850.279	67.75
850.454	28.84
850.63	-36.69
850.805	0.17
850.98	45.23
851.155	47.27
851.33	55.47
851.505	43.18
851.681	69.8
851.856	39.08
852.031	-94.04
852.206	2.22
852.381	45.23
852.556	4.27
852.731	20.65
852.906	-46.93
853.081	24.75
853.256	55.47
853.431	75.95
853.606	12.46
853.781	0.17
853.956	-1.88
854.131	6.31
854.305	6.31
854.48	63.66
854.655	20.65
854.83	16.55
855.005	-12.12
855.18	-10.07
855.354	-20.31
855.529	22.7
855.704	28.84
855.879	-34.64
856.053	6.31
856.228	59.56
856.403	55.47
856.577	16.55
856.752	51.37
856.926	30.89
857.101	20.65
857.276	14.51
857.45	49.32
857.625	28.84
857.799	41.13
857.974	49.32
858.148	-26.45
858.323	34.99
858.497	-1.88
858.672	30.89
858.846	-12.12
859.02	47.27
859.195	43.18
859.369	-8.02
859.543	57.51
859.718	67.75
859.892	41.13
860.066	4.27
860.241	30.89
860.415	57.51
860.589	43.18
860.763	14.51
860.938	16.55
861.112	34.99
861.286	-18.26
861.46	-18.26
861.634	-28.5
861.808	14.51
861.982	-26.45
862.157	16.55
862.331	57.51
862.505	65.71
862.679	59.56
862.853	-46.93
863.027	28.84
863.201	69.8
863.375	20.65
863.549	116.9
863.722	94.38
863.896	30.89
864.07	-1.88
864.244	-65.36
864.418	10.41
864.592	24.75
864.766	-42.84
864.939	-38.74
865.113	57.51
865.287	55.47
865.461	55.47
865.634	0.17
865.808	10.41
865.982	34.99
866.156	28.84
866.329	34.99
866.503	43.18
866.676	45.23
866.85	6.31
867.024	24.75
867.197	-18.26
867.371	39.08
867.544	34.99
867.718	24.75
867.891	-24.4
868.065	59.56
868.238	24.75
868.412	47.27
868.585	18.6
868.759	18.6
868.932	-1.88
869.105	57.51
869.279	-96.08
869.452	12.46
869.625	34.99
869.799	39.08
869.972	-24.4
870.145	-32.6
870.319	41.13
870.492	80.04
870.665	-12.12
870.838	37.03
871.011	-16.21
871.185	-1.88
871.358	94.38
871.531	47.27
871.704	47.27
871.877	75.95
872.05	39.08
872.223	-26.45
872.396	18.6
872.569	49.32
872.742	28.84
872.915	16.55
873.088	43.18
873.261	69.8
873.434	41.13
873.607	51.37
873.78	32.94
873.953	0.17
874.126	67.75
874.299	61.61
874.471	-71.51
874.644	-34.64
874.817	34.99
874.99	57.51
875.163	22.7
875.335	53.42
875.508	30.89
875.681	-83.8
875.853	10.41
876.026	32.94
876.199	-8.02
876.371	30.89
876.544	-10.07
876.717	10.41
876.889	16.55
877.062	47.27
877.234	-5.97
877.407	59.56
877.579	45.23
877.752	-22.36
877.924	-24.4
878.097	24.75
878.269	39.08
878.442	73.9
878.614	-30.55
878.786	41.13
878.959	37.03
879.131	8.36
879.303	14.51
879.476	55.47
879.648	16.55
879.82	63.66
879.993	-12.12
880.165	53.42
880.337	37.03
880.509	86.19
880.681	-1.88
880.854	10.41
881.026	-1.88
881.198	32.94
881.37	0.17
881.542	63.66
881.714	-36.69
881.886	53.42
882.058	14.51
882.23	63.66
882.402	-65.36
882.574	61.61
882.746	-16.21
882.918	57.51
883.09	-10.07
883.262	-14.17
883.434	18.6
883.606	22.7
883.778	49.32
883.95	-1.88
884.122	16.55
884.293	-1.88
884.465	-32.6
884.637	20.65
884.809	-69.46
884.98	2.22
885.152	-46.93
885.324	-8.02
885.496	-53.08
885.667	30.89
885.839	55.47
886.011	57.51
886.182	88.23
886.354	-26.45
886.525	-10.07
886.697	-28.5
886.869	-89.94
887.04	114.86
887.212	59.56
887.383	-28.5
887.555	61.61
887.726	-1.88
887.897	14.51
888.069	-10.07
888.24	73.9
888.412	47.27
888.583	98.47
888.754	8.36
888.926	77.99
889.097	-67.41
889.268	-28.5
889.44	39.08
889.611	-18.26
889.782	12.46
889.953	-73.56
890.125	47.27
890.296	-8.02
890.467	8.36
890.638	24.75
890.809	61.61
890.98	-77.65
891.151	65.71
891.323	0.17
891.494	-57.17
891.665	37.03
891.836	14.51
892.007	10.41
892.178	41.13
892.349	59.56
892.52	-8.02
892.691	-1.88
892.862	51.37
893.032	37.03
893.203	71.85
893.374	16.55
893.545	0.17
893.716	-8.02
893.887	67.75
894.057	-59.22
894.228	22.7
894.399	-55.12
894.57	-1.88
894.74	10.41
894.911	65.71
895.082	12.46
895.253	2.22
895.423	20.65
895.594	55.47
895.764	51.37
895.935	16.55
896.106	34.99
896.276	-36.69
896.447	12.46
896.617	-10.07
896.788	71.85
896.958	-18.26
897.129	-12.12
897.299	2.22
897.47	-67.41
897.64	45.23
897.81	14.51
897.981	22.7
898.151	-51.03
898.322	10.41
898.492	53.42
898.662	12.46
898.832	-24.4
899.003	14.51
899.173	37.03
899.343	8.36
899.513	-40.79
