Data from USB4F104151__55__13-53-30-997.txt Node

Date: Thu Mar 13 13:53:30 EDT 2025
User: louis
Spectrometer: USB4F10415
Trigger mode: 4
Integration Time (sec): 1.000000E-2
Scans to average: 1
Electric dark correction enabled: true
Nonlinearity correction enabled: false
Boxcar width: 0
XAxis mode: Wavelengths
Number of Pixels in Spectrum: 3648
>>>>>Begin Spectral Data<<<<<
178.204	23.04
178.424	23.04
178.644	23.04
178.864	-1.54
179.084	10.75
179.304	-1.54
179.524	27.14
179.744	23.04
179.964	-7.68
180.184	-11.78
180.404	-38.4
180.624	8.7
180.844	-19.97
181.064	4.61
181.283	12.8
181.503	-5.63
181.723	8.7
181.943	27.14
182.163	25.09
182.383	8.7
182.602	29.18
182.822	76.29
183.042	4.61
183.262	74.24
183.482	41.47
183.701	27.14
183.921	-22.02
184.141	35.33
184.361	20.99
184.58	78.33
184.8	72.19
185.02	49.66
185.239	29.18
185.459	76.29
185.679	55.81
185.898	41.47
186.118	49.66
186.338	37.38
186.557	16.9
186.777	107.01
186.997	-48.64
187.216	74.24
187.436	12.8
187.655	-9.73
187.875	76.29
188.095	55.81
188.314	39.42
188.534	35.33
188.753	8.7
188.973	27.14
189.192	102.91
189.412	43.52
189.631	29.18
189.851	64
190.07	-1.54
190.29	37.38
190.509	4.61
190.729	10.75
190.948	92.67
191.168	59.9
191.387	12.8
191.607	41.47
191.826	100.86
192.045	49.66
192.265	33.28
192.484	59.9
192.704	51.71
192.923	-17.92
193.142	78.33
193.362	76.29
193.581	84.48
193.8	61.95
194.02	-9.73
194.239	8.7
194.458	55.81
194.678	55.81
194.897	49.66
195.116	74.24
195.335	16.9
195.555	20.99
195.774	-1.54
195.993	61.95
196.212	0.51
196.432	39.42
196.651	51.71
196.87	-65.02
197.089	78.33
197.308	-38.4
197.528	78.33
197.747	51.71
197.966	80.38
198.185	68.09
198.404	23.04
198.623	80.38
198.842	61.95
199.062	66.05
199.281	76.29
199.5	41.47
199.719	33.28
199.938	41.47
200.157	96.77
200.376	88.57
200.595	111.1
200.814	41.47
201.033	76.29
201.252	70.14
201.471	74.24
201.69	33.28
201.909	31.23
202.128	86.53
202.347	35.33
202.566	47.62
202.785	53.76
203.004	33.28
203.223	66.05
203.442	61.95
203.661	25.09
203.879	98.81
204.098	82.43
204.317	33.28
204.536	55.81
204.755	10.75
204.974	82.43
205.193	35.33
205.411	86.53
205.63	37.38
205.849	29.18
206.068	55.81
206.287	14.85
206.505	-15.87
206.724	92.67
206.943	78.33
207.162	78.33
207.381	-3.58
207.599	78.33
207.818	6.66
208.037	18.94
208.255	18.94
208.474	92.67
208.693	0.51
208.911	53.76
209.13	23.04
209.349	14.85
209.567	-32.26
209.786	119.29
210.005	31.23
210.223	37.38
210.442	98.81
210.661	-5.63
210.879	57.86
211.098	29.18
211.316	92.67
211.535	109.05
211.753	-15.87
211.972	88.57
212.191	59.9
212.409	53.76
212.628	45.57
212.846	72.19
213.065	88.57
213.283	129.53
213.502	45.57
213.72	12.8
213.938	43.52
214.157	109.05
214.375	12.8
214.594	16.9
214.812	16.9
215.031	39.42
215.249	57.86
215.467	35.33
215.686	25.09
215.904	117.25
216.122	4.61
216.341	66.05
216.559	6.66
216.778	16.9
216.996	74.24
217.214	133.63
217.432	80.38
217.651	74.24
217.869	10.75
218.087	51.71
218.306	39.42
218.524	88.57
218.742	53.76
218.96	55.81
219.179	92.67
219.397	37.38
219.615	20.99
219.833	29.18
220.051	49.66
220.27	88.57
220.488	64
220.706	8.7
220.924	51.71
221.142	-38.4
221.36	-19.97
221.578	80.38
221.796	109.05
222.015	45.57
222.233	16.9
222.451	51.71
222.669	-15.87
222.887	29.18
223.105	61.95
223.323	53.76
223.541	49.66
223.759	66.05
223.977	64
224.195	96.77
224.413	23.04
224.631	33.28
224.849	68.09
225.067	33.28
225.285	57.86
225.503	68.09
225.721	-7.68
225.939	6.66
226.157	90.62
226.375	37.38
226.592	37.38
226.81	53.76
227.028	-13.82
227.246	92.67
227.464	57.86
227.682	2.56
227.9	70.14
228.117	18.94
228.335	80.38
228.553	25.09
228.771	37.38
228.989	51.71
229.206	10.75
229.424	-7.68
229.642	14.85
229.86	78.33
230.077	45.57
230.295	57.86
230.513	78.33
230.731	49.66
230.948	-24.06
231.166	92.67
231.384	-5.63
231.601	129.53
231.819	45.57
232.037	94.72
232.254	43.52
232.472	64
232.689	14.85
232.907	49.66
233.125	-73.21
233.342	57.86
233.56	88.57
233.777	35.33
233.995	117.25
234.213	49.66
234.43	98.81
234.648	74.24
234.865	68.09
235.083	53.76
235.3	76.29
235.518	66.05
235.735	51.71
235.953	29.18
236.17	41.47
236.388	-28.16
236.605	29.18
236.822	104.96
237.04	8.7
237.257	41.47
237.475	78.33
237.692	74.24
237.909	47.62
238.127	31.23
238.344	55.81
238.562	-19.97
238.779	-13.82
238.996	104.96
239.214	8.7
239.431	57.86
239.648	37.38
239.865	92.67
240.083	-48.64
240.3	35.33
240.517	27.14
240.735	64
240.952	-77.31
241.169	84.48
241.386	100.86
241.603	55.81
241.821	12.8
242.038	-15.87
242.255	14.85
242.472	72.19
242.689	12.8
242.907	27.14
243.124	37.38
243.341	14.85
243.558	35.33
243.775	72.19
243.992	64
244.209	111.1
244.426	141.82
244.643	55.81
244.86	51.71
245.078	64
245.295	12.8
245.512	49.66
245.729	61.95
245.946	109.05
246.163	104.96
246.38	68.09
246.597	-7.68
246.814	49.66
247.031	-17.92
247.248	2.56
247.464	47.62
247.681	57.86
247.898	8.7
248.115	43.52
248.332	-1.54
248.549	29.18
248.766	66.05
248.983	88.57
249.2	12.8
249.417	59.9
249.633	20.99
249.85	78.33
250.067	33.28
250.284	55.81
250.501	51.71
250.717	47.62
250.934	33.28
251.151	125.44
251.368	49.66
251.585	98.81
251.801	43.52
252.018	12.8
252.235	-9.73
252.451	27.14
252.668	-15.87
252.885	94.72
253.102	59.9
253.318	0.51
253.535	-15.87
253.752	113.15
253.968	-1.54
254.185	-3.58
254.401	68.09
254.618	104.96
254.835	100.86
255.051	133.63
255.268	88.57
255.484	84.48
255.701	66.05
255.917	102.91
256.134	39.42
256.351	16.9
256.567	59.9
256.784	107.01
257	51.71
257.217	98.81
257.433	72.19
257.65	121.34
257.866	31.23
258.082	43.52
258.299	14.85
258.515	41.47
258.732	-13.82
258.948	6.66
259.165	-11.78
259.381	27.14
259.597	16.9
259.814	4.61
260.03	57.86
260.246	33.28
260.463	16.9
260.679	74.24
260.895	90.62
261.112	-24.06
261.328	-13.82
261.544	104.96
261.761	43.52
261.977	55.81
262.193	23.04
262.409	-13.82
262.626	76.29
262.842	47.62
263.058	39.42
263.274	-19.97
263.49	51.71
263.707	96.77
263.923	39.42
264.139	72.19
264.355	82.43
264.571	47.62
264.787	102.91
265.004	109.05
265.22	78.33
265.436	-36.35
265.652	23.04
265.868	35.33
266.084	27.14
266.3	96.77
266.516	117.25
266.732	6.66
266.948	55.81
267.164	59.9
267.38	55.81
267.596	43.52
267.812	98.81
268.028	68.09
268.244	-3.58
268.46	27.14
268.676	35.33
268.892	41.47
269.108	31.23
269.324	8.7
269.54	70.14
269.756	25.09
269.972	-17.92
270.188	12.8
270.403	-36.35
270.619	90.62
270.835	6.66
271.051	78.33
271.267	35.33
271.483	57.86
271.698	92.67
271.914	76.29
272.13	0.51
272.346	76.29
272.562	43.52
272.777	76.29
272.993	74.24
273.209	74.24
273.425	27.14
273.64	86.53
273.856	-3.58
274.072	49.66
274.287	117.25
274.503	76.29
274.719	45.57
274.934	-9.73
275.15	80.38
275.366	90.62
275.581	78.33
275.797	49.66
276.012	16.9
276.228	80.38
276.444	82.43
276.659	55.81
276.875	59.9
277.09	41.47
277.306	37.38
277.521	-19.97
277.737	72.19
277.952	47.62
278.168	0.51
278.383	66.05
278.599	82.43
278.814	61.95
279.03	80.38
279.245	61.95
279.461	6.66
279.676	74.24
279.892	-11.78
280.107	-30.21
280.322	0.51
280.538	55.81
280.753	92.67
280.969	64
281.184	39.42
281.399	70.14
281.615	53.76
281.83	43.52
282.045	55.81
282.26	29.18
282.476	45.57
282.691	88.57
282.906	80.38
283.122	68.09
283.337	-7.68
283.552	53.76
283.767	-1.54
283.983	86.53
284.198	10.75
284.413	68.09
284.628	94.72
284.843	29.18
285.058	14.85
285.274	47.62
285.489	27.14
285.704	147.97
285.919	49.66
286.134	4.61
286.349	4.61
286.564	86.53
286.779	33.28
286.995	23.04
287.21	61.95
287.425	72.19
287.64	53.76
287.855	53.76
288.07	25.09
288.285	47.62
288.5	14.85
288.715	76.29
288.93	57.86
289.145	68.09
289.36	59.9
289.575	-11.78
289.79	61.95
290.004	57.86
290.219	119.29
290.434	31.23
290.649	66.05
290.864	98.81
291.079	-15.87
291.294	92.67
291.509	47.62
291.724	80.38
291.938	119.29
292.153	35.33
292.368	10.75
292.583	86.53
292.798	10.75
293.012	76.29
293.227	33.28
293.442	51.71
293.657	20.99
293.871	57.86
294.086	29.18
294.301	23.04
294.516	43.52
294.73	80.38
294.945	82.43
295.16	94.72
295.374	51.71
295.589	66.05
295.804	92.67
296.018	57.86
296.233	78.33
296.447	74.24
296.662	35.33
296.877	55.81
297.091	2.56
297.306	53.76
297.52	72.19
297.735	49.66
297.949	20.99
298.164	-22.02
298.378	61.95
298.593	47.62
298.807	6.66
299.022	61.95
299.236	55.81
299.451	57.86
299.665	35.33
299.88	55.81
300.094	43.52
300.309	16.9
300.523	41.47
300.737	6.66
300.952	14.85
301.166	64
301.381	6.66
301.595	45.57
301.809	18.94
302.024	27.14
302.238	59.9
302.452	64
302.667	51.71
302.881	80.38
303.095	55.81
303.309	10.75
303.524	29.18
303.738	8.7
303.952	70.14
304.166	-11.78
304.381	27.14
304.595	104.96
304.809	72.19
305.023	55.81
305.237	37.38
305.452	61.95
305.666	51.71
305.88	33.28
306.094	45.57
306.308	57.86
306.522	78.33
306.736	47.62
306.95	31.23
307.164	18.94
307.379	47.62
307.593	35.33
307.807	92.67
308.021	88.57
308.235	92.67
308.449	4.61
308.663	57.86
308.877	37.38
309.091	35.33
309.305	66.05
309.519	55.81
309.733	133.63
309.947	23.04
310.161	94.72
310.374	51.71
310.588	61.95
310.802	147.97
311.016	37.38
311.23	59.9
311.444	37.38
311.658	64
311.872	74.24
312.085	25.09
312.299	53.76
312.513	74.24
312.727	109.05
312.941	37.38
313.154	137.73
313.368	-9.73
313.582	57.86
313.796	80.38
314.009	64
314.223	53.76
314.437	80.38
314.651	35.33
314.864	80.38
315.078	47.62
315.292	61.95
315.505	82.43
315.719	104.96
315.933	64
316.146	64
316.36	51.71
316.573	57.86
316.787	31.23
317.001	-15.87
317.214	84.48
317.428	39.42
317.641	23.04
317.855	72.19
318.068	45.57
318.282	78.33
318.495	47.62
318.709	74.24
318.922	16.9
319.136	64
319.349	23.04
319.563	35.33
319.776	66.05
319.99	0.51
320.203	31.23
320.417	43.52
320.63	55.81
320.843	90.62
321.057	98.81
321.27	55.81
321.483	88.57
321.697	49.66
321.91	100.86
322.124	23.04
322.337	47.62
322.55	53.76
322.763	47.62
322.977	47.62
323.19	43.52
323.403	6.66
323.617	23.04
323.83	76.29
324.043	12.8
324.256	57.86
324.469	-11.78
324.683	98.81
324.896	23.04
325.109	115.2
325.322	-19.97
325.535	37.38
325.748	49.66
325.962	16.9
326.175	72.19
326.388	115.2
326.601	-22.02
326.814	20.99
327.027	82.43
327.24	92.67
327.453	53.76
327.666	31.23
327.879	111.1
328.092	14.85
328.305	23.04
328.518	104.96
328.731	0.51
328.944	57.86
329.157	53.76
329.37	80.38
329.583	43.52
329.796	96.77
330.009	-7.68
330.222	33.28
330.435	25.09
330.648	88.57
330.861	39.42
331.073	100.86
331.286	82.43
331.499	2.56
331.712	45.57
331.925	41.47
332.138	49.66
332.35	68.09
332.563	43.52
332.776	43.52
332.989	37.38
333.202	84.48
333.414	53.76
333.627	39.42
333.84	45.57
334.053	33.28
334.265	18.94
334.478	23.04
334.691	-1.54
334.903	55.81
335.116	14.85
335.329	84.48
335.541	37.38
335.754	51.71
335.966	45.57
336.179	74.24
336.392	39.42
336.604	88.57
336.817	35.33
337.029	43.52
337.242	68.09
337.454	82.43
337.667	25.09
337.88	8.7
338.092	51.71
338.305	4.61
338.517	27.14
338.729	82.43
338.942	18.94
339.154	23.04
339.367	64
339.579	123.39
339.792	66.05
340.004	16.9
340.217	82.43
340.429	39.42
340.641	12.8
340.854	0.51
341.066	41.47
341.278	39.42
341.491	88.57
341.703	55.81
341.915	55.81
342.128	20.99
342.34	127.49
342.552	61.95
342.764	33.28
342.977	47.62
343.189	-13.82
343.401	47.62
343.613	64
343.826	53.76
344.038	53.76
344.25	31.23
344.462	49.66
344.674	43.52
344.886	64
345.099	37.38
345.311	47.62
345.523	49.66
345.735	31.23
345.947	45.57
346.159	117.25
346.371	10.75
346.583	51.71
346.795	72.19
347.007	33.28
347.219	117.25
347.431	37.38
347.643	57.86
347.855	35.33
348.067	12.8
348.279	80.38
348.491	61.95
348.703	88.57
348.915	37.38
349.127	96.77
349.339	121.34
349.551	55.81
349.763	35.33
349.975	47.62
350.187	59.9
350.399	96.77
350.61	45.57
350.822	47.62
351.034	80.38
351.246	39.42
351.458	51.71
351.669	47.62
351.881	-42.5
352.093	88.57
352.305	49.66
352.517	-1.54
352.728	80.38
352.94	61.95
353.152	8.7
353.363	-40.45
353.575	35.33
353.787	23.04
353.999	-36.35
354.21	57.86
354.422	78.33
354.633	70.14
354.845	45.57
355.057	-42.5
355.268	53.76
355.48	88.57
355.692	70.14
355.903	43.52
356.115	47.62
356.326	23.04
356.538	117.25
356.749	33.28
356.961	39.42
357.172	31.23
357.384	-11.78
357.595	47.62
357.807	8.7
358.018	94.72
358.23	-13.82
358.441	43.52
358.653	20.99
358.864	66.05
359.075	43.52
359.287	-3.58
359.498	123.39
359.709	78.33
359.921	25.09
360.132	96.77
360.344	100.86
360.555	43.52
360.766	51.71
360.977	102.91
361.189	49.66
361.4	0.51
361.611	39.42
361.823	156.16
362.034	25.09
362.245	84.48
362.456	104.96
362.667	61.95
362.879	117.25
363.09	6.66
363.301	107.01
363.512	55.81
363.723	90.62
363.935	125.44
364.146	64
364.357	41.47
364.568	51.71
364.779	43.52
364.99	10.75
365.201	18.94
365.412	53.76
365.623	4.61
365.834	57.86
366.045	37.38
366.256	64
366.467	88.57
366.678	6.66
366.889	86.53
367.1	47.62
367.311	55.81
367.522	53.76
367.733	119.29
367.944	55.81
368.155	86.53
368.366	57.86
368.577	115.2
368.788	10.75
368.999	86.53
369.209	68.09
369.42	98.81
369.631	113.15
369.842	55.81
370.053	14.85
370.264	18.94
370.474	158.21
370.685	61.95
370.896	139.77
371.107	131.58
371.317	98.81
371.528	53.76
371.739	49.66
371.95	25.09
372.16	80.38
372.371	41.47
372.582	10.75
372.792	43.52
373.003	47.62
373.214	64
373.424	82.43
373.635	14.85
373.846	104.96
374.056	41.47
374.267	43.52
374.477	117.25
374.688	0.51
374.898	41.47
375.109	88.57
375.319	-1.54
375.53	55.81
375.74	45.57
375.951	80.38
376.161	37.38
376.372	100.86
376.582	70.14
376.793	111.1
377.003	59.9
377.214	111.1
377.424	70.14
377.635	64
377.845	29.18
378.055	47.62
378.266	72.19
378.476	68.09
378.686	74.24
378.897	33.28
379.107	78.33
379.317	80.38
379.528	45.57
379.738	82.43
379.948	37.38
380.158	47.62
380.369	107.01
380.579	51.71
380.789	6.66
380.999	64
381.21	33.28
381.42	127.49
381.63	51.71
381.84	109.05
382.05	53.76
382.261	113.15
382.471	-9.73
382.681	115.2
382.891	76.29
383.101	86.53
383.311	72.19
383.521	25.09
383.731	72.19
383.941	94.72
384.151	100.86
384.361	8.7
384.571	96.77
384.781	86.53
384.991	31.23
385.201	35.33
385.411	49.66
385.621	61.95
385.831	55.81
386.041	127.49
386.251	150.01
386.461	78.33
386.671	84.48
386.881	25.09
387.091	47.62
387.301	111.1
387.511	23.04
387.72	115.2
387.93	84.48
388.14	51.71
388.35	45.57
388.56	49.66
388.769	45.57
388.979	8.7
389.189	12.8
389.399	96.77
389.609	139.77
389.818	51.71
390.028	98.81
390.238	72.19
390.447	51.71
390.657	141.82
390.867	0.51
391.076	84.48
391.286	201.21
391.496	51.71
391.705	88.57
391.915	113.15
392.125	57.86
392.334	61.95
392.544	68.09
392.753	86.53
392.963	55.81
393.172	39.42
393.382	37.38
393.591	27.14
393.801	96.77
394.01	57.86
394.22	104.96
394.429	88.57
394.639	27.14
394.848	66.05
395.058	127.49
395.267	137.73
395.477	117.25
395.686	59.9
395.895	107.01
396.105	147.97
396.314	45.57
396.524	51.71
396.733	94.72
396.942	64
397.152	49.66
397.361	90.62
397.57	16.9
397.78	90.62
397.989	107.01
398.198	160.25
398.407	76.29
398.617	137.73
398.826	109.05
399.035	104.96
399.244	57.86
399.453	84.48
399.663	111.1
399.872	41.47
400.081	135.68
400.29	137.73
400.499	121.34
400.708	156.16
400.917	131.58
401.127	55.81
401.336	92.67
401.545	135.68
401.754	74.24
401.963	117.25
402.172	86.53
402.381	147.97
402.59	104.96
402.799	109.05
403.008	82.43
403.217	123.39
403.426	125.44
403.635	123.39
403.844	176.64
404.053	84.48
404.262	143.87
404.471	164.35
404.68	135.68
404.888	244.22
405.097	123.39
405.306	102.91
405.515	158.21
405.724	123.39
405.933	156.16
406.142	127.49
406.35	178.69
406.559	150.01
406.768	201.21
406.977	203.26
407.185	168.45
407.394	205.31
407.603	143.87
407.812	190.97
408.02	170.49
408.229	180.73
408.438	172.54
408.646	236.03
408.855	223.74
409.064	229.88
409.272	164.35
409.481	231.93
409.69	197.12
409.898	205.31
410.107	211.45
410.315	233.98
410.524	215.55
410.733	276.99
410.941	297.47
411.15	248.32
411.358	322.04
411.567	262.65
411.775	313.85
411.984	293.37
412.192	285.18
412.401	295.42
412.609	328.19
412.818	338.43
413.026	330.23
413.234	389.63
413.443	389.63
413.651	301.56
413.86	420.35
414.068	426.49
414.276	449.02
414.485	373.24
414.693	414.2
414.901	393.72
415.11	422.39
415.318	436.73
415.526	496.12
415.734	549.37
415.943	506.36
416.151	582.14
416.359	563.7
416.567	608.76
416.776	553.46
416.984	635.38
417.192	664.05
417.4	723.44
417.608	616.95
417.817	619
418.025	782.84
418.233	727.54
418.441	719.35
418.649	748.02
418.857	793.08
419.065	831.99
419.273	893.43
419.481	778.74
419.689	901.62
419.897	975.35
420.105	965.11
420.313	940.53
420.521	1055.22
420.729	1106.42
420.937	1120.75
421.145	1202.67
421.353	1266.16
421.561	1282.54
421.769	1255.92
421.977	1305.07
422.185	1319.4
422.393	1376.75
422.601	1448.43
422.809	1516.01
423.017	1399.27
423.224	1538.54
423.432	1548.78
423.64	1505.77
423.848	1796.58
424.056	1757.67
424.263	1890.79
424.471	1948.13
424.679	1923.55
424.887	2007.52
425.094	2087.39
425.302	1995.23
425.51	2034.14
425.718	2257.37
425.925	2179.55
426.133	2232.8
426.341	2445.79
426.548	2574.81
426.756	2574.81
426.964	2593.24
427.171	2738.65
427.379	2724.31
427.586	2779.61
427.794	2931.16
428.001	3119.57
428.209	3207.63
428.417	3162.58
428.624	3269.07
428.832	3383.76
429.039	3260.88
429.247	3412.43
429.454	3606.98
429.662	3819.97
429.869	3652.04
430.076	3899.84
430.284	3733.96
430.491	4067.78
430.699	4233.66
430.906	4192.7
431.114	4231.62
431.321	4522.43
431.528	4600.25
431.736	4770.23
431.943	4803
432.15	4817.33
432.358	4788.66
432.565	5130.67
432.772	5112.24
432.979	5288.37
433.187	5423.53
433.394	5505.45
433.601	5706.15
433.808	5851.56
434.016	5749.16
434.223	5974.44
434.43	6416.8
434.637	6248.86
434.844	6590.88
435.052	6758.81
435.259	6715.8
435.466	6863.26
435.673	6754.71
435.88	7256.47
436.087	7731.59
436.294	7651.72
436.501	7342.48
436.708	7633.29
436.915	7790.99
437.122	8245.63
437.329	8434.05
437.537	8618.36
437.743	8737.15
437.95	8448.38
438.157	8958.33
438.364	9216.37
438.571	9306.48
438.778	9261.43
438.985	10146.15
439.192	9953.64
439.399	9976.17
439.606	9695.6
439.813	10447.2
440.02	11022.68
440.227	10918.23
440.433	10672.48
440.64	11315.54
440.847	11084.12
441.054	11209.04
441.261	12026.18
441.467	11952.46
441.674	12011.85
441.881	12493.12
442.088	12398.91
442.294	12550.46
442.501	12785.98
442.708	12845.37
442.914	13386.04
443.121	13881.64
443.328	13957.42
443.534	14620.96
443.741	14272.81
443.948	14008.62
444.154	15079.71
444.361	14944.54
444.568	15026.46
444.774	14917.92
444.981	15268.12
445.187	15593.75
445.394	16455.94
445.6	16357.64
445.807	17727.73
446.013	16756.99
446.22	17234.17
446.426	17971.44
446.633	17772.78
446.839	18581.73
447.046	17572.08
447.252	18772.19
447.459	18845.92
447.665	18684.13
447.871	19710.16
448.078	20334.79
448.284	19581.14
448.491	20109.52
448.697	20758.72
448.903	21010.62
449.11	21643.45
449.316	20779.2
449.522	21188.8
449.728	21512.38
449.935	22007.98
450.141	21821.62
450.347	22511.78
450.553	21805.24
450.76	22145.2
450.966	22565.03
451.172	22429.87
451.378	22954.15
451.584	22440.11
451.791	22773.92
451.997	22692.01
452.203	23330.97
452.409	23187.61
452.615	22876.32
452.821	22208.69
453.027	21956.78
453.233	23224.48
453.44	21893.3
453.646	22489.26
453.852	22487.21
454.058	22698.15
454.264	22102.19
454.47	22413.48
454.676	21735.6
454.882	22730.92
455.088	20660.42
455.294	20658.37
455.5	21047.49
455.705	21366.97
455.911	20187.34
456.117	20082.89
456.323	20091.09
456.529	18575.59
456.735	19538.13
456.941	18897.12
457.147	18499.81
457.352	18106.6
457.558	17985.77
457.764	18374.89
457.97	17555.7
458.176	17484.02
458.381	17070.33
458.587	16216.33
458.793	16341.25
458.999	15282.45
459.204	16529.67
459.41	16320.77
459.616	15128.86
459.821	15079.71
460.027	14958.88
460.233	14577.95
460.438	13809.97
460.644	14252.33
460.85	13343.03
461.055	13263.16
461.261	13412.66
461.466	12388.67
461.672	11784.52
461.878	12659.01
462.083	11886.92
462.289	11714.89
462.494	11743.56
462.7	11133.27
462.905	10838.36
463.111	11051.35
463.316	11217.24
463.522	11112.79
463.727	11043.16
463.932	11030.87
464.138	10826.07
464.343	11247.96
464.549	10785.12
464.754	10985.82
464.959	10830.17
465.165	10715.48
465.37	10582.37
465.575	10142.05
465.781	10582.37
465.986	10768.73
466.191	10131.81
466.397	9970.02
466.602	9574.77
466.807	9789.8
467.012	9976.17
467.218	9972.07
467.423	9828.71
467.628	9873.77
467.833	10226.02
468.038	9806.19
468.244	9625.97
468.449	9808.23
468.654	9519.47
468.859	9564.53
469.064	9574.77
469.269	8972.66
469.474	9275.76
469.679	9294.19
469.885	8905.08
470.09	9302.39
470.295	9216.37
470.5	8874.36
470.705	9099.64
470.91	8759.67
471.115	8753.53
471.32	8880.5
471.525	8814.97
471.73	8481.15
471.935	8495.49
472.139	8153.48
472.344	8296.83
472.549	8104.32
472.754	8216.96
472.959	8010.12
473.164	7725.45
473.369	7584.14
473.574	8116.61
473.778	7958.92
473.983	7674.25
474.188	7709.07
474.393	7514.51
474.598	7512.46
474.802	7487.89
475.007	7266.71
475.212	7389.58
475.417	7078.29
475.621	7201.17
475.826	7074.2
476.031	6992.28
476.235	6982.04
476.44	7115.16
476.645	6916.5
476.849	6941.08
477.054	6689.18
477.259	6797.72
477.463	6576.54
477.668	6465.95
477.872	6642.07
478.077	6429.09
478.282	6302.11
478.486	6283.68
478.691	6218.15
478.895	6269.34
479.1	6273.44
479.304	6412.7
479.509	6005.16
479.713	6113.7
479.918	5992.87
480.122	5964.2
480.326	6048.16
480.531	6152.61
480.735	5917.09
480.94	6029.73
481.144	6091.17
481.348	5804.46
481.553	5884.33
481.757	5826.98
481.961	5869.99
482.166	5835.17
482.37	5816.74
482.574	5757.35
482.778	5857.7
482.983	5941.67
483.187	5822.89
483.391	5837.22
483.595	5570.99
483.8	5702.06
484.004	5695.91
484.208	5794.22
484.412	5761.45
484.616	5734.82
484.821	5736.87
485.025	5669.29
485.229	5740.97
485.433	5763.5
485.637	5743.02
485.841	5700.01
486.045	5718.44
486.249	5665.19
486.453	5869.99
486.657	5792.17
486.861	5853.61
487.065	5677.48
487.269	5681.58
487.473	5665.19
487.677	5753.26
487.881	5931.43
488.085	5697.96
488.289	5810.6
488.493	5839.27
488.697	5841.32
488.901	5720.49
489.105	5767.59
489.309	5804.46
489.512	5949.86
489.716	5966.24
489.92	5904.81
490.124	5886.37
490.328	6039.97
490.531	5773.74
490.735	6025.64
490.939	5906.85
491.143	6039.97
491.346	5839.27
491.55	5988.77
491.754	5888.42
491.958	5931.43
492.161	6046.12
492.365	6136.23
492.569	6152.61
492.772	6168.99
492.976	6144.42
493.18	6328.74
493.383	6220.19
493.587	6257.06
493.79	6443.42
493.994	6359.45
494.197	6304.16
494.401	6386.08
494.605	6486.43
494.808	6652.31
495.012	6447.52
495.215	6740.38
495.419	6726.04
495.622	6767
495.825	6721.95
496.029	6807.96
496.232	7010.71
496.436	6842.78
496.639	7256.47
496.843	6881.69
497.046	7186.83
497.249	7297.42
497.453	7377.3
497.656	7442.83
497.859	7389.58
498.063	7473.55
498.266	7649.68
498.469	7532.94
498.673	7799.18
498.876	7805.32
499.079	7971.21
499.282	7694.73
499.485	8046.98
499.689	8012.17
499.892	8247.68
500.095	8233.35
500.298	8505.73
500.501	8427.9
500.705	8755.58
500.908	8845.69
501.111	8851.83
501.314	9011.57
501.517	9081.21
501.72	9107.83
501.923	9130.36
502.126	9148.79
502.329	9554.29
502.532	9347.44
502.735	9437.55
502.938	9681.26
503.141	9800.04
503.344	9810.28
503.547	10006.89
503.75	10140.01
503.953	10301.79
504.156	10496.35
504.359	10443.1
504.562	10531.17
504.765	10619.23
504.968	10858.84
505.17	11057.5
505.373	11157.85
505.576	11116.89
505.779	11286.87
505.982	11299.16
506.185	11614.54
506.387	11651.41
506.59	11653.45
506.793	12081.48
506.996	12007.75
507.198	12302.66
507.401	12415.3
507.604	12468.55
507.807	12446.02
508.009	12767.55
508.212	12859.71
508.415	13152.57
508.617	13367.6
508.82	13324.6
509.022	13394.23
509.225	13738.29
509.428	13709.61
509.63	14059.82
509.833	13832.49
510.035	14194.98
510.238	14209.32
510.44	14426.4
510.643	14704.93
510.845	14944.54
511.048	14805.28
511.25	15184.15
511.453	15298.84
511.655	15823.12
511.858	15497.49
512.06	15802.64
512.262	15978.76
512.465	15956.24
512.667	16201.99
512.87	16427.27
513.072	16558.34
513.274	16695.55
513.477	16791.81
513.679	16974.08
513.881	17316.09
514.084	17621.24
514.286	17453.3
514.488	17844.46
514.69	18116.84
514.893	18221.29
515.095	18227.43
515.297	18729.19
515.499	18426.09
515.701	18983.13
515.904	18858.21
516.106	19370.2
516.308	19716.31
516.51	19667.16
516.712	19697.88
516.914	19751.12
517.116	20189.39
517.318	20340.94
517.52	20459.72
517.722	20502.73
517.925	20814.02
518.127	20926.66
518.329	21172.41
518.531	21401.79
518.733	21840.05
518.935	22165.68
519.136	21858.48
519.338	22390.95
519.54	22220.97
519.742	22282.41
519.944	22589.61
520.146	22976.67
520.348	23007.39
520.55	23490.71
520.752	23730.33
520.954	23517.34
521.155	23742.61
521.357	24166.54
521.559	24531.08
521.761	24619.14
521.963	24402.06
522.164	24690.82
522.366	24977.54
522.568	25290.88
522.77	25233.53
522.971	25983.09
523.173	25372.8
523.375	25755.77
523.576	25639.03
523.778	25610.36
523.98	26185.84
524.181	26407.02
524.383	26566.76
524.584	26812.52
524.786	26953.83
524.988	26742.89
525.189	26847.33
525.391	27222.11
525.592	27439.2
525.794	27549.79
525.995	27607.13
526.197	27752.54
526.398	27652.19
526.6	27865.17
526.801	28328.02
527.003	28323.92
527.204	28309.58
527.406	28543.05
527.607	28454.99
527.808	28663.88
528.01	28354.64
528.211	28643.4
528.412	29063.24
528.614	29030.47
528.815	28592.2
529.016	29417.54
529.218	29034.56
529.419	29202.5
529.62	29300.8
529.822	29216.83
530.023	29564.99
530.224	29265.99
530.425	29640.76
530.626	29388.86
530.828	29259.84
531.029	29661.24
531.23	29388.86
531.431	29497.41
531.632	29915.19
531.833	29829.18
532.035	29835.32
532.236	29882.42
532.437	30009.4
532.638	29810.75
532.839	30259.25
533.04	30062.65
533.241	29837.37
533.442	30429.23
533.643	29849.66
533.844	29972.53
534.045	30341.17
534.246	29958.2
534.447	30400.56
534.648	30005.3
534.849	30275.63
535.05	30105.65
535.251	30218.29
535.451	29800.51
535.652	30152.76
535.853	29876.28
536.054	30320.69
536.255	30244.91
536.456	30044.21
536.657	30431.28
536.857	30236.72
537.058	30122.04
537.259	30545.97
537.46	30308.4
537.66	30079.03
537.861	30222.39
538.062	30302.26
538.263	30206
538.463	29872.18
538.664	29882.42
538.865	30255.15
539.065	30539.82
539.266	30199.86
539.466	30457.9
539.667	30230.58
539.868	30599.21
540.068	30220.34
540.269	30236.72
540.469	30363.7
540.67	30140.47
540.87	30003.25
541.071	29788.22
541.271	30181.43
541.472	30220.34
541.672	30126.13
541.873	30206
542.073	29853.75
542.274	30625.84
542.474	30292.02
542.675	30113.84
542.875	30488.62
543.075	29698.11
543.276	30119.99
543.476	30214.19
543.676	30277.68
543.877	30171.19
544.077	30218.29
544.277	29976.63
544.478	30246.96
544.678	30183.48
544.878	30074.93
545.078	29935.67
545.279	30072.89
545.479	30081.08
545.679	30257.2
545.879	30365.74
546.079	30322.74
546.28	30144.56
546.48	29958.2
546.68	29978.68
546.88	30126.13
547.08	30023.73
547.28	30019.64
547.48	29851.7
547.68	30009.4
547.88	29892.66
548.081	29788.22
548.281	30056.5
548.481	29816.89
548.681	29966.39
548.881	30218.29
549.081	29775.93
549.28	29890.62
549.48	30058.55
549.68	29968.44
549.88	30427.18
550.08	29763.64
550.28	30167.09
550.48	29722.68
550.68	30275.63
550.88	29581.37
551.08	30304.31
551.279	30091.32
551.479	29757.5
551.679	29980.73
551.879	29814.84
552.079	30115.89
552.278	29935.67
552.478	29796.41
552.678	29620.28
552.878	29947.96
553.077	29890.62
553.277	29829.18
553.477	30253.11
553.676	29763.64
553.876	29704.25
554.076	29677.63
554.275	29710.39
554.475	29589.56
554.674	29853.75
554.874	29988.92
555.074	29433.92
555.273	29601.85
555.473	29538.37
555.672	29128.77
555.872	29775.93
556.071	29573.18
556.271	29753.4
556.47	29483.07
556.67	29141.06
556.869	29319.23
557.068	29462.59
557.268	29036.61
557.467	29270.08
557.667	29331.52
557.866	28823.62
558.065	29268.03
558.265	28753.99
558.464	29106.24
558.663	29378.62
558.863	28854.34
559.062	29352
559.261	28710.99
559.461	29364.29
559.66	28571.72
559.859	29016.13
560.058	28307.54
560.258	28915.78
560.457	28225.62
560.656	28837.96
560.855	28821.58
561.054	28762.19
561.253	28287.06
561.453	28557.39
561.652	28510.28
561.851	28528.72
562.05	28465.23
562.249	27838.55
562.448	28471.37
562.647	28493.9
562.846	28123.22
563.045	28131.41
563.244	28178.51
563.443	28362.83
563.642	27983.96
563.841	27932.76
564.04	27920.47
564.239	28102.74
564.438	27525.21
564.637	27844.7
564.836	27983.96
565.035	27662.43
565.234	27680.86
565.432	27529.31
565.631	27852.89
565.83	27643.99
566.029	27344.99
566.228	27568.22
566.427	27523.16
566.625	27211.87
566.824	27154.53
567.023	27064.42
567.222	27027.56
567.42	27410.53
567.619	27123.81
567.818	26933.35
568.016	27127.91
568.215	27037.8
568.414	26593.39
568.612	27039.84
568.811	26789.99
569.01	26873.96
569.208	25987.19
569.407	26996.84
569.605	26470.51
569.804	26765.42
570.002	26261.62
570.201	26179.7
570.4	26161.26
570.598	26243.18
570.797	25933.94
570.995	26116.21
571.193	25831.54
571.392	26128.5
571.59	25751.67
571.789	25688.18
571.987	25708.66
572.186	25727.1
572.384	25340.03
572.582	25645.18
572.781	25653.37
572.979	25397.37
573.177	25284.73
573.376	25639.03
573.574	25262.21
573.772	25186.43
573.971	24762.5
574.169	24928.39
574.367	24549.51
574.565	24928.39
574.763	24807.56
574.962	24748.17
575.16	24383.63
575.358	24475.79
575.556	24227.98
575.754	24752.26
575.952	24412.3
576.151	24332.43
576.349	24082.58
576.547	24203.41
576.745	23904.4
576.943	24133.78
577.141	24230.03
577.339	23984.27
577.537	23918.74
577.735	23816.34
577.933	23625.88
578.131	23892.12
578.329	23611.54
578.527	23824.53
578.725	23701.65
578.923	23509.15
579.121	23226.53
579.319	23378.08
579.516	23488.67
579.714	23247.01
579.912	23101.6
580.11	22962.34
580.308	22935.71
580.506	22839.46
580.704	22532.26
580.901	23146.65
581.099	22878.37
581.297	22556.84
581.495	22642.85
581.692	22923.43
581.89	22626.47
582.088	22775.97
582.285	22565.03
582.483	22483.11
582.681	22427.82
582.878	22210.73
583.076	22106.29
583.274	22139.05
583.471	21829.81
583.669	22024.37
583.866	21741.75
584.064	21481.66
584.262	21768.37
584.459	21987.5
584.657	21655.73
584.854	21901.49
585.052	21379.26
585.249	21340.35
585.447	21190.84
585.644	21002.43
585.841	21604.53
586.039	21563.57
586.236	21084.35
586.434	21039.29
586.631	20975.81
586.828	20967.62
587.026	20965.57
587.223	20883.65
587.42	20871.36
587.618	20635.85
587.815	20601.03
588.012	20666.56
588.21	20773.06
588.407	21108.93
588.604	20611.27
588.801	20506.82
588.999	20564.17
589.196	20261.07
589.393	20658.37
589.59	20150.48
589.787	19962.06
589.984	20095.18
590.182	20064.46
590.379	20029.65
590.576	20009.17
590.773	20000.97
590.97	19691.73
591.167	19865.81
591.364	19642.58
591.561	19812.56
591.758	19669.2
591.955	19247.32
592.152	19587.29
592.349	19208.41
592.546	19296.47
592.743	19523.8
592.94	19091.68
593.137	19288.28
593.334	18993.37
593.531	18725.09
593.727	19095.77
593.924	18847.97
594.121	18952.41
594.318	18755.81
594.515	18532.58
594.712	18622.69
594.908	18655.46
595.105	18735.33
595.302	18503.91
595.499	18796.77
595.696	18465
595.892	18409.7
596.089	18497.77
596.286	18424.04
596.482	18198.76
596.679	18260.2
596.876	18225.39
597.072	18348.26
597.269	17969.39
597.466	17869.04
597.662	17920.24
597.859	17987.82
598.055	18225.39
598.252	17973.49
598.448	17879.28
598.645	17926.38
598.841	17649.91
599.038	17486.07
599.234	17592.56
599.431	17492.21
599.627	17406.2
599.824	17428.73
600.02	17375.48
600.217	17524.98
600.413	17195.26
600.609	17082.62
600.806	16986.36
601.002	17006.84
601.198	16961.79
601.395	16646.4
601.591	16890.11
601.787	16959.74
601.984	16810.24
602.18	17043.71
602.376	16619.78
602.572	16636.16
602.769	16791.81
602.965	16285.96
603.161	16574.72
603.357	16707.84
603.553	16371.97
603.75	16421.13
603.946	16302.34
604.142	16314.63
604.338	16175.37
604.534	16134.41
604.73	15859.98
604.926	15943.95
605.122	15843.6
605.318	16046.35
605.514	15788.3
605.71	15939.85
605.906	15657.23
606.102	15653.14
606.298	15716.62
606.494	15565.07
606.69	15405.33
606.886	15825.17
607.082	15599.89
607.278	15597.84
607.474	15331.61
607.67	15716.62
607.866	15292.69
608.062	15255.83
608.257	15096.09
608.453	15296.79
608.649	15341.85
608.845	14973.21
609.041	15145.24
609.236	15087.9
609.432	15042.84
609.628	14991.64
609.824	15161.62
610.019	14915.87
610.215	14614.82
610.411	14879
610.606	14752.03
610.802	15018.27
610.998	14846.24
611.193	14647.58
611.389	14481.7
611.584	14545.19
611.78	14627.1
611.976	14434.6
612.171	14520.61
612.367	14559.52
612.562	14442.79
612.758	14268.71
612.953	14235.94
613.149	14502.18
613.344	14170.41
613.539	14526.75
613.735	14244.13
613.93	14223.65
614.126	14012.71
614.321	14430.5
614.517	14395.68
614.712	14178.6
614.907	13986.09
615.103	14231.85
615.298	14225.7
615.493	14186.79
615.688	13812.01
615.884	14377.25
616.079	13609.26
616.274	14088.49
616.47	13900.08
616.665	13789.49
616.86	13707.57
617.055	13687.09
617.25	13758.77
617.445	13697.33
617.641	13592.88
617.836	13580.59
618.031	13566.26
618.226	13547.83
618.421	13336.88
618.616	13572.4
618.811	13205.81
619.006	13521.2
619.201	13322.55
619.396	13304.12
619.591	13027.64
619.786	12908.86
619.981	13160.76
620.176	13285.69
620.371	12910.91
620.566	12949.82
620.761	12982.59
620.956	12958.01
621.151	12622.14
621.346	12915
621.541	12581.18
621.735	12693.82
621.93	12423.49
622.125	12257.6
622.32	12130.63
622.515	12536.13
622.709	12087.62
622.904	12181.83
623.099	12069.19
623.294	11968.84
623.488	12009.8
623.683	12011.85
623.878	11825.48
624.072	11917.64
624.267	11878.73
624.462	11794.76
624.656	11745.61
624.851	11563.34
625.046	11559.25
625.24	11385.17
625.435	11305.3
625.629	11123.03
625.824	11376.98
626.018	11376.98
626.213	10922.33
626.407	11088.21
626.602	10918.23
626.796	10905.95
626.991	10721.63
627.185	10854.75
627.38	10695
627.574	10873.18
627.768	10690.91
627.963	10549.6
628.157	10328.42
628.352	10262.88
628.546	10201.44
628.74	10547.55
628.935	10385.76
629.129	10309.99
629.323	10111.33
629.517	10080.61
629.712	10090.85
629.906	10041.7
630.1	9748.84
630.294	9918.82
630.489	9714.03
630.683	9820.52
630.877	9734.51
631.071	9605.49
631.265	9705.84
631.459	9433.46
631.653	9603.44
631.848	9351.54
632.042	9539.95
632.236	9224.56
632.43	9384.3
632.624	9451.89
632.818	9245.04
633.012	9224.56
633.206	9058.68
633.4	9066.87
633.594	9132.4
633.788	9159.03
633.982	8972.66
634.176	8954.23
634.369	8913.27
634.563	8878.46
634.757	8710.52
634.951	8868.22
635.145	8534.4
635.339	8792.44
635.533	8571.26
635.726	8649.08
635.92	8499.58
636.114	8503.68
636.308	8380.8
636.501	8477.05
636.695	8200.58
636.889	8323.46
637.083	8188.29
637.276	8311.17
637.47	8159.62
637.664	7987.59
637.857	8190.34
638.051	8157.57
638.244	8055.17
638.438	8006.02
638.632	7956.87
638.825	7813.51
639.019	7805.32
639.212	7684.49
639.406	7629.2
639.599	7690.63
639.793	7704.97
639.986	7924.1
640.18	7383.44
640.373	7494.03
640.567	7426.45
640.76	7436.69
640.954	7416.21
641.147	7178.64
641.34	7467.41
641.534	7252.37
641.727	7231.89
641.92	7192.98
642.114	7006.61
642.307	7078.29
642.5	7330.19
642.694	7072.15
642.887	7100.82
643.08	6865.3
643.273	6934.93
643.467	6756.76
643.66	6726.04
643.853	6644.12
644.046	6767
644.239	6742.43
644.432	6578.59
644.626	6549.92
644.819	6658.46
645.012	6494.62
645.205	6594.97
645.398	6529.44
645.591	6338.98
645.784	6420.89
645.977	6285.73
646.17	6394.27
646.363	6097.31
646.556	6205.86
646.749	6154.66
646.942	6228.38
647.135	6341.02
647.328	6107.55
647.521	6121.89
647.714	5906.85
647.907	6042.02
648.099	6105.51
648.292	5843.37
648.485	5982.63
648.678	5986.72
648.871	5896.61
649.064	5779.88
649.256	5763.5
649.449	5841.32
649.642	5671.34
649.835	5818.79
650.027	5679.53
650.22	5497.26
650.413	5646.76
650.605	5439.92
650.798	5493.16
650.991	5474.73
651.183	5566.89
651.376	5458.35
651.568	5312.94
651.761	5360.05
651.954	5296.56
652.146	5200.3
652.339	5370.29
652.531	5308.85
652.724	5083.57
652.916	5132.72
653.109	5224.88
653.301	5169.59
653.494	5194.16
653.686	5089.71
653.879	5155.25
654.071	4977.08
654.263	4932.02
654.456	4919.73
654.648	5003.7
654.84	4835.77
655.033	4831.67
655.225	4737.46
655.417	4757.94
655.61	4913.59
655.802	4803
655.994	4895.16
656.186	4837.81
656.379	4598.2
656.571	4745.66
656.763	4569.53
656.955	4620.73
657.148	4848.05
657.34	4608.44
657.532	4596.15
657.724	4604.35
657.916	4561.34
658.108	4293.05
658.3	4413.88
658.492	4424.12
658.684	4266.43
658.876	4344.25
659.068	4456.89
659.26	4374.97
659.452	4397.5
659.644	4204.99
659.836	4174.27
660.028	4258.24
660.22	4014.53
660.412	4047.3
660.604	4155.84
660.796	4166.08
660.988	4069.83
661.18	4147.65
661.372	3989.96
661.563	4014.53
661.755	3916.23
661.947	3891.65
662.139	4071.87
662.331	3922.37
662.522	3799.49
662.714	3779.01
662.906	3881.41
663.097	3949
663.289	3922.37
663.481	3805.64
663.673	3865.03
663.864	3731.91
664.056	3805.64
664.247	3684.81
664.439	3572.17
664.631	3770.82
664.822	3774.92
665.014	3596.75
665.205	3649.99
665.397	3611.08
665.588	3641.8
665.78	3609.03
665.971	3488.2
666.163	3465.68
666.354	3457.48
666.546	3414.48
666.737	3451.34
666.929	3369.42
667.12	3275.21
667.311	3418.57
667.503	3434.96
667.694	3467.72
667.885	3271.12
668.077	3383.76
668.268	3346.89
668.459	3260.88
668.651	3232.21
668.842	3342.8
669.033	3232.21
669.224	3168.72
669.416	3269.07
669.607	3240.4
669.798	3148.24
669.989	3172.82
670.18	3178.96
670.371	3207.63
670.563	3176.91
670.754	3002.83
670.945	3078.61
671.136	2961.87
671.327	3101.14
671.518	3109.33
671.709	3033.55
671.9	3103.18
672.091	3064.27
672.282	3023.31
672.473	3033.55
672.664	3103.18
672.855	2961.87
673.046	2916.82
673.237	3008.98
673.428	2879.96
673.619	2974.16
673.809	2716.12
674	2816.47
674.191	2839
674.382	2836.95
674.573	2888.15
674.764	2875.86
674.954	2867.67
675.145	2845.14
675.336	2834.9
675.527	2765.27
675.717	2839
675.908	2814.42
676.099	2724.31
676.289	2736.6
676.48	2777.56
676.671	2730.45
676.861	2746.84
677.052	2765.27
677.243	2716.12
677.433	2748.89
677.624	2669.02
677.814	2736.6
678.005	2675.16
678.195	2757.08
678.386	2726.36
678.576	2525.66
678.767	2548.19
678.957	2644.44
679.148	2654.68
679.338	2642.39
679.529	2644.44
679.719	2611.67
679.909	2652.63
680.1	2515.42
680.29	2574.81
680.481	2673.11
680.671	2621.91
680.861	2554.33
681.052	2550.23
681.242	2578.9
681.432	2580.95
681.622	2548.19
681.813	2554.33
682.003	2406.88
682.193	2583
682.383	2515.42
682.573	2519.51
682.764	2544.09
682.954	2456.03
683.144	2537.95
683.334	2507.23
683.524	2505.18
683.714	2492.89
683.904	2472.41
684.094	2384.35
684.284	2453.98
684.474	2367.96
684.664	2378.2
684.854	2494.94
685.044	2355.68
685.234	2372.06
685.424	2472.41
685.614	2331.1
685.804	2265.57
685.994	2281.95
686.184	2322.91
686.374	2349.53
686.564	2300.38
686.753	2359.77
686.943	2402.78
687.133	2363.87
687.323	2335.2
687.513	2263.52
687.702	2300.38
687.892	2288.09
688.082	2361.82
688.272	2337.24
688.461	2298.33
688.651	2327
688.841	2378.2
689.03	2329.05
689.22	2275.81
689.41	2267.61
689.599	2150.88
689.789	2294.24
689.979	2232.8
690.168	2214.37
690.358	2204.13
690.547	2240.99
690.737	2179.55
690.926	2206.17
691.116	2179.55
691.305	2290.14
691.495	2212.32
691.684	2130.4
691.874	2298.33
692.063	2118.11
692.252	2191.84
692.442	2290.14
692.631	2109.92
692.82	2175.45
693.01	2185.69
693.199	2224.61
693.388	2161.12
693.578	2050.53
693.767	2154.98
693.956	2157.02
694.146	2109.92
694.335	2136.54
694.524	2054.62
694.713	2163.17
694.902	2075.1
695.092	2136.54
695.281	2054.62
695.47	2095.58
695.659	2064.86
695.848	2003.43
696.037	1980.9
696.226	2114.02
696.415	2091.49
696.604	2081.25
696.793	2134.5
696.982	2013.67
697.171	2091.49
697.36	2058.72
697.549	2099.68
697.738	2060.77
697.927	1989.09
698.116	1995.23
698.305	2140.64
698.494	2028
698.683	2015.71
698.872	2081.25
699.061	1968.61
699.25	2120.16
699.438	1964.51
699.627	2083.3
699.816	2068.96
700.005	2128.35
700.193	1999.33
700.382	2157.02
700.571	2015.71
700.76	2062.82
700.948	2066.91
701.137	2009.57
701.326	2017.76
701.514	2085.34
701.703	2011.62
701.892	1948.13
702.08	2001.38
702.269	2105.82
702.457	2019.81
702.646	1980.9
702.834	1948.13
703.023	1980.9
703.212	2056.67
703.4	1958.37
703.589	1982.95
703.777	1974.75
703.965	1956.32
704.154	1958.37
704.342	1923.55
704.531	1966.56
704.719	1907.17
704.907	1980.9
705.096	1884.64
705.284	1974.75
705.472	2048.48
705.661	1870.31
705.849	2015.71
706.037	1901.03
706.226	1980.9
706.414	1896.93
706.602	1898.98
706.79	1937.89
706.979	1966.56
707.167	1950.18
707.355	1835.49
707.543	1917.41
707.731	1950.18
707.919	1843.68
708.107	1946.08
708.296	1888.74
708.484	1833.44
708.672	1878.5
708.86	1851.88
709.048	1823.2
709.236	1917.41
709.424	1802.72
709.612	1819.11
709.8	1772
709.988	1878.5
710.176	1876.45
710.364	1849.83
710.551	1829.35
710.739	1829.35
710.927	1694.18
711.115	1788.39
711.303	1739.24
711.491	1720.81
711.679	1823.2
711.866	1716.71
712.054	1724.9
712.242	1810.92
712.43	1851.88
712.617	1702.37
712.805	1753.57
712.993	1688.04
713.181	1792.48
713.368	1556.97
713.556	1683.94
713.744	1612.26
713.931	1685.99
714.119	1696.23
714.306	1624.55
714.494	1645.03
714.682	1731.05
714.869	1593.83
715.057	1704.42
715.244	1569.26
715.432	1593.83
715.619	1720.81
715.807	1712.61
715.994	1667.56
716.182	1610.22
716.369	1604.07
716.556	1540.58
716.744	1620.46
716.931	1642.98
717.119	1577.45
717.306	1716.71
717.493	1616.36
717.681	1591.78
717.868	1589.74
718.055	1516.01
718.242	1567.21
718.43	1593.83
718.617	1495.53
718.804	1632.74
718.991	1518.06
719.179	1530.34
719.366	1544.68
719.553	1526.25
719.74	1556.97
719.927	1632.74
720.114	1470.95
720.301	1597.93
720.488	1429.99
720.676	1434.09
720.863	1393.13
721.05	1419.75
721.237	1444.33
721.424	1473
721.611	1468.91
721.798	1470.95
721.985	1391.08
722.172	1393.13
722.358	1440.23
722.545	1460.71
722.732	1368.56
722.919	1479.15
723.106	1436.14
723.293	1466.86
723.48	1372.65
723.667	1409.51
723.853	1382.89
724.04	1446.38
724.227	1520.1
724.414	1429.99
724.6	1407.47
724.787	1257.96
724.974	1393.13
725.161	1343.98
725.347	1403.37
725.534	1397.23
725.72	1317.36
725.907	1403.37
726.094	1473
726.28	1319.4
726.467	1382.89
726.653	1288.68
726.84	1425.9
727.027	1300.97
727.213	1360.36
727.4	1364.46
727.586	1307.12
727.773	1294.83
727.959	1237.49
728.145	1370.6
728.332	1266.16
728.518	1413.61
728.705	1274.35
728.891	1280.49
729.077	1331.69
729.264	1288.68
729.45	1307.12
729.636	1255.92
729.823	1270.25
730.009	1229.29
730.195	1270.25
730.382	1245.68
730.568	1280.49
730.754	1233.39
730.94	1186.29
731.126	1192.43
731.313	1266.16
731.499	1227.25
731.685	1214.96
731.871	1276.4
732.057	1227.25
732.243	1223.15
732.429	1229.29
732.615	1210.86
732.801	1245.68
732.987	1323.5
733.173	1264.11
733.359	1184.24
733.545	1227.25
733.731	1235.44
733.917	1221.1
734.103	1182.19
734.289	1206.77
734.475	1266.16
734.661	1176.05
734.847	1112.56
735.033	1145.33
735.219	1153.52
735.404	1212.91
735.59	1206.77
735.776	1149.42
735.962	1184.24
736.148	1159.66
736.333	1212.91
736.519	1210.86
736.705	1151.47
736.89	1161.71
737.076	1079.79
737.262	1090.03
737.447	1092.08
737.633	1163.76
737.819	1063.41
738.004	1092.08
738.19	1090.03
738.375	1106.42
738.561	1077.74
738.747	1071.6
738.932	1130.99
739.118	1194.48
739.303	1061.36
739.489	1049.07
739.674	1012.21
739.859	989.68
740.045	1120.75
740.23	1026.54
740.416	1094.13
740.601	1006.06
740.786	1042.93
740.972	1018.35
741.157	1069.55
741.342	993.78
741.528	987.63
741.713	1042.93
741.898	1040.88
742.084	1053.17
742.269	1016.3
742.454	1006.06
742.639	977.39
742.824	981.49
743.01	961.01
743.195	1102.32
743.38	997.87
743.565	1096.18
743.75	1067.5
743.935	934.39
744.12	852.47
744.305	1059.31
744.49	965.11
744.675	928.24
744.86	971.25
745.045	954.87
745.23	930.29
745.415	965.11
745.6	928.24
745.785	1028.59
745.97	862.71
746.155	897.52
746.34	883.19
746.525	942.58
746.71	903.67
746.895	854.51
747.079	944.63
747.264	866.8
747.449	926.19
747.634	897.52
747.819	883.19
748.003	848.37
748.188	788.98
748.373	909.81
748.557	924.15
748.742	791.03
748.927	860.66
749.111	838.13
749.296	874.99
749.481	868.85
749.665	842.23
749.85	803.32
750.034	793.08
750.219	768.5
750.404	848.37
750.588	772.6
750.773	776.69
750.957	834.04
751.141	909.81
751.326	770.55
751.51	786.93
751.695	813.56
751.879	821.75
752.064	739.83
752.248	786.93
752.432	807.41
752.617	782.84
752.801	758.26
752.985	772.6
753.17	735.73
753.354	786.93
753.538	664.05
753.722	723.44
753.907	756.21
754.091	684.53
754.275	707.06
754.459	690.68
754.643	633.33
754.828	823.8
755.012	758.26
755.196	598.52
755.38	702.97
755.564	752.12
755.748	631.29
755.932	750.07
756.116	643.57
756.3	657.91
756.484	668.15
756.668	653.81
756.852	492.02
757.036	649.72
757.22	641.53
757.404	678.39
757.588	659.96
757.772	616.95
757.956	616.95
758.14	633.33
758.323	604.66
758.507	602.61
758.691	694.77
758.875	631.29
759.059	682.49
759.242	684.53
759.426	586.23
759.61	575.99
759.794	524.79
759.977	602.61
760.161	549.37
760.345	588.28
760.528	571.9
760.712	575.99
760.895	559.61
761.079	545.27
761.263	643.57
761.446	551.42
761.63	578.04
761.813	539.13
761.997	555.51
762.18	584.18
762.364	573.94
762.547	518.65
762.731	573.94
762.914	504.31
763.098	549.37
763.281	588.28
763.464	582.14
763.648	463.35
763.831	561.66
764.015	532.98
764.198	516.6
764.381	473.59
764.564	500.22
764.748	551.42
764.931	508.41
765.114	502.26
765.297	496.12
765.481	469.5
765.664	502.26
765.847	580.09
766.03	479.74
766.213	516.6
766.397	465.4
766.58	467.45
766.763	557.56
766.946	494.07
767.129	557.56
767.312	528.89
767.495	530.94
767.678	463.35
767.861	500.22
768.044	571.9
768.227	459.26
768.41	543.22
768.593	524.79
768.776	520.7
768.959	489.98
769.142	504.31
769.324	508.41
769.507	475.64
769.69	535.03
769.873	498.17
770.056	449.02
770.239	514.55
770.421	475.64
770.604	475.64
770.787	500.22
770.97	492.02
771.152	485.88
771.335	489.98
771.518	416.25
771.7	451.07
771.883	420.35
772.066	483.83
772.248	432.63
772.431	375.29
772.613	424.44
772.796	465.4
772.978	424.44
773.161	406.01
773.343	449.02
773.526	373.24
773.708	465.4
773.891	512.5
774.073	426.49
774.256	399.87
774.438	512.5
774.621	393.72
774.803	406.01
774.985	412.15
775.168	492.02
775.35	494.07
775.532	410.11
775.715	291.32
775.897	406.01
776.079	399.87
776.261	391.67
776.444	334.33
776.626	352.76
776.808	428.54
776.99	373.24
777.173	373.24
777.355	377.34
777.537	356.86
777.719	469.5
777.901	358.91
778.083	389.63
778.265	365.05
778.447	317.95
778.629	363
778.811	465.4
778.993	414.2
779.175	393.72
779.357	408.06
779.539	320
779.721	365.05
779.903	412.15
780.085	260.6
780.267	365.05
780.449	289.28
780.631	295.42
780.812	320
780.994	274.94
781.176	297.47
781.358	367.1
781.54	295.42
781.721	297.47
781.903	320
782.085	315.9
782.267	279.04
782.448	320
782.63	322.04
782.812	315.9
782.993	281.08
783.175	336.38
783.357	246.27
783.538	260.6
783.72	297.47
783.901	371.19
784.083	315.9
784.264	363
784.446	276.99
784.627	233.98
784.809	281.08
784.99	305.66
785.172	264.7
785.353	264.7
785.535	246.27
785.716	324.09
785.897	254.46
786.079	240.12
786.26	279.04
786.441	279.04
786.623	195.07
786.804	279.04
786.985	276.99
787.167	231.93
787.348	240.12
787.529	266.75
787.71	217.6
787.891	195.07
788.073	223.74
788.254	201.21
788.435	180.73
788.616	219.64
788.797	272.89
788.978	166.4
789.159	186.88
789.34	217.6
789.522	147.97
789.703	213.5
789.884	248.32
790.065	215.55
790.246	279.04
790.427	244.22
790.607	283.13
790.788	207.36
790.969	221.69
791.15	260.6
791.331	283.13
791.512	215.55
791.693	215.55
791.874	283.13
792.054	272.89
792.235	254.46
792.416	248.32
792.597	217.6
792.778	203.26
792.958	260.6
793.139	127.49
793.32	242.17
793.5	195.07
793.681	244.22
793.862	231.93
794.042	170.49
794.223	219.64
794.404	172.54
794.584	229.88
794.765	254.46
794.945	219.64
795.126	205.31
795.306	213.5
795.487	111.1
795.667	227.84
795.848	248.32
796.028	215.55
796.209	256.51
796.389	166.4
796.57	233.98
796.75	195.07
796.93	182.78
797.111	193.02
797.291	205.31
797.471	135.68
797.652	266.75
797.832	119.29
798.012	131.58
798.192	172.54
798.373	172.54
798.553	113.15
798.733	162.3
798.913	172.54
799.093	143.87
799.274	195.07
799.454	182.78
799.634	152.06
799.814	117.25
799.994	201.21
800.174	170.49
800.354	184.83
800.534	178.69
800.714	197.12
800.894	156.16
801.074	152.06
801.254	123.39
801.434	152.06
801.614	174.59
801.794	164.35
801.974	463.35
802.154	115.2
802.334	213.5
802.514	139.77
802.693	121.34
802.873	133.63
803.053	188.93
803.233	137.73
803.413	152.06
803.592	121.34
803.772	92.67
803.952	150.01
804.131	154.11
804.311	164.35
804.491	156.16
804.67	139.77
804.85	102.91
805.03	186.88
805.209	152.06
805.389	74.24
805.568	229.88
805.748	164.35
805.928	133.63
806.107	76.29
806.287	158.21
806.466	152.06
806.646	107.01
806.825	76.29
807.004	125.44
807.184	107.01
807.363	88.57
807.543	129.53
807.722	184.83
807.901	121.34
808.081	160.25
808.26	113.15
808.439	113.15
808.619	170.49
808.798	225.79
808.977	133.63
809.156	158.21
809.336	150.01
809.515	125.44
809.694	102.91
809.873	172.54
810.052	152.06
810.231	129.53
810.411	64
810.59	100.86
810.769	76.29
810.948	137.73
811.127	111.1
811.306	107.01
811.485	125.44
811.664	88.57
811.843	100.86
812.022	131.58
812.201	92.67
812.38	176.64
812.559	139.77
812.737	158.21
812.916	72.19
813.095	104.96
813.274	104.96
813.453	150.01
813.632	10.75
813.811	129.53
813.989	113.15
814.168	150.01
814.347	139.77
814.526	90.62
814.704	127.49
814.883	16.9
815.062	76.29
815.24	129.53
815.419	152.06
815.598	145.92
815.776	88.57
815.955	150.01
816.133	72.19
816.312	76.29
816.49	80.38
816.669	117.25
816.847	47.62
817.026	80.38
817.204	82.43
817.383	162.3
817.561	35.33
817.74	98.81
817.918	90.62
818.097	178.69
818.275	86.53
818.453	74.24
818.632	98.81
818.81	186.88
818.988	59.9
819.167	82.43
819.345	84.48
819.523	92.67
819.701	143.87
819.879	94.72
820.058	72.19
820.236	129.53
820.414	152.06
820.592	123.39
820.77	100.86
820.948	117.25
821.127	78.33
821.305	115.2
821.483	47.62
821.661	90.62
821.839	47.62
822.017	98.81
822.195	72.19
822.373	123.39
822.551	92.67
822.729	39.42
822.907	49.66
823.085	104.96
823.262	104.96
823.44	107.01
823.618	14.85
823.796	109.05
823.974	39.42
824.152	156.16
824.329	70.14
824.507	117.25
824.685	125.44
824.863	59.9
825.04	98.81
825.218	51.71
825.396	74.24
825.574	145.92
825.751	49.66
825.929	29.18
826.107	10.75
826.284	141.82
826.462	125.44
826.639	70.14
826.817	80.38
826.994	100.86
827.172	115.2
827.349	111.1
827.527	113.15
827.704	158.21
827.882	84.48
828.059	31.23
828.237	76.29
828.414	78.33
828.591	43.52
828.769	137.73
828.946	156.16
829.124	88.57
829.301	90.62
829.478	49.66
829.655	45.57
829.833	123.39
830.01	104.96
830.187	74.24
830.364	80.38
830.542	66.05
830.719	74.24
830.896	107.01
831.073	70.14
831.25	55.81
831.427	72.19
831.604	43.52
831.782	164.35
831.959	94.72
832.136	80.38
832.313	86.53
832.49	61.95
832.667	37.38
832.844	111.1
833.021	107.01
833.198	64
833.374	64
833.551	178.69
833.728	35.33
833.905	72.19
834.082	72.19
834.259	74.24
834.436	29.18
834.612	74.24
834.789	115.2
834.966	88.57
835.143	-15.87
835.319	51.71
835.496	82.43
835.673	78.33
835.85	72.19
836.026	94.72
836.203	94.72
836.38	23.04
836.556	47.62
836.733	57.86
836.909	33.28
837.086	78.33
837.262	96.77
837.439	68.09
837.616	94.72
837.792	66.05
837.968	100.86
838.145	96.77
838.321	66.05
838.498	158.21
838.674	-19.97
838.851	113.15
839.027	104.96
839.203	115.2
839.38	131.58
839.556	88.57
839.732	90.62
839.909	49.66
840.085	84.48
840.261	-38.4
840.437	119.29
840.614	55.81
840.79	117.25
840.966	47.62
841.142	23.04
841.318	55.81
841.494	49.66
841.671	20.99
841.847	45.57
842.023	35.33
842.199	86.53
842.375	172.54
842.551	129.53
842.727	20.99
842.903	131.58
843.079	53.76
843.255	72.19
843.431	51.71
843.607	39.42
843.783	-15.87
843.959	133.63
844.134	25.09
844.31	113.15
844.486	39.42
844.662	68.09
844.838	55.81
845.013	20.99
845.189	39.42
845.365	-1.54
845.541	70.14
845.716	86.53
845.892	55.81
846.068	119.29
846.244	45.57
846.419	68.09
846.595	37.38
846.77	86.53
846.946	-11.78
847.122	57.86
847.297	119.29
847.473	135.68
847.648	39.42
847.824	119.29
847.999	2.56
848.175	94.72
848.35	84.48
848.526	47.62
848.701	66.05
848.876	68.09
849.052	51.71
849.227	92.67
849.403	59.9
849.578	64
849.753	29.18
849.929	37.38
850.104	82.43
850.279	135.68
850.454	23.04
850.63	90.62
850.805	57.86
850.98	74.24
851.155	16.9
851.33	57.86
851.505	33.28
851.681	72.19
851.856	35.33
852.031	104.96
852.206	61.95
852.381	49.66
852.556	25.09
852.731	66.05
852.906	25.09
853.081	-5.63
853.256	109.05
853.431	-15.87
853.606	119.29
853.781	-5.63
853.956	29.18
854.131	-13.82
854.305	49.66
854.48	53.76
854.655	119.29
854.83	92.67
855.005	70.14
855.18	104.96
855.354	45.57
855.529	39.42
855.704	14.85
855.879	20.99
856.053	27.14
856.228	55.81
856.403	70.14
856.577	49.66
856.752	104.96
856.926	45.57
857.101	109.05
857.276	70.14
857.45	-9.73
857.625	59.9
857.799	0.51
857.974	49.66
858.148	51.71
858.323	94.72
858.497	37.38
858.672	57.86
858.846	16.9
859.02	57.86
859.195	55.81
859.369	88.57
859.543	98.81
859.718	92.67
859.892	6.66
860.066	84.48
860.241	96.77
860.415	55.81
860.589	6.66
860.763	47.62
860.938	66.05
861.112	49.66
861.286	43.52
861.46	-1.54
861.634	20.99
861.808	123.39
861.982	53.76
862.157	78.33
862.331	-1.54
862.505	33.28
862.679	74.24
862.853	41.47
863.027	4.61
863.201	-36.35
863.375	43.52
863.549	41.47
863.722	94.72
863.896	117.25
864.07	47.62
864.244	61.95
864.418	61.95
864.592	80.38
864.766	10.75
864.939	39.42
865.113	0.51
865.287	20.99
865.461	0.51
865.634	23.04
865.808	4.61
865.982	33.28
866.156	53.76
866.329	8.7
866.503	84.48
866.676	39.42
866.85	74.24
867.024	-24.06
867.197	-5.63
867.371	66.05
867.544	14.85
867.718	-17.92
867.891	33.28
868.065	66.05
868.238	23.04
868.412	90.62
868.585	16.9
868.759	41.47
868.932	66.05
869.105	94.72
869.279	57.86
869.452	-5.63
869.625	23.04
869.799	131.58
869.972	6.66
870.145	8.7
870.319	39.42
870.492	49.66
870.665	-24.06
870.838	-1.54
871.011	31.23
871.185	47.62
871.358	-19.97
871.531	41.47
871.704	8.7
871.877	51.71
872.05	84.48
872.223	6.66
872.396	86.53
872.569	64
872.742	35.33
872.915	18.94
873.088	49.66
873.261	125.44
873.434	84.48
873.607	100.86
873.78	47.62
873.953	31.23
874.126	18.94
874.299	80.38
874.471	29.18
874.644	72.19
874.817	82.43
874.99	55.81
875.163	35.33
875.335	-36.35
875.508	-58.88
875.681	66.05
875.853	45.57
876.026	14.85
876.199	102.91
876.371	57.86
876.544	-24.06
876.717	64
876.889	104.96
877.062	53.76
877.234	20.99
877.407	45.57
877.579	92.67
877.752	31.23
877.924	31.23
878.097	127.49
878.269	68.09
878.442	49.66
878.614	45.57
878.786	-11.78
878.959	104.96
879.131	16.9
879.303	2.56
879.476	92.67
879.648	86.53
879.82	20.99
879.993	74.24
880.165	27.14
880.337	10.75
880.509	33.28
880.681	10.75
880.854	47.62
881.026	49.66
881.198	29.18
881.37	10.75
881.542	23.04
881.714	57.86
881.886	43.52
882.058	59.9
882.23	33.28
882.402	18.94
882.574	111.1
882.746	37.38
882.918	66.05
883.09	39.42
883.262	35.33
883.434	39.42
883.606	8.7
883.778	111.1
883.95	0.51
884.122	68.09
884.293	35.33
884.465	-9.73
884.637	139.77
884.809	-17.92
884.98	33.28
885.152	94.72
885.324	92.67
885.496	-17.92
885.667	88.57
885.839	0.51
886.011	55.81
886.182	49.66
886.354	12.8
886.525	-1.54
886.697	6.66
886.869	70.14
887.04	35.33
887.212	-3.58
887.383	94.72
887.555	51.71
887.726	68.09
887.897	82.43
888.069	-7.68
888.24	8.7
888.412	74.24
888.583	55.81
888.754	113.15
888.926	90.62
889.097	-36.35
889.268	6.66
889.44	49.66
889.611	49.66
889.782	59.9
889.953	33.28
890.125	33.28
890.296	27.14
890.467	-11.78
890.638	49.66
890.809	31.23
890.98	45.57
891.151	72.19
891.323	16.9
891.494	0.51
891.665	47.62
891.836	-5.63
892.007	88.57
892.178	53.76
892.349	2.56
892.52	53.76
892.691	61.95
892.862	25.09
893.032	-11.78
893.203	70.14
893.374	-15.87
893.545	72.19
893.716	70.14
893.887	55.81
894.057	-3.58
894.228	33.28
894.399	27.14
894.57	6.66
894.74	-28.16
894.911	59.9
895.082	41.47
895.253	59.9
895.423	66.05
895.594	41.47
895.764	29.18
895.935	59.9
896.106	49.66
896.276	66.05
896.447	35.33
896.617	72.19
896.788	80.38
896.958	29.18
897.129	-7.68
897.299	0.51
897.47	51.71
897.64	10.75
897.81	72.19
897.981	39.42
898.151	-28.16
898.322	31.23
898.492	55.81
898.662	20.99
898.832	107.01
899.003	68.09
899.173	84.48
899.343	64
899.513	37.38
