Data from USB4F104151__221__14-00-15-423.txt Node

Date: Thu Mar 13 14:00:15 EDT 2025
User: louis
Spectrometer: USB4F10415
Trigger mode: 4
Integration Time (sec): 1.000000E-2
Scans to average: 1
Electric dark correction enabled: true
Nonlinearity correction enabled: false
Boxcar width: 0
XAxis mode: Wavelengths
Number of Pixels in Spectrum: 3648
>>>>>Begin Spectral Data<<<<<
178.204	-49.66
178.424	-49.66
178.644	-49.66
178.864	-98.81
179.084	-47.62
179.304	32.26
179.524	3.58
179.744	15.87
179.964	15.87
180.184	24.06
180.404	50.69
180.624	-18.94
180.844	-18.94
181.064	-25.09
181.283	17.92
181.503	-90.62
181.723	-6.66
181.943	-20.99
182.163	34.3
182.383	22.02
182.602	-16.9
182.822	75.26
183.042	52.74
183.262	3.58
183.482	40.45
183.701	19.97
183.921	-25.09
184.141	-33.28
184.361	9.73
184.58	9.73
184.8	24.06
185.02	28.16
185.239	34.3
185.459	19.97
185.679	7.68
185.898	15.87
186.118	46.59
186.338	30.21
186.557	-41.47
186.777	-35.33
186.997	-4.61
187.216	-20.99
187.436	-49.66
187.655	-39.42
187.875	3.58
188.095	24.06
188.314	-23.04
188.534	13.82
188.753	-16.9
188.973	46.59
189.192	52.74
189.412	32.26
189.631	38.4
189.851	83.45
190.07	-49.66
190.29	32.26
190.509	-16.9
190.729	17.92
190.948	50.69
191.168	114.17
191.387	75.26
191.607	65.02
191.826	62.98
192.045	71.17
192.265	26.11
192.484	34.3
192.704	28.16
192.923	-8.7
193.142	13.82
193.362	44.54
193.581	3.58
193.8	-10.75
194.02	24.06
194.239	-57.86
194.458	-41.47
194.678	1.54
194.897	17.92
195.116	-31.23
195.335	-31.23
195.555	-29.18
195.774	126.46
195.993	38.4
196.212	7.68
196.432	26.11
196.651	93.69
196.87	-2.56
197.089	38.4
197.308	9.73
197.528	60.93
197.747	60.93
197.966	-35.33
198.185	54.78
198.404	9.73
198.623	-61.95
198.842	85.5
199.062	-39.42
199.281	13.82
199.5	48.64
199.719	3.58
199.938	36.35
200.157	67.07
200.376	13.82
200.595	-16.9
200.814	26.11
201.033	7.68
201.252	28.16
201.471	5.63
201.69	-49.66
201.909	118.27
202.128	19.97
202.347	46.59
202.566	-23.04
202.785	75.26
203.004	-25.09
203.223	34.3
203.442	26.11
203.661	71.17
203.879	-25.09
204.098	122.37
204.317	-20.99
204.536	15.87
204.755	-8.7
204.974	83.45
205.193	75.26
205.411	17.92
205.63	-6.66
205.849	-16.9
206.068	-27.14
206.287	75.26
206.505	9.73
206.724	42.5
206.943	118.27
207.162	9.73
207.381	32.26
207.599	-33.28
207.818	-25.09
208.037	-25.09
208.255	1.54
208.474	65.02
208.693	32.26
208.911	32.26
209.13	26.11
209.349	65.02
209.567	-39.42
209.786	40.45
210.005	44.54
210.223	26.11
210.442	-0.51
210.661	9.73
210.879	24.06
211.098	-4.61
211.316	24.06
211.535	-10.75
211.753	-12.8
211.972	5.63
212.191	30.21
212.409	28.16
212.628	15.87
212.846	9.73
213.065	28.16
213.283	-0.51
213.502	3.58
213.72	56.83
213.938	48.64
214.157	81.41
214.375	-39.42
214.594	32.26
214.812	42.5
215.031	69.12
215.249	1.54
215.467	17.92
215.686	24.06
215.904	67.07
216.122	-14.85
216.341	50.69
216.559	110.08
216.778	48.64
216.996	17.92
217.214	44.54
217.432	17.92
217.651	-0.51
217.869	-31.23
218.087	42.5
218.306	73.21
218.524	24.06
218.742	36.35
218.96	83.45
219.179	38.4
219.397	11.78
219.615	1.54
219.833	-0.51
220.051	-4.61
220.27	19.97
220.488	9.73
220.706	40.45
220.924	-25.09
221.142	28.16
221.36	-84.48
221.578	36.35
221.796	-55.81
222.015	42.5
222.233	-0.51
222.451	50.69
222.669	-61.95
222.887	50.69
223.105	34.3
223.323	67.07
223.541	3.58
223.759	34.3
223.977	24.06
224.195	60.93
224.413	-66.05
224.631	19.97
224.849	36.35
225.067	-4.61
225.285	-37.38
225.503	48.64
225.721	-6.66
225.939	40.45
226.157	-12.8
226.375	3.58
226.592	19.97
226.81	-31.23
227.028	62.98
227.246	-37.38
227.464	-10.75
227.682	48.64
227.9	11.78
228.117	48.64
228.335	5.63
228.553	-39.42
228.771	-23.04
228.989	-37.38
229.206	85.5
229.424	-2.56
229.642	-72.19
229.86	-16.9
230.077	32.26
230.295	-18.94
230.513	13.82
230.731	-6.66
230.948	77.31
231.166	-25.09
231.384	116.22
231.601	38.4
231.819	30.21
232.037	52.74
232.254	13.82
232.472	105.98
232.689	-8.7
232.907	56.83
233.125	19.97
233.342	28.16
233.56	-33.28
233.777	52.74
233.995	97.79
234.213	42.5
234.43	81.41
234.648	44.54
234.865	56.83
235.083	9.73
235.3	13.82
235.518	75.26
235.735	5.63
235.953	13.82
236.17	9.73
236.388	30.21
236.605	22.02
236.822	32.26
237.04	34.3
237.257	-12.8
237.475	-29.18
237.692	56.83
237.909	56.83
238.127	17.92
238.344	13.82
238.562	26.11
238.779	-31.23
238.996	13.82
239.214	-8.7
239.431	24.06
239.648	7.68
239.865	65.02
240.083	-20.99
240.3	-37.38
240.517	-20.99
240.735	-16.9
240.952	114.17
241.169	17.92
241.386	-61.95
241.603	44.54
241.821	-8.7
242.038	95.74
242.255	-8.7
242.472	24.06
242.689	40.45
242.907	19.97
243.124	48.64
243.341	-33.28
243.558	-35.33
243.775	42.5
243.992	-45.57
244.209	24.06
244.426	67.07
244.643	13.82
244.86	17.92
245.078	3.58
245.295	15.87
245.512	36.35
245.729	-4.61
245.946	28.16
246.163	54.78
246.38	54.78
246.597	32.26
246.814	-25.09
247.031	24.06
247.248	15.87
247.464	42.5
247.681	-25.09
247.898	34.3
248.115	105.98
248.332	17.92
248.549	-14.85
248.766	79.36
248.983	69.12
249.2	13.82
249.417	-4.61
249.633	1.54
249.85	65.02
250.067	42.5
250.284	-14.85
250.501	40.45
250.717	24.06
250.934	-8.7
251.151	19.97
251.368	34.3
251.585	13.82
251.801	89.6
252.018	-45.57
252.235	-10.75
252.451	3.58
252.668	-10.75
252.885	34.3
253.102	1.54
253.318	-53.76
253.535	5.63
253.752	40.45
253.968	-2.56
254.185	32.26
254.401	-33.28
254.618	19.97
254.835	52.74
255.051	24.06
255.268	34.3
255.484	48.64
255.701	26.11
255.917	91.65
256.134	79.36
256.351	71.17
256.567	52.74
256.784	-0.51
257	50.69
257.217	-12.8
257.433	34.3
257.65	108.03
257.866	-57.86
258.082	-76.29
258.299	-0.51
258.515	67.07
258.732	1.54
258.948	1.54
259.165	28.16
259.381	-33.28
259.597	24.06
259.814	56.83
260.03	26.11
260.246	71.17
260.463	77.31
260.679	60.93
260.895	-2.56
261.112	26.11
261.328	28.16
261.544	40.45
261.761	54.78
261.977	60.93
262.193	-29.18
262.409	-4.61
262.626	32.26
262.842	1.54
263.058	22.02
263.274	-16.9
263.49	58.88
263.707	7.68
263.923	77.31
264.139	-4.61
264.355	28.16
264.571	93.69
264.787	-2.56
265.004	7.68
265.22	9.73
265.436	5.63
265.652	17.92
265.868	-14.85
266.084	19.97
266.3	-23.04
266.516	77.31
266.732	-2.56
266.948	11.78
267.164	24.06
267.38	-25.09
267.596	-16.9
267.812	50.69
268.028	79.36
268.244	-14.85
268.46	65.02
268.676	87.55
268.892	132.61
269.108	-0.51
269.324	81.41
269.54	28.16
269.756	62.98
269.972	-49.66
270.188	81.41
270.403	-4.61
270.619	-27.14
270.835	36.35
271.051	24.06
271.267	-31.23
271.483	-4.61
271.698	11.78
271.914	120.32
272.13	-6.66
272.346	67.07
272.562	40.45
272.777	22.02
272.993	-16.9
273.209	62.98
273.425	24.06
273.64	44.54
273.856	52.74
274.072	26.11
274.287	7.68
274.503	75.26
274.719	56.83
274.934	34.3
275.15	-14.85
275.366	73.21
275.581	34.3
275.797	46.59
276.012	42.5
276.228	-33.28
276.444	62.98
276.659	17.92
276.875	15.87
277.09	-4.61
277.306	22.02
277.521	34.3
277.737	42.5
277.952	99.84
278.168	-6.66
278.383	-49.66
278.599	19.97
278.814	50.69
279.03	30.21
279.245	93.69
279.461	1.54
279.676	44.54
279.892	-20.99
280.107	42.5
280.322	-16.9
280.538	77.31
280.753	34.3
280.969	24.06
281.184	3.58
281.399	32.26
281.615	13.82
281.83	60.93
282.045	42.5
282.26	48.64
282.476	-33.28
282.691	56.83
282.906	-20.99
283.122	7.68
283.337	65.02
283.552	48.64
283.767	-10.75
283.983	30.21
284.198	7.68
284.413	36.35
284.628	24.06
284.843	40.45
285.058	58.88
285.274	17.92
285.489	32.26
285.704	26.11
285.919	32.26
286.134	-0.51
286.349	3.58
286.564	32.26
286.779	36.35
286.995	28.16
287.21	22.02
287.425	7.68
287.64	67.07
287.855	34.3
288.07	46.59
288.285	7.68
288.5	-31.23
288.715	28.16
288.93	50.69
289.145	9.73
289.36	65.02
289.575	1.54
289.79	19.97
290.004	-14.85
290.219	-45.57
290.434	24.06
290.649	-45.57
290.864	128.51
291.079	42.5
291.294	44.54
291.509	52.74
291.724	42.5
291.938	19.97
292.153	48.64
292.368	44.54
292.583	60.93
292.798	26.11
293.012	32.26
293.227	77.31
293.442	81.41
293.657	3.58
293.871	19.97
294.086	22.02
294.301	112.13
294.516	108.03
294.73	48.64
294.945	9.73
295.16	44.54
295.374	34.3
295.589	-16.9
295.804	50.69
296.018	65.02
296.233	38.4
296.447	26.11
296.662	19.97
296.877	48.64
297.091	26.11
297.306	15.87
297.52	30.21
297.735	89.6
297.949	15.87
298.164	81.41
298.378	-0.51
298.593	3.58
298.807	40.45
299.022	-14.85
299.236	34.3
299.451	42.5
299.665	52.74
299.88	48.64
300.094	36.35
300.309	97.79
300.523	19.97
300.737	52.74
300.952	83.45
301.166	50.69
301.381	-25.09
301.595	36.35
301.809	9.73
302.024	-41.47
302.238	34.3
302.452	-16.9
302.667	-8.7
302.881	103.93
303.095	56.83
303.309	32.26
303.524	15.87
303.738	9.73
303.952	34.3
304.166	5.63
304.381	24.06
304.595	42.5
304.809	-29.18
305.023	32.26
305.237	65.02
305.452	105.98
305.666	30.21
305.88	44.54
306.094	-4.61
306.308	42.5
306.522	44.54
306.736	-0.51
306.95	-16.9
307.164	24.06
307.379	-16.9
307.593	32.26
307.807	9.73
308.021	24.06
308.235	7.68
308.449	-18.94
308.663	42.5
308.877	17.92
309.091	67.07
309.305	52.74
309.519	40.45
309.733	85.5
309.947	-41.47
310.161	36.35
310.374	28.16
310.588	15.87
310.802	3.58
311.016	67.07
311.23	-10.75
311.444	-84.48
311.658	83.45
311.872	140.8
312.085	124.41
312.299	32.26
312.513	40.45
312.727	48.64
312.941	-37.38
313.154	60.93
313.368	7.68
313.582	62.98
313.796	-2.56
314.009	42.5
314.223	7.68
314.437	19.97
314.651	28.16
314.864	5.63
315.078	-20.99
315.292	1.54
315.505	-2.56
315.719	17.92
315.933	32.26
316.146	-2.56
316.36	34.3
316.573	-0.51
316.787	54.78
317.001	-4.61
317.214	99.84
317.428	62.98
317.641	-2.56
317.855	52.74
318.068	50.69
318.282	1.54
318.495	32.26
318.709	38.4
318.922	34.3
319.136	91.65
319.349	69.12
319.563	9.73
319.776	-18.94
319.99	15.87
320.203	118.27
320.417	-20.99
320.63	-2.56
320.843	34.3
321.057	-16.9
321.27	50.69
321.483	-12.8
321.697	42.5
321.91	9.73
322.124	50.69
322.337	11.78
322.55	28.16
322.763	-29.18
322.977	48.64
323.19	34.3
323.403	9.73
323.617	17.92
323.83	69.12
324.043	69.12
324.256	42.5
324.469	58.88
324.683	83.45
324.896	48.64
325.109	50.69
325.322	5.63
325.535	93.69
325.748	9.73
325.962	11.78
326.175	77.31
326.388	75.26
326.601	81.41
326.814	-4.61
327.027	79.36
327.24	95.74
327.453	1.54
327.666	19.97
327.879	42.5
328.092	24.06
328.305	24.06
328.518	19.97
328.731	-31.23
328.944	34.3
329.157	9.73
329.37	56.83
329.583	83.45
329.796	-25.09
330.009	28.16
330.222	24.06
330.435	58.88
330.648	34.3
330.861	91.65
331.073	62.98
331.286	52.74
331.499	95.74
331.712	-0.51
331.925	-25.09
332.138	40.45
332.35	103.93
332.563	-23.04
332.776	44.54
332.989	-59.9
333.202	11.78
333.414	95.74
333.627	73.21
333.84	87.55
334.053	50.69
334.265	28.16
334.478	81.41
334.691	5.63
334.903	44.54
335.116	9.73
335.329	67.07
335.541	83.45
335.754	34.3
335.966	132.61
336.179	65.02
336.392	44.54
336.604	24.06
336.817	85.5
337.029	17.92
337.242	-10.75
337.454	52.74
337.667	11.78
337.88	69.12
338.092	34.3
338.305	11.78
338.517	-51.71
338.729	54.78
338.942	9.73
339.154	81.41
339.367	38.4
339.579	13.82
339.792	71.17
340.004	26.11
340.217	-10.75
340.429	44.54
340.641	54.78
340.854	73.21
341.066	-8.7
341.278	19.97
341.491	-33.28
341.703	44.54
341.915	1.54
342.128	60.93
342.34	24.06
342.552	81.41
342.764	36.35
342.977	32.26
343.189	81.41
343.401	142.85
343.613	36.35
343.826	87.55
344.038	-6.66
344.25	101.89
344.462	11.78
344.674	11.78
344.886	22.02
345.099	34.3
345.311	32.26
345.523	11.78
345.735	-25.09
345.947	110.08
346.159	5.63
346.371	81.41
346.583	28.16
346.795	75.26
347.007	48.64
347.219	65.02
347.431	7.68
347.643	122.37
347.855	34.3
348.067	60.93
348.279	38.4
348.491	17.92
348.703	36.35
348.915	-4.61
349.127	54.78
349.339	65.02
349.551	9.73
349.763	26.11
349.975	54.78
350.187	65.02
350.399	77.31
350.61	44.54
350.822	24.06
351.034	38.4
351.246	110.08
351.458	108.03
351.669	5.63
351.881	95.74
352.093	110.08
352.305	105.98
352.517	110.08
352.728	105.98
352.94	11.78
353.152	60.93
353.363	34.3
353.575	-25.09
353.787	-16.9
353.999	24.06
354.21	52.74
354.422	79.36
354.633	42.5
354.845	60.93
355.057	32.26
355.268	73.21
355.48	73.21
355.692	101.89
355.903	75.26
356.115	-12.8
356.326	-16.9
356.538	73.21
356.749	60.93
356.961	50.69
357.172	38.4
357.384	28.16
357.595	38.4
357.807	-57.86
358.018	17.92
358.23	99.84
358.441	67.07
358.653	36.35
358.864	9.73
359.075	136.7
359.287	116.22
359.498	38.4
359.709	15.87
359.921	120.32
360.132	24.06
360.344	81.41
360.555	138.75
360.766	60.93
360.977	89.6
361.189	-70.14
361.4	5.63
361.611	40.45
361.823	65.02
362.034	24.06
362.245	54.78
362.456	30.21
362.667	67.07
362.879	44.54
363.09	-16.9
363.301	79.36
363.512	67.07
363.723	65.02
363.935	24.06
364.146	32.26
364.357	-0.51
364.568	46.59
364.779	-2.56
364.99	52.74
365.201	15.87
365.412	7.68
365.623	52.74
365.834	15.87
366.045	28.16
366.256	17.92
366.467	44.54
366.678	-8.7
366.889	-14.85
367.1	24.06
367.311	17.92
367.522	26.11
367.733	44.54
367.944	-8.7
368.155	97.79
368.366	62.98
368.577	-33.28
368.788	60.93
368.999	17.92
369.209	95.74
369.42	105.98
369.631	99.84
369.842	58.88
370.053	48.64
370.264	50.69
370.474	42.5
370.685	101.89
370.896	15.87
371.107	65.02
371.317	60.93
371.528	32.26
371.739	132.61
371.95	99.84
372.16	69.12
372.371	62.98
372.582	40.45
372.792	58.88
373.003	32.26
373.214	-43.52
373.424	87.55
373.635	73.21
373.846	1.54
374.056	28.16
374.267	52.74
374.477	-8.7
374.688	56.83
374.898	15.87
375.109	36.35
375.319	97.79
375.53	81.41
375.74	60.93
375.951	48.64
376.161	-0.51
376.372	17.92
376.582	40.45
376.793	77.31
377.003	65.02
377.214	60.93
377.424	62.98
377.635	60.93
377.845	26.11
378.055	69.12
378.266	-29.18
378.476	42.5
378.686	73.21
378.897	32.26
379.107	58.88
379.317	73.21
379.528	-23.04
379.738	32.26
379.948	67.07
380.158	75.26
380.369	50.69
380.579	136.7
380.789	73.21
380.999	77.31
381.21	99.84
381.42	101.89
381.63	83.45
381.84	-33.28
382.05	134.65
382.261	58.88
382.471	77.31
382.681	93.69
382.891	17.92
383.101	28.16
383.311	32.26
383.521	73.21
383.731	105.98
383.941	-8.7
384.151	89.6
384.361	-6.66
384.571	85.5
384.781	83.45
384.991	65.02
385.201	97.79
385.411	79.36
385.621	60.93
385.831	-2.56
386.041	36.35
386.251	30.21
386.461	91.65
386.671	-10.75
386.881	48.64
387.091	73.21
387.301	75.26
387.511	69.12
387.72	118.27
387.93	58.88
388.14	54.78
388.35	83.45
388.56	71.17
388.769	103.93
388.979	48.64
389.189	62.98
389.399	62.98
389.609	-18.94
389.818	105.98
390.028	30.21
390.238	97.79
390.447	114.17
390.657	114.17
390.867	50.69
391.076	42.5
391.286	58.88
391.496	83.45
391.705	67.07
391.915	11.78
392.125	118.27
392.334	81.41
392.544	1.54
392.753	124.41
392.963	89.6
393.172	81.41
393.382	5.63
393.591	69.12
393.801	95.74
394.01	42.5
394.22	81.41
394.429	24.06
394.639	5.63
394.848	34.3
395.058	22.02
395.267	58.88
395.477	114.17
395.686	77.31
395.895	91.65
396.105	54.78
396.314	46.59
396.524	81.41
396.733	97.79
396.942	132.61
397.152	173.57
397.361	91.65
397.57	89.6
397.78	134.65
397.989	148.99
398.198	105.98
398.407	99.84
398.617	130.56
398.826	116.22
399.035	118.27
399.244	71.17
399.453	77.31
399.663	42.5
399.872	114.17
400.081	110.08
400.29	132.61
400.499	118.27
400.708	81.41
400.917	81.41
401.127	58.88
401.336	148.99
401.545	118.27
401.754	71.17
401.963	65.02
402.172	140.8
402.381	108.03
402.59	163.33
402.799	77.31
403.008	60.93
403.217	103.93
403.426	112.13
403.635	112.13
403.844	146.94
404.053	73.21
404.262	130.56
404.471	97.79
404.68	91.65
404.888	148.99
405.097	89.6
405.306	118.27
405.515	118.27
405.724	216.57
405.933	185.85
406.142	126.46
406.35	163.33
406.559	173.57
406.768	220.67
406.977	163.33
407.185	171.52
407.394	124.41
407.603	204.28
407.812	245.24
408.02	222.72
408.229	224.76
408.438	245.24
408.646	210.43
408.855	275.96
409.064	251.39
409.272	286.2
409.481	275.96
409.69	280.06
409.898	339.45
410.107	355.83
410.315	384.51
410.524	345.59
410.733	347.64
410.941	331.26
411.15	423.42
411.358	409.08
411.567	411.13
411.775	419.32
411.984	390.65
412.192	411.13
412.401	351.74
412.609	450.04
412.818	513.53
413.026	441.85
413.234	458.23
413.443	486.9
413.651	540.15
413.86	529.91
414.068	677.37
414.276	617.97
414.485	560.63
414.693	673.27
414.901	681.46
415.11	691.7
415.318	636.41
415.526	777.72
415.734	714.23
415.943	798.2
416.151	765.43
416.359	873.97
416.567	890.35
416.776	763.38
416.984	884.21
417.192	849.4
417.4	986.61
417.608	978.42
417.817	1037.81
418.025	1062.38
418.233	1136.11
418.441	1148.4
418.649	1189.36
418.857	1279.47
419.065	1269.23
419.273	1175.02
419.481	1242.61
419.689	1388.01
419.897	1367.53
420.105	1482.22
420.313	1500.65
420.521	1601
420.729	1541.61
420.937	1506.79
421.145	1727.97
421.353	1701.35
421.561	1809.89
421.769	1883.62
421.977	2016.74
422.185	2022.88
422.393	2016.74
422.601	2147.81
422.809	2287.07
423.017	2315.74
423.224	2352.6
423.432	2407.9
423.64	2412
423.848	2721.24
424.056	2502.11
424.263	2678.23
424.471	2696.66
424.679	2788.82
424.887	2983.38
425.094	3036.63
425.302	2981.33
425.51	3018.19
425.718	3321.29
425.925	3298.77
426.133	3360.2
426.341	3636.68
426.548	3724.74
426.756	3747.27
426.964	3763.65
427.171	4095.43
427.379	4111.81
427.586	4228.54
427.794	4365.76
428.001	4464.06
428.209	4859.32
428.417	4537.79
428.624	5000.63
428.832	5021.11
429.039	4910.52
429.247	5103.03
429.454	5430.7
429.662	5727.66
429.869	5422.51
430.076	5780.9
430.284	5635.5
430.491	5875.11
430.699	6274.46
430.906	6161.83
431.114	6264.22
431.321	6507.93
431.528	6696.35
431.736	7071.12
431.943	7515.53
432.15	7142.8
432.358	7325.07
432.565	7634.32
432.772	7718.28
432.979	7863.69
433.187	8193.41
433.394	8408.45
433.601	8541.57
433.808	8588.67
434.016	8734.07
434.223	9033.08
434.43	9653.61
434.637	9342.32
434.844	10141.03
435.052	10065.25
435.259	9901.42
435.466	10128.74
435.673	10265.96
435.88	10939.74
436.087	11474.26
436.294	11412.82
436.501	11185.49
436.708	11236.69
436.915	11498.83
437.122	12289.35
437.329	12232.01
437.537	12625.22
437.743	12668.22
437.95	12744
438.157	13215.03
438.364	13761.84
438.571	13690.16
438.778	13735.21
438.985	15080.73
439.192	14499.11
439.399	15017.24
439.606	14720.29
439.813	15588.63
440.02	16368.9
440.227	15940.88
440.433	15936.78
440.64	16614.66
440.847	16452.87
441.054	16784.64
441.261	17710.32
441.467	17779.95
441.674	17730.8
441.881	18838.75
442.088	18734.31
442.294	18492.65
442.501	18803.94
442.708	19631.32
442.914	19905.74
443.121	20839.62
443.328	20565.19
443.534	21585.08
443.741	21298.36
443.948	20774.08
444.154	22170.8
444.361	22265
444.568	22318.25
444.774	22484.14
444.981	22793.38
445.187	23477.4
445.394	24292.49
445.6	23999.63
445.807	26254.45
446.013	25302.14
446.22	25644.15
446.426	26694.76
446.633	26647.66
446.839	27851.86
447.046	26537.07
447.252	28730.44
447.459	28079.19
447.665	28077.14
447.871	29373.5
448.078	30424.11
448.284	29199.43
448.491	29604.92
448.697	30989.35
448.903	31542.3
449.11	31667.23
449.316	31147.04
449.522	31796.25
449.728	32422.93
449.935	32443.41
450.141	32605.2
450.347	33180.68
450.553	31847.45
450.76	32693.26
450.966	33532.93
451.172	33657.85
451.378	34411.51
451.584	33442.82
451.791	34452.47
451.997	34245.62
452.203	34825.2
452.409	34997.23
452.615	35011.56
452.821	32920.59
453.027	32904.2
453.233	34612.21
453.44	33109
453.646	33885.18
453.852	33940.47
454.058	34278.39
454.264	33575.94
454.47	33965.05
454.676	33129.48
454.882	34180.09
455.088	31566.88
455.294	31863.83
455.5	32134.17
455.705	32367.63
455.911	31423.52
456.117	30997.54
456.323	30145.59
456.529	28677.19
456.735	30092.34
456.941	29254.72
457.147	29045.83
457.352	27872.34
457.558	27542.62
457.764	27497.56
457.97	27081.83
458.176	26608.75
458.381	26373.23
458.587	25134.21
458.793	25447.55
458.999	24095.89
459.204	25560.19
459.41	25142.4
459.616	23329.95
459.821	23338.14
460.027	23348.38
460.233	22746.28
460.438	21691.57
460.644	21755.06
460.85	20966.59
461.055	20540.61
461.261	20700.36
461.466	19084.51
461.672	18298.09
461.878	19696.85
462.083	18263.27
462.289	18027.76
462.494	17964.27
462.7	17405.17
462.905	16674.05
463.111	17485.05
463.316	17388.79
463.522	17016.06
463.727	16997.63
463.932	17011.96
464.138	17079.55
464.343	17003.77
464.549	16344.33
464.754	17149.18
464.959	17071.36
465.165	16743.68
465.37	16284.94
465.575	15555.86
465.781	15928.59
465.986	16327.94
466.191	15811.85
466.397	15461.65
466.602	14871.84
466.807	15271.19
467.012	15363.35
467.218	15011.1
467.423	15269.14
467.628	15093.02
467.833	15844.62
468.038	15217.94
468.244	14730.53
468.449	15297.81
468.654	14843.17
468.859	14517.54
469.064	14728.48
469.269	14230.82
469.474	14421.28
469.679	14402.85
469.885	14085.42
470.09	14187.82
470.295	14058.79
470.5	13751.6
470.705	13755.69
470.91	13464.88
471.115	13485.36
471.32	13641.01
471.525	13526.32
471.73	13225.27
471.935	13198.65
472.139	12741.95
472.344	12879.16
472.549	12862.78
472.754	12821.82
472.959	12303.68
473.164	12193.09
473.369	12123.46
473.574	12412.23
473.778	12412.23
473.983	12045.64
474.188	11918.67
474.393	11607.37
474.598	11697.49
474.802	11658.57
475.007	11464.02
475.212	11566.42
475.417	11306.32
475.621	10962.26
475.826	11126.1
476.031	10845.53
476.235	10665.31
476.44	10906.97
476.645	10526.05
476.849	10716.51
477.054	10720.6
477.259	10337.63
477.463	10521.95
477.668	10030.44
477.872	10499.42
478.077	10091.88
478.282	9887.08
478.486	9837.93
478.691	9770.35
478.895	9839.98
479.1	9588.08
479.304	9839.98
479.509	9340.27
479.713	9430.38
479.918	9409.9
480.122	9155.96
480.326	9350.51
480.531	9342.32
480.735	9133.43
480.94	9108.85
481.144	9399.66
481.348	8942.97
481.553	9057.65
481.757	9006.45
481.961	9162.1
482.166	9360.75
482.37	9000.31
482.574	9051.51
482.778	8889.72
482.983	9139.57
483.187	8832.38
483.391	9092.47
483.595	9047.41
483.8	8775.03
484.004	8932.73
484.208	9051.51
484.412	9012.6
484.616	9041.27
484.821	9139.57
485.025	8807.8
485.229	9168.24
485.433	8879.48
485.637	9184.63
485.841	8912.25
486.045	9170.29
486.249	8951.16
486.453	8934.78
486.657	9028.98
486.861	9022.84
487.065	8807.8
487.269	8969.59
487.473	9010.55
487.677	9117.04
487.881	9149.81
488.085	9057.65
488.289	9149.81
488.493	8975.74
488.697	8981.88
488.901	9121.14
489.105	9176.44
489.309	8961.4
489.512	9051.51
489.716	8930.68
489.92	9110.9
490.124	8936.82
490.328	9315.7
490.531	9033.08
490.735	9248.11
490.939	9311.6
491.143	9356.66
491.346	9266.55
491.55	9430.38
491.754	9457.01
491.958	9426.29
492.161	9319.79
492.365	9575.79
492.569	9502.06
492.772	9383.28
492.976	9506.16
493.18	9811.31
493.383	9624.94
493.587	9796.97
493.79	9917.8
493.994	9784.68
494.197	9919.85
494.401	10087.78
494.605	10143.08
494.808	10241.38
495.012	10124.65
495.215	10278.24
495.419	10489.18
495.622	10405.22
495.825	10646.88
496.029	10579.29
496.232	10728.8
496.436	10773.85
496.639	11124.05
496.843	10990.94
497.046	11222.36
497.249	11382.1
497.453	11461.97
497.656	11550.03
497.859	11453.78
498.063	11736.4
498.266	12019.02
498.469	11818.32
498.673	12166.47
498.876	12164.42
499.079	12332.36
499.282	12469.57
499.485	12805.44
499.689	12754.24
499.892	12801.34
500.095	13024.57
500.298	13352.24
500.501	13174.07
500.705	13511.99
500.908	13614.38
501.111	13655.34
501.314	13845.8
501.517	13962.54
501.72	14419.24
501.923	14171.43
502.126	14540.07
502.329	14904.6
502.532	15052.06
502.735	15090.97
502.938	15408.4
503.141	15584.53
503.344	15867.15
503.547	15803.66
503.75	15850.77
503.953	16305.42
504.156	16450.82
504.359	16653.57
504.562	16684.29
504.765	16975.1
504.968	17349.88
505.17	17294.58
505.373	17353.98
505.576	17724.66
505.779	18124.01
505.982	18334.95
506.185	18838.75
506.387	18857.18
506.59	18816.22
506.793	19168.48
506.996	19211.48
507.198	19625.17
507.401	19592.41
507.604	20124.88
507.807	20022.48
508.009	20716.74
508.212	20419.78
508.415	20872.39
508.617	21292.22
508.82	21257.4
509.022	21413.05
509.225	22023.34
509.428	22308.01
509.63	22596.78
509.833	22371.5
510.035	23041.18
510.238	23121.06
510.44	23317.66
510.643	23784.6
510.845	23803.03
511.048	23729.3
511.25	24333.45
511.453	24603.78
511.655	25414.78
511.858	24951.94
512.06	25459.84
512.262	25883.77
512.465	25777.27
512.667	26401.9
512.87	26872.93
513.072	26809.45
513.274	27184.23
513.477	27845.72
513.679	27880.53
513.881	27960.41
514.084	28193.87
514.286	28245.07
514.488	28759.11
514.69	29602.88
514.893	29529.15
515.095	29723.71
515.297	30399.54
515.499	30346.29
515.701	30759.98
515.904	30991.4
516.106	31388.71
516.308	31577.12
516.51	32103.45
516.712	32291.86
516.914	32597.01
517.116	33209.35
517.318	33209.35
517.52	33633.28
517.722	33502.21
517.925	33922.04
518.127	34296.82
518.329	34835.44
518.531	34724.85
518.733	35374.05
518.935	35879.9
519.136	35924.96
519.338	36424.66
519.54	36742.1
519.742	36559.83
519.944	36891.6
520.146	37854.14
520.348	38378.42
520.55	38003.64
520.752	38824.88
520.954	39205.8
521.155	38892.46
521.357	39541.67
521.559	40117.15
521.761	40590.23
521.963	40475.54
522.164	40797.07
522.366	41075.6
522.568	41046.93
522.77	41440.14
522.971	42109.82
523.173	41677.7
523.375	42156.92
523.576	42617.72
523.778	41978.75
523.98	43156.33
524.181	43371.37
524.383	43518.82
524.584	43809.64
524.786	44319.58
524.988	44208.99
525.189	44421.98
525.391	44864.34
525.592	45032.27
525.794	45302.6
525.995	45388.62
526.197	45337.42
526.398	45357.9
526.6	45882.18
526.801	46054.21
527.003	46224.19
527.204	46535.48
527.406	46857.01
527.607	47094.58
527.808	46762.81
528.01	46369.6
528.211	46684.98
528.412	47891.24
528.614	47426.35
528.815	47469.36
529.016	48061.22
529.218	47569.71
529.419	48151.33
529.62	47911.72
529.822	48456.48
530.023	47952.68
530.224	48337.69
530.425	48083.75
530.626	48528.16
530.828	48212.77
531.029	49007.38
531.23	48210.72
531.431	48546.59
531.632	48317.21
531.833	49007.38
532.035	48812.82
532.236	49050.39
532.437	49281.81
532.638	48716.57
532.839	49326.86
533.04	49459.98
533.241	49031.96
533.442	49959.69
533.643	49677.07
533.844	49267.47
534.045	49644.3
534.246	49347.34
534.447	49636.11
534.648	49089.3
534.849	49715.98
535.05	49120.02
535.251	49421.07
535.451	49206.03
535.652	49679.11
535.853	49578.76
536.054	49855.24
536.255	49984.26
536.456	49304.34
536.657	50119.43
536.857	49871.62
537.058	49201.94
537.259	50080.52
537.46	50041.6
537.66	49582.86
537.861	49668.87
538.062	49773.32
538.263	49931.01
538.463	49797.9
538.664	49541.9
538.865	49668.87
539.065	49771.27
539.266	49378.06
539.466	49951.49
539.667	49523.47
539.868	50211.59
540.068	50039.56
540.269	49509.13
540.469	49832.71
540.67	49502.99
540.87	49558.28
541.071	49490.7
541.271	49969.93
541.472	49640.2
541.672	49429.26
541.873	49492.75
542.073	48993.04
542.274	50236.16
542.474	49568.52
542.675	49183.51
542.875	49871.62
543.075	49820.42
543.276	49271.57
543.476	50088.71
543.676	49453.84
543.877	50432.77
544.077	49517.32
544.277	49605.39
544.478	49441.55
544.678	49683.21
544.878	49924.87
545.078	49556.24
545.279	49171.22
545.479	49705.74
545.679	49865.48
545.879	49947.4
546.079	49613.58
546.28	49410.83
546.48	49533.71
546.68	49652.49
546.88	49650.44
547.08	49672.97
547.28	49429.26
547.48	49226.51
547.68	49421.07
547.88	49480.46
548.081	49867.53
548.281	49451.79
548.481	49171.22
548.681	49691.4
548.881	50057.99
549.081	49580.81
549.28	49111.83
549.48	49414.93
549.68	49408.78
549.88	50307.84
550.08	49392.4
550.28	49298.19
550.48	49306.38
550.68	49949.45
550.88	49388.3
551.08	49179.41
551.279	49801.99
551.479	49171.22
551.679	49742.6
551.879	49066.77
552.079	49410.83
552.278	49371.92
552.478	49572.62
552.678	49453.84
552.878	49441.55
553.077	48808.73
553.277	48800.54
553.477	49853.19
553.676	48958.23
553.876	49326.86
554.076	49359.63
554.275	48911.13
554.475	48483.1
554.674	49253.14
554.874	49294.1
555.074	48904.98
555.273	49199.89
555.473	48986.9
555.672	49054.48
555.872	48833.3
556.071	49007.38
556.271	48704.28
556.47	48565.02
556.67	48745.24
556.869	48392.99
557.068	48657.18
557.268	48141.09
557.467	48280.35
557.667	48407.33
557.866	48599.83
558.065	48276.26
558.265	48345.89
558.464	47993.64
558.663	48448.28
558.863	47805.22
559.062	48120.61
559.261	47850.28
559.461	48354.08
559.66	47502.12
559.859	47807.27
560.058	47422.25
560.258	47997.73
560.457	47457.07
560.656	48091.94
560.855	47305.52
561.054	47958.82
561.253	47389.48
561.453	47518.51
561.652	47436.59
561.851	47516.46
562.05	47350.57
562.249	46922.55
562.448	47889.19
562.647	47285.04
562.846	47266.61
563.045	47002.42
563.244	46601.02
563.443	47608.62
563.642	46740.28
563.841	46871.35
564.04	46660.41
564.239	46988.08
564.438	46445.37
564.637	46908.21
564.836	46639.93
565.035	46076.74
565.234	46762.81
565.432	45972.29
565.631	46398.27
565.83	46349.12
566.029	45935.43
566.228	46267.2
566.427	45957.95
566.625	46066.5
566.824	45531.98
567.023	46095.17
567.222	45173.58
567.42	46015.3
567.619	45744.97
567.818	45564.74
568.016	45679.43
568.215	45755.21
568.414	45189.97
568.612	45392.72
568.811	45075.28
569.01	45089.62
569.208	44637.01
569.407	45200.21
569.605	44604.25
569.804	45073.23
570.002	44084.06
570.201	44464.99
570.4	43950.95
570.598	44421.98
570.797	44223.33
570.995	43948.9
571.193	43645.8
571.392	44254.04
571.59	43830.12
571.789	44018.53
571.987	43533.16
572.186	43322.22
572.384	43250.54
572.582	43694.95
572.781	43457.38
572.979	43002.74
573.177	43457.38
573.376	43199.34
573.574	42668.92
573.772	43078.51
573.971	42658.68
574.169	42707.83
574.367	42214.27
574.565	42484.6
574.763	41952.13
574.962	41991.04
575.16	41907.07
575.358	42206.08
575.556	41550.73
575.754	42003.33
575.952	41425.8
576.151	41759.62
576.349	40956.82
576.547	41270.15
576.745	41196.43
576.943	41603.97
577.141	40919.95
577.339	40946.58
577.537	40606.61
577.735	40774.55
577.933	40385.43
578.131	40868.75
578.329	40035.23
578.527	39842.72
578.725	40223.64
578.923	40373.14
579.121	39801.76
579.319	40051.61
579.516	40039.33
579.714	39990.17
579.912	39431.08
580.11	39691.17
580.308	39424.93
580.506	38976.43
580.704	38976.43
580.901	39213.99
581.099	39859.1
581.297	38792.11
581.495	38505.4
581.692	39072.68
581.89	38523.83
582.088	38777.78
582.285	38069.18
582.483	38431.67
582.681	38554.55
582.878	38491.06
583.076	37804.99
583.274	37958.59
583.471	37456.84
583.669	38190.01
583.866	37632.96
584.064	37837.76
584.262	37368.77
584.459	37934.01
584.657	37370.82
584.854	37407.69
585.052	36402.13
585.249	37188.55
585.447	37092.3
585.644	36617.17
585.841	36781.01
586.039	36910.03
586.236	36307.93
586.434	36522.96
586.631	36264.92
586.828	36240.34
587.026	36490.2
587.223	36107.23
587.42	35935.2
587.618	35552.23
587.815	35494.88
588.012	35593.18
588.21	35503.07
588.407	36142.04
588.604	35249.13
588.801	35351.52
588.999	35113.96
589.196	35066.86
589.393	35251.17
589.59	35009.51
589.787	34827.24
589.984	34151.41
590.182	34126.84
590.379	35038.19
590.576	34128.89
590.773	34149.37
590.97	34159.61
591.167	34393.08
591.364	33889.27
591.561	33960.95
591.758	33747.97
591.955	33907.71
592.152	33940.47
592.349	33719.29
592.546	33385.47
592.743	33737.73
592.94	32947.21
593.137	33162.25
593.334	33489.92
593.531	32637.97
593.727	33043.46
593.924	33106.95
594.121	32584.72
594.318	32936.97
594.515	32435.22
594.712	32930.83
594.908	32285.72
595.105	32275.48
595.302	32072.73
595.499	32203.8
595.696	32291.86
595.892	32015.38
596.089	32042.01
596.286	32201.75
596.482	31831.07
596.679	31462.43
596.876	31616.03
597.072	31601.69
597.269	31431.71
597.466	31202.34
597.662	31552.54
597.859	31360.03
598.055	31444
598.252	30866.47
598.448	30884.9
598.645	30460.98
598.841	30471.22
599.038	30700.59
599.234	30594.09
599.431	30407.73
599.627	30399.54
599.824	30497.84
600.02	30260.27
600.217	30014.52
600.413	30211.12
600.609	29883.45
600.806	29672.51
601.002	30010.42
601.198	29385.79
601.395	29426.75
601.591	29459.52
601.787	29277.25
601.984	28777.54
602.18	29592.64
602.376	29164.61
602.572	28863.56
602.769	29037.64
602.965	28632.14
603.161	29178.95
603.357	28808.26
603.553	28486.73
603.75	28570.7
603.946	28630.09
604.142	27858.01
604.338	27825.24
604.534	28238.93
604.73	27874.39
604.926	27628.63
605.122	27982.93
605.318	27528.28
605.514	27317.34
605.71	27481.18
605.906	27399.26
606.102	27464.8
606.298	27544.67
606.494	27135.07
606.69	27282.53
606.886	27542.62
607.082	26913.89
607.278	27153.51
607.474	26801.26
607.67	26954.85
607.866	26270.83
608.062	26772.58
608.257	26473.58
608.453	26418.28
608.649	26571.88
608.845	26309.74
609.041	26373.23
609.236	26471.53
609.432	26367.09
609.628	26020.98
609.824	25865.33
610.019	26053.75
610.215	25508.99
610.411	25867.38
610.606	25633.91
610.802	26053.75
610.998	25433.21
611.193	25541.75
611.389	25517.18
611.584	25361.53
611.78	25298.05
611.976	25048.19
612.171	25095.3
612.367	24843.4
612.562	24716.42
612.758	24781.96
612.953	24874.12
613.149	25076.87
613.344	24654.98
613.539	24931.46
613.735	24829.06
613.93	24784.01
614.126	24507.53
614.321	24708.23
614.517	24714.37
614.712	24571.02
614.907	24304.78
615.103	24251.53
615.298	24259.73
615.493	24495.24
615.688	23874.71
615.884	24218.77
616.079	23983.25
616.274	24013.97
616.47	23942.29
616.665	24194.19
616.86	23700.63
617.055	23524.51
617.25	23776.41
617.445	23825.56
617.641	23170.21
617.836	23319.71
618.031	23440.54
618.226	23366.81
618.421	23395.48
618.616	23069.86
618.811	22586.54
619.006	23446.68
619.201	22656.17
619.396	22873.25
619.591	22594.73
619.786	22834.34
619.981	22076.59
620.176	22494.38
620.371	22019.25
620.566	22275.24
620.761	22037.68
620.956	22129.84
621.151	21894.32
621.346	22017.2
621.541	21429.43
621.735	21861.55
621.93	21077.18
622.125	21515.45
622.32	21013.7
622.515	21357.75
622.709	21040.32
622.904	21122.24
623.099	20649.16
623.294	20810.95
623.488	20372.68
623.683	20888.77
623.878	20301
624.072	20454.6
624.267	20475.08
624.462	20282.57
624.656	19866.83
624.851	19838.16
625.046	19780.82
625.24	19629.27
625.435	19594.45
625.629	19533.01
625.824	19225.82
626.018	19375.32
626.213	18973.92
626.407	19403.99
626.602	19025.12
626.796	18599.14
626.991	18541.8
627.185	18527.46
627.38	18857.18
627.574	18414.82
627.768	18226.41
627.963	18128.11
628.157	17878.26
628.352	17939.69
628.546	17587.44
628.74	17978.61
628.935	17958.13
629.129	17716.47
629.323	17427.7
629.517	17587.44
629.712	17661.17
629.906	17165.56
630.1	17288.44
630.294	17251.58
630.489	16977.15
630.683	17077.5
630.877	16999.68
631.071	16719.1
631.265	17022.2
631.459	16764.16
631.653	16643.33
631.848	16710.91
632.042	16506.12
632.236	16559.36
632.43	16153.87
632.624	16246.02
632.818	16030.99
633.012	16082.19
633.206	15901.97
633.4	15977.74
633.594	15699.22
633.788	15721.74
633.982	15709.46
634.176	15459.6
634.369	15471.89
634.563	15353.11
634.757	15424.79
634.951	15549.71
635.145	15443.22
635.339	15170.84
635.533	14937.37
635.726	15080.73
635.92	14787.87
636.114	14695.71
636.308	14527.78
636.501	14484.77
636.695	14589.22
636.889	14675.23
637.083	14413.09
637.276	14212.39
637.47	14296.36
637.664	14216.49
637.857	14079.27
638.051	14245.16
638.244	13878.57
638.438	13671.73
638.632	14030.12
638.825	13745.45
639.019	13669.68
639.212	13462.83
639.406	13628.72
639.599	13497.65
639.793	13405.49
639.986	13278.52
640.18	13444.4
640.373	13243.7
640.567	13147.45
640.76	13143.35
640.954	13075.77
641.147	12870.97
641.34	12674.37
641.534	12899.64
641.727	12612.93
641.92	12653.89
642.114	12315.97
642.307	12514.63
642.5	12559.68
642.694	12186.95
642.887	12291.4
643.08	12287.3
643.273	12279.11
643.467	12141.89
643.66	12016.97
643.853	11961.67
644.046	11738.44
644.239	11953.48
644.432	11871.56
644.626	11744.59
644.819	11640.14
645.012	11621.71
645.205	11459.92
645.398	11312.47
645.591	11298.13
645.784	11261.27
645.977	11410.77
646.17	11300.18
646.363	10960.22
646.556	10949.98
646.749	10962.26
646.942	10949.98
647.135	10712.41
647.328	10868.06
647.521	10640.73
647.714	10599.77
647.907	10575.2
648.099	10683.74
648.292	10470.75
648.485	10444.13
648.678	10280.29
648.871	10268
649.064	10177.89
649.256	10319.2
649.449	9960.81
649.642	10069.35
649.835	9907.56
650.027	9776.49
650.22	9825.64
650.413	9762.16
650.605	9633.13
650.798	9706.86
650.991	9600.37
651.183	9645.42
651.376	9667.95
651.568	9610.61
651.761	9414
651.954	9346.42
652.146	9336.18
652.339	9160.05
652.531	9104.76
652.724	9205.11
652.916	9033.08
653.109	9069.94
653.301	9098.61
653.494	8977.78
653.686	8717.69
653.879	9049.46
654.071	8859
654.263	8617.34
654.456	8672.64
654.648	8705.4
654.84	8334.72
655.033	8521.09
655.225	8357.25
655.417	8320.39
655.61	8490.37
655.802	8205.7
655.994	8308.1
656.186	8177.03
656.379	8058.25
656.571	8230.27
656.763	7845.26
656.955	7964.04
657.148	8013.19
657.34	7796.11
657.532	7861.64
657.724	7757.19
657.916	7904.65
658.108	7601.55
658.3	7660.94
658.492	7744.91
658.684	7626.12
658.876	7536.01
659.068	7470.48
659.26	7679.37
659.452	7280.02
659.644	7097.75
659.836	7046.55
660.028	7261.59
660.22	7187.86
660.412	7003.54
660.604	6923.67
660.796	7153.04
660.988	6970.77
661.18	6735.26
661.372	6780.31
661.563	7015.83
661.755	6731.16
661.947	6682.01
662.139	6684.06
662.331	6602.14
662.522	6516.12
662.714	6518.17
662.906	6620.57
663.097	6417.82
663.289	6362.53
663.481	6301.09
663.673	6440.35
663.864	6092.2
664.056	6127.01
664.247	6309.28
664.439	5946.79
664.631	6010.28
664.822	6274.46
665.014	6167.97
665.205	6002.08
665.397	5942.69
665.588	5954.98
665.78	5858.73
665.971	5795.24
666.163	5735.85
666.354	5852.58
666.546	5768.62
666.737	5629.35
666.929	5754.28
667.12	5723.56
667.311	5791.14
667.503	5717.42
667.694	5686.7
667.885	5504.43
668.077	5539.24
668.268	5440.94
668.459	5418.41
668.651	5436.85
668.842	5457.32
669.033	5289.39
669.224	5283.25
669.416	5320.11
669.607	5225.9
669.798	5256.62
669.989	5285.3
670.18	5236.14
670.371	5270.96
670.563	5172.66
670.754	5119.41
670.945	5201.33
671.136	5143.99
671.327	5012.92
671.518	4971.96
671.709	4971.96
671.9	5055.92
672.091	4873.65
672.282	5068.21
672.473	4853.17
672.664	4904.37
672.855	4697.53
673.046	4931
673.237	4910.52
673.428	4779.45
673.619	4629.95
673.809	4793.78
674	4826.55
674.191	4711.86
674.382	4838.84
674.573	4568.51
674.764	4701.62
674.954	4654.52
675.145	4517.31
675.336	4580.79
675.527	4531.64
675.717	4636.09
675.908	4433.34
676.099	4457.92
676.289	4294.08
676.48	4537.79
676.671	4275.65
676.861	4416.96
677.052	4406.72
677.243	4462.01
677.433	4275.65
677.624	4302.27
677.814	4199.87
678.005	4267.45
678.195	4275.65
678.386	4206.02
678.576	4214.21
678.767	4201.92
678.957	4324.8
679.148	4201.92
679.338	4146.62
679.529	4226.5
679.719	4070.85
679.909	4066.75
680.1	4261.31
680.29	4040.13
680.481	4085.19
680.671	4097.47
680.861	4122.05
681.052	4062.66
681.242	4152.77
681.432	4044.23
681.622	3888.58
681.813	3904.96
682.003	4009.41
682.193	3890.63
682.383	4044.23
682.573	3964.36
682.764	3939.78
682.954	3954.12
683.144	3947.97
683.334	3859.91
683.524	3849.67
683.714	3892.68
683.904	3904.96
684.094	3864.01
684.284	3841.48
684.474	3894.72
684.664	3749.32
684.854	3689.93
685.044	3767.75
685.234	3722.7
685.424	3851.72
685.614	3669.45
685.804	3728.84
685.994	3886.53
686.184	3753.41
686.374	3775.94
686.564	3653.06
686.753	3769.8
686.943	3704.26
687.133	3669.45
687.323	3702.22
687.513	3753.41
687.702	3589.58
687.892	3526.09
688.082	3632.58
688.272	3771.85
688.461	3585.48
688.651	3636.68
688.841	3511.75
689.03	3571.15
689.22	3521.99
689.41	3632.58
689.599	3648.97
689.789	3587.53
689.979	3685.83
690.168	3573.19
690.358	3696.07
690.547	3485.13
690.737	3599.82
690.926	3544.52
691.116	3454.41
691.305	3513.8
691.495	3554.76
691.684	3507.66
691.874	3532.23
692.063	3577.29
692.252	3460.56
692.442	3663.3
692.631	3458.51
692.82	3499.47
693.01	3573.19
693.199	3446.22
693.388	3347.92
693.578	3407.31
693.767	3474.89
693.956	3415.5
694.146	3384.78
694.335	3433.93
694.524	3433.93
694.713	3364.3
694.902	3409.36
695.092	3411.4
695.281	3278.29
695.47	3362.25
695.659	3304.91
695.848	3397.07
696.037	3530.19
696.226	3380.68
696.415	3333.58
696.604	3431.88
696.793	3456.46
696.982	3327.44
697.171	3272.14
697.36	3501.51
697.549	3317.2
697.738	3292.62
697.927	3227.09
698.116	3384.78
698.305	3249.61
698.494	3306.96
698.683	3335.63
698.872	3386.83
699.061	3325.39
699.25	3184.08
699.438	3231.18
699.627	3225.04
699.816	3208.66
700.005	3171.79
700.193	3341.77
700.382	3147.22
700.571	3239.37
700.76	3163.6
700.948	3247.57
701.137	3272.14
701.326	3227.09
701.514	3204.56
701.703	3161.55
701.892	3268.05
702.08	3206.61
702.269	3198.42
702.457	3112.4
702.646	3169.74
702.834	3057.11
703.023	3116.5
703.212	3186.13
703.4	3046.87
703.589	3046.87
703.777	3003.86
703.965	3044.82
704.154	3083.73
704.342	3059.15
704.531	2940.37
704.719	3030.48
704.907	3063.25
705.096	3046.87
705.284	2964.95
705.472	2964.95
705.661	2901.46
705.849	2868.69
706.037	2928.08
706.226	2852.31
706.414	2950.61
706.602	2989.52
706.79	2940.37
706.979	2932.18
707.167	2905.56
707.355	2835.92
707.543	2825.68
707.731	2899.41
707.919	2813.4
708.107	2792.92
708.296	2926.04
708.484	2778.58
708.672	2784.73
708.86	2778.58
709.048	2737.62
709.236	2770.39
709.424	2731.48
709.612	2780.63
709.8	2743.77
709.988	2782.68
710.176	2745.81
710.364	2581.98
710.551	2749.91
710.739	2743.77
710.927	2688.47
711.115	2557.4
711.303	2670.04
711.491	2508.25
711.679	2573.78
711.866	2469.34
712.054	2606.55
712.242	2579.93
712.43	2606.55
712.617	2579.93
712.805	2418.14
712.993	2555.35
713.181	2512.35
713.368	2448.86
713.556	2571.74
713.744	2305.5
713.931	2536.92
714.119	2383.32
714.306	2450.91
714.494	2362.84
714.682	2368.99
714.869	2467.29
715.057	2272.73
715.244	2323.93
715.432	2416.09
715.619	2430.43
715.807	2352.6
715.994	2508.25
716.182	2362.84
716.369	2287.07
716.556	2332.12
716.744	2151.9
716.931	2268.64
717.119	2276.83
717.306	2301.4
717.493	2186.72
717.681	2176.48
717.868	2276.83
718.055	2162.14
718.242	2141.66
718.43	2172.38
718.617	2203.1
718.804	2145.76
718.991	2102.75
719.179	2006.5
719.366	2135.52
719.553	2190.81
719.74	2104.8
719.927	2115.04
720.114	2108.9
720.301	2051.55
720.488	2061.79
720.676	2006.5
720.863	2074.08
721.05	1998.31
721.237	1977.83
721.424	1963.49
721.611	1943.01
721.798	1973.73
721.985	2033.12
722.172	1949.15
722.358	1924.58
722.545	1904.1
722.732	2014.69
722.919	1969.63
723.106	1926.63
723.293	1875.43
723.48	1844.71
723.667	1834.47
723.853	1861.09
724.04	1867.24
724.227	1846.76
724.414	1891.81
724.6	1824.23
724.787	1900
724.974	1912.29
725.161	1854.95
725.347	1746.41
725.534	1635.82
725.72	1766.89
725.907	1730.02
726.094	1824.23
726.28	1826.28
726.467	1656.29
726.653	1746.41
726.84	1793.51
727.027	1785.32
727.213	1621.48
727.4	1820.13
727.586	1803.75
727.773	1674.73
727.959	1709.54
728.145	1672.68
728.332	1639.91
728.518	1629.67
728.705	1717.73
728.891	1623.53
729.077	1666.53
729.264	1646.05
729.45	1736.17
729.636	1588.71
729.823	1506.79
730.009	1531.37
730.195	1652.2
730.382	1617.38
730.568	1512.94
730.754	1555.94
730.94	1672.68
731.126	1482.22
731.313	1514.98
731.499	1576.42
731.685	1687.01
731.871	1609.19
732.057	1549.8
732.243	1459.69
732.429	1557.99
732.615	1492.46
732.801	1484.27
732.987	1508.84
733.173	1500.65
733.359	1506.79
733.545	1437.16
733.731	1365.48
733.917	1574.38
734.103	1478.12
734.289	1488.36
734.475	1383.91
734.661	1525.22
734.847	1316.33
735.033	1445.35
735.219	1484.27
735.404	1353.2
735.59	1359.34
735.776	1308.14
735.962	1334.76
736.148	1347.05
736.333	1461.74
736.519	1322.48
736.705	1273.32
736.89	1338.86
737.076	1357.29
737.262	1304.04
737.447	1285.61
737.633	1279.47
737.819	1281.52
738.004	1261.04
738.19	1281.52
738.375	1244.65
738.561	1306.09
738.747	1299.95
738.932	1215.98
739.118	1279.47
739.303	1252.84
739.489	1287.66
739.674	1285.61
739.859	1304.04
740.045	1170.93
740.23	1242.61
740.416	1134.06
740.601	1211.89
740.786	1189.36
740.972	1113.58
741.157	1140.21
741.342	1177.07
741.528	1191.41
741.713	1179.12
741.898	1156.59
742.084	1152.49
742.269	1181.17
742.454	1144.3
742.639	1261.04
742.824	1132.01
743.01	1228.27
743.195	1142.25
743.38	1058.29
743.565	1232.37
743.75	1187.31
743.935	1142.25
744.12	1068.53
744.305	1031.66
744.49	1179.12
744.675	1172.97
744.86	1005.04
745.045	1017.33
745.23	1052.14
745.415	1150.45
745.6	1007.09
745.785	1037.81
745.97	1105.39
746.155	1062.38
746.34	1078.77
746.525	1000.94
746.71	1099.25
746.895	1072.62
747.079	1076.72
747.264	1058.29
747.449	1033.71
747.634	1029.62
747.819	953.84
748.003	980.47
748.188	1027.57
748.373	978.42
748.557	927.22
748.742	1031.66
748.927	910.83
749.111	912.88
749.296	951.79
749.481	1035.76
749.665	830.96
749.85	912.88
750.034	970.23
750.219	937.46
750.404	839.16
750.588	886.26
750.773	867.83
750.957	853.49
751.141	925.17
751.326	880.11
751.51	933.36
751.695	867.83
751.879	828.92
752.064	876.02
752.248	843.25
752.432	916.98
752.617	773.62
752.801	841.2
752.985	822.77
753.17	843.25
753.354	851.44
753.538	779.76
753.722	835.06
753.907	790
754.091	773.62
754.275	771.57
754.459	830.96
754.643	769.52
754.828	724.47
755.012	833.01
755.196	714.23
755.38	820.72
755.564	671.22
755.748	804.34
755.932	728.56
756.116	841.2
756.3	796.15
756.484	708.09
756.668	736.76
756.852	695.8
757.036	677.37
757.22	706.04
757.404	673.27
757.588	720.37
757.772	650.74
757.956	683.51
758.14	611.83
758.323	538.1
758.507	779.76
758.691	716.28
758.875	663.03
759.059	701.94
759.242	589.3
759.426	589.3
759.61	732.66
759.794	646.65
759.977	558.58
760.161	716.28
760.345	630.26
760.528	630.26
760.712	669.17
760.895	589.3
761.079	660.98
761.263	689.65
761.446	531.96
761.63	622.07
761.813	566.78
761.997	634.36
762.18	568.82
762.364	560.63
762.547	599.54
762.731	544.25
762.914	599.54
763.098	593.4
763.281	615.93
763.464	554.49
763.648	499.19
763.831	583.16
764.015	519.67
764.198	636.41
764.381	581.11
764.564	556.54
764.748	548.34
764.931	562.68
765.114	568.82
765.297	620.02
765.481	581.11
765.664	450.04
765.847	589.3
766.03	622.07
766.213	601.59
766.397	601.59
766.58	581.11
766.763	632.31
766.946	558.58
767.129	499.19
767.312	458.23
767.495	511.48
767.678	540.15
767.861	570.87
768.044	560.63
768.227	525.82
768.41	452.09
768.593	509.43
768.776	536.06
768.959	443.9
769.142	538.1
769.324	581.11
769.507	609.78
769.69	595.45
769.873	585.21
770.056	515.58
770.239	476.66
770.421	507.38
770.604	511.48
770.787	476.66
770.97	493.05
771.152	417.27
771.335	491
771.518	454.14
771.7	501.24
771.883	515.58
772.066	472.57
772.248	476.66
772.431	517.62
772.613	521.72
772.796	468.47
772.978	495.1
773.161	634.36
773.343	464.38
773.526	458.23
773.708	495.1
773.891	493.05
774.073	431.61
774.256	413.18
774.438	507.38
774.621	529.91
774.803	497.14
774.985	427.51
775.168	456.19
775.35	435.71
775.532	534.01
775.715	462.33
775.897	501.24
776.079	425.47
776.261	445.95
776.444	456.19
776.626	390.65
776.808	476.66
776.99	390.65
777.173	388.6
777.355	435.71
777.537	460.28
777.719	394.75
777.901	357.88
778.083	501.24
778.265	450.04
778.447	411.13
778.629	409.08
778.811	384.51
778.993	394.75
779.175	380.41
779.357	398.84
779.539	388.6
779.721	421.37
779.903	402.94
780.085	388.6
780.267	386.55
780.449	351.74
780.631	396.79
780.812	419.32
780.994	323.07
781.176	347.64
781.358	304.64
781.54	349.69
781.721	337.4
781.903	345.59
782.085	380.41
782.267	288.25
782.448	243.2
782.63	288.25
782.812	314.88
782.993	318.97
783.175	466.42
783.357	292.35
783.538	273.92
783.72	321.02
783.901	310.78
784.083	347.64
784.264	378.36
784.446	333.31
784.627	263.68
784.809	329.21
784.99	286.2
785.172	226.81
785.353	327.16
785.535	278.01
785.716	366.07
785.897	253.44
786.079	269.82
786.26	239.1
786.441	286.2
786.623	243.2
786.804	278.01
786.985	292.35
787.167	298.49
787.348	232.96
787.529	294.4
787.71	224.76
787.891	292.35
788.073	226.81
788.254	265.72
788.435	306.68
788.616	306.68
788.797	245.24
788.978	206.33
789.159	294.4
789.34	312.83
789.522	245.24
789.703	239.1
789.884	245.24
790.065	218.62
790.246	267.77
790.427	327.16
790.607	167.42
790.788	259.58
790.969	189.95
791.15	218.62
791.331	155.13
791.512	220.67
791.693	245.24
791.874	181.76
792.054	251.39
792.235	196.09
792.416	251.39
792.597	206.33
792.778	169.47
792.958	187.9
793.139	210.43
793.32	243.2
793.5	179.71
793.681	243.2
793.862	200.19
794.042	208.38
794.223	187.9
794.404	181.76
794.584	198.14
794.765	179.71
794.945	194.05
795.126	247.29
795.306	157.18
795.487	280.06
795.667	220.67
795.848	171.52
796.028	177.66
796.209	194.05
796.389	175.61
796.57	228.86
796.75	237.05
796.93	235
797.111	108.03
797.291	226.81
797.471	192
797.652	155.13
797.832	138.75
798.012	214.52
798.192	146.94
798.373	159.23
798.553	181.76
798.733	187.9
798.913	183.81
799.093	155.13
799.274	271.87
799.454	146.94
799.634	138.75
799.814	230.91
799.994	208.38
800.174	116.22
800.354	132.61
800.534	161.28
800.714	155.13
800.894	138.75
801.074	110.08
801.254	155.13
801.434	124.41
801.614	153.09
801.794	116.22
801.974	382.46
802.154	126.46
802.334	171.52
802.514	167.42
802.693	157.18
802.873	167.42
803.053	171.52
803.233	108.03
803.413	159.23
803.592	34.3
803.772	148.99
803.952	103.93
804.131	153.09
804.311	171.52
804.491	105.98
804.67	48.64
804.85	116.22
805.03	146.94
805.209	142.85
805.389	65.02
805.568	124.41
805.748	75.26
805.928	112.13
806.107	169.47
806.287	79.36
806.466	95.74
806.646	105.98
806.825	128.51
807.004	116.22
807.184	144.89
807.363	134.65
807.543	132.61
807.722	146.94
807.901	144.89
808.081	179.71
808.26	58.88
808.439	132.61
808.619	208.38
808.798	187.9
808.977	122.37
809.156	138.75
809.336	95.74
809.515	148.99
809.694	85.5
809.873	120.32
810.052	44.54
810.231	181.76
810.411	81.41
810.59	110.08
810.769	48.64
810.948	89.6
811.127	73.21
811.306	83.45
811.485	56.83
811.664	110.08
811.843	136.7
812.022	142.85
812.201	65.02
812.38	56.83
812.559	206.33
812.737	126.46
812.916	116.22
813.095	206.33
813.274	171.52
813.453	181.76
813.632	-10.75
813.811	110.08
813.989	138.75
814.168	144.89
814.347	79.36
814.526	81.41
814.704	67.07
814.883	67.07
815.062	17.92
815.24	134.65
815.419	114.17
815.598	101.89
815.776	85.5
815.955	97.79
816.133	62.98
816.312	101.89
816.49	110.08
816.669	97.79
816.847	54.78
817.026	155.13
817.204	-0.51
817.383	153.09
817.561	62.98
817.74	122.37
817.918	81.41
818.097	42.5
818.275	56.83
818.453	126.46
818.632	17.92
818.81	87.55
818.988	73.21
819.167	83.45
819.345	24.06
819.523	132.61
819.701	58.88
819.879	99.84
820.058	112.13
820.236	26.11
820.414	101.89
820.592	-16.9
820.77	89.6
820.948	38.4
821.127	81.41
821.305	75.26
821.483	85.5
821.661	99.84
821.839	130.56
822.017	44.54
822.195	26.11
822.373	65.02
822.551	5.63
822.729	85.5
822.907	81.41
823.085	132.61
823.262	136.7
823.44	-57.86
823.618	40.45
823.796	-0.51
823.974	56.83
824.152	71.17
824.329	48.64
824.507	32.26
824.685	62.98
824.863	79.36
825.04	50.69
825.218	54.78
825.396	32.26
825.574	34.3
825.751	146.94
825.929	118.27
826.107	11.78
826.284	77.31
826.462	30.21
826.639	1.54
826.817	101.89
826.994	71.17
827.172	60.93
827.349	69.12
827.527	124.41
827.704	50.69
827.882	60.93
828.059	124.41
828.237	54.78
828.414	28.16
828.591	-8.7
828.769	34.3
828.946	67.07
829.124	65.02
829.301	56.83
829.478	1.54
829.655	50.69
829.833	50.69
830.01	44.54
830.187	56.83
830.364	15.87
830.542	71.17
830.719	83.45
830.896	75.26
831.073	26.11
831.25	169.47
831.427	11.78
831.604	97.79
831.782	46.59
831.959	73.21
832.136	60.93
832.313	77.31
832.49	46.59
832.667	118.27
832.844	-47.62
833.021	62.98
833.198	87.55
833.374	9.73
833.551	46.59
833.728	97.79
833.905	60.93
834.082	83.45
834.259	42.5
834.436	40.45
834.612	58.88
834.789	75.26
834.966	32.26
835.143	65.02
835.319	22.02
835.496	26.11
835.673	38.4
835.85	62.98
836.026	44.54
836.203	93.69
836.38	26.11
836.556	17.92
836.733	89.6
836.909	42.5
837.086	73.21
837.262	28.16
837.439	26.11
837.616	-33.28
837.792	-27.14
837.968	128.51
838.145	34.3
838.321	22.02
838.498	34.3
838.674	77.31
838.851	99.84
839.027	40.45
839.203	40.45
839.38	32.26
839.556	87.55
839.732	67.07
839.909	34.3
840.085	48.64
840.261	5.63
840.437	101.89
840.614	48.64
840.79	56.83
840.966	17.92
841.142	40.45
841.318	62.98
841.494	101.89
841.671	65.02
841.847	89.6
842.023	1.54
842.199	38.4
842.375	-8.7
842.551	58.88
842.727	52.74
842.903	13.82
843.079	-8.7
843.255	54.78
843.431	-8.7
843.607	54.78
843.783	71.17
843.959	138.75
844.134	17.92
844.31	-27.14
844.486	60.93
844.662	73.21
844.838	36.35
845.013	24.06
845.189	46.59
845.365	79.36
845.541	-6.66
845.716	26.11
845.892	-31.23
846.068	-16.9
846.244	11.78
846.419	83.45
846.595	17.92
846.77	-25.09
846.946	89.6
847.122	89.6
847.297	56.83
847.473	101.89
847.648	32.26
847.824	69.12
847.999	-16.9
848.175	52.74
848.35	34.3
848.526	24.06
848.701	-39.42
848.876	30.21
849.052	32.26
849.227	19.97
849.403	-12.8
849.578	-33.28
849.753	105.98
849.929	-4.61
850.104	-0.51
850.279	-2.56
850.454	67.07
850.63	17.92
850.805	-64
850.98	44.54
851.155	-33.28
851.33	50.69
851.505	48.64
851.681	73.21
851.856	22.02
852.031	7.68
852.206	28.16
852.381	108.03
852.556	-6.66
852.731	-33.28
852.906	30.21
853.081	22.02
853.256	17.92
853.431	-14.85
853.606	-27.14
853.781	48.64
853.956	-47.62
854.131	40.45
854.305	22.02
854.48	36.35
854.655	11.78
854.83	56.83
855.005	-4.61
855.18	62.98
855.354	52.74
855.529	116.22
855.704	126.46
855.879	24.06
856.053	-100.86
856.228	19.97
856.403	9.73
856.577	28.16
856.752	-16.9
856.926	24.06
857.101	65.02
857.276	-29.18
857.45	-27.14
857.625	24.06
857.799	-18.94
857.974	26.11
858.148	-35.33
858.323	-23.04
858.497	15.87
858.672	19.97
858.846	40.45
859.02	56.83
859.195	28.16
859.369	38.4
859.543	56.83
859.718	11.78
859.892	50.69
860.066	-18.94
860.241	-37.38
860.415	11.78
860.589	34.3
860.763	19.97
860.938	50.69
861.112	101.89
861.286	-29.18
861.46	93.69
861.634	11.78
861.808	58.88
861.982	24.06
862.157	26.11
862.331	48.64
862.505	73.21
862.679	52.74
862.853	15.87
863.027	-12.8
863.201	-18.94
863.375	22.02
863.549	58.88
863.722	-2.56
863.896	65.02
864.07	-12.8
864.244	-31.23
864.418	-16.9
864.592	83.45
864.766	-14.85
864.939	40.45
865.113	15.87
865.287	-20.99
865.461	26.11
865.634	38.4
865.808	26.11
865.982	30.21
866.156	7.68
866.329	-8.7
866.503	85.5
866.676	54.78
866.85	77.31
867.024	34.3
867.197	32.26
867.371	30.21
867.544	26.11
867.718	13.82
867.891	7.68
868.065	73.21
868.238	24.06
868.412	-57.86
868.585	-51.71
868.759	-20.99
868.932	13.82
869.105	-4.61
869.279	-23.04
869.452	-23.04
869.625	22.02
869.799	-23.04
869.972	52.74
870.145	-35.33
870.319	-10.75
870.492	-31.23
870.665	-39.42
870.838	67.07
871.011	34.3
871.185	58.88
871.358	3.58
871.531	48.64
871.704	-12.8
871.877	1.54
872.05	-33.28
872.223	-14.85
872.396	-0.51
872.569	30.21
872.742	36.35
872.915	73.21
873.088	67.07
873.261	17.92
873.434	-41.47
873.607	56.83
873.78	-16.9
873.953	-49.66
874.126	1.54
874.299	-4.61
874.471	17.92
874.644	-25.09
874.817	42.5
874.99	-4.61
875.163	48.64
875.335	17.92
875.508	-70.14
875.681	7.68
875.853	9.73
876.026	-18.94
876.199	-8.7
876.371	40.45
876.544	-16.9
876.717	9.73
876.889	-41.47
877.062	69.12
877.234	11.78
877.407	30.21
877.579	46.59
877.752	-14.85
877.924	-20.99
878.097	28.16
878.269	22.02
878.442	132.61
878.614	-20.99
878.786	46.59
878.959	-12.8
879.131	36.35
879.303	-35.33
879.476	-61.95
879.648	38.4
879.82	89.6
879.993	-4.61
880.165	24.06
880.337	-76.29
880.509	5.63
880.681	-12.8
880.854	-41.47
881.026	-6.66
881.198	73.21
881.37	7.68
881.542	17.92
881.714	-16.9
881.886	-14.85
882.058	15.87
882.23	-6.66
882.402	-6.66
882.574	32.26
882.746	1.54
882.918	15.87
883.09	-10.75
883.262	-0.51
883.434	28.16
883.606	1.54
883.778	65.02
883.95	22.02
884.122	38.4
884.293	99.84
884.465	62.98
884.637	60.93
884.809	24.06
884.98	-33.28
885.152	38.4
885.324	32.26
885.496	69.12
885.667	-25.09
885.839	-88.57
886.011	26.11
886.182	19.97
886.354	77.31
886.525	-8.7
886.697	62.98
886.869	3.58
887.04	30.21
887.212	9.73
887.383	26.11
887.555	-31.23
887.726	36.35
887.897	46.59
888.069	50.69
888.24	-23.04
888.412	56.83
888.583	-45.57
888.754	-0.51
888.926	-59.9
889.097	-0.51
889.268	7.68
889.44	30.21
889.611	-39.42
889.782	46.59
889.953	40.45
890.125	3.58
890.296	-29.18
890.467	-25.09
890.638	73.21
890.809	19.97
890.98	-37.38
891.151	-64
891.323	17.92
891.494	-64
891.665	24.06
891.836	-47.62
892.007	67.07
892.178	46.59
892.349	15.87
892.52	-4.61
892.691	-18.94
892.862	44.54
893.032	-14.85
893.203	-41.47
893.374	75.26
893.545	-0.51
893.716	-6.66
893.887	-8.7
894.057	-31.23
894.228	-27.14
894.399	-14.85
894.57	-31.23
894.74	-64
894.911	28.16
895.082	11.78
895.253	-31.23
895.423	-0.51
895.594	42.5
895.764	36.35
895.935	-8.7
896.106	-8.7
896.276	26.11
896.447	22.02
896.617	19.97
896.788	-23.04
896.958	17.92
897.129	-8.7
897.299	1.54
897.47	13.82
897.64	-8.7
897.81	-18.94
897.981	11.78
898.151	38.4
898.322	56.83
898.492	-6.66
898.662	9.73
898.832	-16.9
899.003	-0.51
899.173	9.73
899.343	36.35
899.513	-20.99
