Data from USB4F104151__93__13-54-32-850.txt Node

Date: Thu Mar 13 13:54:32 EDT 2025
User: louis
Spectrometer: USB4F10415
Trigger mode: 4
Integration Time (sec): 1.000000E-2
Scans to average: 1
Electric dark correction enabled: true
Nonlinearity correction enabled: false
Boxcar width: 0
XAxis mode: Wavelengths
Number of Pixels in Spectrum: 3648
>>>>>Begin Spectral Data<<<<<
178.204	-73.56
178.424	-73.56
178.644	-73.56
178.864	-77.65
179.084	-5.97
179.304	-5.97
179.524	-65.36
179.744	-57.17
179.964	6.31
180.184	26.79
180.404	-20.31
180.624	10.41
180.844	55.47
181.064	-22.36
181.283	67.75
181.503	-14.17
181.723	18.6
181.943	-10.07
182.163	4.27
182.383	0.17
182.602	-30.55
182.822	-26.45
183.042	10.41
183.262	-44.88
183.482	47.27
183.701	-24.4
183.921	14.51
184.141	75.95
184.361	71.85
184.58	-40.79
184.8	-46.93
185.02	4.27
185.239	8.36
185.459	-1.88
185.679	-20.31
185.898	8.36
186.118	55.47
186.338	0.17
186.557	82.09
186.777	-40.79
186.997	-18.26
187.216	-34.64
187.436	18.6
187.655	-14.17
187.875	-14.17
188.095	-26.45
188.314	-8.02
188.534	-59.22
188.753	57.51
188.973	20.65
189.192	4.27
189.412	0.17
189.631	24.75
189.851	41.13
190.07	-22.36
190.29	49.32
190.509	34.99
190.729	-10.07
190.948	49.32
191.168	94.38
191.387	-12.12
191.607	-59.22
191.826	41.13
192.045	-18.26
192.265	12.46
192.484	-46.93
192.704	34.99
192.923	-14.17
193.142	63.66
193.362	10.41
193.581	-26.45
193.8	-8.02
194.02	45.23
194.239	-1.88
194.458	-16.21
194.678	-5.97
194.897	-24.4
195.116	45.23
195.335	2.22
195.555	-1.88
195.774	-32.6
195.993	-18.26
196.212	53.42
196.432	-10.07
196.651	110.76
196.87	12.46
197.089	-3.93
197.308	73.9
197.528	59.56
197.747	-65.36
197.966	2.22
198.185	86.19
198.404	-1.88
198.623	18.6
198.842	30.89
199.062	16.55
199.281	-22.36
199.5	12.46
199.719	-42.84
199.938	8.36
200.157	22.7
200.376	2.22
200.595	22.7
200.814	32.94
201.033	-40.79
201.252	12.46
201.471	-26.45
201.69	47.27
201.909	47.27
202.128	-51.03
202.347	53.42
202.566	-48.98
202.785	-48.98
203.004	-16.21
203.223	6.31
203.442	37.03
203.661	6.31
203.879	-10.07
204.098	-26.45
204.317	-12.12
204.536	18.6
204.755	14.51
204.974	-34.64
205.193	37.03
205.411	39.08
205.63	43.18
205.849	-30.55
206.068	43.18
206.287	-16.21
206.505	-14.17
206.724	0.17
206.943	2.22
207.162	-44.88
207.381	20.65
207.599	-53.08
207.818	32.94
208.037	6.31
208.255	82.09
208.474	-24.4
208.693	14.51
208.911	-26.45
209.13	-30.55
209.349	32.94
209.567	41.13
209.786	-16.21
210.005	26.79
210.223	-38.74
210.442	67.75
210.661	47.27
210.879	77.99
211.098	0.17
211.316	-16.21
211.535	80.04
211.753	-32.6
211.972	-1.88
212.191	-8.02
212.409	82.09
212.628	22.7
212.846	-46.93
213.065	-1.88
213.283	43.18
213.502	94.38
213.72	49.32
213.938	10.41
214.157	26.79
214.375	-30.55
214.594	45.23
214.812	45.23
215.031	-16.21
215.249	22.7
215.467	-24.4
215.686	-3.93
215.904	-71.51
216.122	32.94
216.341	12.46
216.559	-3.93
216.778	20.65
216.996	118.95
217.214	14.51
217.432	-14.17
217.651	-20.31
217.869	-63.32
218.087	-40.79
218.306	-1.88
218.524	41.13
218.742	-81.75
218.96	34.99
219.179	-89.94
219.397	16.55
219.615	2.22
219.833	43.18
220.051	-34.64
220.27	24.75
220.488	65.71
220.706	-18.26
220.924	0.17
221.142	-28.5
221.36	-5.97
221.578	-94.04
221.796	-18.26
222.015	-55.12
222.233	-53.08
222.451	-40.79
222.669	-3.93
222.887	67.75
223.105	-8.02
223.323	57.51
223.541	14.51
223.759	-1.88
223.977	14.51
224.195	0.17
224.413	-55.12
224.631	-30.55
224.849	49.32
225.067	41.13
225.285	-26.45
225.503	-38.74
225.721	-32.6
225.939	-30.55
226.157	-10.07
226.375	8.36
226.592	18.6
226.81	-57.17
227.028	-38.74
227.246	-28.5
227.464	-16.21
227.682	-57.17
227.9	8.36
228.117	51.37
228.335	39.08
228.553	28.84
228.771	-61.27
228.989	32.94
229.206	-91.99
229.424	-48.98
229.642	-30.55
229.86	24.75
230.077	-20.31
230.295	14.51
230.513	-26.45
230.731	37.03
230.948	-24.4
231.166	32.94
231.384	12.46
231.601	-51.03
231.819	-42.84
232.037	-8.02
232.254	12.46
232.472	-30.55
232.689	37.03
232.907	71.85
233.125	-32.6
233.342	-73.56
233.56	0.17
233.777	0.17
233.995	-42.84
234.213	30.89
234.43	-28.5
234.648	84.14
234.865	26.79
235.083	28.84
235.3	14.51
235.518	39.08
235.735	94.38
235.953	100.52
236.17	-30.55
236.388	-12.12
236.605	37.03
236.822	41.13
237.04	-34.64
237.257	-3.93
237.475	32.94
237.692	-65.36
237.909	8.36
238.127	77.99
238.344	-28.5
238.562	55.47
238.779	26.79
238.996	12.46
239.214	39.08
239.431	-1.88
239.648	14.51
239.865	51.37
240.083	-1.88
240.3	-18.26
240.517	8.36
240.735	34.99
240.952	22.7
241.169	10.41
241.386	-8.02
241.603	-57.17
241.821	28.84
242.038	22.7
242.255	-26.45
242.472	-22.36
242.689	-51.03
242.907	88.23
243.124	57.51
243.341	32.94
243.558	41.13
243.775	92.33
243.992	12.46
244.209	-3.93
244.426	47.27
244.643	-3.93
244.86	-12.12
245.078	32.94
245.295	-10.07
245.512	34.99
245.729	30.89
245.946	51.37
246.163	12.46
246.38	10.41
246.597	41.13
246.814	-14.17
247.031	-38.74
247.248	-22.36
247.464	55.47
247.681	32.94
247.898	39.08
248.115	-10.07
248.332	-18.26
248.549	57.51
248.766	8.36
248.983	-8.02
249.2	-85.84
249.417	2.22
249.633	14.51
249.85	57.51
250.067	-61.27
250.284	45.23
250.501	20.65
250.717	26.79
250.934	-16.21
251.151	-14.17
251.368	51.37
251.585	-30.55
251.801	6.31
252.018	63.66
252.235	53.42
252.451	-12.12
252.668	-10.07
252.885	43.18
253.102	-5.97
253.318	-22.36
253.535	37.03
253.752	10.41
253.968	28.84
254.185	-81.75
254.401	51.37
254.618	24.75
254.835	-3.93
255.051	77.99
255.268	-8.02
255.484	-10.07
255.701	-40.79
255.917	12.46
256.134	-16.21
256.351	-16.21
256.567	22.7
256.784	53.42
257	-16.21
257.217	-3.93
257.433	41.13
257.65	39.08
257.866	0.17
258.082	2.22
258.299	-1.88
258.515	34.99
258.732	-36.69
258.948	55.47
259.165	-14.17
259.381	34.99
259.597	4.27
259.814	16.55
260.03	61.61
260.246	-77.65
260.463	-5.97
260.679	14.51
260.895	22.7
261.112	-8.02
261.328	-10.07
261.544	-36.69
261.761	24.75
261.977	82.09
262.193	2.22
262.409	88.23
262.626	10.41
262.842	-18.26
263.058	-42.84
263.274	14.51
263.49	8.36
263.707	37.03
263.923	-34.64
264.139	-79.7
264.355	12.46
264.571	43.18
264.787	10.41
265.004	4.27
265.22	16.55
265.436	-8.02
265.652	12.46
265.868	20.65
266.084	-38.74
266.3	32.94
266.516	-42.84
266.732	10.41
266.948	-36.69
267.164	18.6
267.38	10.41
267.596	39.08
267.812	53.42
268.028	20.65
268.244	34.99
268.46	51.37
268.676	14.51
268.892	65.71
269.108	0.17
269.324	20.65
269.54	-28.5
269.756	-53.08
269.972	24.75
270.188	18.6
270.403	-14.17
270.619	24.75
270.835	2.22
271.051	-20.31
271.267	2.22
271.483	-46.93
271.698	18.6
271.914	-26.45
272.13	34.99
272.346	39.08
272.562	-1.88
272.777	71.85
272.993	-26.45
273.209	-40.79
273.425	39.08
273.64	-30.55
273.856	51.37
274.072	77.99
274.287	-12.12
274.503	26.79
274.719	32.94
274.934	26.79
275.15	-10.07
275.366	-10.07
275.581	28.84
275.797	61.61
276.012	-1.88
276.228	26.79
276.444	34.99
276.659	65.71
276.875	-30.55
277.09	39.08
277.306	-10.07
277.521	-22.36
277.737	-53.08
277.952	45.23
278.168	-8.02
278.383	47.27
278.599	73.9
278.814	30.89
279.03	-1.88
279.245	24.75
279.461	16.55
279.676	47.27
279.892	-34.64
280.107	75.95
280.322	51.37
280.538	6.31
280.753	34.99
280.969	34.99
281.184	-18.26
281.399	-42.84
281.615	-32.6
281.83	2.22
282.045	16.55
282.26	34.99
282.476	10.41
282.691	-34.64
282.906	90.28
283.122	-16.21
283.337	20.65
283.552	14.51
283.767	-22.36
283.983	30.89
284.198	6.31
284.413	-5.97
284.628	-55.12
284.843	32.94
285.058	39.08
285.274	8.36
285.489	47.27
285.704	43.18
285.919	-20.31
286.134	-12.12
286.349	-20.31
286.564	34.99
286.779	32.94
286.995	16.55
287.21	-46.93
287.425	16.55
287.64	4.27
287.855	22.7
288.07	2.22
288.285	6.31
288.5	26.79
288.715	12.46
288.93	59.56
289.145	12.46
289.36	-10.07
289.575	-30.55
289.79	0.17
290.004	-44.88
290.219	63.66
290.434	47.27
290.649	-48.98
290.864	55.47
291.079	-69.46
291.294	-20.31
291.509	-1.88
291.724	-8.02
291.938	30.89
292.153	-5.97
292.368	-24.4
292.583	51.37
292.798	-18.26
293.012	-32.6
293.227	6.31
293.442	88.23
293.657	8.36
293.871	45.23
294.086	24.75
294.301	-34.64
294.516	37.03
294.73	6.31
294.945	-3.93
295.16	45.23
295.374	16.55
295.589	-24.4
295.804	-8.02
296.018	24.75
296.233	-57.17
296.447	16.55
296.662	-48.98
296.877	39.08
297.091	28.84
297.306	-94.04
297.52	43.18
297.735	80.04
297.949	26.79
298.164	2.22
298.378	0.17
298.593	45.23
298.807	-1.88
299.022	41.13
299.236	-3.93
299.451	18.6
299.665	18.6
299.88	-34.64
300.094	71.85
300.309	-51.03
300.523	47.27
300.737	22.7
300.952	6.31
301.166	0.17
301.381	-65.36
301.595	4.27
301.809	2.22
302.024	100.52
302.238	-32.6
302.452	-18.26
302.667	-3.93
302.881	-69.46
303.095	-3.93
303.309	-26.45
303.524	18.6
303.738	-10.07
303.952	77.99
304.166	49.32
304.381	-1.88
304.595	75.95
304.809	4.27
305.023	14.51
305.237	55.47
305.452	2.22
305.666	30.89
305.88	-24.4
306.094	10.41
306.308	34.99
306.522	34.99
306.736	71.85
306.95	51.37
307.164	16.55
307.379	-51.03
307.593	90.28
307.807	26.79
308.021	51.37
308.235	41.13
308.449	-16.21
308.663	43.18
308.877	-40.79
309.091	26.79
309.305	2.22
309.519	-46.93
309.733	39.08
309.947	20.65
310.161	82.09
310.374	34.99
310.588	16.55
310.802	63.66
311.016	0.17
311.23	24.75
311.444	63.66
311.658	-61.27
311.872	-5.97
312.085	26.79
312.299	26.79
312.513	28.84
312.727	14.51
312.941	-65.36
313.154	-46.93
313.368	-59.22
313.582	59.56
313.796	43.18
314.009	-65.36
314.223	-8.02
314.437	8.36
314.651	-28.5
314.864	-16.21
315.078	-14.17
315.292	34.99
315.505	30.89
315.719	-3.93
315.933	-3.93
316.146	-18.26
316.36	18.6
316.573	57.51
316.787	-5.97
317.001	-10.07
317.214	-8.02
317.428	30.89
317.641	-14.17
317.855	71.85
318.068	-14.17
318.282	-8.02
318.495	-75.6
318.709	-14.17
318.922	18.6
319.136	84.14
319.349	-32.6
319.563	51.37
319.776	41.13
319.99	2.22
320.203	47.27
320.417	-30.55
320.63	12.46
320.843	6.31
321.057	-8.02
321.27	-12.12
321.483	-44.88
321.697	92.33
321.91	-3.93
322.124	73.9
322.337	16.55
322.55	2.22
322.763	20.65
322.977	24.75
323.19	-14.17
323.403	-8.02
323.617	20.65
323.83	34.99
324.043	-14.17
324.256	-14.17
324.469	37.03
324.683	2.22
324.896	-28.5
325.109	-20.31
325.322	-18.26
325.535	-24.4
325.748	-1.88
325.962	18.6
326.175	-10.07
326.388	28.84
326.601	16.55
326.814	30.89
327.027	-12.12
327.24	100.52
327.453	16.55
327.666	14.51
327.879	-81.75
328.092	92.33
328.305	4.27
328.518	-16.21
328.731	69.8
328.944	47.27
329.157	24.75
329.37	-16.21
329.583	0.17
329.796	39.08
330.009	-10.07
330.222	10.41
330.435	-38.74
330.648	14.51
330.861	22.7
331.073	71.85
331.286	-8.02
331.499	63.66
331.712	59.56
331.925	55.47
332.138	4.27
332.35	-5.97
332.563	71.85
332.776	80.04
332.989	-30.55
333.202	20.65
333.414	37.03
333.627	51.37
333.84	45.23
334.053	32.94
334.265	10.41
334.478	86.19
334.691	34.99
334.903	-59.22
335.116	12.46
335.329	8.36
335.541	53.42
335.754	0.17
335.966	53.42
336.179	-8.02
336.392	34.99
336.604	18.6
336.817	57.51
337.029	57.51
337.242	-87.89
337.454	34.99
337.667	-5.97
337.88	53.42
338.092	-69.46
338.305	30.89
338.517	34.99
338.729	-20.31
338.942	-26.45
339.154	80.04
339.367	39.08
339.579	61.61
339.792	20.65
340.004	59.56
340.217	-59.22
340.429	45.23
340.641	-14.17
340.854	-10.07
341.066	-12.12
341.278	41.13
341.491	24.75
341.703	0.17
341.915	2.22
342.128	37.03
342.34	49.32
342.552	41.13
342.764	-5.97
342.977	8.36
343.189	2.22
343.401	10.41
343.613	-3.93
343.826	8.36
344.038	12.46
344.25	16.55
344.462	71.85
344.674	18.6
344.886	-1.88
345.099	63.66
345.311	59.56
345.523	-20.31
345.735	-3.93
345.947	43.18
346.159	-32.6
346.371	10.41
346.583	51.37
346.795	28.84
347.007	-14.17
347.219	110.76
347.431	14.51
347.643	4.27
347.855	28.84
348.067	32.94
348.279	32.94
348.491	28.84
348.703	82.09
348.915	8.36
349.127	-8.02
349.339	-22.36
349.551	47.27
349.763	59.56
349.975	20.65
350.187	59.56
350.399	24.75
350.61	8.36
350.822	24.75
351.034	65.71
351.246	-34.64
351.458	-3.93
351.669	32.94
351.881	43.18
352.093	86.19
352.305	8.36
352.517	26.79
352.728	51.37
352.94	71.85
353.152	18.6
353.363	8.36
353.575	10.41
353.787	77.99
353.999	-14.17
354.21	-30.55
354.422	59.56
354.633	-57.17
354.845	0.17
355.057	12.46
355.268	-36.69
355.48	57.51
355.692	39.08
355.903	-20.31
356.115	6.31
356.326	-1.88
356.538	-96.08
356.749	8.36
356.961	-26.45
357.172	24.75
357.384	-14.17
357.595	10.41
357.807	18.6
358.018	43.18
358.23	45.23
358.441	18.6
358.653	2.22
358.864	12.46
359.075	18.6
359.287	2.22
359.498	-34.64
359.709	-3.93
359.921	32.94
360.132	59.56
360.344	-3.93
360.555	34.99
360.766	73.9
360.977	80.04
361.189	16.55
361.4	-71.51
361.611	-38.74
361.823	32.94
362.034	16.55
362.245	10.41
362.456	-8.02
362.667	-12.12
362.879	-48.98
363.09	16.55
363.301	8.36
363.512	-5.97
363.723	20.65
363.935	10.41
364.146	59.56
364.357	-34.64
364.568	114.86
364.779	18.6
364.99	4.27
365.201	26.79
365.412	2.22
365.623	-28.5
365.834	4.27
366.045	37.03
366.256	-12.12
366.467	82.09
366.678	57.51
366.889	59.56
367.1	16.55
367.311	47.27
367.522	8.36
367.733	-16.21
367.944	65.71
368.155	8.36
368.366	86.19
368.577	-8.02
368.788	-8.02
368.999	-24.4
369.209	-44.88
369.42	4.27
369.631	-5.97
369.842	-28.5
370.053	14.51
370.264	24.75
370.474	43.18
370.685	34.99
370.896	80.04
371.107	6.31
371.317	55.47
371.528	30.89
371.739	34.99
371.95	-18.26
372.16	104.62
372.371	4.27
372.582	43.18
372.792	30.89
373.003	-20.31
373.214	63.66
373.424	77.99
373.635	14.51
373.846	39.08
374.056	-38.74
374.267	6.31
374.477	-30.55
374.688	61.61
374.898	6.31
375.109	14.51
375.319	75.95
375.53	-1.88
375.74	6.31
375.951	37.03
376.161	80.04
376.372	47.27
376.582	26.79
376.793	45.23
377.003	-36.69
377.214	16.55
377.424	-34.64
377.635	-3.93
377.845	110.76
378.055	67.75
378.266	32.94
378.476	34.99
378.686	-10.07
378.897	53.42
379.107	61.61
379.317	20.65
379.528	2.22
379.738	6.31
379.948	24.75
380.158	45.23
380.369	-1.88
380.579	82.09
380.789	-46.93
380.999	20.65
381.21	100.52
381.42	26.79
381.63	12.46
381.84	-3.93
382.05	22.7
382.261	71.85
382.471	-14.17
382.681	-1.88
382.891	-38.74
383.101	18.6
383.311	12.46
383.521	47.27
383.731	92.33
383.941	61.61
384.151	71.85
384.361	4.27
384.571	41.13
384.781	43.18
384.991	49.32
385.201	69.8
385.411	32.94
385.621	45.23
385.831	-14.17
386.041	-26.45
386.251	-10.07
386.461	6.31
386.671	-30.55
386.881	104.62
387.091	-46.93
387.301	45.23
387.511	57.51
387.72	22.7
387.93	4.27
388.14	32.94
388.35	14.51
388.56	-34.64
388.769	41.13
388.979	16.55
389.189	51.37
389.399	32.94
389.609	39.08
389.818	61.61
390.028	-38.74
390.238	12.46
390.447	43.18
390.657	-3.93
390.867	-8.02
391.076	-57.17
391.286	-8.02
391.496	34.99
391.705	55.47
391.915	41.13
392.125	-1.88
392.334	8.36
392.544	100.52
392.753	55.47
392.963	22.7
393.172	16.55
393.382	51.37
393.591	61.61
393.801	45.23
394.01	112.81
394.22	10.41
394.429	16.55
394.639	-38.74
394.848	-22.36
395.058	-38.74
395.267	-5.97
395.477	28.84
395.686	-8.02
395.895	84.14
396.105	84.14
396.314	-10.07
396.524	39.08
396.733	14.51
396.942	88.23
397.152	96.43
397.361	2.22
397.57	94.38
397.78	32.94
397.989	18.6
398.198	75.95
398.407	75.95
398.617	127.14
398.826	-14.17
399.035	32.94
399.244	49.32
399.453	49.32
399.663	61.61
399.872	77.99
400.081	67.75
400.29	49.32
400.499	75.95
400.708	63.66
400.917	30.89
401.127	61.61
401.336	73.9
401.545	26.79
401.754	24.75
401.963	34.99
402.172	12.46
402.381	6.31
402.59	84.14
402.799	55.47
403.008	8.36
403.217	30.89
403.426	77.99
403.635	67.75
403.844	57.51
404.053	114.86
404.262	53.42
404.471	96.43
404.68	77.99
404.888	18.6
405.097	55.47
405.306	77.99
405.515	141.48
405.724	59.56
405.933	94.38
406.142	86.19
406.35	121
406.559	77.99
406.768	102.57
406.977	104.62
407.185	125.1
407.394	73.9
407.603	-36.69
407.812	116.9
408.02	92.33
408.229	98.47
408.438	88.23
408.646	104.62
408.855	28.84
409.064	178.34
409.272	139.43
409.481	77.99
409.69	90.28
409.898	118.95
410.107	184.49
410.315	141.48
410.524	161.96
410.733	252.07
410.941	90.28
411.15	147.62
411.358	110.76
411.567	204.97
411.775	170.15
411.984	168.1
412.192	194.73
412.401	336.04
412.609	157.86
412.818	250.02
413.026	188.58
413.234	270.5
413.443	108.71
413.651	262.31
413.86	209.06
414.068	256.17
414.276	295.08
414.485	284.84
414.693	278.69
414.901	270.5
415.11	297.13
415.318	317.61
415.526	336.04
415.734	370.85
415.943	258.21
416.151	321.7
416.359	379.04
416.567	424.1
416.776	405.67
416.984	428.2
417.192	473.25
417.4	477.35
417.608	362.66
417.817	503.97
418.025	497.83
418.233	491.68
418.441	481.44
418.649	542.88
418.857	532.64
419.065	581.79
419.273	604.32
419.481	596.13
419.689	635.04
419.897	647.33
420.105	762.02
420.313	694.43
420.521	723.1
420.729	796.83
420.937	764.06
421.145	798.88
421.353	770.21
421.561	893.09
421.769	888.99
421.977	985.24
422.185	929.95
422.393	925.85
422.601	1054.87
422.809	975
423.017	1024.16
423.224	1095.83
423.432	1196.18
423.64	1140.89
423.848	1298.58
424.056	1167.51
424.263	1345.69
424.471	1296.53
424.679	1228.95
424.887	1362.07
425.094	1407.13
425.302	1413.27
425.51	1417.37
425.718	1489.04
425.925	1523.86
426.133	1628.31
426.341	1673.36
426.548	1755.28
426.756	1740.94
426.964	1822.86
427.171	1910.93
427.379	2011.28
427.586	1927.31
427.794	2074.76
428.001	2115.72
428.209	2218.12
428.417	2181.26
428.624	2201.74
428.832	2353.29
429.039	2359.43
429.247	2338.95
429.454	2613.38
429.662	2697.35
429.869	2560.13
430.076	2715.78
430.284	2502.79
430.491	2797.7
430.699	2949.25
430.906	2930.81
431.114	3045.5
431.321	3074.17
431.528	3264.63
431.736	3344.5
431.943	3289.21
432.15	3283.06
432.358	3442.81
432.565	3752.05
432.772	3539.06
432.979	3786.86
433.187	3879.02
433.394	3735.67
433.601	4102.25
433.808	4053.1
434.016	3977.33
434.223	4178.03
434.43	4573.28
434.637	4403.3
434.844	4614.24
435.052	4675.68
435.259	4612.2
435.466	4759.65
435.673	4788.32
435.88	5046.37
436.087	5210.2
436.294	5367.9
436.501	5234.78
436.708	5253.21
436.915	5478.49
437.122	5722.2
437.329	5888.08
437.537	5752.91
437.743	6080.59
437.95	5810.26
438.157	6412.36
438.364	6469.7
438.571	6525
438.778	6512.71
438.985	7045.18
439.192	6727.75
439.399	6959.17
439.606	6801.47
439.813	7247.93
440.02	7505.98
440.227	7639.09
440.433	7559.22
440.64	7643.19
440.847	7708.73
441.054	7919.67
441.261	8163.37
441.467	8286.25
441.674	8466.47
441.881	8626.22
442.088	8939.55
442.294	8728.61
442.501	8792.1
442.708	8955.94
442.914	9656.34
443.121	9826.32
443.328	9476.12
443.534	10235.92
443.741	10045.46
443.948	9744.41
444.154	10555.4
444.361	10612.74
444.568	10375.18
444.774	10663.94
444.981	10747.91
445.187	10887.17
445.394	11444.22
445.6	11386.88
445.807	12359.66
446.013	11798.52
446.22	12081.14
446.426	12437.48
446.633	12535.79
446.839	13066.21
447.046	12662.76
447.252	13297.63
447.459	13236.19
447.665	12924.9
447.871	13785.05
448.078	14163.92
448.284	13707.23
448.491	14008.28
448.697	14366.67
448.903	14630.86
449.11	14755.79
449.316	14413.77
449.522	14858.18
449.728	15108.04
449.935	15316.93
450.141	15370.18
450.347	15622.08
450.553	14960.58
450.76	15361.98
450.966	15734.71
451.172	15648.7
451.378	16058.29
451.584	15349.7
451.791	16125.88
451.997	15706.04
452.203	16105.4
452.409	16302
452.615	16220.08
452.821	15503.29
453.027	15484.86
453.233	16162.74
453.44	15464.38
453.646	15450.05
453.852	15652.8
454.058	16031.67
454.264	15329.22
454.47	15753.15
454.676	15501.25
454.882	15851.45
455.088	14254.03
455.294	14702.54
455.5	14936.01
455.705	14862.28
455.911	14342.1
456.117	14114.77
456.323	13916.12
456.529	13305.82
456.735	13721.56
456.941	13420.51
457.147	13109.22
457.352	12703.72
457.558	12507.12
457.764	12509.16
457.97	12402.67
458.176	12199.92
458.381	12021.75
458.587	11366.4
458.793	11501.56
458.999	10977.28
459.204	11669.5
459.41	11460.6
459.616	10625.03
459.821	10571.79
460.027	10426.38
460.233	10418.19
460.438	9832.47
460.644	9834.52
460.85	9455.64
461.055	9269.28
461.261	9363.48
461.466	8749.09
461.672	8476.71
461.878	8863.78
462.083	8202.29
462.289	8171.57
462.494	8155.18
462.7	7710.77
462.905	7682.1
463.111	7833.65
463.316	7987.25
463.522	7516.22
463.727	7821.36
463.932	7667.77
464.138	7575.61
464.343	7667.77
464.549	7563.32
464.754	7684.15
464.959	7833.65
465.165	7737.4
465.37	7426.11
465.575	7108.67
465.781	7479.35
465.986	7583.8
466.191	7123.01
466.397	7166.01
466.602	6709.32
466.807	7118.91
467.012	6959.17
467.218	6985.79
467.423	6993.98
467.628	6672.45
467.833	7292.99
468.038	6963.26
468.244	6991.94
468.449	6942.78
468.654	6723.65
468.859	6740.04
469.064	6703.17
469.269	6486.09
469.474	6436.94
469.679	6703.17
469.885	6309.96
470.09	6395.98
470.295	6572.1
470.5	6346.83
470.705	6389.83
470.91	6027.34
471.115	6099.02
471.32	6152.27
471.525	6187.08
471.73	5984.34
471.935	6058.06
472.139	5859.41
472.344	5976.14
472.549	5763.15
472.754	5750.87
472.959	5693.52
473.164	5484.63
473.369	5380.18
473.574	5847.12
473.778	5617.75
473.983	5541.97
474.188	5548.12
474.393	5316.7
474.598	5384.28
474.802	5095.52
475.007	5191.77
475.212	5202.01
475.417	5021.79
475.621	5032.03
475.826	5101.66
476.031	4921.44
476.235	4853.86
476.44	5032.03
476.645	4847.71
476.849	4814.95
477.054	4841.57
477.259	4798.56
477.463	4634.72
477.668	4667.49
477.872	4745.31
478.077	4638.82
478.282	4565.09
478.486	4431.98
478.691	4466.79
478.895	4350.06
479.1	4325.48
479.304	4444.26
479.509	4198.51
479.713	4341.86
479.918	4286.57
480.122	4198.51
480.326	4300.91
480.531	4163.69
480.735	4145.26
480.94	4114.54
481.144	4288.62
481.348	4098.16
481.553	4151.4
481.757	3985.52
481.961	4112.49
482.166	4210.79
482.37	4188.27
482.574	4106.35
482.778	4003.95
482.983	4132.97
483.187	4022.38
483.391	4149.36
483.595	4001.9
483.8	4065.39
484.004	4063.34
484.208	4157.55
484.412	4098.16
484.616	4188.27
484.821	4184.17
485.025	3885.17
485.229	4196.46
485.433	4178.03
485.637	4053.1
485.841	4112.49
486.045	4059.24
486.249	4114.54
486.453	3942.51
486.657	4118.64
486.861	4145.26
487.065	3919.98
487.269	4079.72
487.473	4032.62
487.677	4178.03
487.881	4120.68
488.085	4034.67
488.289	4167.79
488.493	4042.86
488.697	4157.55
488.901	4008.05
489.105	4065.39
489.309	4022.38
489.512	4094.06
489.716	4153.45
489.92	4235.37
490.124	3967.09
490.328	4153.45
490.531	4208.75
490.735	4311.14
490.939	4216.94
491.143	4032.62
491.346	4270.19
491.55	4268.14
491.754	4268.14
491.958	4321.38
492.161	4184.17
492.365	4200.55
492.569	4313.19
492.772	4206.7
492.976	4468.84
493.18	4360.3
493.383	4411.5
493.587	4397.16
493.79	4485.22
493.994	4423.78
494.197	4561
494.401	4591.72
494.605	4505.7
494.808	4718.69
495.012	4675.68
495.215	4653.16
495.419	4667.49
495.622	4806.75
495.825	4833.38
496.029	4745.31
496.232	4792.42
496.436	4935.78
496.639	4999.26
496.843	5005.41
497.046	5083.23
497.249	5251.16
497.453	5189.72
497.656	5140.57
497.859	5417.05
498.063	5447.77
498.266	5451.86
498.469	5359.7
498.673	5564.5
498.876	5597.27
499.079	5810.26
499.282	5664.85
499.485	5791.83
499.689	5937.23
499.892	5851.22
500.095	5906.51
500.298	6002.77
500.501	6058.06
500.705	6395.98
500.908	6197.32
501.111	6422.6
501.314	6539.33
501.517	6570.05
501.72	6629.45
501.923	6705.22
502.126	6793.28
502.329	6885.44
502.532	6916.16
502.735	6889.54
502.938	7116.86
503.141	7084.09
503.344	7219.26
503.547	7170.11
503.75	7413.82
503.953	7479.35
504.156	7567.42
504.359	7610.42
504.562	7608.37
504.765	7938.1
504.968	7974.96
505.17	8146.99
505.373	8153.13
505.576	8167.47
505.779	8411.18
505.982	8386.6
506.185	8808.48
506.387	8583.21
506.59	8769.57
506.793	8841.25
506.996	8849.44
507.198	9107.49
507.401	9201.69
507.604	9289.76
507.807	9429.02
508.009	9568.28
508.212	9619.48
508.415	9830.42
508.617	9924.63
508.82	9992.21
509.022	9941.01
509.225	10477.58
509.428	10369.04
509.63	10362.89
509.833	10678.28
510.035	10711.05
510.238	10856.45
510.44	10926.08
510.643	11069.44
510.845	11253.76
511.048	11053.06
511.25	11509.76
511.453	11468.8
511.655	11845.62
511.858	11728.89
512.06	11941.88
512.262	12128.24
512.465	12259.31
512.667	12371.95
512.87	12543.98
513.072	12619.75
513.274	13051.88
513.477	13123.55
513.679	13111.27
513.881	13264.86
514.084	13410.27
514.286	13553.63
514.488	13610.97
514.69	13995.99
514.893	14069.72
515.095	14270.42
515.297	14335.95
515.499	14477.26
515.701	14624.72
515.904	14847.94
516.106	14880.71
516.308	14972.87
516.51	15300.55
516.712	15583.16
516.914	15556.54
517.116	15964.09
517.318	15957.94
517.52	16199.6
517.722	16039.86
517.925	16551.85
518.127	16658.35
518.329	16893.86
518.531	16949.16
518.733	17186.72
518.935	17469.34
519.136	17344.42
519.338	17801.12
519.54	17887.13
519.742	17870.75
519.944	18300.82
520.146	18630.54
520.348	18565.01
520.55	18884.49
520.752	18866.06
520.954	19238.79
521.155	19218.31
521.357	19421.06
521.559	19654.53
521.761	19939.19
521.963	20019.07
522.164	20082.55
522.366	20189.05
522.568	20739.95
522.77	20551.54
522.971	21010.28
523.173	20752.24
523.375	21159.78
523.576	21258.09
523.778	21274.47
523.98	21440.36
524.181	21718.88
524.383	21741.41
524.584	21905.24
524.786	22050.65
524.988	22001.5
525.189	22245.21
525.391	22579.03
525.592	22562.64
525.794	22609.75
525.995	22941.52
526.197	22820.69
526.398	22744.91
526.6	23131.98
526.801	23240.52
527.003	23443.27
527.204	23764.8
527.406	23727.94
527.607	23697.22
527.808	23711.55
528.01	23482.18
528.211	23613.25
528.412	23961.41
528.614	24299.32
528.815	24063.8
529.016	24495.92
529.218	24047.42
529.419	24112.95
529.62	24399.67
529.822	24149.82
530.023	24495.92
530.224	24264.5
530.425	24684.34
530.626	24403.77
530.828	24706.87
531.029	25278.25
531.23	24678.19
531.431	24854.32
531.632	25061.16
531.833	25030.44
532.035	24764.21
532.236	25188.14
532.437	25648.93
532.638	25276.2
532.839	25280.3
533.04	25483.05
533.241	24956.72
533.442	25274.15
533.643	25519.91
533.844	25489.19
534.045	25235.24
534.246	24923.95
534.447	25534.25
534.648	25253.67
534.849	25499.43
535.05	25476.9
535.251	25552.68
535.451	25454.37
535.652	25728.8
535.853	25573.16
536.054	25397.03
536.255	25526.05
536.456	25603.88
536.657	25988.89
536.857	25495.33
537.058	25308.97
537.259	25741.09
537.46	25835.3
537.66	25573.16
537.861	25843.49
538.062	25982.75
538.263	26009.37
538.463	25751.33
538.664	25470.76
538.865	25964.32
539.065	25708.32
539.266	25435.94
539.466	25913.12
539.667	25607.97
539.868	26156.83
540.068	25765.67
540.269	25671.46
540.469	25796.39
540.67	25802.53
540.87	25952.03
541.071	25847.58
541.271	26007.33
541.472	25866.02
541.672	25792.29
541.873	25827.1
542.073	25265.96
542.274	25962.27
542.474	25470.76
542.675	25761.57
542.875	25882.4
543.075	25749.28
543.276	25431.85
543.476	26169.12
543.676	25755.43
543.877	26095.39
544.077	25679.65
544.277	25816.86
544.478	25624.36
544.678	25937.69
544.878	25671.46
545.078	26117.92
545.279	25610.02
545.479	25521.96
545.679	26093.34
545.879	25607.97
546.079	25657.12
546.28	25884.45
546.48	25816.86
546.68	25820.96
546.88	26146.59
547.08	25917.22
547.28	25859.87
547.48	25597.73
547.68	25890.59
547.88	25575.2
548.081	26081.05
548.281	25765.67
548.481	25638.69
548.681	25866.02
548.881	25638.69
549.081	25794.34
549.28	25618.21
549.48	26162.97
549.68	25927.46
549.88	25941.79
550.08	25483.05
550.28	25757.47
550.48	25497.38
550.68	26005.28
550.88	25546.53
551.08	25759.52
551.279	25870.11
551.479	25548.58
551.679	25485.09
551.879	25544.48
552.079	25845.54
552.278	25493.29
552.478	25769.76
552.678	25585.44
552.878	25851.68
553.077	25773.86
553.277	25341.74
553.477	25868.06
553.676	25548.58
553.876	25456.42
554.076	25339.69
554.275	25741.09
554.475	25282.34
554.674	25564.96
554.874	25253.67
555.074	25366.31
555.273	25650.98
555.473	25802.53
555.672	25294.63
555.872	25206.57
556.071	25567.01
556.271	25495.33
556.47	25274.15
556.67	25196.33
556.869	25055.02
557.068	25331.5
557.268	25157.42
557.467	25206.57
557.667	25007.92
557.866	25155.37
558.065	24936.24
558.265	24837.94
558.464	24577.84
558.663	24803.12
558.863	24753.97
559.062	24897.33
559.261	24735.54
559.461	24948.53
559.66	24303.42
559.859	24919.85
560.058	24420.15
560.258	24590.13
560.457	24426.29
560.656	24594.23
560.855	24463.16
561.054	24534.84
561.253	24403.77
561.453	24422.2
561.652	24512.31
561.851	24446.77
562.05	24123.19
562.249	23969.6
562.448	24690.48
562.647	24215.35
562.846	24284.98
563.045	24237.88
563.244	23684.93
563.443	24342.33
563.642	23668.55
563.841	24057.66
564.04	24072
564.239	23969.6
564.438	23990.08
564.637	23977.79
564.836	23670.59
565.035	23439.17
565.234	23703.36
565.432	23484.23
565.631	23494.47
565.83	23664.45
566.029	23254.86
566.228	23379.78
566.427	23478.08
566.625	23265.1
566.824	22894.41
567.023	23414.6
567.222	23134.03
567.42	23365.45
567.619	23211.85
567.818	23027.53
568.016	22755.15
568.215	23289.67
568.414	23093.07
568.612	22908.75
568.811	22826.83
569.01	22802.25
569.208	22550.35
569.407	22880.08
569.605	22660.94
569.804	22714.19
570.002	22407
570.201	22290.26
570.4	22134.62
570.598	22052.7
570.797	22177.62
570.995	22294.36
571.193	21956.44
571.392	21989.21
571.59	21974.88
571.789	21692.26
571.987	21682.02
572.186	22054.75
572.384	21186.41
572.582	21821.28
572.781	21802.85
572.979	21276.52
573.177	21559.14
573.376	21092.2
573.574	21043.05
573.772	21284.71
573.971	21305.19
574.169	20971.37
574.367	20864.88
574.565	20883.31
574.763	20666.22
574.962	20664.18
575.16	20742
575.358	20848.49
575.556	20754.29
575.754	20680.56
575.952	20479.86
576.151	20559.73
576.349	20395.89
576.547	20459.38
576.745	20373.36
576.943	20307.83
577.141	20303.73
577.339	20285.3
577.537	19978.11
577.735	19806.08
577.933	19873.66
578.131	19804.03
578.329	19767.17
578.527	19629.95
578.725	19756.93
578.923	19609.47
579.121	19644.29
579.319	19675.01
579.516	19492.74
579.714	19335.04
579.912	19464.07
580.11	19128.2
580.308	19251.08
580.506	19189.64
580.704	18773.9
580.901	18728.84
581.099	18984.84
581.297	18909.07
581.495	18612.11
581.692	18960.27
581.89	18691.98
582.088	18796.43
582.285	18708.37
582.483	18902.92
582.681	18597.77
582.878	18591.63
583.076	18143.13
583.274	18306.96
583.471	18235.28
583.669	18214.8
583.866	18106.26
584.064	18233.24
584.262	17823.64
584.459	18233.24
584.657	17819.55
584.854	18177.94
585.052	17878.94
585.249	17692.57
585.447	17897.37
585.644	17577.89
585.841	17725.34
586.039	17768.35
586.236	17323.94
586.434	17502.11
586.631	17115.05
586.828	17295.27
587.026	17258.4
587.223	17448.86
587.42	17297.31
587.618	17231.78
587.815	17141.67
588.012	16793.51
588.21	17141.67
588.407	17147.81
588.604	16998.31
588.801	16930.73
588.999	16732.08
589.196	16719.79
589.393	16830.38
589.59	16713.64
589.787	16480.18
589.984	16654.25
590.182	16261.04
590.379	16553.9
590.576	16252.85
590.773	16359.35
590.97	16164.79
591.167	16334.77
591.364	16404.4
591.561	16218.04
591.758	15916.98
591.955	16091.06
592.152	16013.24
592.349	15882.17
592.546	15949.75
592.743	15769.53
592.94	15900.6
593.137	15921.08
593.334	15972.28
593.531	15642.56
593.727	15820.73
593.924	15568.83
594.121	15706.04
594.318	15593.4
594.515	15404.99
594.712	15427.52
594.908	15376.32
595.105	15486.91
595.302	15146.95
595.499	15337.41
595.696	15388.61
595.892	15042.5
596.089	15142.85
596.286	15065.03
596.482	15036.36
596.679	14972.87
596.876	15132.61
597.072	14845.9
597.269	14786.51
597.466	14712.78
597.662	14868.42
597.859	14843.85
598.055	14594
598.252	14356.43
598.448	14477.26
598.645	14354.38
598.841	14434.25
599.038	14458.83
599.234	14415.82
599.431	14542.8
599.627	14131.16
599.824	14526.41
600.02	14297.04
600.217	14100.44
600.413	14090.2
600.609	14141.39
600.806	14096.34
601.002	13959.13
601.198	13850.58
601.395	13731.8
601.591	13856.73
601.787	13862.87
601.984	13615.07
602.18	13866.97
602.376	13748.18
602.572	13490.14
602.769	13481.95
602.965	13461.47
603.161	13565.92
603.357	13402.08
603.553	13522.91
603.75	13498.33
603.946	13203.43
604.142	13131.75
604.338	12984.29
604.534	12941.29
604.73	13086.69
604.926	12931.05
605.122	12959.72
605.318	12799.98
605.514	13043.68
605.71	13000.68
605.906	12947.43
606.102	12537.84
606.298	12838.89
606.494	12687.34
606.69	12761.06
606.886	12767.21
607.082	12562.41
607.278	12460.01
607.474	12337.13
607.67	12466.16
607.866	12247.02
608.062	12460.01
608.257	12478.44
608.453	12300.27
608.649	12285.94
608.845	12326.89
609.041	12021.75
609.236	12290.03
609.432	12081.14
609.628	12206.06
609.824	11970.55
610.019	11868.15
610.215	11728.89
610.411	12007.41
610.606	11819
610.802	11995.12
610.998	11855.86
611.193	11841.53
611.389	11864.05
611.584	11556.86
611.78	11468.8
611.976	11679.74
612.171	11503.61
612.367	11481.08
612.562	11444.22
612.758	11411.45
612.953	11413.5
613.149	11589.63
613.344	11407.36
613.539	11536.38
613.735	11329.53
613.93	11446.27
614.126	11110.4
614.321	11104.26
614.517	11274.24
614.712	11364.35
614.907	11100.16
615.103	11116.55
615.298	10924.04
615.493	11149.31
615.688	10876.93
615.884	11077.63
616.079	10956.8
616.274	10919.94
616.47	10960.9
616.665	11134.98
616.86	10637.32
617.055	10842.12
617.25	10592.27
617.445	10817.54
617.641	10571.79
617.836	10663.94
618.031	10717.19
618.226	10594.31
618.421	10702.86
618.616	10665.99
618.811	10426.38
619.006	10577.93
619.201	10260.49
619.396	10301.45
619.591	10110.99
619.786	10319.89
619.981	10215.44
620.176	10252.3
620.371	10078.22
620.566	9981.97
620.761	10043.41
620.956	9998.35
621.151	9803.8
621.346	10088.46
621.541	9654.3
621.735	9766.93
621.93	9695.25
622.125	9674.78
622.32	9541.66
622.515	9830.42
622.709	9621.53
622.904	9588.76
623.099	9519.13
623.294	9744.41
623.488	9170.97
623.683	9304.09
623.878	9111.58
624.072	9291.8
624.267	9125.92
624.462	9050.14
624.656	9160.73
624.851	8951.84
625.046	8820.77
625.24	8876.07
625.435	8863.78
625.629	8831.01
625.824	8724.52
626.018	8837.16
626.213	8343.6
626.407	8656.93
626.602	8292.4
626.796	8345.64
626.991	8534.06
627.185	8435.75
627.38	8300.59
627.574	8409.13
627.768	8005.68
627.963	8431.66
628.157	7997.49
628.352	8255.53
628.546	7897.14
628.74	8099.89
628.935	7968.82
629.129	7942.19
629.323	7911.47
629.517	7954.48
629.712	7852.08
629.906	7936.05
630.1	7600.18
630.294	7526.46
630.489	7739.44
630.683	7663.67
630.877	7526.46
631.071	7393.34
631.265	7491.64
631.459	7467.06
631.653	7317.56
631.848	7288.89
632.042	7290.94
632.236	7376.95
632.43	7407.67
632.624	7505.98
632.818	7184.45
633.012	7080
633.206	7057.47
633.4	7096.38
633.594	7161.92
633.788	6985.79
633.982	7016.51
634.176	7082.05
634.369	6834.24
634.563	6873.15
634.757	6774.85
634.951	6768.71
635.145	6885.44
635.339	6688.84
635.533	6725.7
635.726	6709.32
635.92	6656.07
636.114	6467.66
636.308	6488.14
636.501	6580.29
636.695	6643.78
636.889	6441.03
637.083	6406.22
637.276	6375.5
637.47	6463.56
637.664	6221.9
637.857	6441.03
638.051	6488.14
638.244	6299.72
638.438	6144.08
638.632	6074.45
638.825	6121.55
639.019	6086.73
639.212	6008.91
639.406	6090.83
639.599	6209.61
639.793	5959.76
639.986	5922.9
640.18	5939.28
640.373	5924.94
640.567	5959.76
640.76	5834.83
640.954	5793.87
641.147	5566.55
641.34	5679.19
641.534	5566.55
641.727	5402.71
641.92	5660.76
642.114	5578.84
642.307	5591.13
642.5	5474.39
642.694	5240.92
642.887	5341.27
643.08	5449.82
643.273	5300.31
643.467	5288.03
643.66	5343.32
643.853	5159
644.046	5134.43
644.239	5253.21
644.432	5089.37
644.626	5052.51
644.819	5001.31
645.012	5054.56
645.205	5152.86
645.398	4911.2
645.591	4937.82
645.784	4907.1
645.977	4735.07
646.17	4821.09
646.363	4708.45
646.556	4771.94
646.749	4696.16
646.942	4804.71
647.135	4780.13
647.328	4735.07
647.521	4683.88
647.714	4532.33
647.907	4589.67
648.099	4634.72
648.292	4567.14
648.485	4409.45
648.678	4335.72
648.871	4540.52
649.064	4261.99
649.256	4464.74
649.449	4327.53
649.642	4376.68
649.835	4257.9
650.027	4298.86
650.22	4149.36
650.413	4255.85
650.605	4237.42
650.798	4102.25
650.991	4057.2
651.183	4202.6
651.376	4089.96
651.568	4003.95
651.761	4018.29
651.954	3899.5
652.146	3989.61
652.339	3901.55
652.531	4008.05
652.724	3786.86
652.916	3958.89
653.109	3815.54
653.301	3768.43
653.494	3936.37
653.686	3917.93
653.879	3741.81
654.071	3661.94
654.263	3784.82
654.456	3809.39
654.648	3729.52
654.84	3745.91
655.033	3580.02
655.225	3647.6
655.417	3596.4
655.61	3592.31
655.802	3584.12
655.994	3512.44
656.186	3530.87
656.379	3494.01
656.571	3534.96
656.763	3344.5
656.955	3330.17
657.148	3440.76
657.34	3428.47
657.532	3344.5
657.724	3401.85
657.916	3319.93
658.108	3192.95
658.3	3358.84
658.492	3266.68
658.684	3281.02
658.876	3248.25
659.068	3315.83
659.26	3238.01
659.452	3104.89
659.644	3029.12
659.836	3082.36
660.028	3016.83
660.22	3022.97
660.412	3002.49
660.604	3000.44
660.796	2986.11
660.988	3018.88
661.18	2861.18
661.372	2916.48
661.563	2959.49
661.755	2945.15
661.947	2967.68
662.139	2906.24
662.331	2826.37
662.522	2785.41
662.714	2764.93
662.906	2879.61
663.097	2728.07
663.289	2832.51
663.481	2637.95
663.673	2703.49
663.864	2685.06
664.056	2769.02
664.247	2707.59
664.439	2662.53
664.631	2668.67
664.822	2603.14
665.014	2521.22
665.205	2660.48
665.397	2541.7
665.588	2476.16
665.78	2580.61
665.971	2592.9
666.163	2435.21
666.354	2619.52
666.546	2404.49
666.737	2433.16
666.929	2441.35
667.12	2381.96
667.311	2302.09
667.503	2490.5
667.694	2418.82
667.885	2394.25
668.077	2367.62
668.268	2271.37
668.459	2341
668.651	2408.58
668.842	2295.94
669.033	2193.55
669.224	2230.41
669.416	2390.15
669.607	2345.09
669.798	2224.26
669.989	2312.33
670.18	2297.99
670.371	2263.18
670.563	2295.94
670.754	2211.98
670.945	2203.79
671.136	2236.55
671.327	2093.19
671.518	2199.69
671.709	2130.06
671.9	2123.91
672.091	2179.21
672.282	2093.19
672.473	2091.15
672.664	2039.95
672.855	2136.2
673.046	2056.33
673.237	2007.18
673.428	2115.72
673.619	2037.9
673.809	2050.19
674	2054.28
674.191	2039.95
674.382	2039.95
674.573	2080.91
674.764	2050.19
674.954	1980.56
675.145	1976.46
675.336	1910.93
675.527	2074.76
675.717	1937.55
675.908	1992.84
676.099	1996.94
676.289	1892.49
676.48	2078.86
676.671	1937.55
676.861	2005.13
677.052	1816.72
677.243	1882.25
677.433	1908.88
677.624	1984.65
677.814	1880.21
678.005	1900.69
678.195	1865.87
678.386	1976.46
678.576	1796.24
678.767	1929.36
678.957	1857.68
679.148	1859.73
679.338	1845.39
679.529	1874.06
679.719	1915.02
679.909	1978.51
680.1	1829.01
680.29	1816.72
680.481	1835.15
680.671	1923.21
680.861	1835.15
681.052	1843.34
681.242	1831.05
681.432	1884.3
681.622	1892.49
681.813	1753.23
682.003	1810.58
682.193	1857.68
682.383	1882.25
682.573	1833.1
682.764	1720.46
682.954	1794.19
683.144	1781.9
683.334	1773.71
683.524	1745.04
683.714	1767.57
683.904	1796.24
684.094	1759.38
684.284	1788.05
684.474	1755.28
684.664	1706.13
684.854	1738.9
685.044	1671.31
685.234	1673.36
685.424	1763.47
685.614	1689.74
685.804	1648.79
685.994	1786
686.184	1738.9
686.374	1718.42
686.564	1747.09
686.753	1710.22
686.943	1843.34
687.133	1716.37
687.323	1763.47
687.513	1638.55
687.702	1699.98
687.892	1667.22
688.082	1687.7
688.272	1636.5
688.461	1726.61
688.651	1722.51
688.841	1726.61
689.03	1704.08
689.22	1697.94
689.41	1710.22
689.599	1675.41
689.789	1704.08
689.979	1636.5
690.168	1677.46
690.358	1788.05
690.547	1618.07
690.737	1738.9
690.926	1679.51
691.116	1601.68
691.305	1675.41
691.495	1749.14
691.684	1611.92
691.874	1697.94
692.063	1646.74
692.252	1665.17
692.442	1671.31
692.631	1687.7
692.82	1718.42
693.01	1654.93
693.199	1710.22
693.388	1611.92
693.578	1681.55
693.767	1652.88
693.956	1689.74
694.146	1669.27
694.335	1599.63
694.524	1683.6
694.713	1716.37
694.902	1659.03
695.092	1605.78
695.281	1523.86
695.47	1706.13
695.659	1654.93
695.848	1693.84
696.037	1689.74
696.226	1693.84
696.415	1697.94
696.604	1702.03
696.793	1620.11
696.982	1734.8
697.171	1687.7
697.36	1751.18
697.549	1704.08
697.738	1691.79
697.927	1695.89
698.116	1669.27
698.305	1663.12
698.494	1702.03
698.683	1685.65
698.872	1734.8
699.061	1726.61
699.25	1585.3
699.438	1681.55
699.627	1665.17
699.816	1687.7
700.005	1654.93
700.193	1656.98
700.382	1697.94
700.571	1611.92
700.76	1708.18
700.948	1689.74
701.137	1634.45
701.326	1646.74
701.514	1683.6
701.703	1611.92
701.892	1536.15
702.08	1763.47
702.269	1675.41
702.457	1736.85
702.646	1687.7
702.834	1624.21
703.023	1597.59
703.212	1656.98
703.4	1706.13
703.589	1521.81
703.777	1669.27
703.965	1607.83
704.154	1644.69
704.342	1706.13
704.531	1665.17
704.719	1656.98
704.907	1575.06
705.096	1593.49
705.284	1585.3
705.472	1605.78
705.661	1573.01
705.849	1611.92
706.037	1511.57
706.226	1646.74
706.414	1513.62
706.602	1456.28
706.79	1691.79
706.979	1689.74
707.167	1519.76
707.355	1544.34
707.543	1521.81
707.731	1648.79
707.919	1552.53
708.107	1482.9
708.296	1593.49
708.484	1538.2
708.672	1509.52
708.86	1583.25
709.048	1575.06
709.236	1552.53
709.424	1579.15
709.612	1595.54
709.8	1519.76
709.988	1474.71
710.176	1634.45
710.364	1470.61
710.551	1585.3
710.739	1587.35
710.927	1640.59
711.115	1468.56
711.303	1540.24
711.491	1527.96
711.679	1489.04
711.866	1521.81
712.054	1575.06
712.242	1427.6
712.43	1573.01
712.617	1302.68
712.805	1466.52
712.993	1513.62
713.181	1409.17
713.368	1464.47
713.556	1452.18
713.744	1558.67
713.931	1491.09
714.119	1452.18
714.306	1380.5
714.494	1384.6
714.682	1368.21
714.869	1372.31
715.057	1374.36
715.244	1345.69
715.432	1407.13
715.619	1407.13
715.807	1374.36
715.994	1419.41
716.182	1366.17
716.369	1314.97
716.556	1323.16
716.744	1427.6
716.931	1312.92
717.119	1339.54
717.306	1374.36
717.493	1292.44
717.681	1360.02
717.868	1280.15
718.055	1255.58
718.242	1286.3
718.43	1274.01
718.617	1222.81
718.804	1321.11
718.991	1233.05
719.179	1351.83
719.366	1257.62
719.553	1220.76
719.74	1253.53
719.927	1366.17
720.114	1271.96
720.301	1245.34
720.488	1308.82
720.676	1255.58
720.863	1302.68
721.05	1341.59
721.237	1312.92
721.424	1206.42
721.611	1255.58
721.798	1194.14
721.985	1202.33
722.172	1265.82
722.358	1243.29
722.545	1263.77
722.732	1194.14
722.919	1247.38
723.106	1163.42
723.293	1177.75
723.48	1185.94
723.667	1165.46
723.853	1202.33
724.04	1153.18
724.227	1128.6
724.414	1147.03
724.6	1155.23
724.787	1173.66
724.974	1089.69
725.161	1120.41
725.347	1216.66
725.534	1071.26
725.72	1157.27
725.907	1169.56
726.094	1130.65
726.28	1126.55
726.467	1040.54
726.653	1095.83
726.84	1233.05
727.027	1144.99
727.213	1028.25
727.4	1056.92
727.586	1124.51
727.773	1138.84
727.959	1173.66
728.145	960.67
728.332	1165.46
728.518	1028.25
728.705	1048.73
728.891	1085.59
729.077	1132.7
729.264	1104.03
729.45	1085.59
729.636	1005.72
729.823	1038.49
730.009	942.24
730.195	1073.31
730.382	1024.16
730.568	1061.02
730.754	1007.77
730.94	954.52
731.126	1036.44
731.313	1040.54
731.499	1091.74
731.685	948.38
731.871	1063.07
732.057	1034.39
732.243	972.96
732.429	972.96
732.615	1034.39
732.801	1056.92
732.987	977.05
733.173	950.43
733.359	1054.87
733.545	966.81
733.731	872.61
733.917	1013.92
734.103	952.48
734.289	1118.36
734.475	979.1
734.661	958.62
734.847	917.66
735.033	942.24
735.219	899.23
735.404	915.61
735.59	901.28
735.776	948.38
735.962	835.74
736.148	997.53
736.333	882.85
736.519	854.17
736.705	919.71
736.89	952.48
737.076	987.29
737.262	938.14
737.447	981.15
737.633	866.46
737.819	950.43
738.004	884.89
738.19	819.36
738.375	919.71
738.561	909.47
738.747	891.04
738.932	911.52
739.118	864.41
739.303	848.03
739.489	886.94
739.674	843.93
739.859	921.76
740.045	872.61
740.23	864.41
740.416	872.61
740.601	856.22
740.786	856.22
740.972	872.61
741.157	891.04
741.342	888.99
741.528	747.68
741.713	825.5
741.898	833.69
742.084	858.27
742.269	768.16
742.454	811.17
742.639	698.53
742.824	813.21
743.01	876.7
743.195	723.1
743.38	741.54
743.565	841.89
743.75	819.36
743.935	790.69
744.12	753.82
744.305	733.34
744.49	786.59
744.675	768.16
744.86	708.77
745.045	719.01
745.23	737.44
745.415	755.87
745.6	680.1
745.785	735.39
745.97	688.29
746.155	723.1
746.34	759.97
746.525	739.49
746.71	684.19
746.895	819.36
747.079	667.81
747.264	686.24
747.449	676
747.634	632.99
747.819	698.53
748.003	661.66
748.188	684.19
748.373	628.9
748.557	673.95
748.742	624.8
748.927	587.94
749.111	649.38
749.296	678.05
749.481	680.1
749.665	669.86
749.85	635.04
750.034	667.81
750.219	630.95
750.404	706.72
750.588	589.99
750.773	553.12
750.957	579.75
751.141	628.9
751.326	571.55
751.51	616.61
751.695	549.03
751.879	667.81
752.064	600.23
752.248	620.71
752.432	499.88
752.617	587.94
752.801	565.41
752.985	712.86
753.17	555.17
753.354	516.26
753.538	592.03
753.722	647.33
753.907	624.8
754.091	583.84
754.275	503.97
754.459	561.31
754.643	585.89
754.828	483.49
755.012	493.73
755.196	471.2
755.38	553.12
755.564	573.6
755.748	516.26
755.932	532.64
756.116	446.63
756.3	481.44
756.484	477.35
756.668	528.55
756.852	503.97
757.036	487.59
757.22	467.11
757.404	503.97
757.588	493.73
757.772	540.83
757.956	417.96
758.14	463.01
758.323	497.83
758.507	499.88
758.691	448.68
758.875	469.16
759.059	452.77
759.242	520.35
759.426	508.07
759.61	444.58
759.794	489.64
759.977	415.91
760.161	471.2
760.345	469.16
760.528	458.92
760.712	399.52
760.895	536.74
761.079	424.1
761.263	372.9
761.446	338.09
761.63	377
761.813	415.91
761.997	348.33
762.18	395.43
762.364	450.72
762.547	422.05
762.731	477.35
762.914	372.9
763.098	477.35
763.281	377
763.464	377
763.648	436.39
763.831	420
764.015	422.05
764.198	381.09
764.381	413.86
764.564	413.86
764.748	424.1
764.931	358.57
765.114	399.52
765.297	360.61
765.481	350.37
765.664	374.95
765.847	327.85
766.03	293.03
766.213	366.76
766.397	389.28
766.58	309.41
766.763	409.76
766.946	358.57
767.129	444.58
767.312	358.57
767.495	401.57
767.678	417.96
767.861	331.94
768.044	383.14
768.227	372.9
768.41	372.9
768.593	426.15
768.776	323.75
768.959	327.85
769.142	352.42
769.324	356.52
769.507	426.15
769.69	327.85
769.873	338.09
770.056	411.81
770.239	327.85
770.421	336.04
770.604	340.13
770.787	338.09
770.97	356.52
771.152	327.85
771.335	354.47
771.518	340.13
771.7	336.04
771.883	397.48
772.066	338.09
772.248	350.37
772.431	315.56
772.613	389.28
772.796	319.65
772.978	311.46
773.161	307.37
773.343	313.51
773.526	344.23
773.708	340.13
773.891	268.45
774.073	260.26
774.256	276.65
774.438	288.93
774.621	346.28
774.803	268.45
774.985	329.89
775.168	274.6
775.35	284.84
775.532	385.19
775.715	370.85
775.897	350.37
776.079	354.47
776.261	268.45
776.444	329.89
776.626	333.99
776.808	284.84
776.99	182.44
777.173	356.52
777.355	207.02
777.537	254.12
777.719	256.17
777.901	225.45
778.083	319.65
778.265	229.54
778.447	325.8
778.629	166.06
778.811	239.78
778.993	284.84
779.175	303.27
779.357	200.87
779.539	245.93
779.721	290.98
779.903	278.69
780.085	239.78
780.267	272.55
780.449	270.5
780.631	262.31
780.812	235.69
780.994	239.78
781.176	276.65
781.358	256.17
781.54	209.06
781.721	245.93
781.903	274.6
782.085	157.86
782.267	225.45
782.448	290.98
782.63	196.78
782.812	184.49
782.993	260.26
783.175	196.78
783.357	164.01
783.538	223.4
783.72	168.1
783.901	200.87
784.083	239.78
784.264	209.06
784.446	176.3
784.627	204.97
784.809	221.35
784.99	221.35
785.172	219.3
785.353	264.36
785.535	190.63
785.716	286.89
785.897	166.06
786.079	198.82
786.26	200.87
786.441	172.2
786.623	192.68
786.804	112.81
786.985	223.4
787.167	229.54
787.348	139.43
787.529	145.58
787.71	178.34
787.891	196.78
788.073	112.81
788.254	145.58
788.435	147.62
788.616	202.92
788.797	164.01
788.978	129.19
789.159	198.82
789.34	164.01
789.522	147.62
789.703	192.68
789.884	139.43
790.065	157.86
790.246	94.38
790.427	178.34
790.607	147.62
790.788	164.01
790.969	137.38
791.15	207.02
791.331	178.34
791.512	215.21
791.693	116.9
791.874	192.68
792.054	168.1
792.235	114.86
792.416	186.54
792.597	161.96
792.778	200.87
792.958	110.76
793.139	143.53
793.32	108.71
793.5	141.48
793.681	104.62
793.862	127.14
794.042	84.14
794.223	112.81
794.404	200.87
794.584	145.58
794.765	106.67
794.945	94.38
795.126	141.48
795.306	178.34
795.487	133.29
795.667	118.95
795.848	174.25
796.028	77.99
796.209	108.71
796.389	137.38
796.57	98.47
796.75	127.14
796.93	131.24
797.111	116.9
797.291	121
797.471	141.48
797.652	166.06
797.832	90.28
798.012	155.82
798.192	155.82
798.373	131.24
798.553	98.47
798.733	98.47
798.913	159.91
799.093	96.43
799.274	71.85
799.454	65.71
799.634	118.95
799.814	55.47
799.994	114.86
800.174	166.06
800.354	123.05
800.534	127.14
800.714	123.05
800.894	80.04
801.074	92.33
801.254	100.52
801.434	73.9
801.614	118.95
801.794	112.81
801.974	301.22
802.154	28.84
802.334	96.43
802.514	92.33
802.693	65.71
802.873	94.38
803.053	98.47
803.233	129.19
803.413	59.56
803.592	112.81
803.772	118.95
803.952	112.81
804.131	51.37
804.311	65.71
804.491	65.71
804.67	53.42
804.85	176.3
805.03	18.6
805.209	39.08
805.389	82.09
805.568	77.99
805.748	90.28
805.928	86.19
806.107	77.99
806.287	59.56
806.466	37.03
806.646	71.85
806.825	104.62
807.004	88.23
807.184	30.89
807.363	112.81
807.543	92.33
807.722	53.42
807.901	106.67
808.081	88.23
808.26	10.41
808.439	71.85
808.619	100.52
808.798	16.55
808.977	28.84
809.156	28.84
809.336	61.61
809.515	114.86
809.694	-40.79
809.873	96.43
810.052	65.71
810.231	32.94
810.411	90.28
810.59	59.56
810.769	96.43
810.948	114.86
811.127	82.09
811.306	92.33
811.485	45.23
811.664	37.03
811.843	37.03
812.022	18.6
812.201	141.48
812.38	26.79
812.559	80.04
812.737	77.99
812.916	28.84
813.095	125.1
813.274	2.22
813.453	65.71
813.632	77.99
813.811	84.14
813.989	57.51
814.168	84.14
814.347	100.52
814.526	86.19
814.704	96.43
814.883	67.75
815.062	84.14
815.24	75.95
815.419	71.85
815.598	75.95
815.776	125.1
815.955	57.51
816.133	12.46
816.312	16.55
816.49	80.04
816.669	-3.93
816.847	26.79
817.026	-5.97
817.204	6.31
817.383	47.27
817.561	75.95
817.74	10.41
817.918	34.99
818.097	-3.93
818.275	43.18
818.453	100.52
818.632	-44.88
818.81	32.94
818.988	55.47
819.167	49.32
819.345	98.47
819.523	88.23
819.701	14.51
819.879	16.55
820.058	55.47
820.236	94.38
820.414	-8.02
820.592	26.79
820.77	51.37
820.948	106.67
821.127	30.89
821.305	-61.27
821.483	125.1
821.661	0.17
821.839	123.05
822.017	96.43
822.195	-36.69
822.373	133.29
822.551	94.38
822.729	67.75
822.907	67.75
823.085	125.1
823.262	-10.07
823.44	43.18
823.618	4.27
823.796	61.61
823.974	55.47
824.152	8.36
824.329	55.47
824.507	43.18
824.685	14.51
824.863	-14.17
825.04	24.75
825.218	49.32
825.396	39.08
825.574	49.32
825.751	16.55
825.929	86.19
826.107	63.66
826.284	73.9
826.462	41.13
826.639	77.99
826.817	98.47
826.994	106.67
827.172	82.09
827.349	61.61
827.527	24.75
827.704	24.75
827.882	26.79
828.059	37.03
828.237	57.51
828.414	55.47
828.591	-8.02
828.769	-20.31
828.946	2.22
829.124	-5.97
829.301	34.99
829.478	77.99
829.655	37.03
829.833	4.27
830.01	69.8
830.187	-34.64
830.364	24.75
830.542	43.18
830.719	61.61
830.896	18.6
831.073	94.38
831.25	4.27
831.427	10.41
831.604	22.7
831.782	45.23
831.959	43.18
832.136	-10.07
832.313	18.6
832.49	84.14
832.667	14.51
832.844	43.18
833.021	20.65
833.198	47.27
833.374	69.8
833.551	55.47
833.728	75.95
833.905	30.89
834.082	-5.97
834.259	24.75
834.436	-14.17
834.612	37.03
834.789	73.9
834.966	2.22
835.143	2.22
835.319	-3.93
835.496	-22.36
835.673	24.75
835.85	55.47
836.026	32.94
836.203	28.84
836.38	-3.93
836.556	63.66
836.733	24.75
836.909	26.79
837.086	84.14
837.262	-8.02
837.439	8.36
837.616	96.43
837.792	20.65
837.968	16.55
838.145	20.65
838.321	-1.88
838.498	43.18
838.674	65.71
838.851	-12.12
839.027	6.31
839.203	53.42
839.38	37.03
839.556	-53.08
839.732	14.51
839.909	-42.84
840.085	139.43
840.261	26.79
840.437	37.03
840.614	55.47
840.79	-32.6
840.966	2.22
841.142	-1.88
841.318	-91.99
841.494	63.66
841.671	39.08
841.847	-28.5
842.023	59.56
842.199	26.79
842.375	14.51
842.551	26.79
842.727	14.51
842.903	-10.07
843.079	12.46
843.255	14.51
843.431	51.37
843.607	24.75
843.783	47.27
843.959	-18.26
844.134	6.31
844.31	45.23
844.486	24.75
844.662	82.09
844.838	12.46
845.013	4.27
845.189	0.17
845.365	-24.4
845.541	-1.88
845.716	20.65
845.892	55.47
846.068	20.65
846.244	-16.21
846.419	47.27
846.595	34.99
846.77	-22.36
846.946	12.46
847.122	-32.6
847.297	45.23
847.473	59.56
847.648	-30.55
847.824	24.75
847.999	12.46
848.175	32.94
848.35	-5.97
848.526	8.36
848.701	-20.31
848.876	20.65
849.052	53.42
849.227	10.41
849.403	32.94
849.578	-3.93
849.753	-1.88
849.929	10.41
850.104	-57.17
850.279	-5.97
850.454	59.56
850.63	-16.21
850.805	-30.55
850.98	-14.17
851.155	10.41
851.33	28.84
851.505	65.71
851.681	14.51
851.856	-18.26
852.031	-85.84
852.206	16.55
852.381	28.84
852.556	51.37
852.731	28.84
852.906	30.89
853.081	8.36
853.256	8.36
853.431	63.66
853.606	-14.17
853.781	-32.6
853.956	28.84
854.131	-59.22
854.305	-40.79
854.48	69.8
854.655	-81.75
854.83	51.37
855.005	71.85
855.18	-48.98
855.354	49.32
855.529	51.37
855.704	-5.97
855.879	6.31
856.053	-42.84
856.228	77.99
856.403	-104.28
856.577	59.56
856.752	-8.02
856.926	12.46
857.101	8.36
857.276	-30.55
857.45	43.18
857.625	22.7
857.799	55.47
857.974	32.94
858.148	49.32
858.323	14.51
858.497	20.65
858.672	-61.27
858.846	4.27
859.02	-20.31
859.195	-10.07
859.369	-30.55
859.543	24.75
859.718	-32.6
859.892	2.22
860.066	-32.6
860.241	4.27
860.415	-83.8
860.589	-12.12
860.763	30.89
860.938	-14.17
861.112	-12.12
861.286	63.66
861.46	-3.93
861.634	-46.93
861.808	20.65
861.982	-38.74
862.157	65.71
862.331	0.17
862.505	-22.36
862.679	-40.79
862.853	0.17
863.027	-12.12
863.201	28.84
863.375	-14.17
863.549	47.27
863.722	-3.93
863.896	63.66
864.07	37.03
864.244	-53.08
864.418	37.03
864.592	49.32
864.766	12.46
864.939	41.13
865.113	-26.45
865.287	-3.93
865.461	34.99
865.634	34.99
865.808	24.75
865.982	55.47
866.156	-16.21
866.329	10.41
866.503	2.22
866.676	-42.84
866.85	57.51
867.024	37.03
867.197	-42.84
867.371	18.6
867.544	18.6
867.718	-57.17
867.891	-114.52
868.065	0.17
868.238	10.41
868.412	6.31
868.585	-8.02
868.759	-32.6
868.932	65.71
869.105	-26.45
869.279	-57.17
869.452	8.36
869.625	30.89
869.799	18.6
869.972	41.13
870.145	-14.17
870.319	49.32
870.492	61.61
870.665	-75.6
870.838	14.51
871.011	-24.4
871.185	-44.88
871.358	18.6
871.531	-32.6
871.704	-32.6
871.877	2.22
872.05	-10.07
872.223	-16.21
872.396	10.41
872.569	30.89
872.742	-46.93
872.915	10.41
873.088	41.13
873.261	4.27
873.434	-46.93
873.607	8.36
873.78	-14.17
873.953	129.19
874.126	-32.6
874.299	57.51
874.471	14.51
874.644	-30.55
874.817	4.27
874.99	65.71
875.163	8.36
875.335	-36.69
875.508	-34.64
875.681	-36.69
875.853	12.46
876.026	16.55
876.199	-18.26
876.371	-24.4
876.544	4.27
876.717	20.65
876.889	-26.45
877.062	90.28
877.234	-3.93
877.407	22.7
877.579	-69.46
877.752	24.75
877.924	10.41
878.097	-36.69
878.269	4.27
878.442	30.89
878.614	-30.55
878.786	-30.55
878.959	-40.79
879.131	6.31
879.303	-81.75
879.476	-63.32
879.648	-44.88
879.82	-1.88
879.993	-79.7
880.165	32.94
880.337	-32.6
880.509	28.84
880.681	24.75
880.854	-5.97
881.026	-28.5
881.198	-69.46
881.37	-73.56
881.542	-48.98
881.714	49.32
881.886	16.55
882.058	28.84
882.23	47.27
882.402	-48.98
882.574	-30.55
882.746	37.03
882.918	28.84
883.09	12.46
883.262	8.36
883.434	18.6
883.606	-8.02
883.778	20.65
883.95	-46.93
884.122	57.51
884.293	24.75
884.465	0.17
884.637	-18.26
884.809	26.79
884.98	22.7
885.152	24.75
885.324	47.27
885.496	-34.64
885.667	-20.31
885.839	-12.12
886.011	12.46
886.182	-75.6
886.354	16.55
886.525	14.51
886.697	49.32
886.869	-44.88
887.04	77.99
887.212	-20.31
887.383	6.31
887.555	-26.45
887.726	28.84
887.897	53.42
888.069	-83.8
888.24	37.03
888.412	-40.79
888.583	-10.07
888.754	10.41
888.926	-10.07
889.097	47.27
889.268	-61.27
889.44	-77.65
889.611	51.37
889.782	-12.12
889.953	0.17
890.125	14.51
890.296	-75.6
890.467	-10.07
890.638	-8.02
890.809	-10.07
890.98	-22.36
891.151	0.17
891.323	18.6
891.494	67.75
891.665	-73.56
891.836	-10.07
892.007	20.65
892.178	6.31
892.349	-28.5
892.52	-14.17
892.691	10.41
892.862	-1.88
893.032	4.27
893.203	-3.93
893.374	53.42
893.545	32.94
893.716	-75.6
893.887	14.51
894.057	-59.22
894.228	14.51
894.399	10.41
894.57	-42.84
894.74	65.71
894.911	16.55
895.082	47.27
895.253	-12.12
895.423	-18.26
895.594	-30.55
895.764	-46.93
895.935	-42.84
896.106	57.51
896.276	34.99
896.447	-44.88
896.617	-65.36
896.788	-32.6
896.958	-40.79
897.129	39.08
897.299	47.27
897.47	-22.36
897.64	2.22
897.81	-1.88
897.981	4.27
898.151	32.94
898.322	71.85
898.492	-3.93
898.662	28.84
898.832	-8.02
899.003	63.66
899.173	-44.88
899.343	10.41
899.513	-51.03
