Data from USB4F104151__151__13-58-34-154.txt Node

Date: Thu Mar 13 13:58:34 EDT 2025
User: louis
Spectrometer: USB4F10415
Trigger mode: 4
Integration Time (sec): 1.000000E-2
Scans to average: 1
Electric dark correction enabled: true
Nonlinearity correction enabled: false
Boxcar width: 0
XAxis mode: Wavelengths
Number of Pixels in Spectrum: 3648
>>>>>Begin Spectral Data<<<<<
178.204	-50
178.424	-50
178.644	-50
178.864	-50
179.084	-33.62
179.304	9.39
179.524	-35.67
179.744	-23.38
179.964	15.53
180.184	40.11
180.404	-39.76
180.624	70.83
180.844	-15.19
181.064	29.87
181.283	-13.14
181.503	3.24
181.723	-41.81
181.943	-82.77
182.163	-0.85
182.383	-19.29
182.602	25.77
182.822	68.78
183.042	97.45
183.262	-50
183.482	-0.85
183.701	29.87
183.921	5.29
184.141	11.43
184.361	40.11
184.58	11.43
184.8	-33.62
185.02	-43.86
185.239	-4.95
185.459	-60.24
185.679	-19.29
185.898	-70.48
186.118	52.39
186.338	64.68
186.557	-47.96
186.777	17.58
186.997	15.53
187.216	11.43
187.436	36.01
187.655	48.3
187.875	23.72
188.095	44.2
188.314	27.82
188.534	-9.05
188.753	87.21
188.973	-19.29
189.192	38.06
189.412	11.43
189.631	17.58
189.851	17.58
190.07	9.39
190.29	-15.19
190.509	25.77
190.729	38.06
190.948	-35.67
191.168	17.58
191.387	56.49
191.607	-9.05
191.826	-13.14
192.045	7.34
192.265	17.58
192.484	31.91
192.704	5.29
192.923	-2.9
193.142	-11.09
193.362	29.87
193.581	33.96
193.8	-19.29
194.02	1.19
194.239	-33.62
194.458	23.72
194.678	7.34
194.897	-11.09
195.116	50.35
195.335	-60.24
195.555	44.2
195.774	33.96
195.993	21.67
196.212	1.19
196.432	-62.29
196.651	9.39
196.87	-17.24
197.089	42.15
197.308	-13.14
197.528	-2.9
197.747	-76.63
197.966	54.44
198.185	19.63
198.404	-37.72
198.623	-41.81
198.842	83.11
199.062	-52.05
199.281	17.58
199.5	-60.24
199.719	-9.05
199.938	-82.77
200.157	-17.24
200.376	-72.53
200.595	21.67
200.814	13.48
201.033	-13.14
201.252	-33.62
201.471	-9.05
201.69	-35.67
201.909	-70.48
202.128	33.96
202.347	-33.62
202.566	17.58
202.785	-4.95
203.004	-27.48
203.223	38.06
203.442	44.2
203.661	-80.72
203.879	-23.38
204.098	-4.95
204.317	-17.24
204.536	7.34
204.755	-9.05
204.974	15.53
205.193	-27.48
205.411	38.06
205.63	15.53
205.849	-13.14
206.068	-11.09
206.287	23.72
206.505	1.19
206.724	7.34
206.943	-11.09
207.162	36.01
207.381	54.44
207.599	-35.67
207.818	25.77
208.037	97.45
208.255	15.53
208.474	27.82
208.693	60.59
208.911	-7
209.13	-9.05
209.349	70.83
209.567	-15.19
209.786	46.25
210.005	58.54
210.223	62.63
210.442	-13.14
210.661	7.34
210.879	-7
211.098	-64.34
211.316	21.67
211.535	-70.48
211.753	-41.81
211.972	-7
212.191	-62.29
212.409	87.21
212.628	-13.14
212.846	-11.09
213.065	13.48
213.283	-23.38
213.502	-4.95
213.72	-2.9
213.938	-11.09
214.157	17.58
214.375	79.02
214.594	-9.05
214.812	-9.05
215.031	15.53
215.249	15.53
215.467	-7
215.686	-13.14
215.904	-13.14
216.122	-25.43
216.341	58.54
216.559	-11.09
216.778	72.87
216.996	9.39
217.214	-7
217.432	-31.57
217.651	36.01
217.869	-54.1
218.087	31.91
218.306	1.19
218.524	50.35
218.742	-11.09
218.96	38.06
219.179	25.77
219.397	50.35
219.615	-2.9
219.833	-17.24
220.051	-29.52
220.27	15.53
220.488	33.96
220.706	60.59
220.924	-43.86
221.142	-19.29
221.36	-9.05
221.578	76.97
221.796	13.48
222.015	5.29
222.233	-9.05
222.451	50.35
222.669	-17.24
222.887	-35.67
223.105	21.67
223.323	33.96
223.541	40.11
223.759	64.68
223.977	31.91
224.195	-25.43
224.413	-19.29
224.631	-19.29
224.849	-15.19
225.067	13.48
225.285	7.34
225.503	44.2
225.721	-52.05
225.939	-15.19
226.157	-11.09
226.375	-2.9
226.592	46.25
226.81	-84.82
227.028	-23.38
227.246	72.87
227.464	21.67
227.682	23.72
227.9	17.58
228.117	-15.19
228.335	-23.38
228.553	9.39
228.771	50.35
228.989	-0.85
229.206	15.53
229.424	19.63
229.642	31.91
229.86	-19.29
230.077	13.48
230.295	-0.85
230.513	56.49
230.731	33.96
230.948	54.44
231.166	29.87
231.384	50.35
231.601	46.25
231.819	25.77
232.037	-11.09
232.254	-43.86
232.472	-35.67
232.689	-37.72
232.907	9.39
233.125	1.19
233.342	7.34
233.56	-88.92
233.777	48.3
233.995	42.15
234.213	33.96
234.43	-17.24
234.648	21.67
234.865	29.87
235.083	40.11
235.3	-15.19
235.518	54.44
235.735	-29.52
235.953	7.34
236.17	-35.67
236.388	13.48
236.605	-35.67
236.822	-4.95
237.04	36.01
237.257	19.63
237.475	-25.43
237.692	56.49
237.909	15.53
238.127	-11.09
238.344	-2.9
238.562	-2.9
238.779	7.34
238.996	1.19
239.214	-58.2
239.431	-17.24
239.648	9.39
239.865	48.3
240.083	-45.91
240.3	-0.85
240.517	-17.24
240.735	-43.86
240.952	-21.33
241.169	-17.24
241.386	-2.9
241.603	38.06
241.821	17.58
242.038	21.67
242.255	3.24
242.472	-70.48
242.689	9.39
242.907	-7
243.124	19.63
243.341	62.63
243.558	1.19
243.775	1.19
243.992	-19.29
244.209	46.25
244.426	-7
244.643	-19.29
244.86	-17.24
245.078	1.19
245.295	15.53
245.512	-4.95
245.729	-29.52
245.946	48.3
246.163	-76.63
246.38	38.06
246.597	23.72
246.814	7.34
247.031	-17.24
247.248	13.48
247.464	58.54
247.681	-13.14
247.898	-0.85
248.115	1.19
248.332	46.25
248.549	1.19
248.766	42.15
248.983	54.44
249.2	-0.85
249.417	-21.33
249.633	-11.09
249.85	17.58
250.067	-15.19
250.284	25.77
250.501	38.06
250.717	79.02
250.934	40.11
251.151	-19.29
251.368	89.26
251.585	56.49
251.801	60.59
252.018	54.44
252.235	72.87
252.451	44.2
252.668	40.11
252.885	54.44
253.102	44.2
253.318	-9.05
253.535	-74.58
253.752	-17.24
253.968	87.21
254.185	-4.95
254.401	7.34
254.618	-27.48
254.835	54.44
255.051	-70.48
255.268	-9.05
255.484	38.06
255.701	21.67
255.917	117.93
256.134	3.24
256.351	23.72
256.567	-15.19
256.784	31.91
257	-23.38
257.217	87.21
257.433	27.82
257.65	-2.9
257.866	21.67
258.082	-56.15
258.299	50.35
258.515	13.48
258.732	-13.14
258.948	23.72
259.165	-66.39
259.381	-52.05
259.597	-70.48
259.814	29.87
260.03	-35.67
260.246	29.87
260.463	9.39
260.679	33.96
260.895	36.01
261.112	-11.09
261.328	74.92
261.544	-66.39
261.761	-17.24
261.977	23.72
262.193	9.39
262.409	-9.05
262.626	48.3
262.842	9.39
263.058	13.48
263.274	42.15
263.49	1.19
263.707	36.01
263.923	5.29
264.139	1.19
264.355	13.48
264.571	-33.62
264.787	-15.19
265.004	-58.2
265.22	3.24
265.436	17.58
265.652	13.48
265.868	60.59
266.084	64.68
266.3	-52.05
266.516	9.39
266.732	-50
266.948	70.83
267.164	95.4
267.38	62.63
267.596	-13.14
267.812	-43.86
268.028	-52.05
268.244	9.39
268.46	-19.29
268.676	46.25
268.892	-39.76
269.108	38.06
269.324	62.63
269.54	-39.76
269.756	13.48
269.972	15.53
270.188	3.24
270.403	15.53
270.619	15.53
270.835	31.91
271.051	15.53
271.267	105.64
271.483	-37.72
271.698	83.11
271.914	-29.52
272.13	-13.14
272.346	19.63
272.562	1.19
272.777	5.29
272.993	62.63
273.209	17.58
273.425	7.34
273.64	38.06
273.856	11.43
274.072	23.72
274.287	1.19
274.503	3.24
274.719	62.63
274.934	-56.15
275.15	-11.09
275.366	46.25
275.581	50.35
275.797	21.67
276.012	-2.9
276.228	29.87
276.444	33.96
276.659	72.87
276.875	-23.38
277.09	21.67
277.306	-7
277.521	50.35
277.737	-35.67
277.952	-74.58
278.168	-25.43
278.383	52.39
278.599	27.82
278.814	-19.29
279.03	36.01
279.245	-0.85
279.461	89.26
279.676	44.2
279.892	-23.38
280.107	5.29
280.322	-54.1
280.538	58.54
280.753	-97.11
280.969	31.91
281.184	3.24
281.399	40.11
281.615	111.78
281.83	15.53
282.045	-11.09
282.26	70.83
282.476	-17.24
282.691	76.97
282.906	-11.09
283.122	-52.05
283.337	-25.43
283.552	38.06
283.767	-0.85
283.983	9.39
284.198	13.48
284.413	29.87
284.628	-74.58
284.843	29.87
285.058	-72.53
285.274	5.29
285.489	1.19
285.704	15.53
285.919	7.34
286.134	31.91
286.349	3.24
286.564	-19.29
286.779	9.39
286.995	29.87
287.21	-27.48
287.425	15.53
287.64	62.63
287.855	-13.14
288.07	48.3
288.285	27.82
288.5	44.2
288.715	-2.9
288.93	-56.15
289.145	36.01
289.36	62.63
289.575	-13.14
289.79	38.06
290.004	13.48
290.219	21.67
290.434	-27.48
290.649	5.29
290.864	-4.95
291.079	7.34
291.294	56.49
291.509	-11.09
291.724	62.63
291.938	36.01
292.153	21.67
292.368	-23.38
292.583	-19.29
292.798	87.21
293.012	117.93
293.227	-4.95
293.442	64.68
293.657	58.54
293.871	93.35
294.086	56.49
294.301	33.96
294.516	-0.85
294.73	15.53
294.945	36.01
295.16	5.29
295.374	21.67
295.589	19.63
295.804	17.58
296.018	3.24
296.233	-37.72
296.447	25.77
296.662	21.67
296.877	91.31
297.091	29.87
297.306	23.72
297.52	-9.05
297.735	11.43
297.949	33.96
298.164	46.25
298.378	7.34
298.593	7.34
298.807	1.19
299.022	-39.76
299.236	25.77
299.451	15.53
299.665	31.91
299.88	79.02
300.094	-11.09
300.309	-19.29
300.523	-0.85
300.737	40.11
300.952	54.44
301.166	60.59
301.381	79.02
301.595	23.72
301.809	-9.05
302.024	50.35
302.238	25.77
302.452	1.19
302.667	1.19
302.881	-11.09
303.095	56.49
303.309	-15.19
303.524	-29.52
303.738	-9.05
303.952	-23.38
304.166	7.34
304.381	-4.95
304.595	9.39
304.809	-4.95
305.023	-19.29
305.237	-13.14
305.452	13.48
305.666	7.34
305.88	23.72
306.094	27.82
306.308	27.82
306.522	-2.9
306.736	25.77
306.95	-29.52
307.164	89.26
307.379	-33.62
307.593	54.44
307.807	25.77
308.021	27.82
308.235	-7
308.449	-66.39
308.663	52.39
308.877	66.73
309.091	33.96
309.305	-56.15
309.519	-45.91
309.733	70.83
309.947	-2.9
310.161	105.64
310.374	-23.38
310.588	-15.19
310.802	-56.15
311.016	-19.29
311.23	-9.05
311.444	17.58
311.658	3.24
311.872	44.2
312.085	72.87
312.299	72.87
312.513	1.19
312.727	9.39
312.941	21.67
313.154	-29.52
313.368	62.63
313.582	3.24
313.796	23.72
314.009	74.92
314.223	60.59
314.437	-27.48
314.651	1.19
314.864	42.15
315.078	81.07
315.292	17.58
315.505	-9.05
315.719	33.96
315.933	54.44
316.146	-13.14
316.36	-41.81
316.573	72.87
316.787	1.19
317.001	-19.29
317.214	46.25
317.428	-11.09
317.641	-17.24
317.855	87.21
318.068	15.53
318.282	72.87
318.495	-43.86
318.709	101.55
318.922	7.34
319.136	-9.05
319.349	83.11
319.563	-7
319.776	-47.96
319.99	42.15
320.203	-29.52
320.417	50.35
320.63	36.01
320.843	83.11
321.057	-31.57
321.27	50.35
321.483	46.25
321.697	38.06
321.91	66.73
322.124	33.96
322.337	17.58
322.55	36.01
322.763	72.87
322.977	33.96
323.19	-64.34
323.403	-58.2
323.617	-31.57
323.83	17.58
324.043	5.29
324.256	5.29
324.469	-21.33
324.683	13.48
324.896	3.24
325.109	13.48
325.322	-78.68
325.535	25.77
325.748	42.15
325.962	21.67
326.175	79.02
326.388	54.44
326.601	50.35
326.814	-43.86
327.027	27.82
327.24	72.87
327.453	38.06
327.666	-62.29
327.879	29.87
328.092	19.63
328.305	42.15
328.518	13.48
328.731	13.48
328.944	-33.62
329.157	9.39
329.37	7.34
329.583	15.53
329.796	76.97
330.009	-2.9
330.222	52.39
330.435	27.82
330.648	46.25
330.861	-66.39
331.073	62.63
331.286	36.01
331.499	-11.09
331.712	9.39
331.925	-9.05
332.138	5.29
332.35	36.01
332.563	7.34
332.776	3.24
332.989	-27.48
333.202	-7
333.414	-37.72
333.627	-15.19
333.84	-35.67
334.053	5.29
334.265	-58.2
334.478	33.96
334.691	-4.95
334.903	3.24
335.116	38.06
335.329	17.58
335.541	-17.24
335.754	62.63
335.966	15.53
336.179	38.06
336.392	54.44
336.604	23.72
336.817	13.48
337.029	29.87
337.242	103.59
337.454	70.83
337.667	-27.48
337.88	15.53
338.092	-11.09
338.305	27.82
338.517	64.68
338.729	48.3
338.942	58.54
339.154	3.24
339.367	19.63
339.579	-0.85
339.792	38.06
340.004	-17.24
340.217	-19.29
340.429	44.2
340.641	25.77
340.854	15.53
341.066	42.15
341.278	13.48
341.491	36.01
341.703	50.35
341.915	-2.9
342.128	56.49
342.34	36.01
342.552	-25.43
342.764	42.15
342.977	-39.76
343.189	-27.48
343.401	15.53
343.613	7.34
343.826	60.59
344.038	38.06
344.25	5.29
344.462	54.44
344.674	19.63
344.886	38.06
345.099	87.21
345.311	23.72
345.523	-2.9
345.735	42.15
345.947	-13.14
346.159	66.73
346.371	60.59
346.583	-11.09
346.795	-4.95
347.007	29.87
347.219	146.6
347.431	7.34
347.643	87.21
347.855	122.02
348.067	21.67
348.279	76.97
348.491	11.43
348.703	3.24
348.915	13.48
349.127	-19.29
349.339	-19.29
349.551	17.58
349.763	46.25
349.975	7.34
350.187	58.54
350.399	60.59
350.61	33.96
350.822	-33.62
351.034	46.25
351.246	25.77
351.458	68.78
351.669	42.15
351.881	13.48
352.093	-2.9
352.305	15.53
352.517	15.53
352.728	36.01
352.94	-29.52
353.152	36.01
353.363	-23.38
353.575	79.02
353.787	42.15
353.999	5.29
354.21	38.06
354.422	-19.29
354.633	36.01
354.845	3.24
355.057	-39.76
355.268	48.3
355.48	62.63
355.692	-11.09
355.903	58.54
356.115	5.29
356.326	-25.43
356.538	38.06
356.749	64.68
356.961	13.48
357.172	-72.53
357.384	89.26
357.595	25.77
357.807	-54.1
358.018	19.63
358.23	-2.9
358.441	72.87
358.653	40.11
358.864	33.96
359.075	-9.05
359.287	15.53
359.498	15.53
359.709	-0.85
359.921	9.39
360.132	95.4
360.344	56.49
360.555	40.11
360.766	38.06
360.977	29.87
361.189	11.43
361.4	23.72
361.611	-37.72
361.823	50.35
362.034	97.45
362.245	7.34
362.456	-25.43
362.667	13.48
362.879	-56.15
363.09	-35.67
363.301	50.35
363.512	11.43
363.723	5.29
363.935	9.39
364.146	-13.14
364.357	11.43
364.568	70.83
364.779	-17.24
364.99	50.35
365.201	-11.09
365.412	19.63
365.623	-25.43
365.834	9.39
366.045	-17.24
366.256	56.49
366.467	13.48
366.678	40.11
366.889	23.72
367.1	70.83
367.311	33.96
367.522	-60.24
367.733	-9.05
367.944	93.35
368.155	17.58
368.366	50.35
368.577	13.48
368.788	25.77
368.999	36.01
369.209	25.77
369.42	15.53
369.631	31.91
369.842	29.87
370.053	74.92
370.264	-9.05
370.474	-2.9
370.685	66.73
370.896	31.91
371.107	89.26
371.317	-37.72
371.528	46.25
371.739	87.21
371.95	105.64
372.16	101.55
372.371	36.01
372.582	38.06
372.792	1.19
373.003	70.83
373.214	87.21
373.424	-2.9
373.635	48.3
373.846	25.77
374.056	-17.24
374.267	-27.48
374.477	17.58
374.688	60.59
374.898	56.49
375.109	11.43
375.319	-4.95
375.53	-45.91
375.74	23.72
375.951	5.29
376.161	36.01
376.372	95.4
376.582	1.19
376.793	27.82
377.003	68.78
377.214	42.15
377.424	48.3
377.635	-25.43
377.845	58.54
378.055	50.35
378.266	-17.24
378.476	60.59
378.686	130.22
378.897	5.29
379.107	40.11
379.317	64.68
379.528	-23.38
379.738	11.43
379.948	72.87
380.158	11.43
380.369	48.3
380.579	46.25
380.789	-0.85
380.999	29.87
381.21	54.44
381.42	31.91
381.63	46.25
381.84	25.77
382.05	60.59
382.261	50.35
382.471	23.72
382.681	36.01
382.891	19.63
383.101	79.02
383.311	-15.19
383.521	9.39
383.731	42.15
383.941	83.11
384.151	-23.38
384.361	72.87
384.571	29.87
384.781	-31.57
384.991	117.93
385.201	23.72
385.411	9.39
385.621	54.44
385.831	33.96
386.041	56.49
386.251	9.39
386.461	97.45
386.671	-15.19
386.881	5.29
387.091	-11.09
387.301	33.96
387.511	60.59
387.72	36.01
387.93	17.58
388.14	119.98
388.35	124.07
388.56	23.72
388.769	42.15
388.979	83.11
389.189	-21.33
389.399	83.11
389.609	31.91
389.818	-17.24
390.028	95.4
390.238	-21.33
390.447	38.06
390.657	62.63
390.867	60.59
391.076	48.3
391.286	62.63
391.496	111.78
391.705	-17.24
391.915	85.16
392.125	50.35
392.334	-23.38
392.544	48.3
392.753	68.78
392.963	-33.62
393.172	66.73
393.382	-78.68
393.591	42.15
393.801	5.29
394.01	97.45
394.22	-4.95
394.429	-27.48
394.639	7.34
394.848	109.74
395.058	31.91
395.267	5.29
395.477	-62.29
395.686	27.82
395.895	56.49
396.105	97.45
396.314	42.15
396.524	33.96
396.733	-41.81
396.942	79.02
397.152	68.78
397.361	62.63
397.57	124.07
397.78	68.78
397.989	105.64
398.198	103.59
398.407	19.63
398.617	130.22
398.826	25.77
399.035	136.36
399.244	54.44
399.453	107.69
399.663	87.21
399.872	79.02
400.081	134.31
400.29	105.64
400.499	15.53
400.708	36.01
400.917	21.67
401.127	40.11
401.336	72.87
401.545	70.83
401.754	74.92
401.963	134.31
402.172	97.45
402.381	46.25
402.59	107.69
402.799	89.26
403.008	38.06
403.217	48.3
403.426	138.41
403.635	33.96
403.844	83.11
404.053	54.44
404.262	85.16
404.471	173.22
404.68	109.74
404.888	107.69
405.097	95.4
405.306	117.93
405.515	48.3
405.724	109.74
405.933	97.45
406.142	113.83
406.35	126.12
406.559	117.93
406.768	124.07
406.977	103.59
407.185	130.22
407.394	154.79
407.603	56.49
407.812	119.98
408.02	191.66
408.229	162.98
408.438	167.08
408.646	203.94
408.855	175.27
409.064	169.13
409.272	205.99
409.481	169.13
409.69	160.94
409.898	255.14
410.107	195.75
410.315	189.61
410.524	283.81
410.733	294.05
410.941	152.74
411.15	298.15
411.358	253.09
411.567	353.45
411.775	269.48
411.984	332.97
412.192	332.97
412.401	300.2
412.609	253.09
412.818	353.45
413.026	378.02
413.234	345.25
413.443	332.97
413.651	343.21
413.86	425.12
414.068	492.71
414.276	429.22
414.485	414.88
414.693	490.66
414.901	472.23
415.11	507.04
415.318	484.52
415.526	545.95
415.734	566.43
415.943	517.28
416.151	531.62
416.359	623.78
416.567	648.35
416.776	574.63
416.984	695.46
417.192	677.02
417.4	709.79
417.608	681.12
417.817	758.94
418.025	804
418.233	783.52
418.441	849.05
418.649	955.55
418.857	842.91
419.065	906.4
419.273	926.88
419.481	1008.8
419.689	1027.23
419.897	1051.8
420.105	1127.58
420.313	1105.05
420.521	1064.09
420.729	1133.72
420.937	1201.3
421.145	1264.79
421.353	1246.36
421.561	1367.19
421.769	1367.19
421.977	1395.86
422.185	1485.97
422.393	1508.5
422.601	1674.39
422.809	1672.34
423.017	1651.86
423.224	1672.34
423.432	1834.13
423.64	1825.93
423.848	1889.42
424.056	1768.59
424.263	1948.81
424.471	2061.45
424.679	2018.44
424.887	2065.55
425.094	2270.34
425.302	2233.48
425.51	2342.02
425.718	2493.57
425.925	2464.9
426.133	2514.05
426.341	2643.07
426.548	2868.35
426.756	2886.78
426.964	2772.1
427.171	2864.25
427.379	3138.68
427.586	3036.28
427.794	3269.75
428.001	3292.28
428.209	3443.83
428.417	3431.54
428.624	3662.96
428.832	3593.33
429.039	3615.86
429.247	3644.53
429.454	3968.11
429.662	4222.06
429.869	4013.17
430.076	4234.35
430.284	4234.35
430.491	4283.5
430.699	4433
430.906	4723.81
431.114	4613.22
431.321	4789.35
431.528	4834.4
431.736	5143.64
431.943	5375.06
432.15	5350.49
432.358	5364.82
432.565	5639.25
432.772	5649.49
432.979	5870.67
433.187	6042.7
433.394	6050.89
433.601	6364.23
433.808	6394.95
434.016	6552.65
434.223	6657.09
434.43	7089.21
434.637	6995.01
434.844	7357.5
435.052	7644.21
435.259	7484.47
435.466	7560.25
435.673	7418.94
435.88	7892.02
436.087	8322.09
436.294	8170.54
436.501	8062
436.708	8256.56
436.915	8485.93
437.122	9126.94
437.329	8625.19
437.537	9298.97
437.743	9356.32
437.95	9331.74
438.157	9917.46
438.364	10179.6
438.571	10026
438.778	10261.52
438.985	10888.2
439.192	10705.93
439.399	11072.51
439.606	10781.7
439.813	11262.97
440.02	12090.35
440.227	11736.06
440.433	11744.25
440.64	12086.26
440.847	12010.48
441.054	12497.9
441.261	12960.74
441.467	12927.97
441.674	13186.02
441.881	13663.19
442.088	13702.11
442.294	13476.83
442.501	13904.85
442.708	14336.98
442.914	14582.73
443.121	15530.94
443.328	14894.02
443.534	15930.3
443.741	15729.59
443.948	15668.16
444.154	16593.84
444.361	16360.37
444.568	16356.27
444.774	16548.78
444.981	16518.06
445.187	16939.94
445.394	17937.3
445.6	17642.4
445.807	19131.27
446.013	18488.21
446.22	19037.06
446.426	19417.99
446.633	19657.6
446.839	20525.94
447.046	19485.57
447.252	20841.32
447.459	20771.69
447.665	20755.31
447.871	21388.13
448.078	22590.29
448.284	21152.62
448.491	21918.56
448.697	22838.09
448.903	22877.01
449.11	23145.29
449.316	22930.25
449.522	23040.84
449.728	23900.99
449.935	24025.92
450.141	23669.57
450.347	24556.34
450.553	23876.41
450.76	24394.55
450.966	24896.3
451.172	24636.21
451.378	25492.26
451.584	24496.95
451.791	25471.78
451.997	25078.57
452.203	25828.13
452.409	25862.94
452.615	25252.65
452.821	24677.17
453.027	24509.24
453.233	25236.27
453.44	24308.54
453.646	24732.47
453.852	24832.82
454.058	25461.54
454.264	24769.33
454.47	24924.97
454.676	24466.23
454.882	24951.6
455.088	22993.74
455.294	23616.32
455.5	23759.68
455.705	24077.12
455.911	22842.19
456.117	22471.51
456.323	22231.9
456.529	21011.31
456.735	21922.65
456.941	21629.79
457.147	21199.72
457.352	20329.33
457.558	20325.24
457.764	20224.89
457.97	19944.31
458.176	19147.65
458.381	19200.9
458.587	18459.54
458.793	18635.66
458.999	17550.24
459.204	18736.01
459.41	18486.16
459.616	17116.07
459.821	17058.73
460.027	16837.55
460.233	16927.66
460.438	15934.39
460.644	16063.41
460.85	15336.38
461.055	14918.6
461.261	15223.75
461.466	13704.15
461.672	13714.39
461.878	14414.8
462.083	13568.99
462.289	13358.05
462.494	13210.59
462.7	12567.53
462.905	12112.88
463.111	12561.39
463.316	12772.33
463.522	12573.67
463.727	12657.64
463.932	12606.44
464.138	12219.38
464.343	12225.52
464.549	12166.13
464.754	12499.95
464.959	12317.68
465.165	12329.97
465.37	11826.17
465.575	11512.83
465.781	12166.13
465.986	12080.11
466.191	11752.44
466.397	11269.12
466.602	10599.43
466.807	11086.85
467.012	11230.21
467.218	11215.87
467.423	11117.57
467.628	11228.16
467.833	11650.04
468.038	11105.28
468.244	11009.03
468.449	11375.61
468.654	10759.17
468.859	10947.59
469.064	10677.26
469.269	10101.78
469.474	10474.51
469.679	10515.47
469.885	10292.24
470.09	10552.33
470.295	10425.36
470.5	10042.39
470.705	10232.85
470.91	10005.52
471.115	10081.3
471.32	9929.75
471.525	10185.74
471.73	9778.2
471.935	9724.95
472.139	9415.71
472.344	9436.19
472.549	9315.36
472.754	9337.88
472.959	9223.2
473.164	9083.94
473.369	8987.68
473.574	9002.02
473.778	8848.42
473.983	8854.56
474.188	8909.86
474.393	8617
474.598	8500.26
474.802	8406.06
475.007	8373.29
475.212	8410.15
475.417	8148.01
475.621	8039.47
475.826	8090.67
476.031	8088.62
476.235	7887.92
476.44	8025.14
476.645	8025.14
476.849	7803.96
477.054	7636.02
477.259	7674.93
477.463	7601.21
477.668	7504.95
477.872	7314.49
478.077	7498.81
478.282	7117.89
478.486	7156.8
478.691	6929.47
478.895	7068.73
479.1	7001.15
479.304	7124.03
479.509	6902.85
479.713	7019.58
479.918	6847.55
480.122	6773.83
480.326	6843.46
480.531	6943.81
480.735	6779.97
480.94	6777.92
481.144	6919.23
481.348	6569.03
481.553	6775.88
481.757	6538.31
481.961	6614.09
482.166	6575.17
482.37	6773.83
482.574	6591.56
482.778	6706.24
482.983	6640.71
483.187	6483.02
483.391	6556.74
483.595	6546.5
483.8	6509.64
484.004	6532.17
484.208	6614.09
484.412	6413.38
484.616	6659.14
484.821	6743.11
485.025	6435.91
485.229	6648.9
485.433	6564.93
485.637	6476.87
485.841	6446.15
486.045	6495.3
486.249	6689.86
486.453	6585.41
486.657	6521.93
486.861	6509.64
487.065	6403.14
487.269	6583.37
487.473	6495.3
487.677	6581.32
487.881	6681.67
488.085	6579.27
488.289	6675.52
488.493	6587.46
488.697	6779.97
488.901	6702.15
489.105	6722.63
489.309	6519.88
489.512	6650.95
489.716	6609.99
489.92	6706.24
490.124	6513.74
490.328	6939.71
490.531	6788.16
490.735	6698.05
490.939	6882.37
491.143	6653
491.346	6708.29
491.55	6868.03
491.754	6997.06
491.958	6978.62
492.161	6954.05
492.365	7042.11
492.569	6911.04
492.772	7181.37
492.976	7146.56
493.18	7177.28
493.383	7158.85
493.587	7294.01
493.79	7361.59
493.994	7222.33
494.197	7273.53
494.401	7382.07
494.605	7369.79
494.808	7486.52
495.012	7511.1
495.215	7631.93
495.419	7668.79
495.622	7582.77
495.825	7924.79
496.029	7871.54
496.232	7982.13
496.436	7777.33
496.639	8141.87
496.843	8008.75
497.046	8270.89
497.249	8467.5
497.453	8526.89
497.656	8434.73
497.859	8518.7
498.063	8660.01
498.266	8784.93
498.469	8879.14
498.673	8934.43
498.876	9045.02
499.079	9255.97
499.282	9262.11
499.485	9221.15
499.689	9452.57
499.892	9509.91
500.095	9622.55
500.298	9888.79
500.501	9800.73
500.705	10038.29
500.908	10155.02
501.111	10226.7
501.314	10376.2
501.517	10480.65
501.72	10753.03
501.923	10716.17
502.126	10863.62
502.329	11158.53
502.532	11314.17
502.735	11086.85
502.938	11498.49
503.141	11467.77
503.344	11711.48
503.547	11545.59
503.75	11926.52
503.953	12243.95
504.156	12231.66
504.359	12628.97
504.562	12585.96
504.765	13024.23
504.968	12762.09
505.17	13104.1
505.373	13128.67
505.576	13380.57
505.779	13579.23
505.982	13636.57
506.185	14070.74
506.387	14201.81
506.59	13980.63
506.793	14334.93
506.996	14564.3
507.198	14994.37
507.401	14894.02
507.604	15043.53
507.807	15299.52
508.009	15416.26
508.212	15686.59
508.415	15987.64
508.617	15997.88
508.82	16196.53
509.022	16204.72
509.225	16440.24
509.428	16966.57
509.63	16882.6
509.833	16827.31
510.035	17458.08
510.238	17642.4
510.44	17646.49
510.643	18004.89
510.845	18084.76
511.048	18236.31
511.25	18367.38
511.453	18578.32
511.655	19274.63
511.858	18977.67
512.06	19268.48
512.262	19764.09
512.465	19630.98
512.667	20079.48
512.87	20362.1
513.072	20394.87
513.274	20859.76
513.477	21117.8
513.679	21125.99
513.881	21324.65
514.084	21764.96
514.286	21695.33
514.488	22102.87
514.69	22399.83
514.893	22700.88
515.095	22834
515.297	23137.1
515.499	23280.46
515.701	23827.26
515.904	23923.52
516.106	24126.27
516.308	24480.57
516.51	24767.28
516.712	25006.89
516.914	25193.26
517.116	25568.04
517.318	25221.93
517.52	25740.07
517.722	26213.15
517.925	26354.46
518.127	26729.23
518.329	26751.76
518.531	26895.12
518.733	27546.37
518.935	28019.46
519.136	27908.86
519.338	28285.69
519.54	28629.75
519.742	28967.66
519.944	28938.99
520.146	29553.38
520.348	29891.3
520.55	30020.32
520.752	29983.46
520.954	30517.98
521.155	30583.51
521.357	30612.18
521.559	31290.06
521.761	31265.49
521.963	31630.02
522.164	31558.35
522.366	32074.43
522.568	32457.4
522.77	32541.37
522.971	32819.89
523.173	32844.47
523.375	33190.58
523.576	33317.55
523.778	33321.65
523.98	33909.41
524.181	34364.06
524.383	34161.31
524.584	34730.65
524.786	34575
524.988	34460.32
525.189	34796.18
525.391	35222.16
525.592	35467.92
525.794	35674.76
525.995	35871.37
526.197	35564.17
526.398	35779.21
526.6	36428.41
526.801	36158.08
527.003	37112.44
527.204	36545.15
527.406	36975.22
527.607	36983.41
527.808	37390.96
528.01	36756.09
528.211	36938.36
528.412	38050.41
528.614	37743.21
528.815	37614.19
529.016	38036.07
529.218	37558.89
529.419	37771.88
529.62	37919.34
529.822	38081.13
530.023	38126.18
530.224	38351.46
530.425	38361.7
530.626	38468.19
530.828	38296.16
531.029	38937.18
531.23	38775.39
531.431	38054.5
531.632	38849.11
531.833	38967.9
532.035	38982.23
532.236	38906.46
532.437	39334.48
532.638	38707.8
532.839	39193.17
533.04	39264.85
533.241	38742.62
533.442	39696.97
533.643	39211.6
533.844	39170.64
534.045	39459.41
534.246	39174.74
534.447	39316.05
534.648	38855.26
534.849	39733.84
535.05	39338.58
535.251	38965.85
535.451	39320.15
535.652	39488.08
535.853	39627.34
536.054	39633.49
536.255	39397.97
536.456	39254.61
536.657	39828.04
536.857	39342.67
537.058	39266.9
537.259	40165.96
537.46	39678.54
537.66	39271
537.861	39754.32
538.062	39498.32
538.263	39811.66
538.463	39453.26
538.664	39588.43
538.865	39684.69
539.065	39703.12
539.266	39113.3
539.466	39828.04
539.667	39340.63
539.868	40188.49
540.068	40026.7
540.269	39514.7
540.469	40129.09
540.67	39596.62
540.87	39348.82
541.071	39502.42
541.271	39830.09
541.472	39764.56
541.672	39305.81
541.873	39361.11
542.073	39195.22
542.274	39854.67
542.474	39686.73
542.675	39307.86
542.875	39707.21
543.075	39447.12
543.276	39555.66
543.476	40081.99
543.676	39320.15
543.877	39567.95
544.077	39576.14
544.277	39373.39
544.478	39469.65
544.678	39815.76
544.878	39604.81
545.078	39649.87
545.279	39236.18
545.479	39529.04
545.679	39576.14
545.879	39340.63
546.079	39678.54
546.28	39117.4
546.48	39103.06
546.68	39588.43
546.88	39991.88
547.08	39731.79
547.28	39047.77
547.48	39162.45
547.68	39541.33
547.88	39248.47
548.081	40038.98
548.281	39279.19
548.481	38953.56
548.681	39604.81
548.881	39486.03
549.081	39410.26
549.28	39516.75
549.48	39582.29
549.68	39565.9
549.88	39676.49
550.08	39645.77
550.28	39619.15
550.48	39457.36
550.68	39502.42
550.88	39217.75
551.08	39535.18
551.279	39608.91
551.479	39184.98
551.679	39162.45
551.879	39279.19
552.079	39154.26
552.278	39260.76
552.478	39092.82
552.678	39369.3
552.878	39692.88
553.077	39357.01
553.277	39205.46
553.477	39590.48
553.676	39029.34
553.876	39031.38
554.076	39113.3
554.275	38759
554.475	38752.86
554.674	39289.43
554.874	39166.55
555.074	38836.83
555.273	39031.38
555.473	39389.78
555.672	39150.17
555.872	38793.82
556.071	38961.75
556.271	39008.86
556.47	38773.34
556.67	38117.99
556.869	38908.5
557.068	38785.63
557.268	38285.92
557.467	38599.26
557.667	38894.17
557.866	38769.24
558.065	38482.53
558.265	38027.88
558.464	38058.6
558.663	38466.14
558.863	38384.22
559.062	38687.32
559.261	37970.54
559.461	38201.96
559.66	37825.13
559.859	37909.1
560.058	37872.23
560.258	37757.55
560.457	37427.82
560.656	37952.1
560.855	37917.29
561.054	37673.58
561.253	37182.07
561.453	38050.41
561.652	37583.47
561.851	37763.69
562.05	37556.85
562.249	37046.9
562.448	37659.24
562.647	37409.39
562.846	37257.84
563.045	37429.87
563.244	37171.83
563.443	37524.08
563.642	36848.25
563.841	36786.81
564.04	36461.18
564.239	37188.21
564.438	36831.86
564.637	36967.03
564.836	37053.05
565.035	36665.98
565.234	37051
565.432	36672.12
565.631	36422.27
565.83	36428.41
566.029	36436.61
566.228	36612.73
566.427	36657.79
566.625	36059.78
566.824	35824.26
567.023	36172.42
567.222	35580.56
567.42	36422.27
567.619	36188.8
567.818	36082.31
568.016	35928.71
568.215	35828.36
568.414	35377.81
568.612	35936.9
568.811	35351.18
569.01	35834.5
569.208	34871.96
569.407	35386
569.605	34726.55
569.804	35242.64
570.002	35072.66
570.201	35105.43
570.4	34396.83
570.598	34771.61
570.797	34316.96
570.995	34669.21
571.193	34005.67
571.392	34685.59
571.59	34249.38
571.789	34235.04
571.987	34163.36
572.186	33979.04
572.384	33747.62
572.582	34325.15
572.781	34243.23
572.979	33491.63
573.177	33557.16
573.376	33659.56
573.574	33368.75
573.772	33243.82
573.971	33182.38
574.169	33100.47
574.367	32844.47
574.565	33067.7
574.763	32772.79
574.962	32709.3
575.16	32322.24
575.358	32563.9
575.556	32594.62
575.754	32944.82
575.952	32105.15
576.151	32664.25
576.349	31736.52
576.547	32213.7
576.745	31929.03
576.943	32023.23
577.141	31625.93
577.339	32033.47
577.537	31419.08
577.735	31746.76
577.933	31228.62
578.131	31517.39
578.329	31470.28
578.527	31412.94
578.725	31105.74
578.923	31122.13
579.121	30913.23
579.319	30616.28
579.516	31038.16
579.714	30841.56
579.912	30540.5
580.11	30481.11
580.308	30776.02
580.506	30552.79
580.704	30085.86
580.901	30436.06
581.099	30515.93
581.297	30022.37
581.495	30051.04
581.692	29741.8
581.89	29717.22
582.088	30044.9
582.285	29659.88
582.483	29764.32
582.681	29551.34
582.878	29475.56
583.076	28881.65
583.274	29354.73
583.471	28947.18
583.669	29098.73
583.866	29139.69
584.064	28965.62
584.262	28687.09
584.459	28844.79
584.657	28316.41
584.854	28920.56
585.052	28181.24
585.249	28615.41
585.447	28353.27
585.644	28302.07
585.841	28113.66
586.039	28422.9
586.236	28302.07
586.434	27792.13
586.631	27976.45
586.828	27906.82
587.026	27792.13
587.223	27527.94
587.42	27523.85
587.618	27566.85
587.815	27110.16
588.012	27249.42
588.21	26966.8
588.407	27239.18
588.604	27007.76
588.801	26913.55
588.999	26891.02
589.196	26524.44
589.393	27009.81
589.59	26487.57
589.787	26530.58
589.984	26415.9
590.182	26143.52
590.379	26321.69
590.576	26215.19
590.773	26133.28
590.97	25946.91
591.167	26147.61
591.364	25854.75
591.561	26057.5
591.758	25674.53
591.955	25735.97
592.152	25744.16
592.349	25844.51
592.546	25895.71
592.743	25449.25
592.94	25189.16
593.137	25363.24
593.334	25375.53
593.531	25230.12
593.727	25314.09
593.924	25271.08
594.121	24836.91
594.318	24988.46
594.515	24687.41
594.712	24791.86
594.908	24730.42
595.105	24806.19
595.302	24771.38
595.499	24531.76
595.696	24326.97
595.892	24107.83
596.089	24439.61
596.286	24290.1
596.482	24335.16
596.679	24079.16
596.876	24107.83
597.072	23798.59
597.269	23874.37
597.466	23669.57
597.662	23661.38
597.859	23585.6
598.055	23728.96
598.252	23499.59
598.448	23708.48
598.645	23200.58
598.841	23030.6
599.038	23485.25
599.234	23163.72
599.431	22979.4
599.627	22840.14
599.824	22864.72
600.02	22688.59
600.217	22614.87
600.413	23057.23
600.609	22649.68
600.806	22502.23
601.002	22729.55
601.198	22686.54
601.395	22178.65
601.591	21965.66
601.787	22082.39
601.984	22092.63
602.18	22336.34
602.376	21998.43
602.572	22008.67
602.769	21807.97
602.965	21642.08
603.161	21789.53
603.357	21816.16
603.553	21756.77
603.75	21717.86
603.946	21605.22
604.142	21793.63
604.338	21199.72
604.534	21447.52
604.73	20947.82
604.926	21095.27
605.122	21461.86
605.318	21066.6
605.514	20796.27
605.71	21066.6
605.906	20616.05
606.102	20720.49
606.298	20648.82
606.494	20456.31
606.69	20478.83
606.886	20788.08
607.082	20415.35
607.278	20632.43
607.474	20128.63
607.67	20358
607.866	19876.73
608.062	20245.37
608.257	20155.26
608.453	20198.26
608.649	20022.14
608.845	19702.65
609.041	19805.05
609.236	19841.92
609.432	19698.56
609.628	19719.04
609.824	19567.49
610.019	19409.79
610.215	19481.47
610.411	19583.87
610.606	19428.23
610.802	19532.67
610.998	19018.63
611.193	19258.24
611.389	18920.33
611.584	19135.37
611.78	19082.12
611.976	19125.13
612.171	18953.1
612.367	18754.44
612.562	18873.23
612.758	18629.52
612.953	18594.7
613.149	18717.58
613.344	18371.47
613.539	18836.36
613.735	18482.06
613.93	18693.01
614.126	18172.82
614.321	18629.52
614.517	18322.32
614.712	18330.51
614.907	18119.57
615.103	18158.49
615.298	18004.89
615.493	18176.92
615.688	17871.77
615.884	18209.68
616.079	17642.4
616.274	18176.92
616.47	17798.04
616.665	17673.12
616.86	17793.95
617.055	17652.64
617.25	17593.25
617.445	17533.86
617.641	17195.94
617.836	17585.05
618.031	17533.86
618.226	17583.01
618.421	17187.75
618.616	17468.32
618.811	16905.13
619.006	17218.47
619.201	16749.48
619.396	17081.25
619.591	16798.63
619.786	17007.53
619.981	16616.37
620.176	16663.47
620.371	16544.69
620.566	16536.49
620.761	16489.39
620.956	16647.08
621.151	16128.95
621.346	16231.35
621.541	15950.78
621.735	16151.48
621.93	15664.06
622.125	15971.25
622.32	15905.72
622.515	15602.62
622.709	15690.68
622.904	15614.91
623.099	15705.02
623.294	15467.45
623.488	15201.22
623.683	15432.64
623.878	14887.88
624.072	14918.6
624.267	15010.76
624.462	14898.12
624.656	14820.3
624.851	14898.12
625.046	14816.2
625.24	14609.36
625.435	14388.18
625.629	14431.18
625.824	14361.55
626.018	14312.4
626.213	13716.44
626.407	14179.28
626.602	14033.88
626.796	13890.52
626.991	13822.94
627.185	13677.53
627.38	13810.65
627.574	13513.69
627.768	13777.88
627.963	13456.35
628.157	13286.37
628.352	13390.81
628.546	13114.34
628.74	13145.06
628.935	13120.48
629.129	13128.67
629.323	13030.37
629.517	12917.73
629.712	13097.95
629.906	12727.27
630.1	12764.14
630.294	12905.45
630.489	12737.51
630.683	12579.82
630.877	12422.13
631.071	12547.05
631.265	12473.32
631.459	12366.83
631.653	12325.87
631.848	12147.7
632.042	11979.76
632.236	12391.41
632.43	12166.13
632.624	12155.89
632.818	11676.66
633.012	11817.97
633.206	11793.4
633.4	11842.55
633.594	11537.4
633.788	11492.35
633.982	11621.37
634.176	11465.72
634.369	11576.31
634.563	11174.91
634.757	11443.2
634.951	11301.89
635.145	11224.06
635.339	11113.47
635.533	11029.51
635.726	10963.97
635.92	10982.4
636.114	11017.22
636.308	10927.11
636.501	10781.7
636.695	10695.69
636.889	10406.92
637.083	10458.12
637.276	10591.24
637.47	10589.19
637.664	10597.38
637.857	10558.47
638.051	10468.36
638.244	10171.41
638.438	10394.64
638.632	10468.36
638.825	10003.47
639.019	9931.8
639.212	10060.82
639.406	9982.99
639.599	10007.57
639.793	9870.36
639.986	9903.12
640.18	9778.2
640.373	9821.2
640.567	9509.91
640.76	9583.64
640.954	9497.63
641.147	9466.91
641.34	9471
641.534	9305.12
641.727	9335.84
641.92	9374.75
642.114	9432.09
642.307	9346.08
642.5	8999.97
642.694	8930.34
642.887	9016.35
643.08	9122.85
643.273	8832.04
643.467	8913.95
643.66	8752.17
643.853	8625.19
644.046	8621.1
644.239	8717.35
644.432	8819.75
644.626	8510.5
644.819	8436.78
645.012	8383.53
645.205	8447.02
645.398	8311.85
645.591	8076.34
645.784	8389.67
645.977	8031.28
646.17	8018.99
646.363	7975.98
646.556	8148.01
646.749	7777.33
646.942	8027.18
647.135	7912.5
647.328	7849.01
647.521	7760.95
647.714	7703.61
647.907	7945.27
648.099	7554.1
648.292	7732.28
648.485	7513.14
648.678	7420.99
648.871	7296.06
649.064	7261.24
649.256	7504.95
649.449	7279.68
649.642	7195.71
649.835	7222.33
650.027	7283.77
650.22	7109.69
650.413	6904.9
650.605	7072.83
650.798	6915.14
650.991	6941.76
651.183	6927.42
651.376	6913.09
651.568	6851.65
651.761	6648.9
651.954	6779.97
652.146	6650.95
652.339	6667.33
652.531	6583.37
652.724	6495.3
652.916	6450.25
653.109	6462.54
653.301	6546.5
653.494	6382.67
653.686	6378.57
653.879	6519.88
654.071	6284.36
654.263	6212.68
654.456	6130.77
654.648	6050.89
654.84	6112.33
655.033	5893.2
655.225	6196.3
655.417	6075.47
655.61	5919.82
655.802	6024.27
655.994	6050.89
656.186	5934.16
656.379	5928.02
656.571	5928.02
656.763	5737.56
656.955	5665.88
657.148	5661.78
657.34	5739.6
657.532	5465.18
657.724	5575.77
657.916	5477.46
658.108	5706.84
658.3	5653.59
658.492	5524.57
658.684	5465.18
658.876	5223.51
659.068	5321.82
659.26	5223.51
659.452	5237.85
659.644	5147.74
659.836	5147.74
660.028	5239.9
660.22	5067.87
660.412	4988
660.604	5002.33
660.796	5051.49
660.988	4994.14
661.18	4850.78
661.372	4992.09
661.563	4879.46
661.755	4787.3
661.947	4758.63
662.139	4852.83
662.331	4748.39
662.522	4674.66
662.714	4711.52
662.906	4582.5
663.097	4559.97
663.289	4531.3
663.481	4666.47
663.673	4625.51
663.864	4473.96
664.056	4463.72
664.247	4447.33
664.439	4439.14
664.631	4320.36
664.822	4445.29
665.014	4334.7
665.205	4242.54
665.397	4351.08
665.588	4287.59
665.78	4215.91
665.971	4211.82
666.163	4260.97
666.354	4119.66
666.546	4195.43
666.737	4041.84
666.929	4123.76
667.12	4037.74
667.311	4004.97
667.503	4066.41
667.694	4078.7
667.885	4078.7
668.077	3914.86
668.268	3783.79
668.459	3902.58
668.651	3816.56
668.842	3890.29
669.033	3779.7
669.224	3742.83
669.416	3671.15
669.607	3806.32
669.798	3728.5
669.989	3767.41
670.18	3820.66
670.371	3650.67
670.563	3683.44
670.754	3699.83
670.945	3634.29
671.136	3595.38
671.327	3660.91
671.518	3492.98
671.709	3685.49
671.9	3544.18
672.091	3529.84
672.282	3554.42
672.473	3521.65
672.664	3517.56
672.855	3406.97
673.046	3421.3
673.237	3337.34
673.428	3329.14
673.619	3456.12
673.809	3368.06
674	3390.58
674.191	3351.67
674.382	3382.39
674.573	3247.23
674.764	3259.51
674.954	3341.43
675.145	3249.27
675.336	3282.04
675.527	3343.48
675.717	3316.86
675.908	3290.23
676.099	3202.17
676.289	3230.84
676.48	3089.53
676.671	3204.22
676.861	3228.79
677.052	3107.96
677.243	3189.88
677.433	3159.16
677.624	3130.49
677.814	3089.53
678.005	3183.74
678.195	2997.37
678.386	3071.1
678.576	3069.05
678.767	2958.46
678.957	3073.15
679.148	3036.28
679.338	3015.8
679.529	3003.52
679.719	3028.09
679.909	2940.03
680.1	3183.74
680.29	3007.61
680.481	2999.42
680.671	3046.52
680.861	2913.41
681.052	2880.64
681.242	3030.14
681.432	2886.78
681.622	2907.26
681.813	2970.75
682.003	3019.9
682.193	2837.63
682.383	2980.99
682.573	2917.5
682.764	2825.34
682.954	2868.35
683.144	2794.62
683.334	2839.68
683.524	2874.49
683.714	2907.26
683.904	2862.21
684.094	2870.4
684.284	2831.49
684.474	2770.05
684.664	2866.3
684.854	2753.66
685.044	2813.06
685.234	2929.79
685.424	2894.97
685.614	2741.38
685.804	2788.48
685.994	2716.8
686.184	2872.45
686.374	2798.72
686.564	2839.68
686.753	2706.56
686.943	2731.14
687.133	2733.18
687.323	2835.58
687.513	2768
687.702	2792.58
687.892	2761.86
688.082	2718.85
688.272	2745.47
688.461	2755.71
688.651	2792.58
688.841	2763.9
689.03	2694.27
689.22	2806.91
689.41	2811.01
689.599	2684.03
689.789	2692.23
689.979	2663.55
690.168	2638.98
690.358	2720.9
690.547	2657.41
690.737	2790.53
690.926	2694.27
691.116	2741.38
691.305	2806.91
691.495	2708.61
691.684	2624.64
691.874	2708.61
692.063	2739.33
692.252	2651.27
692.442	2706.56
692.631	2686.08
692.82	2694.27
693.01	2604.16
693.199	2628.74
693.388	2614.4
693.578	2690.18
693.767	2655.36
693.956	2796.67
694.146	2645.12
694.335	2694.27
694.524	2684.03
694.713	2641.03
694.902	2651.27
695.092	2729.09
695.281	2624.64
695.47	2681.99
695.659	2626.69
695.848	2614.4
696.037	2688.13
696.226	2647.17
696.415	2741.38
696.604	2620.55
696.793	2651.27
696.982	2606.21
697.171	2632.83
697.36	2657.41
697.549	2669.7
697.738	2626.69
697.927	2606.21
698.116	2585.73
698.305	2563.2
698.494	2555.01
698.683	2526.34
698.872	2690.18
699.061	2702.47
699.25	2512
699.438	2575.49
699.627	2495.62
699.816	2534.53
700.005	2583.68
700.193	2700.42
700.382	2673.79
700.571	2559.11
700.76	2585.73
700.948	2577.54
701.137	2606.21
701.326	2606.21
701.514	2593.92
701.703	2514.05
701.892	2536.58
702.08	2464.9
702.269	2561.16
702.457	2499.72
702.646	2456.71
702.834	2587.78
703.023	2587.78
703.212	2489.48
703.4	2589.83
703.589	2514.05
703.777	2583.68
703.965	2466.95
704.154	2481.28
704.342	2514.05
704.531	2473.09
704.719	2436.23
704.907	2350.21
705.096	2393.22
705.284	2323.59
705.472	2432.13
705.661	2268.3
705.849	2409.61
706.037	2307.21
706.226	2331.78
706.414	2331.78
706.602	2331.78
706.79	2372.74
706.979	2407.56
707.167	2350.21
707.355	2237.58
707.543	2301.06
707.731	2378.89
707.919	2198.67
708.107	2321.54
708.296	2243.72
708.484	2245.77
708.672	2268.3
708.86	2245.77
709.048	2317.45
709.236	2268.3
709.424	2305.16
709.612	2176.14
709.8	2120.84
709.988	2147.47
710.176	2198.67
710.364	2122.89
710.551	2241.67
710.739	2151.56
710.927	2206.86
711.115	2096.27
711.303	2145.42
711.491	2200.71
711.679	2110.6
711.866	2155.66
712.054	2159.75
712.242	2026.64
712.43	2169.99
712.617	2176.14
712.805	1946.76
712.993	2032.78
713.181	2067.6
713.368	2047.12
713.556	2008.2
713.744	2014.35
713.931	2051.21
714.119	1916.05
714.306	2049.16
714.494	1926.29
714.682	2051.21
714.869	1901.71
715.057	2043.02
715.244	2088.07
715.432	1973.39
715.619	1938.57
715.807	1920.14
715.994	1883.28
716.182	1907.85
716.369	1926.29
716.556	1909.9
716.744	1821.84
716.931	1897.61
717.119	1887.37
717.306	1834.13
717.493	1784.98
717.681	1873.04
717.868	1778.83
718.055	1830.03
718.242	1868.94
718.43	1795.22
718.617	1690.77
718.804	1959.05
718.991	1827.98
719.179	1733.78
719.366	1758.35
719.553	1776.78
719.74	1741.97
719.927	1750.16
720.114	1698.96
720.301	1754.26
720.488	1606.8
720.676	1739.92
720.863	1713.3
721.05	1637.52
721.237	1668.24
721.424	1735.82
721.611	1594.51
721.798	1608.85
721.985	1606.8
722.172	1610.9
722.358	1670.29
722.545	1682.58
722.732	1543.32
722.919	1506.45
723.106	1578.13
723.293	1586.32
723.48	1651.86
723.667	1606.8
723.853	1561.75
724.04	1571.99
724.227	1635.47
724.414	1563.79
724.6	1502.36
724.787	1614.99
724.974	1516.69
725.161	1524.88
725.347	1539.22
725.534	1449.11
725.72	1571.99
725.907	1473.68
726.094	1596.56
726.28	1512.6
726.467	1442.96
726.653	1541.27
726.84	1592.47
727.027	1580.18
727.213	1514.64
727.4	1524.88
727.586	1537.17
727.773	1391.77
727.959	1438.87
728.145	1463.44
728.332	1483.92
728.518	1410.2
728.705	1463.44
728.891	1510.55
729.077	1420.44
729.264	1373.33
729.45	1346.71
729.636	1434.77
729.823	1442.96
730.009	1471.64
730.195	1359
730.382	1285.27
730.568	1414.29
730.754	1449.11
730.94	1334.42
731.126	1285.27
731.313	1399.96
731.499	1326.23
731.685	1318.04
731.871	1332.37
732.057	1359
732.243	1250.46
732.429	1256.6
732.615	1252.5
732.801	1324.18
732.987	1336.47
733.173	1227.93
733.359	1264.79
733.545	1389.72
733.731	1275.03
733.917	1160.34
734.103	1279.13
734.289	1344.66
734.475	1221.78
734.661	1277.08
734.847	1246.36
735.033	1225.88
735.219	1256.6
735.404	1311.89
735.59	1113.24
735.776	1197.21
735.962	1109.15
736.148	1174.68
736.333	1234.07
736.519	1193.11
736.705	1197.21
736.89	1152.15
737.076	1186.97
737.262	1176.73
737.447	1088.67
737.633	1117.34
737.819	1164.44
738.004	1070.23
738.19	1182.87
738.375	1016.99
738.561	1082.52
738.747	1070.23
738.932	1100.95
739.118	1160.34
739.303	1047.71
739.489	1139.87
739.674	1076.38
739.859	1176.73
740.045	1051.8
740.23	1084.57
740.416	1129.63
740.601	1082.52
740.786	1035.42
740.972	1105.05
741.157	1025.18
741.342	1084.57
741.528	1084.57
741.713	1111.19
741.898	1107.1
742.084	1086.62
742.269	1086.62
742.454	996.51
742.639	992.41
742.824	1039.51
743.01	1074.33
743.195	935.07
743.38	996.51
743.565	949.4
743.75	926.88
743.935	1002.65
744.12	973.98
744.305	941.21
744.49	976.03
744.675	990.36
744.86	859.29
745.045	961.69
745.23	914.59
745.415	873.63
745.6	865.44
745.785	900.25
745.97	910.49
746.155	906.4
746.34	949.4
746.525	873.63
746.71	892.06
746.895	908.44
747.079	912.54
747.264	857.25
747.449	861.34
747.634	877.73
747.819	847.01
748.003	822.43
748.188	898.2
748.373	877.73
748.557	812.19
748.742	812.19
748.927	814.24
749.111	826.53
749.296	847.01
749.481	838.81
749.665	795.81
749.85	799.9
750.034	900.25
750.219	824.48
750.404	754.85
750.588	765.09
750.773	732.32
750.957	779.42
751.141	781.47
751.326	730.27
751.51	732.32
751.695	765.09
751.879	670.88
752.064	701.6
752.248	754.85
752.432	732.32
752.617	808.09
752.801	707.74
752.985	758.94
753.17	693.41
753.354	728.22
753.538	732.32
753.722	660.64
753.907	756.9
754.091	636.06
754.275	781.47
754.459	670.88
754.643	717.98
754.828	668.83
755.012	591.01
755.196	670.88
755.38	693.41
755.564	668.83
755.748	701.6
755.932	658.59
756.116	576.67
756.3	695.46
756.484	652.45
756.668	648.35
756.852	621.73
757.036	660.64
757.22	570.53
757.404	627.87
757.588	681.12
757.772	564.39
757.956	593.06
758.14	629.92
758.323	513.19
758.507	523.43
758.691	556.19
758.875	568.48
759.059	593.06
759.242	629.92
759.426	562.34
759.61	660.64
759.794	644.26
759.977	566.43
760.161	568.48
760.345	533.67
760.528	554.15
760.712	588.96
760.895	554.15
761.079	537.76
761.263	515.23
761.446	490.66
761.63	529.57
761.813	500.9
761.997	533.67
762.18	560.29
762.364	494.76
762.547	431.27
762.731	568.48
762.914	558.24
763.098	455.84
763.281	502.95
763.464	566.43
763.648	459.94
763.831	480.42
764.015	496.8
764.198	502.95
764.381	472.23
764.564	449.7
764.748	482.47
764.931	451.75
765.114	482.47
765.297	439.46
765.481	373.92
765.664	472.23
765.847	457.89
766.03	537.76
766.213	464.04
766.397	425.12
766.58	416.93
766.763	523.43
766.946	431.27
767.129	507.04
767.312	529.57
767.495	498.85
767.678	414.88
767.861	496.8
768.044	459.94
768.227	427.17
768.41	445.6
768.593	382.12
768.776	472.23
768.959	472.23
769.142	535.71
769.324	455.84
769.507	457.89
769.69	439.46
769.873	433.32
770.056	478.37
770.239	400.55
770.421	513.19
770.604	402.6
770.787	373.92
770.97	433.32
771.152	451.75
771.335	439.46
771.518	457.89
771.7	447.65
771.883	437.41
772.066	468.13
772.248	359.59
772.431	371.88
772.613	439.46
772.796	382.12
772.978	404.64
773.161	429.22
773.343	441.51
773.526	363.69
773.708	451.75
773.891	310.44
774.073	375.97
774.256	396.45
774.438	408.74
774.621	412.84
774.803	373.92
774.985	392.36
775.168	408.74
775.35	390.31
775.532	328.87
775.715	390.31
775.897	435.36
776.079	289.96
776.261	322.73
776.444	328.87
776.626	394.4
776.808	349.35
776.99	285.86
777.173	345.25
777.355	414.88
777.537	316.58
777.719	308.39
777.901	380.07
778.083	275.62
778.265	371.88
778.447	347.3
778.629	292.01
778.811	300.2
778.993	345.25
779.175	271.53
779.357	310.44
779.539	384.16
779.721	359.59
779.903	275.62
780.085	316.58
780.267	310.44
780.449	300.2
780.631	285.86
780.812	249
780.994	275.62
781.176	271.53
781.358	275.62
781.54	271.53
781.721	373.92
781.903	251.05
782.085	384.16
782.267	339.11
782.448	201.9
782.63	257.19
782.812	298.15
782.993	265.38
783.175	261.29
783.357	242.85
783.538	259.24
783.72	259.24
783.901	277.67
784.083	234.66
784.264	224.42
784.446	320.68
784.627	175.27
784.809	257.19
784.99	195.75
785.172	283.81
785.353	277.67
785.535	267.43
785.716	261.29
785.897	169.13
786.079	271.53
786.26	261.29
786.441	218.28
786.623	169.13
786.804	277.67
786.985	240.81
787.167	253.09
787.348	205.99
787.529	265.38
787.71	179.37
787.891	246.95
788.073	212.14
788.254	195.75
788.435	263.33
788.616	222.38
788.797	179.37
788.978	222.38
789.159	263.33
789.34	232.62
789.522	269.48
789.703	208.04
789.884	257.19
790.065	226.47
790.246	185.51
790.427	294.05
790.607	193.7
790.788	76.97
790.969	212.14
791.15	220.33
791.331	136.36
791.512	181.42
791.693	156.84
791.874	124.07
792.054	279.72
792.235	199.85
792.416	173.22
792.597	187.56
792.778	117.93
792.958	181.42
793.139	197.8
793.32	169.13
793.5	130.22
793.681	193.7
793.862	220.33
794.042	179.37
794.223	165.03
794.404	132.26
794.584	175.27
794.765	79.02
794.945	107.69
795.126	183.46
795.306	201.9
795.487	154.79
795.667	216.23
795.848	183.46
796.028	138.41
796.209	220.33
796.389	132.26
796.57	185.51
796.75	126.12
796.93	154.79
797.111	132.26
797.291	136.36
797.471	95.4
797.652	160.94
797.832	105.64
798.012	195.75
798.192	87.21
798.373	111.78
798.553	115.88
798.733	101.55
798.913	107.69
799.093	148.65
799.274	179.37
799.454	224.42
799.634	156.84
799.814	126.12
799.994	89.26
800.174	117.93
800.354	185.51
800.534	115.88
800.714	119.98
800.894	158.89
801.074	85.16
801.254	128.17
801.434	183.46
801.614	154.79
801.794	173.22
801.974	382.12
802.154	109.74
802.334	74.92
802.514	85.16
802.693	165.03
802.873	136.36
803.053	115.88
803.233	119.98
803.413	177.32
803.592	89.26
803.772	119.98
803.952	132.26
804.131	146.6
804.311	44.2
804.491	105.64
804.67	40.11
804.85	52.39
805.03	76.97
805.209	150.7
805.389	76.97
805.568	126.12
805.748	105.64
805.928	97.45
806.107	107.69
806.287	99.5
806.466	146.6
806.646	169.13
806.825	128.17
807.004	89.26
807.184	38.06
807.363	70.83
807.543	103.59
807.722	58.54
807.901	99.5
808.081	132.26
808.26	36.01
808.439	122.02
808.619	99.5
808.798	70.83
808.977	128.17
809.156	9.39
809.336	83.11
809.515	124.07
809.694	111.78
809.873	107.69
810.052	74.92
810.231	99.5
810.411	87.21
810.59	111.78
810.769	74.92
810.948	81.07
811.127	97.45
811.306	95.4
811.485	134.31
811.664	197.8
811.843	70.83
812.022	25.77
812.201	17.58
812.38	113.83
812.559	36.01
812.737	95.4
812.916	93.35
813.095	38.06
813.274	95.4
813.453	25.77
813.632	115.88
813.811	74.92
813.989	81.07
814.168	79.02
814.347	91.31
814.526	97.45
814.704	85.16
814.883	117.93
815.062	54.44
815.24	85.16
815.419	33.96
815.598	11.43
815.776	5.29
815.955	21.67
816.133	56.49
816.312	56.49
816.49	79.02
816.669	111.78
816.847	91.31
817.026	113.83
817.204	91.31
817.383	3.24
817.561	-39.76
817.74	115.88
817.918	134.31
818.097	54.44
818.275	1.19
818.453	42.15
818.632	103.59
818.81	91.31
818.988	17.58
819.167	-2.9
819.345	19.63
819.523	70.83
819.701	187.56
819.879	11.43
820.058	27.82
820.236	13.48
820.414	48.3
820.592	171.18
820.77	-7
820.948	27.82
821.127	29.87
821.305	126.12
821.483	83.11
821.661	27.82
821.839	40.11
822.017	93.35
822.195	50.35
822.373	99.5
822.551	60.59
822.729	76.97
822.907	-7
823.085	89.26
823.262	-19.29
823.44	-11.09
823.618	25.77
823.796	56.49
823.974	-31.57
824.152	64.68
824.329	42.15
824.507	60.59
824.685	5.29
824.863	66.73
825.04	128.17
825.218	38.06
825.396	79.02
825.574	87.21
825.751	99.5
825.929	17.58
826.107	38.06
826.284	38.06
826.462	17.58
826.639	21.67
826.817	50.35
826.994	-15.19
827.172	93.35
827.349	66.73
827.527	25.77
827.704	40.11
827.882	9.39
828.059	31.91
828.237	74.92
828.414	42.15
828.591	-11.09
828.769	66.73
828.946	-21.33
829.124	46.25
829.301	62.63
829.478	15.53
829.655	-2.9
829.833	64.68
830.01	5.29
830.187	13.48
830.364	109.74
830.542	42.15
830.719	44.2
830.896	85.16
831.073	40.11
831.25	103.59
831.427	66.73
831.604	54.44
831.782	-27.48
831.959	91.31
832.136	7.34
832.313	89.26
832.49	64.68
832.667	62.63
832.844	25.77
833.021	46.25
833.198	38.06
833.374	62.63
833.551	56.49
833.728	23.72
833.905	31.91
834.082	-15.19
834.259	83.11
834.436	33.96
834.612	-9.05
834.789	9.39
834.966	25.77
835.143	23.72
835.319	19.63
835.496	52.39
835.673	31.91
835.85	38.06
836.026	-13.14
836.203	33.96
836.38	-11.09
836.556	-27.48
836.733	3.24
836.909	-19.29
837.086	70.83
837.262	23.72
837.439	81.07
837.616	23.72
837.792	66.73
837.968	1.19
838.145	-27.48
838.321	29.87
838.498	46.25
838.674	21.67
838.851	-23.38
839.027	60.59
839.203	7.34
839.38	76.97
839.556	38.06
839.732	-31.57
839.909	25.77
840.085	79.02
840.261	-7
840.437	1.19
840.614	27.82
840.79	-72.53
840.966	-11.09
841.142	21.67
841.318	-41.81
841.494	-39.76
841.671	36.01
841.847	-9.05
842.023	58.54
842.199	-2.9
842.375	19.63
842.551	7.34
842.727	5.29
842.903	91.31
843.079	5.29
843.255	87.21
843.431	46.25
843.607	-11.09
843.783	19.63
843.959	46.25
844.134	44.2
844.31	33.96
844.486	31.91
844.662	29.87
844.838	23.72
845.013	-0.85
845.189	-35.67
845.365	9.39
845.541	-117.59
845.716	-11.09
845.892	91.31
846.068	-9.05
846.244	-17.24
846.419	-25.43
846.595	15.53
846.77	48.3
846.946	29.87
847.122	36.01
847.297	56.49
847.473	-9.05
847.648	44.2
847.824	-15.19
847.999	-2.9
848.175	19.63
848.35	19.63
848.526	38.06
848.701	1.19
848.876	42.15
849.052	15.53
849.227	31.91
849.403	-21.33
849.578	38.06
849.753	5.29
849.929	46.25
850.104	27.82
850.279	29.87
850.454	-25.43
850.63	33.96
850.805	23.72
850.98	52.39
851.155	7.34
851.33	27.82
851.505	-0.85
851.681	-2.9
851.856	-35.67
852.031	54.44
852.206	48.3
852.381	-15.19
852.556	-9.05
852.731	-13.14
852.906	-74.58
853.081	1.19
853.256	-27.48
853.431	46.25
853.606	17.58
853.781	-7
853.956	-72.53
854.131	9.39
854.305	46.25
854.48	-35.67
854.655	9.39
854.83	33.96
855.005	-17.24
855.18	-19.29
855.354	-47.96
855.529	79.02
855.704	3.24
855.879	11.43
856.053	-17.24
856.228	74.92
856.403	-74.58
856.577	-25.43
856.752	5.29
856.926	54.44
857.101	-19.29
857.276	42.15
857.45	-21.33
857.625	11.43
857.799	-2.9
857.974	36.01
858.148	-45.91
858.323	3.24
858.497	-21.33
858.672	21.67
858.846	21.67
859.02	17.58
859.195	-37.72
859.369	-25.43
859.543	-45.91
859.718	-27.48
859.892	-31.57
860.066	-7
860.241	29.87
860.415	1.19
860.589	17.58
860.763	50.35
860.938	-15.19
861.112	-35.67
861.286	-37.72
861.46	1.19
861.634	-37.72
861.808	54.44
861.982	-27.48
862.157	42.15
862.331	-25.43
862.505	31.91
862.679	66.73
862.853	-29.52
863.027	-31.57
863.201	-0.85
863.375	3.24
863.549	7.34
863.722	52.39
863.896	5.29
864.07	83.11
864.244	15.53
864.418	-29.52
864.592	29.87
864.766	58.54
864.939	36.01
865.113	50.35
865.287	54.44
865.461	-23.38
865.634	-45.91
865.808	21.67
865.982	7.34
866.156	-13.14
866.329	9.39
866.503	-31.57
866.676	50.35
866.85	-35.67
867.024	52.39
867.197	19.63
867.371	50.35
867.544	-43.86
867.718	70.83
867.891	-27.48
868.065	-11.09
868.238	21.67
868.412	-27.48
868.585	-0.85
868.759	97.45
868.932	-52.05
869.105	-17.24
869.279	-31.57
869.452	-35.67
869.625	-76.63
869.799	68.78
869.972	-33.62
870.145	-4.95
870.319	19.63
870.492	-41.81
870.665	-15.19
870.838	52.39
871.011	-13.14
871.185	-2.9
871.358	-27.48
871.531	-2.9
871.704	-25.43
871.877	27.82
872.05	-33.62
872.223	-27.48
872.396	7.34
872.569	42.15
872.742	7.34
872.915	-4.95
873.088	13.48
873.261	-35.67
873.434	17.58
873.607	-11.09
873.78	-60.24
873.953	-27.48
874.126	-35.67
874.299	3.24
874.471	-7
874.644	-29.52
874.817	-25.43
874.99	46.25
875.163	-15.19
875.335	-41.81
875.508	-19.29
875.681	25.77
875.853	-125.78
876.026	38.06
876.199	66.73
876.371	13.48
876.544	42.15
876.717	-25.43
876.889	62.63
877.062	7.34
877.234	-17.24
877.407	-33.62
877.579	1.19
877.752	11.43
877.924	13.48
878.097	-19.29
878.269	-21.33
878.442	-2.9
878.614	9.39
878.786	-43.86
878.959	17.58
879.131	21.67
879.303	-43.86
879.476	31.91
879.648	72.87
879.82	-7
879.993	13.48
880.165	-19.29
880.337	44.2
880.509	-31.57
880.681	31.91
880.854	-39.76
881.026	-9.05
881.198	-11.09
881.37	38.06
881.542	-11.09
881.714	27.82
881.886	-52.05
882.058	-19.29
882.23	-45.91
882.402	1.19
882.574	-4.95
882.746	-17.24
882.918	9.39
883.09	-15.19
883.262	-17.24
883.434	-66.39
883.606	-4.95
883.778	36.01
883.95	33.96
884.122	7.34
884.293	-66.39
884.465	-62.29
884.637	52.39
884.809	-62.29
884.98	-0.85
885.152	-33.62
885.324	21.67
885.496	-45.91
885.667	-23.38
885.839	3.24
886.011	-27.48
886.182	-54.1
886.354	-7
886.525	-23.38
886.697	-43.86
886.869	-27.48
887.04	-0.85
887.212	-11.09
887.383	13.48
887.555	50.35
887.726	-11.09
887.897	-9.05
888.069	52.39
888.24	40.11
888.412	7.34
888.583	-2.9
888.754	-17.24
888.926	-37.72
889.097	-15.19
889.268	-64.34
889.44	-19.29
889.611	-50
889.782	-41.81
889.953	-45.91
890.125	17.58
890.296	-4.95
890.467	-9.05
890.638	-29.52
890.809	-47.96
890.98	-4.95
891.151	33.96
891.323	-33.62
891.494	38.06
891.665	46.25
891.836	11.43
892.007	46.25
892.178	1.19
892.349	-33.62
892.52	42.15
892.691	23.72
892.862	-11.09
893.032	-103.25
893.203	-25.43
893.374	11.43
893.545	58.54
893.716	-23.38
893.887	-58.2
894.057	-17.24
894.228	15.53
894.399	15.53
894.57	-0.85
894.74	29.87
894.911	-25.43
895.082	29.87
895.253	5.29
895.423	-47.96
895.594	40.11
895.764	7.34
895.935	-21.33
896.106	-23.38
896.276	48.3
896.447	21.67
896.617	-95.06
896.788	-41.81
896.958	33.96
897.129	-27.48
897.299	46.25
897.47	-64.34
897.64	-35.67
897.81	31.91
897.981	40.11
898.151	-13.14
898.322	-25.43
898.492	-25.43
898.662	-52.05
898.832	-25.43
899.003	81.07
899.173	36.01
899.343	-31.57
899.513	-21.33
