Data from USB4F104151__12__13-52-19-364.txt Node

Date: Thu Mar 13 13:52:19 EDT 2025
User: louis
Spectrometer: USB4F10415
Trigger mode: 4
Integration Time (sec): 1.000000E-2
Scans to average: 1
Electric dark correction enabled: true
Nonlinearity correction enabled: false
Boxcar width: 0
XAxis mode: Wavelengths
Number of Pixels in Spectrum: 3648
>>>>>Begin Spectral Data<<<<<
178.204	-79.02
178.424	-79.02
178.644	-79.02
178.864	-19.63
179.084	-29.87
179.304	-25.77
179.524	-50.35
179.744	11.09
179.964	-11.43
180.184	-7.34
180.404	54.1
180.624	-7.34
180.844	0.85
181.064	-85.16
181.283	33.62
181.503	21.33
181.723	66.39
181.943	-36.01
182.163	-76.97
182.383	25.43
182.602	2.9
182.822	27.48
183.042	27.48
183.262	-76.97
183.482	76.63
183.701	19.29
183.921	33.62
184.141	-19.63
184.361	-9.39
184.58	-70.83
184.8	-23.72
185.02	-15.53
185.239	29.52
185.459	-52.39
185.679	62.29
185.898	-46.25
186.118	-13.48
186.338	-11.43
186.557	21.33
186.777	-9.39
186.997	33.62
187.216	7
187.436	66.39
187.655	-1.19
187.875	29.52
188.095	-36.01
188.314	31.57
188.534	2.9
188.753	-29.87
188.973	7
189.192	-60.59
189.412	2.9
189.631	54.1
189.851	2.9
190.07	25.43
190.29	-19.63
190.509	25.43
190.729	-42.15
190.948	-1.19
191.168	56.15
191.387	-7.34
191.607	-83.11
191.826	39.76
192.045	-132.26
192.265	-1.19
192.484	-38.06
192.704	45.91
192.923	52.05
193.142	17.24
193.362	-52.39
193.581	66.39
193.8	25.43
194.02	4.95
194.239	9.05
194.458	-27.82
194.678	2.9
194.897	25.43
195.116	43.86
195.335	0.85
195.555	-31.91
195.774	-17.58
195.993	-11.43
196.212	-13.48
196.432	-11.43
196.651	33.62
196.87	-27.82
197.089	13.14
197.308	74.58
197.528	-3.24
197.747	33.62
197.966	-21.67
198.185	35.67
198.404	-60.59
198.623	-36.01
198.842	-33.96
199.062	-83.11
199.281	-15.53
199.5	-66.73
199.719	-3.24
199.938	31.57
200.157	-13.48
200.376	-13.48
200.595	-7.34
200.814	64.34
201.033	41.81
201.252	0.85
201.471	27.48
201.69	37.72
201.909	60.24
202.128	29.52
202.347	0.85
202.566	-9.39
202.785	-42.15
203.004	52.05
203.223	-7.34
203.442	27.48
203.661	29.52
203.879	2.9
204.098	-48.3
204.317	21.33
204.536	4.95
204.755	-11.43
204.974	43.86
205.193	47.96
205.411	45.91
205.63	43.86
205.849	17.24
206.068	52.05
206.287	4.95
206.505	-52.39
206.724	-1.19
206.943	64.34
207.162	13.14
207.381	35.67
207.599	21.33
207.818	-40.11
208.037	19.29
208.255	13.14
208.474	-11.43
208.693	-7.34
208.911	60.24
209.13	-11.43
209.349	31.57
209.567	-25.77
209.786	70.48
210.005	4.95
210.223	-46.25
210.442	-44.2
210.661	13.14
210.879	-40.11
211.098	136.02
211.316	7
211.535	25.43
211.753	9.05
211.972	13.14
212.191	9.05
212.409	7
212.628	-52.39
212.846	-56.49
213.065	-9.39
213.283	9.05
213.502	2.9
213.72	19.29
213.938	-9.39
214.157	-11.43
214.375	35.67
214.594	50
214.812	64.34
215.031	17.24
215.249	25.43
215.467	29.52
215.686	35.67
215.904	0.85
216.122	43.86
216.341	-29.87
216.559	-56.49
216.778	13.14
216.996	-13.48
217.214	13.14
217.432	33.62
217.651	-70.83
217.869	-36.01
218.087	17.24
218.306	9.05
218.524	54.1
218.742	25.43
218.96	58.2
219.179	47.96
219.397	29.52
219.615	31.57
219.833	29.52
220.051	-109.74
220.27	29.52
220.488	-3.24
220.706	72.53
220.924	-36.01
221.142	-60.59
221.36	21.33
221.578	-31.91
221.796	9.05
222.015	11.09
222.233	-3.24
222.451	-29.87
222.669	90.96
222.887	-11.43
223.105	43.86
223.323	23.38
223.541	-25.77
223.759	60.24
223.977	25.43
224.195	47.96
224.413	-60.59
224.631	64.34
224.849	9.05
225.067	-7.34
225.285	13.14
225.503	13.14
225.721	39.76
225.939	-46.25
226.157	-9.39
226.375	9.05
226.592	-5.29
226.81	39.76
227.028	21.33
227.246	68.44
227.464	-17.58
227.682	50
227.9	-46.25
228.117	-3.24
228.335	-25.77
228.553	13.14
228.771	11.09
228.989	66.39
229.206	4.95
229.424	33.62
229.642	-13.48
229.86	-83.11
230.077	33.62
230.295	23.38
230.513	-79.02
230.731	39.76
230.948	56.15
231.166	29.52
231.384	-64.68
231.601	58.2
231.819	2.9
232.037	-5.29
232.254	-5.29
232.472	-7.34
232.689	31.57
232.907	21.33
233.125	-11.43
233.342	-23.72
233.56	-42.15
233.777	-68.78
233.995	13.14
234.213	7
234.43	31.57
234.648	7
234.865	-11.43
235.083	-3.24
235.3	13.14
235.518	15.19
235.735	52.05
235.953	0.85
236.17	-19.63
236.388	-31.91
236.605	0.85
236.822	41.81
237.04	21.33
237.257	62.29
237.475	-7.34
237.692	-15.53
237.909	7
238.127	-19.63
238.344	-15.53
238.562	43.86
238.779	56.15
238.996	-33.96
239.214	-29.87
239.431	23.38
239.648	31.57
239.865	-42.15
240.083	-5.29
240.3	19.29
240.517	-5.29
240.735	62.29
240.952	58.2
241.169	62.29
241.386	-60.59
241.603	-48.3
241.821	-54.44
242.038	50
242.255	-29.87
242.472	-36.01
242.689	13.14
242.907	70.48
243.124	-25.77
243.341	11.09
243.558	-23.72
243.775	15.19
243.992	15.19
244.209	9.05
244.426	66.39
244.643	4.95
244.86	-38.06
245.078	7
245.295	9.05
245.512	45.91
245.729	2.9
245.946	-23.72
246.163	0.85
246.38	68.44
246.597	-19.63
246.814	37.72
247.031	4.95
247.248	-42.15
247.464	-5.29
247.681	-48.3
247.898	-9.39
248.115	-21.67
248.332	50
248.549	41.81
248.766	25.43
248.983	21.33
249.2	0.85
249.417	29.52
249.633	9.05
249.85	0.85
250.067	-46.25
250.284	-21.67
250.501	11.09
250.717	-44.2
250.934	4.95
251.151	41.81
251.368	-68.78
251.585	-36.01
251.801	13.14
252.018	27.48
252.235	-25.77
252.451	-3.24
252.668	-52.39
252.885	11.09
253.102	-64.68
253.318	9.05
253.535	0.85
253.752	23.38
253.968	-33.96
254.185	4.95
254.401	17.24
254.618	37.72
254.835	78.68
255.051	58.2
255.268	7
255.484	-3.24
255.701	-25.77
255.917	-17.58
256.134	0.85
256.351	0.85
256.567	-17.58
256.784	88.92
257	76.63
257.217	93.01
257.433	47.96
257.65	29.52
257.866	9.05
258.082	-48.3
258.299	-15.53
258.515	41.81
258.732	-15.53
258.948	17.24
259.165	-5.29
259.381	-7.34
259.597	21.33
259.814	33.62
260.03	37.72
260.246	-21.67
260.463	-7.34
260.679	31.57
260.895	9.05
261.112	-42.15
261.328	-15.53
261.544	25.43
261.761	17.24
261.977	11.09
262.193	-23.72
262.409	0.85
262.626	17.24
262.842	62.29
263.058	-81.07
263.274	15.19
263.49	-21.67
263.707	-11.43
263.923	13.14
264.139	45.91
264.355	-19.63
264.571	39.76
264.787	-21.67
265.004	-1.19
265.22	31.57
265.436	35.67
265.652	37.72
265.868	-9.39
266.084	-5.29
266.3	27.48
266.516	-15.53
266.732	17.24
266.948	39.76
267.164	33.62
267.38	-19.63
267.596	-1.19
267.812	-62.63
268.028	27.48
268.244	-36.01
268.46	54.1
268.676	-89.26
268.892	31.57
269.108	13.14
269.324	-29.87
269.54	-54.44
269.756	-3.24
269.972	11.09
270.188	84.82
270.403	-9.39
270.619	37.72
270.835	39.76
271.051	-36.01
271.267	29.52
271.483	27.48
271.698	74.58
271.914	76.63
272.13	11.09
272.346	13.14
272.562	-3.24
272.777	-40.11
272.993	-38.06
273.209	27.48
273.425	-7.34
273.64	-50.35
273.856	13.14
274.072	-46.25
274.287	17.24
274.503	88.92
274.719	-21.67
274.934	-40.11
275.15	-5.29
275.366	52.05
275.581	-29.87
275.797	-21.67
276.012	23.38
276.228	-15.53
276.444	-7.34
276.659	62.29
276.875	-11.43
277.09	19.29
277.306	-9.39
277.521	41.81
277.737	-5.29
277.952	56.15
278.168	-19.63
278.383	86.87
278.599	-91.31
278.814	35.67
279.03	56.15
279.245	72.53
279.461	37.72
279.676	82.77
279.892	-13.48
280.107	-13.48
280.322	29.52
280.538	7
280.753	37.72
280.969	74.58
281.184	7
281.399	17.24
281.615	58.2
281.83	52.05
282.045	-19.63
282.26	97.11
282.476	9.05
282.691	45.91
282.906	0.85
283.122	45.91
283.337	50
283.552	66.39
283.767	17.24
283.983	-33.96
284.198	-36.01
284.413	74.58
284.628	-27.82
284.843	-27.82
285.058	58.2
285.274	66.39
285.489	-27.82
285.704	-13.48
285.919	-29.87
286.134	-25.77
286.349	-56.49
286.564	93.01
286.779	13.14
286.995	33.62
287.21	-52.39
287.425	70.48
287.64	-1.19
287.855	37.72
288.07	50
288.285	58.2
288.5	-42.15
288.715	-21.67
288.93	11.09
289.145	17.24
289.36	-11.43
289.575	-11.43
289.79	37.72
290.004	29.52
290.219	23.38
290.434	37.72
290.649	-40.11
290.864	9.05
291.079	72.53
291.294	31.57
291.509	13.14
291.724	11.09
291.938	19.29
292.153	58.2
292.368	-23.72
292.583	27.48
292.798	-44.2
293.012	19.29
293.227	-17.58
293.442	19.29
293.657	0.85
293.871	60.24
294.086	41.81
294.301	52.05
294.516	31.57
294.73	19.29
294.945	9.05
295.16	19.29
295.374	-23.72
295.589	15.19
295.804	15.19
296.018	78.68
296.233	54.1
296.447	64.34
296.662	-19.63
296.877	-31.91
297.091	-29.87
297.306	-1.19
297.52	-29.87
297.735	17.24
297.949	-56.49
298.164	41.81
298.378	39.76
298.593	74.58
298.807	-15.53
299.022	86.87
299.236	43.86
299.451	45.91
299.665	-23.72
299.88	39.76
300.094	33.62
300.309	-21.67
300.523	4.95
300.737	80.72
300.952	4.95
301.166	43.86
301.381	82.77
301.595	-29.87
301.809	-21.67
302.024	-19.63
302.238	-33.96
302.452	103.25
302.667	-1.19
302.881	13.14
303.095	58.2
303.309	35.67
303.524	58.2
303.738	-29.87
303.952	25.43
304.166	27.48
304.381	-31.91
304.595	0.85
304.809	-54.44
305.023	-7.34
305.237	35.67
305.452	31.57
305.666	39.76
305.88	39.76
306.094	41.81
306.308	-33.96
306.522	-27.82
306.736	41.81
306.95	35.67
307.164	-19.63
307.379	-1.19
307.593	11.09
307.807	68.44
308.021	11.09
308.235	-17.58
308.449	-7.34
308.663	-50.35
308.877	2.9
309.091	11.09
309.305	-3.24
309.519	-19.63
309.733	15.19
309.947	-17.58
310.161	39.76
310.374	-11.43
310.588	58.2
310.802	2.9
311.016	68.44
311.23	2.9
311.444	-46.25
311.658	29.52
311.872	45.91
312.085	56.15
312.299	21.33
312.513	35.67
312.727	-11.43
312.941	2.9
313.154	-5.29
313.368	4.95
313.582	43.86
313.796	64.34
314.009	29.52
314.223	-21.67
314.437	58.2
314.651	2.9
314.864	11.09
315.078	2.9
315.292	27.48
315.505	15.19
315.719	-31.91
315.933	52.05
316.146	52.05
316.36	0.85
316.573	-83.11
316.787	39.76
317.001	15.19
317.214	41.81
317.428	0.85
317.641	-11.43
317.855	64.34
318.068	0.85
318.282	47.96
318.495	72.53
318.709	107.35
318.922	-52.39
319.136	-23.72
319.349	-1.19
319.563	-11.43
319.776	19.29
319.99	-1.19
320.203	50
320.417	35.67
320.63	9.05
320.843	41.81
321.057	-13.48
321.27	13.14
321.483	37.72
321.697	21.33
321.91	7
322.124	52.05
322.337	35.67
322.55	11.09
322.763	33.62
322.977	-17.58
323.19	-17.58
323.403	-17.58
323.617	-58.54
323.83	-17.58
324.043	27.48
324.256	64.34
324.469	-27.82
324.683	-38.06
324.896	43.86
325.109	-5.29
325.322	-19.63
325.535	25.43
325.748	-3.24
325.962	31.57
326.175	2.9
326.388	7
326.601	13.14
326.814	64.34
327.027	-13.48
327.24	82.77
327.453	-68.78
327.666	15.19
327.879	66.39
328.092	-9.39
328.305	56.15
328.518	-3.24
328.731	11.09
328.944	7
329.157	47.96
329.37	82.77
329.583	45.91
329.796	31.57
330.009	64.34
330.222	31.57
330.435	-68.78
330.648	19.29
330.861	52.05
331.073	80.72
331.286	19.29
331.499	25.43
331.712	11.09
331.925	-46.25
332.138	88.92
332.35	43.86
332.563	-9.39
332.776	70.48
332.989	-5.29
333.202	-1.19
333.414	72.53
333.627	-5.29
333.84	2.9
334.053	2.9
334.265	50
334.478	86.87
334.691	27.48
334.903	56.15
335.116	-5.29
335.329	82.77
335.541	0.85
335.754	4.95
335.966	-15.53
336.179	54.1
336.392	-3.24
336.604	-23.72
336.817	-72.87
337.029	33.62
337.242	-38.06
337.454	-19.63
337.667	-17.58
337.88	31.57
338.092	17.24
338.305	66.39
338.517	-58.54
338.729	25.43
338.942	64.34
339.154	-7.34
339.367	-11.43
339.579	-3.24
339.792	-36.01
340.004	31.57
340.217	-33.96
340.429	-19.63
340.641	-25.77
340.854	-33.96
341.066	19.29
341.278	15.19
341.491	23.38
341.703	72.53
341.915	37.72
342.128	-7.34
342.34	15.19
342.552	62.29
342.764	29.52
342.977	-11.43
343.189	15.19
343.401	33.62
343.613	-5.29
343.826	93.01
344.038	33.62
344.25	29.52
344.462	62.29
344.674	-44.2
344.886	-25.77
345.099	13.14
345.311	7
345.523	-36.01
345.735	4.95
345.947	-3.24
346.159	-5.29
346.371	2.9
346.583	-23.72
346.795	54.1
347.007	-27.82
347.219	29.52
347.431	19.29
347.643	37.72
347.855	-5.29
348.067	54.1
348.279	-15.53
348.491	7
348.703	27.48
348.915	-29.87
349.127	25.43
349.339	52.05
349.551	17.24
349.763	31.57
349.975	43.86
350.187	29.52
350.399	7
350.61	33.62
350.822	-76.97
351.034	101.2
351.246	-3.24
351.458	41.81
351.669	64.34
351.881	-25.77
352.093	-48.3
352.305	0.85
352.517	41.81
352.728	39.76
352.94	62.29
353.152	31.57
353.363	121.68
353.575	23.38
353.787	-15.53
353.999	70.48
354.21	-36.01
354.422	-31.91
354.633	-13.48
354.845	70.48
355.057	41.81
355.268	0.85
355.48	43.86
355.692	70.48
355.903	7
356.115	62.29
356.326	31.57
356.538	25.43
356.749	-27.82
356.961	43.86
357.172	17.24
357.384	0.85
357.595	52.05
357.807	2.9
358.018	17.24
358.23	-13.48
358.441	66.39
358.653	50
358.864	54.1
359.075	-31.91
359.287	13.14
359.498	58.2
359.709	64.34
359.921	41.81
360.132	43.86
360.344	25.43
360.555	-7.34
360.766	119.64
360.977	64.34
361.189	72.53
361.4	58.2
361.611	-15.53
361.823	23.38
362.034	-5.29
362.245	-48.3
362.456	37.72
362.667	-40.11
362.879	70.48
363.09	-3.24
363.301	25.43
363.512	82.77
363.723	-66.73
363.935	78.68
364.146	19.29
364.357	19.29
364.568	76.63
364.779	60.24
364.99	35.67
365.201	52.05
365.412	72.53
365.623	33.62
365.834	29.52
366.045	-15.53
366.256	19.29
366.467	101.2
366.678	17.24
366.889	-72.87
367.1	19.29
367.311	33.62
367.522	-17.58
367.733	13.14
367.944	35.67
368.155	25.43
368.366	31.57
368.577	-15.53
368.788	99.16
368.999	7
369.209	0.85
369.42	76.63
369.631	66.39
369.842	11.09
370.053	-48.3
370.264	41.81
370.474	82.77
370.685	52.05
370.896	52.05
371.107	50
371.317	-52.39
371.528	23.38
371.739	62.29
371.95	66.39
372.16	19.29
372.371	-23.72
372.582	35.67
372.792	-11.43
373.003	21.33
373.214	19.29
373.424	43.86
373.635	-60.59
373.846	64.34
374.056	17.24
374.267	-7.34
374.477	9.05
374.688	-5.29
374.898	37.72
375.109	0.85
375.319	72.53
375.53	11.09
375.74	11.09
375.951	37.72
376.161	31.57
376.372	27.48
376.582	52.05
376.793	7
377.003	9.05
377.214	80.72
377.424	7
377.635	27.48
377.845	76.63
378.055	45.91
378.266	-29.87
378.476	-27.82
378.686	9.05
378.897	101.2
379.107	15.19
379.317	29.52
379.528	-1.19
379.738	13.14
379.948	41.81
380.158	103.25
380.369	27.48
380.579	27.48
380.789	27.48
380.999	50
381.21	66.39
381.42	72.53
381.63	52.05
381.84	-3.24
382.05	19.29
382.261	50
382.471	62.29
382.681	25.43
382.891	23.38
383.101	25.43
383.311	-11.43
383.521	29.52
383.731	99.16
383.941	-42.15
384.151	35.67
384.361	37.72
384.571	80.72
384.781	50
384.991	27.48
385.201	2.9
385.411	17.24
385.621	29.52
385.831	80.72
386.041	17.24
386.251	23.38
386.461	78.68
386.671	99.16
386.881	70.48
387.091	-29.87
387.301	117.59
387.511	-27.82
387.72	47.96
387.93	119.64
388.14	-72.87
388.35	-7.34
388.56	72.53
388.769	50
388.979	47.96
389.189	52.05
389.399	7
389.609	21.33
389.818	39.76
390.028	2.9
390.238	82.77
390.447	15.19
390.657	111.44
390.867	37.72
391.076	54.1
391.286	70.48
391.496	45.91
391.705	76.63
391.915	-1.19
392.125	31.57
392.334	74.58
392.544	29.52
392.753	27.48
392.963	105.3
393.172	115.54
393.382	37.72
393.591	119.64
393.801	45.91
394.01	105.3
394.22	50
394.429	64.34
394.639	47.96
394.848	105.3
395.058	68.44
395.267	70.48
395.477	84.82
395.686	2.9
395.895	103.25
396.105	136.02
396.314	76.63
396.524	45.91
396.733	25.43
396.942	54.1
397.152	50
397.361	62.29
397.57	35.67
397.78	60.24
397.989	50
398.198	82.77
398.407	56.15
398.617	103.25
398.826	103.25
399.035	74.58
399.244	121.68
399.453	68.44
399.663	19.29
399.872	115.54
400.081	50
400.29	162.64
400.499	31.57
400.708	150.36
400.917	54.1
401.127	52.05
401.336	107.35
401.545	68.44
401.754	41.81
401.963	86.87
402.172	136.02
402.381	88.92
402.59	95.06
402.799	107.35
403.008	56.15
403.217	125.78
403.426	156.5
403.635	52.05
403.844	181.07
404.053	117.59
404.262	164.69
404.471	107.35
404.68	103.25
404.888	136.02
405.097	133.97
405.306	156.5
405.515	125.78
405.724	117.59
405.933	181.07
406.142	125.78
406.35	138.07
406.559	158.55
406.768	160.59
406.977	209.75
407.185	187.22
407.394	176.98
407.603	144.21
407.812	273.23
408.02	168.79
408.229	181.07
408.438	254.8
408.646	250.71
408.855	301.9
409.064	291.66
409.272	197.46
409.481	262.99
409.69	287.57
409.898	271.19
410.107	242.51
410.315	297.81
410.524	306
410.733	357.2
410.941	379.73
411.15	334.67
411.358	310.1
411.567	355.15
411.775	443.21
411.984	426.83
412.192	402.26
412.401	463.69
412.609	422.73
412.818	437.07
413.026	475.98
413.234	473.93
413.443	437.07
413.651	471.89
413.86	615.24
414.068	588.62
414.276	553.8
414.485	566.09
414.693	623.44
414.901	621.39
415.11	643.92
415.318	688.97
415.526	619.34
415.734	680.78
415.943	787.27
416.151	783.18
416.359	764.75
416.567	865.1
416.776	789.32
416.984	938.82
417.192	889.67
417.4	920.39
417.608	967.49
417.817	1010.5
418.025	990.02
418.233	1190.72
418.441	1139.52
418.649	1139.52
418.857	1127.24
419.065	1274.69
419.273	1254.21
419.481	1284.93
419.689	1405.76
419.897	1467.2
420.105	1428.29
420.313	1551.17
420.521	1581.89
420.729	1614.65
420.937	1573.69
421.145	1766.2
421.353	1825.59
421.561	1844.03
421.769	1805.11
421.977	1968.95
422.185	1973.05
422.393	2085.69
422.601	2147.12
422.809	2243.38
423.017	2145.08
423.224	2376.5
423.432	2315.06
423.64	2327.35
423.848	2612.01
424.056	2528.05
424.263	2749.23
424.471	2851.63
424.679	2781.99
424.887	3013.42
425.094	3081
425.302	2988.84
425.51	3287.84
425.718	3420.96
425.925	3314.47
426.133	3373.86
426.341	3703.58
426.548	3814.17
426.756	3791.64
426.964	3935
427.171	4293.4
427.379	4260.63
427.586	4236.05
427.794	4508.43
428.001	4471.57
428.209	4778.76
428.417	4741.9
428.624	5196.55
428.832	5016.33
429.039	4975.37
429.247	4987.66
429.454	5610.24
429.662	5722.88
429.869	5577.47
430.076	6032.12
430.284	5749.5
430.491	5987.07
430.699	6392.56
430.906	6310.65
431.114	6480.63
431.321	6769.39
431.528	6703.86
431.736	7041.77
431.943	7660.26
432.15	7400.16
432.358	7447.27
432.565	8067.8
432.772	7893.72
432.979	8327.89
433.187	8243.93
433.394	8170.2
433.601	9050.83
433.808	8977.1
434.016	8927.95
434.223	9329.35
434.43	9788.1
434.637	9603.78
434.844	10197.69
435.052	10349.24
435.259	10345.14
435.466	10527.41
435.673	10554.04
435.88	11029.17
436.087	11381.42
436.294	11647.65
436.501	11139.76
436.708	11594.4
436.915	12040.86
437.122	12591.77
437.329	12403.35
437.537	12946.06
437.743	12929.68
437.95	12929.68
438.157	13654.66
438.364	14043.78
438.571	14168.7
438.778	14172.8
438.985	15651.43
439.192	14881.39
439.399	15196.78
439.606	14948.98
439.813	15630.95
440.02	16581.21
440.227	16749.14
440.433	16570.97
440.64	17136.21
440.847	16720.47
441.054	17207.89
441.261	18420.28
441.467	18088.51
441.674	18704.95
441.881	19102.26
442.088	19243.57
442.294	18954.8
442.501	19233.33
442.708	19900.97
442.914	20541.98
443.121	21477.9
443.328	20939.29
443.534	22239.75
443.741	21627.4
443.948	21461.52
444.154	22886.9
444.361	22733.31
444.568	23108.08
444.774	23003.64
444.981	23425.52
445.187	23935.46
445.394	24754.65
445.6	24560.09
445.807	26976.7
446.013	25917.9
446.22	26415.55
446.426	27570.61
446.633	27367.86
446.839	28361.12
447.046	27316.66
447.252	28844.45
447.459	28856.73
447.665	28895.64
447.871	29950.35
448.078	30990.72
448.284	29964.68
448.491	30366.09
448.697	31572.34
448.903	32194.92
449.11	32104.81
449.316	31959.41
449.522	32139.63
449.728	33309.02
449.935	33503.57
450.141	33487.19
450.347	33960.27
450.553	33096.03
450.76	33550.68
450.966	34386.25
451.172	33884.5
451.378	34945.34
451.584	34238.79
451.791	35023.17
451.997	35076.41
452.203	35244.35
452.409	35572.02
452.615	35488.06
452.821	34056.53
453.027	33462.61
453.233	35451.19
453.44	34027.85
453.646	34390.34
453.852	34521.41
454.058	35080.51
454.264	33782.1
454.47	34308.43
454.676	33823.06
454.882	34885.95
455.088	31908.21
455.294	32252.27
455.5	33016.16
455.705	32792.93
455.911	31777.14
456.117	30947.71
456.323	30542.21
456.529	29188.5
456.735	30126.47
456.941	29383.06
457.147	29133.21
457.352	27896.24
457.558	27806.13
457.764	27711.92
457.97	27185.59
458.176	26218.95
458.381	26505.66
458.587	25352.66
458.793	25625.04
458.999	24113.64
459.204	25754.06
459.41	25131.48
459.616	23296.5
459.821	23593.45
460.027	23441.9
460.233	22934.01
460.438	21651.98
460.644	21783.05
460.85	20896.28
461.055	20521.5
461.261	20544.03
461.466	19139.12
461.672	18448.96
461.878	19800.62
462.083	18410.04
462.289	17848.9
462.494	17850.95
462.7	17371.72
462.905	16822.87
463.111	17377.87
463.316	17381.96
463.522	17177.17
463.727	17064.53
463.932	16890.45
464.138	16980.56
464.343	17130.06
464.549	16484.95
464.754	17150.54
464.959	16878.16
465.165	16767.57
465.37	16210.53
465.575	15669.86
465.781	16464.47
465.986	16599.64
466.191	15966.82
466.397	15452.78
466.602	14686.84
466.807	15037.04
467.012	15221.36
467.218	15264.36
467.423	14991.98
467.628	15032.94
467.833	15800.93
468.038	14901.87
468.244	14615.16
468.449	15116.91
468.654	14615.16
468.859	14774.9
469.064	14492.28
469.269	13843.07
469.474	14271.1
469.679	14477.94
469.885	13720.2
470.09	14078.59
470.295	13968
470.5	13660.8
470.705	13712
470.91	13509.26
471.115	13171.34
471.32	13523.59
471.525	13636.23
471.73	13167.24
471.935	12984.98
472.139	12444.31
472.344	12776.08
472.549	12767.89
472.754	12483.22
472.959	12223.13
473.164	11975.33
473.369	11795.11
473.574	12335.77
473.778	12085.92
473.983	12135.07
474.188	11911.84
474.393	11475.62
474.598	11512.49
474.802	11451.05
475.007	11319.98
475.212	11346.6
475.417	10797.74
475.621	10920.62
475.826	11088.56
476.031	10711.73
476.235	10357.43
476.44	10885.81
476.645	10324.66
476.849	10568.37
477.054	10474.17
477.259	10226.36
477.463	10220.22
477.668	10033.85
477.872	10050.24
478.077	9872.06
478.282	9661.12
478.486	9585.35
478.691	9798.34
478.895	9517.76
479.1	9325.26
479.304	9358.02
479.509	9306.82
479.713	9298.63
479.918	9171.66
480.122	8798.93
480.326	9077.45
480.531	8950.48
480.735	8958.67
480.94	8872.65
481.144	9192.14
481.348	8798.93
481.553	8950.48
481.757	8710.86
481.961	8778.45
482.166	8811.21
482.37	8977.1
482.574	8653.52
482.778	8913.61
482.983	9003.72
483.187	8630.99
483.391	8798.93
483.595	8719.06
483.8	8753.87
484.004	8798.93
484.208	8817.36
484.412	8772.3
484.616	8706.77
484.821	8770.26
485.025	8669.91
485.229	8915.66
485.433	8692.43
485.637	8843.98
485.841	8723.15
486.045	8563.41
486.249	8878.8
486.453	8753.87
486.657	8657.62
486.861	8762.06
487.065	8587.99
487.269	8762.06
487.473	8780.5
487.677	8643.28
487.881	8762.06
488.085	8772.3
488.289	8643.28
488.493	9032.4
488.697	9073.35
488.901	8706.77
489.105	8827.6
489.309	8970.96
489.512	8868.56
489.716	8649.43
489.92	8790.74
490.124	8889.04
490.328	9003.72
490.531	8932.05
490.735	9030.35
490.939	9114.31
491.143	8936.14
491.346	9007.82
491.55	8962.76
491.754	9308.87
491.958	9020.11
492.161	9177.8
492.365	9380.55
492.569	9202.38
492.772	9323.21
492.976	9280.2
493.18	9634.5
493.383	9351.88
493.587	9505.48
493.79	9736.9
493.994	9456.33
494.197	9853.63
494.401	9767.62
494.605	9784
494.808	10148.54
495.012	9851.58
495.215	10166.97
495.419	10105.53
495.622	10103.48
495.825	10312.38
496.029	10238.65
496.232	10640.05
496.436	10472.12
496.639	10740.4
496.843	10705.59
497.046	10879.66
497.249	11076.27
497.453	11045.55
497.656	11115.18
497.859	11338.41
498.063	11352.74
498.266	11555.49
498.469	11401.9
498.673	11610.79
498.876	11920.03
499.079	12055.2
499.282	11967.13
499.485	12173.98
499.689	12380.82
499.892	12602.01
500.095	12681.88
500.298	12896.91
500.501	12860.05
500.705	13013.65
500.908	13159.05
501.111	13466.25
501.314	13523.59
501.517	13714.05
501.72	14084.73
501.923	14035.58
502.126	14287.48
502.329	14553.72
502.532	14496.38
502.735	14494.33
502.938	15026.8
503.141	14991.98
503.344	14953.07
503.547	15428.2
503.75	15475.31
503.953	15878.76
504.156	15938.15
504.359	15815.27
504.562	16163.42
504.765	16634.46
504.968	16831.06
505.17	16910.93
505.373	16878.16
505.576	17326.67
505.779	17439.31
505.982	17588.81
506.185	17877.57
506.387	17891.91
506.59	17996.35
506.793	18715.19
506.996	18580.03
507.198	19147.31
507.401	18899.51
507.604	19380.78
507.807	19769.9
508.009	19653.16
508.212	19927.59
508.415	20116
508.617	20677.15
508.82	20537.88
509.022	20836.89
509.225	21176.85
509.428	21576.2
509.63	21422.61
509.833	21611.02
510.035	22401.54
510.238	22368.77
510.44	22555.13
510.643	22772.22
510.845	23468.53
511.048	23085.56
511.25	23572.97
511.453	23636.46
511.655	24140.26
511.858	24396.26
512.06	24472.03
512.262	24680.92
512.465	24859.1
512.667	25317.84
512.87	25498.06
513.072	25633.23
513.274	26618.3
513.477	26520
513.679	26888.64
513.881	26991.03
514.084	27607.47
514.286	27543.99
514.488	27601.33
514.69	28438.95
514.893	28400.04
515.095	28760.48
515.297	28844.45
515.499	29477.27
515.701	29895.05
515.904	30202.25
516.106	30155.15
516.308	30376.33
516.51	30865.79
516.712	31089.02
516.914	31631.73
517.116	32092.52
517.318	32422.25
517.52	32151.91
517.722	32463.21
517.925	33030.49
518.127	33435.99
518.329	33792.34
518.531	33311.07
518.733	34185.55
518.935	34713.92
519.136	34877.76
519.338	35512.63
519.54	35492.15
519.742	35481.91
519.944	35928.37
520.146	36729.12
520.348	36923.68
520.55	36880.67
520.752	37138.72
520.954	37826.84
521.155	37505.31
521.357	38287.63
521.559	38672.65
521.761	38971.65
521.963	38836.48
522.164	39393.53
522.366	39026.95
522.568	39987.44
522.77	39940.34
522.971	40538.35
523.173	40593.64
523.375	41318.62
523.576	41093.35
523.778	41314.53
523.98	41789.66
524.181	41613.53
524.383	42137.81
524.584	42653.9
524.786	42766.54
524.988	42827.98
525.189	42750.15
525.391	43077.83
525.592	43753.66
525.794	43645.12
525.995	43534.53
526.197	43614.4
526.398	44265.65
526.6	44404.91
526.801	44531.89
527.003	45084.84
527.204	44906.66
527.406	45099.17
527.607	45437.09
527.808	45607.07
528.01	44916.9
528.211	45875.35
528.412	46200.98
528.614	46200.98
528.815	46278.8
529.016	46798.99
529.218	45891.74
529.419	46332.05
529.62	46323.86
529.822	46409.87
530.023	46708.88
530.224	46557.33
530.425	46723.21
530.626	46444.69
530.828	46434.45
531.029	47462.53
531.23	47192.2
531.431	47067.27
531.632	47257.73
531.833	47136.9
532.035	47184.01
532.236	47470.72
532.437	48091.26
532.638	47317.12
532.839	47702.14
533.04	47712.38
533.241	47126.66
533.442	48259.19
533.643	47777.92
533.844	47755.39
534.045	48029.82
534.246	47149.19
534.447	48482.42
534.648	47569.02
534.849	48355.44
535.05	47816.83
535.251	48064.63
535.451	47802.49
535.652	48281.72
535.853	48183.41
536.054	47941.75
536.255	48146.55
536.456	47435.91
536.657	48830.57
536.857	47917.18
537.058	47753.34
537.259	48328.82
537.46	48396.4
537.66	47685.76
537.861	47999.1
538.062	47964.28
538.263	48121.98
538.463	48027.77
538.664	47878.27
538.865	48384.12
539.065	48390.26
539.266	47573.12
539.466	48584.82
539.667	47605.89
539.868	48445.55
540.068	48144.5
540.269	47843.45
540.469	48330.87
540.67	47949.95
540.87	48097.4
541.071	48461.94
541.271	47997.05
541.472	48035.96
541.672	48136.31
541.873	47626.37
542.073	47648.89
542.274	48261.24
542.474	48038.01
542.675	47675.52
542.875	48306.29
543.075	48191.61
543.276	47587.46
543.476	48076.92
543.676	47499.39
543.877	47900.79
544.077	47722.62
544.277	47659.13
544.478	47736.96
544.678	48040.06
544.878	47935.61
545.078	47880.31
545.279	47265.92
545.479	47349.89
545.679	47980.67
545.879	48046.2
546.079	47925.37
546.28	47872.12
546.48	47194.25
546.68	47964.28
546.88	47632.51
547.08	47833.21
547.28	47753.34
547.48	47378.56
547.68	47751.29
547.88	47257.73
548.081	47820.92
548.281	47913.08
548.481	47587.46
548.681	48095.35
548.881	47607.93
549.081	47466.63
549.28	47562.88
549.48	48195.7
549.68	47665.28
549.88	48044.15
550.08	47366.27
550.28	47583.36
550.48	47294.6
550.68	47761.53
550.88	47097.99
551.08	47184.01
551.279	47687.81
551.479	47415.43
551.679	47560.83
551.879	47450.24
552.079	47683.71
552.278	47478.91
552.478	47020.17
552.678	47474.82
552.878	47642.75
553.077	47440
553.277	47110.28
553.477	47632.51
553.676	47132.81
553.876	47419.52
554.076	47333.51
554.275	47208.58
554.475	46862.47
554.674	47251.59
554.874	47306.88
555.074	46624.91
555.273	47069.32
555.473	46923.91
555.672	46690.44
555.872	46876.81
556.071	47083.65
556.271	46889.1
556.47	46717.07
556.67	45977.75
556.869	46383.25
557.068	46837.9
557.268	46330
557.467	46401.68
557.667	46504.08
557.866	46428.3
558.065	46133.4
558.265	45584.54
558.464	45940.89
558.663	46506.13
558.863	45736.09
559.062	46469.26
559.261	45734.04
559.461	46141.59
559.66	45463.71
559.859	45815.96
560.058	45420.7
560.258	45842.59
560.457	45400.22
560.656	45691.04
560.855	45580.45
561.054	45777.05
561.253	44865.7
561.453	45410.46
561.652	45271.2
561.851	44802.22
562.05	45129.89
562.249	44818.6
562.448	45705.37
562.647	45349.03
562.846	44925.1
563.045	44847.27
563.244	44603.56
563.443	45103.27
563.642	44546.22
563.841	44363.95
564.04	44239.03
564.239	44650.67
564.438	44105.91
564.637	44548.27
564.836	44161.2
565.035	44050.61
565.234	44118.2
565.432	44144.82
565.631	43684.03
565.83	44036.28
566.029	43704.51
566.228	43792.57
566.427	43729.08
566.625	43366.59
566.824	42674.38
567.023	43878.58
567.222	42739.91
567.42	43565.24
567.619	42909.89
567.818	43237.57
568.016	43090.12
568.215	43208.9
568.414	42957
568.612	42909.89
568.811	42729.67
569.01	42930.37
569.208	41928.92
569.407	42819.78
569.605	42008.79
569.804	42383.57
570.002	41828.57
570.201	42488.01
570.4	41818.33
570.598	41883.86
570.797	41879.77
570.995	41988.31
571.193	41550.04
571.392	41717.98
571.59	41173.22
571.789	41330.91
571.987	41089.25
572.186	40990.95
572.384	40730.86
572.582	40919.27
572.781	40900.84
572.979	40675.56
573.177	40390.89
573.376	40491.24
573.574	40128.75
573.772	40474.86
573.971	40081.65
574.169	40065.27
574.367	39659.77
574.565	40339.69
574.763	40016.11
574.962	39624.95
575.16	39080.19
575.358	39821.56
575.556	39104.77
575.754	39543.03
575.952	38889.73
576.151	39602.43
576.349	38811.91
576.547	38697.22
576.745	38789.38
576.943	38811.91
577.141	38412.56
577.339	38355.21
577.537	38263.05
577.735	38152.46
577.933	37767.45
578.131	37753.11
578.329	38007.06
578.527	37800.21
578.725	37413.15
578.923	37482.78
579.121	37560.6
579.319	37525.78
579.516	37839.12
579.714	37134.62
579.912	36917.54
580.11	36950.31
580.308	36841.76
580.506	36811.04
580.704	36297
580.901	36645.16
581.099	36989.22
581.297	35852.59
581.495	35830.07
581.692	36440.36
581.89	35655.99
582.088	36094.25
582.285	35707.19
582.483	36032.82
582.681	36264.24
582.878	35608.89
583.076	35313.98
583.274	35684.66
583.471	35295.55
583.669	35340.6
583.866	35178.81
584.064	34900.29
584.262	34734.4
584.459	34736.45
584.657	34564.42
584.854	35152.19
585.052	34046.29
585.249	34519.37
585.447	34322.76
585.644	33882.45
585.841	34109.77
586.039	34414.92
586.236	33773.91
586.434	33579.35
586.631	33954.13
586.828	33833.3
587.026	33763.67
587.223	33689.94
587.42	33053.02
587.618	33282.39
587.815	32727.39
588.012	32874.85
588.21	33065.31
588.407	33085.79
588.604	32901.47
588.801	32366.95
588.999	32625
589.196	32541.03
589.393	32622.95
589.59	32680.29
589.787	32344.42
589.984	31969.65
590.182	31981.93
590.379	32303.46
590.576	31807.86
590.773	32151.91
590.97	31539.57
591.167	31752.56
591.364	31019.39
591.561	31502.71
591.758	31117.69
591.955	30927.23
592.152	31381.88
592.349	30951.81
592.546	31248.76
592.743	31150.46
592.94	30560.64
593.137	30732.67
593.334	30933.37
593.531	30022.03
593.727	30663.04
593.924	30443.91
594.121	30257.54
594.318	30431.62
594.515	29665.68
594.712	30409.09
594.908	30130.57
595.105	29882.77
595.302	29626.77
595.499	29729.17
595.696	29329.81
595.892	29710.74
596.089	29637.01
596.286	29458.84
596.482	29229.46
596.679	29084.06
596.876	29305.24
597.072	28596.64
597.269	28817.82
597.466	28416.42
597.662	29215.13
597.859	28352.93
598.055	28279.21
598.252	28348.84
598.448	28668.32
598.645	28352.93
598.841	27994.54
599.038	27984.3
599.234	28297.64
599.431	27892.14
599.627	27638.19
599.824	27838.89
600.02	27613.62
600.217	27560.37
600.413	27357.62
600.609	27468.21
600.806	27396.53
601.002	27173.3
601.198	27283.89
601.395	27107.77
601.591	27003.32
601.787	26778.04
601.984	26806.72
602.18	27126.2
602.376	26644.93
602.572	26667.45
602.769	26517.95
602.965	26376.64
603.161	26481.09
603.357	26509.76
603.553	26257.86
603.75	26339.78
603.946	25801.16
604.142	25958.86
604.338	25952.71
604.534	26094.02
604.73	25737.68
604.926	25711.05
605.122	25852.36
605.318	25393.62
605.514	25268.69
605.71	25397.71
605.906	25145.81
606.102	25129.43
606.298	24928.73
606.494	24746.46
606.69	25479.63
606.886	25178.58
607.082	24322.53
607.278	24975.83
607.474	24236.52
607.67	24758.75
607.866	24269.28
608.062	24779.23
608.257	23935.46
608.453	24367.59
608.649	24447.46
608.845	23947.75
609.041	24142.31
609.236	24123.88
609.432	23923.18
609.628	23747.05
609.824	23810.54
610.019	23693.8
610.215	23529.97
610.411	23923.18
610.606	23503.34
610.802	23589.36
610.998	23345.65
611.193	23396.85
611.389	23353.84
611.584	23167.48
611.78	22977.01
611.976	23249.39
612.171	23177.72
612.367	23099.89
612.562	22895.1
612.758	22610.43
612.953	22669.82
613.149	22854.14
613.344	22772.22
613.539	22745.59
613.735	22567.42
613.93	22528.51
614.126	22522.37
614.321	22811.13
614.517	22260.23
614.712	22555.13
614.907	22409.73
615.103	22360.58
615.298	21977.61
615.493	22409.73
615.688	22088.2
615.884	22350.34
616.079	21748.23
616.274	22026.76
616.47	21932.55
616.665	21932.55
616.86	21529.1
617.055	21600.78
617.25	21690.89
617.445	21658.12
617.641	21522.96
617.836	21527.05
618.031	21013.01
618.226	21660.17
618.421	21248.53
618.616	21352.98
618.811	20972.05
619.006	21230.1
619.201	20550.17
619.396	20832.79
619.591	20535.84
619.786	20834.84
619.981	20277.79
620.176	20484.64
620.371	20365.85
620.566	20611.61
620.761	20263.46
620.956	20300.32
621.151	19989.03
621.346	19890.73
621.541	19601.96
621.735	19745.32
621.93	19431.98
622.125	19673.64
622.32	19114.55
622.515	19556.91
622.709	19257.9
622.904	19212.85
623.099	19028.53
623.294	18813.49
623.488	18784.82
623.683	18891.32
623.878	18553.4
624.072	18721.34
624.267	18534.97
624.462	18143.81
624.656	17926.72
624.851	18246.21
625.046	17975.88
625.24	17693.26
625.435	17560.14
625.629	17832.52
625.824	17465.93
626.018	17588.81
626.213	17107.54
626.407	17470.03
626.602	17007.19
626.796	16867.92
626.991	17099.34
627.185	17097.3
627.38	16845.4
627.574	16583.26
627.768	16618.07
627.963	16702.04
628.157	16314.97
628.352	16601.69
628.546	16327.26
628.74	16360.03
628.935	15960.67
629.129	16181.85
629.323	15790.69
629.517	15948.39
629.712	15727.21
629.906	15557.22
630.1	15641.19
630.294	15700.58
630.489	15557.22
630.683	15522.41
630.877	15182.45
631.071	15057.52
631.265	15127.15
631.459	15290.99
631.653	15018.61
631.848	14957.17
632.042	14858.87
632.236	14969.46
632.43	14709.36
632.624	14819.96
632.818	14465.66
633.012	14381.69
633.206	14328.44
633.4	14297.72
633.594	14094.97
633.788	14185.08
633.982	14092.93
634.176	14103.17
634.369	13939.33
634.563	13726.34
634.757	13691.52
634.951	13660.8
635.145	13654.66
635.339	13742.72
635.533	13714.05
635.726	13527.69
635.92	13218.44
636.114	13433.48
636.308	13230.73
636.501	13144.72
636.695	13101.71
636.889	13066.89
637.083	13165.2
637.276	13013.65
637.47	12649.11
637.664	12610.2
637.857	12755.6
638.051	12597.91
638.244	12327.58
638.438	12323.48
638.632	12325.53
638.825	12272.28
639.019	12071.58
639.212	12208.8
639.406	11969.18
639.599	12077.73
639.793	12118.68
639.986	11895.46
640.18	11879.07
640.373	11920.03
640.567	11631.27
640.76	11743.91
640.954	11729.57
641.147	11418.28
641.34	11432.61
641.534	11551.4
641.727	11514.53
641.92	11332.26
642.114	11291.31
642.307	11109.04
642.5	11238.06
642.694	10721.97
642.887	11076.27
643.08	10904.24
643.273	10840.75
643.467	10764.98
643.66	10672.82
643.853	10887.86
644.046	10574.52
644.239	10345.14
644.432	10521.27
644.626	10289.85
644.819	10341.05
645.012	10404.53
645.205	10431.16
645.398	10162.87
645.591	10044.09
645.784	9929.41
645.977	9884.35
646.17	9982.65
646.363	9790.14
646.556	9767.62
646.749	9777.86
646.942	9831.1
647.135	9611.97
647.328	9671.36
647.521	9695.94
647.714	9233.1
647.907	9351.88
648.099	9118.41
648.292	9255.62
648.485	9161.42
648.678	9259.72
648.871	9118.41
649.064	9040.59
649.256	9013.96
649.449	8944.33
649.642	8874.7
649.835	8897.23
650.027	8647.38
650.22	8612.56
650.413	8733.39
650.605	8645.33
650.798	8592.08
650.991	8579.79
651.183	8647.38
651.376	8325.85
651.568	8407.77
651.761	8422.1
651.954	8243.93
652.146	8272.6
652.339	8153.82
652.531	8098.52
652.724	8006.36
652.916	8157.91
653.109	7805.66
653.301	7955.16
653.494	7936.73
653.686	7709.41
653.879	7822.05
654.071	7635.68
654.263	7611.11
654.456	7774.94
654.648	7887.58
654.84	7394.02
655.033	7559.91
655.225	7494.37
655.417	7500.51
655.61	7498.47
655.802	7328.49
655.994	7021.29
656.186	7189.22
656.379	7221.99
656.571	7131.88
656.763	7092.97
656.955	7049.96
657.148	7054.06
657.34	6931.18
657.532	6888.17
657.724	6933.23
657.916	6748.91
658.108	6613.74
658.3	6769.39
658.492	6707.95
658.684	6716.14
658.876	6617.84
659.068	6677.23
659.26	6454
659.452	6433.52
659.644	6640.37
659.836	6333.17
660.028	6583.02
660.22	6441.72
660.412	6173.43
660.604	6206.2
660.796	6267.64
660.988	6206.2
661.18	6032.12
661.372	6044.41
661.563	6175.48
661.755	5999.35
661.947	6066.94
662.139	5968.63
662.331	6007.55
662.522	5817.08
662.714	5876.48
662.906	5673.73
663.097	5767.93
663.289	5823.23
663.481	5698.3
663.673	5718.78
663.864	5397.25
664.056	5577.47
664.247	5622.53
664.439	5391.11
664.631	5671.68
664.822	5376.77
665.014	5323.52
665.205	5421.83
665.397	5382.92
665.588	5356.29
665.78	5284.61
665.971	5251.85
666.163	5344
666.354	5208.84
666.546	5217.03
666.737	5159.69
666.929	5147.4
667.12	5165.83
667.311	5026.57
667.503	4954.89
667.694	4823.82
667.885	4838.16
668.077	4827.92
668.268	4713.23
668.459	4958.99
668.651	4795.15
668.842	4739.85
669.033	4719.37
669.224	4694.8
669.416	4780.81
669.607	4752.14
669.798	4778.76
669.989	4719.37
670.18	4657.93
670.371	4533.01
670.563	4616.97
670.754	4567.82
670.945	4490
671.136	4541.2
671.327	4526.86
671.518	4379.41
671.709	4516.62
671.9	4332.31
672.091	4305.68
672.282	4371.22
672.473	4272.92
672.664	4424.47
672.855	4449.04
673.046	4291.35
673.237	4477.71
673.428	4268.82
673.619	4328.21
673.809	4191
674	4268.82
674.191	4115.22
674.382	4225.81
674.573	4160.28
674.764	4147.99
674.954	4125.46
675.145	4168.47
675.336	4137.75
675.527	4129.56
675.717	4047.64
675.908	3961.62
676.099	3924.76
676.289	3945.24
676.48	3959.58
676.671	3971.86
676.861	4100.89
677.052	3900.19
677.243	3869.47
677.433	3920.67
677.624	3838.75
677.814	3826.46
678.005	3957.53
678.195	3758.88
678.386	3793.69
678.576	3752.73
678.767	3674.91
678.957	3773.21
679.148	3836.7
679.338	3871.51
679.529	3773.21
679.719	3738.4
679.909	3797.79
680.1	3689.25
680.29	3699.48
680.481	3664.67
680.671	3711.77
680.861	3742.49
681.052	3592.99
681.242	3707.68
681.432	3773.21
681.622	3658.53
681.813	3531.55
682.003	3642.14
682.193	3568.41
682.383	3496.74
682.573	3515.17
682.764	3603.23
682.954	3640.09
683.144	3588.89
683.334	3554.08
683.524	3597.09
683.714	3439.39
683.904	3461.92
684.094	3429.15
684.284	3539.74
684.474	3525.41
684.664	3572.51
684.854	3447.58
685.044	3412.77
685.234	3263.27
685.424	3371.81
685.614	3474.21
685.804	3418.91
685.994	3365.67
686.184	3283.75
686.374	3343.14
686.564	3373.86
686.753	3400.48
686.943	3427.11
687.133	3437.34
687.323	3382.05
687.513	3277.6
687.702	3240.74
687.892	3316.51
688.082	3269.41
688.272	3314.47
688.461	3336.99
688.651	3349.28
688.841	3361.57
689.03	3439.39
689.22	3363.62
689.41	3253.03
689.599	3113.77
689.789	3222.31
689.979	3322.66
690.168	3226.4
690.358	3169.06
690.547	3244.84
690.737	3304.23
690.926	3259.17
691.116	3154.73
691.305	3273.51
691.495	3205.92
691.684	3162.92
691.874	3185.44
692.063	3191.59
692.252	3212.07
692.442	3234.6
692.631	3085.09
692.82	3099.43
693.01	3222.31
693.199	3183.4
693.388	3064.61
693.578	3064.61
693.767	3197.73
693.956	3107.62
694.146	3097.38
694.335	3107.62
694.524	3121.96
694.713	3183.4
694.902	3040.04
695.092	3068.71
695.281	3089.19
695.47	3183.4
695.659	3009.32
695.848	3203.88
696.037	3060.52
696.226	3148.58
696.415	3093.29
696.604	3164.97
696.793	2992.94
696.982	3089.19
697.171	3107.62
697.36	3001.13
697.549	2970.41
697.738	3050.28
697.927	2956.07
698.116	2980.65
698.305	2974.5
698.494	3052.33
698.683	3076.9
698.872	3099.43
699.061	2927.4
699.25	3042.09
699.438	2857.77
699.627	3066.66
699.816	3015.46
700.005	3007.27
700.193	3017.51
700.382	3097.38
700.571	3078.95
700.76	3074.85
700.948	3031.85
701.137	2986.79
701.326	2964.26
701.514	3007.27
701.703	2974.5
701.892	2992.94
702.08	3011.37
702.269	2896.68
702.457	2886.44
702.646	2908.97
702.834	2888.49
703.023	2765.61
703.212	2917.16
703.4	2888.49
703.589	2779.95
703.777	2929.45
703.965	2800.43
704.154	2855.72
704.342	2851.63
704.531	2898.73
704.719	2966.31
704.907	2947.88
705.096	2904.87
705.284	2788.14
705.472	2792.23
705.661	2775.85
705.849	2892.59
706.037	2802.47
706.226	2730.8
706.414	2820.91
706.602	2810.67
706.79	2702.12
706.979	2769.71
707.167	2714.41
707.355	2757.42
707.543	2781.99
707.731	2626.35
707.919	2749.23
708.107	2691.88
708.296	2558.77
708.484	2646.83
708.672	2673.45
708.86	2564.91
709.048	2634.54
709.236	2632.49
709.424	2702.12
709.612	2612.01
709.8	2661.16
709.988	2575.15
710.176	2505.52
710.364	2562.86
710.551	2569.01
710.739	2431.79
710.927	2427.7
711.115	2564.91
711.303	2603.82
711.491	2597.68
711.679	2505.52
711.866	2480.94
712.054	2480.94
712.242	2448.18
712.43	2390.83
712.617	2413.36
712.805	2384.69
712.993	2482.99
713.181	2417.46
713.368	2394.93
713.556	2349.87
713.744	2476.85
713.931	2431.79
714.119	2259.76
714.306	2407.22
714.494	2347.83
714.682	2294.58
714.869	2257.71
715.057	2315.06
715.244	2319.15
715.432	2196.28
715.619	2386.74
715.807	2255.67
715.994	2208.56
716.182	2257.71
716.369	2263.86
716.556	2321.2
716.744	2280.24
716.931	2270
717.119	2188.08
717.306	2216.76
717.493	2231.09
717.681	2276.15
717.868	2169.65
718.055	2140.98
718.242	2032.44
718.43	2083.64
718.617	2130.74
718.804	1991.48
718.991	2155.32
719.179	2067.25
719.366	2077.49
719.553	2181.94
719.74	2065.21
719.927	2022.2
720.114	2124.6
720.301	2057.01
720.488	1934.14
720.676	1989.43
720.863	2030.39
721.05	1968.95
721.237	2079.54
721.424	1960.76
721.611	1977.14
721.798	1960.76
721.985	1948.47
722.172	1819.45
722.358	1962.81
722.545	1913.66
722.732	1782.59
722.919	1968.95
723.106	1829.69
723.293	1833.79
723.48	1991.48
723.667	1903.42
723.853	1784.63
724.04	1848.12
724.227	1852.22
724.414	1866.55
724.6	1796.92
724.787	1803.07
724.974	1745.72
725.161	1796.92
725.347	1846.07
725.534	1921.85
725.72	1811.26
725.907	1852.22
726.094	1860.41
726.28	1860.41
726.467	1696.57
726.653	1700.67
726.84	1721.15
727.027	1717.05
727.213	1801.02
727.4	1782.59
727.586	1749.82
727.773	1674.04
727.959	1651.52
728.145	1655.61
728.332	1624.89
728.518	1700.67
728.705	1735.48
728.891	1606.46
729.077	1590.08
729.264	1569.6
729.45	1708.86
729.636	1678.14
729.823	1608.51
730.009	1663.8
730.195	1604.41
730.382	1655.61
730.568	1592.13
730.754	1672
730.94	1520.45
731.126	1596.22
731.313	1702.72
731.499	1596.22
731.685	1477.44
731.871	1571.65
732.057	1510.21
732.243	1585.98
732.429	1592.13
732.615	1620.8
732.801	1618.75
732.987	1534.78
733.173	1372.99
733.359	1506.11
733.545	1553.21
733.731	1467.2
733.917	1522.49
734.103	1499.97
734.289	1469.25
734.475	1420.1
734.661	1499.97
734.847	1526.59
735.033	1450.82
735.219	1481.53
735.404	1420.1
735.59	1438.53
735.776	1428.29
735.962	1467.2
736.148	1440.58
736.333	1393.47
736.519	1450.82
736.705	1471.29
736.89	1325.89
737.076	1405.76
737.262	1346.37
737.447	1313.6
737.633	1364.8
737.819	1430.34
738.004	1348.42
738.19	1307.46
738.375	1332.03
738.561	1346.37
738.747	1360.7
738.932	1284.93
739.118	1352.51
739.303	1379.14
739.489	1307.46
739.674	1250.11
739.859	1342.27
740.045	1266.5
740.23	1237.83
740.416	1266.5
740.601	1196.87
740.786	1180.48
740.972	1260.35
741.157	1268.55
741.342	1198.92
741.528	1205.06
741.713	1258.31
741.898	1174.34
742.084	1198.92
742.269	1127.24
742.454	1299.27
742.639	1174.34
742.824	1168.2
743.01	1157.96
743.195	1219.39
743.38	1178.44
743.565	1182.53
743.75	1180.48
743.935	1172.29
744.12	1209.15
744.305	1164.1
744.49	1135.43
744.675	1180.48
744.86	1168.2
745.045	1125.19
745.23	1133.38
745.415	1112.9
745.6	1030.98
745.785	1063.75
745.97	1164.1
746.155	1073.99
746.34	1045.32
746.525	1055.56
746.71	1051.46
746.895	1108.8
747.079	1166.15
747.264	1080.13
747.449	1188.68
747.634	1002.31
747.819	1119.04
748.003	940.87
748.188	1012.55
748.373	1004.36
748.557	912.2
748.742	996.17
748.927	992.07
749.111	936.78
749.296	971.59
749.481	1076.04
749.665	899.91
749.85	926.54
750.034	975.69
750.219	1086.28
750.404	1049.41
750.588	1018.69
750.773	883.53
750.957	947.01
751.141	889.67
751.326	828.23
751.51	826.18
751.695	904.01
751.879	869.19
752.064	922.44
752.248	846.66
752.432	936.78
752.617	951.11
752.801	879.43
752.985	801.61
753.17	881.48
753.354	906.06
753.538	783.18
753.722	799.56
753.907	875.34
754.091	805.71
754.275	828.23
754.459	836.42
754.643	791.37
754.828	793.42
755.012	789.32
755.196	781.13
755.38	744.27
755.564	801.61
755.748	641.87
755.932	637.77
756.116	803.66
756.3	770.89
756.484	781.13
756.668	740.17
756.852	777.03
757.036	787.27
757.22	760.65
757.404	727.88
757.588	762.7
757.772	779.08
757.956	756.55
758.14	693.07
758.323	650.06
758.507	756.55
758.691	768.84
758.875	697.16
759.059	656.2
759.242	736.07
759.426	680.78
759.61	600.91
759.794	598.86
759.977	680.78
760.161	686.92
760.345	705.35
760.528	754.51
760.712	594.76
760.895	584.52
761.079	637.77
761.263	678.73
761.446	668.49
761.63	582.48
761.813	693.07
761.997	637.77
762.18	648.01
762.364	623.44
762.547	594.76
762.731	654.16
762.914	539.47
763.098	590.67
763.281	605
763.464	572.24
763.648	674.64
763.831	549.71
764.015	619.34
764.198	605
764.381	664.4
764.564	580.43
764.748	576.33
764.931	631.63
765.114	641.87
765.297	617.29
765.481	582.48
765.664	609.1
765.847	498.51
766.03	625.48
766.213	516.94
766.397	488.27
766.58	572.24
766.763	598.86
766.946	645.96
767.129	545.61
767.312	572.24
767.495	508.75
767.678	508.75
767.861	588.62
768.044	605
768.227	562
768.41	596.81
768.593	504.65
768.776	549.71
768.959	596.81
769.142	478.03
769.324	564.04
769.507	525.13
769.69	531.28
769.873	574.28
770.056	500.56
770.239	533.33
770.421	586.57
770.604	570.19
770.787	463.69
770.97	541.52
771.152	570.19
771.335	502.61
771.518	465.74
771.7	535.37
771.883	553.8
772.066	547.66
772.248	510.8
772.431	469.84
772.613	553.8
772.796	533.33
772.978	537.42
773.161	533.33
773.343	414.54
773.526	457.55
773.708	432.97
773.891	490.32
774.073	510.8
774.256	480.08
774.438	430.93
774.621	518.99
774.803	387.92
774.985	514.89
775.168	439.12
775.35	482.13
775.532	510.8
775.715	451.41
775.897	398.16
776.079	447.31
776.261	478.03
776.444	371.54
776.626	482.13
776.808	416.59
776.99	432.97
777.173	369.49
777.355	439.12
777.537	453.45
777.719	416.59
777.901	414.54
778.083	383.82
778.265	359.25
778.447	412.5
778.629	330.58
778.811	424.78
778.993	463.69
779.175	445.26
779.357	375.63
779.539	344.91
779.721	383.82
779.903	338.77
780.085	381.78
780.267	359.25
780.449	387.92
780.631	310.1
780.812	471.89
780.994	410.45
781.176	369.49
781.358	322.38
781.54	353.1
781.721	353.1
781.903	375.63
782.085	320.34
782.267	334.67
782.448	371.54
782.63	293.71
782.812	336.72
782.993	373.58
783.175	385.87
783.357	328.53
783.538	283.47
783.72	351.06
783.901	330.58
784.083	275.28
784.264	279.38
784.446	316.24
784.627	287.57
784.809	279.38
784.99	236.37
785.172	326.48
785.353	291.66
785.535	260.95
785.716	303.95
785.897	265.04
786.079	269.14
786.26	291.66
786.441	277.33
786.623	179.03
786.804	256.85
786.985	260.95
787.167	301.9
787.348	287.57
787.529	250.71
787.71	232.27
787.891	262.99
788.073	295.76
788.254	301.9
788.435	209.75
788.616	185.17
788.797	219.99
788.978	256.85
789.159	181.07
789.34	230.23
789.522	244.56
789.703	248.66
789.884	201.55
790.065	234.32
790.246	207.7
790.427	176.98
790.607	193.36
790.788	191.31
790.969	183.12
791.15	318.29
791.331	164.69
791.512	195.41
791.693	107.35
791.874	187.22
792.054	320.34
792.235	322.38
792.416	250.71
792.597	244.56
792.778	254.8
792.958	201.55
793.139	150.36
793.32	224.08
793.5	217.94
793.681	244.56
793.862	201.55
794.042	217.94
794.223	191.31
794.404	170.83
794.584	185.17
794.765	136.02
794.945	166.74
795.126	181.07
795.306	133.97
795.487	203.6
795.667	166.74
795.848	183.12
796.028	217.94
796.209	150.36
796.389	172.88
796.57	205.65
796.75	191.31
796.93	181.07
797.111	160.59
797.291	164.69
797.471	166.74
797.652	119.64
797.832	54.1
798.012	187.22
798.192	121.68
798.373	138.07
798.553	209.75
798.733	187.22
798.913	170.83
799.093	176.98
799.274	158.55
799.454	166.74
799.634	201.55
799.814	176.98
799.994	160.59
800.174	170.83
800.354	154.45
800.534	111.44
800.714	242.51
800.894	183.12
801.074	195.41
801.254	105.3
801.434	93.01
801.614	156.5
801.794	101.2
801.974	336.72
802.154	78.68
802.334	215.89
802.514	119.64
802.693	117.59
802.873	160.59
803.053	123.73
803.233	154.45
803.413	105.3
803.592	111.44
803.772	123.73
803.952	181.07
804.131	156.5
804.311	154.45
804.491	160.59
804.67	172.88
804.85	136.02
805.03	150.36
805.209	172.88
805.389	88.92
805.568	148.31
805.748	45.91
805.928	107.35
806.107	187.22
806.287	90.96
806.466	45.91
806.646	78.68
806.825	133.97
807.004	101.2
807.184	162.64
807.363	140.12
807.543	138.07
807.722	31.57
807.901	127.83
808.081	127.83
808.26	37.72
808.439	158.55
808.619	105.3
808.798	142.16
808.977	64.34
809.156	111.44
809.336	68.44
809.515	123.73
809.694	101.2
809.873	37.72
810.052	70.48
810.231	119.64
810.411	111.44
810.59	111.44
810.769	76.63
810.948	41.81
811.127	29.52
811.306	27.48
811.485	37.72
811.664	125.78
811.843	131.92
812.022	72.53
812.201	2.9
812.38	93.01
812.559	119.64
812.737	62.29
812.916	58.2
813.095	86.87
813.274	90.96
813.453	66.39
813.632	74.58
813.811	111.44
813.989	131.92
814.168	103.25
814.347	113.49
814.526	95.06
814.704	148.31
814.883	52.05
815.062	58.2
815.24	95.06
815.419	86.87
815.598	129.88
815.776	27.48
815.955	84.82
816.133	78.68
816.312	121.68
816.49	117.59
816.669	90.96
816.847	123.73
817.026	117.59
817.204	80.72
817.383	45.91
817.561	146.26
817.74	58.2
817.918	97.11
818.097	107.35
818.275	41.81
818.453	80.72
818.632	31.57
818.81	107.35
818.988	47.96
819.167	11.09
819.345	21.33
819.523	127.83
819.701	19.29
819.879	86.87
820.058	-40.11
820.236	37.72
820.414	74.58
820.592	19.29
820.77	56.15
820.948	68.44
821.127	97.11
821.305	84.82
821.483	50
821.661	80.72
821.839	64.34
822.017	72.53
822.195	47.96
822.373	35.67
822.551	66.39
822.729	31.57
822.907	7
823.085	82.77
823.262	62.29
823.44	56.15
823.618	31.57
823.796	52.05
823.974	78.68
824.152	66.39
824.329	27.48
824.507	52.05
824.685	56.15
824.863	56.15
825.04	21.33
825.218	107.35
825.396	47.96
825.574	43.86
825.751	64.34
825.929	60.24
826.107	19.29
826.284	80.72
826.462	56.15
826.639	70.48
826.817	88.92
826.994	-1.19
827.172	15.19
827.349	43.86
827.527	27.48
827.704	47.96
827.882	-5.29
828.059	58.2
828.237	50
828.414	29.52
828.591	27.48
828.769	80.72
828.946	-3.24
829.124	58.2
829.301	146.26
829.478	15.19
829.655	-7.34
829.833	41.81
830.01	-91.31
830.187	27.48
830.364	101.2
830.542	140.12
830.719	99.16
830.896	68.44
831.073	15.19
831.25	19.29
831.427	82.77
831.604	-1.19
831.782	45.91
831.959	31.57
832.136	84.82
832.313	66.39
832.49	-1.19
832.667	107.35
832.844	21.33
833.021	-3.24
833.198	37.72
833.374	17.24
833.551	78.68
833.728	-1.19
833.905	52.05
834.082	31.57
834.259	90.96
834.436	72.53
834.612	54.1
834.789	99.16
834.966	31.57
835.143	123.73
835.319	37.72
835.496	52.05
835.673	54.1
835.85	11.09
836.026	99.16
836.203	17.24
836.38	62.29
836.556	50
836.733	86.87
836.909	64.34
837.086	-23.72
837.262	74.58
837.439	-64.68
837.616	82.77
837.792	41.81
837.968	39.76
838.145	60.24
838.321	-5.29
838.498	45.91
838.674	43.86
838.851	33.62
839.027	47.96
839.203	9.05
839.38	74.58
839.556	2.9
839.732	23.38
839.909	4.95
840.085	50
840.261	37.72
840.437	-25.77
840.614	58.2
840.79	-38.06
840.966	-7.34
841.142	11.09
841.318	45.91
841.494	95.06
841.671	52.05
841.847	-27.82
842.023	25.43
842.199	56.15
842.375	74.58
842.551	86.87
842.727	37.72
842.903	21.33
843.079	-27.82
843.255	33.62
843.431	60.24
843.607	-29.87
843.783	-13.48
843.959	27.48
844.134	-54.44
844.31	37.72
844.486	-11.43
844.662	58.2
844.838	-48.3
845.013	19.29
845.189	31.57
845.365	43.86
845.541	-36.01
845.716	39.76
845.892	-9.39
846.068	31.57
846.244	2.9
846.419	17.24
846.595	37.72
846.77	-36.01
846.946	21.33
847.122	17.24
847.297	0.85
847.473	47.96
847.648	-5.29
847.824	-19.63
847.999	47.96
848.175	-29.87
848.35	19.29
848.526	4.95
848.701	4.95
848.876	23.38
849.052	35.67
849.227	21.33
849.403	37.72
849.578	47.96
849.753	64.34
849.929	-1.19
850.104	17.24
850.279	-3.24
850.454	37.72
850.63	41.81
850.805	-7.34
850.98	58.2
851.155	60.24
851.33	74.58
851.505	4.95
851.681	45.91
851.856	-66.73
852.031	64.34
852.206	-3.24
852.381	15.19
852.556	-1.19
852.731	25.43
852.906	66.39
853.081	35.67
853.256	33.62
853.431	25.43
853.606	-13.48
853.781	0.85
853.956	27.48
854.131	-15.53
854.305	-40.11
854.48	-60.59
854.655	-23.72
854.83	-7.34
855.005	-5.29
855.18	-1.19
855.354	-46.25
855.529	58.2
855.704	4.95
855.879	95.06
856.053	43.86
856.228	-70.83
856.403	7
856.577	25.43
856.752	56.15
856.926	-23.72
857.101	23.38
857.276	-44.2
857.45	-50.35
857.625	35.67
857.799	-40.11
857.974	41.81
858.148	23.38
858.323	29.52
858.497	-1.19
858.672	-42.15
858.846	-33.96
859.02	-48.3
859.195	11.09
859.369	11.09
859.543	-3.24
859.718	-1.19
859.892	7
860.066	-21.67
860.241	17.24
860.415	-5.29
860.589	-23.72
860.763	-25.77
860.938	-29.87
861.112	17.24
861.286	-38.06
861.46	31.57
861.634	47.96
861.808	13.14
861.982	43.86
862.157	-40.11
862.331	-5.29
862.505	15.19
862.679	-21.67
862.853	43.86
863.027	60.24
863.201	-5.29
863.375	4.95
863.549	56.15
863.722	-11.43
863.896	-101.55
864.07	52.05
864.244	50
864.418	-56.49
864.592	-40.11
864.766	-29.87
864.939	-54.44
865.113	43.86
865.287	86.87
865.461	13.14
865.634	0.85
865.808	-3.24
865.982	47.96
866.156	-21.67
866.329	-38.06
866.503	-9.39
866.676	-42.15
866.85	19.29
867.024	-7.34
867.197	-36.01
867.371	-29.87
867.544	13.14
867.718	-3.24
867.891	68.44
868.065	-27.82
868.238	-29.87
868.412	19.29
868.585	-56.49
868.759	-36.01
868.932	-27.82
869.105	56.15
869.279	56.15
869.452	70.48
869.625	-31.91
869.799	-3.24
869.972	0.85
870.145	2.9
870.319	-15.53
870.492	-9.39
870.665	52.05
870.838	23.38
871.011	-21.67
871.185	25.43
871.358	-33.96
871.531	23.38
871.704	-21.67
871.877	4.95
872.05	95.06
872.223	-25.77
872.396	4.95
872.569	39.76
872.742	0.85
872.915	-5.29
873.088	4.95
873.261	-25.77
873.434	-48.3
873.607	-13.48
873.78	93.01
873.953	33.62
874.126	13.14
874.299	-25.77
874.471	-46.25
874.644	68.44
874.817	-42.15
874.99	52.05
875.163	31.57
875.335	4.95
875.508	21.33
875.681	41.81
875.853	-1.19
876.026	-44.2
876.199	95.06
876.371	54.1
876.544	0.85
876.717	39.76
876.889	-11.43
877.062	-15.53
877.234	0.85
877.407	31.57
877.579	21.33
877.752	7
877.924	-7.34
878.097	31.57
878.269	-19.63
878.442	-3.24
878.614	-11.43
878.786	-36.01
878.959	-25.77
879.131	0.85
879.303	37.72
879.476	13.14
879.648	-13.48
879.82	-27.82
879.993	-54.44
880.165	11.09
880.337	-27.82
880.509	70.48
880.681	-17.58
880.854	-1.19
881.026	-11.43
881.198	-23.72
881.37	0.85
881.542	-31.91
881.714	-66.73
881.886	17.24
882.058	-11.43
882.23	11.09
882.402	25.43
882.574	-15.53
882.746	-19.63
882.918	-36.01
883.09	-31.91
883.262	35.67
883.434	37.72
883.606	9.05
883.778	7
883.95	-7.34
884.122	41.81
884.293	15.19
884.465	0.85
884.637	-48.3
884.809	-1.19
884.98	31.57
885.152	80.72
885.324	11.09
885.496	-7.34
885.667	33.62
885.839	23.38
886.011	0.85
886.182	-40.11
886.354	0.85
886.525	-44.2
886.697	-1.19
886.869	-40.11
887.04	43.86
887.212	-62.63
887.383	-27.82
887.555	-72.87
887.726	-19.63
887.897	88.92
888.069	35.67
888.24	17.24
888.412	-38.06
888.583	-3.24
888.754	21.33
888.926	-19.63
889.097	-42.15
889.268	-19.63
889.44	-64.68
889.611	-1.19
889.782	-13.48
889.953	-23.72
890.125	11.09
890.296	-70.83
890.467	-27.82
890.638	-29.87
890.809	7
890.98	-1.19
891.151	-56.49
891.323	76.63
891.494	43.86
891.665	-5.29
891.836	-15.53
892.007	-58.54
892.178	54.1
892.349	-13.48
892.52	-3.24
892.691	-1.19
892.862	-33.96
893.032	-27.82
893.203	11.09
893.374	13.14
893.545	-19.63
893.716	45.91
893.887	-13.48
894.057	-25.77
894.228	21.33
894.399	-31.91
894.57	4.95
894.74	-85.16
894.911	11.09
895.082	-31.91
895.253	-33.96
895.423	-54.44
895.594	29.52
895.764	7
895.935	-44.2
896.106	45.91
896.276	23.38
896.447	-3.24
896.617	19.29
896.788	-52.39
896.958	-52.39
897.129	-19.63
897.299	-44.2
897.47	-56.49
897.64	-64.68
897.81	-64.68
897.981	15.19
898.151	-58.54
898.322	-11.43
898.492	-42.15
898.662	-23.72
898.832	21.33
899.003	-52.39
899.173	-48.3
899.343	13.14
899.513	21.33
