Data from USB4F104151__280__14-02-26-018.txt Node

Date: Thu Mar 13 14:02:26 EDT 2025
User: louis
Spectrometer: USB4F10415
Trigger mode: 4
Integration Time (sec): 1.000000E-2
Scans to average: 1
Electric dark correction enabled: true
Nonlinearity correction enabled: false
Boxcar width: 0
XAxis mode: Wavelengths
Number of Pixels in Spectrum: 3648
>>>>>Begin Spectral Data<<<<<
178.204	-63.66
178.424	-63.66
178.644	-63.66
178.864	-106.67
179.084	-61.61
179.304	16.21
179.524	44.88
179.744	1.88
179.964	8.02
180.184	-18.6
180.404	-43.18
180.624	12.12
180.844	10.07
181.064	-30.89
181.283	44.88
181.503	-20.65
181.723	-24.75
181.943	5.97
182.163	46.93
182.383	10.07
182.602	59.22
182.822	24.4
183.042	-2.22
183.262	48.98
183.482	104.28
183.701	38.74
183.921	69.46
184.141	-0.17
184.361	-8.36
184.58	65.36
184.8	46.93
185.02	18.26
185.239	22.36
185.459	38.74
185.679	67.41
185.898	34.64
186.118	34.64
186.338	77.65
186.557	-0.17
186.777	3.93
186.997	38.74
187.216	1.88
187.436	5.97
187.655	-34.99
187.875	8.02
188.095	12.12
188.314	42.84
188.534	30.55
188.753	36.69
188.973	-55.47
189.192	59.22
189.412	112.47
189.631	8.02
189.851	-2.22
190.07	5.97
190.29	34.64
190.509	5.97
190.729	32.6
190.948	3.93
191.168	59.22
191.387	44.88
191.607	38.74
191.826	46.93
192.045	5.97
192.265	3.93
192.484	10.07
192.704	28.5
192.923	-2.22
193.142	48.98
193.362	-12.46
193.581	-6.31
193.8	-22.7
194.02	28.5
194.239	-26.79
194.458	18.26
194.678	24.4
194.897	42.84
195.116	-63.66
195.335	69.46
195.555	-4.27
195.774	65.36
195.993	53.08
196.212	46.93
196.432	67.41
196.651	42.84
196.87	-32.94
197.089	42.84
197.308	71.51
197.528	12.12
197.747	-30.89
197.966	77.65
198.185	61.27
198.404	-10.41
198.623	83.8
198.842	14.17
199.062	51.03
199.281	67.41
199.5	53.08
199.719	20.31
199.938	57.17
200.157	5.97
200.376	65.36
200.595	26.45
200.814	18.26
201.033	73.56
201.252	71.51
201.471	-51.37
201.69	-2.22
201.909	-18.6
202.128	3.93
202.347	16.21
202.566	75.6
202.785	30.55
203.004	26.45
203.223	63.32
203.442	91.99
203.661	77.65
203.879	12.12
204.098	10.07
204.317	-28.84
204.536	94.04
204.755	34.64
204.974	81.75
205.193	-10.41
205.411	20.31
205.63	8.02
205.849	69.46
206.068	10.07
206.287	18.26
206.505	98.13
206.724	71.51
206.943	10.07
207.162	-51.37
207.381	3.93
207.599	69.46
207.818	5.97
208.037	3.93
208.255	83.8
208.474	63.32
208.693	71.51
208.911	59.22
209.13	55.12
209.349	75.6
209.567	-4.27
209.786	-30.89
210.005	18.26
210.223	34.64
210.442	108.37
210.661	44.88
210.879	24.4
211.098	42.84
211.316	3.93
211.535	96.08
211.753	18.26
211.972	98.13
212.191	38.74
212.409	16.21
212.628	71.51
212.846	-53.42
213.065	36.69
213.283	42.84
213.502	-12.46
213.72	38.74
213.938	1.88
214.157	100.18
214.375	53.08
214.594	-30.89
214.812	-0.17
215.031	40.79
215.249	34.64
215.467	-39.08
215.686	22.36
215.904	75.6
216.122	-39.08
216.341	26.45
216.559	5.97
216.778	-34.99
216.996	38.74
217.214	44.88
217.432	-37.03
217.651	83.8
217.869	44.88
218.087	3.93
218.306	57.17
218.524	91.99
218.742	32.6
218.96	-20.65
219.179	3.93
219.397	71.51
219.615	59.22
219.833	22.36
220.051	38.74
220.27	77.65
220.488	26.45
220.706	118.61
220.924	32.6
221.142	42.84
221.36	108.37
221.578	34.64
221.796	-63.66
222.015	44.88
222.233	1.88
222.451	-12.46
222.669	-22.7
222.887	48.98
223.105	48.98
223.323	12.12
223.541	59.22
223.759	26.45
223.977	59.22
224.195	67.41
224.413	42.84
224.631	59.22
224.849	57.17
225.067	71.51
225.285	44.88
225.503	-22.7
225.721	3.93
225.939	38.74
226.157	87.89
226.375	85.84
226.592	26.45
226.81	36.69
227.028	1.88
227.246	12.12
227.464	-6.31
227.682	28.5
227.9	44.88
228.117	94.04
228.335	-24.75
228.553	44.88
228.771	59.22
228.989	28.5
229.206	40.79
229.424	34.64
229.642	36.69
229.86	77.65
230.077	12.12
230.295	5.97
230.513	3.93
230.731	28.5
230.948	26.45
231.166	51.03
231.384	40.79
231.601	-39.08
231.819	67.41
232.037	-30.89
232.254	8.02
232.472	59.22
232.689	-20.65
232.907	18.26
233.125	46.93
233.342	22.36
233.56	26.45
233.777	22.36
233.995	14.17
234.213	75.6
234.43	14.17
234.648	10.07
234.865	-4.27
235.083	71.51
235.3	5.97
235.518	36.69
235.735	14.17
235.953	12.12
236.17	-34.99
236.388	-24.75
236.605	-20.65
236.822	-47.27
237.04	135
237.257	36.69
237.475	-53.42
237.692	18.26
237.909	42.84
238.127	36.69
238.344	91.99
238.562	67.41
238.779	42.84
238.996	-26.79
239.214	87.89
239.431	87.89
239.648	-4.27
239.865	51.03
240.083	-61.61
240.3	28.5
240.517	1.88
240.735	61.27
240.952	71.51
241.169	79.7
241.386	69.46
241.603	-14.51
241.821	53.08
242.038	91.99
242.255	81.75
242.472	83.8
242.689	46.93
242.907	108.37
243.124	34.64
243.341	36.69
243.558	18.26
243.775	1.88
243.992	10.07
244.209	83.8
244.426	26.45
244.643	-10.41
244.86	53.08
245.078	91.99
245.295	71.51
245.512	51.03
245.729	36.69
245.946	34.64
246.163	36.69
246.38	46.93
246.597	1.88
246.814	28.5
247.031	-57.51
247.248	75.6
247.464	34.64
247.681	42.84
247.898	65.36
248.115	44.88
248.332	26.45
248.549	65.36
248.766	22.36
248.983	28.5
249.2	38.74
249.417	36.69
249.633	-14.51
249.85	71.51
250.067	-18.6
250.284	26.45
250.501	71.51
250.717	94.04
250.934	67.41
251.151	51.03
251.368	-6.31
251.585	12.12
251.801	26.45
252.018	16.21
252.235	46.93
252.451	34.64
252.668	-6.31
252.885	5.97
253.102	96.08
253.318	79.7
253.535	32.6
253.752	-14.51
253.968	26.45
254.185	16.21
254.401	18.26
254.618	57.17
254.835	71.51
255.051	18.26
255.268	61.27
255.484	55.12
255.701	48.98
255.917	36.69
256.134	-20.65
256.351	18.26
256.567	67.41
256.784	53.08
257	-8.36
257.217	-10.41
257.433	-28.84
257.65	42.84
257.866	83.8
258.082	30.55
258.299	10.07
258.515	-8.36
258.732	59.22
258.948	34.64
259.165	55.12
259.381	14.17
259.597	32.6
259.814	18.26
260.03	42.84
260.246	30.55
260.463	-6.31
260.679	-22.7
260.895	28.5
261.112	38.74
261.328	40.79
261.544	12.12
261.761	42.84
261.977	112.47
262.193	26.45
262.409	89.94
262.626	48.98
262.842	100.18
263.058	44.88
263.274	38.74
263.49	38.74
263.707	59.22
263.923	59.22
264.139	1.88
264.355	34.64
264.571	48.98
264.787	77.65
265.004	12.12
265.22	75.6
265.436	51.03
265.652	16.21
265.868	18.26
266.084	46.93
266.3	59.22
266.516	38.74
266.732	36.69
266.948	-2.22
267.164	14.17
267.38	48.98
267.596	-12.46
267.812	61.27
268.028	67.41
268.244	12.12
268.46	18.26
268.676	18.26
268.892	48.98
269.108	42.84
269.324	-20.65
269.54	16.21
269.756	3.93
269.972	57.17
270.188	-22.7
270.403	-14.51
270.619	42.84
270.835	42.84
271.051	77.65
271.267	-4.27
271.483	91.99
271.698	1.88
271.914	59.22
272.13	44.88
272.346	-0.17
272.562	61.27
272.777	16.21
272.993	71.51
273.209	59.22
273.425	5.97
273.64	69.46
273.856	73.56
274.072	87.89
274.287	-4.27
274.503	-28.84
274.719	44.88
274.934	40.79
275.15	8.02
275.366	14.17
275.581	18.26
275.797	91.99
276.012	34.64
276.228	112.47
276.444	83.8
276.659	10.07
276.875	63.32
277.09	22.36
277.306	12.12
277.521	63.32
277.737	51.03
277.952	77.65
278.168	3.93
278.383	83.8
278.599	-0.17
278.814	63.32
279.03	40.79
279.245	26.45
279.461	26.45
279.676	42.84
279.892	-24.75
280.107	51.03
280.322	16.21
280.538	67.41
280.753	-14.51
280.969	-4.27
281.184	102.23
281.399	46.93
281.615	36.69
281.83	18.26
282.045	-6.31
282.26	100.18
282.476	-20.65
282.691	-22.7
282.906	-37.03
283.122	26.45
283.337	87.89
283.552	91.99
283.767	26.45
283.983	112.47
284.198	-32.94
284.413	91.99
284.628	5.97
284.843	44.88
285.058	28.5
285.274	73.56
285.489	51.03
285.704	73.56
285.919	-4.27
286.134	-59.56
286.349	87.89
286.564	59.22
286.779	79.7
286.995	57.17
287.21	-6.31
287.425	44.88
287.64	53.08
287.855	12.12
288.07	116.56
288.285	10.07
288.5	-26.79
288.715	55.12
288.93	20.31
289.145	94.04
289.36	12.12
289.575	22.36
289.79	18.26
290.004	-69.8
290.219	38.74
290.434	57.17
290.649	40.79
290.864	38.74
291.079	-24.75
291.294	69.46
291.509	118.61
291.724	79.7
291.938	34.64
292.153	18.26
292.368	12.12
292.583	-28.84
292.798	8.02
293.012	38.74
293.227	61.27
293.442	55.12
293.657	30.55
293.871	108.37
294.086	5.97
294.301	108.37
294.516	59.22
294.73	34.64
294.945	67.41
295.16	51.03
295.374	12.12
295.589	30.55
295.804	36.69
296.018	48.98
296.233	63.32
296.447	42.84
296.662	1.88
296.877	-16.55
297.091	28.5
297.306	34.64
297.52	34.64
297.735	10.07
297.949	14.17
298.164	24.4
298.378	-34.99
298.593	-30.89
298.807	-2.22
299.022	38.74
299.236	79.7
299.451	98.13
299.665	110.42
299.88	77.65
300.094	69.46
300.309	20.31
300.523	20.31
300.737	20.31
300.952	38.74
301.166	46.93
301.381	-51.37
301.595	12.12
301.809	-59.56
302.024	-37.03
302.238	20.31
302.452	10.07
302.667	34.64
302.881	42.84
303.095	44.88
303.309	63.32
303.524	77.65
303.738	53.08
303.952	-10.41
304.166	-22.7
304.381	65.36
304.595	20.31
304.809	-14.51
305.023	71.51
305.237	44.88
305.452	-12.46
305.666	55.12
305.88	108.37
306.094	73.56
306.308	81.75
306.522	73.56
306.736	18.26
306.95	-12.46
307.164	10.07
307.379	8.02
307.593	63.32
307.807	-0.17
308.021	51.03
308.235	-61.61
308.449	10.07
308.663	79.7
308.877	14.17
309.091	-10.41
309.305	-2.22
309.519	16.21
309.733	30.55
309.947	-69.8
310.161	69.46
310.374	44.88
310.588	36.69
310.802	-2.22
311.016	14.17
311.23	20.31
311.444	26.45
311.658	24.4
311.872	44.88
312.085	75.6
312.299	124.76
312.513	8.02
312.727	94.04
312.941	-0.17
313.154	30.55
313.368	34.64
313.582	77.65
313.796	100.18
314.009	61.27
314.223	40.79
314.437	83.8
314.651	71.51
314.864	53.08
315.078	42.84
315.292	20.31
315.505	108.37
315.719	46.93
315.933	59.22
316.146	38.74
316.36	42.84
316.573	71.51
316.787	28.5
317.001	55.12
317.214	79.7
317.428	44.88
317.641	28.5
317.855	67.41
318.068	40.79
318.282	22.36
318.495	61.27
318.709	10.07
318.922	20.31
319.136	34.64
319.349	34.64
319.563	-2.22
319.776	18.26
319.99	46.93
320.203	-28.84
320.417	81.75
320.63	51.03
320.843	91.99
321.057	42.84
321.27	48.98
321.483	26.45
321.697	83.8
321.91	79.7
322.124	34.64
322.337	-14.51
322.55	81.75
322.763	-37.03
322.977	3.93
323.19	42.84
323.403	34.64
323.617	1.88
323.83	18.26
324.043	73.56
324.256	69.46
324.469	114.52
324.683	34.64
324.896	61.27
325.109	128.85
325.322	14.17
325.535	28.5
325.748	10.07
325.962	67.41
326.175	42.84
326.388	28.5
326.601	59.22
326.814	24.4
327.027	28.5
327.24	36.69
327.453	-8.36
327.666	143.19
327.879	73.56
328.092	79.7
328.305	46.93
328.518	67.41
328.731	44.88
328.944	59.22
329.157	38.74
329.37	-10.41
329.583	53.08
329.796	77.65
330.009	-22.7
330.222	53.08
330.435	34.64
330.648	20.31
330.861	83.8
331.073	51.03
331.286	-26.79
331.499	89.94
331.712	14.17
331.925	77.65
332.138	51.03
332.35	63.32
332.563	40.79
332.776	24.4
332.989	10.07
333.202	55.12
333.414	36.69
333.627	-32.94
333.84	-4.27
334.053	63.32
334.265	40.79
334.478	51.03
334.691	75.6
334.903	77.65
335.116	96.08
335.329	36.69
335.541	-30.89
335.754	10.07
335.966	36.69
336.179	-51.37
336.392	73.56
336.604	30.55
336.817	-18.6
337.029	79.7
337.242	26.45
337.454	57.17
337.667	-2.22
337.88	55.12
338.092	-2.22
338.305	-12.46
338.517	77.65
338.729	96.08
338.942	63.32
339.154	69.46
339.367	48.98
339.579	-30.89
339.792	36.69
340.004	85.84
340.217	1.88
340.429	51.03
340.641	63.32
340.854	55.12
341.066	5.97
341.278	63.32
341.491	36.69
341.703	83.8
341.915	91.99
342.128	28.5
342.34	26.45
342.552	30.55
342.764	-22.7
342.977	51.03
343.189	91.99
343.401	59.22
343.613	-28.84
343.826	124.76
344.038	8.02
344.25	20.31
344.462	108.37
344.674	26.45
344.886	-26.79
345.099	130.9
345.311	20.31
345.523	22.36
345.735	104.28
345.947	38.74
346.159	-53.42
346.371	53.08
346.583	85.84
346.795	96.08
347.007	-22.7
347.219	81.75
347.431	61.27
347.643	100.18
347.855	55.12
348.067	96.08
348.279	5.97
348.491	120.66
348.703	42.84
348.915	5.97
349.127	5.97
349.339	83.8
349.551	69.46
349.763	75.6
349.975	48.98
350.187	77.65
350.399	57.17
350.61	89.94
350.822	5.97
351.034	30.55
351.246	79.7
351.458	126.8
351.669	120.66
351.881	61.27
352.093	18.26
352.305	63.32
352.517	42.84
352.728	67.41
352.94	46.93
353.152	12.12
353.363	36.69
353.575	-22.7
353.787	3.93
353.999	83.8
354.21	91.99
354.422	69.46
354.633	16.21
354.845	3.93
355.057	-30.89
355.268	40.79
355.48	-14.51
355.692	-6.31
355.903	51.03
356.115	42.84
356.326	34.64
356.538	135
356.749	44.88
356.961	65.36
357.172	87.89
357.384	26.45
357.595	55.12
357.807	79.7
358.018	40.79
358.23	51.03
358.441	106.32
358.653	110.42
358.864	1.88
359.075	42.84
359.287	51.03
359.498	75.6
359.709	55.12
359.921	26.45
360.132	-43.18
360.344	83.8
360.555	38.74
360.766	44.88
360.977	63.32
361.189	118.61
361.4	147.28
361.611	75.6
361.823	59.22
362.034	24.4
362.245	91.99
362.456	-26.79
362.667	69.46
362.879	61.27
363.09	55.12
363.301	75.6
363.512	67.41
363.723	51.03
363.935	46.93
364.146	46.93
364.357	40.79
364.568	12.12
364.779	42.84
364.99	73.56
365.201	67.41
365.412	63.32
365.623	-6.31
365.834	20.31
366.045	61.27
366.256	102.23
366.467	12.12
366.678	22.36
366.889	59.22
367.1	12.12
367.311	44.88
367.522	51.03
367.733	10.07
367.944	91.99
368.155	57.17
368.366	77.65
368.577	-10.41
368.788	63.32
368.999	59.22
369.209	69.46
369.42	75.6
369.631	38.74
369.842	44.88
370.053	44.88
370.264	-37.03
370.474	26.45
370.685	71.51
370.896	14.17
371.107	104.28
371.317	128.85
371.528	28.5
371.739	26.45
371.95	12.12
372.16	42.84
372.371	-0.17
372.582	83.8
372.792	34.64
373.003	63.32
373.214	51.03
373.424	71.51
373.635	14.17
373.846	91.99
374.056	42.84
374.267	77.65
374.477	104.28
374.688	26.45
374.898	118.61
375.109	28.5
375.319	96.08
375.53	108.37
375.74	-0.17
375.951	44.88
376.161	59.22
376.372	87.89
376.582	1.88
376.793	42.84
377.003	36.69
377.214	75.6
377.424	77.65
377.635	91.99
377.845	46.93
378.055	100.18
378.266	124.76
378.476	3.93
378.686	59.22
378.897	51.03
379.107	89.94
379.317	30.55
379.528	104.28
379.738	145.24
379.948	46.93
380.158	63.32
380.369	20.31
380.579	135
380.789	91.99
380.999	34.64
381.21	46.93
381.42	124.76
381.63	22.36
381.84	44.88
382.05	5.97
382.261	91.99
382.471	106.32
382.681	75.6
382.891	14.17
383.101	16.21
383.311	8.02
383.521	65.36
383.731	22.36
383.941	55.12
384.151	38.74
384.361	44.88
384.571	69.46
384.781	100.18
384.991	83.8
385.201	-4.27
385.411	59.22
385.621	30.55
385.831	69.46
386.041	51.03
386.251	34.64
386.461	53.08
386.671	65.36
386.881	108.37
387.091	14.17
387.301	102.23
387.511	102.23
387.72	83.8
387.93	-14.51
388.14	12.12
388.35	75.6
388.56	30.55
388.769	-0.17
388.979	96.08
389.189	36.69
389.399	59.22
389.609	102.23
389.818	-24.75
390.028	46.93
390.238	135
390.447	48.98
390.657	61.27
390.867	91.99
391.076	81.75
391.286	81.75
391.496	36.69
391.705	59.22
391.915	159.57
392.125	94.04
392.334	24.4
392.544	120.66
392.753	67.41
392.963	55.12
393.172	36.69
393.382	85.84
393.591	106.32
393.801	32.6
394.01	126.8
394.22	141.14
394.429	79.7
394.639	102.23
394.848	77.65
395.058	61.27
395.267	55.12
395.477	100.18
395.686	28.5
395.895	91.99
396.105	59.22
396.314	55.12
396.524	96.08
396.733	132.95
396.942	106.32
397.152	34.64
397.361	159.57
397.57	81.75
397.78	77.65
397.989	116.56
398.198	120.66
398.407	63.32
398.617	165.71
398.826	81.75
399.035	71.51
399.244	94.04
399.453	157.52
399.663	71.51
399.872	182.1
400.081	1.88
400.29	61.27
400.499	69.46
400.708	108.37
400.917	61.27
401.127	55.12
401.336	40.79
401.545	149.33
401.754	132.95
401.963	100.18
402.172	42.84
402.381	81.75
402.59	132.95
402.799	135
403.008	124.76
403.217	118.61
403.426	112.47
403.635	149.33
403.844	169.81
404.053	165.71
404.262	124.76
404.471	110.42
404.68	110.42
404.888	102.23
405.097	135
405.306	157.52
405.515	155.47
405.724	126.8
405.933	141.14
406.142	126.8
406.35	106.32
406.559	192.34
406.768	216.91
406.977	225.11
407.185	159.57
407.394	137.04
407.603	192.34
407.812	163.67
408.02	175.95
408.229	214.87
408.438	218.96
408.646	157.52
408.855	192.34
409.064	192.34
409.272	249.68
409.481	311.12
409.69	304.98
409.898	218.96
410.107	280.4
410.315	288.59
410.524	278.35
410.733	386.9
410.941	335.7
411.15	278.35
411.358	444.24
411.567	501.58
411.775	333.65
411.984	386.9
412.192	358.22
412.401	419.66
412.609	395.09
412.818	446.29
413.026	399.18
413.234	393.04
413.443	503.63
413.651	411.47
413.86	515.92
414.068	487.25
414.276	542.54
414.485	522.06
414.693	515.92
414.901	542.54
415.11	567.12
415.318	575.31
415.526	661.32
415.734	651.08
415.943	583.5
416.151	689.99
416.359	706.38
416.567	753.48
416.776	677.71
416.984	804.68
417.192	845.64
417.4	765.77
417.608	888.65
417.817	870.22
418.025	931.66
418.233	1085.25
418.441	923.46
418.649	972.61
418.857	1068.87
419.065	1158.98
419.273	1083.2
419.481	1234.75
419.689	1206.08
419.897	1183.56
420.105	1288
420.313	1222.47
420.521	1396.54
420.729	1324.87
420.937	1374.02
421.145	1408.83
421.353	1568.57
421.561	1673.02
421.769	1683.26
421.977	1783.61
422.185	1748.79
422.393	1763.13
422.601	1988.41
422.809	1890.1
423.017	2021.17
423.224	1980.22
423.432	2142
423.64	2074.42
423.848	2193.2
424.056	2172.72
424.263	2297.65
424.471	2432.82
424.679	2430.77
424.887	2574.13
425.094	2723.63
425.302	2639.66
425.51	2715.44
425.718	2905.9
425.925	2926.38
426.133	2996.01
426.341	3157.8
426.548	3325.73
426.756	3378.98
426.964	3301.15
427.171	3551.01
427.379	3639.07
427.586	3720.99
427.794	3753.76
428.001	3921.69
428.209	4237.08
428.417	4052.76
428.624	4269.84
428.832	4265.75
429.039	4204.31
429.247	4415.25
429.454	4665.1
429.662	4980.49
429.869	4761.36
430.076	5027.59
430.284	4910.86
430.491	5138.18
430.699	5426.95
430.906	5314.31
431.114	5420.8
431.321	5654.27
431.528	5861.12
431.736	6049.53
431.943	6450.93
432.15	6233.85
432.358	6287.09
432.565	6610.67
432.772	6596.34
432.979	6852.33
433.187	7096.04
433.394	7050.99
433.601	7636.7
433.808	7702.24
434.016	7374.56
434.223	7843.55
434.43	8238.81
434.637	8066.78
434.844	8646.35
435.052	8695.5
435.259	8715.98
435.466	8847.05
435.673	8900.3
435.88	9354.95
436.087	9828.03
436.294	9797.31
436.501	9653.95
436.708	9791.17
436.915	10204.86
437.122	10575.54
437.329	10559.16
437.537	10895.02
437.743	11196.07
437.95	10913.45
438.157	11431.59
438.364	12091.04
438.571	11976.35
438.778	11853.47
438.985	13043.34
439.192	12418.71
439.399	13067.92
439.606	12725.91
439.813	13643.4
440.02	14214.78
440.227	13870.72
440.433	13854.34
440.64	14128.77
440.847	14102.14
441.054	14501.5
441.261	15480.43
441.467	15453.8
441.674	15736.42
441.881	16113.25
442.088	16158.3
442.294	16201.31
442.501	16254.56
442.708	16574.04
442.914	17546.83
443.121	18193.98
443.328	17743.43
443.534	18644.54
443.741	18228.8
443.948	17958.47
444.154	19445.29
444.361	19383.85
444.568	19250.74
444.774	19396.14
444.981	19945
445.187	20137.51
445.394	21169.68
445.6	20897.3
445.807	22984.18
446.013	21638.67
446.22	22269.44
446.426	23066.1
446.633	23180.79
446.839	24149.48
447.046	23121.4
447.252	24692.19
447.459	24581.6
447.665	24040.93
447.871	25511.38
448.078	26596.8
448.284	25189.84
448.491	25830.86
448.697	26627.52
448.903	27063.74
449.11	27563.44
449.316	26750.4
449.522	27628.98
449.728	28349.86
449.935	28593.57
450.141	28462.5
450.347	28831.13
450.553	27887.02
450.76	28568.99
450.966	29711.76
451.172	29210.01
451.378	29945.23
451.584	28947.87
451.791	29990.28
451.997	29625.75
452.203	30295.43
452.409	30508.42
452.615	30035.34
452.821	28710.3
453.027	29080.99
453.233	30037.39
453.44	28992.92
453.646	29248.92
453.852	29339.03
454.058	30309.77
454.264	28839.33
454.47	29523.35
454.676	28755.36
454.882	29838.73
455.088	27448.75
455.294	27620.78
455.5	28059.05
455.705	28798.37
455.911	27207.09
456.117	26754.49
456.323	26353.09
456.529	25294.29
456.735	25994.7
456.941	25499.09
457.147	24923.61
457.352	24030.69
457.558	24096.23
457.764	24212.96
457.97	23389.68
458.176	23154.16
458.381	23395.82
458.587	21843.46
458.793	21874.18
458.999	20729.37
459.204	22287.87
459.41	21736.97
459.616	20231.71
459.821	20168.23
460.027	20287.01
460.233	19609.13
460.438	18740.79
460.644	19027.51
460.85	18128.45
461.055	17835.59
461.261	17806.92
461.466	16539.22
461.672	15924.83
461.878	17223.25
462.083	16096.86
462.289	15740.52
462.494	15717.99
462.7	14704.24
462.905	14597.75
463.111	14722.68
463.316	15124.08
463.522	14726.77
463.727	14663.29
463.932	14839.41
464.138	14550.65
464.343	14714.48
464.549	14075.52
464.754	14720.63
464.959	14554.74
465.165	14556.79
465.37	13751.94
465.575	13411.98
465.781	13926.02
465.986	13997.7
466.191	13674.12
466.397	13334.15
466.602	12709.52
466.807	13203.08
467.012	13176.46
467.218	12994.19
467.423	12906.13
467.628	12994.19
467.833	13364.87
468.038	12844.69
468.244	12713.62
468.449	13063.82
468.654	12687
468.859	12525.21
469.064	12660.37
469.269	12152.48
469.474	12123.8
469.679	12576.41
469.885	12027.55
470.09	11980.45
470.295	11937.44
470.5	11904.67
470.705	11888.29
470.91	11712.16
471.115	11558.56
471.32	11648.68
471.525	11519.65
471.73	11294.38
471.935	11257.51
472.139	11022
472.344	11175.59
472.549	10966.7
472.754	10757.81
472.959	10749.62
473.164	10356.41
473.369	10249.91
473.574	10745.52
473.778	10548.92
473.983	10374.84
474.188	10385.08
474.393	10030.78
474.598	10041.02
474.802	9758.4
475.007	9957.05
475.212	10075.84
475.417	9461.44
475.621	9658.05
475.826	9373.38
476.031	9414.34
476.235	9256.65
476.44	9273.03
476.645	9076.43
476.849	8908.49
477.054	8931.02
477.259	8941.26
477.463	8699.6
477.668	8503
477.872	8869.58
478.077	8603.35
478.282	8343.25
478.486	8279.77
478.691	8142.55
478.895	8343.25
479.1	8412.88
479.304	8398.55
479.509	8140.51
479.713	8208.09
479.918	7917.28
480.122	7896.8
480.326	8007.39
480.531	7864.03
480.735	7775.97
480.94	7706.34
481.144	8230.62
481.348	7440.1
481.553	7720.67
481.757	7612.13
481.961	7642.85
482.166	7630.56
482.37	7673.57
482.574	7466.72
482.778	7661.28
482.983	7577.31
483.187	7522.02
483.391	7556.83
483.595	7642.85
483.8	7444.2
484.004	7708.38
484.208	7827.17
484.412	7605.99
484.616	7743.2
484.821	7665.38
485.025	7628.51
485.229	7661.28
485.433	7511.78
485.637	7632.61
485.841	7595.75
486.045	7696.1
486.249	7722.72
486.453	7483.11
486.657	7632.61
486.861	7511.78
487.065	7444.2
487.269	7562.98
487.473	7296.74
487.677	7573.22
487.881	7868.13
488.085	7542.5
488.289	7706.34
488.493	7509.73
488.697	7880.41
488.901	7640.8
489.105	7675.62
489.309	7808.73
489.512	7732.96
489.716	7835.36
489.92	7755.49
490.124	7661.28
490.328	7972.57
490.531	7624.42
490.735	7716.58
490.939	7778.01
491.143	7577.31
491.346	7710.43
491.55	7894.75
491.754	7849.69
491.958	8097.5
492.161	7974.62
492.365	8122.07
492.569	8056.54
492.772	8029.91
492.976	7896.8
493.18	8152.79
493.383	8333.01
493.587	8337.11
493.79	8287.96
493.994	8160.98
494.197	8355.54
494.401	8433.36
494.605	8410.84
494.808	8681.17
495.012	8670.93
495.215	8711.89
495.419	8726.22
495.622	8640.21
495.825	8896.21
496.029	8863.44
496.232	9096.91
496.436	9017.04
496.639	9316.04
496.843	9012.94
497.046	9357
497.249	9467.59
497.453	9504.45
497.656	9684.67
497.859	9627.33
498.063	9674.43
498.266	10051.26
498.469	9987.77
498.673	10053.31
498.876	10278.58
499.079	10446.52
499.282	10254.01
499.485	10469.05
499.689	10598.07
499.892	10802.86
500.095	10821.3
500.298	11099.82
500.501	11112.11
500.705	11447.97
500.908	11251.37
501.111	11509.41
501.314	11716.26
501.517	11601.57
501.72	11882.14
501.923	11978.4
502.126	12150.43
502.329	12437.14
502.532	12529.3
502.735	12424.86
502.938	12834.45
503.141	12877.46
503.344	12981.9
503.547	13149.84
503.75	13387.4
503.953	13649.54
504.156	13573.77
504.359	13672.07
504.562	13762.18
504.765	13997.7
504.968	14370.43
505.17	14552.7
505.373	14456.44
505.576	14853.75
505.779	15130.22
505.982	15050.35
506.185	15386.22
506.387	15568.49
506.59	15730.28
506.793	16025.18
506.996	15994.47
507.198	16494.17
507.401	16338.52
507.604	16612.95
507.807	17006.16
508.009	16877.14
508.212	17229.39
508.415	17327.69
508.617	17477.19
508.82	17925.7
509.022	17638.98
509.225	18452.03
509.428	18449.98
509.63	18904.63
509.833	18816.57
510.035	19177.01
510.238	19303.98
510.44	19449.39
510.643	19715.62
510.845	19858.98
511.048	19770.92
511.25	20223.52
511.453	20186.66
511.655	21276.18
511.858	20964.89
512.06	21208.59
512.262	21544.46
512.465	21419.53
512.667	22068.74
512.87	22076.93
513.072	22296.07
513.274	22795.77
513.477	22889.98
513.679	23090.68
513.881	23311.86
514.084	23762.41
514.286	23553.52
514.488	23901.67
514.69	24806.87
514.893	24612.32
515.095	24872.41
515.297	25073.11
515.499	24896.99
515.701	25789.9
515.904	25763.28
516.106	26029.51
516.308	26506.69
516.51	26482.11
516.712	26715.58
516.914	27239.86
517.116	27585.97
517.318	27653.55
517.52	27985.32
517.722	27833.77
517.925	28534.18
518.127	28902.81
518.329	29207.96
518.531	28886.43
518.733	29941.13
518.935	29828.49
519.136	29885.84
519.338	30766.46
519.54	30539.14
519.742	31278.46
519.944	30782.85
520.146	32068.97
520.348	31843.7
520.55	31860.08
520.752	32148.84
520.954	32847.2
521.155	32525.67
521.357	33318.23
521.559	33629.52
521.761	33828.18
521.963	33994.06
522.164	34649.41
522.366	34344.27
522.568	34553.16
522.77	34676.04
522.971	35206.46
523.173	35212.6
523.375	35564.85
523.576	35970.35
523.778	35781.94
523.98	36515.11
524.181	36615.46
524.383	36644.13
524.584	37070.11
524.786	37082.4
524.988	37115.17
525.189	37752.09
525.391	37895.44
525.592	37866.77
525.794	38120.72
525.995	38147.34
526.197	38221.07
526.398	38214.93
526.6	38855.94
526.801	39161.09
527.003	39161.09
527.204	39200
527.406	39691.51
527.607	39441.66
527.808	39814.39
528.01	39433.47
528.211	39572.73
528.412	40541.42
528.614	40078.58
528.815	40373.49
529.016	41143.52
529.218	39967.99
529.419	40836.33
529.62	40926.44
529.822	40328.43
530.023	40901.86
530.224	40635.63
530.425	40834.28
530.626	40545.51
530.828	41051.36
531.029	41555.16
531.23	41096.42
531.431	41491.68
531.632	41549.02
531.833	41503.96
532.035	41520.35
532.236	41600.22
532.437	41641.18
532.638	41680.09
532.839	41893.08
533.04	42001.62
533.241	41458.91
533.442	42337.49
533.643	42403.02
533.844	41893.08
534.045	42038.48
534.246	41716.95
534.447	42075.35
534.648	42274
534.849	42388.69
535.05	42153.17
535.251	42136.79
535.451	41698.52
535.652	42126.55
535.853	42259.66
536.054	42443.98
536.255	42734.79
536.456	41944.28
536.657	43085
536.857	41700.57
537.058	41931.99
537.259	42689.74
537.46	42398.93
537.66	41962.71
537.861	42460.37
538.062	42065.11
538.263	42394.83
538.463	42360.01
538.664	42237.14
538.865	42230.99
539.065	42595.53
539.266	42222.8
539.466	42837.19
539.667	41956.57
539.868	42525.9
540.068	42566.86
540.269	42028.24
540.469	42824.9
540.67	41911.51
540.87	42175.7
541.071	42149.07
541.271	42394.83
541.472	42153.17
541.672	41843.93
541.873	42308.82
542.073	41829.59
542.274	42575.05
542.474	42093.78
542.675	41921.75
542.875	42525.9
543.075	42124.5
543.276	41899.22
543.476	42595.53
543.676	42423.5
543.877	42274
544.077	42407.12
544.277	42071.25
544.478	42282.19
544.678	42220.75
544.878	41852.12
545.078	42384.59
545.279	42030.29
545.479	41921.75
545.679	42269.9
545.879	42120.4
546.079	42165.46
546.28	42302.67
546.48	41940.18
546.68	41884.89
546.88	42407.12
547.08	41923.8
547.28	41981.14
547.48	41848.02
547.68	42210.51
547.88	41725.14
548.081	42312.91
548.281	41827.54
548.481	42024.15
548.681	42427.6
548.881	42230.99
549.081	42319.06
549.28	41743.58
549.48	42179.79
549.68	41655.51
549.88	42532.04
550.08	41936.09
550.28	41991.38
550.48	41858.26
550.68	42450.13
550.88	41680.09
551.08	42034.39
551.279	41997.52
551.479	41415.9
551.679	41794.78
551.879	41800.92
552.079	42050.77
552.278	41845.97
552.478	41827.54
552.678	41743.58
552.878	42079.44
553.077	41848.02
553.277	41667.8
553.477	42149.07
553.676	41405.66
553.876	41819.35
554.076	41721.05
554.275	41325.79
554.475	40948.96
554.674	41868.5
554.874	41782.49
555.074	41053.41
555.273	41544.92
555.473	41571.55
555.672	41077.99
555.872	41235.68
556.071	41006.31
556.271	41376.99
556.47	40912.1
556.67	41059.55
556.869	40953.06
557.068	41321.69
557.268	40987.88
557.467	40746.22
557.667	40910.05
557.866	40934.63
558.065	40826.09
558.265	40617.19
558.464	40504.56
558.663	40994.02
558.863	40291.57
559.062	41100.51
559.261	40105.2
559.461	40799.46
559.66	40451.31
559.859	40518.89
560.058	40146.16
560.258	40254.7
560.457	39824.63
560.656	40342.77
560.855	39927.03
561.054	40006.9
561.253	40090.87
561.453	40043.76
561.652	39824.63
561.851	40017.14
562.05	39843.06
562.249	39453.95
562.448	40189.17
562.647	39945.46
562.846	39558.39
563.045	39613.69
563.244	39226.62
563.443	39488.76
563.642	39275.77
563.841	39216.38
564.04	38915.33
564.239	39404.8
564.438	38956.29
564.637	39132.42
564.836	39148.8
565.035	38688.01
565.234	38919.43
565.432	38558.98
565.631	38724.87
565.83	38804.74
566.029	38485.26
566.228	38219.02
566.427	38245.65
566.625	38395.15
566.824	38081.81
567.023	38216.97
567.222	38081.81
567.42	38565.13
567.619	38003.99
567.818	37903.63
568.016	37913.87
568.215	37831.96
568.414	37686.55
568.612	37934.35
568.811	37506.33
569.01	37543.19
569.208	37123.36
569.407	37322.01
569.605	36644.13
569.804	37612.82
570.002	36838.69
570.201	36752.68
570.4	36511.02
570.598	36476.2
570.797	36381.99
570.995	36850.98
571.193	36189.49
571.392	36406.57
571.59	36105.52
571.789	36343.08
571.987	35929.39
572.186	35792.18
572.384	35890.48
572.582	35816.75
572.781	36214.06
572.979	35257.66
573.177	35421.5
573.376	35577.14
573.574	35044.67
573.772	35548.47
573.971	34960.7
574.169	35169.6
574.367	34825.54
574.565	35085.63
574.763	34979.14
574.962	34608.45
575.16	34551.11
575.358	34760
575.556	33744.21
575.754	34458.95
575.952	33844.56
576.151	34477.38
576.349	33850.7
576.547	33867.09
576.745	33613.14
576.943	33987.92
577.141	33301.85
577.339	33385.82
577.537	33234.27
577.735	33193.31
577.933	32974.17
578.131	33334.62
578.329	32929.12
578.527	32832.86
578.725	32916.83
578.923	33406.3
579.121	32882.02
579.319	32433.51
579.516	32542.05
579.714	32515.43
579.912	32132.46
580.11	32660.83
580.308	32247.15
580.506	31815.02
580.704	31673.71
580.901	32150.89
581.099	31995.25
581.297	31430.01
581.495	31544.69
581.692	31659.38
581.89	31378.81
582.088	31681.91
582.285	31348.09
582.483	31616.37
582.681	31491.44
582.878	31034.75
583.076	30582.15
583.274	31022.46
583.471	30793.09
583.669	30760.32
583.866	30612.87
584.064	30406.02
584.262	30193.03
584.459	30649.73
584.657	30240.14
584.854	30430.6
585.052	29437.33
585.249	30219.66
585.447	29842.83
585.644	29509.01
585.841	29541.78
586.039	29959.56
586.236	29255.06
586.434	29373.85
586.631	29140.38
586.828	29167
587.026	29496.72
587.223	29437.33
587.42	29152.66
587.618	29199.77
587.815	28622.24
588.012	28718.5
588.21	28528.03
588.407	28943.77
588.604	28632.48
588.801	27956.65
588.999	28284.33
589.196	28351.91
589.393	28405.16
589.59	28071.34
589.787	28255.65
589.984	28054.95
590.182	27852.2
590.379	27841.96
590.576	27454.9
590.773	27823.53
590.97	27399.6
591.167	27788.72
591.364	27084.22
591.561	27166.13
591.758	26936.76
591.955	27196.85
592.152	27260.34
592.349	26926.52
592.546	26983.87
592.743	26758.59
592.94	26332.61
593.137	26891.71
593.334	26697.15
593.531	26455.49
593.727	26633.66
593.924	26469.83
594.121	26019.27
594.318	26516.93
594.515	26152.39
594.712	26148.29
594.908	26111.43
595.105	26074.57
595.302	25812.43
595.499	25839.05
595.696	25847.24
595.892	25632.21
596.089	25380.31
596.286	25568.72
596.482	25658.83
596.679	25470.42
596.876	25398.74
597.072	24909.27
597.269	25306.58
597.466	25030.1
597.662	25142.74
597.859	24772.06
598.055	25191.89
598.252	24948.18
598.448	24679.9
598.645	24876.51
598.841	24204.77
599.038	24546.78
599.234	24442.34
599.431	24116.71
599.627	24108.52
599.824	24460.77
600.02	24149.48
600.217	24135.14
600.413	23995.88
600.609	23766.51
600.806	24026.6
601.002	23842.28
601.198	23315.95
601.395	23395.82
601.591	23485.93
601.787	23379.44
601.984	23205.36
602.18	23574
602.376	23352.82
602.572	23092.72
602.769	23244.27
602.965	22771.19
603.161	23014.9
603.357	22562.3
603.553	22513.15
603.75	22871.54
603.946	22597.12
604.142	22316.54
604.338	22371.84
604.534	22476.29
604.73	22377.98
604.926	22205.95
605.122	22406.66
605.318	22461.95
605.514	21927.43
605.71	21743.11
605.906	21984.77
606.102	22048.26
606.298	21681.67
606.494	21773.83
606.69	21591.56
606.886	21798.41
607.082	21321.23
607.278	21517.84
607.474	21397.01
607.67	21349.9
607.866	21112.34
608.062	21296.66
608.257	21302.8
608.453	21055
608.649	21095.96
608.845	21079.57
609.041	20725.27
609.236	20964.89
609.432	20801.05
609.628	20772.38
609.824	20649.5
610.019	20608.54
610.215	20393.5
610.411	20657.69
610.606	20682.27
610.802	20418.08
610.998	20684.31
611.193	20313.63
611.389	20510.24
611.584	20180.51
611.78	20106.79
611.976	20020.77
612.171	19963.43
612.367	20211.23
612.562	20051.49
612.758	19777.06
612.953	19672.62
613.149	19834.41
613.344	19615.27
613.539	19885.61
613.735	19410.48
613.93	19689
614.126	19807.78
614.321	19789.35
614.517	19629.61
614.712	19095.09
614.907	18927.16
615.103	19459.63
615.298	19211.82
615.493	19090.99
615.688	19105.33
615.884	19582.51
616.079	18878.01
616.274	19197.49
616.47	19117.62
616.665	19019.32
616.86	18685.5
617.055	18740.79
617.25	18857.53
617.445	19056.18
617.641	18384.44
617.836	18701.88
618.031	18572.86
618.226	18656.82
618.421	18523.71
618.616	18734.65
618.811	17903.17
619.006	18570.81
619.201	17927.75
619.396	17923.65
619.591	17851.97
619.786	17935.94
619.981	17587.78
620.176	17794.63
620.371	17628.74
620.566	17616.46
620.761	17557.07
620.956	17569.35
621.151	17405.52
621.346	17264.21
621.541	17213.01
621.735	17028.69
621.93	16934.48
622.125	16803.41
622.32	16791.13
622.515	16924.24
622.709	16737.88
622.904	16528.99
623.099	16428.63
623.294	16635.48
623.488	16117.34
623.683	16289.37
623.878	16236.13
624.072	16201.31
624.267	16232.03
624.462	15996.51
624.656	15865.44
624.851	16010.85
625.046	15638.12
625.24	15750.76
625.435	15281.77
625.629	15335.02
625.824	15148.65
626.018	15167.09
626.213	14988.91
626.407	15242.86
626.602	14917.23
626.796	14978.67
626.991	14816.88
627.185	14870.13
627.38	14708.34
627.574	14745.2
627.768	14419.58
627.963	14347.9
628.157	14278.27
628.352	14351.99
628.546	13885.06
628.74	14171.77
628.935	14106.24
629.129	14085.76
629.323	13895.3
629.517	14093.95
629.712	13864.58
629.906	13870.72
630.1	13448.84
630.294	13487.75
630.489	13483.66
630.683	13493.9
630.877	13082.25
631.071	13207.18
631.265	13459.08
631.459	13299.34
631.653	13147.79
631.848	13049.49
632.042	13014.67
632.236	12918.42
632.43	12969.62
632.624	12912.27
632.818	12709.52
633.012	12637.84
633.206	12535.45
633.4	12437.14
633.594	12404.38
633.788	12396.18
633.982	12359.32
634.176	12281.5
634.369	12195.48
634.563	12027.55
634.757	12103.32
634.951	12052.13
635.145	12009.12
635.339	12043.93
635.533	11943.58
635.726	11746.98
635.92	11638.44
636.114	11679.4
636.308	11413.16
636.501	11341.48
636.695	11447.97
636.889	11388.58
637.083	11378.34
637.276	11237.03
637.47	11265.71
637.664	11038.38
637.857	11194.03
638.051	10923.69
638.244	11038.38
638.438	10956.46
638.632	10852.02
638.825	10766
639.019	10686.13
639.212	10692.27
639.406	10591.92
639.599	10534.58
639.793	10626.74
639.986	10360.5
640.18	10362.55
640.373	10421.94
640.567	10241.72
640.76	10147.51
640.954	9875.13
641.147	10008.25
641.34	9909.95
641.534	10053.31
641.727	9868.99
641.92	9950.91
642.114	9764.54
642.307	9848.51
642.5	9656
642.694	9531.08
642.887	9574.08
643.08	9582.28
643.273	9424.58
643.467	9549.51
643.66	9209.54
643.853	9199.3
644.046	9199.3
644.239	9205.45
644.432	8963.79
644.626	9068.23
644.819	8906.45
645.012	9096.91
645.205	9053.9
645.398	8828.62
645.591	8687.31
645.784	8754.9
645.977	8967.88
646.17	8670.93
646.363	8455.89
646.556	8408.79
646.749	8492.76
646.942	8457.94
647.135	8578.77
647.328	8373.97
647.521	8382.17
647.714	8150.74
647.907	7954.14
648.099	8046.3
648.292	7980.76
648.485	8029.91
648.678	7952.09
648.871	7884.51
649.064	8068.83
649.256	7931.61
649.449	7884.51
649.642	7667.42
649.835	7636.7
650.027	7519.97
650.22	7616.23
650.413	7558.88
650.605	7415.52
650.798	7716.58
650.991	7329.51
651.183	7425.76
651.376	7317.22
651.568	7196.39
651.761	7247.59
651.954	7112.42
652.146	7141.1
652.339	7184.1
652.531	6985.45
652.724	7030.51
652.916	6854.38
653.109	7038.7
653.301	6870.76
653.494	6934.25
653.686	6846.19
653.879	6860.52
654.071	6786.8
654.263	6698.74
654.456	6713.07
654.648	6878.96
654.84	6475.51
655.033	6596.34
655.225	6543.09
655.417	6536.95
655.61	6508.27
655.802	6520.56
655.994	6266.61
656.186	6358.77
656.379	6192.89
656.571	6409.97
656.763	6409.97
656.955	6080.25
657.148	6379.25
657.34	6172.41
657.532	6129.4
657.724	5988.09
657.916	6057.72
658.108	5904.12
658.3	5863.16
658.492	5973.75
658.684	5744.38
658.876	5883.64
659.068	5951.23
659.26	5719.81
659.452	5760.77
659.644	5682.94
659.836	5662.46
660.028	5613.31
660.22	5695.23
660.412	5492.48
660.604	5441.28
660.796	5562.11
660.988	5506.82
661.18	5379.84
661.372	5316.36
661.563	5437.19
661.755	5256.97
661.947	5158.66
662.139	5371.65
662.331	5281.54
662.522	5183.24
662.714	5123.85
662.906	5025.54
663.097	5132.04
663.289	5185.29
663.481	5070.6
663.673	5033.74
663.864	4857.61
664.056	4830.99
664.247	4935.43
664.439	4957.96
664.631	4845.32
664.822	4962.06
665.014	4681.49
665.205	4900.62
665.397	4742.92
665.588	4843.28
665.78	4818.7
665.971	4759.31
666.163	4615.95
666.354	4585.23
666.546	4497.17
666.737	4556.56
666.929	4564.75
667.12	4531.98
667.311	4581.14
667.503	4466.45
667.694	4542.22
667.885	4347.67
668.077	4437.78
668.268	4425.49
668.459	4319
668.651	4331.28
668.842	4335.38
669.033	4353.81
669.224	4235.03
669.416	4146.97
669.607	4304.66
669.798	4196.12
669.989	4263.7
670.18	4138.77
670.371	4255.51
670.563	4054.81
670.754	4200.21
670.945	4036.38
671.136	4052.76
671.327	4054.81
671.518	4091.67
671.709	3995.42
671.9	4001.56
672.091	3927.83
672.282	3917.59
672.473	3946.27
672.664	4040.47
672.855	4026.14
673.046	3899.16
673.237	3819.29
673.428	3895.07
673.619	3847.96
673.809	3712.8
674	3796.76
674.191	3813.15
674.382	3733.28
674.573	3811.1
674.764	3817.24
674.954	3694.36
675.145	3727.13
675.336	3659.55
675.527	3655.45
675.717	3630.88
675.908	3540.77
676.099	3602.21
676.289	3704.6
676.48	3594.01
676.671	3485.47
676.861	3577.63
677.052	3542.82
677.243	3577.63
677.433	3581.73
677.624	3589.92
677.814	3641.12
678.005	3596.06
678.195	3452.7
678.386	3563.29
678.576	3501.86
678.767	3448.61
678.957	3464.99
679.148	3536.67
679.338	3450.66
679.529	3442.46
679.719	3354.4
679.909	3579.68
680.1	3483.42
680.29	3421.99
680.481	3295.01
680.671	3419.94
680.861	3370.79
681.052	3338.02
681.242	3303.2
681.432	3370.79
681.622	3344.16
681.813	3335.97
682.003	3419.94
682.193	3305.25
682.383	3319.59
682.573	3315.49
682.764	3176.23
682.954	3239.72
683.144	3370.79
683.334	3352.35
683.524	3331.87
683.714	3317.54
683.904	3194.66
684.094	3274.53
684.284	3249.96
684.474	3165.99
684.664	3340.07
684.854	3299.11
685.044	3252
685.234	3188.52
685.424	3174.18
685.614	3172.13
685.804	3198.76
685.994	3309.35
686.184	3182.37
686.374	3137.32
686.564	3036.97
686.753	3129.13
686.943	3180.32
687.133	3153.7
687.323	3206.95
687.513	3106.6
687.702	3092.26
687.892	3020.58
688.082	2969.38
688.272	3278.63
688.461	3026.73
688.651	3026.73
688.841	2991.91
689.03	3100.45
689.22	3026.73
689.41	3000.1
689.599	3192.61
689.789	2998.06
689.979	2950.95
690.168	3077.93
690.358	2946.86
690.547	3002.15
690.737	3065.64
690.926	3018.54
691.116	3026.73
691.305	3053.35
691.495	3000.1
691.684	3022.63
691.874	3176.23
692.063	2912.04
692.252	3014.44
692.442	2979.62
692.631	3090.21
692.82	2948.9
693.01	2858.79
693.199	2928.42
693.388	2869.03
693.578	3012.39
693.767	2987.82
693.956	2961.19
694.146	2903.85
694.335	3006.25
694.524	2926.38
694.713	3034.92
694.902	2969.38
695.092	2975.53
695.281	2828.07
695.47	3051.3
695.659	2975.53
695.848	2834.22
696.037	3008.3
696.226	2909.99
696.415	2869.03
696.604	2823.98
696.793	2877.23
696.982	2797.35
697.171	3004.2
697.36	2828.07
697.549	2826.03
697.738	2821.93
697.927	2936.62
698.116	2795.31
698.305	3006.25
698.494	2944.81
698.683	2854.7
698.872	2932.52
699.061	2916.14
699.25	2883.37
699.438	2828.07
699.627	2852.65
699.816	2828.07
700.005	2889.51
700.193	2903.85
700.382	2907.94
700.571	2783.02
700.76	2826.03
700.948	2953
701.137	2885.42
701.326	2889.51
701.514	2776.87
701.703	2801.45
701.892	2742.06
702.08	2672.43
702.269	2862.89
702.457	2885.42
702.646	2715.44
702.834	2733.87
703.023	2574.13
703.212	2762.54
703.4	2797.35
703.589	2780.97
703.777	2676.52
703.965	2676.52
704.154	2848.55
704.342	2750.25
704.531	2647.85
704.719	2688.81
704.907	2748.2
705.096	2770.73
705.284	2676.52
705.472	2623.28
705.661	2592.56
705.849	2656.04
706.037	2651.95
706.226	2670.38
706.414	2535.21
706.602	2680.62
706.79	2610.99
706.979	2631.47
707.167	2557.74
707.355	2531.12
707.543	2463.54
707.731	2570.03
707.919	2688.81
708.107	2520.88
708.296	2567.98
708.484	2508.59
708.672	2570.03
708.86	2551.6
709.048	2500.4
709.236	2619.18
709.424	2490.16
709.612	2459.44
709.8	2567.98
709.988	2533.17
710.176	2400.05
710.364	2443.06
710.551	2535.21
710.739	2414.38
710.927	2377.52
711.115	2443.06
711.303	2314.03
711.491	2426.67
711.679	2434.86
711.866	2328.37
712.054	2297.65
712.242	2357.04
712.43	2410.29
712.617	2434.86
712.805	2254.64
712.993	2338.61
713.181	2305.84
713.368	2328.37
713.556	2377.52
713.744	2393.9
713.931	2232.12
714.119	2314.03
714.306	2297.65
714.494	2174.77
714.682	2189.11
714.869	2320.18
715.057	2213.68
715.244	2289.46
715.432	2230.07
715.619	2268.98
715.807	2234.16
715.994	2221.88
716.182	2232.12
716.369	2058.04
716.556	2166.58
716.744	2047.8
716.931	2252.59
717.119	2099
717.306	2142
717.493	2158.39
717.681	2111.29
717.868	2189.11
718.055	2133.81
718.242	2215.73
718.43	2127.67
718.617	2088.76
718.804	2029.37
718.991	2101.05
719.179	2080.57
719.366	1990.45
719.553	2017.08
719.74	2049.85
719.927	1926.97
720.114	2033.46
720.301	2006.84
720.488	2002.74
720.676	1994.55
720.863	1914.68
721.05	2084.66
721.237	2047.8
721.424	2021.17
721.611	1947.45
721.798	1898.3
721.985	1910.58
722.172	2012.98
722.358	1982.26
722.545	1941.3
722.732	1886.01
722.919	1898.3
723.106	1877.82
723.293	1845.05
723.48	1967.93
723.667	1849.15
723.853	1910.58
724.04	1929.02
724.227	1906.49
724.414	1929.02
724.6	1918.78
724.787	1779.51
724.974	1802.04
725.161	1883.96
725.347	1711.93
725.534	1824.57
725.72	1779.51
725.907	1808.19
726.094	1865.53
726.28	1853.24
726.467	1904.44
726.653	1806.14
726.84	1722.17
727.027	1840.95
727.213	1744.7
727.4	1720.12
727.586	1726.27
727.773	1705.79
727.959	1734.46
728.145	1726.27
728.332	1750.84
728.518	1806.14
728.705	1775.42
728.891	1736.51
729.077	1828.67
729.264	1668.92
729.45	1718.08
729.636	1632.06
729.823	1591.1
730.009	1578.81
730.195	1568.57
730.382	1693.5
730.568	1683.26
730.754	1566.53
730.94	1675.07
731.126	1632.06
731.313	1619.77
731.499	1621.82
731.685	1673.02
731.871	1697.6
732.057	1664.83
732.243	1482.56
732.429	1656.64
732.615	1619.77
732.801	1595.2
732.987	1601.34
733.173	1556.29
733.359	1464.13
733.545	1394.5
733.731	1460.03
733.917	1519.42
734.103	1525.57
734.289	1562.43
734.475	1587.01
734.661	1466.17
734.847	1554.24
735.033	1548.09
735.219	1517.37
735.404	1656.64
735.59	1513.28
735.776	1531.71
735.962	1548.09
736.148	1564.48
736.333	1511.23
736.519	1470.27
736.705	1437.5
736.89	1517.37
737.076	1486.65
737.262	1443.65
737.447	1427.26
737.633	1419.07
737.819	1404.74
738.004	1455.94
738.19	1554.24
738.375	1470.27
738.561	1468.22
738.747	1435.46
738.932	1374.02
739.118	1513.28
739.303	1337.15
739.489	1402.69
739.674	1419.07
739.859	1437.5
740.045	1382.21
740.23	1355.58
740.416	1257.28
740.601	1345.34
740.786	1382.21
740.972	1371.97
741.157	1345.34
741.342	1269.57
741.528	1421.12
741.713	1345.34
741.898	1326.91
742.084	1263.43
742.269	1367.87
742.454	1283.91
742.639	1324.87
742.824	1238.85
743.01	1324.87
743.195	1314.63
743.38	1275.71
743.565	1163.08
743.75	1263.43
743.935	1277.76
744.12	1220.42
744.305	1320.77
744.49	1249.09
744.675	1240.9
744.86	1191.75
745.045	1181.51
745.23	1240.9
745.415	1181.51
745.6	1169.22
745.785	1175.36
745.97	1199.94
746.155	1199.94
746.34	1156.93
746.525	1173.32
746.71	1083.2
746.895	1204.03
747.079	1083.2
747.264	1124.16
747.449	1134.4
747.634	1177.41
747.819	1107.78
748.003	1136.45
748.188	1089.35
748.373	1146.69
748.557	1158.98
748.742	1042.25
748.927	1001.29
749.111	1001.29
749.296	1087.3
749.481	1060.68
749.665	997.19
749.85	1042.25
750.034	1032.01
750.219	982.85
750.404	976.71
750.588	1036.1
750.773	1038.15
750.957	941.89
751.141	984.9
751.326	991.05
751.51	948.04
751.695	993.09
751.879	976.71
752.064	931.66
752.248	921.42
752.432	960.33
752.617	911.18
752.801	943.94
752.985	878.41
753.17	898.89
753.354	925.51
753.538	952.13
753.722	937.8
753.907	839.5
754.091	872.26
754.275	896.84
754.459	894.79
754.643	923.46
754.828	810.82
755.012	900.94
755.196	872.26
755.38	821.06
755.564	821.06
755.748	929.61
755.932	806.73
756.116	790.35
756.3	821.06
756.484	849.74
756.668	796.49
756.852	812.87
757.036	780.11
757.22	788.3
757.404	831.3
757.588	821.06
757.772	669.52
757.956	855.88
758.14	776.01
758.323	769.87
758.507	773.96
758.691	722.76
758.875	714.57
759.059	679.75
759.242	730.95
759.426	778.06
759.61	698.19
759.794	792.39
759.977	704.33
760.161	722.76
760.345	816.97
760.528	763.72
760.712	751.43
760.895	773.96
761.079	718.67
761.263	675.66
761.446	700.23
761.63	618.32
761.813	675.66
761.997	673.61
762.18	665.42
762.364	714.57
762.547	651.08
762.731	646.99
762.914	757.58
763.098	628.56
763.281	679.75
763.464	644.94
763.648	687.95
763.831	669.52
764.015	685.9
764.198	642.89
764.381	657.23
764.564	646.99
764.748	655.18
764.931	618.32
765.114	534.35
765.297	737.1
765.481	663.37
765.664	585.55
765.847	642.89
766.03	597.84
766.213	653.13
766.397	646.99
766.58	636.75
766.763	575.31
766.946	612.17
767.129	587.6
767.312	601.93
767.495	636.75
767.678	595.79
767.861	608.08
768.044	616.27
768.227	599.88
768.41	560.97
768.593	675.66
768.776	657.23
768.959	595.79
769.142	624.46
769.324	542.54
769.507	628.56
769.69	642.89
769.873	587.6
770.056	614.22
770.239	565.07
770.421	571.21
770.604	595.79
770.787	538.45
770.97	522.06
771.152	556.88
771.335	595.79
771.518	542.54
771.7	501.58
771.883	560.97
772.066	581.45
772.248	560.97
772.431	552.78
772.613	507.73
772.796	538.45
772.978	474.96
773.161	552.78
773.343	620.36
773.526	528.21
773.708	491.34
773.891	454.48
774.073	470.86
774.256	526.16
774.438	497.49
774.621	489.29
774.803	495.44
774.985	511.82
775.168	436.05
775.35	540.49
775.532	452.43
775.715	536.4
775.897	520.01
776.079	511.82
776.261	526.16
776.444	505.68
776.626	436.05
776.808	491.34
776.99	411.47
777.173	460.62
777.355	425.81
777.537	429.9
777.719	429.9
777.901	477.01
778.083	440.14
778.265	405.33
778.447	431.95
778.629	368.46
778.811	468.81
778.993	466.77
779.175	477.01
779.357	460.62
779.539	415.57
779.721	446.29
779.903	388.94
780.085	481.1
780.267	472.91
780.449	376.66
780.631	356.18
780.812	397.14
780.994	372.56
781.176	386.9
781.358	362.32
781.54	380.75
781.721	378.7
781.903	364.37
782.085	325.46
782.267	413.52
782.448	319.31
782.63	419.66
782.812	304.98
782.993	315.22
783.175	444.24
783.357	296.78
783.538	272.21
783.72	317.26
783.901	331.6
784.083	298.83
784.264	378.7
784.446	292.69
784.627	290.64
784.809	372.56
784.99	327.5
785.172	298.83
785.353	309.07
785.535	378.7
785.716	356.18
785.897	436.05
786.079	352.08
786.26	378.7
786.441	347.98
786.623	270.16
786.804	276.31
786.985	288.59
787.167	337.74
787.348	268.11
787.529	304.98
787.71	296.78
787.891	313.17
788.073	300.88
788.254	323.41
788.435	296.78
788.616	347.98
788.797	257.87
788.978	259.92
789.159	307.02
789.34	329.55
789.522	251.73
789.703	321.36
789.884	272.21
790.065	364.37
790.246	241.49
790.427	257.87
790.607	247.63
790.788	233.3
790.969	233.3
791.15	175.95
791.331	218.96
791.512	251.73
791.693	178
791.874	259.92
792.054	337.74
792.235	231.25
792.416	249.68
792.597	288.59
792.778	233.3
792.958	354.13
793.139	186.19
793.32	229.2
793.5	165.71
793.681	266.07
793.862	194.39
794.042	245.59
794.223	216.91
794.404	233.3
794.584	214.87
794.765	257.87
794.945	190.29
795.126	161.62
795.306	311.12
795.487	173.91
795.667	208.72
795.848	223.06
796.028	157.52
796.209	198.48
796.389	231.25
796.57	225.11
796.75	235.35
796.93	253.78
797.111	186.19
797.291	218.96
797.471	206.67
797.652	198.48
797.832	163.67
798.012	235.35
798.192	204.63
798.373	145.24
798.553	157.52
798.733	141.14
798.913	223.06
799.093	171.86
799.274	200.53
799.454	120.66
799.634	178
799.814	218.96
799.994	165.71
800.174	155.47
800.354	116.56
800.534	210.77
800.714	157.52
800.894	206.67
801.074	167.76
801.254	171.86
801.434	175.95
801.614	233.3
801.794	135
801.974	444.24
802.154	157.52
802.334	159.57
802.514	190.29
802.693	167.76
802.873	147.28
803.053	223.06
803.233	227.15
803.413	124.76
803.592	173.91
803.772	124.76
803.952	132.95
804.131	214.87
804.311	128.85
804.491	204.63
804.67	137.04
804.85	130.9
805.03	157.52
805.209	173.91
805.389	57.17
805.568	79.7
805.748	83.8
805.928	149.33
806.107	159.57
806.287	149.33
806.466	149.33
806.646	198.48
806.825	110.42
807.004	165.71
807.184	169.81
807.363	137.04
807.543	96.08
807.722	124.76
807.901	132.95
808.081	75.6
808.26	139.09
808.439	190.29
808.619	128.85
808.798	44.88
808.977	96.08
809.156	163.67
809.336	112.47
809.515	171.86
809.694	155.47
809.873	139.09
810.052	147.28
810.231	163.67
810.411	36.69
810.59	169.81
810.769	94.04
810.948	175.95
811.127	169.81
811.306	108.37
811.485	124.76
811.664	184.15
811.843	124.76
812.022	190.29
812.201	141.14
812.38	100.18
812.559	100.18
812.737	108.37
812.916	59.22
813.095	122.71
813.274	116.56
813.453	46.93
813.632	77.65
813.811	157.52
813.989	149.33
814.168	67.41
814.347	89.94
814.526	28.5
814.704	143.19
814.883	122.71
815.062	98.13
815.24	132.95
815.419	169.81
815.598	159.57
815.776	83.8
815.955	143.19
816.133	104.28
816.312	124.76
816.49	108.37
816.669	120.66
816.847	124.76
817.026	120.66
817.204	75.6
817.383	100.18
817.561	20.31
817.74	51.03
817.918	118.61
818.097	83.8
818.275	24.4
818.453	130.9
818.632	91.99
818.81	59.22
818.988	132.95
819.167	87.89
819.345	75.6
819.523	122.71
819.701	36.69
819.879	165.71
820.058	102.23
820.236	77.65
820.414	124.76
820.592	116.56
820.77	59.22
820.948	112.47
821.127	87.89
821.305	139.09
821.483	89.94
821.661	57.17
821.839	75.6
822.017	167.76
822.195	118.61
822.373	151.38
822.551	65.36
822.729	190.29
822.907	75.6
823.085	79.7
823.262	102.23
823.44	165.71
823.618	42.84
823.796	98.13
823.974	122.71
824.152	34.64
824.329	46.93
824.507	118.61
824.685	38.74
824.863	28.5
825.04	71.51
825.218	108.37
825.396	42.84
825.574	83.8
825.751	102.23
825.929	98.13
826.107	-0.17
826.284	89.94
826.462	20.31
826.639	89.94
826.817	118.61
826.994	-8.36
827.172	126.8
827.349	120.66
827.527	67.41
827.704	61.27
827.882	132.95
828.059	94.04
828.237	5.97
828.414	112.47
828.591	32.6
828.769	94.04
828.946	48.98
829.124	38.74
829.301	59.22
829.478	-16.55
829.655	48.98
829.833	63.32
830.01	83.8
830.187	104.28
830.364	44.88
830.542	157.52
830.719	124.76
830.896	46.93
831.073	124.76
831.25	91.99
831.427	77.65
831.604	85.84
831.782	106.32
831.959	61.27
832.136	59.22
832.313	106.32
832.49	89.94
832.667	108.37
832.844	96.08
833.021	51.03
833.198	94.04
833.374	100.18
833.551	46.93
833.728	26.45
833.905	46.93
834.082	57.17
834.259	67.41
834.436	53.08
834.612	18.26
834.789	38.74
834.966	34.64
835.143	63.32
835.319	51.03
835.496	44.88
835.673	30.55
835.85	89.94
836.026	116.56
836.203	46.93
836.38	10.07
836.556	132.95
836.733	-6.31
836.909	61.27
837.086	67.41
837.262	83.8
837.439	22.36
837.616	53.08
837.792	67.41
837.968	65.36
838.145	-28.84
838.321	-20.65
838.498	116.56
838.674	91.99
838.851	40.79
839.027	69.46
839.203	51.03
839.38	83.8
839.556	77.65
839.732	85.84
839.909	53.08
840.085	-32.94
840.261	28.5
840.437	44.88
840.614	-6.31
840.79	36.69
840.966	30.55
841.142	61.27
841.318	-2.22
841.494	48.98
841.671	40.79
841.847	12.12
842.023	-22.7
842.199	12.12
842.375	26.45
842.551	36.69
842.727	18.26
842.903	83.8
843.079	5.97
843.255	100.18
843.431	44.88
843.607	-2.22
843.783	-24.75
843.959	69.46
844.134	5.97
844.31	36.69
844.486	-110.76
844.662	87.89
844.838	44.88
845.013	57.17
845.189	85.84
845.365	63.32
845.541	46.93
845.716	61.27
845.892	22.36
846.068	100.18
846.244	28.5
846.419	83.8
846.595	79.7
846.77	85.84
846.946	71.51
847.122	83.8
847.297	14.17
847.473	77.65
847.648	61.27
847.824	120.66
847.999	81.75
848.175	102.23
848.35	44.88
848.526	10.07
848.701	42.84
848.876	32.6
849.052	59.22
849.227	-26.79
849.403	130.9
849.578	-47.27
849.753	63.32
849.929	65.36
850.104	-4.27
850.279	48.98
850.454	30.55
850.63	42.84
850.805	-2.22
850.98	28.5
851.155	28.5
851.33	116.56
851.505	-2.22
851.681	48.98
851.856	32.6
852.031	14.17
852.206	5.97
852.381	-43.18
852.556	28.5
852.731	48.98
852.906	71.51
853.081	-10.41
853.256	22.36
853.431	18.26
853.606	-20.65
853.781	59.22
853.956	38.74
854.131	10.07
854.305	-2.22
854.48	73.56
854.655	81.75
854.83	63.32
855.005	79.7
855.18	-14.51
855.354	16.21
855.529	63.32
855.704	-18.6
855.879	69.46
856.053	-47.27
856.228	77.65
856.403	10.07
856.577	12.12
856.752	40.79
856.926	89.94
857.101	42.84
857.276	85.84
857.45	96.08
857.625	42.84
857.799	12.12
857.974	-8.36
858.148	-110.76
858.323	10.07
858.497	38.74
858.672	61.27
858.846	26.45
859.02	34.64
859.195	-28.84
859.369	81.75
859.543	16.21
859.718	143.19
859.892	63.32
860.066	24.4
860.241	94.04
860.415	18.26
860.589	46.93
860.763	63.32
860.938	-16.55
861.112	51.03
861.286	34.64
861.46	20.31
861.634	20.31
861.808	51.03
861.982	85.84
862.157	42.84
862.331	51.03
862.505	42.84
862.679	-28.84
862.853	-6.31
863.027	42.84
863.201	10.07
863.375	65.36
863.549	14.17
863.722	-2.22
863.896	96.08
864.07	-53.42
864.244	1.88
864.418	-14.51
864.592	44.88
864.766	30.55
864.939	-6.31
865.113	-8.36
865.287	46.93
865.461	57.17
865.634	75.6
865.808	-16.55
865.982	53.08
866.156	-22.7
866.329	-12.46
866.503	-63.66
866.676	81.75
866.85	28.5
867.024	-6.31
867.197	16.21
867.371	53.08
867.544	53.08
867.718	22.36
867.891	94.04
868.065	10.07
868.238	110.42
868.412	77.65
868.585	24.4
868.759	59.22
868.932	67.41
869.105	120.66
869.279	53.08
869.452	51.03
869.625	1.88
869.799	42.84
869.972	-28.84
870.145	59.22
870.319	22.36
870.492	67.41
870.665	10.07
870.838	18.26
871.011	10.07
871.185	51.03
871.358	1.88
871.531	12.12
871.704	3.93
871.877	61.27
872.05	5.97
872.223	16.21
872.396	18.26
872.569	12.12
872.742	-53.42
872.915	5.97
873.088	5.97
873.261	75.6
873.434	14.17
873.607	34.64
873.78	51.03
873.953	3.93
874.126	75.6
874.299	34.64
874.471	53.08
874.644	12.12
874.817	59.22
874.99	1.88
875.163	59.22
875.335	-14.51
875.508	71.51
875.681	67.41
875.853	-47.27
876.026	-6.31
876.199	-22.7
876.371	16.21
876.544	20.31
876.717	-10.41
876.889	34.64
877.062	63.32
877.234	46.93
877.407	-45.23
877.579	8.02
877.752	48.98
877.924	1.88
878.097	10.07
878.269	-2.22
878.442	71.51
878.614	-47.27
878.786	91.99
878.959	18.26
879.131	-57.51
879.303	-20.65
879.476	28.5
879.648	28.5
879.82	-34.99
879.993	22.36
880.165	26.45
880.337	-22.7
880.509	55.12
880.681	10.07
880.854	32.6
881.026	34.64
881.198	16.21
881.37	-30.89
881.542	30.55
881.714	104.28
881.886	44.88
882.058	-45.23
882.23	69.46
882.402	57.17
882.574	34.64
882.746	36.69
882.918	83.8
883.09	44.88
883.262	57.17
883.434	34.64
883.606	46.93
883.778	1.88
883.95	22.36
884.122	8.02
884.293	5.97
884.465	-53.42
884.637	57.17
884.809	-51.37
884.98	14.17
885.152	-12.46
885.324	14.17
885.496	-41.13
885.667	-18.6
885.839	3.93
886.011	-30.89
886.182	-22.7
886.354	8.02
886.525	34.64
886.697	18.26
886.869	-69.8
887.04	34.64
887.212	-6.31
887.383	85.84
887.555	67.41
887.726	59.22
887.897	-24.75
888.069	-6.31
888.24	16.21
888.412	57.17
888.583	-37.03
888.754	14.17
888.926	3.93
889.097	30.55
889.268	-55.47
889.44	-0.17
889.611	69.46
889.782	59.22
889.953	-80.04
890.125	-28.84
890.296	26.45
890.467	-20.65
890.638	-43.18
890.809	38.74
890.98	30.55
891.151	55.12
891.323	87.89
891.494	-30.89
891.665	-47.27
891.836	-20.65
892.007	40.79
892.178	28.5
892.349	65.36
892.52	-14.51
892.691	59.22
892.862	30.55
893.032	-10.41
893.203	-4.27
893.374	32.6
893.545	34.64
893.716	14.17
893.887	-26.79
894.057	46.93
894.228	1.88
894.399	38.74
894.57	-34.99
894.74	22.36
894.911	46.93
895.082	-12.46
895.253	28.5
895.423	-34.99
895.594	42.84
895.764	63.32
895.935	42.84
896.106	-22.7
896.276	44.88
896.447	28.5
896.617	51.03
896.788	32.6
896.958	22.36
897.129	-55.47
897.299	51.03
897.47	12.12
897.64	59.22
897.81	-51.37
897.981	28.5
898.151	-6.31
898.322	18.26
898.492	16.21
898.662	34.64
898.832	-10.41
899.003	38.74
899.173	-14.51
899.343	53.08
899.513	18.26
