Data from USB4F104151__274__14-02-21-159.txt Node

Date: Thu Mar 13 14:02:21 EDT 2025
User: louis
Spectrometer: USB4F10415
Trigger mode: 4
Integration Time (sec): 1.000000E-2
Scans to average: 1
Electric dark correction enabled: true
Nonlinearity correction enabled: false
Boxcar width: 0
XAxis mode: Wavelengths
Number of Pixels in Spectrum: 3648
>>>>>Begin Spectral Data<<<<<
178.204	-46.25
178.424	-46.25
178.644	-46.25
178.864	-44.2
179.084	-56.49
179.304	-15.53
179.524	7
179.744	9.05
179.964	-60.59
180.184	-54.44
180.404	-17.58
180.624	-50.35
180.844	13.14
181.064	27.48
181.283	70.48
181.503	-15.53
181.723	86.87
181.943	0.85
182.163	90.96
182.383	43.86
182.602	66.39
182.822	41.81
183.042	13.14
183.262	68.44
183.482	39.76
183.701	21.33
183.921	37.72
184.141	-64.68
184.361	21.33
184.58	-11.43
184.8	54.1
185.02	68.44
185.239	43.86
185.459	29.52
185.679	21.33
185.898	-3.24
186.118	76.63
186.338	-19.63
186.557	90.96
186.777	2.9
186.997	4.95
187.216	19.29
187.436	86.87
187.655	45.91
187.875	31.57
188.095	-11.43
188.314	113.49
188.534	41.81
188.753	-19.63
188.973	74.58
189.192	76.63
189.412	-15.53
189.631	54.1
189.851	58.2
190.07	31.57
190.29	56.15
190.509	43.86
190.729	76.63
190.948	-23.72
191.168	29.52
191.387	35.67
191.607	-48.3
191.826	93.01
192.045	76.63
192.265	39.76
192.484	-50.35
192.704	60.24
192.923	-54.44
193.142	47.96
193.362	84.82
193.581	-5.29
193.8	54.1
194.02	70.48
194.239	-62.63
194.458	43.86
194.678	131.92
194.897	39.76
195.116	70.48
195.335	-23.72
195.555	27.48
195.774	72.53
195.993	105.3
196.212	68.44
196.432	17.24
196.651	0.85
196.87	21.33
197.089	109.4
197.308	-5.29
197.528	33.62
197.747	15.19
197.966	45.91
198.185	60.24
198.404	7
198.623	54.1
198.842	58.2
199.062	39.76
199.281	33.62
199.5	19.29
199.719	93.01
199.938	7
200.157	62.29
200.376	111.44
200.595	88.92
200.814	19.29
201.033	47.96
201.252	80.72
201.471	29.52
201.69	43.86
201.909	39.76
202.128	17.24
202.347	4.95
202.566	-25.77
202.785	45.91
203.004	54.1
203.223	62.29
203.442	74.58
203.661	-15.53
203.879	-11.43
204.098	150.36
204.317	25.43
204.536	35.67
204.755	90.96
204.974	54.1
205.193	21.33
205.411	86.87
205.63	9.05
205.849	60.24
206.068	60.24
206.287	25.43
206.505	78.68
206.724	27.48
206.943	-5.29
207.162	56.15
207.381	35.67
207.599	41.81
207.818	90.96
208.037	68.44
208.255	80.72
208.474	76.63
208.693	43.86
208.911	52.05
209.13	41.81
209.349	142.16
209.567	62.29
209.786	41.81
210.005	54.1
210.223	41.81
210.442	70.48
210.661	31.57
210.879	31.57
211.098	84.82
211.316	41.81
211.535	31.57
211.753	19.29
211.972	93.01
212.191	15.19
212.409	-1.19
212.628	43.86
212.846	11.09
213.065	74.58
213.283	72.53
213.502	80.72
213.72	68.44
213.938	2.9
214.157	86.87
214.375	21.33
214.594	66.39
214.812	-9.39
215.031	60.24
215.249	29.52
215.467	103.25
215.686	54.1
215.904	84.82
216.122	0.85
216.341	170.83
216.559	21.33
216.778	25.43
216.996	19.29
217.214	4.95
217.432	19.29
217.651	123.73
217.869	-85.16
218.087	133.97
218.306	33.62
218.524	54.1
218.742	7
218.96	35.67
219.179	58.2
219.397	72.53
219.615	58.2
219.833	19.29
220.051	-13.48
220.27	4.95
220.488	86.87
220.706	43.86
220.924	50
221.142	-9.39
221.36	25.43
221.578	35.67
221.796	39.76
222.015	64.34
222.233	37.72
222.451	111.44
222.669	76.63
222.887	60.24
223.105	80.72
223.323	0.85
223.541	-25.77
223.759	11.09
223.977	97.11
224.195	60.24
224.413	15.19
224.631	-11.43
224.849	93.01
225.067	45.91
225.285	93.01
225.503	35.67
225.721	37.72
225.939	41.81
226.157	70.48
226.375	138.07
226.592	-3.24
226.81	43.86
227.028	105.3
227.246	62.29
227.464	72.53
227.682	2.9
227.9	68.44
228.117	50
228.335	68.44
228.553	58.2
228.771	9.05
228.989	70.48
229.206	50
229.424	2.9
229.642	-3.24
229.86	27.48
230.077	39.76
230.295	117.59
230.513	31.57
230.731	78.68
230.948	39.76
231.166	50
231.384	29.52
231.601	41.81
231.819	15.19
232.037	70.48
232.254	101.2
232.472	29.52
232.689	-23.72
232.907	19.29
233.125	56.15
233.342	19.29
233.56	-29.87
233.777	72.53
233.995	93.01
234.213	70.48
234.43	4.95
234.648	74.58
234.865	88.92
235.083	-3.24
235.3	45.91
235.518	60.24
235.735	35.67
235.953	41.81
236.17	93.01
236.388	93.01
236.605	86.87
236.822	105.3
237.04	76.63
237.257	62.29
237.475	31.57
237.692	68.44
237.909	43.86
238.127	60.24
238.344	136.02
238.562	64.34
238.779	54.1
238.996	27.48
239.214	95.06
239.431	33.62
239.648	2.9
239.865	93.01
240.083	88.92
240.3	43.86
240.517	-21.67
240.735	78.68
240.952	7
241.169	43.86
241.386	78.68
241.603	-9.39
241.821	-50.35
242.038	82.77
242.255	45.91
242.472	39.76
242.689	90.96
242.907	15.19
243.124	7
243.341	58.2
243.558	17.24
243.775	-17.58
243.992	39.76
244.209	-1.19
244.426	47.96
244.643	27.48
244.86	70.48
245.078	72.53
245.295	58.2
245.512	47.96
245.729	31.57
245.946	-5.29
246.163	52.05
246.38	64.34
246.597	99.16
246.814	27.48
247.031	60.24
247.248	68.44
247.464	68.44
247.681	19.29
247.898	11.09
248.115	11.09
248.332	-17.58
248.549	66.39
248.766	68.44
248.983	68.44
249.2	47.96
249.417	90.96
249.633	111.44
249.85	13.14
250.067	-29.87
250.284	-1.19
250.501	35.67
250.717	43.86
250.934	-13.48
251.151	76.63
251.368	43.86
251.585	35.67
251.801	27.48
252.018	-5.29
252.235	37.72
252.451	68.44
252.668	76.63
252.885	45.91
253.102	82.77
253.318	105.3
253.535	-1.19
253.752	125.78
253.968	15.19
254.185	52.05
254.401	23.38
254.618	13.14
254.835	60.24
255.051	66.39
255.268	21.33
255.484	7
255.701	52.05
255.917	80.72
256.134	17.24
256.351	74.58
256.567	88.92
256.784	76.63
257	-13.48
257.217	93.01
257.433	52.05
257.65	68.44
257.866	70.48
258.082	95.06
258.299	45.91
258.515	27.48
258.732	35.67
258.948	109.4
259.165	84.82
259.381	37.72
259.597	-44.2
259.814	27.48
260.03	54.1
260.246	2.9
260.463	-9.39
260.679	2.9
260.895	-29.87
261.112	54.1
261.328	58.2
261.544	47.96
261.761	133.97
261.977	-17.58
262.193	60.24
262.409	21.33
262.626	31.57
262.842	78.68
263.058	31.57
263.274	78.68
263.49	50
263.707	54.1
263.923	64.34
264.139	43.86
264.355	17.24
264.571	37.72
264.787	29.52
265.004	29.52
265.22	9.05
265.436	45.91
265.652	2.9
265.868	39.76
266.084	64.34
266.3	129.88
266.516	-46.25
266.732	64.34
266.948	39.76
267.164	84.82
267.38	29.52
267.596	66.39
267.812	101.2
268.028	54.1
268.244	47.96
268.46	74.58
268.676	11.09
268.892	45.91
269.108	74.58
269.324	70.48
269.54	35.67
269.756	52.05
269.972	80.72
270.188	-21.67
270.403	33.62
270.619	107.35
270.835	37.72
271.051	76.63
271.267	19.29
271.483	47.96
271.698	103.25
271.914	15.19
272.13	19.29
272.346	4.95
272.562	60.24
272.777	111.44
272.993	37.72
273.209	0.85
273.425	72.53
273.64	21.33
273.856	84.82
274.072	35.67
274.287	88.92
274.503	17.24
274.719	39.76
274.934	54.1
275.15	54.1
275.366	-36.01
275.581	-13.48
275.797	56.15
276.012	4.95
276.228	19.29
276.444	90.96
276.659	111.44
276.875	21.33
277.09	80.72
277.306	2.9
277.521	78.68
277.737	-33.96
277.952	52.05
278.168	101.2
278.383	72.53
278.599	27.48
278.814	109.4
279.03	47.96
279.245	64.34
279.461	-36.01
279.676	52.05
279.892	95.06
280.107	17.24
280.322	-9.39
280.538	45.91
280.753	21.33
280.969	27.48
281.184	37.72
281.399	-19.63
281.615	2.9
281.83	56.15
282.045	90.96
282.26	21.33
282.476	27.48
282.691	97.11
282.906	99.16
283.122	47.96
283.337	15.19
283.552	90.96
283.767	31.57
283.983	70.48
284.198	74.58
284.413	-52.39
284.628	54.1
284.843	101.2
285.058	64.34
285.274	41.81
285.489	31.57
285.704	56.15
285.919	41.81
286.134	35.67
286.349	15.19
286.564	86.87
286.779	86.87
286.995	101.2
287.21	0.85
287.425	17.24
287.64	78.68
287.855	35.67
288.07	21.33
288.285	125.78
288.5	-21.67
288.715	54.1
288.93	72.53
289.145	76.63
289.36	19.29
289.575	138.07
289.79	103.25
290.004	13.14
290.219	54.1
290.434	37.72
290.649	-9.39
290.864	27.48
291.079	68.44
291.294	103.25
291.509	-5.29
291.724	11.09
291.938	-1.19
292.153	7
292.368	52.05
292.583	115.54
292.798	60.24
293.012	23.38
293.227	11.09
293.442	45.91
293.657	39.76
293.871	29.52
294.086	138.07
294.301	70.48
294.516	31.57
294.73	82.77
294.945	15.19
295.16	64.34
295.374	70.48
295.589	93.01
295.804	21.33
296.018	27.48
296.233	136.02
296.447	27.48
296.662	60.24
296.877	93.01
297.091	93.01
297.306	52.05
297.52	52.05
297.735	35.67
297.949	64.34
298.164	50
298.378	60.24
298.593	105.3
298.807	56.15
299.022	103.25
299.236	74.58
299.451	17.24
299.665	29.52
299.88	80.72
300.094	58.2
300.309	105.3
300.523	41.81
300.737	29.52
300.952	41.81
301.166	41.81
301.381	-25.77
301.595	47.96
301.809	62.29
302.024	-29.87
302.238	60.24
302.452	56.15
302.667	68.44
302.881	95.06
303.095	13.14
303.309	13.14
303.524	7
303.738	103.25
303.952	119.64
304.166	140.12
304.381	29.52
304.595	76.63
304.809	43.86
305.023	19.29
305.237	43.86
305.452	35.67
305.666	95.06
305.88	60.24
306.094	50
306.308	101.2
306.522	70.48
306.736	113.49
306.95	68.44
307.164	80.72
307.379	-40.11
307.593	95.06
307.807	33.62
308.021	103.25
308.235	97.11
308.449	-29.87
308.663	37.72
308.877	105.3
309.091	9.05
309.305	37.72
309.519	84.82
309.733	68.44
309.947	7
310.161	80.72
310.374	84.82
310.588	31.57
310.802	95.06
311.016	-27.82
311.23	-15.53
311.444	80.72
311.658	13.14
311.872	27.48
312.085	70.48
312.299	152.4
312.513	27.48
312.727	15.19
312.941	43.86
313.154	95.06
313.368	64.34
313.582	62.29
313.796	68.44
314.009	78.68
314.223	78.68
314.437	17.24
314.651	27.48
314.864	54.1
315.078	78.68
315.292	66.39
315.505	33.62
315.719	136.02
315.933	60.24
316.146	58.2
316.36	93.01
316.573	93.01
316.787	52.05
317.001	93.01
317.214	43.86
317.428	11.09
317.641	52.05
317.855	62.29
318.068	80.72
318.282	52.05
318.495	107.35
318.709	117.59
318.922	90.96
319.136	93.01
319.349	101.2
319.563	31.57
319.776	62.29
319.99	80.72
320.203	60.24
320.417	35.67
320.63	9.05
320.843	37.72
321.057	27.48
321.27	56.15
321.483	64.34
321.697	88.92
321.91	39.76
322.124	76.63
322.337	47.96
322.55	68.44
322.763	86.87
322.977	60.24
323.19	52.05
323.403	70.48
323.617	56.15
323.83	76.63
324.043	-7.34
324.256	35.67
324.469	80.72
324.683	101.2
324.896	43.86
325.109	68.44
325.322	76.63
325.535	37.72
325.748	131.92
325.962	84.82
326.175	35.67
326.388	52.05
326.601	70.48
326.814	72.53
327.027	39.76
327.24	164.69
327.453	47.96
327.666	86.87
327.879	43.86
328.092	131.92
328.305	35.67
328.518	68.44
328.731	35.67
328.944	95.06
329.157	64.34
329.37	78.68
329.583	109.4
329.796	97.11
330.009	78.68
330.222	80.72
330.435	68.44
330.648	68.44
330.861	111.44
331.073	95.06
331.286	64.34
331.499	31.57
331.712	29.52
331.925	74.58
332.138	70.48
332.35	88.92
332.563	27.48
332.776	66.39
332.989	37.72
333.202	58.2
333.414	19.29
333.627	-7.34
333.84	84.82
334.053	47.96
334.265	45.91
334.478	76.63
334.691	142.16
334.903	82.77
335.116	101.2
335.329	-27.82
335.541	109.4
335.754	13.14
335.966	35.67
336.179	95.06
336.392	27.48
336.604	70.48
336.817	15.19
337.029	117.59
337.242	27.48
337.454	-3.24
337.667	15.19
337.88	56.15
338.092	72.53
338.305	70.48
338.517	29.52
338.729	47.96
338.942	103.25
339.154	68.44
339.367	50
339.579	62.29
339.792	66.39
340.004	68.44
340.217	82.77
340.429	39.76
340.641	64.34
340.854	88.92
341.066	54.1
341.278	93.01
341.491	117.59
341.703	86.87
341.915	82.77
342.128	95.06
342.34	39.76
342.552	60.24
342.764	97.11
342.977	56.15
343.189	88.92
343.401	15.19
343.613	84.82
343.826	97.11
344.038	45.91
344.25	27.48
344.462	9.05
344.674	72.53
344.886	7
345.099	82.77
345.311	45.91
345.523	84.82
345.735	35.67
345.947	97.11
346.159	103.25
346.371	70.48
346.583	23.38
346.795	4.95
347.007	82.77
347.219	93.01
347.431	60.24
347.643	13.14
347.855	2.9
348.067	62.29
348.279	21.33
348.491	78.68
348.703	-3.24
348.915	58.2
349.127	90.96
349.339	84.82
349.551	43.86
349.763	119.64
349.975	95.06
350.187	86.87
350.399	37.72
350.61	52.05
350.822	80.72
351.034	119.64
351.246	31.57
351.458	117.59
351.669	52.05
351.881	172.88
352.093	90.96
352.305	19.29
352.517	80.72
352.728	-13.48
352.94	27.48
353.152	76.63
353.363	43.86
353.575	82.77
353.787	33.62
353.999	37.72
354.21	-5.29
354.422	93.01
354.633	39.76
354.845	62.29
355.057	-42.15
355.268	-50.35
355.48	74.58
355.692	64.34
355.903	-29.87
356.115	-27.82
356.326	66.39
356.538	95.06
356.749	78.68
356.961	97.11
357.172	64.34
357.384	60.24
357.595	62.29
357.807	68.44
358.018	35.67
358.23	80.72
358.441	47.96
358.653	111.44
358.864	80.72
359.075	31.57
359.287	101.2
359.498	97.11
359.709	90.96
359.921	52.05
360.132	43.86
360.344	35.67
360.555	74.58
360.766	103.25
360.977	45.91
361.189	74.58
361.4	4.95
361.611	150.36
361.823	111.44
362.034	58.2
362.245	37.72
362.456	52.05
362.667	9.05
362.879	54.1
363.09	84.82
363.301	-3.24
363.512	97.11
363.723	41.81
363.935	43.86
364.146	29.52
364.357	60.24
364.568	93.01
364.779	47.96
364.99	70.48
365.201	125.78
365.412	47.96
365.623	37.72
365.834	150.36
366.045	127.83
366.256	111.44
366.467	152.4
366.678	103.25
366.889	-3.24
367.1	103.25
367.311	68.44
367.522	33.62
367.733	97.11
367.944	58.2
368.155	17.24
368.366	47.96
368.577	33.62
368.788	54.1
368.999	52.05
369.209	133.97
369.42	50
369.631	27.48
369.842	29.52
370.053	123.73
370.264	113.49
370.474	95.06
370.685	27.48
370.896	162.64
371.107	109.4
371.317	84.82
371.528	64.34
371.739	99.16
371.95	84.82
372.16	84.82
372.371	43.86
372.582	4.95
372.792	11.09
373.003	93.01
373.214	140.12
373.424	97.11
373.635	4.95
373.846	129.88
374.056	76.63
374.267	52.05
374.477	37.72
374.688	80.72
374.898	82.77
375.109	131.92
375.319	-27.82
375.53	25.43
375.74	39.76
375.951	52.05
376.161	101.2
376.372	23.38
376.582	50
376.793	109.4
377.003	95.06
377.214	56.15
377.424	164.69
377.635	76.63
377.845	103.25
378.055	97.11
378.266	97.11
378.476	78.68
378.686	60.24
378.897	115.54
379.107	66.39
379.317	84.82
379.528	76.63
379.738	27.48
379.948	60.24
380.158	152.4
380.369	76.63
380.579	58.2
380.789	60.24
380.999	29.52
381.21	15.19
381.42	140.12
381.63	-31.91
381.84	97.11
382.05	95.06
382.261	27.48
382.471	54.1
382.681	54.1
382.891	131.92
383.101	52.05
383.311	52.05
383.521	93.01
383.731	93.01
383.941	138.07
384.151	84.82
384.361	113.49
384.571	47.96
384.781	103.25
384.991	82.77
385.201	68.44
385.411	88.92
385.621	123.73
385.831	109.4
386.041	45.91
386.251	62.29
386.461	76.63
386.671	115.54
386.881	15.19
387.091	117.59
387.301	72.53
387.511	52.05
387.72	50
387.93	97.11
388.14	43.86
388.35	27.48
388.56	129.88
388.769	27.48
388.979	117.59
389.189	78.68
389.399	142.16
389.609	84.82
389.818	56.15
390.028	23.38
390.238	33.62
390.447	11.09
390.657	119.64
390.867	78.68
391.076	27.48
391.286	80.72
391.496	144.21
391.705	60.24
391.915	109.4
392.125	43.86
392.334	56.15
392.544	158.55
392.753	78.68
392.963	60.24
393.172	113.49
393.382	146.26
393.591	47.96
393.801	39.76
394.01	133.97
394.22	138.07
394.429	52.05
394.639	60.24
394.848	138.07
395.058	62.29
395.267	78.68
395.477	101.2
395.686	101.2
395.895	166.74
396.105	158.55
396.314	90.96
396.524	150.36
396.733	99.16
396.942	133.97
397.152	82.77
397.361	125.78
397.57	109.4
397.78	101.2
397.989	64.34
398.198	166.74
398.407	109.4
398.617	156.5
398.826	148.31
399.035	172.88
399.244	158.55
399.453	144.21
399.663	140.12
399.872	129.88
400.081	111.44
400.29	193.36
400.499	129.88
400.708	168.79
400.917	111.44
401.127	127.83
401.336	121.68
401.545	113.49
401.754	174.93
401.963	144.21
402.172	80.72
402.381	97.11
402.59	179.03
402.799	109.4
403.008	146.26
403.217	133.97
403.426	117.59
403.635	158.55
403.844	133.97
404.053	195.41
404.262	125.78
404.471	174.93
404.68	197.46
404.888	191.31
405.097	217.94
405.306	242.51
405.515	191.31
405.724	226.13
405.933	215.89
406.142	181.07
406.35	248.66
406.559	265.04
406.768	269.14
406.977	246.61
407.185	230.23
407.394	226.13
407.603	265.04
407.812	277.33
408.02	267.09
408.229	273.23
408.438	256.85
408.646	312.14
408.855	330.58
409.064	283.47
409.272	297.81
409.481	256.85
409.69	330.58
409.898	406.35
410.107	355.15
410.315	445.26
410.524	314.19
410.733	369.49
410.941	346.96
411.15	404.3
411.358	443.21
411.567	353.1
411.775	480.08
411.984	480.08
412.192	562
412.401	490.32
412.609	541.52
412.818	504.65
413.026	551.76
413.234	506.7
413.443	559.95
413.651	529.23
413.86	602.96
414.068	699.21
414.276	672.59
414.485	615.24
414.693	686.92
414.901	762.7
415.11	744.27
415.318	774.99
415.526	777.03
415.734	801.61
415.943	815.94
416.151	883.53
416.359	924.49
416.567	938.82
416.776	1020.74
416.984	1045.32
417.192	1104.71
417.4	1127.24
417.608	1123.14
417.817	1172.29
418.025	1151.81
418.233	1317.7
418.441	1256.26
418.649	1309.51
418.857	1426.24
419.065	1483.58
419.273	1348.42
419.481	1366.85
419.689	1633.08
419.897	1637.18
420.105	1641.28
420.313	1817.4
420.521	1717.05
420.729	1780.54
420.937	1884.98
421.145	1915.7
421.353	2069.3
421.561	2091.83
421.769	2177.84
421.977	2288.43
422.185	2212.66
422.393	2446.13
422.601	2558.77
422.809	2347.83
423.017	2571.05
423.224	2566.96
423.432	2779.95
423.64	2685.74
423.848	2992.94
424.056	2886.44
424.263	3085.09
424.471	3134.25
424.679	3181.35
424.887	3302.18
425.094	3296.04
425.302	3500.83
425.51	3613.47
425.718	3681.05
425.925	3664.67
426.133	3838.75
426.341	4006.68
426.548	4369.17
426.756	4352.79
426.964	4297.49
427.171	4461.33
427.379	4614.93
427.586	4864.78
427.794	4885.26
428.001	5182.21
428.209	5286.66
428.417	5327.62
428.624	5618.43
428.832	5661.44
429.039	5548.8
429.247	5681.92
429.454	6138.62
429.662	6449.91
429.869	6081.27
430.076	6458.1
430.284	6449.91
430.491	6597.36
430.699	7107.3
430.906	7037.67
431.114	7203.56
431.321	7457.51
431.528	7518.95
431.736	7983.84
431.943	8422.1
432.15	8178.39
432.358	8182.49
432.565	8514.26
432.772	8747.73
432.979	9138.89
433.187	9138.89
433.394	9126.6
433.601	9712.32
433.808	9966.27
434.016	9835.2
434.223	10113.72
434.43	10871.47
434.637	10685.11
434.844	11348.65
435.052	11496.1
435.259	11492.01
435.466	11594.4
435.673	11522.73
435.88	12192.41
436.087	12888.72
436.294	12841.62
436.501	12452.5
436.708	12733.08
436.915	13177.48
437.122	13935.23
437.329	13800.07
437.537	14330.49
437.743	14389.88
437.95	14307.96
438.157	14903.92
438.364	15823.46
438.571	15553.13
438.778	15643.24
438.985	17107.54
439.192	16548.44
439.399	16890.45
439.606	16714.33
439.813	17609.29
440.02	18573.88
440.227	18117.18
440.433	17859.14
440.64	18813.49
440.847	18559.55
441.054	19046.96
441.261	20277.79
441.467	20191.78
441.674	20474.4
441.881	21092.88
442.088	21076.5
442.294	20871.7
442.501	21309.97
442.708	21723.66
442.914	22716.92
443.121	23439.86
443.328	23312.88
443.534	24605.15
443.741	23775.72
443.948	23593.45
444.154	25373.14
444.361	25264.6
444.568	25414.1
444.774	25311.7
444.981	25629.13
445.187	26309.06
445.394	27623.86
445.6	27204.02
445.807	29938.06
446.013	28510.63
446.22	29254.04
446.426	30009.74
446.633	30232.97
446.839	31390.07
447.046	29991.31
447.252	31308.15
447.459	31656.31
447.665	31416.69
447.871	32909.66
448.078	34361.67
448.284	32502.12
448.491	33429.85
448.697	34816.32
448.903	35559.73
449.11	35785.01
449.316	34990.4
449.522	35957.04
449.728	36540.71
449.935	36628.77
450.141	36788.52
450.347	37896.47
450.553	36155.69
450.76	36540.71
450.966	38322.44
451.172	37634.33
451.378	38142.22
451.584	37593.37
451.791	38537.48
451.997	38617.35
452.203	38934.79
452.409	38875.4
452.615	38732.04
452.821	37325.08
453.027	37079.33
453.233	39172.35
453.44	37732.63
453.646	37925.14
453.852	38166.8
454.058	38633.74
454.264	37712.15
454.47	38590.73
454.676	37171.49
454.882	39033.09
455.088	35283.26
455.294	35737.91
455.5	36190.51
455.705	37118.24
455.911	35246.4
456.117	34378.06
456.323	33823.06
456.529	32108.91
456.735	33622.36
456.941	32926.05
457.147	32289.13
457.352	31052.16
457.558	30910.85
457.764	31003
457.97	30534.02
458.176	30032.27
458.381	29911.44
458.587	28205.48
458.793	28363.17
458.999	27083.19
459.204	28649.89
459.41	27875.76
459.616	26278.34
459.821	26395.07
460.027	26227.14
460.233	25698.77
460.438	24314.34
460.644	24664.54
460.85	23439.86
461.055	23204.34
461.261	23239.15
461.466	21064.21
461.672	20785.69
461.878	22026.76
462.083	20783.64
462.289	20466.21
462.494	20152.87
462.7	19247.66
462.905	18745.91
463.111	19464.75
463.316	19601.96
463.522	19092.02
463.727	19337.77
463.932	19200.56
464.138	18768.44
464.343	18881.08
464.549	18203.2
464.754	18883.13
464.959	18735.67
465.165	18500.16
465.37	17934.92
465.575	17373.77
465.781	18164.29
465.986	18209.34
466.191	17556.04
466.397	17203.79
466.602	16364.12
466.807	17336.91
467.012	17103.44
467.218	17021.52
467.423	16669.27
467.628	16890.45
467.833	17556.04
468.038	16771.67
468.244	16636.5
468.449	16941.65
468.654	16417.37
468.859	16355.93
469.064	16321.12
469.269	15610.47
469.474	15827.56
469.679	16128.61
469.885	15489.64
470.09	15845.99
470.295	15663.72
470.5	15546.98
470.705	15651.43
470.91	14836.34
471.115	14848.63
471.32	15364.71
471.525	15133.29
471.73	14740.08
471.935	14627.45
472.139	14189.18
472.344	14436.99
472.549	14301.82
472.754	13996.67
472.959	13685.38
473.164	13449.86
473.369	13505.16
473.574	13779.59
473.778	13677.19
473.983	13300.36
474.188	13453.96
474.393	12831.38
474.598	12823.19
474.802	12894.86
475.007	12534.42
475.212	12939.92
475.417	12315.29
475.621	12319.39
475.826	12348.06
476.031	11950.75
476.235	11678.37
476.44	12110.49
476.645	11917.98
476.849	11784.87
477.054	11588.26
477.259	11451.05
477.463	11606.69
477.668	11150
477.872	11436.71
478.077	11145.9
478.282	10805.94
478.486	10732.21
478.691	10781.36
478.895	10422.97
479.1	10695.35
479.304	10648.24
479.509	10480.31
479.713	10640.05
479.918	10322.62
480.122	10146.49
480.326	10259.13
480.531	10386.1
480.735	10181.31
480.94	9945.79
481.144	10529.46
481.348	9978.56
481.553	9974.46
481.757	9874.11
481.961	9917.12
482.166	10019.52
482.37	9816.77
482.574	9810.62
482.778	9759.42
482.983	9956.03
483.187	10044.09
483.391	9800.38
483.595	9837.25
483.8	9861.82
484.004	9947.84
484.208	9951.93
484.412	9765.57
484.616	9814.72
484.821	10013.37
485.025	9689.79
485.229	9945.79
485.433	9779.9
485.637	9956.03
485.841	9796.29
486.045	9734.85
486.249	9685.7
486.453	9792.19
486.657	9919.17
486.861	9925.31
487.065	9624.26
487.269	9915.07
487.473	9417.41
487.677	9923.26
487.881	9886.4
488.085	9886.4
488.289	9861.82
488.493	9759.42
488.697	9876.16
488.901	9808.58
489.105	9728.7
489.309	9788.1
489.512	9915.07
489.716	9972.41
489.92	9820.86
490.124	9775.81
490.328	10195.64
490.531	9771.71
490.735	10105.53
490.939	10277.56
491.143	10216.12
491.346	9992.89
491.55	10384.05
491.754	10232.51
491.958	10185.4
492.161	10169.02
492.365	10255.03
492.569	10195.64
492.772	10295.99
492.976	10433.21
493.18	10343.1
493.383	10744.5
493.587	10656.43
493.79	10875.57
493.994	10793.65
494.197	10652.34
494.401	10814.13
494.605	11119.28
494.808	11106.99
495.012	11209.39
495.215	11395.75
495.419	11246.25
495.622	11254.44
495.825	11459.24
496.029	11528.87
496.232	11872.93
496.436	11463.33
496.639	11770.53
496.843	11932.32
497.046	12006.05
497.249	12206.75
497.453	12145.31
497.656	12515.99
497.859	12606.1
498.063	12841.62
498.266	12950.16
498.469	12708.5
498.673	12966.54
498.876	13070.99
499.079	13216.4
499.282	12970.64
499.485	13544.07
499.689	13656.71
499.892	13752.96
500.095	13730.44
500.298	14211.71
500.501	14226.04
500.705	14070.4
500.908	14641.78
501.111	14746.23
501.314	14752.37
501.517	15018.61
501.72	15288.94
501.923	15225.45
502.126	15641.19
502.329	15780.45
502.532	15942.24
502.735	15852.13
502.938	16222.81
503.141	16511.58
503.344	16863.83
503.547	16613.98
503.75	16998.99
503.953	17367.63
504.156	17218.13
504.359	17486.41
504.562	17556.04
504.765	18164.29
504.968	18467.39
505.17	18311.74
505.373	18281.02
505.576	18655.8
505.779	19122.74
505.982	19149.36
506.185	19501.61
506.387	19558.95
506.59	20036.13
506.793	20353.57
506.996	20060.71
507.198	20783.64
507.401	20548.12
507.604	20933.14
507.807	21236.24
508.009	21588.49
508.212	21498.38
508.415	21961.22
508.617	21957.13
508.82	22227.46
509.022	22045.19
509.225	22612.48
509.428	22870.52
509.63	23216.63
509.833	23302.64
510.035	23603.69
510.238	23529.97
510.44	24277.47
510.643	24312.29
510.845	24578.53
511.048	24490.46
511.25	24920.54
511.453	25266.64
511.655	26274.24
511.858	25733.58
512.06	25932.23
512.262	26460.61
512.465	26235.33
512.667	26986.94
512.87	26782.14
513.072	27066.81
513.274	27822.51
513.477	28033.45
513.679	28039.59
513.881	28502.43
514.084	28604.83
514.286	28662.18
514.488	29141.4
514.69	29913.48
514.893	29987.21
515.095	30269.83
515.297	30450.05
515.499	30720.38
515.701	31080.83
515.904	31285.62
516.106	31584.63
516.308	31725.94
516.51	32143.72
516.712	32295.27
516.914	32741.73
517.116	33442.14
517.318	33378.65
517.52	33282.39
517.722	33618.26
517.925	34206.03
518.127	34591.05
518.329	34906.43
518.531	34935.1
518.733	35445.05
518.935	36038.96
519.136	35514.68
519.338	36493.61
519.54	36534.57
519.742	36555.05
519.944	36991.26
520.146	37775.64
520.348	38181.13
520.55	37738.77
520.752	38181.13
520.954	38791.43
521.155	38504.71
521.357	39235.84
521.559	39397.63
521.761	40157.42
521.963	40116.47
522.164	40462.57
522.366	40581.35
522.568	40945.89
522.77	40900.84
522.971	41277.66
523.173	41461.98
523.375	41758.94
523.576	41916.63
523.778	42180.82
523.98	42875.08
524.181	42528.97
524.383	42866.89
524.584	43421.89
524.786	43249.86
524.988	43217.09
525.189	43856.06
525.391	44300.47
525.592	44388.53
525.794	44470.45
525.995	44834.99
526.197	44755.11
526.398	44617.9
526.6	45359.27
526.801	45488.29
527.003	45668.51
527.204	45783.19
527.406	45842.59
527.607	45617.31
527.808	46346.39
528.01	45441.18
528.211	46014.62
528.412	47034.5
528.614	47054.98
528.815	46518.42
529.016	46878.86
529.218	47112.33
529.419	47286.4
529.62	46874.76
529.822	46950.54
530.023	46706.83
530.224	47155.33
530.425	47380.61
530.626	46729.36
530.828	47306.88
531.029	48042.1
531.23	47079.56
531.431	47929.47
531.632	47935.61
531.833	48091.26
532.035	47911.03
532.236	48146.55
532.437	48490.61
532.638	47755.39
532.839	48306.29
533.04	48150.65
533.241	47513.73
533.442	48478.32
533.643	48410.74
533.844	48306.29
534.045	48287.86
534.246	47640.7
534.447	48453.75
534.648	48296.05
534.849	48185.46
535.05	48410.74
535.251	48312.44
535.451	48105.59
535.652	48707.69
535.853	48187.51
536.054	48363.64
536.255	48392.31
536.456	48195.7
536.657	49008.75
536.857	48212.09
537.058	48205.94
537.259	48697.45
537.46	48789.61
537.66	48310.39
537.861	48179.32
538.062	47919.23
538.263	48648.3
538.463	48228.47
538.664	48521.33
538.865	48709.74
539.065	48722.03
539.266	47765.63
539.466	48914.54
539.667	47986.81
539.868	48740.46
540.068	48251
540.269	48306.29
540.469	48418.93
540.67	48294
540.87	48128.12
541.071	48285.81
541.271	48519.28
541.472	48416.88
541.672	47833.21
541.873	48060.54
542.073	47589.5
542.274	48693.36
542.474	47726.72
542.675	47995
542.875	48535.66
543.075	48273.52
543.276	47599.74
543.476	48472.18
543.676	48013.43
543.877	48349.3
544.077	48019.58
544.277	48011.38
544.478	47583.36
544.678	48724.08
544.878	48242.81
545.078	48064.63
545.279	48048.25
545.479	48048.25
545.679	48337.01
545.879	47843.45
546.079	47769.72
546.28	47900.79
546.48	47925.37
546.68	48101.5
546.88	48050.3
547.08	47931.51
547.28	48119.93
547.48	47851.64
547.68	48236.66
547.88	47609.98
548.081	48025.72
548.281	47882.36
548.481	47696
548.681	48156.79
548.881	48140.41
549.081	47839.36
549.28	48005.24
549.48	48134.26
549.68	47794.3
549.88	48277.62
550.08	47995
550.28	47585.41
550.48	47716.48
550.68	48230.52
550.88	47558.78
551.08	47712.38
551.279	47982.71
551.479	47229.06
551.679	47818.88
551.879	47644.8
552.079	48001.14
552.278	47304.84
552.478	47771.77
552.678	47558.78
552.878	47827.07
553.077	47315.08
553.277	47237.25
553.477	48347.25
553.676	47411.33
553.876	47345.79
554.076	47499.39
554.275	47337.6
554.475	46766.22
554.674	46891.15
554.874	47388.8
555.074	47546.5
555.273	47249.54
555.473	47523.97
555.672	46915.72
555.872	46880.91
556.071	46844.04
556.271	46915.72
556.47	46620.81
556.67	46514.32
556.869	47313.03
557.068	47093.89
557.268	46301.33
557.467	46823.56
557.667	46788.75
557.866	46612.62
558.065	46291.09
558.265	46762.12
558.464	46186.64
558.663	46542.99
558.863	45873.31
559.062	46954.63
559.261	45928.6
559.461	46262.42
559.66	46172.31
559.859	46250.13
560.058	45666.46
560.258	46375.06
560.457	45580.45
560.656	45815.96
560.855	45605.02
561.054	45686.94
561.253	45594.78
561.453	45936.79
561.652	45566.11
561.851	45680.8
562.05	45396.13
562.249	45260.96
562.448	45996.18
562.647	45246.63
562.846	45205.67
563.045	45447.33
563.244	45070.5
563.443	45289.63
563.642	44732.59
563.841	44667.05
564.04	44548.27
564.239	45166.76
564.438	44425.39
564.637	44603.56
564.836	45035.69
565.035	44134.58
565.234	44746.92
565.432	44421.3
565.631	44028.09
565.83	44413.1
566.029	44320.95
566.228	43876.54
566.427	44064.95
566.625	44015.8
566.824	43444.41
567.023	44142.77
567.222	43129.03
567.42	44099.76
567.619	43598.01
567.818	43292.86
568.016	43432.13
568.215	43544.76
568.414	43002.05
568.612	43548.86
568.811	43260.1
569.01	42959.05
569.208	42670.28
569.407	43079.88
569.605	42422.48
569.804	43051.2
570.002	42258.64
570.201	42754.25
570.4	42012.88
570.598	41926.87
570.797	42037.46
570.995	42311.89
571.193	41652.44
571.392	41988.31
571.59	41750.74
571.789	41756.89
571.987	41994.45
572.186	41502.94
572.384	41816.28
572.582	41421.02
572.781	41560.28
572.979	40718.57
573.177	41040.1
573.376	40995.04
573.574	40827.11
573.772	41263.33
573.971	40392.94
574.169	40605.93
574.367	40192.24
574.565	40577.26
574.763	40323.31
574.962	40093.94
575.16	39583.99
575.358	40220.91
575.556	39500.03
575.754	40100.08
575.952	39444.73
576.151	40177.9
576.349	39315.71
576.547	39053.57
576.745	39629.05
576.943	39229.69
577.141	38928.64
577.339	39123.2
577.537	39100.67
577.735	39112.96
577.933	38574.34
578.131	38922.5
578.329	38811.91
578.527	38099.22
578.725	38347.02
578.923	38525.19
579.121	38152.46
579.319	37769.49
579.516	37902.61
579.714	38111.5
579.912	37812.5
580.11	37918.99
580.308	37892.37
580.506	37824.79
580.704	37243.17
580.901	37605.66
581.099	37484.83
581.297	36978.98
581.495	36870.43
581.692	37179.68
581.89	36561.19
582.088	36751.65
582.285	36888.87
582.483	36843.81
582.681	36833.57
582.878	36364.59
583.076	36010.29
583.274	36448.55
583.471	35899.7
583.669	36055.34
583.866	35739.96
584.064	36002.1
584.262	35232.06
584.459	35842.35
584.657	35367.23
584.854	35508.54
585.052	34961.73
585.249	35082.56
585.447	35313.98
585.644	34748.74
585.841	34732.36
586.039	35021.12
586.236	34199.88
586.434	34586.95
586.631	34257.23
586.828	34552.13
587.026	34490.7
587.223	34267.47
587.42	34240.84
587.618	34341.19
587.815	33765.71
588.012	33626.45
588.21	33745.23
588.407	34095.44
588.604	33595.73
588.801	33460.57
588.999	33411.42
589.196	33536.34
589.393	33593.68
589.59	33044.83
589.787	33081.69
589.984	32805.22
590.182	32678.24
590.379	32592.23
590.576	32266.6
590.773	32700.77
590.97	32397.67
591.167	32706.91
591.364	31943.02
591.561	32262.51
591.758	31881.58
591.955	31926.64
592.152	32375.14
592.349	31637.87
592.546	32059.76
592.743	31875.44
592.94	31455.61
593.137	31773.04
593.334	31447.41
593.531	31027.58
593.727	31189.37
593.924	31170.94
594.121	31056.25
594.318	31422.84
594.515	30939.52
594.712	30962.04
594.908	30732.67
595.105	30966.14
595.302	30701.95
595.499	30706.05
595.696	30220.68
595.892	30245.26
596.089	30290.31
596.286	30333.32
596.482	30091.66
596.679	30083.47
596.876	30089.61
597.072	29827.47
597.269	29948.3
597.466	29395.35
597.662	29569.43
597.859	29594
598.055	29518.23
598.252	29163.93
598.448	29272.47
598.645	29299.09
598.841	29161.88
599.038	29217.18
599.234	29139.35
599.431	28981.66
599.627	28709.28
599.824	28971.42
600.02	28373.41
600.217	28545.44
600.413	28352.93
600.609	28268.97
600.806	28111.27
601.002	28160.42
601.198	28195.24
601.395	27929
601.591	27935.15
601.787	27650.48
601.984	27929
602.18	27857.32
602.376	27726.25
602.572	27361.72
602.769	27242.93
602.965	27109.82
603.161	27240.89
603.357	26657.21
603.553	27007.42
603.75	26909.11
603.946	26593.73
604.142	26655.17
604.338	26591.68
604.534	26649.02
604.73	26276.29
604.926	26247.62
605.122	26522.05
605.318	26376.64
605.514	26229.19
605.71	25870.79
605.906	25979.34
606.102	25807.31
606.298	26008.01
606.494	25639.37
606.69	26067.4
606.886	25891.27
607.082	25416.15
607.278	25909.71
607.474	25270.74
607.67	25315.8
607.866	24848.86
608.062	25487.82
608.257	24959.45
608.453	25194.96
608.649	25192.92
608.845	25051.61
609.041	25061.85
609.236	24998.36
609.432	24859.1
609.628	24752.6
609.824	24672.73
610.019	24617.44
610.215	24693.21
610.411	24916.44
610.606	24596.96
610.802	24670.68
610.998	24490.46
611.193	24394.21
611.389	24125.93
611.584	24130.02
611.78	24064.49
611.976	24314.34
612.171	24062.44
612.367	24070.63
612.562	23898.6
612.758	23505.39
612.953	23480.82
613.149	24060.39
613.344	23402.99
613.539	23917.03
613.735	23468.53
613.93	23691.76
614.126	23525.87
614.321	23517.68
614.517	23464.43
614.712	23374.32
614.907	23120.37
615.103	23396.85
615.298	23183.86
615.493	23167.48
615.688	22907.38
615.884	23298.55
616.079	22786.55
616.274	22946.3
616.47	22915.58
616.665	23058.93
616.86	22727.16
617.055	22555.13
617.25	22385.15
617.445	22686.2
617.641	22657.53
617.836	22616.57
618.031	22352.38
618.226	22315.52
618.421	22264.32
618.616	22252.03
618.811	22030.85
619.006	22297.09
619.201	21381.65
619.396	21889.54
619.591	21393.93
619.786	21959.17
619.981	21256.72
620.176	21430.8
620.371	21293.58
620.566	21504.53
620.761	20849.18
620.956	21088.79
621.151	20998.68
621.346	21203.47
621.541	20742.68
621.735	20834.84
621.93	20425.25
622.125	20382.24
622.32	20480.54
622.515	20357.66
622.709	20085.28
622.904	20306.46
623.099	19976.74
623.294	19905.06
623.488	19712.55
623.683	19704.36
623.878	19120.69
624.072	19569.19
624.267	19640.87
624.462	19264.05
624.656	19003.96
624.851	19094.07
625.046	19038.77
625.24	18876.98
625.435	18653.75
625.629	18913.84
625.824	18475.58
626.018	18586.17
626.213	17945.16
626.407	18211.39
626.602	18121.28
626.796	17982.02
626.991	17984.07
627.185	17631.82
627.38	17553.99
627.574	17605.19
627.768	17248.85
627.963	17660.49
628.157	17252.94
628.352	17144.4
628.546	17164.88
628.74	17228.37
628.935	16876.12
629.129	17070.67
629.323	16673.37
629.517	16650.84
629.712	16591.45
629.906	16587.35
630.1	16136.8
630.294	16390.75
630.489	16280.16
630.683	16372.32
630.877	15958.63
631.071	16253.53
631.265	16165.47
631.459	16058.98
631.653	15651.43
631.848	15528.55
632.042	15569.51
632.236	15735.4
632.43	15508.07
632.624	15575.66
632.818	15233.64
633.012	15202.93
633.206	14989.94
633.4	15164.01
633.594	14848.63
633.788	15075.95
633.982	14762.61
634.176	14942.83
634.369	14799.48
634.563	14713.46
634.757	14619.25
634.951	14631.54
635.145	14213.76
635.339	14371.45
635.533	14295.68
635.726	14092.93
635.92	14043.78
636.114	14248.57
636.308	14072.45
636.501	13865.6
636.695	14035.58
636.889	13974.14
637.083	13644.42
637.276	13716.1
637.47	13531.78
637.664	13417.1
637.857	13746.82
638.051	13533.83
638.244	13404.81
638.438	13359.75
638.632	13300.36
638.825	13122.19
639.019	12952.21
639.212	13177.48
639.406	12950.16
639.599	12690.07
639.793	12636.82
639.986	12645.01
640.18	12808.85
640.373	12550.81
640.567	12290.71
640.76	12327.58
640.954	12102.3
641.147	12159.64
641.34	12233.37
641.534	12112.54
641.727	11903.65
641.92	11893.41
642.114	11809.44
642.307	11815.59
642.5	11856.54
642.694	11647.65
642.887	11479.72
643.08	11356.84
643.273	11440.81
643.467	11553.45
643.66	11506.34
643.853	11254.44
644.046	11186.86
644.239	11240.11
644.432	11131.56
644.626	11135.66
644.819	10988.21
645.012	10996.4
645.205	10828.46
645.398	10805.94
645.591	10500.79
645.784	10777.26
645.977	10578.61
646.17	10568.37
646.363	10369.72
646.556	10404.53
646.749	10359.48
646.942	10500.79
647.135	10234.55
647.328	10232.51
647.521	10005.18
647.714	10048.19
647.907	9902.78
648.099	9923.26
648.292	9976.51
648.485	9917.12
648.678	9491.14
648.871	9634.5
649.064	9675.46
649.256	9722.56
649.449	9427.65
649.642	9550.53
649.835	9624.26
650.027	9452.23
650.22	9374.41
650.413	9339.59
650.605	9464.52
650.798	9288.39
650.991	9155.27
651.183	9233.1
651.376	9032.4
651.568	9106.12
651.761	8921.81
651.954	8821.45
652.146	8893.13
652.339	8846.03
652.531	8809.17
652.724	8817.36
652.916	8530.64
653.109	8655.57
653.301	8630.99
653.494	8557.27
653.686	8506.07
653.879	8688.34
654.071	8446.68
654.263	8182.49
654.456	8323.8
654.648	8405.72
654.84	8096.47
655.033	8248.02
655.225	8174.3
655.417	8039.13
655.61	8178.39
655.802	7932.64
655.994	7928.54
656.186	8012.51
656.379	7795.42
656.571	7731.94
656.763	7641.82
656.955	7672.54
657.148	7697.12
657.34	7600.87
657.532	7377.64
657.724	7295.72
657.916	7418.6
658.108	7371.49
658.3	7260.9
658.492	7469.8
658.684	7215.85
658.876	7363.3
659.068	7131.88
659.26	7230.18
659.452	7017.19
659.644	7070.44
659.836	7097.07
660.028	7052.01
660.22	6925.04
660.412	6994.67
660.604	6902.51
660.796	6834.93
660.988	6732.53
661.18	6824.69
661.372	6853.36
661.563	6429.43
661.755	6621.94
661.947	6640.37
662.139	6421.24
662.331	6478.58
662.522	6351.6
662.714	6474.48
662.906	6357.75
663.097	6478.58
663.289	6144.76
663.481	6236.92
663.673	6230.77
663.864	6351.6
664.056	6050.55
664.247	6042.36
664.439	5974.78
664.631	6036.22
664.822	6322.93
665.014	6007.55
665.205	5978.87
665.397	5913.34
665.588	5946.11
665.78	5808.89
665.971	5858.04
666.163	5858.04
666.354	5778.17
666.546	5835.52
666.737	5614.34
666.929	5724.93
667.12	5620.48
667.311	5651.2
667.503	5532.42
667.694	5548.8
667.885	5487.36
668.077	5495.55
668.268	5380.87
668.459	5262.09
668.651	5430.02
668.842	5440.26
669.033	5292.8
669.224	5194.5
669.416	5503.75
669.607	5255.94
669.798	5309.19
669.989	5319.43
670.18	5249.8
670.371	5245.7
670.563	5141.25
670.754	5188.36
670.945	5034.76
671.136	5067.53
671.327	5049.1
671.518	5110.54
671.709	5065.48
671.9	4907.79
672.091	5143.3
672.282	4969.23
672.473	4967.18
672.664	4938.51
672.855	4770.57
673.046	4887.31
673.237	4887.31
673.428	4825.87
673.619	4768.52
673.809	4633.36
674	4836.11
674.191	4631.31
674.382	4641.55
674.573	4635.41
674.764	4578.06
674.954	4557.58
675.145	4655.89
675.336	4576.02
675.527	4625.17
675.717	4653.84
675.908	4508.43
676.099	4549.39
676.289	4449.04
676.48	4475.67
676.671	4348.69
676.861	4461.33
677.052	4477.71
677.243	4332.31
677.433	4311.83
677.624	4401.94
677.814	4174.61
678.005	4303.64
678.195	4215.57
678.386	4330.26
678.576	4360.98
678.767	4147.99
678.957	4246.29
679.148	4270.87
679.338	4182.81
679.529	4186.9
679.719	4070.17
679.909	4053.78
680.1	4150.04
680.29	4102.93
680.481	4137.75
680.671	4047.64
680.861	4084.5
681.052	4068.12
681.242	3918.62
681.432	4002.58
681.622	4055.83
681.813	3935
682.003	3861.27
682.193	4107.03
682.383	3906.33
682.573	3898.14
682.764	3824.41
682.954	3924.76
683.144	3842.84
683.334	3891.99
683.524	3873.56
683.714	3926.81
683.904	3758.88
684.094	3803.93
684.284	3824.41
684.474	3707.68
684.664	3765.02
684.854	3787.55
685.044	3771.16
685.234	3834.65
685.424	3765.02
685.614	3767.07
685.804	3730.2
685.994	3603.23
686.184	3642.14
686.374	3578.65
686.564	3722.01
686.753	3644.19
686.943	3607.33
687.133	3722.01
687.323	3535.65
687.513	3570.46
687.702	3541.79
687.892	3466.02
688.082	3527.46
688.272	3515.17
688.461	3611.42
688.651	3668.77
688.841	3564.32
689.03	3461.92
689.22	3437.34
689.41	3484.45
689.599	3484.45
689.789	3377.95
689.979	3463.97
690.168	3461.92
690.358	3404.58
690.547	3410.72
690.737	3527.46
690.926	3384.1
691.116	3259.17
691.305	3365.67
691.495	3214.12
691.684	3410.72
691.874	3488.54
692.063	3339.04
692.252	3341.09
692.442	3353.38
692.631	3291.94
692.82	3306.27
693.01	3224.36
693.199	3296.04
693.388	3246.88
693.578	3232.55
693.767	3296.04
693.956	3324.71
694.146	3300.13
694.335	3167.01
694.524	3255.08
694.713	3197.73
694.902	3226.4
695.092	3238.69
695.281	3076.9
695.47	3269.41
695.659	3234.6
695.848	3140.39
696.037	3197.73
696.226	3189.54
696.415	3173.16
696.604	3314.47
696.793	3070.76
696.982	3072.81
697.171	3238.69
697.36	3066.66
697.549	3099.43
697.738	3085.09
697.927	3189.54
698.116	3197.73
698.305	3074.85
698.494	3070.76
698.683	3126.05
698.872	3199.78
699.061	2962.22
699.25	3099.43
699.438	3048.23
699.627	3078.95
699.816	3113.77
700.005	3015.46
700.193	3111.72
700.382	2960.17
700.571	3027.75
700.76	3066.66
700.948	3064.61
701.137	3046.18
701.326	3046.18
701.514	3025.7
701.703	3037.99
701.892	3029.8
702.08	3019.56
702.269	2917.16
702.457	2853.67
702.646	3025.7
702.834	3054.37
703.023	2933.54
703.212	3044.13
703.4	2935.59
703.589	2845.48
703.777	2851.63
703.965	2878.25
704.154	3035.94
704.342	2870.06
704.531	2847.53
704.719	2868.01
704.907	2876.2
705.096	2900.78
705.284	2722.6
705.472	2775.85
705.661	2732.84
705.849	2808.62
706.037	2825
706.226	2841.39
706.414	2812.71
706.602	2681.64
706.79	2640.69
706.979	2896.68
707.167	2763.56
707.355	2736.94
707.543	2753.32
707.731	2734.89
707.919	2640.69
708.107	2765.61
708.296	2589.49
708.484	2607.92
708.672	2667.31
708.86	2667.31
709.048	2708.27
709.236	2605.87
709.424	2652.97
709.612	2714.41
709.8	2597.68
709.988	2544.43
710.176	2491.18
710.364	2560.81
710.551	2679.6
710.739	2566.96
710.927	2495.28
711.115	2489.14
711.303	2501.42
711.491	2579.25
711.679	2509.62
711.866	2503.47
712.054	2550.57
712.242	2521.9
712.43	2497.33
712.617	2499.38
712.805	2491.18
712.993	2415.41
713.181	2333.49
713.368	2380.59
713.556	2427.7
713.744	2319.15
713.931	2493.23
714.119	2370.35
714.306	2487.09
714.494	2333.49
714.682	2288.43
714.869	2272.05
715.057	2329.39
715.244	2257.71
715.432	2341.68
715.619	2392.88
715.807	2313.01
715.994	2396.98
716.182	2202.42
716.369	2288.43
716.556	2386.74
716.744	2374.45
716.931	2327.35
717.119	2247.48
717.306	2300.72
717.493	2149.17
717.681	2237.24
717.868	2157.36
718.055	2231.09
718.242	2243.38
718.43	2216.76
718.617	2163.51
718.804	2165.56
718.991	2120.5
719.179	2143.03
719.366	2233.14
719.553	2143.03
719.74	2024.25
719.927	2030.39
720.114	2034.49
720.301	2067.25
720.488	1995.57
720.676	2016.05
720.863	1989.43
721.05	2112.31
721.237	2075.45
721.424	2026.29
721.611	2093.88
721.798	2003.77
721.985	2042.68
722.172	1977.14
722.358	1956.66
722.545	2077.49
722.732	1913.66
722.919	1927.99
723.106	1882.94
723.293	1962.81
723.48	1850.17
723.667	1856.31
723.853	1876.79
724.04	1858.36
724.227	1905.46
724.414	1837.88
724.6	1901.37
724.787	1829.69
724.974	1884.98
725.161	1868.6
725.347	1682.24
725.534	1882.94
725.72	1774.39
725.907	1774.39
726.094	1858.36
726.28	1858.36
726.467	1751.87
726.653	1782.59
726.84	1784.63
727.027	1844.03
727.213	1751.87
727.4	1827.64
727.586	1809.21
727.773	1719.1
727.959	1723.2
728.145	1676.09
728.332	1710.91
728.518	1647.42
728.705	1692.48
728.891	1649.47
729.077	1684.28
729.264	1727.29
729.45	1719.1
729.636	1747.77
729.823	1676.09
730.009	1631.04
730.195	1624.89
730.382	1674.04
730.568	1665.85
730.754	1688.38
730.94	1606.46
731.126	1643.32
731.313	1614.65
731.499	1583.93
731.685	1657.66
731.871	1581.89
732.057	1600.32
732.243	1624.89
732.429	1626.94
732.615	1575.74
732.801	1542.97
732.987	1575.74
733.173	1573.69
733.359	1452.86
733.545	1491.77
733.731	1616.7
733.917	1608.51
734.103	1491.77
734.289	1581.89
734.475	1567.55
734.661	1545.02
734.847	1590.08
735.033	1461.06
735.219	1416
735.404	1506.11
735.59	1463.1
735.776	1481.53
735.962	1508.16
736.148	1407.81
736.333	1506.11
736.519	1401.66
736.705	1420.1
736.89	1420.1
737.076	1321.79
737.262	1317.7
737.447	1575.74
737.633	1317.7
737.819	1395.52
738.004	1456.96
738.19	1383.23
738.375	1520.45
738.561	1368.9
738.747	1313.6
738.932	1350.46
739.118	1409.86
739.303	1329.99
739.489	1399.62
739.674	1297.22
739.859	1297.22
740.045	1336.13
740.23	1315.65
740.416	1291.07
740.601	1284.93
740.786	1372.99
740.972	1299.27
741.157	1311.55
741.342	1397.57
741.528	1262.4
741.713	1344.32
741.898	1280.83
742.084	1266.5
742.269	1278.79
742.454	1278.79
742.639	1254.21
742.824	1215.3
743.01	1264.45
743.195	1250.11
743.38	1223.49
743.565	1225.54
743.75	1250.11
743.935	1239.87
744.12	1188.68
744.305	1248.07
744.49	1155.91
744.675	1207.11
744.86	1186.63
745.045	1190.72
745.23	1190.72
745.415	1149.76
745.6	1155.91
745.785	1110.85
745.97	1166.15
746.155	1121.09
746.34	1071.94
746.525	1067.85
746.71	1108.8
746.895	1129.28
747.079	1143.62
747.264	1186.63
747.449	1168.2
747.634	1084.23
747.819	1035.08
748.003	1104.71
748.188	1057.61
748.373	1110.85
748.557	1104.71
748.742	1076.04
748.927	1047.37
749.111	1002.31
749.296	1028.93
749.481	1041.22
749.665	996.17
749.85	1020.74
750.034	1026.89
750.219	947.01
750.404	1018.69
750.588	1035.08
750.773	963.4
750.957	949.06
751.141	920.39
751.326	887.62
751.51	856.9
751.695	932.68
751.879	947.01
752.064	922.44
752.248	889.67
752.432	846.66
752.617	928.58
752.801	877.38
752.985	883.53
753.17	869.19
753.354	961.35
753.538	901.96
753.722	934.73
753.907	863.05
754.091	928.58
754.275	830.28
754.459	920.39
754.643	936.78
754.828	846.66
755.012	785.23
755.196	772.94
755.38	809.8
755.564	787.27
755.748	834.38
755.932	807.75
756.116	879.43
756.3	863.05
756.484	854.86
756.668	766.79
756.852	801.61
757.036	777.03
757.22	785.23
757.404	807.75
757.588	805.71
757.772	756.55
757.956	805.71
758.14	717.64
758.323	770.89
758.507	752.46
758.691	727.88
758.875	668.49
759.059	731.98
759.242	768.84
759.426	774.99
759.61	697.16
759.794	693.07
759.977	600.91
760.161	748.36
760.345	723.79
760.528	768.84
760.712	758.6
760.895	678.73
761.079	562
761.263	684.87
761.446	799.56
761.63	717.64
761.813	617.29
761.997	623.44
762.18	654.16
762.364	676.68
762.547	613.2
762.731	744.27
762.914	625.48
763.098	701.26
763.281	637.77
763.464	582.48
763.648	660.3
763.831	666.44
764.015	725.83
764.198	631.63
764.381	650.06
764.564	594.76
764.748	621.39
764.931	660.3
765.114	670.54
765.297	650.06
765.481	621.39
765.664	617.29
765.847	572.24
766.03	584.52
766.213	568.14
766.397	633.68
766.58	600.91
766.763	633.68
766.946	584.52
767.129	650.06
767.312	662.35
767.495	578.38
767.678	592.72
767.861	557.9
768.044	625.48
768.227	510.8
768.41	635.72
768.593	619.34
768.776	617.29
768.959	529.23
769.142	502.61
769.324	611.15
769.507	594.76
769.69	492.37
769.873	576.33
770.056	643.92
770.239	570.19
770.421	658.25
770.604	545.61
770.787	611.15
770.97	553.8
771.152	553.8
771.335	480.08
771.518	572.24
771.7	574.28
771.883	553.8
772.066	594.76
772.248	570.19
772.431	486.22
772.613	488.27
772.796	478.03
772.978	609.1
773.161	605
773.343	539.47
773.526	531.28
773.708	471.89
773.891	516.94
774.073	537.42
774.256	467.79
774.438	482.13
774.621	463.69
774.803	549.71
774.985	488.27
775.168	518.99
775.35	392.02
775.532	455.5
775.715	529.23
775.897	523.09
776.079	453.45
776.261	453.45
776.444	506.7
776.626	478.03
776.808	465.74
776.99	422.73
777.173	492.37
777.355	422.73
777.537	457.55
777.719	475.98
777.901	463.69
778.083	480.08
778.265	486.22
778.447	439.12
778.629	504.65
778.811	439.12
778.993	381.78
779.175	453.45
779.357	412.5
779.539	400.21
779.721	478.03
779.903	504.65
780.085	379.73
780.267	420.69
780.449	445.26
780.631	457.55
780.812	422.73
780.994	363.34
781.176	453.45
781.358	422.73
781.54	459.6
781.721	428.88
781.903	338.77
782.085	375.63
782.267	389.97
782.448	326.48
782.63	371.54
782.812	414.54
782.993	478.03
783.175	373.58
783.357	437.07
783.538	404.3
783.72	357.2
783.901	318.29
784.083	394.06
784.264	406.35
784.446	379.73
784.627	363.34
784.809	361.3
784.99	330.58
785.172	301.9
785.353	314.19
785.535	441.17
785.716	344.91
785.897	275.28
786.079	324.43
786.26	258.9
786.441	318.29
786.623	287.57
786.804	230.23
786.985	330.58
787.167	256.85
787.348	344.91
787.529	381.78
787.71	301.9
787.891	314.19
788.073	293.71
788.254	320.34
788.435	244.56
788.616	283.47
788.797	246.61
788.978	252.75
789.159	326.48
789.34	281.43
789.522	289.62
789.703	240.47
789.884	289.62
790.065	275.28
790.246	308.05
790.427	275.28
790.607	320.34
790.788	230.23
790.969	293.71
791.15	308.05
791.331	224.08
791.512	191.31
791.693	260.95
791.874	326.48
792.054	252.75
792.235	293.71
792.416	297.81
792.597	250.71
792.778	189.27
792.958	248.66
793.139	265.04
793.32	230.23
793.5	193.36
793.681	297.81
793.862	310.1
794.042	236.37
794.223	273.23
794.404	234.32
794.584	240.47
794.765	166.74
794.945	254.8
795.126	164.69
795.306	252.75
795.487	168.79
795.667	179.03
795.848	230.23
796.028	252.75
796.209	179.03
796.389	262.99
796.57	230.23
796.75	224.08
796.93	215.89
797.111	267.09
797.291	238.42
797.471	250.71
797.652	191.31
797.832	213.84
798.012	217.94
798.192	105.3
798.373	146.26
798.553	240.47
798.733	219.99
798.913	176.98
799.093	183.12
799.274	136.02
799.454	224.08
799.634	160.59
799.814	185.17
799.994	150.36
800.174	183.12
800.354	203.6
800.534	183.12
800.714	230.23
800.894	168.79
801.074	136.02
801.254	115.54
801.434	131.92
801.614	172.88
801.794	162.64
801.974	385.87
802.154	189.27
802.334	187.22
802.514	170.83
802.693	160.59
802.873	142.16
803.053	197.46
803.233	248.66
803.413	195.41
803.592	146.26
803.772	213.84
803.952	228.18
804.131	154.45
804.311	160.59
804.491	119.64
804.67	195.41
804.85	232.27
805.03	179.03
805.209	234.32
805.389	148.31
805.568	215.89
805.748	127.83
805.928	131.92
806.107	205.65
806.287	185.17
806.466	181.07
806.646	142.16
806.825	201.55
807.004	127.83
807.184	154.45
807.363	197.46
807.543	179.03
807.722	195.41
807.901	148.31
808.081	80.72
808.26	90.96
808.439	123.73
808.619	207.7
808.798	101.2
808.977	179.03
809.156	168.79
809.336	84.82
809.515	133.97
809.694	90.96
809.873	93.01
810.052	129.88
810.231	154.45
810.411	117.59
810.59	76.63
810.769	162.64
810.948	168.79
811.127	150.36
811.306	129.88
811.485	172.88
811.664	142.16
811.843	136.02
812.022	203.6
812.201	117.59
812.38	172.88
812.559	95.06
812.737	138.07
812.916	70.48
813.095	183.12
813.274	117.59
813.453	105.3
813.632	103.25
813.811	244.56
813.989	150.36
814.168	125.78
814.347	136.02
814.526	138.07
814.704	219.99
814.883	152.4
815.062	111.44
815.24	172.88
815.419	72.53
815.598	117.59
815.776	93.01
815.955	90.96
816.133	131.92
816.312	144.21
816.49	76.63
816.669	109.4
816.847	86.87
817.026	101.2
817.204	52.05
817.383	86.87
817.561	109.4
817.74	136.02
817.918	121.68
818.097	109.4
818.275	64.34
818.453	107.35
818.632	133.97
818.81	113.49
818.988	52.05
819.167	109.4
819.345	58.2
819.523	142.16
819.701	86.87
819.879	43.86
820.058	138.07
820.236	101.2
820.414	136.02
820.592	47.96
820.77	121.68
820.948	80.72
821.127	64.34
821.305	109.4
821.483	142.16
821.661	64.34
821.839	156.5
822.017	109.4
822.195	84.82
822.373	101.2
822.551	86.87
822.729	88.92
822.907	54.1
823.085	113.49
823.262	111.44
823.44	27.48
823.618	41.81
823.796	70.48
823.974	133.97
824.152	84.82
824.329	15.19
824.507	64.34
824.685	129.88
824.863	115.54
825.04	68.44
825.218	119.64
825.396	107.35
825.574	103.25
825.751	62.29
825.929	90.96
826.107	109.4
826.284	88.92
826.462	41.81
826.639	88.92
826.817	41.81
826.994	62.29
827.172	97.11
827.349	95.06
827.527	105.3
827.704	97.11
827.882	138.07
828.059	76.63
828.237	-9.39
828.414	133.97
828.591	84.82
828.769	103.25
828.946	66.39
829.124	109.4
829.301	11.09
829.478	138.07
829.655	93.01
829.833	39.76
830.01	56.15
830.187	78.68
830.364	66.39
830.542	47.96
830.719	109.4
830.896	68.44
831.073	119.64
831.25	117.59
831.427	56.15
831.604	84.82
831.782	74.58
831.959	170.83
832.136	52.05
832.313	56.15
832.49	103.25
832.667	60.24
832.844	64.34
833.021	43.86
833.198	80.72
833.374	97.11
833.551	99.16
833.728	76.63
833.905	84.82
834.082	117.59
834.259	93.01
834.436	43.86
834.612	15.19
834.789	131.92
834.966	62.29
835.143	113.49
835.319	68.44
835.496	68.44
835.673	103.25
835.85	76.63
836.026	138.07
836.203	33.62
836.38	97.11
836.556	58.2
836.733	119.64
836.909	60.24
837.086	54.1
837.262	125.78
837.439	17.24
837.616	101.2
837.792	76.63
837.968	109.4
838.145	121.68
838.321	107.35
838.498	-58.54
838.674	144.21
838.851	4.95
839.027	43.86
839.203	72.53
839.38	113.49
839.556	50
839.732	74.58
839.909	80.72
840.085	97.11
840.261	58.2
840.437	109.4
840.614	93.01
840.79	80.72
840.966	86.87
841.142	103.25
841.318	80.72
841.494	-21.67
841.671	70.48
841.847	9.05
842.023	68.44
842.199	25.43
842.375	93.01
842.551	39.76
842.727	101.2
842.903	138.07
843.079	-5.29
843.255	58.2
843.431	64.34
843.607	148.31
843.783	-7.34
843.959	68.44
844.134	52.05
844.31	52.05
844.486	41.81
844.662	62.29
844.838	27.48
845.013	78.68
845.189	113.49
845.365	62.29
845.541	60.24
845.716	52.05
845.892	72.53
846.068	-9.39
846.244	-21.67
846.419	62.29
846.595	70.48
846.77	80.72
846.946	146.26
847.122	88.92
847.297	109.4
847.473	107.35
847.648	66.39
847.824	105.3
847.999	-29.87
848.175	103.25
848.35	115.54
848.526	82.77
848.701	103.25
848.876	109.4
849.052	43.86
849.227	58.2
849.403	4.95
849.578	70.48
849.753	13.14
849.929	4.95
850.104	-27.82
850.279	-9.39
850.454	88.92
850.63	101.2
850.805	58.2
850.98	31.57
851.155	74.58
851.33	72.53
851.505	-9.39
851.681	129.88
851.856	107.35
852.031	54.1
852.206	52.05
852.381	27.48
852.556	-27.82
852.731	109.4
852.906	17.24
853.081	86.87
853.256	82.77
853.431	68.44
853.606	19.29
853.781	60.24
853.956	27.48
854.131	82.77
854.305	4.95
854.48	84.82
854.655	39.76
854.83	21.33
855.005	23.38
855.18	68.44
855.354	-36.01
855.529	78.68
855.704	4.95
855.879	74.58
856.053	35.67
856.228	70.48
856.403	-38.06
856.577	86.87
856.752	-29.87
856.926	0.85
857.101	37.72
857.276	-38.06
857.45	13.14
857.625	70.48
857.799	29.52
857.974	76.63
858.148	15.19
858.323	45.91
858.497	15.19
858.672	33.62
858.846	56.15
859.02	50
859.195	17.24
859.369	101.2
859.543	2.9
859.718	66.39
859.892	60.24
860.066	2.9
860.241	35.67
860.415	78.68
860.589	74.58
860.763	78.68
860.938	93.01
861.112	27.48
861.286	70.48
861.46	72.53
861.634	62.29
861.808	-5.29
861.982	56.15
862.157	113.49
862.331	43.86
862.505	45.91
862.679	52.05
862.853	-17.58
863.027	27.48
863.201	90.96
863.375	47.96
863.549	11.09
863.722	19.29
863.896	90.96
864.07	19.29
864.244	54.1
864.418	-21.67
864.592	35.67
864.766	37.72
864.939	39.76
865.113	29.52
865.287	13.14
865.461	66.39
865.634	72.53
865.808	68.44
865.982	17.24
866.156	25.43
866.329	19.29
866.503	95.06
866.676	37.72
866.85	50
867.024	19.29
867.197	93.01
867.371	-76.97
867.544	21.33
867.718	60.24
867.891	15.19
868.065	2.9
868.238	-3.24
868.412	86.87
868.585	11.09
868.759	47.96
868.932	-3.24
869.105	13.14
869.279	-25.77
869.452	-33.96
869.625	64.34
869.799	-36.01
869.972	7
870.145	117.59
870.319	35.67
870.492	27.48
870.665	29.52
870.838	66.39
871.011	62.29
871.185	29.52
871.358	68.44
871.531	78.68
871.704	13.14
871.877	90.96
872.05	80.72
872.223	23.38
872.396	43.86
872.569	90.96
872.742	105.3
872.915	45.91
873.088	88.92
873.261	9.05
873.434	-29.87
873.607	45.91
873.78	21.33
873.953	39.76
874.126	43.86
874.299	82.77
874.471	-3.24
874.644	15.19
874.817	64.34
874.99	56.15
875.163	0.85
875.335	7
875.508	70.48
875.681	70.48
875.853	-17.58
876.026	15.19
876.199	27.48
876.371	62.29
876.544	41.81
876.717	17.24
876.889	60.24
877.062	7
877.234	82.77
877.407	54.1
877.579	19.29
877.752	68.44
877.924	7
878.097	-7.34
878.269	60.24
878.442	17.24
878.614	-38.06
878.786	60.24
878.959	43.86
879.131	43.86
879.303	-21.67
879.476	52.05
879.648	-5.29
879.82	86.87
879.993	-52.39
880.165	17.24
880.337	11.09
880.509	88.92
880.681	84.82
880.854	64.34
881.026	68.44
881.198	23.38
881.37	-5.29
881.542	54.1
881.714	35.67
881.886	37.72
882.058	9.05
882.23	29.52
882.402	0.85
882.574	21.33
882.746	7
882.918	39.76
883.09	-9.39
883.262	19.29
883.434	-17.58
883.606	11.09
883.778	4.95
883.95	7
884.122	-25.77
884.293	31.57
884.465	27.48
884.637	-13.48
884.809	62.29
884.98	21.33
885.152	-81.07
885.324	4.95
885.496	39.76
885.667	27.48
885.839	13.14
886.011	88.92
886.182	19.29
886.354	29.52
886.525	27.48
886.697	27.48
886.869	-23.72
887.04	-21.67
887.212	45.91
887.383	11.09
887.555	-13.48
887.726	-7.34
887.897	31.57
888.069	31.57
888.24	45.91
888.412	43.86
888.583	72.53
888.754	-15.53
888.926	21.33
889.097	2.9
889.268	9.05
889.44	-27.82
889.611	35.67
889.782	129.88
889.953	45.91
890.125	84.82
890.296	25.43
890.467	78.68
890.638	23.38
890.809	82.77
890.98	93.01
891.151	35.67
891.323	41.81
891.494	2.9
891.665	-11.43
891.836	-17.58
892.007	37.72
892.178	54.1
892.349	45.91
892.52	13.14
892.691	7
892.862	-27.82
893.032	-68.78
893.203	47.96
893.374	2.9
893.545	23.38
893.716	33.62
893.887	-1.19
894.057	21.33
894.228	80.72
894.399	-3.24
894.57	21.33
894.74	-50.35
894.911	50
895.082	35.67
895.253	21.33
895.423	74.58
895.594	45.91
895.764	29.52
895.935	45.91
896.106	43.86
896.276	4.95
896.447	4.95
896.617	-58.54
896.788	-5.29
896.958	29.52
897.129	-17.58
897.299	4.95
897.47	62.29
897.64	80.72
897.81	21.33
897.981	41.81
898.151	-54.44
898.322	52.05
898.492	105.3
898.662	82.77
898.832	101.2
899.003	25.43
899.173	27.48
899.343	-23.72
899.513	2.9
