Data from USB4F104151__66__13-53-53-414.txt Node

Date: Thu Mar 13 13:53:53 EDT 2025
User: louis
Spectrometer: USB4F10415
Trigger mode: 4
Integration Time (sec): 1.000000E-2
Scans to average: 1
Electric dark correction enabled: true
Nonlinearity correction enabled: false
Boxcar width: 0
XAxis mode: Wavelengths
Number of Pixels in Spectrum: 3648
>>>>>Begin Spectral Data<<<<<
178.204	-59.39
178.424	-59.39
178.644	-59.39
178.864	-88.06
179.084	-96.25
179.304	-12.29
179.524	2.05
179.744	28.67
179.964	34.82
180.184	-28.67
180.404	-20.48
180.624	2.05
180.844	8.19
181.064	14.34
181.283	-28.67
181.503	-32.77
181.723	32.77
181.943	2.05
182.163	32.77
182.383	8.19
182.602	8.19
182.822	45.06
183.042	-86.01
183.262	-14.34
183.482	6.14
183.701	26.62
183.921	-22.53
184.141	-12.29
184.361	12.29
184.58	63.49
184.8	26.62
185.02	28.67
185.239	51.2
185.459	51.2
185.679	49.15
185.898	-43.01
186.118	30.72
186.338	-6.14
186.557	59.39
186.777	-22.53
186.997	22.53
187.216	20.48
187.436	-6.14
187.655	26.62
187.875	49.15
188.095	-63.49
188.314	-24.58
188.534	-18.43
188.753	-34.82
188.973	-2.05
189.192	-28.67
189.412	36.86
189.631	69.63
189.851	-45.06
190.07	55.3
190.29	4.1
190.509	-14.34
190.729	16.38
190.948	4.1
191.168	57.34
191.387	20.48
191.607	-47.1
191.826	20.48
192.045	16.38
192.265	-16.38
192.484	14.34
192.704	-45.06
192.923	-12.29
193.142	38.91
193.362	43.01
193.581	36.86
193.8	77.82
194.02	36.86
194.239	-34.82
194.458	22.53
194.678	36.86
194.897	-47.1
195.116	67.58
195.335	20.48
195.555	-32.77
195.774	-20.48
195.993	32.77
196.212	-38.91
196.432	-22.53
196.651	12.29
196.87	0
197.089	100.35
197.308	26.62
197.528	83.97
197.747	-6.14
197.966	51.2
198.185	18.43
198.404	49.15
198.623	-53.25
198.842	-38.91
199.062	-40.96
199.281	10.24
199.5	110.59
199.719	-16.38
199.938	22.53
200.157	14.34
200.376	-16.38
200.595	-6.14
200.814	0
201.033	-14.34
201.252	6.14
201.471	-6.14
201.69	63.49
201.909	26.62
202.128	-20.48
202.347	20.48
202.566	43.01
202.785	-47.1
203.004	-47.1
203.223	77.82
203.442	38.91
203.661	32.77
203.879	-18.43
204.098	36.86
204.317	-49.15
204.536	28.67
204.755	2.05
204.974	20.48
205.193	24.58
205.411	-53.25
205.63	30.72
205.849	-71.68
206.068	-30.72
206.287	12.29
206.505	-2.05
206.724	-22.53
206.943	18.43
207.162	43.01
207.381	-14.34
207.599	65.54
207.818	-4.1
208.037	-2.05
208.255	-30.72
208.474	-18.43
208.693	36.86
208.911	-22.53
209.13	43.01
209.349	69.63
209.567	36.86
209.786	-4.1
210.005	53.25
210.223	-2.05
210.442	-26.62
210.661	-32.77
210.879	-28.67
211.098	26.62
211.316	2.05
211.535	45.06
211.753	63.49
211.972	4.1
212.191	-40.96
212.409	-43.01
212.628	26.62
212.846	-36.86
213.065	18.43
213.283	26.62
213.502	-12.29
213.72	4.1
213.938	22.53
214.157	14.34
214.375	-14.34
214.594	-2.05
214.812	57.34
215.031	-10.24
215.249	-53.25
215.467	-10.24
215.686	4.1
215.904	32.77
216.122	-26.62
216.341	45.06
216.559	10.24
216.778	73.73
216.996	43.01
217.214	6.14
217.432	-47.1
217.651	49.15
217.869	-57.34
218.087	-16.38
218.306	49.15
218.524	-28.67
218.742	-12.29
218.96	10.24
219.179	-32.77
219.397	73.73
219.615	47.1
219.833	-32.77
220.051	45.06
220.27	61.44
220.488	0
220.706	55.3
220.924	-30.72
221.142	-18.43
221.36	-16.38
221.578	18.43
221.796	-26.62
222.015	-2.05
222.233	-32.77
222.451	14.34
222.669	12.29
222.887	14.34
223.105	-2.05
223.323	8.19
223.541	10.24
223.759	18.43
223.977	0
224.195	12.29
224.413	59.39
224.631	0
224.849	-10.24
225.067	26.62
225.285	26.62
225.503	-24.58
225.721	2.05
225.939	-12.29
226.157	4.1
226.375	10.24
226.592	28.67
226.81	-30.72
227.028	-2.05
227.246	-28.67
227.464	-6.14
227.682	96.25
227.9	6.14
228.117	10.24
228.335	-2.05
228.553	-53.25
228.771	-53.25
228.989	-43.01
229.206	32.77
229.424	-32.77
229.642	6.14
229.86	-36.86
230.077	14.34
230.295	8.19
230.513	-26.62
230.731	-67.58
230.948	0
231.166	-14.34
231.384	-16.38
231.601	14.34
231.819	-28.67
232.037	40.96
232.254	-47.1
232.472	-14.34
232.689	-24.58
232.907	-30.72
233.125	40.96
233.342	4.1
233.56	-59.39
233.777	18.43
233.995	32.77
234.213	47.1
234.43	-24.58
234.648	-43.01
234.865	61.44
235.083	40.96
235.3	12.29
235.518	-34.82
235.735	28.67
235.953	40.96
236.17	34.82
236.388	38.91
236.605	14.34
236.822	34.82
237.04	-6.14
237.257	79.87
237.475	16.38
237.692	59.39
237.909	14.34
238.127	-4.1
238.344	49.15
238.562	38.91
238.779	0
238.996	-6.14
239.214	-6.14
239.431	20.48
239.648	-28.67
239.865	14.34
240.083	28.67
240.3	40.96
240.517	-36.86
240.735	28.67
240.952	6.14
241.169	-2.05
241.386	49.15
241.603	-47.1
241.821	-2.05
242.038	-16.38
242.255	40.96
242.472	32.77
242.689	30.72
242.907	-47.1
243.124	8.19
243.341	12.29
243.558	-36.86
243.775	10.24
243.992	-28.67
244.209	28.67
244.426	45.06
244.643	2.05
244.86	-40.96
245.078	14.34
245.295	26.62
245.512	43.01
245.729	28.67
245.946	22.53
246.163	20.48
246.38	-32.77
246.597	18.43
246.814	83.97
247.031	0
247.248	24.58
247.464	4.1
247.681	-2.05
247.898	14.34
248.115	-8.19
248.332	30.72
248.549	16.38
248.766	57.34
248.983	69.63
249.2	0
249.417	26.62
249.633	10.24
249.85	30.72
250.067	4.1
250.284	6.14
250.501	-14.34
250.717	53.25
250.934	-14.34
251.151	8.19
251.368	4.1
251.585	45.06
251.801	0
252.018	-18.43
252.235	-65.54
252.451	-71.68
252.668	55.3
252.885	-43.01
253.102	32.77
253.318	55.3
253.535	6.14
253.752	61.44
253.968	6.14
254.185	12.29
254.401	59.39
254.618	14.34
254.835	-2.05
255.051	20.48
255.268	24.58
255.484	-28.67
255.701	2.05
255.917	18.43
256.134	43.01
256.351	-47.1
256.567	43.01
256.784	34.82
257	18.43
257.217	63.49
257.433	0
257.65	67.58
257.866	4.1
258.082	-8.19
258.299	-4.1
258.515	24.58
258.732	77.82
258.948	-34.82
259.165	-20.48
259.381	73.73
259.597	77.82
259.814	55.3
260.03	-22.53
260.246	14.34
260.463	59.39
260.679	32.77
260.895	8.19
261.112	-4.1
261.328	77.82
261.544	57.34
261.761	16.38
261.977	-32.77
262.193	-4.1
262.409	4.1
262.626	-59.39
262.842	32.77
263.058	20.48
263.274	51.2
263.49	-10.24
263.707	-47.1
263.923	47.1
264.139	-10.24
264.355	-20.48
264.571	65.54
264.787	36.86
265.004	22.53
265.22	2.05
265.436	38.91
265.652	-57.34
265.868	-12.29
266.084	0
266.3	24.58
266.516	-18.43
266.732	14.34
266.948	-8.19
267.164	-32.77
267.38	55.3
267.596	-12.29
267.812	43.01
268.028	36.86
268.244	32.77
268.46	61.44
268.676	28.67
268.892	24.58
269.108	26.62
269.324	43.01
269.54	98.3
269.756	61.44
269.972	-57.34
270.188	-98.3
270.403	43.01
270.619	-8.19
270.835	-14.34
271.051	10.24
271.267	-38.91
271.483	-8.19
271.698	-73.73
271.914	100.35
272.13	-4.1
272.346	-8.19
272.562	-6.14
272.777	47.1
272.993	6.14
273.209	61.44
273.425	49.15
273.64	14.34
273.856	20.48
274.072	12.29
274.287	30.72
274.503	-24.58
274.719	24.58
274.934	16.38
275.15	77.82
275.366	-4.1
275.581	-45.06
275.797	57.34
276.012	36.86
276.228	10.24
276.444	2.05
276.659	49.15
276.875	6.14
277.09	-38.91
277.306	30.72
277.521	86.01
277.737	-4.1
277.952	26.62
278.168	6.14
278.383	16.38
278.599	16.38
278.814	65.54
279.03	63.49
279.245	59.39
279.461	-12.29
279.676	102.4
279.892	51.2
280.107	34.82
280.322	-53.25
280.538	-16.38
280.753	6.14
280.969	26.62
281.184	10.24
281.399	88.06
281.615	-30.72
281.83	-8.19
282.045	16.38
282.26	-6.14
282.476	-86.01
282.691	38.91
282.906	18.43
283.122	26.62
283.337	8.19
283.552	-4.1
283.767	40.96
283.983	45.06
284.198	49.15
284.413	75.77
284.628	-18.43
284.843	30.72
285.058	24.58
285.274	-69.63
285.489	4.1
285.704	-4.1
285.919	10.24
286.134	-8.19
286.349	20.48
286.564	-57.34
286.779	12.29
286.995	-38.91
287.21	-43.01
287.425	-30.72
287.64	32.77
287.855	26.62
288.07	40.96
288.285	20.48
288.5	12.29
288.715	59.39
288.93	-51.2
289.145	-6.14
289.36	18.43
289.575	-49.15
289.79	53.25
290.004	40.96
290.219	24.58
290.434	-14.34
290.649	92.16
290.864	-26.62
291.079	0
291.294	4.1
291.509	20.48
291.724	-55.3
291.938	94.21
292.153	86.01
292.368	-24.58
292.583	24.58
292.798	20.48
293.012	20.48
293.227	-26.62
293.442	-10.24
293.657	67.58
293.871	-26.62
294.086	2.05
294.301	-8.19
294.516	53.25
294.73	10.24
294.945	38.91
295.16	47.1
295.374	12.29
295.589	28.67
295.804	24.58
296.018	20.48
296.233	12.29
296.447	-4.1
296.662	36.86
296.877	34.82
297.091	55.3
297.306	2.05
297.52	6.14
297.735	-30.72
297.949	28.67
298.164	-51.2
298.378	24.58
298.593	32.77
298.807	-92.16
299.022	4.1
299.236	14.34
299.451	-22.53
299.665	-2.05
299.88	32.77
300.094	-57.34
300.309	69.63
300.523	-57.34
300.737	-38.91
300.952	30.72
301.166	-18.43
301.381	49.15
301.595	-38.91
301.809	2.05
302.024	28.67
302.238	-59.39
302.452	24.58
302.667	-53.25
302.881	24.58
303.095	43.01
303.309	-10.24
303.524	-16.38
303.738	59.39
303.952	10.24
304.166	12.29
304.381	-20.48
304.595	2.05
304.809	-14.34
305.023	12.29
305.237	16.38
305.452	47.1
305.666	40.96
305.88	38.91
306.094	6.14
306.308	16.38
306.522	-12.29
306.736	-14.34
306.95	22.53
307.164	53.25
307.379	73.73
307.593	30.72
307.807	83.97
308.021	-55.3
308.235	0
308.449	-24.58
308.663	-4.1
308.877	-2.05
309.091	26.62
309.305	43.01
309.519	-10.24
309.733	-32.77
309.947	12.29
310.161	32.77
310.374	12.29
310.588	38.91
310.802	-57.34
311.016	49.15
311.23	-69.63
311.444	-8.19
311.658	-28.67
311.872	-18.43
312.085	28.67
312.299	65.54
312.513	77.82
312.727	22.53
312.941	-28.67
313.154	10.24
313.368	20.48
313.582	-22.53
313.796	-40.96
314.009	24.58
314.223	18.43
314.437	18.43
314.651	49.15
314.864	-12.29
315.078	-36.86
315.292	26.62
315.505	55.3
315.719	24.58
315.933	4.1
316.146	-26.62
316.36	2.05
316.573	34.82
316.787	26.62
317.001	22.53
317.214	-22.53
317.428	34.82
317.641	30.72
317.855	-18.43
318.068	61.44
318.282	55.3
318.495	53.25
318.709	0
318.922	-18.43
319.136	122.88
319.349	22.53
319.563	40.96
319.776	47.1
319.99	34.82
320.203	96.25
320.417	49.15
320.63	47.1
320.843	30.72
321.057	43.01
321.27	108.54
321.483	20.48
321.697	51.2
321.91	73.73
322.124	18.43
322.337	-6.14
322.55	18.43
322.763	30.72
322.977	-12.29
323.19	8.19
323.403	18.43
323.617	10.24
323.83	6.14
324.043	0
324.256	24.58
324.469	-61.44
324.683	59.39
324.896	30.72
325.109	4.1
325.322	-90.11
325.535	88.06
325.748	49.15
325.962	38.91
326.175	12.29
326.388	43.01
326.601	79.87
326.814	-34.82
327.027	83.97
327.24	20.48
327.453	40.96
327.666	81.92
327.879	53.25
328.092	-2.05
328.305	20.48
328.518	59.39
328.731	26.62
328.944	0
329.157	67.58
329.37	-49.15
329.583	20.48
329.796	28.67
330.009	12.29
330.222	28.67
330.435	49.15
330.648	-34.82
330.861	-26.62
331.073	14.34
331.286	-6.14
331.499	26.62
331.712	16.38
331.925	32.77
332.138	26.62
332.35	12.29
332.563	-71.68
332.776	-14.34
332.989	40.96
333.202	38.91
333.414	-4.1
333.627	0
333.84	6.14
334.053	-38.91
334.265	-63.49
334.478	-22.53
334.691	-49.15
334.903	14.34
335.116	71.68
335.329	40.96
335.541	-2.05
335.754	51.2
335.966	4.1
336.179	-16.38
336.392	-51.2
336.604	0
336.817	-22.53
337.029	61.44
337.242	-6.14
337.454	51.2
337.667	24.58
337.88	-2.05
338.092	67.58
338.305	-2.05
338.517	32.77
338.729	18.43
338.942	-38.91
339.154	20.48
339.367	12.29
339.579	26.62
339.792	-8.19
340.004	22.53
340.217	20.48
340.429	20.48
340.641	30.72
340.854	43.01
341.066	-53.25
341.278	71.68
341.491	-8.19
341.703	-40.96
341.915	-40.96
342.128	26.62
342.34	22.53
342.552	-16.38
342.764	4.1
342.977	-8.19
343.189	-22.53
343.401	71.68
343.613	8.19
343.826	-40.96
344.038	-34.82
344.25	43.01
344.462	38.91
344.674	36.86
344.886	81.92
345.099	32.77
345.311	45.06
345.523	-8.19
345.735	-26.62
345.947	45.06
346.159	-6.14
346.371	45.06
346.583	34.82
346.795	34.82
347.007	-30.72
347.219	6.14
347.431	-26.62
347.643	36.86
347.855	24.58
348.067	-4.1
348.279	-30.72
348.491	24.58
348.703	40.96
348.915	30.72
349.127	2.05
349.339	43.01
349.551	-53.25
349.763	-18.43
349.975	-38.91
350.187	86.01
350.399	-4.1
350.61	49.15
350.822	-24.58
351.034	-2.05
351.246	49.15
351.458	16.38
351.669	53.25
351.881	-53.25
352.093	0
352.305	26.62
352.517	34.82
352.728	45.06
352.94	65.54
353.152	-36.86
353.363	40.96
353.575	24.58
353.787	53.25
353.999	26.62
354.21	-8.19
354.422	-22.53
354.633	10.24
354.845	36.86
355.057	10.24
355.268	47.1
355.48	-14.34
355.692	-10.24
355.903	-8.19
356.115	61.44
356.326	-69.63
356.538	79.87
356.749	-16.38
356.961	104.45
357.172	18.43
357.384	-22.53
357.595	32.77
357.807	45.06
358.018	38.91
358.23	-4.1
358.441	-12.29
358.653	38.91
358.864	-6.14
359.075	40.96
359.287	26.62
359.498	22.53
359.709	26.62
359.921	24.58
360.132	131.07
360.344	53.25
360.555	6.14
360.766	30.72
360.977	10.24
361.189	32.77
361.4	16.38
361.611	-10.24
361.823	2.05
362.034	-40.96
362.245	-34.82
362.456	-24.58
362.667	61.44
362.879	26.62
363.09	8.19
363.301	-14.34
363.512	-18.43
363.723	-6.14
363.935	-4.1
364.146	-24.58
364.357	-65.54
364.568	4.1
364.779	40.96
364.99	88.06
365.201	-26.62
365.412	86.01
365.623	-10.24
365.834	-28.67
366.045	38.91
366.256	28.67
366.467	67.58
366.678	28.67
366.889	4.1
367.1	38.91
367.311	10.24
367.522	55.3
367.733	47.1
367.944	26.62
368.155	-43.01
368.366	40.96
368.577	6.14
368.788	14.34
368.999	26.62
369.209	47.1
369.42	43.01
369.631	43.01
369.842	32.77
370.053	4.1
370.264	24.58
370.474	-28.67
370.685	-47.1
370.896	14.34
371.107	43.01
371.317	20.48
371.528	20.48
371.739	4.1
371.95	2.05
372.16	-2.05
372.371	-79.87
372.582	77.82
372.792	-20.48
373.003	71.68
373.214	20.48
373.424	24.58
373.635	20.48
373.846	-2.05
374.056	47.1
374.267	53.25
374.477	-10.24
374.688	6.14
374.898	12.29
375.109	30.72
375.319	-20.48
375.53	32.77
375.74	8.19
375.951	63.49
376.161	51.2
376.372	59.39
376.582	-12.29
376.793	-4.1
377.003	-79.87
377.214	2.05
377.424	45.06
377.635	-8.19
377.845	-8.19
378.055	53.25
378.266	-18.43
378.476	18.43
378.686	24.58
378.897	6.14
379.107	53.25
379.317	8.19
379.528	6.14
379.738	51.2
379.948	26.62
380.158	34.82
380.369	40.96
380.579	94.21
380.789	16.38
380.999	-57.34
381.21	-8.19
381.42	-43.01
381.63	-53.25
381.84	-38.91
382.05	49.15
382.261	-30.72
382.471	8.19
382.681	-4.1
382.891	-14.34
383.101	0
383.311	-53.25
383.521	83.97
383.731	16.38
383.941	38.91
384.151	30.72
384.361	-30.72
384.571	-2.05
384.781	88.06
384.991	67.58
385.201	22.53
385.411	92.16
385.621	49.15
385.831	40.96
386.041	2.05
386.251	12.29
386.461	83.97
386.671	18.43
386.881	55.3
387.091	-63.49
387.301	34.82
387.511	2.05
387.72	63.49
387.93	20.48
388.14	43.01
388.35	-16.38
388.56	26.62
388.769	47.1
388.979	18.43
389.189	-32.77
389.399	43.01
389.609	67.58
389.818	34.82
390.028	-4.1
390.238	61.44
390.447	-12.29
390.657	40.96
390.867	71.68
391.076	22.53
391.286	-26.62
391.496	10.24
391.705	2.05
391.915	-2.05
392.125	12.29
392.334	26.62
392.544	20.48
392.753	22.53
392.963	-4.1
393.172	8.19
393.382	30.72
393.591	16.38
393.801	10.24
394.01	96.25
394.22	38.91
394.429	83.97
394.639	-6.14
394.848	59.39
395.058	8.19
395.267	10.24
395.477	59.39
395.686	88.06
395.895	40.96
396.105	30.72
396.314	8.19
396.524	45.06
396.733	18.43
396.942	59.39
397.152	36.86
397.361	77.82
397.57	4.1
397.78	-2.05
397.989	-63.49
398.198	40.96
398.407	71.68
398.617	-2.05
398.826	-57.34
399.035	53.25
399.244	16.38
399.453	63.49
399.663	-2.05
399.872	24.58
400.081	79.87
400.29	71.68
400.499	57.34
400.708	114.69
400.917	71.68
401.127	-4.1
401.336	55.3
401.545	79.87
401.754	-4.1
401.963	86.01
402.172	43.01
402.381	6.14
402.59	69.63
402.799	55.3
403.008	-4.1
403.217	102.4
403.426	59.39
403.635	106.49
403.844	126.97
404.053	77.82
404.262	47.1
404.471	114.69
404.68	83.97
404.888	67.58
405.097	94.21
405.306	49.15
405.515	-10.24
405.724	4.1
405.933	90.11
406.142	139.26
406.35	106.49
406.559	126.97
406.768	75.77
406.977	86.01
407.185	129.02
407.394	55.3
407.603	67.58
407.812	108.54
408.02	100.35
408.229	133.12
408.438	100.35
408.646	77.82
408.855	122.88
409.064	100.35
409.272	155.65
409.481	77.82
409.69	118.78
409.898	104.45
410.107	147.45
410.315	174.08
410.524	120.83
410.733	188.41
410.941	98.3
411.15	104.45
411.358	104.45
411.567	151.55
411.775	157.69
411.984	155.65
412.192	225.28
412.401	217.08
412.609	169.98
412.818	253.95
413.026	188.41
413.234	253.95
413.443	245.76
413.651	225.28
413.86	143.36
414.068	258.04
414.276	256
414.485	280.57
414.693	325.63
414.901	280.57
415.11	282.62
415.318	309.24
415.526	311.29
415.734	350.2
415.943	348.15
416.151	331.77
416.359	352.25
416.567	407.55
416.776	411.64
416.984	352.25
417.192	483.32
417.4	368.63
417.608	417.79
417.817	407.55
418.025	450.55
418.233	516.09
418.441	497.66
418.649	595.96
418.857	622.58
419.065	557.05
419.273	499.7
419.481	608.25
419.689	653.3
419.897	614.39
420.105	579.58
420.313	591.86
420.521	720.88
420.729	747.51
420.937	755.7
421.145	671.73
421.353	804.85
421.561	886.77
421.769	819.19
421.977	864.24
422.185	890.87
422.393	907.25
422.601	1044.46
422.809	980.98
423.017	978.93
423.224	1058.8
423.432	1005.55
423.64	1011.7
423.848	1165.29
424.056	1144.81
424.263	1234.93
424.471	1101.81
424.679	1239.02
424.887	1404.91
425.094	1374.19
425.302	1288.17
425.51	1400.81
425.718	1507.31
425.925	1589.22
426.133	1445.87
426.341	1638.37
426.548	1673.19
426.756	1738.73
426.964	1732.58
427.171	1789.92
427.379	1810.4
427.586	1923.04
427.794	2023.39
428.001	2103.26
428.209	2045.92
428.417	2127.84
428.624	2144.22
428.832	2148.32
429.039	2263.01
429.247	2183.13
429.454	2389.98
429.662	2664.41
429.869	2451.42
430.076	2564.06
430.284	2400.22
430.491	2643.93
430.699	2676.7
430.906	2838.48
431.114	2785.24
431.321	2899.92
431.528	2955.22
431.736	3026.9
431.943	3246.03
432.15	3139.54
432.358	3272.65
432.565	3473.36
432.772	3407.82
432.979	3436.49
433.187	3653.58
433.394	3594.19
433.601	3983.3
433.808	3989.44
434.016	3811.27
434.223	4110.27
434.43	4444.09
434.637	4192.19
434.844	4331.45
435.052	4622.27
435.259	4589.5
435.466	4612.03
435.673	4517.82
435.88	4747.19
436.087	5009.33
436.294	5119.92
436.501	4933.56
436.708	5115.83
436.915	5066.67
437.122	5414.83
437.329	5398.45
437.537	5611.43
437.743	5715.88
437.95	5693.35
438.157	5922.73
438.364	6111.14
438.571	6133.67
438.778	6051.75
438.985	6698.91
439.192	6430.62
439.399	6694.81
439.606	6535.07
439.813	6842.26
440.02	7241.62
440.227	7184.27
440.433	6954.9
440.64	7303.06
440.847	7292.82
441.054	7643.02
441.261	7991.17
441.467	7868.3
441.674	8148.87
441.881	8478.59
442.088	8279.94
442.294	8329.09
442.501	8511.36
442.708	8654.72
442.914	8914.81
443.121	9570.16
443.328	9101.17
443.534	9729.9
443.741	9574.25
443.948	9424.75
444.154	9963.37
444.361	9922.41
444.568	10180.45
444.774	10022.76
444.981	10278.76
445.187	10571.61
445.394	10913.63
445.6	10665.82
445.807	11835.21
446.013	11192.15
446.22	11431.76
446.426	11994.95
446.633	12031.82
446.839	12535.62
447.046	12087.11
447.252	12787.52
447.459	12523.33
447.665	12683.07
447.871	13102.9
448.078	13756.21
448.284	13039.42
448.491	13238.07
448.697	13784.88
448.903	13987.63
449.11	14290.73
449.316	13922.09
449.522	13952.81
449.728	14546.72
449.935	14415.65
450.141	14530.34
450.347	14995.23
450.553	14257.96
450.76	14733.09
450.966	15191.83
451.172	14935.84
451.378	15372.05
451.584	15224.6
451.791	15449.88
451.997	15349.53
452.203	15570.71
452.409	15509.27
452.615	15472.4
452.821	15019.8
453.027	14700.32
453.233	15511.32
453.44	14858.01
453.646	14999.32
453.852	15015.71
454.058	15183.64
454.264	14710.56
454.47	15073.05
454.676	14720.8
454.882	15279.89
455.088	13942.57
455.294	14059.31
455.5	14083.88
455.705	14554.91
455.911	13739.82
456.117	13637.42
456.323	13299.51
456.529	12621.63
456.735	12996.41
456.941	13000.51
457.147	12592.96
457.352	12207.94
457.558	12296
457.764	12191.56
457.97	11870.03
458.176	11466.58
458.381	11624.27
458.587	11175.77
458.793	10993.5
458.999	10387.3
459.204	11231.06
459.41	10841.95
459.616	10223.46
459.821	10293.09
460.027	10037.09
460.233	9791.34
460.438	9459.57
460.644	9447.28
460.85	9168.76
461.055	8900.47
461.261	8949.62
461.466	8238.98
461.672	8116.1
461.878	8740.73
462.083	8030.09
462.289	8173.44
462.494	7987.08
462.7	7567.24
462.905	7468.94
463.111	7614.35
463.316	7636.88
463.522	7491.47
463.727	7411.6
463.932	7448.46
464.138	7440.27
464.343	7405.45
464.549	7382.93
464.754	7497.61
464.959	7356.3
465.165	7442.32
465.37	7073.68
465.575	6838.17
465.781	7290.77
465.986	7219.09
466.191	6879.13
466.397	6899.61
466.602	6477.73
466.807	6686.62
467.012	6647.71
467.218	6799.26
467.423	6514.59
467.628	6825.88
467.833	6950.81
468.038	6569.88
468.244	6426.53
468.449	6772.63
468.654	6549.4
468.859	6461.34
469.064	6543.26
469.269	6119.33
469.474	6289.31
469.679	6465.44
469.885	6045.6
470.09	6186.91
470.295	6098.85
470.5	6139.81
470.705	6287.26
470.91	5998.5
471.115	5877.67
471.32	6035.36
471.525	5988.26
471.73	5961.64
471.935	5654.44
472.139	5633.96
472.344	5707.69
472.549	5732.26
472.754	5578.67
472.959	5562.28
473.164	5408.69
473.369	5308.34
473.574	5578.67
473.778	5349.29
473.983	5535.66
474.188	5281.71
474.393	5275.57
474.598	5146.55
474.802	5042.1
475.007	4882.36
475.212	5058.48
475.417	4960.18
475.621	4726.71
475.826	4802.49
476.031	4847.54
476.235	4782.01
476.44	4775.86
476.645	4622.27
476.849	4581.31
477.054	4538.3
477.259	4648.89
477.463	4499.39
477.668	4526.01
477.872	4507.58
478.077	4366.27
478.282	4485.05
478.486	4313.02
478.691	4423.61
478.895	4325.31
479.1	4237.25
479.304	4394.94
479.509	4050.88
479.713	4198.34
479.918	4077.51
480.122	4102.08
480.326	3997.64
480.531	4167.62
480.735	4044.74
480.94	4038.59
481.144	4218.82
481.348	3999.68
481.553	3983.3
481.757	3950.53
481.961	3940.29
482.166	4120.51
482.37	3956.68
482.574	3921.86
482.778	4032.45
482.983	4009.92
483.187	4016.07
483.391	4118.47
483.595	3831.75
483.8	3905.48
484.004	4014.02
484.208	4065.22
484.412	3964.87
484.616	3981.25
484.821	3868.61
485.025	3813.32
485.229	4050.88
485.433	3925.96
485.637	3958.72
485.841	3919.81
486.045	3973.06
486.249	3993.54
486.453	3925.96
486.657	3895.24
486.861	3846.09
487.065	3778.5
487.269	3901.38
487.473	3786.69
487.677	3971.01
487.881	3975.11
488.085	4034.5
488.289	3979.2
488.493	3901.38
488.697	4077.51
488.901	4106.18
489.105	3975.11
489.309	4052.93
489.512	4046.79
489.716	4087.75
489.92	4042.69
490.124	3868.61
490.328	4018.11
490.531	3893.19
490.735	4030.4
490.939	4059.07
491.143	4140.99
491.346	4261.82
491.55	4106.18
491.754	4069.31
491.958	4267.97
492.161	4140.99
492.365	4220.86
492.569	4227.01
492.772	4177.86
492.976	4325.31
493.18	4288.45
493.383	4284.35
493.587	4353.98
493.79	4370.37
493.994	4571.07
494.197	4407.23
494.401	4366.27
494.605	4554.68
494.808	4401.08
495.012	4573.11
495.215	4558.78
495.419	4741.05
495.622	4683.7
495.825	4585.4
496.029	4730.81
496.232	4839.35
496.436	4794.29
496.639	4896.69
496.843	4954.04
497.046	5097.39
497.249	5019.57
497.453	5021.62
497.656	5087.15
497.859	5367.73
498.063	5199.79
498.266	5408.69
498.469	5341.1
498.673	5269.42
498.876	5513.13
499.079	5480.36
499.282	5519.28
499.485	5660.59
499.689	5726.12
499.892	5826.47
500.095	5838.76
500.298	5957.54
500.501	6043.56
500.705	6037.41
500.908	6199.2
501.111	6268.83
501.314	6262.69
501.517	6291.36
501.72	6399.9
501.923	6475.68
502.126	6709.15
502.329	6780.82
502.532	6784.92
502.735	6705.05
502.938	6936.47
503.141	6877.08
503.344	7124.88
503.547	7161.75
503.75	7270.29
503.953	7427.98
504.156	7382.93
504.359	7499.66
504.562	7608.2
504.765	7677.83
504.968	7702.41
505.17	7829.38
505.373	7956.36
505.576	8222.59
505.779	8284.03
505.982	8419.2
506.185	8554.37
506.387	8492.93
506.59	8658.81
506.793	8855.42
506.996	8859.51
507.198	8896.38
507.401	8951.67
507.604	9009.01
507.807	9238.39
508.009	9369.46
508.212	9410.42
508.415	9535.34
508.617	9613.17
508.82	9848.68
509.022	9758.57
509.225	10059.62
509.428	10092.39
509.63	10260.32
509.833	10295.14
510.035	10569.57
510.238	10497.89
510.44	10731.36
510.643	11056.98
510.845	11157.33
511.048	11040.6
511.25	11464.53
511.453	11464.53
511.655	11677.52
511.858	11542.35
512.06	11558.74
512.262	11779.92
512.465	12037.96
512.667	12105.54
512.87	12554.05
513.072	12427.07
513.274	12240.71
513.477	12683.07
513.679	12912.44
513.881	13236.02
514.084	13285.17
514.286	13215.54
514.488	13401.91
514.69	13700.91
514.893	13805.36
515.095	13887.28
515.297	14030.63
515.499	14137.13
515.701	14599.97
515.904	14702.37
516.106	14663.46
516.308	15019.8
516.51	15152.92
516.712	15169.3
516.914	15189.78
517.116	15744.78
517.318	15767.31
517.52	15898.38
517.722	15789.84
517.925	16137.99
518.127	16320.26
518.329	16625.41
518.531	16563.97
518.733	16813.82
518.935	16996.09
519.136	17227.51
519.338	17469.17
519.54	17559.28
519.742	17725.17
519.944	17561.33
520.146	18280.17
520.348	18251.5
520.55	18407.14
520.752	18288.36
520.954	18925.28
521.155	18915.04
521.357	19177.18
521.559	19431.13
521.761	19480.28
521.963	19648.21
522.164	19525.33
522.366	19562.2
522.568	20115.15
522.77	20139.72
522.971	20360.91
523.173	20541.13
523.375	20682.44
523.576	20639.43
523.778	20838.08
523.98	21167.8
524.181	21145.28
524.383	21305.02
524.584	21468.86
524.786	21655.22
524.988	21616.31
525.189	21776.05
525.391	22081.2
525.592	22021.81
525.794	22486.7
525.995	22150.83
526.197	22437.55
526.398	22113.97
526.6	22519.46
526.801	23008.93
527.003	23176.86
527.204	22951.59
527.406	23144.09
527.607	23023.26
527.808	23367.32
528.01	23078.56
528.211	23412.38
528.412	23975.57
528.614	23692.95
528.815	23633.56
529.016	23871.12
529.218	23821.97
529.419	23785.11
529.62	24026.77
529.822	24047.25
530.023	24192.65
530.224	24202.89
530.425	24028.82
530.626	24209.04
530.828	23961.23
531.029	24471.18
531.23	24233.61
531.431	24387.21
531.632	24532.62
531.833	24802.95
532.035	24774.28
532.236	24831.62
532.437	24946.31
532.638	24397.45
532.839	24999.55
533.04	24899.2
533.241	24630.92
533.442	25001.6
533.643	24786.57
533.844	24913.54
534.045	25034.37
534.246	24585.86
534.447	25300.61
534.648	24841.86
534.849	25030.27
535.05	24827.53
535.251	25075.33
535.451	25087.62
535.652	25210.5
535.853	24938.12
536.054	25024.13
536.255	25106.05
536.456	25069.19
536.657	25626.23
536.857	25120.38
537.058	24899.2
537.259	25388.67
537.46	25128.58
537.66	25175.68
537.861	25024.13
538.062	25314.94
538.263	25372.28
538.463	25235.07
538.664	25159.3
538.865	25106.05
539.065	25462.4
539.266	24974.98
539.466	25243.26
539.667	25044.61
539.868	25083.52
540.068	25210.5
540.269	24821.38
540.469	25124.48
540.67	25251.45
540.87	25345.66
541.071	25310.85
541.271	25405.05
541.472	25314.94
541.672	25147.01
541.873	25071.23
542.073	24866.44
542.274	25159.3
542.474	25335.42
542.675	24944.26
542.875	25622.14
543.075	25216.64
543.276	24972.93
543.476	25161.34
543.676	25001.6
543.877	25185.92
544.077	25214.59
544.277	25202.3
544.478	25099.9
544.678	25378.43
544.878	25398.91
545.078	25417.34
545.279	25017.99
545.479	25316.99
545.679	25345.66
545.879	25241.21
546.079	25138.82
546.28	25151.1
546.48	25222.78
546.68	25101.95
546.88	25409.15
547.08	25400.96
547.28	25175.68
547.48	25030.27
547.68	25075.33
547.88	25060.99
548.081	25372.28
548.281	25093.76
548.481	25042.56
548.681	25425.53
548.881	25190.02
549.081	25360
549.28	25239.17
549.48	25290.37
549.68	24755.85
549.88	25550.46
550.08	24970.88
550.28	25134.72
550.48	24901.25
550.68	25300.61
550.88	24974.98
551.08	24962.69
551.279	24977.03
551.479	24745.61
551.679	25058.95
551.879	25196.16
552.079	25038.47
552.278	25206.4
552.478	25032.32
552.678	25319.04
552.878	25411.2
553.077	25079.43
553.277	24950.4
553.477	25194.11
553.676	24983.17
553.876	25009.79
554.076	25126.53
554.275	25007.75
554.475	24438.41
554.674	24909.44
554.874	24987.27
555.074	24761.99
555.273	25267.84
555.473	25099.9
555.672	24714.89
555.872	24934.02
556.071	24563.34
556.271	24956.55
556.47	24805
556.67	24684.17
556.869	24741.51
557.068	24864.39
557.268	24534.67
557.467	24518.28
557.667	24530.57
557.866	24512.14
558.065	24385.16
558.265	24462.99
558.464	24610.44
558.663	24510.09
558.863	24092.3
559.062	24942.21
559.261	23998.1
559.461	24225.42
559.66	23809.68
559.859	24155.79
560.058	23940.75
560.258	24002.19
560.457	24053.39
560.656	24313.48
560.855	23676.57
561.054	24352.4
561.253	23658.13
561.453	23760.53
561.652	23891.6
561.851	23965.33
562.05	23830.16
562.249	23623.32
562.448	23701.14
562.647	23703.19
562.846	23426.71
563.045	23721.62
563.244	23248.54
563.443	23692.95
563.642	23217.82
563.841	23303.84
564.04	23070.37
564.239	23529.11
564.438	23197.34
564.637	23234.21
564.836	23172.77
565.035	22914.72
565.234	23144.09
565.432	23133.85
565.631	23189.15
565.83	23180.96
566.029	22935.2
566.228	22505.13
566.427	22697.64
566.625	22382.25
566.824	22578.86
567.023	22787.75
567.222	22316.72
567.42	22585
567.619	22472.36
567.818	22152.88
568.016	22261.42
568.215	22529.7
568.414	22300.33
568.612	22120.11
568.811	21935.79
569.01	22040.24
569.208	21743.28
569.407	21935.79
569.605	21747.38
569.804	22085.29
570.002	21698.23
570.201	21669.56
570.4	21700.28
570.598	21561.01
570.797	21558.97
570.995	21614.26
571.193	21231.29
571.392	21438.14
571.59	20950.72
571.789	21130.94
571.987	20989.63
572.186	21135.04
572.384	20680.39
572.582	20876.99
572.781	20760.26
572.979	20790.98
573.177	21020.35
573.376	20676.29
573.574	20614.85
573.772	20752.07
573.971	20700.87
574.169	20369.1
574.367	20123.34
574.565	20342.47
574.763	20096.72
574.962	20221.64
575.16	19785.43
575.358	20070.09
575.556	19840.72
575.754	20334.28
575.952	20045.52
576.151	19885.78
576.349	19627.73
576.547	19687.12
576.745	19836.63
576.943	19623.64
577.141	19621.59
577.339	19500.76
577.537	19418.84
577.735	19371.74
577.933	19105.5
578.131	19345.11
578.329	19226.33
578.527	19381.98
578.725	18837.22
578.923	18935.52
579.121	18904.8
579.319	18779.87
579.516	18853.6
579.714	18734.82
579.912	18833.12
580.11	18489.06
580.308	18542.31
580.506	18511.59
580.704	18198.25
580.901	18421.48
581.099	18515.69
581.297	18507.49
581.495	18065.13
581.692	18409.19
581.89	17889.01
582.088	17962.73
582.285	18136.81
582.483	17915.63
582.681	18099.95
582.878	17561.33
583.076	17751.79
583.274	17970.93
583.471	17733.36
583.669	17659.63
583.866	17622.77
584.064	17700.59
584.262	17454.84
584.459	17751.79
584.657	17299.19
584.854	17444.6
585.052	17202.94
585.249	17182.46
585.447	17295.1
585.644	17102.59
585.841	16803.58
586.039	17133.31
586.236	16873.21
586.434	16893.69
586.631	16770.82
586.828	16826.11
587.026	16779.01
587.223	16725.76
587.42	16514.82
587.618	16625.41
587.815	16461.57
588.012	16584.45
588.21	16101.13
588.407	16467.72
588.604	16205.58
588.801	16445.19
588.999	16301.83
589.196	15988.49
589.393	16316.17
589.59	16127.75
589.787	15988.49
589.984	15773.46
590.182	15906.57
590.379	15789.84
590.576	15959.82
590.773	15709.97
590.97	15857.42
591.167	15808.27
591.364	15707.92
591.561	15370.01
591.758	15646.48
591.955	15699.73
592.152	15666.96
592.349	15370.01
592.546	15159.06
592.743	15630.1
592.94	15251.22
593.137	15216.41
593.334	15296.28
593.531	15111.96
593.727	15312.66
593.924	15345.43
594.121	15019.8
594.318	14839.58
594.515	14901.02
594.712	14956.32
594.908	14929.69
595.105	14808.86
595.302	14778.14
595.499	14587.68
595.696	14606.11
595.892	14622.5
596.089	14602.02
596.286	14614.3
596.482	14522.15
596.679	14413.6
596.876	14339.88
597.072	14348.07
597.269	14272.29
597.466	14147.37
597.662	14300.97
597.859	14079.79
598.055	14208.81
598.252	13895.47
598.448	14167.85
598.645	14038.83
598.841	14038.83
599.038	13950.76
599.234	13926.19
599.431	13895.47
599.627	13930.28
599.824	13879.08
600.02	13895.47
600.217	13750.06
600.413	13606.7
600.609	13729.58
600.806	13621.04
601.002	13492.02
601.198	13510.45
601.395	13438.77
601.591	13461.3
601.787	13496.11
601.984	13250.36
602.18	13426.48
602.376	13322.04
602.572	13121.34
602.769	13055.8
602.965	12988.22
603.161	13063.99
603.357	13170.49
603.553	12842.81
603.75	13031.23
603.946	12803.9
604.142	12896.06
604.338	12769.09
604.534	12846.91
604.73	12586.82
604.926	12474.18
605.122	12838.72
605.318	12797.76
605.514	12433.22
605.71	12590.91
605.906	12375.88
606.102	12527.42
606.298	12582.72
606.494	12459.84
606.69	12287.81
606.886	12021.58
607.082	12042.06
607.278	12183.37
607.474	12199.75
607.67	12273.48
607.866	11921.23
608.062	12093.26
608.257	11947.85
608.453	12015.43
608.649	12140.36
608.845	11972.43
609.041	11761.48
609.236	11833.16
609.432	11669.33
609.628	11896.65
609.824	11841.36
610.019	11519.82
610.215	11765.58
610.411	11913.03
610.606	11562.83
610.802	11452.24
610.998	11509.58
611.193	11435.86
611.389	11474.77
611.584	11298.64
611.78	11315.03
611.976	11380.56
612.171	11274.07
612.367	11272.02
612.562	11319.12
612.758	11050.84
612.953	11089.75
613.149	11245.4
613.344	11079.51
613.539	11200.34
613.735	11097.94
613.93	11079.51
614.126	11157.33
614.321	11108.18
614.517	11028.31
614.712	10858.33
614.907	10764.12
615.103	10907.48
615.298	10727.26
615.493	10870.62
615.688	10379.11
615.884	10833.75
616.079	10479.46
616.274	10618.72
616.47	10831.71
616.665	10741.6
616.86	10667.87
617.055	10641.25
617.25	10704.73
617.445	10649.44
617.641	10411.87
617.836	10270.56
618.031	10448.74
618.226	10473.31
618.421	10329.95
618.616	10405.73
618.811	10098.53
619.006	10483.55
619.201	10196.84
619.396	10182.5
619.591	10037.09
619.786	9865.07
619.981	10100.58
620.176	9906.02
620.371	9820.01
620.566	10096.49
620.761	9826.15
620.956	9834.35
621.151	9465.71
621.346	9748.33
621.541	9572.21
621.735	9885.55
621.93	9723.76
622.125	9586.54
622.32	9230.2
622.515	9373.55
622.709	9457.52
622.904	9361.27
623.099	9287.54
623.294	9176.95
623.488	9056.12
623.683	8980.34
623.878	9103.22
624.072	9185.14
624.267	8951.67
624.462	9037.69
624.656	8927.1
624.851	8843.13
625.046	8650.62
625.24	8648.57
625.435	8656.76
625.629	8607.61
625.824	8861.56
626.018	8378.24
626.213	8408.96
626.407	8632.19
626.602	8380.29
626.796	8267.65
626.991	8294.27
627.185	8351.62
627.38	8118.15
627.574	8261.51
627.768	8077.19
627.963	8042.37
628.157	7909.26
628.352	7966.6
628.546	7921.54
628.74	7997.32
628.935	7810.95
629.129	7888.78
629.323	7706.51
629.517	7815.05
629.712	7593.87
629.906	7620.49
630.1	7557
630.294	7538.57
630.489	7634.83
630.683	7485.33
630.877	7550.86
631.071	7436.17
631.265	7503.76
631.459	7196.56
631.653	7270.29
631.848	7339.92
632.042	7268.24
632.236	7184.27
632.43	7102.36
632.624	7077.78
632.818	7110.55
633.012	7083.92
633.206	7163.79
633.4	6987.67
633.594	6907.8
633.788	6973.33
633.982	6965.14
634.176	6862.74
634.369	6746.01
634.563	6764.44
634.757	6645.66
634.951	6692.76
635.145	6657.95
635.339	6733.72
635.533	6516.64
635.726	6512.54
635.92	6541.21
636.114	6479.77
636.308	6369.18
636.501	6530.97
636.695	6432.67
636.889	6420.38
637.083	6324.13
637.276	6295.46
637.47	6297.5
637.664	6195.11
637.857	6387.61
638.051	6209.44
638.244	6035.36
638.438	6049.7
638.632	6107.04
638.825	6008.74
639.019	6090.66
639.212	5814.18
639.406	6016.93
639.599	5707.69
639.793	5816.23
639.986	5748.65
640.18	5732.26
640.373	5707.69
640.567	5666.73
640.76	5746.6
640.954	5709.74
641.147	5453.74
641.34	5560.24
641.534	5531.56
641.727	5500.84
641.92	5523.37
642.114	5463.98
642.307	5341.1
642.5	5451.69
642.694	5212.08
642.887	5353.39
643.08	5353.39
643.273	5269.42
643.467	5369.77
643.66	5070.77
643.853	5152.69
644.046	5093.3
644.239	4966.32
644.432	4915.12
644.626	4978.61
644.819	5007.28
645.012	5044.15
645.205	4796.34
645.398	4908.98
645.591	4835.25
645.784	4665.27
645.977	4755.38
646.17	4841.4
646.363	4825.01
646.556	4528.06
646.749	4583.35
646.942	4700.09
647.135	4652.98
647.328	4642.75
647.521	4601.79
647.714	4415.42
647.907	4370.37
648.099	4589.5
648.292	4501.44
648.485	4435.9
648.678	4462.52
648.871	4315.07
649.064	4345.79
649.256	4356.03
649.449	4323.26
649.642	4325.31
649.835	4087.75
650.027	4124.61
650.22	4165.57
650.413	4122.56
650.605	4106.18
650.798	4036.55
650.991	3981.25
651.183	4081.6
651.376	4054.98
651.568	3981.25
651.761	3837.89
651.954	3973.06
652.146	3991.49
652.339	3872.71
652.531	3917.76
652.724	3983.3
652.916	3829.7
653.109	3809.22
653.301	3833.8
653.494	3678.15
653.686	3829.7
653.879	3809.22
654.071	3768.26
654.263	3620.81
654.456	3678.15
654.648	3620.81
654.84	3684.3
655.033	3684.3
655.225	3571.66
655.417	3542.99
655.61	3542.99
655.802	3669.96
655.994	3499.98
656.186	3530.7
656.379	3549.13
656.571	3528.65
656.763	3436.49
656.955	3465.16
657.148	3223.5
657.34	3416.01
657.532	3377.1
657.724	3354.57
657.916	3360.72
658.108	3336.14
658.3	3252.17
658.492	3243.98
658.684	3270.61
658.876	3200.98
659.068	3094.48
659.26	3217.36
659.452	3053.52
659.644	3250.13
659.836	3094.48
660.028	3119.06
660.22	3184.59
660.412	3026.9
660.604	3016.66
660.796	2897.88
660.988	3002.32
661.18	2910.16
661.372	2840.53
661.563	2924.5
661.755	2959.31
661.947	2844.63
662.139	2990.03
662.331	2834.39
662.522	2809.81
662.714	2824.15
662.906	2799.57
663.097	2740.18
663.289	2781.14
663.481	2807.77
663.673	2895.83
663.864	2707.41
664.056	2549.72
664.247	2662.36
664.439	2639.83
664.631	2652.12
664.822	2688.98
665.014	2652.12
665.205	2582.49
665.397	2490.33
665.588	2658.26
665.78	2607.06
665.971	2602.97
666.163	2625.5
666.354	2582.49
666.546	2525.15
666.737	2478.04
666.929	2437.08
667.12	2426.84
667.311	2490.33
667.503	2373.6
667.694	2437.08
667.885	2420.7
668.077	2437.08
668.268	2453.47
668.459	2297.82
668.651	2363.36
668.842	2199.52
669.033	2330.59
669.224	2285.53
669.416	2346.97
669.607	2246.62
669.798	2359.26
669.989	2381.79
670.18	2377.69
670.371	2324.44
670.563	2383.84
670.754	2324.44
670.945	2240.48
671.136	2207.71
671.327	2183.13
671.518	2174.94
671.709	2176.99
671.9	2263.01
672.091	2283.49
672.282	2185.18
672.473	2244.57
672.664	2140.13
672.855	2277.34
673.046	2211.81
673.237	2336.73
673.428	2127.84
673.619	2152.42
673.809	2222.05
674	1978.34
674.191	2011.11
674.382	2017.25
674.573	2060.26
674.764	2013.15
674.954	2045.92
675.145	2107.36
675.336	2088.93
675.527	2103.26
675.717	1988.58
675.908	2113.5
676.099	2064.35
676.289	2125.79
676.48	2123.74
676.671	2009.06
676.861	2015.2
677.052	1941.47
677.243	1957.86
677.433	1976.29
677.624	2152.42
677.814	1992.67
678.005	2033.63
678.195	2084.83
678.386	2019.3
678.576	1998.82
678.767	1972.19
678.957	1865.7
679.148	2015.2
679.338	2037.73
679.529	1863.65
679.719	1982.43
679.909	1986.53
680.1	1951.71
680.29	2023.39
680.481	1896.42
680.671	1980.39
680.861	1927.14
681.052	1970.15
681.242	1955.81
681.432	1961.95
681.622	1912.8
681.813	1986.53
682.003	1951.71
682.193	1955.81
682.383	1968.1
682.573	1904.61
682.764	1841.12
682.954	2045.92
683.144	1945.57
683.334	1875.94
683.524	1929.19
683.714	1863.65
683.904	1916.9
684.094	1898.47
684.284	1923.04
684.474	1882.08
684.664	1894.37
684.854	1941.47
685.044	1851.36
685.234	1931.23
685.424	1968.1
685.614	1808.36
685.804	1884.13
685.994	1843.17
686.184	1927.14
686.374	1957.86
686.564	1794.02
686.753	1916.9
686.943	1861.6
687.133	1816.55
687.323	1796.07
687.513	1777.64
687.702	1841.12
687.892	1796.07
688.082	1794.02
688.272	1753.06
688.461	1761.25
688.651	1906.66
688.841	1845.22
689.03	1839.08
689.22	1783.78
689.41	1882.08
689.599	1837.03
689.789	1785.83
689.979	1804.26
690.168	1779.68
690.358	1748.97
690.547	1847.27
690.737	1839.08
690.926	1677.29
691.116	1751.01
691.305	1832.93
691.495	1824.74
691.684	1794.02
691.874	1767.4
692.063	1716.2
692.252	1777.64
692.442	1769.44
692.631	1804.26
692.82	1769.44
693.01	1783.78
693.199	1748.97
693.388	1740.77
693.578	1865.7
693.767	1853.41
693.956	1808.36
694.146	1806.31
694.335	1767.4
694.524	1777.64
694.713	1820.64
694.902	1716.2
695.092	1791.97
695.281	1751.01
695.47	1783.78
695.659	1779.68
695.848	1734.63
696.037	1806.31
696.226	1759.21
696.415	1736.68
696.604	1738.73
696.793	1789.92
696.982	1830.88
697.171	1789.92
697.36	1808.36
697.549	1751.01
697.738	1744.87
697.927	1859.56
698.116	1773.54
698.305	1904.61
698.494	1869.8
698.683	1812.45
698.872	1814.5
699.061	1767.4
699.25	1746.92
699.438	1748.97
699.627	1818.6
699.816	1710.05
700.005	1787.88
700.193	1746.92
700.382	1767.4
700.571	1718.25
700.76	1859.56
700.948	1826.79
701.137	1708.01
701.326	1814.5
701.514	1718.25
701.703	1843.17
701.892	1783.78
702.08	1935.33
702.269	1830.88
702.457	1804.26
702.646	1810.4
702.834	1787.88
703.023	1810.4
703.212	1763.3
703.4	1789.92
703.589	1769.44
703.777	1806.31
703.965	1714.15
704.154	1791.97
704.342	1710.05
704.531	1759.21
704.719	1734.63
704.907	1812.45
705.096	1708.01
705.284	1728.49
705.472	1746.92
705.661	1800.16
705.849	1773.54
706.037	1785.83
706.226	1740.77
706.414	1738.73
706.602	1744.87
706.79	1820.64
706.979	1708.01
707.167	1705.96
707.355	1759.21
707.543	1714.15
707.731	1753.06
707.919	1648.61
708.107	1654.76
708.296	1662.95
708.484	1679.33
708.672	1708.01
708.86	1658.85
709.048	1722.34
709.236	1681.38
709.424	1693.67
709.612	1597.42
709.8	1681.38
709.988	1677.29
710.176	1683.43
710.364	1595.37
710.551	1587.18
710.739	1593.32
710.927	1646.57
711.115	1675.24
711.303	1589.22
711.491	1722.34
711.679	1572.84
711.866	1562.6
712.054	1673.19
712.242	1626.09
712.43	1599.46
712.617	1593.32
712.805	1607.66
712.993	1693.67
713.181	1546.22
713.368	1482.73
713.556	1484.78
713.744	1714.15
713.931	1681.38
714.119	1470.44
714.306	1589.22
714.494	1638.37
714.682	1587.18
714.869	1490.92
715.057	1533.93
715.244	1429.48
715.432	1619.94
715.619	1550.31
715.807	1466.35
715.994	1599.46
716.182	1517.54
716.369	1478.63
716.556	1503.21
716.744	1515.5
716.931	1546.22
717.119	1480.68
717.306	1552.36
717.493	1363.95
717.681	1605.61
717.868	1490.92
718.055	1490.92
718.242	1482.73
718.43	1521.64
718.617	1353.71
718.804	1406.95
718.991	1415.15
719.179	1427.43
719.366	1439.72
719.553	1443.82
719.74	1419.24
719.927	1380.33
720.114	1452.01
720.301	1353.71
720.488	1492.97
720.676	1433.58
720.863	1339.37
721.05	1423.34
721.237	1437.67
721.424	1380.33
721.611	1366
721.798	1366
721.985	1333.23
722.172	1421.29
722.358	1433.58
722.545	1355.76
722.732	1366
722.919	1236.97
723.106	1349.61
723.293	1308.65
723.48	1421.29
723.667	1279.98
723.853	1357.8
724.04	1359.85
724.227	1310.7
724.414	1282.03
724.6	1279.98
724.787	1316.84
724.974	1267.69
725.161	1400.81
725.347	1333.23
725.534	1261.55
725.72	1339.37
725.907	1267.69
726.094	1302.51
726.28	1249.26
726.467	1247.21
726.653	1286.12
726.84	1224.69
727.027	1251.31
727.213	1263.6
727.4	1325.04
727.586	1308.65
727.773	1220.59
727.959	1257.45
728.145	1204.21
728.332	1261.55
728.518	1218.54
728.705	1245.16
728.891	1202.16
729.077	1236.97
729.264	1263.6
729.45	1230.83
729.636	1220.59
729.823	1234.93
730.009	1155.05
730.195	1218.54
730.382	1226.73
730.568	1210.35
730.754	1218.54
730.94	1183.73
731.126	1226.73
731.313	1179.63
731.499	1157.1
731.685	1193.97
731.871	1112.05
732.057	1122.29
732.243	1099.76
732.429	1155.05
732.615	1183.73
732.801	1105.9
732.987	1165.29
733.173	1171.44
733.359	1169.39
733.545	1187.82
733.731	1146.86
733.917	1144.81
734.103	1091.57
734.289	1179.63
734.475	1073.14
734.661	1173.49
734.847	1138.67
735.033	1091.57
735.219	1122.29
735.404	1163.25
735.59	1136.62
735.776	1161.2
735.962	1122.29
736.148	1124.33
736.333	1036.27
736.519	1161.2
736.705	1116.14
736.89	1060.85
737.076	1048.56
737.262	1091.57
737.447	1122.29
737.633	1130.48
737.819	1058.8
738.004	1099.76
738.19	1021.94
738.375	1118.19
738.561	1064.94
738.747	1075.18
738.932	1044.46
739.118	1036.27
739.303	1023.98
739.489	1101.81
739.674	989.17
739.859	1142.77
740.045	980.98
740.23	1028.08
740.416	952.31
740.601	921.59
740.786	1017.84
740.972	1001.46
741.157	1019.89
741.342	1044.46
741.528	968.69
741.713	913.39
741.898	1056.75
742.084	1038.32
742.269	997.36
742.454	946.16
742.639	1052.66
742.824	991.22
743.01	1054.7
743.195	940.02
743.38	925.68
743.565	929.78
743.75	974.83
743.935	972.79
744.12	970.74
744.305	954.35
744.49	925.68
744.675	923.63
744.86	980.98
745.045	872.43
745.23	897.01
745.415	909.3
745.6	899.06
745.785	942.07
745.97	899.06
746.155	882.67
746.34	866.29
746.525	860.15
746.71	913.39
746.895	856.05
747.079	813.04
747.264	788.47
747.449	851.96
747.634	856.05
747.819	866.29
748.003	888.82
748.188	899.06
748.373	903.15
748.557	909.3
748.742	790.52
748.927	817.14
749.111	831.48
749.296	745.46
749.481	763.89
749.665	833.52
749.85	829.43
750.034	778.23
750.219	753.65
750.404	847.86
750.588	770.04
750.773	737.27
750.957	765.94
751.141	761.84
751.326	790.52
751.51	806.9
751.695	714.74
751.879	735.22
752.064	737.27
752.248	698.36
752.432	749.56
752.617	694.26
752.801	747.51
752.985	827.38
753.17	772.08
753.354	675.83
753.538	792.56
753.722	704.5
753.907	618.49
754.091	579.58
754.275	690.17
754.459	724.98
754.643	710.65
754.828	641.01
755.012	681.97
755.196	712.69
755.38	663.54
755.564	622.58
755.748	612.34
755.932	667.64
756.116	731.12
756.3	694.26
756.484	704.5
756.668	665.59
756.852	616.44
757.036	655.35
757.22	579.58
757.404	663.54
757.588	645.11
757.772	591.86
757.956	612.34
758.14	585.72
758.323	573.43
758.507	583.67
758.691	616.44
758.875	602.1
759.059	563.19
759.242	567.29
759.426	595.96
759.61	602.1
759.794	606.2
759.977	468.98
760.161	501.75
760.345	532.47
760.528	548.86
760.712	530.42
760.895	602.1
761.079	518.14
761.263	509.94
761.446	538.62
761.63	569.34
761.813	540.66
761.997	540.66
762.18	501.75
762.364	514.04
762.547	460.79
762.731	497.66
762.914	526.33
763.098	542.71
763.281	458.74
763.464	516.09
763.648	448.51
763.831	450.55
764.015	456.7
764.198	493.56
764.381	452.6
764.564	473.08
764.748	464.89
764.931	485.37
765.114	446.46
765.297	454.65
765.481	487.42
765.664	423.93
765.847	509.94
766.03	452.6
766.213	466.94
766.397	483.32
766.58	466.94
766.763	561.14
766.946	491.51
767.129	524.28
767.312	509.94
767.495	514.04
767.678	415.74
767.861	495.61
768.044	514.04
768.227	485.37
768.41	532.47
768.593	493.56
768.776	489.46
768.959	415.74
769.142	413.69
769.324	452.6
769.507	417.79
769.69	534.52
769.873	436.22
770.056	432.12
770.239	505.85
770.421	507.9
770.604	557.05
770.787	462.84
770.97	495.61
771.152	366.59
771.335	323.58
771.518	462.84
771.7	438.27
771.883	378.87
772.066	366.59
772.248	495.61
772.431	481.27
772.613	450.55
772.796	368.63
772.978	428.03
773.161	358.39
773.343	440.31
773.526	421.88
773.708	407.55
773.891	374.78
774.073	405.5
774.256	301.05
774.438	452.6
774.621	368.63
774.803	387.07
774.985	382.97
775.168	360.44
775.35	370.68
775.532	362.49
775.715	397.31
775.897	440.31
776.079	319.48
776.261	387.07
776.444	374.78
776.626	382.97
776.808	448.51
776.99	346.11
777.173	354.3
777.355	337.91
777.537	299
777.719	325.63
777.901	319.48
778.083	368.63
778.265	299
778.447	378.87
778.629	339.96
778.811	329.72
778.993	311.29
779.175	403.45
779.357	321.53
779.539	354.3
779.721	243.71
779.903	311.29
780.085	317.44
780.267	323.58
780.449	237.56
780.631	276.48
780.812	313.34
780.994	325.63
781.176	325.63
781.358	342.01
781.54	280.57
781.721	270.33
781.903	286.72
782.085	215.04
782.267	260.09
782.448	311.29
782.63	147.45
782.812	296.96
782.993	313.34
783.175	264.19
783.357	253.95
783.538	217.08
783.72	227.32
783.901	303.1
784.083	174.08
784.264	272.38
784.446	188.41
784.627	202.75
784.809	266.24
784.99	241.66
785.172	258.04
785.353	219.13
785.535	176.13
785.716	301.05
785.897	188.41
786.079	241.66
786.26	233.47
786.441	217.08
786.623	256
786.804	249.85
786.985	163.84
787.167	260.09
787.348	258.04
787.529	262.14
787.71	264.19
787.891	225.28
788.073	180.22
788.254	163.84
788.435	198.65
788.616	176.13
788.797	233.47
788.978	186.37
789.159	174.08
789.34	145.41
789.522	194.56
789.703	176.13
789.884	186.37
790.065	241.66
790.246	174.08
790.427	208.89
790.607	169.98
790.788	167.93
790.969	196.61
791.15	188.41
791.331	157.69
791.512	225.28
791.693	167.93
791.874	186.37
792.054	163.84
792.235	147.45
792.416	178.17
792.597	167.93
792.778	204.8
792.958	172.03
793.139	169.98
793.32	229.37
793.5	122.88
793.681	145.41
793.862	161.79
794.042	131.07
794.223	186.37
794.404	71.68
794.584	137.21
794.765	172.03
794.945	157.69
795.126	188.41
795.306	98.3
795.487	118.78
795.667	182.27
795.848	126.97
796.028	176.13
796.209	161.79
796.389	153.6
796.57	235.52
796.75	102.4
796.93	133.12
797.111	59.39
797.291	92.16
797.471	114.69
797.652	83.97
797.832	114.69
798.012	186.37
798.192	73.73
798.373	116.73
798.553	122.88
798.733	186.37
798.913	120.83
799.093	122.88
799.274	186.37
799.454	163.84
799.634	182.27
799.814	153.6
799.994	110.59
800.174	186.37
800.354	198.65
800.534	151.55
800.714	145.41
800.894	116.73
801.074	106.49
801.254	98.3
801.434	155.65
801.614	55.3
801.794	129.02
801.974	337.91
802.154	114.69
802.334	176.13
802.514	51.2
802.693	153.6
802.873	100.35
803.053	143.36
803.233	67.58
803.413	116.73
803.592	192.51
803.772	53.25
803.952	94.21
804.131	131.07
804.311	106.49
804.491	176.13
804.67	86.01
804.85	120.83
805.03	114.69
805.209	118.78
805.389	47.1
805.568	196.61
805.748	53.25
805.928	133.12
806.107	69.63
806.287	139.26
806.466	120.83
806.646	104.45
806.825	116.73
807.004	143.36
807.184	102.4
807.363	112.64
807.543	124.93
807.722	90.11
807.901	104.45
808.081	94.21
808.26	-22.53
808.439	63.49
808.619	129.02
808.798	22.53
808.977	61.44
809.156	67.58
809.336	106.49
809.515	83.97
809.694	63.49
809.873	83.97
810.052	-10.24
810.231	65.54
810.411	151.55
810.59	153.6
810.769	61.44
810.948	141.31
811.127	34.82
811.306	36.86
811.485	34.82
811.664	20.48
811.843	83.97
812.022	157.69
812.201	55.3
812.38	63.49
812.559	131.07
812.737	55.3
812.916	34.82
813.095	137.21
813.274	-8.19
813.453	26.62
813.632	94.21
813.811	100.35
813.989	96.25
814.168	47.1
814.347	73.73
814.526	43.01
814.704	77.82
814.883	49.15
815.062	61.44
815.24	96.25
815.419	94.21
815.598	57.34
815.776	30.72
815.955	28.67
816.133	90.11
816.312	116.73
816.49	90.11
816.669	77.82
816.847	36.86
817.026	36.86
817.204	26.62
817.383	26.62
817.561	73.73
817.74	4.1
817.918	34.82
818.097	98.3
818.275	65.54
818.453	86.01
818.632	-22.53
818.81	51.2
818.988	16.38
819.167	131.07
819.345	86.01
819.523	106.49
819.701	38.91
819.879	63.49
820.058	63.49
820.236	69.63
820.414	49.15
820.592	40.96
820.77	73.73
820.948	69.63
821.127	57.34
821.305	90.11
821.483	104.45
821.661	65.54
821.839	32.77
822.017	53.25
822.195	53.25
822.373	63.49
822.551	-38.91
822.729	30.72
822.907	104.45
823.085	116.73
823.262	102.4
823.44	-30.72
823.618	63.49
823.796	59.39
823.974	14.34
824.152	86.01
824.329	77.82
824.507	94.21
824.685	47.1
824.863	73.73
825.04	14.34
825.218	34.82
825.396	12.29
825.574	83.97
825.751	36.86
825.929	61.44
826.107	51.2
826.284	10.24
826.462	4.1
826.639	28.67
826.817	57.34
826.994	32.77
827.172	20.48
827.349	34.82
827.527	26.62
827.704	32.77
827.882	51.2
828.059	77.82
828.237	96.25
828.414	57.34
828.591	-10.24
828.769	45.06
828.946	57.34
829.124	51.2
829.301	98.3
829.478	94.21
829.655	86.01
829.833	92.16
830.01	49.15
830.187	4.1
830.364	59.39
830.542	34.82
830.719	51.2
830.896	28.67
831.073	57.34
831.25	83.97
831.427	34.82
831.604	61.44
831.782	65.54
831.959	18.43
832.136	-4.1
832.313	53.25
832.49	18.43
832.667	-14.34
832.844	38.91
833.021	47.1
833.198	-8.19
833.374	28.67
833.551	67.58
833.728	20.48
833.905	49.15
834.082	24.58
834.259	53.25
834.436	24.58
834.612	26.62
834.789	32.77
834.966	28.67
835.143	8.19
835.319	0
835.496	26.62
835.673	0
835.85	45.06
836.026	34.82
836.203	16.38
836.38	30.72
836.556	65.54
836.733	-49.15
836.909	59.39
837.086	22.53
837.262	40.96
837.439	57.34
837.616	65.54
837.792	53.25
837.968	55.3
838.145	63.49
838.321	57.34
838.498	67.58
838.674	53.25
838.851	38.91
839.027	6.14
839.203	28.67
839.38	28.67
839.556	73.73
839.732	-26.62
839.909	22.53
840.085	34.82
840.261	59.39
840.437	-12.29
840.614	-12.29
840.79	88.06
840.966	55.3
841.142	-14.34
841.318	0
841.494	38.91
841.671	86.01
841.847	-10.24
842.023	57.34
842.199	28.67
842.375	49.15
842.551	6.14
842.727	30.72
842.903	-18.43
843.079	47.1
843.255	34.82
843.431	-12.29
843.607	-4.1
843.783	10.24
843.959	20.48
844.134	-49.15
844.31	139.26
844.486	-10.24
844.662	10.24
844.838	2.05
845.013	73.73
845.189	40.96
845.365	71.68
845.541	40.96
845.716	69.63
845.892	110.59
846.068	51.2
846.244	-4.1
846.419	63.49
846.595	45.06
846.77	-10.24
846.946	-6.14
847.122	12.29
847.297	45.06
847.473	22.53
847.648	-24.58
847.824	2.05
847.999	-32.77
848.175	36.86
848.35	69.63
848.526	47.1
848.701	40.96
848.876	45.06
849.052	-28.67
849.227	77.82
849.403	16.38
849.578	-4.1
849.753	36.86
849.929	24.58
850.104	30.72
850.279	18.43
850.454	47.1
850.63	6.14
850.805	20.48
850.98	-14.34
851.155	16.38
851.33	67.58
851.505	73.73
851.681	32.77
851.856	51.2
852.031	12.29
852.206	-32.77
852.381	-4.1
852.556	-18.43
852.731	20.48
852.906	-4.1
853.081	45.06
853.256	20.48
853.431	-26.62
853.606	-47.1
853.781	8.19
853.956	-20.48
854.131	34.82
854.305	-16.38
854.48	-24.58
854.655	43.01
854.83	-8.19
855.005	34.82
855.18	20.48
855.354	-51.2
855.529	-32.77
855.704	30.72
855.879	-12.29
856.053	86.01
856.228	32.77
856.403	-4.1
856.577	73.73
856.752	45.06
856.926	-12.29
857.101	-36.86
857.276	-49.15
857.45	4.1
857.625	14.34
857.799	-4.1
857.974	-10.24
858.148	-26.62
858.323	2.05
858.497	96.25
858.672	57.34
858.846	16.38
859.02	28.67
859.195	55.3
859.369	43.01
859.543	73.73
859.718	51.2
859.892	59.39
860.066	2.05
860.241	28.67
860.415	28.67
860.589	38.91
860.763	61.44
860.938	-8.19
861.112	34.82
861.286	-8.19
861.46	-6.14
861.634	77.82
861.808	-16.38
861.982	65.54
862.157	-8.19
862.331	-38.91
862.505	28.67
862.679	-43.01
862.853	12.29
863.027	-10.24
863.201	-14.34
863.375	-24.58
863.549	18.43
863.722	102.4
863.896	-8.19
864.07	6.14
864.244	-14.34
864.418	38.91
864.592	10.24
864.766	-2.05
864.939	-38.91
865.113	-57.34
865.287	8.19
865.461	18.43
865.634	45.06
865.808	16.38
865.982	65.54
866.156	-6.14
866.329	0
866.503	28.67
866.676	51.2
866.85	-4.1
867.024	16.38
867.197	-26.62
867.371	-4.1
867.544	20.48
867.718	-8.19
867.891	53.25
868.065	-12.29
868.238	2.05
868.412	63.49
868.585	22.53
868.759	65.54
868.932	-14.34
869.105	51.2
869.279	6.14
869.452	47.1
869.625	16.38
869.799	2.05
869.972	18.43
870.145	-16.38
870.319	28.67
870.492	18.43
870.665	8.19
870.838	28.67
871.011	63.49
871.185	4.1
871.358	-8.19
871.531	-63.49
871.704	-57.34
871.877	26.62
872.05	-49.15
872.223	26.62
872.396	8.19
872.569	6.14
872.742	20.48
872.915	114.69
873.088	2.05
873.261	6.14
873.434	34.82
873.607	16.38
873.78	-14.34
873.953	22.53
874.126	-12.29
874.299	-16.38
874.471	10.24
874.644	43.01
874.817	-4.1
874.99	-16.38
875.163	26.62
875.335	2.05
875.508	10.24
875.681	2.05
875.853	-61.44
876.026	57.34
876.199	-16.38
876.371	26.62
876.544	40.96
876.717	34.82
876.889	-43.01
877.062	10.24
877.234	20.48
877.407	-12.29
877.579	36.86
877.752	28.67
877.924	10.24
878.097	-51.2
878.269	-49.15
878.442	69.63
878.614	34.82
878.786	16.38
878.959	14.34
879.131	32.77
879.303	-34.82
879.476	18.43
879.648	63.49
879.82	0
879.993	-8.19
880.165	-26.62
880.337	-6.14
880.509	36.86
880.681	-71.68
880.854	2.05
881.026	-10.24
881.198	-10.24
881.37	-26.62
881.542	-24.58
881.714	4.1
881.886	53.25
882.058	53.25
882.23	-24.58
882.402	14.34
882.574	6.14
882.746	-36.86
882.918	-2.05
883.09	-32.77
883.262	6.14
883.434	20.48
883.606	0
883.778	57.34
883.95	20.48
884.122	-18.43
884.293	22.53
884.465	-12.29
884.637	20.48
884.809	-22.53
884.98	14.34
885.152	16.38
885.324	24.58
885.496	-18.43
885.667	22.53
885.839	4.1
886.011	20.48
886.182	45.06
886.354	14.34
886.525	-6.14
886.697	-14.34
886.869	20.48
887.04	-92.16
887.212	-36.86
887.383	12.29
887.555	-36.86
887.726	28.67
887.897	61.44
888.069	4.1
888.24	28.67
888.412	-2.05
888.583	61.44
888.754	4.1
888.926	36.86
889.097	-16.38
889.268	0
889.44	28.67
889.611	-16.38
889.782	-79.87
889.953	-65.54
890.125	30.72
890.296	-10.24
890.467	-45.06
890.638	-24.58
890.809	-51.2
890.98	8.19
891.151	63.49
891.323	-24.58
891.494	10.24
891.665	-53.25
891.836	16.38
892.007	-110.59
892.178	10.24
892.349	-24.58
892.52	-47.1
892.691	12.29
892.862	-2.05
893.032	-34.82
893.203	-8.19
893.374	30.72
893.545	4.1
893.716	-8.19
893.887	63.49
894.057	-36.86
894.228	-2.05
894.399	-67.58
894.57	-10.24
894.74	-67.58
894.911	10.24
895.082	-18.43
895.253	6.14
895.423	24.58
895.594	-22.53
895.764	77.82
895.935	-2.05
896.106	24.58
896.276	-4.1
896.447	12.29
896.617	20.48
896.788	2.05
896.958	28.67
897.129	22.53
897.299	22.53
897.47	4.1
897.64	8.19
897.81	6.14
897.981	49.15
898.151	-28.67
898.322	-14.34
898.492	26.62
898.662	-6.14
898.832	61.44
899.003	-16.38
899.173	-49.15
899.343	-86.01
899.513	22.53
