Data from USB4F104151__48__13-53-24-237.txt Node

Date: Thu Mar 13 13:53:24 EDT 2025
User: louis
Spectrometer: USB4F10415
Trigger mode: 4
Integration Time (sec): 1.000000E-2
Scans to average: 1
Electric dark correction enabled: true
Nonlinearity correction enabled: false
Boxcar width: 0
XAxis mode: Wavelengths
Number of Pixels in Spectrum: 3648
>>>>>Begin Spectral Data<<<<<
178.204	-74.24
178.424	-74.24
178.644	-74.24
178.864	-78.33
179.084	-66.05
179.304	-53.76
179.524	40.45
179.744	40.45
179.964	22.02
180.184	-37.38
180.404	-70.14
180.624	13.82
180.844	-2.56
181.064	3.58
181.283	24.06
181.503	48.64
181.723	-29.18
181.943	-55.81
182.163	24.06
182.383	-35.33
182.602	144.89
182.822	46.59
183.042	-27.14
183.262	15.87
183.482	24.06
183.701	3.58
183.921	62.98
184.141	-29.18
184.361	42.5
184.58	42.5
184.8	22.02
185.02	67.07
185.239	13.82
185.459	50.69
185.679	105.98
185.898	-14.85
186.118	32.26
186.338	36.35
186.557	83.45
186.777	15.87
186.997	-29.18
187.216	24.06
187.436	71.17
187.655	42.5
187.875	-25.09
188.095	-0.51
188.314	-45.57
188.534	5.63
188.753	-12.8
188.973	-4.61
189.192	5.63
189.412	-23.04
189.631	93.69
189.851	-59.9
190.07	65.02
190.29	-12.8
190.509	46.59
190.729	-39.42
190.948	67.07
191.168	30.21
191.387	17.92
191.607	24.06
191.826	-31.23
192.045	58.88
192.265	-35.33
192.484	-41.47
192.704	-10.75
192.923	38.4
193.142	24.06
193.362	15.87
193.581	-16.9
193.8	19.97
194.02	-10.75
194.239	1.54
194.458	79.36
194.678	-20.99
194.897	-39.42
195.116	7.68
195.335	-4.61
195.555	11.78
195.774	58.88
195.993	-51.71
196.212	56.83
196.432	-10.75
196.651	44.54
196.87	-12.8
197.089	24.06
197.308	13.82
197.528	75.26
197.747	-6.66
197.966	54.78
198.185	-6.66
198.404	28.16
198.623	-41.47
198.842	-6.66
199.062	7.68
199.281	-25.09
199.5	9.73
199.719	32.26
199.938	-2.56
200.157	-64
200.376	44.54
200.595	-29.18
200.814	71.17
201.033	36.35
201.252	5.63
201.471	-4.61
201.69	-102.91
201.909	24.06
202.128	85.5
202.347	30.21
202.566	9.73
202.785	-27.14
203.004	7.68
203.223	38.4
203.442	-31.23
203.661	9.73
203.879	32.26
204.098	75.26
204.317	-27.14
204.536	19.97
204.755	5.63
204.974	36.35
205.193	-35.33
205.411	11.78
205.63	50.69
205.849	-33.28
206.068	-0.51
206.287	56.83
206.505	-14.85
206.724	11.78
206.943	-4.61
207.162	67.07
207.381	40.45
207.599	7.68
207.818	-86.53
208.037	-49.66
208.255	1.54
208.474	60.93
208.693	24.06
208.911	19.97
209.13	-27.14
209.349	9.73
209.567	24.06
209.786	-57.86
210.005	65.02
210.223	-6.66
210.442	3.58
210.661	22.02
210.879	15.87
211.098	58.88
211.316	-18.94
211.535	-31.23
211.753	-16.9
211.972	9.73
212.191	-20.99
212.409	28.16
212.628	42.5
212.846	50.69
213.065	50.69
213.283	-16.9
213.502	81.41
213.72	42.5
213.938	1.54
214.157	17.92
214.375	-0.51
214.594	44.54
214.812	28.16
215.031	-18.94
215.249	22.02
215.467	54.78
215.686	52.74
215.904	13.82
216.122	65.02
216.341	11.78
216.559	83.45
216.778	17.92
216.996	30.21
217.214	-6.66
217.432	15.87
217.651	19.97
217.869	19.97
218.087	67.07
218.306	75.26
218.524	60.93
218.742	17.92
218.96	-16.9
219.179	-6.66
219.397	-47.62
219.615	30.21
219.833	7.68
220.051	65.02
220.27	58.88
220.488	11.78
220.706	56.83
220.924	52.74
221.142	69.12
221.36	-4.61
221.578	34.3
221.796	-20.99
222.015	-35.33
222.233	11.78
222.451	62.98
222.669	30.21
222.887	9.73
223.105	42.5
223.323	-25.09
223.541	-47.62
223.759	-49.66
223.977	-57.86
224.195	5.63
224.413	19.97
224.631	17.92
224.849	1.54
225.067	44.54
225.285	1.54
225.503	60.93
225.721	-49.66
225.939	1.54
226.157	58.88
226.375	1.54
226.592	-35.33
226.81	3.58
227.028	110.08
227.246	87.55
227.464	38.4
227.682	32.26
227.9	99.84
228.117	-23.04
228.335	11.78
228.553	-55.81
228.771	13.82
228.989	-61.95
229.206	-16.9
229.424	67.07
229.642	-6.66
229.86	-20.99
230.077	67.07
230.295	73.21
230.513	-33.28
230.731	11.78
230.948	11.78
231.166	28.16
231.384	97.79
231.601	36.35
231.819	-23.04
232.037	-20.99
232.254	7.68
232.472	11.78
232.689	28.16
232.907	-16.9
233.125	-29.18
233.342	30.21
233.56	17.92
233.777	1.54
233.995	15.87
234.213	28.16
234.43	-23.04
234.648	38.4
234.865	-27.14
235.083	48.64
235.3	46.59
235.518	42.5
235.735	50.69
235.953	50.69
236.17	-4.61
236.388	40.45
236.605	67.07
236.822	15.87
237.04	-12.8
237.257	46.59
237.475	7.68
237.692	52.74
237.909	-16.9
238.127	89.6
238.344	-53.76
238.562	-2.56
238.779	11.78
238.996	54.78
239.214	36.35
239.431	56.83
239.648	58.88
239.865	17.92
240.083	52.74
240.3	65.02
240.517	-39.42
240.735	-35.33
240.952	60.93
241.169	24.06
241.386	-43.52
241.603	-20.99
241.821	-0.51
242.038	7.68
242.255	30.21
242.472	-2.56
242.689	42.5
242.907	-6.66
243.124	-14.85
243.341	-14.85
243.558	15.87
243.775	26.11
243.992	54.78
244.209	-18.94
244.426	-39.42
244.643	38.4
244.86	-6.66
245.078	22.02
245.295	42.5
245.512	-10.75
245.729	-90.62
245.946	34.3
246.163	-14.85
246.38	60.93
246.597	-33.28
246.814	50.69
247.031	-31.23
247.248	-0.51
247.464	-2.56
247.681	40.45
247.898	-2.56
248.115	-27.14
248.332	-16.9
248.549	-57.86
248.766	-2.56
248.983	3.58
249.2	-23.04
249.417	28.16
249.633	11.78
249.85	-2.56
250.067	11.78
250.284	7.68
250.501	60.93
250.717	19.97
250.934	-29.18
251.151	101.89
251.368	5.63
251.585	44.54
251.801	15.87
252.018	-88.57
252.235	-4.61
252.451	13.82
252.668	22.02
252.885	34.3
253.102	50.69
253.318	26.11
253.535	24.06
253.752	3.58
253.968	-33.28
254.185	40.45
254.401	79.36
254.618	75.26
254.835	3.58
255.051	24.06
255.268	50.69
255.484	26.11
255.701	5.63
255.917	42.5
256.134	5.63
256.351	44.54
256.567	-2.56
256.784	-20.99
257	-53.76
257.217	32.26
257.433	40.45
257.65	-53.76
257.866	15.87
258.082	-6.66
258.299	9.73
258.515	5.63
258.732	-25.09
258.948	56.83
259.165	13.82
259.381	46.59
259.597	-18.94
259.814	48.64
260.03	-31.23
260.246	-29.18
260.463	-39.42
260.679	9.73
260.895	75.26
261.112	-6.66
261.328	13.82
261.544	22.02
261.761	28.16
261.977	38.4
262.193	9.73
262.409	69.12
262.626	-20.99
262.842	-33.28
263.058	-10.75
263.274	30.21
263.49	-10.75
263.707	77.31
263.923	13.82
264.139	22.02
264.355	108.03
264.571	-4.61
264.787	15.87
265.004	26.11
265.22	-59.9
265.436	-27.14
265.652	36.35
265.868	52.74
266.084	52.74
266.3	56.83
266.516	-10.75
266.732	65.02
266.948	42.5
267.164	73.21
267.38	1.54
267.596	67.07
267.812	54.78
268.028	-33.28
268.244	5.63
268.46	-20.99
268.676	-23.04
268.892	71.17
269.108	-23.04
269.324	52.74
269.54	-14.85
269.756	42.5
269.972	-8.7
270.188	-70.14
270.403	19.97
270.619	58.88
270.835	34.3
271.051	52.74
271.267	-31.23
271.483	48.64
271.698	38.4
271.914	32.26
272.13	-8.7
272.346	24.06
272.562	5.63
272.777	75.26
272.993	40.45
273.209	3.58
273.425	-20.99
273.64	9.73
273.856	136.7
274.072	-0.51
274.287	-14.85
274.503	65.02
274.719	30.21
274.934	-2.56
275.15	9.73
275.366	-31.23
275.581	34.3
275.797	-6.66
276.012	40.45
276.228	19.97
276.444	50.69
276.659	77.31
276.875	-10.75
277.09	26.11
277.306	-4.61
277.521	36.35
277.737	3.58
277.952	-0.51
278.168	-37.38
278.383	62.98
278.599	-0.51
278.814	22.02
279.03	50.69
279.245	-31.23
279.461	36.35
279.676	65.02
279.892	101.89
280.107	-39.42
280.322	26.11
280.538	-35.33
280.753	93.69
280.969	-4.61
281.184	26.11
281.399	30.21
281.615	24.06
281.83	40.45
282.045	22.02
282.26	73.21
282.476	42.5
282.691	77.31
282.906	13.82
283.122	5.63
283.337	48.64
283.552	85.5
283.767	44.54
283.983	58.88
284.198	40.45
284.413	22.02
284.628	17.92
284.843	48.64
285.058	42.5
285.274	-4.61
285.489	-29.18
285.704	52.74
285.919	48.64
286.134	28.16
286.349	38.4
286.564	-4.61
286.779	30.21
286.995	11.78
287.21	44.54
287.425	-20.99
287.64	-23.04
287.855	36.35
288.07	26.11
288.285	83.45
288.5	44.54
288.715	30.21
288.93	-16.9
289.145	26.11
289.36	-35.33
289.575	3.58
289.79	28.16
290.004	95.74
290.219	-16.9
290.434	22.02
290.649	-23.04
290.864	38.4
291.079	19.97
291.294	24.06
291.509	-2.56
291.724	15.87
291.938	73.21
292.153	77.31
292.368	-6.66
292.583	52.74
292.798	30.21
293.012	13.82
293.227	58.88
293.442	65.02
293.657	73.21
293.871	40.45
294.086	75.26
294.301	60.93
294.516	-10.75
294.73	-31.23
294.945	-4.61
295.16	42.5
295.374	52.74
295.589	19.97
295.804	-16.9
296.018	77.31
296.233	79.36
296.447	85.5
296.662	52.74
296.877	-6.66
297.091	77.31
297.306	-41.47
297.52	13.82
297.735	-6.66
297.949	34.3
298.164	-43.52
298.378	73.21
298.593	34.3
298.807	9.73
299.022	30.21
299.236	11.78
299.451	40.45
299.665	58.88
299.88	48.64
300.094	40.45
300.309	-4.61
300.523	56.83
300.737	-45.57
300.952	-0.51
301.166	17.92
301.381	-6.66
301.595	19.97
301.809	71.17
302.024	79.36
302.238	34.3
302.452	85.5
302.667	-47.62
302.881	54.78
303.095	32.26
303.309	81.41
303.524	-14.85
303.738	-16.9
303.952	-14.85
304.166	7.68
304.381	38.4
304.595	105.98
304.809	19.97
305.023	3.58
305.237	22.02
305.452	17.92
305.666	54.78
305.88	58.88
306.094	11.78
306.308	11.78
306.522	26.11
306.736	15.87
306.95	-43.52
307.164	71.17
307.379	32.26
307.593	46.59
307.807	-20.99
308.021	44.54
308.235	69.12
308.449	50.69
308.663	-10.75
308.877	48.64
309.091	-43.52
309.305	85.5
309.519	-33.28
309.733	58.88
309.947	83.45
310.161	-2.56
310.374	7.68
310.588	19.97
310.802	5.63
311.016	87.55
311.23	-14.85
311.444	-25.09
311.658	24.06
311.872	-20.99
312.085	52.74
312.299	36.35
312.513	28.16
312.727	3.58
312.941	56.83
313.154	28.16
313.368	-14.85
313.582	62.98
313.796	44.54
314.009	-4.61
314.223	26.11
314.437	-0.51
314.651	17.92
314.864	11.78
315.078	97.79
315.292	42.5
315.505	15.87
315.719	60.93
315.933	73.21
316.146	50.69
316.36	24.06
316.573	-33.28
316.787	40.45
317.001	-6.66
317.214	3.58
317.428	40.45
317.641	-8.7
317.855	-18.94
318.068	26.11
318.282	36.35
318.495	99.84
318.709	103.93
318.922	-18.94
319.136	151.04
319.349	-18.94
319.563	40.45
319.776	11.78
319.99	30.21
320.203	-20.99
320.417	19.97
320.63	3.58
320.843	50.69
321.057	24.06
321.27	17.92
321.483	36.35
321.697	26.11
321.91	13.82
322.124	52.74
322.337	40.45
322.55	-29.18
322.763	15.87
322.977	-6.66
323.19	-31.23
323.403	-6.66
323.617	-29.18
323.83	67.07
324.043	52.74
324.256	32.26
324.469	58.88
324.683	-51.71
324.896	77.31
325.109	69.12
325.322	40.45
325.535	44.54
325.748	30.21
325.962	32.26
326.175	17.92
326.388	-8.7
326.601	-27.14
326.814	-29.18
327.027	67.07
327.24	87.55
327.453	3.58
327.666	28.16
327.879	-4.61
328.092	38.4
328.305	-23.04
328.518	-14.85
328.731	54.78
328.944	17.92
329.157	-31.23
329.37	65.02
329.583	-0.51
329.796	71.17
330.009	71.17
330.222	24.06
330.435	17.92
330.648	75.26
330.861	15.87
331.073	42.5
331.286	-82.43
331.499	50.69
331.712	40.45
331.925	58.88
332.138	-16.9
332.35	-64
332.563	11.78
332.776	105.98
332.989	-16.9
333.202	1.54
333.414	22.02
333.627	75.26
333.84	50.69
334.053	19.97
334.265	38.4
334.478	67.07
334.691	22.02
334.903	38.4
335.116	42.5
335.329	7.68
335.541	58.88
335.754	93.69
335.966	44.54
336.179	46.59
336.392	42.5
336.604	54.78
336.817	17.92
337.029	30.21
337.242	9.73
337.454	34.3
337.667	7.68
337.88	19.97
338.092	58.88
338.305	15.87
338.517	1.54
338.729	17.92
338.942	15.87
339.154	38.4
339.367	34.3
339.579	-2.56
339.792	24.06
340.004	36.35
340.217	-20.99
340.429	48.64
340.641	15.87
340.854	120.32
341.066	-4.61
341.278	-6.66
341.491	5.63
341.703	26.11
341.915	83.45
342.128	7.68
342.34	52.74
342.552	87.55
342.764	5.63
342.977	62.98
343.189	32.26
343.401	5.63
343.613	3.58
343.826	52.74
344.038	54.78
344.25	1.54
344.462	13.82
344.674	32.26
344.886	19.97
345.099	60.93
345.311	7.68
345.523	22.02
345.735	19.97
345.947	9.73
346.159	-16.9
346.371	1.54
346.583	52.74
346.795	48.64
347.007	19.97
347.219	-51.71
347.431	7.68
347.643	32.26
347.855	40.45
348.067	3.58
348.279	-14.85
348.491	-12.8
348.703	19.97
348.915	19.97
349.127	-16.9
349.339	67.07
349.551	56.83
349.763	126.46
349.975	30.21
350.187	38.4
350.399	-10.75
350.61	9.73
350.822	62.98
351.034	71.17
351.246	-57.86
351.458	32.26
351.669	36.35
351.881	60.93
352.093	36.35
352.305	13.82
352.517	30.21
352.728	75.26
352.94	46.59
353.152	19.97
353.363	-12.8
353.575	118.27
353.787	-12.8
353.999	34.3
354.21	-8.7
354.422	-55.81
354.633	42.5
354.845	52.74
355.057	-14.85
355.268	38.4
355.48	-2.56
355.692	77.31
355.903	28.16
356.115	32.26
356.326	-25.09
356.538	5.63
356.749	30.21
356.961	77.31
357.172	-41.47
357.384	108.03
357.595	15.87
357.807	65.02
358.018	-4.61
358.23	19.97
358.441	-20.99
358.653	81.41
358.864	7.68
359.075	13.82
359.287	-41.47
359.498	28.16
359.709	-18.94
359.921	89.6
360.132	-20.99
360.344	34.3
360.555	-10.75
360.766	30.21
360.977	17.92
361.189	75.26
361.4	-29.18
361.611	28.16
361.823	60.93
362.034	42.5
362.245	7.68
362.456	-14.85
362.667	85.5
362.879	-20.99
363.09	-14.85
363.301	77.31
363.512	52.74
363.723	28.16
363.935	54.78
364.146	24.06
364.357	32.26
364.568	17.92
364.779	-4.61
364.99	50.69
365.201	24.06
365.412	69.12
365.623	-41.47
365.834	75.26
366.045	48.64
366.256	67.07
366.467	22.02
366.678	32.26
366.889	50.69
367.1	91.65
367.311	9.73
367.522	42.5
367.733	24.06
367.944	52.74
368.155	65.02
368.366	-6.66
368.577	48.64
368.788	1.54
368.999	36.35
369.209	62.98
369.42	77.31
369.631	60.93
369.842	48.64
370.053	-4.61
370.264	1.54
370.474	-0.51
370.685	32.26
370.896	60.93
371.107	26.11
371.317	93.69
371.528	95.74
371.739	71.17
371.95	34.3
372.16	60.93
372.371	-20.99
372.582	73.21
372.792	58.88
373.003	-4.61
373.214	75.26
373.424	-4.61
373.635	32.26
373.846	46.59
374.056	-25.09
374.267	67.07
374.477	-27.14
374.688	91.65
374.898	83.45
375.109	13.82
375.319	-12.8
375.53	19.97
375.74	97.79
375.951	153.09
376.161	28.16
376.372	36.35
376.582	11.78
376.793	-20.99
377.003	11.78
377.214	65.02
377.424	46.59
377.635	36.35
377.845	-49.66
378.055	48.64
378.266	30.21
378.476	118.27
378.686	-33.28
378.897	46.59
379.107	22.02
379.317	48.64
379.528	44.54
379.738	28.16
379.948	-59.9
380.158	-4.61
380.369	89.6
380.579	22.02
380.789	34.3
380.999	79.36
381.21	73.21
381.42	91.65
381.63	30.21
381.84	-16.9
382.05	15.87
382.261	17.92
382.471	58.88
382.681	36.35
382.891	22.02
383.101	87.55
383.311	28.16
383.521	-45.57
383.731	-23.04
383.941	75.26
384.151	54.78
384.361	11.78
384.571	32.26
384.781	99.84
384.991	17.92
385.201	-12.8
385.411	40.45
385.621	-6.66
385.831	48.64
386.041	36.35
386.251	-23.04
386.461	60.93
386.671	54.78
386.881	44.54
387.091	-4.61
387.301	120.32
387.511	46.59
387.72	7.68
387.93	13.82
388.14	54.78
388.35	44.54
388.56	71.17
388.769	83.45
388.979	-0.51
389.189	52.74
389.399	54.78
389.609	19.97
389.818	89.6
390.028	3.58
390.238	85.5
390.447	-29.18
390.657	89.6
390.867	50.69
391.076	48.64
391.286	48.64
391.496	-6.66
391.705	75.26
391.915	7.68
392.125	-2.56
392.334	73.21
392.544	46.59
392.753	48.64
392.963	22.02
393.172	95.74
393.382	42.5
393.591	132.61
393.801	42.5
394.01	91.65
394.22	85.5
394.429	77.31
394.639	85.5
394.848	22.02
395.058	32.26
395.267	19.97
395.477	54.78
395.686	44.54
395.895	81.41
396.105	151.04
396.314	62.98
396.524	52.74
396.733	93.69
396.942	-14.85
397.152	56.83
397.361	1.54
397.57	99.84
397.78	108.03
397.989	42.5
398.198	58.88
398.407	24.06
398.617	128.51
398.826	3.58
399.035	48.64
399.244	91.65
399.453	91.65
399.663	97.79
399.872	108.03
400.081	19.97
400.29	89.6
400.499	46.59
400.708	99.84
400.917	28.16
401.127	26.11
401.336	24.06
401.545	183.81
401.754	40.45
401.963	91.65
402.172	-2.56
402.381	9.73
402.59	65.02
402.799	108.03
403.008	42.5
403.217	56.83
403.426	73.21
403.635	101.89
403.844	65.02
404.053	120.32
404.262	40.45
404.471	99.84
404.68	124.41
404.888	62.98
405.097	118.27
405.306	89.6
405.515	77.31
405.724	69.12
405.933	95.74
406.142	177.66
406.35	128.51
406.559	87.55
406.768	52.74
406.977	124.41
407.185	54.78
407.394	120.32
407.603	126.46
407.812	134.65
408.02	83.45
408.229	87.55
408.438	202.24
408.646	99.84
408.855	91.65
409.064	155.13
409.272	144.89
409.481	177.66
409.69	163.33
409.898	167.42
410.107	189.95
410.315	114.17
410.524	179.71
410.733	194.05
410.941	171.52
411.15	230.91
411.358	171.52
411.567	255.48
411.775	251.39
411.984	259.58
412.192	247.29
412.401	230.91
412.609	278.01
412.818	271.87
413.026	271.87
413.234	343.55
413.443	241.15
413.651	355.83
413.86	333.31
414.068	290.3
414.276	374.27
414.485	402.94
414.693	359.93
414.901	409.08
415.11	355.83
415.318	376.31
415.526	419.32
415.734	411.13
415.943	443.9
416.151	462.33
416.359	445.95
416.567	413.18
416.776	534.01
416.984	540.15
417.192	503.29
417.4	540.15
417.608	579.06
417.817	534.01
418.025	538.1
418.233	644.6
418.441	650.74
418.649	703.99
418.857	671.22
419.065	699.89
419.273	716.28
419.481	790
419.689	859.63
419.897	910.83
420.105	892.4
420.313	841.2
420.521	867.83
420.729	912.88
420.937	974.32
421.145	980.47
421.353	1037.81
421.561	1027.57
421.769	1113.58
421.977	1160.69
422.185	1103.34
422.393	1209.84
422.601	1258.99
422.809	1304.04
423.017	1254.89
423.224	1291.76
423.432	1330.67
423.64	1514.98
423.848	1435.11
424.056	1463.79
424.263	1504.75
424.471	1543.66
424.679	1504.75
424.887	1762.79
425.094	1775.08
425.302	1691.11
425.51	1897.96
425.718	1902.05
425.925	1887.72
426.133	2002.4
426.341	1998.31
426.548	2227.68
426.756	2207.2
426.964	2209.25
427.171	2293.21
427.379	2297.31
427.586	2469.34
427.794	2485.72
428.001	2620.89
428.209	2749.91
428.417	2596.31
428.624	2825.68
428.832	2872.79
429.039	2899.41
429.247	2829.78
429.454	3126.74
429.662	3290.57
429.869	2985.43
430.076	3329.49
430.284	3286.48
430.491	3440.08
430.699	3724.74
430.906	3442.12
431.114	3599.82
431.321	3700.17
431.528	3890.63
431.736	3968.45
431.943	4318.65
432.15	4056.51
432.358	4120
432.565	4332.99
432.772	4345.28
432.979	4619.71
433.187	4640.19
433.394	4730.3
433.601	4933.04
433.808	5066.16
434.016	4998.58
434.223	5254.58
434.43	5590.44
434.637	5393.84
434.844	5756.33
435.052	5963.17
435.259	5780.9
435.466	5905.83
435.673	5729.7
435.88	6251.94
436.087	6598.04
436.294	6579.61
436.501	6530.46
436.708	6563.23
436.915	6682.01
437.122	7110.04
437.329	6886.81
437.537	7189.91
437.743	7368.08
437.95	7257.49
438.157	7687.56
438.364	7800.2
438.571	7949.7
438.778	8103.3
438.985	8846.71
439.192	8211.84
439.399	8617.34
439.606	8414.59
439.813	8783.23
440.02	9424.24
440.227	9307.51
440.433	9104.76
440.64	9436.53
440.847	9358.71
441.054	9665.9
441.261	10063.21
441.467	10067.3
441.674	10540.38
441.881	10569.05
442.088	10669.41
442.294	10560.86
442.501	10884.44
442.708	11089.24
442.914	11480.4
443.121	11928.91
443.328	11914.57
443.534	12557.63
443.741	12031.3
443.948	12195.14
444.154	13008.19
444.361	12946.75
444.568	13047.1
444.774	12840.25
444.981	12965.18
445.187	13360.44
445.394	13976.87
445.6	13921.58
445.807	15107.35
446.013	14482.72
446.22	14654.75
446.426	15308.05
446.633	15312.15
446.839	16092.43
447.046	15242.52
447.252	16100.62
447.459	16229.64
447.665	15891.73
447.871	16794.88
448.078	17782
448.284	16792.83
448.491	17050.88
448.697	17755.38
448.903	17968.37
449.11	18320.62
449.316	18199.79
449.522	18240.75
449.728	18867.42
449.935	18922.72
450.141	18765.03
450.347	19367.13
450.553	18593
450.76	18810.08
450.966	19485.91
451.172	19424.47
451.378	19856.59
451.584	19293.4
451.791	19819.73
451.997	19688.66
452.203	20098.25
452.409	20296.91
452.615	19758.29
452.821	19078.36
453.027	18855.14
453.233	19832.02
453.44	18986.21
453.646	19334.36
453.852	19381.46
454.058	19414.23
454.264	19121.37
454.47	19406.04
454.676	19006.69
454.882	19614.93
455.088	17818.86
455.294	18418.92
455.5	18144.49
455.705	18627.81
455.911	17808.62
456.117	17282.3
456.323	17169.66
456.529	16231.69
456.735	16991.48
456.941	16700.67
457.147	16340.23
457.352	15910.16
457.558	15408.4
457.764	15555.86
457.97	15224.09
458.176	14855.45
458.381	14839.07
458.587	14054.7
458.793	14140.71
458.999	13493.55
459.204	14228.77
459.41	13987.11
459.616	13020.47
459.821	13233.46
460.027	13059.38
460.233	12854.59
460.438	12168.52
460.644	12518.72
460.85	11502.93
461.055	11502.93
461.261	11511.12
461.466	10915.16
461.672	10358.11
461.878	11011.42
462.083	10235.24
462.289	10181.99
462.494	10089.83
462.7	9739.63
462.905	9229.68
463.111	9737.58
463.316	9866.6
463.522	9538.93
463.727	9590.13
463.932	9583.98
464.138	9547.12
464.343	9557.36
464.549	9358.71
464.754	9600.37
464.959	9309.55
465.165	9350.51
465.37	8834.43
465.575	8752.51
465.781	9076.09
465.986	8994.17
466.191	8801.66
466.397	8600.96
466.602	8250.75
466.807	8623.48
467.012	8727.93
467.218	8465.79
467.423	8531.33
467.628	8301.95
467.833	8711.55
468.038	8463.74
468.244	8306.05
468.449	8721.79
468.654	8240.51
468.859	8330.62
469.064	8056.2
469.269	7882.12
469.474	7839.11
469.679	7968.13
469.885	7830.92
470.09	8011.14
470.295	7933.32
470.5	7957.89
470.705	7796.11
470.91	7544.2
471.115	7599.5
471.32	7691.66
471.525	7619.98
471.73	7435.66
471.935	7519.63
472.139	7212.43
472.344	7212.43
472.549	7146.9
472.754	7155.09
472.959	6976.92
473.164	6864.28
473.369	6813.08
473.574	6989.21
473.778	6940.05
473.983	6798.74
474.188	6667.67
474.393	6477.21
474.598	6317.47
474.802	6385.05
475.007	6370.72
475.212	6362.53
475.417	6313.38
475.621	6260.13
475.826	6194.59
476.031	5932.45
476.235	5950.89
476.44	6137.25
476.645	5924.26
476.849	5924.26
477.054	5934.5
477.259	5731.75
477.463	5850.53
477.668	5705.13
477.872	5649.83
478.077	5529
478.282	5420.46
478.486	5391.79
478.691	5367.21
478.895	5436.85
479.1	5354.93
479.304	5399.98
479.509	5174.71
479.713	5385.65
479.918	5168.56
480.122	5209.52
480.326	5148.08
480.531	5199.28
480.735	5076.4
480.94	5088.69
481.144	5135.79
481.348	5119.41
481.553	4961.72
481.757	5103.03
481.961	5062.07
482.166	5199.28
482.37	5133.75
482.574	4732.34
482.778	4996.53
482.983	5057.97
483.187	5000.63
483.391	5035.44
483.595	4744.63
483.8	4918.71
484.004	4906.42
484.208	4947.38
484.412	4928.95
484.616	4992.44
484.821	5019.06
485.025	4908.47
485.229	5148.08
485.433	4795.83
485.637	4984.24
485.841	5111.22
486.045	5021.11
486.249	4949.43
486.453	5002.68
486.657	4986.29
486.861	4953.52
487.065	4933.04
487.269	5072.31
487.473	5033.4
487.677	5057.97
487.881	4920.76
488.085	4898.23
488.289	4894.13
488.493	5064.11
488.697	5088.69
488.901	4978.1
489.105	4974
489.309	5023.16
489.512	5143.99
489.716	5129.65
489.92	5168.56
490.124	5029.3
490.328	5176.75
490.531	5182.9
490.735	4937.14
490.939	5072.31
491.143	5246.38
491.346	5109.17
491.55	5207.47
491.754	5240.24
491.958	5356.97
492.161	5254.58
492.365	5483.95
492.569	5283.25
492.772	5262.77
492.976	5283.25
493.18	5369.26
493.383	5408.17
493.587	5471.66
493.79	5457.32
493.994	5621.16
494.197	5393.84
494.401	5463.47
494.605	5486
494.808	5670.31
495.012	5674.41
495.215	5825.96
495.419	5684.65
495.622	5858.73
495.825	5909.93
496.029	5785
496.232	6024.61
496.436	5963.17
496.639	6116.77
496.843	6090.15
497.046	6342.05
497.249	6350.24
497.453	6462.88
497.656	6393.25
497.859	6370.72
498.063	6346.14
498.266	6460.83
498.469	6628.76
498.673	6704.54
498.876	6929.81
499.079	6923.67
499.282	6907.29
499.485	7034.26
499.689	6870.42
499.892	7155.09
500.095	7320.98
500.298	7439.76
500.501	7392.66
500.705	7466.38
500.908	7572.88
501.111	7695.75
501.314	7839.11
501.517	7923.08
501.72	7966.09
501.923	7912.84
502.126	7947.65
502.329	8373.63
502.532	8404.35
502.735	8527.23
502.938	8656.25
503.141	8605.05
503.344	8738.17
503.547	8914.3
503.75	8983.93
503.953	9063.8
504.156	9119.09
504.359	9348.47
504.562	9373.04
504.765	9508.21
504.968	9579.89
505.17	9739.63
505.373	9639.28
505.576	9905.51
505.779	10155.37
505.982	9936.23
506.185	10374.5
506.387	10351.97
506.59	10567.01
506.793	10775.9
506.996	10818.91
507.198	11154.77
507.401	11081.05
507.604	10935.64
507.807	11365.71
508.009	11455.83
508.212	11371.86
508.415	11752.78
508.617	11625.81
508.82	11775.31
509.022	11781.45
509.225	12121.42
509.428	12328.26
509.63	12490.05
509.833	12635.46
510.035	12887.36
510.238	12803.39
510.44	12897.6
510.643	13118.78
510.845	13065.53
511.048	13370.68
511.25	13411.64
511.453	13663.54
511.655	14126.38
511.858	14142.76
512.06	14085.42
512.262	14294.31
512.465	14363.94
512.667	14587.17
512.87	14939.42
513.072	14953.76
513.274	15197.46
513.477	15467.8
513.679	15658.26
513.881	15758.61
514.084	15805.71
514.286	15899.92
514.488	15875.34
514.69	16366.85
514.893	16377.09
515.095	16719.1
515.297	17032.44
515.499	16966.91
515.701	17005.82
515.904	17247.48
516.106	17519.86
516.308	17794.29
516.51	17939.69
516.712	17890.54
516.914	18189.55
517.116	18248.94
517.318	18642.15
517.52	18793.7
517.722	18963.68
517.925	19123.42
518.127	19573.97
518.329	19530.97
518.531	19655.89
518.733	19926.22
518.935	20208.84
519.136	20051.15
519.338	20493.51
519.54	20604.1
519.742	21007.55
519.944	20708.55
520.146	21224.64
520.348	21783.73
520.55	21486.78
520.752	21787.83
520.954	22135.98
521.155	21867.7
521.357	22539.43
521.559	22629.54
521.761	23030.94
521.963	23018.66
522.164	23157.92
522.366	23133.34
522.568	23600.28
522.77	23520.41
522.971	24210.57
523.173	23833.75
523.375	24204.43
523.576	24016.02
523.778	24056.98
523.98	24544.39
524.181	24632.46
524.383	24945.8
524.584	25328.77
524.786	25111.68
524.988	25431.16
525.189	25339.01
525.391	25560.19
525.592	25748.6
525.794	25736.31
525.995	26360.94
526.197	26174.58
526.398	25887.86
526.6	26692.71
526.801	26397.81
527.003	26711.14
527.204	26498.16
527.406	26946.66
527.607	26799.21
527.808	26952.8
528.01	26840.17
528.211	27077.73
528.412	27735.13
528.614	27645.02
528.815	27288.67
529.016	27528.28
529.218	27595.87
529.419	27479.13
529.62	27360.35
529.822	27501.66
530.023	27944.02
530.224	27812.95
530.425	27755.61
530.626	27632.73
530.828	27782.23
531.029	28724.3
531.23	27964.5
531.431	27761.75
531.632	28298.32
531.833	28423.25
532.035	28234.83
532.236	28527.69
532.437	28224.59
532.638	28290.13
532.839	28777.54
533.04	28675.15
533.241	28281.94
533.442	28660.81
533.643	28253.26
533.844	28513.36
534.045	28726.35
534.246	28339.28
534.447	28922.95
534.648	28523.6
534.849	28820.55
535.05	28724.3
535.251	28562.51
535.451	28466.25
535.652	28986.44
535.853	28755.02
536.054	29084.74
536.255	28861.51
536.456	28437.58
536.657	29152.32
536.857	28865.61
537.058	28658.76
537.259	29004.87
537.46	29193.28
537.66	28689.48
537.861	29074.5
538.062	28640.33
538.263	28904.52
538.463	28808.26
538.664	28773.45
538.865	29047.88
539.065	28961.86
539.266	28691.53
539.466	29160.52
539.667	28382.29
539.868	29174.85
540.068	28937.29
540.269	28881.99
540.469	28730.44
540.67	29164.61
540.87	28791.88
541.071	28730.44
541.271	28826.7
541.472	29033.54
541.672	29101.12
541.873	28529.74
542.073	28578.89
542.274	29174.85
542.474	28513.36
542.675	28482.64
542.875	29058.12
543.075	28859.46
543.276	28638.28
543.476	28922.95
543.676	28357.71
543.877	28828.74
544.077	28736.59
544.277	28777.54
544.478	28800.07
544.678	28869.7
544.878	28906.57
545.078	28806.22
545.279	28810.31
545.479	28802.12
545.679	28781.64
545.879	28849.22
546.079	28783.69
546.28	28648.52
546.48	28795.98
546.68	28654.67
546.88	28902.47
547.08	28795.98
547.28	29011.01
547.48	28513.36
547.68	28804.17
547.88	28609.61
548.081	28781.64
548.281	28640.33
548.481	28726.35
548.681	28920.9
548.881	28744.78
549.081	28732.49
549.28	28626
549.48	28767.31
549.68	28566.6
549.88	29133.89
550.08	28615.76
550.28	28679.24
550.48	28402.77
550.68	29049.92
550.88	28339.28
551.08	28701.77
551.279	28591.18
551.479	28517.45
551.679	28812.36
551.879	28484.69
552.079	28585.04
552.278	28681.29
552.478	28636.24
552.678	28593.23
552.878	28703.82
553.077	28533.84
553.277	28331.09
553.477	28931.14
553.676	28531.79
553.876	28685.39
554.076	28564.56
554.275	28372.05
554.475	28132.43
554.674	28877.9
554.874	28462.16
555.074	28591.18
555.273	28515.4
555.473	28509.26
555.672	28054.61
555.872	28038.23
556.071	28220.5
556.271	28292.18
556.47	28111.96
556.67	27966.55
556.869	27917.4
557.068	28337.23
557.268	27892.82
557.467	28109.91
557.667	28425.29
557.866	27706.46
558.065	27929.69
558.265	27843.67
558.464	27976.79
558.663	27980.89
558.863	27585.63
559.062	28083.28
559.261	27350.11
559.461	27958.36
559.66	27516
559.859	27577.44
560.058	27624.54
560.258	27540.57
560.457	27094.11
560.656	27778.14
560.855	27290.72
561.054	27559
561.253	27018.34
561.453	27472.99
561.652	27425.89
561.851	27264.1
562.05	27141.22
562.249	26750.06
562.448	27110.5
562.647	26903.65
562.846	26954.85
563.045	26866.79
563.244	26580.07
563.443	26819.69
563.642	26563.69
563.841	26786.92
564.04	26813.54
564.239	26772.58
564.438	26526.83
564.637	26889.32
564.836	26240.11
565.035	26651.75
565.234	26582.12
565.432	26317.93
565.631	26072.18
565.83	26027.12
566.029	26055.79
566.228	26272.88
566.427	26143.86
566.625	25953.4
566.824	25861.24
567.023	26238.06
567.222	25472.12
567.42	25865.33
567.619	25496.7
567.818	25664.63
568.016	25461.88
568.215	25259.13
568.414	25257.09
568.612	26074.23
568.811	25427.07
569.01	25431.16
569.208	24732.81
569.407	25224.32
569.605	25037.95
569.804	25179.26
570.002	25083.01
570.201	24929.41
570.4	24769.67
570.598	24593.54
570.797	24476.81
570.995	24962.18
571.193	24579.21
571.392	24908.93
571.59	24595.59
571.789	24308.88
571.987	24384.65
572.186	24126.61
572.384	24163.47
572.582	24325.26
572.781	24274.06
572.979	23897.24
573.177	23813.27
573.376	23569.56
573.574	23970.96
573.772	24038.55
573.971	23520.41
574.169	23528.6
574.367	23434.39
574.565	23569.56
574.763	23180.45
574.962	23151.77
575.16	23061.66
575.358	23270.56
575.556	22930.59
575.754	23358.62
575.952	22942.88
576.151	22994.08
576.349	22588.58
576.547	22803.62
576.745	22912.16
576.943	22592.68
577.141	22400.17
577.339	22645.93
577.537	22574.25
577.735	22258.86
577.933	22514.86
578.131	22281.39
578.329	22219.95
578.527	21859.51
578.725	21916.85
578.923	22131.89
579.121	21974.19
579.319	21871.79
579.516	21904.56
579.714	21521.59
579.912	21421.24
580.11	21359.8
580.308	21765.3
580.506	21361.85
580.704	21255.36
580.901	21376.19
581.099	21220.54
581.297	21347.51
581.495	21212.35
581.692	21339.32
581.89	21068.99
582.088	21001.41
582.285	21083.33
582.483	21060.8
582.681	21028.03
582.878	20763.84
583.076	20726.98
583.274	20698.31
583.471	20432.07
583.669	20442.31
583.866	20509.9
584.064	20319.43
584.262	20257.99
584.459	20329.67
584.657	20319.43
584.854	20395.21
585.052	19928.27
585.249	20079.82
585.447	19875.02
585.644	19676.37
585.841	20038.86
586.039	20317.39
586.236	19422.42
586.434	19623.12
586.631	19479.77
586.828	19721.43
587.026	19596.5
587.223	19444.95
587.42	19223.77
587.618	19436.76
587.815	19201.24
588.012	19209.43
588.21	19072.22
588.407	19436.76
588.604	18863.33
588.801	18955.49
588.999	18816.22
589.196	19021.02
589.393	18746.59
589.59	19074.27
589.787	18732.26
589.984	18658.53
590.182	18728.16
590.379	18640.1
590.576	18406.63
590.773	18523.37
590.97	18638.05
591.167	18341.1
591.364	18158.83
591.561	18210.03
591.758	18337
591.955	18138.35
592.152	18269.42
592.349	18179.31
592.546	18078.96
592.743	17921.26
592.94	17671.41
593.137	18148.59
593.334	17818.86
593.531	17542.39
593.727	17652.98
593.924	17661.17
594.121	17435.89
594.318	17493.24
594.515	17171.71
594.712	17448.18
594.908	17077.5
595.105	17263.86
595.302	17065.21
595.499	17237.24
595.696	16999.68
595.892	17243.38
596.089	17112.31
596.286	17026.3
596.482	16958.72
596.679	16971.01
596.876	17097.98
597.072	16762.11
597.269	16960.77
597.466	16434.44
597.662	16672
597.859	16827.65
598.055	16682.24
598.252	16659.71
598.448	16710.91
598.645	16514.31
598.841	16233.74
599.038	16307.46
599.234	16356.61
599.431	16047.37
599.627	16004.36
599.824	15820.05
600.02	16047.37
600.217	16006.41
600.413	16045.32
600.609	15832.33
600.806	15699.22
601.002	16248.07
601.198	15762.7
601.395	15557.91
601.591	15713.55
601.787	15559.95
601.984	15338.77
602.18	15791.38
602.376	15455.51
602.572	15367.45
602.769	15295.77
602.965	15174.94
603.161	15383.83
603.357	15322.39
603.553	15303.96
603.75	15109.4
603.946	14925.08
604.142	15185.18
604.338	14941.47
604.534	14880.03
604.73	14837.02
604.926	14652.7
605.122	14798.11
605.318	14779.68
605.514	14505.25
605.71	14703.9
605.906	14484.77
606.102	14365.99
606.298	14546.21
606.494	14533.92
606.69	14488.87
606.886	14449.96
607.082	14394.66
607.278	14533.92
607.474	14116.14
607.67	14310.69
607.866	14071.08
608.062	14288.17
608.257	13894.96
608.453	14298.41
608.649	14247.21
608.845	14079.27
609.041	13952.3
609.236	13770.03
609.432	13874.48
609.628	13772.08
609.824	13860.14
610.019	13983.02
610.215	13612.34
610.411	13638.96
610.606	13749.55
610.802	13528.37
610.998	13538.61
611.193	13593.9
611.389	13272.37
611.584	13274.42
611.78	13190.45
611.976	13301.05
612.171	13272.37
612.367	13370.68
612.562	13331.76
612.758	13071.67
612.953	12948.79
613.149	13399.35
613.344	13325.62
613.539	13333.81
613.735	13200.69
613.93	13030.71
614.126	12997.95
614.321	13071.67
614.517	13067.58
614.712	12973.37
614.907	12780.86
615.103	12762.43
615.298	12928.31
615.493	12903.74
615.688	12506.43
615.884	13008.19
616.079	12766.53
616.274	12680.51
616.47	12625.22
616.665	12825.92
616.86	12422.47
617.055	12506.43
617.25	12741.95
617.445	12651.84
617.641	12289.35
617.836	12623.17
618.031	12182.85
618.226	12428.61
618.421	12090.7
618.616	12604.74
618.811	12072.26
619.006	12363.08
619.201	12035.4
619.396	12062.02
619.591	11967.82
619.786	12186.95
619.981	11605.33
620.176	11756.88
620.371	11674.96
620.566	11736.4
620.761	11586.9
620.956	11654.48
621.151	11717.97
621.346	11539.79
621.541	11603.28
621.735	11523.41
621.93	11281.75
622.125	11451.73
622.32	11279.7
622.515	11119.96
622.709	11074.9
622.904	11160.92
623.099	10988.89
623.294	10997.08
623.488	10966.36
623.683	10790.24
623.878	10851.67
624.072	10868.06
624.267	10659.17
624.462	10526.05
624.656	10636.64
624.851	10595.68
625.046	10323.3
625.24	10499.42
625.435	10548.58
625.629	10460.51
625.824	10169.7
626.018	10261.86
626.213	9903.46
626.407	10130.79
626.602	9801.07
626.796	10079.59
626.991	9876.84
627.185	9852.27
627.38	9622.89
627.574	9723.24
627.768	9809.26
627.963	9483.63
628.157	9495.92
628.352	9534.83
628.546	9518.45
628.74	9428.34
628.935	9266.55
629.129	9391.47
629.323	9260.4
629.517	9258.35
629.712	8953.21
629.906	9221.49
630.1	9033.08
630.294	9071.99
630.489	8859
630.683	8889.72
630.877	8760.7
631.071	8820.09
631.265	8990.07
631.459	8682.88
631.653	8625.53
631.848	8596.86
632.042	8600.96
632.236	8717.69
632.43	8594.81
632.624	8342.91
632.818	8355.2
633.012	8336.77
633.206	8402.3
633.4	8244.61
633.594	8236.42
633.788	8222.08
633.982	8220.03
634.176	8019.33
634.369	7961.99
634.563	8009.09
634.757	8148.36
634.951	7935.37
635.145	7898.5
635.339	7875.98
635.533	7751.05
635.726	7835.02
635.92	7718.28
636.114	7763.34
636.308	7579.02
636.501	7794.06
636.695	7544.2
636.889	7665.04
637.083	7450
637.276	7421.33
637.47	7333.26
637.664	7325.07
637.857	7433.61
638.051	7218.58
638.244	7124.37
638.438	7179.67
638.632	7261.59
638.825	7048.6
639.019	7253.39
639.212	7220.63
639.406	7005.59
639.599	6829.46
639.793	6901.14
639.986	6948.25
640.18	6901.14
640.373	6862.23
640.567	6743.45
640.76	6606.24
640.954	6596
641.147	6417.82
641.34	6458.78
641.534	6544.8
641.727	6573.47
641.92	6583.71
642.114	6438.3
642.307	6452.64
642.5	6387.1
642.694	6266.27
642.887	6440.35
643.08	6333.86
643.273	6348.19
643.467	6204.83
643.66	6290.85
643.853	6053.28
644.046	6147.49
644.239	6043.04
644.432	5875.11
644.626	6059.43
644.819	5932.45
645.012	5936.55
645.205	5864.87
645.398	5928.36
645.591	5805.48
645.784	5842.34
645.977	5823.91
646.17	5770.66
646.363	5631.4
646.556	5692.84
646.749	5516.72
646.942	5576.11
647.135	5578.15
647.328	5582.25
647.521	5361.07
647.714	5322.16
647.907	5467.56
648.099	5434.8
648.292	5426.61
648.485	5248.43
648.678	5180.85
648.871	5223.86
649.064	5320.11
649.256	5221.81
649.449	5166.51
649.642	4996.53
649.835	5035.44
650.027	5232.05
650.22	5109.17
650.413	4988.34
650.605	4883.89
650.798	4900.28
650.991	4957.62
651.183	4996.53
651.376	4670.9
651.568	4799.93
651.761	4853.17
651.954	4763.06
652.146	4769.21
652.339	4787.64
652.531	4795.83
652.724	4838.84
652.916	4584.89
653.109	4687.29
653.301	4607.42
653.494	4806.07
653.686	4419
653.879	4459.96
654.071	4457.92
654.263	4414.91
654.456	4476.35
654.648	4427.2
654.84	4320.7
655.033	4269.5
655.225	4367.81
655.417	4414.91
655.61	4384.19
655.802	4380.09
655.994	4251.07
656.186	4156.86
656.379	4076.99
656.571	4160.96
656.763	4107.71
656.955	4259.26
657.148	4177.34
657.34	4054.47
657.532	3993.03
657.724	3939.78
657.916	4048.32
658.108	3997.12
658.3	4036.03
658.492	3925.44
658.684	3947.97
658.876	3937.73
659.068	3816.9
659.26	3763.65
659.452	3761.61
659.644	3675.59
659.836	3646.92
660.028	3892.68
660.22	3565
660.412	3597.77
660.604	3581.39
660.796	3601.87
660.988	3583.43
661.18	3624.39
661.372	3448.27
661.563	3687.88
661.755	3509.71
661.947	3575.24
662.139	3493.32
662.331	3413.45
662.522	3454.41
662.714	3493.32
662.906	3401.16
663.097	3458.51
663.289	3268.05
663.481	3343.82
663.673	3309.01
663.864	3245.52
664.056	3309.01
664.247	3319.25
664.439	3212.75
664.631	3466.7
664.822	3216.85
665.014	3358.16
665.205	3184.08
665.397	3122.64
665.588	3169.74
665.78	3196.37
665.971	3294.67
666.163	3077.59
666.354	3067.35
666.546	3104.21
666.737	3048.91
666.929	3110.35
667.12	2987.47
667.311	2960.85
667.503	2944.47
667.694	3057.11
667.885	2934.23
668.077	2928.08
668.268	2954.71
668.459	2975.19
668.651	2907.6
668.842	2950.61
669.033	2987.47
669.224	2827.73
669.416	2792.92
669.607	2870.74
669.798	2846.16
669.989	2768.34
670.18	2852.31
670.371	2729.43
670.563	2788.82
670.754	2819.54
670.945	2821.59
671.136	2682.33
671.327	2633.18
671.518	2729.43
671.709	2719.19
671.9	2739.67
672.091	2612.7
672.282	2788.82
672.473	2635.22
672.664	2661.85
672.855	2698.71
673.046	2569.69
673.237	2727.38
673.428	2561.5
673.619	2600.41
673.809	2530.78
674	2584.02
674.191	2563.54
674.382	2608.6
674.573	2620.89
674.764	2538.97
674.954	2600.41
675.145	2559.45
675.336	2446.81
675.527	2549.21
675.717	2463.19
675.908	2532.83
676.099	2510.3
676.289	2467.29
676.48	2465.24
676.671	2489.82
676.861	2414.04
677.052	2446.81
677.243	2518.49
677.433	2348.51
677.624	2426.33
677.814	2481.63
678.005	2350.56
678.195	2520.54
678.386	2461.15
678.576	2342.36
678.767	2334.17
678.957	2313.69
679.148	2381.28
679.338	2432.47
679.529	2379.23
679.719	2391.52
679.909	2393.56
680.1	2422.24
680.29	2291.17
680.481	2444.76
680.671	2280.93
680.861	2317.79
681.052	2409.95
681.242	2295.26
681.432	2377.18
681.622	2129.38
681.813	2405.85
682.003	2309.6
682.193	2317.79
682.383	2332.12
682.573	2330.08
682.764	2315.74
682.954	2231.77
683.144	2266.59
683.334	2176.48
683.524	2192.86
683.714	2194.91
683.904	2184.67
684.094	2102.75
684.284	2186.72
684.474	2242.01
684.664	2260.45
684.854	2250.21
685.044	2321.88
685.234	2205.15
685.424	2180.57
685.614	2237.92
685.804	2207.2
685.994	2221.53
686.184	2135.52
686.374	2125.28
686.564	2131.42
686.753	2088.42
686.943	2164.19
687.133	2256.35
687.323	2205.15
687.513	2188.77
687.702	2211.29
687.892	2258.4
688.082	2301.4
688.272	2094.56
688.461	2293.21
688.651	2158.05
688.841	2201.05
689.03	2125.28
689.22	2233.82
689.41	2031.07
689.599	2160.1
689.789	2092.51
689.979	2119.14
690.168	2067.94
690.358	1902.05
690.547	1904.1
690.737	2100.7
690.926	2133.47
691.116	2037.22
691.305	2121.18
691.495	2022.88
691.684	2143.71
691.874	2074.08
692.063	2102.75
692.252	2164.19
692.442	2119.14
692.631	2041.31
692.82	2076.13
693.01	1994.21
693.199	2102.75
693.388	1932.77
693.578	2106.85
693.767	2004.45
693.956	1926.63
694.146	2072.03
694.335	1973.73
694.524	2076.13
694.713	2018.79
694.902	2029.03
695.092	2100.7
695.281	2088.42
695.47	2069.98
695.659	2016.74
695.848	2108.9
696.037	2088.42
696.226	2063.84
696.415	2108.9
696.604	2080.22
696.793	1983.97
696.982	2029.03
697.171	2067.94
697.36	2029.03
697.549	1949.15
697.738	2026.98
697.927	2026.98
698.116	2143.71
698.305	2072.03
698.494	1949.15
698.683	2104.8
698.872	1963.49
699.061	2045.41
699.25	2170.33
699.438	2080.22
699.627	2002.4
699.816	2022.88
700.005	2016.74
700.193	1988.07
700.382	1906.15
700.571	1981.92
700.76	1859.04
700.948	2029.03
701.137	2065.89
701.326	2031.07
701.514	1969.63
701.703	1986.02
701.892	2053.6
702.08	1979.87
702.269	2049.5
702.457	1967.59
702.646	1924.58
702.834	1963.49
703.023	1981.92
703.212	2000.35
703.4	1900
703.589	1859.04
703.777	1912.29
703.965	1902.05
704.154	1818.08
704.342	2016.74
704.531	1871.33
704.719	1891.81
704.907	1861.09
705.096	1846.76
705.284	1951.2
705.472	1965.54
705.661	1893.86
705.849	1912.29
706.037	2053.6
706.226	1906.15
706.414	1951.2
706.602	1969.63
706.79	1822.18
706.979	1934.82
707.167	1721.83
707.355	1996.26
707.543	1865.19
707.731	1910.24
707.919	1785.32
708.107	1840.61
708.296	1934.82
708.484	1867.24
708.672	1818.08
708.86	1914.34
709.048	1877.48
709.236	1893.86
709.424	1793.51
709.612	1760.74
709.8	1891.81
709.988	1830.37
710.176	1820.13
710.364	1697.25
710.551	1795.56
710.739	1826.28
710.927	1764.84
711.115	1842.66
711.303	1752.55
711.491	1594.86
711.679	1770.98
711.866	1705.45
712.054	1770.98
712.242	1727.97
712.43	1811.94
712.617	1689.06
712.805	1650.15
712.993	1781.22
713.181	1670.63
713.368	1633.77
713.556	1705.45
713.744	1687.01
713.931	1830.37
714.119	1736.17
714.306	1721.83
714.494	1701.35
714.682	1742.31
714.869	1687.01
715.057	1672.68
715.244	1695.21
715.432	1689.06
715.619	1713.64
715.807	1617.38
715.994	1668.58
716.182	1607.14
716.369	1660.39
716.556	1588.71
716.744	1514.98
716.931	1650.15
717.119	1648.1
717.306	1736.17
717.493	1580.52
717.681	1592.81
717.868	1584.62
718.055	1625.58
718.242	1687.01
718.43	1568.23
718.617	1601
718.804	1566.18
718.991	1435.11
719.179	1517.03
719.366	1533.42
719.553	1471.98
719.74	1625.58
719.927	1609.19
720.114	1531.37
720.301	1529.32
720.488	1412.59
720.676	1471.98
720.863	1498.6
721.05	1564.14
721.237	1576.42
721.424	1396.2
721.611	1443.31
721.798	1451.5
721.985	1404.39
722.172	1517.03
722.358	1455.59
722.545	1484.27
722.732	1449.45
722.919	1412.59
723.106	1549.8
723.293	1416.68
723.48	1500.65
723.667	1412.59
723.853	1459.69
724.04	1404.39
724.227	1469.93
724.414	1365.48
724.6	1447.4
724.787	1592.81
724.974	1406.44
725.161	1367.53
725.347	1318.38
725.534	1377.77
725.72	1369.58
725.907	1420.78
726.094	1463.79
726.28	1328.62
726.467	1383.91
726.653	1377.77
726.84	1271.28
727.027	1390.06
727.213	1263.08
727.4	1416.68
727.586	1347.05
727.773	1392.11
727.959	1367.53
728.145	1385.96
728.332	1365.48
728.518	1367.53
728.705	1304.04
728.891	1295.85
729.077	1342.96
729.264	1349.1
729.45	1359.34
729.636	1316.33
729.823	1318.38
730.009	1363.44
730.195	1279.47
730.382	1238.51
730.568	1297.9
730.754	1207.79
730.94	1314.28
731.126	1222.13
731.313	1277.42
731.499	1359.34
731.685	1254.89
731.871	1347.05
732.057	1328.62
732.243	1361.39
732.429	1400.3
732.615	1181.17
732.801	1265.13
732.987	1267.18
733.173	1328.62
733.359	1250.8
733.545	1183.21
733.731	1193.45
733.917	1252.84
734.103	1252.84
734.289	1209.84
734.475	1258.99
734.661	1289.71
734.847	1197.55
735.033	1279.47
735.219	1156.59
735.404	1207.79
735.59	1162.73
735.776	1080.82
735.962	1177.07
736.148	1168.88
736.333	1175.02
736.519	1166.83
736.705	1142.25
736.89	1175.02
737.076	1224.17
737.262	1209.84
737.447	1154.54
737.633	1220.08
737.819	1226.22
738.004	1181.17
738.19	1138.16
738.375	1125.87
738.561	1080.82
738.747	1172.97
738.932	1269.23
739.118	1125.87
739.303	1115.63
739.489	1142.25
739.674	1105.39
739.859	1117.68
740.045	1129.97
740.23	1142.25
740.416	1115.63
740.601	1187.31
740.786	1097.2
740.972	1046
741.157	1050.1
741.342	1150.45
741.528	1111.54
741.713	1082.86
741.898	1019.38
742.084	1138.16
742.269	1084.91
742.454	1095.15
742.639	1046
742.824	1097.2
743.01	1127.92
743.195	1023.47
743.38	1033.71
743.565	1068.53
743.75	959.99
743.935	998.9
744.12	1013.23
744.305	1115.63
744.49	1009.14
744.675	945.65
744.86	912.88
745.045	986.61
745.23	935.41
745.415	962.03
745.6	996.85
745.785	1000.94
745.97	976.37
746.155	966.13
746.34	937.46
746.525	996.85
746.71	959.99
746.895	943.6
747.079	902.64
747.264	912.88
747.449	955.89
747.634	873.97
747.819	964.08
748.003	904.69
748.188	847.35
748.373	957.94
748.557	939.51
748.742	957.94
748.927	857.59
749.111	906.74
749.296	863.73
749.481	843.25
749.665	873.97
749.85	808.44
750.034	890.35
750.219	902.64
750.404	763.38
750.588	888.31
750.773	835.06
750.957	847.35
751.141	822.77
751.326	759.28
751.51	779.76
751.695	824.82
751.879	812.53
752.064	738.8
752.248	757.24
752.432	861.68
752.617	779.76
752.801	833.01
752.985	830.96
753.17	759.28
753.354	769.52
753.538	757.24
753.722	763.38
753.907	790
754.091	732.66
754.275	747
754.459	728.56
754.643	656.89
754.828	712.18
755.012	742.9
755.196	761.33
755.38	712.18
755.564	646.65
755.748	681.46
755.932	671.22
756.116	714.23
756.3	708.09
756.484	728.56
756.668	736.76
756.852	644.6
757.036	681.46
757.22	617.97
757.404	556.54
757.588	658.93
757.772	611.83
757.956	691.7
758.14	630.26
758.323	609.78
758.507	617.97
758.691	626.17
758.875	648.69
759.059	654.84
759.242	630.26
759.426	572.92
759.61	595.45
759.794	595.45
759.977	650.74
760.161	652.79
760.345	640.5
760.528	548.34
760.712	624.12
760.895	534.01
761.079	503.29
761.263	550.39
761.446	558.58
761.63	644.6
761.813	529.91
761.997	552.44
762.18	531.96
762.364	560.63
762.547	554.49
762.731	550.39
762.914	556.54
763.098	542.2
763.281	491
763.464	536.06
763.648	519.67
763.831	554.49
764.015	595.45
764.198	519.67
764.381	505.34
764.564	513.53
764.748	550.39
764.931	536.06
765.114	603.64
765.297	538.1
765.481	509.43
765.664	538.1
765.847	464.38
766.03	542.2
766.213	431.61
766.397	548.34
766.58	546.3
766.763	560.63
766.946	452.09
767.129	513.53
767.312	491
767.495	593.4
767.678	511.48
767.861	495.1
768.044	499.19
768.227	546.3
768.41	486.9
768.593	458.23
768.776	470.52
768.959	384.51
769.142	493.05
769.324	480.76
769.507	493.05
769.69	435.71
769.873	443.9
770.056	478.71
770.239	409.08
770.421	536.06
770.604	464.38
770.787	386.55
770.97	374.27
771.152	435.71
771.335	503.29
771.518	482.81
771.7	431.61
771.883	519.67
772.066	411.13
772.248	366.07
772.431	437.75
772.613	468.47
772.796	452.09
772.978	460.28
773.161	433.66
773.343	433.66
773.526	515.58
773.708	376.31
773.891	425.47
774.073	454.14
774.256	441.85
774.438	355.83
774.621	419.32
774.803	378.36
774.985	361.98
775.168	431.61
775.35	415.23
775.532	349.69
775.715	400.89
775.897	443.9
776.079	359.93
776.261	349.69
776.444	382.46
776.626	484.86
776.808	359.93
776.99	368.12
777.173	407.03
777.355	384.51
777.537	447.99
777.719	388.6
777.901	345.59
778.083	364.03
778.265	411.13
778.447	384.51
778.629	439.8
778.811	376.31
778.993	341.5
779.175	335.35
779.357	351.74
779.539	308.73
779.721	321.02
779.903	364.03
780.085	321.02
780.267	331.26
780.449	331.26
780.631	333.31
780.812	341.5
780.994	298.49
781.176	312.83
781.358	247.29
781.54	333.31
781.721	323.07
781.903	390.65
782.085	321.02
782.267	210.43
782.448	261.63
782.63	290.3
782.812	294.4
782.993	261.63
783.175	273.92
783.357	224.76
783.538	263.68
783.72	241.15
783.901	339.45
784.083	284.16
784.264	249.34
784.446	318.97
784.627	263.68
784.809	290.3
784.99	280.06
785.172	343.55
785.353	245.24
785.535	220.67
785.716	200.19
785.897	183.81
786.079	171.52
786.26	273.92
786.441	204.28
786.623	210.43
786.804	224.76
786.985	253.44
787.167	280.06
787.348	251.39
787.529	228.86
787.71	271.87
787.891	261.63
788.073	204.28
788.254	226.81
788.435	300.54
788.616	196.09
788.797	282.11
788.978	235
789.159	241.15
789.34	214.52
789.522	157.18
789.703	187.9
789.884	216.57
790.065	286.2
790.246	235
790.427	239.1
790.607	146.94
790.788	140.8
790.969	185.85
791.15	232.96
791.331	181.76
791.512	165.37
791.693	167.42
791.874	202.24
792.054	212.48
792.235	155.13
792.416	165.37
792.597	206.33
792.778	192
792.958	241.15
793.139	202.24
793.32	179.71
793.5	144.89
793.681	153.09
793.862	167.42
794.042	230.91
794.223	112.13
794.404	202.24
794.584	249.34
794.765	189.95
794.945	210.43
795.126	181.76
795.306	153.09
795.487	222.72
795.667	196.09
795.848	173.57
796.028	138.75
796.209	120.32
796.389	161.28
796.57	214.52
796.75	136.7
796.93	165.37
797.111	114.17
797.291	169.47
797.471	142.85
797.652	183.81
797.832	126.46
798.012	204.28
798.192	136.7
798.373	130.56
798.553	91.65
798.733	157.18
798.913	75.26
799.093	148.99
799.274	146.94
799.454	206.33
799.634	118.27
799.814	173.57
799.994	132.61
800.174	230.91
800.354	54.78
800.534	181.76
800.714	140.8
800.894	167.42
801.074	79.36
801.254	194.05
801.434	165.37
801.614	220.67
801.794	175.61
801.974	327.16
802.154	163.33
802.334	120.32
802.514	167.42
802.693	204.28
802.873	116.22
803.053	161.28
803.233	136.7
803.413	140.8
803.592	105.98
803.772	71.17
803.952	153.09
804.131	163.33
804.311	103.93
804.491	146.94
804.67	87.55
804.85	159.23
805.03	159.23
805.209	206.33
805.389	140.8
805.568	161.28
805.748	87.55
805.928	118.27
806.107	151.04
806.287	126.46
806.466	93.69
806.646	105.98
806.825	69.12
807.004	62.98
807.184	157.18
807.363	124.41
807.543	138.75
807.722	116.22
807.901	85.5
808.081	173.57
808.26	95.74
808.439	79.36
808.619	105.98
808.798	120.32
808.977	126.46
809.156	81.41
809.336	114.17
809.515	126.46
809.694	108.03
809.873	71.17
810.052	22.02
810.231	93.69
810.411	71.17
810.59	110.08
810.769	56.83
810.948	101.89
811.127	75.26
811.306	77.31
811.485	60.93
811.664	87.55
811.843	116.22
812.022	114.17
812.201	122.37
812.38	54.78
812.559	28.16
812.737	67.07
812.916	62.98
813.095	116.22
813.274	-27.14
813.453	91.65
813.632	87.55
813.811	138.75
813.989	54.78
814.168	83.45
814.347	95.74
814.526	126.46
814.704	81.41
814.883	118.27
815.062	85.5
815.24	103.93
815.419	48.64
815.598	52.74
815.776	28.16
815.955	153.09
816.133	128.51
816.312	118.27
816.49	65.02
816.669	118.27
816.847	22.02
817.026	44.54
817.204	95.74
817.383	87.55
817.561	67.07
817.74	81.41
817.918	71.17
818.097	99.84
818.275	99.84
818.453	93.69
818.632	99.84
818.81	73.21
818.988	1.54
819.167	99.84
819.345	50.69
819.523	1.54
819.701	38.4
819.879	62.98
820.058	75.26
820.236	116.22
820.414	89.6
820.592	24.06
820.77	138.75
820.948	52.74
821.127	108.03
821.305	85.5
821.483	95.74
821.661	17.92
821.839	28.16
822.017	108.03
822.195	13.82
822.373	99.84
822.551	60.93
822.729	85.5
822.907	122.37
823.085	148.99
823.262	40.45
823.44	22.02
823.618	60.93
823.796	32.26
823.974	56.83
824.152	52.74
824.329	38.4
824.507	93.69
824.685	56.83
824.863	50.69
825.04	38.4
825.218	67.07
825.396	52.74
825.574	95.74
825.751	58.88
825.929	75.26
826.107	132.61
826.284	28.16
826.462	116.22
826.639	26.11
826.817	22.02
826.994	52.74
827.172	83.45
827.349	52.74
827.527	71.17
827.704	144.89
827.882	77.31
828.059	-14.85
828.237	42.5
828.414	114.17
828.591	48.64
828.769	112.13
828.946	67.07
829.124	54.78
829.301	75.26
829.478	87.55
829.655	67.07
829.833	-14.85
830.01	30.21
830.187	71.17
830.364	17.92
830.542	-18.94
830.719	81.41
830.896	99.84
831.073	67.07
831.25	97.79
831.427	15.87
831.604	89.6
831.782	36.35
831.959	32.26
832.136	73.21
832.313	83.45
832.49	60.93
832.667	58.88
832.844	26.11
833.021	101.89
833.198	56.83
833.374	13.82
833.551	13.82
833.728	75.26
833.905	44.54
834.082	99.84
834.259	26.11
834.436	69.12
834.612	44.54
834.789	-0.51
834.966	99.84
835.143	36.35
835.319	58.88
835.496	-2.56
835.673	52.74
835.85	69.12
836.026	81.41
836.203	11.78
836.38	28.16
836.556	1.54
836.733	71.17
836.909	71.17
837.086	24.06
837.262	52.74
837.439	15.87
837.616	-2.56
837.792	15.87
837.968	73.21
838.145	1.54
838.321	7.68
838.498	54.78
838.674	50.69
838.851	24.06
839.027	-18.94
839.203	36.35
839.38	75.26
839.556	9.73
839.732	44.54
839.909	81.41
840.085	-53.76
840.261	38.4
840.437	-41.47
840.614	-16.9
840.79	48.64
840.966	50.69
841.142	38.4
841.318	34.3
841.494	79.36
841.671	1.54
841.847	19.97
842.023	-2.56
842.199	54.78
842.375	81.41
842.551	30.21
842.727	28.16
842.903	-4.61
843.079	40.45
843.255	40.45
843.431	22.02
843.607	42.5
843.783	46.59
843.959	36.35
844.134	118.27
844.31	30.21
844.486	58.88
844.662	-35.33
844.838	44.54
845.013	5.63
845.189	24.06
845.365	67.07
845.541	36.35
845.716	48.64
845.892	60.93
846.068	79.36
846.244	-12.8
846.419	108.03
846.595	17.92
846.77	11.78
846.946	50.69
847.122	34.3
847.297	54.78
847.473	3.58
847.648	26.11
847.824	36.35
847.999	-0.51
848.175	28.16
848.35	-2.56
848.526	22.02
848.701	136.7
848.876	42.5
849.052	28.16
849.227	83.45
849.403	60.93
849.578	30.21
849.753	-51.71
849.929	-31.23
850.104	-14.85
850.279	42.5
850.454	34.3
850.63	48.64
850.805	71.17
850.98	38.4
851.155	28.16
851.33	144.89
851.505	42.5
851.681	54.78
851.856	-4.61
852.031	67.07
852.206	9.73
852.381	30.21
852.556	1.54
852.731	54.78
852.906	-6.66
853.081	-23.04
853.256	-51.71
853.431	65.02
853.606	-29.18
853.781	75.26
853.956	5.63
854.131	-8.7
854.305	-27.14
854.48	7.68
854.655	-37.38
854.83	19.97
855.005	-0.51
855.18	24.06
855.354	-14.85
855.529	42.5
855.704	22.02
855.879	3.58
856.053	19.97
856.228	-0.51
856.403	-23.04
856.577	40.45
856.752	-45.57
856.926	13.82
857.101	30.21
857.276	24.06
857.45	-14.85
857.625	13.82
857.799	-16.9
857.974	89.6
858.148	24.06
858.323	34.3
858.497	-18.94
858.672	103.93
858.846	-8.7
859.02	34.3
859.195	24.06
859.369	-84.48
859.543	89.6
859.718	1.54
859.892	-2.56
860.066	-16.9
860.241	58.88
860.415	67.07
860.589	17.92
860.763	30.21
860.938	30.21
861.112	26.11
861.286	60.93
861.46	1.54
861.634	32.26
861.808	50.69
861.982	17.92
862.157	11.78
862.331	69.12
862.505	26.11
862.679	5.63
862.853	44.54
863.027	62.98
863.201	-39.42
863.375	26.11
863.549	-31.23
863.722	60.93
863.896	89.6
864.07	-0.51
864.244	24.06
864.418	36.35
864.592	52.74
864.766	13.82
864.939	69.12
865.113	75.26
865.287	17.92
865.461	-74.24
865.634	3.58
865.808	44.54
865.982	22.02
866.156	-88.57
866.329	28.16
866.503	-37.38
866.676	-4.61
866.85	-23.04
867.024	38.4
867.197	32.26
867.371	32.26
867.544	-10.75
867.718	15.87
867.891	110.08
868.065	44.54
868.238	-49.66
868.412	46.59
868.585	9.73
868.759	60.93
868.932	-29.18
869.105	44.54
869.279	28.16
869.452	42.5
869.625	-6.66
869.799	-0.51
869.972	-14.85
870.145	-4.61
870.319	69.12
870.492	54.78
870.665	-53.76
870.838	1.54
871.011	52.74
871.185	-12.8
871.358	24.06
871.531	60.93
871.704	-10.75
871.877	-23.04
872.05	-25.09
872.223	42.5
872.396	-14.85
872.569	42.5
872.742	-10.75
872.915	22.02
873.088	46.59
873.261	71.17
873.434	-29.18
873.607	-35.33
873.78	17.92
873.953	44.54
874.126	30.21
874.299	79.36
874.471	3.58
874.644	62.98
874.817	-27.14
874.99	34.3
875.163	65.02
875.335	-31.23
875.508	48.64
875.681	34.3
875.853	22.02
876.026	-14.85
876.199	-49.66
876.371	-20.99
876.544	-27.14
876.717	97.79
876.889	28.16
877.062	15.87
877.234	44.54
877.407	136.7
877.579	-8.7
877.752	58.88
877.924	7.68
878.097	13.82
878.269	-14.85
878.442	87.55
878.614	-6.66
878.786	30.21
878.959	38.4
879.131	44.54
879.303	30.21
879.476	-20.99
879.648	40.45
879.82	-31.23
879.993	-29.18
880.165	28.16
880.337	5.63
880.509	81.41
880.681	-10.75
880.854	52.74
881.026	-25.09
881.198	52.74
881.37	-39.42
881.542	-76.29
881.714	-31.23
881.886	-10.75
882.058	-0.51
882.23	-0.51
882.402	101.89
882.574	1.54
882.746	19.97
882.918	11.78
883.09	15.87
883.262	11.78
883.434	24.06
883.606	-64
883.778	9.73
883.95	30.21
884.122	-12.8
884.293	-31.23
884.465	-31.23
884.637	9.73
884.809	-2.56
884.98	56.83
885.152	-55.81
885.324	28.16
885.496	5.63
885.667	58.88
885.839	-41.47
886.011	-8.7
886.182	24.06
886.354	-12.8
886.525	-18.94
886.697	11.78
886.869	-0.51
887.04	26.11
887.212	22.02
887.383	19.97
887.555	-20.99
887.726	62.98
887.897	1.54
888.069	22.02
888.24	22.02
888.412	-49.66
888.583	-41.47
888.754	40.45
888.926	19.97
889.097	108.03
889.268	11.78
889.44	15.87
889.611	-18.94
889.782	-64
889.953	-27.14
890.125	34.3
890.296	46.59
890.467	1.54
890.638	-23.04
890.809	-2.56
890.98	7.68
891.151	-37.38
891.323	77.31
891.494	-2.56
891.665	-41.47
891.836	73.21
892.007	-64
892.178	28.16
892.349	-39.42
892.52	3.58
892.691	62.98
892.862	28.16
893.032	-2.56
893.203	34.3
893.374	5.63
893.545	-47.62
893.716	-2.56
893.887	-41.47
894.057	50.69
894.228	-31.23
894.399	24.06
894.57	1.54
894.74	44.54
894.911	69.12
895.082	5.63
895.253	-53.76
895.423	-39.42
895.594	13.82
895.764	-2.56
895.935	-23.04
896.106	-25.09
896.276	-64
896.447	54.78
896.617	15.87
896.788	17.92
896.958	-2.56
897.129	-12.8
897.299	17.92
897.47	15.87
897.64	-20.99
897.81	73.21
897.981	17.92
898.151	56.83
898.322	91.65
898.492	67.07
898.662	-20.99
898.832	17.92
899.003	22.02
899.173	-8.7
899.343	93.69
899.513	46.59
