Data from USB4F104151__150__13-58-24-595.txt Node

Date: Thu Mar 13 13:58:24 EDT 2025
User: louis
Spectrometer: USB4F10415
Trigger mode: 4
Integration Time (sec): 1.000000E-2
Scans to average: 1
Electric dark correction enabled: true
Nonlinearity correction enabled: false
Boxcar width: 0
XAxis mode: Wavelengths
Number of Pixels in Spectrum: 3648
>>>>>Begin Spectral Data<<<<<
178.204	-37.72
178.424	-37.72
178.644	-37.72
178.864	-50
179.084	-58.2
179.304	-41.81
179.524	-41.81
179.744	48.3
179.964	21.67
180.184	1.19
180.404	9.39
180.624	-39.76
180.844	-9.05
181.064	-29.52
181.283	19.63
181.503	85.16
181.723	-23.38
181.943	-37.72
182.163	-58.2
182.383	-58.2
182.602	29.87
182.822	1.19
183.042	40.11
183.262	-39.76
183.482	-13.14
183.701	-74.58
183.921	19.63
184.141	-93.01
184.361	-15.19
184.58	5.29
184.8	-29.52
185.02	15.53
185.239	-21.33
185.459	-15.19
185.679	9.39
185.898	-33.62
186.118	-9.05
186.338	11.43
186.557	-23.38
186.777	-15.19
186.997	25.77
187.216	-27.48
187.436	38.06
187.655	-41.81
187.875	-58.2
188.095	38.06
188.314	-25.43
188.534	-54.1
188.753	9.39
188.973	3.24
189.192	21.67
189.412	7.34
189.631	-9.05
189.851	-27.48
190.07	-4.95
190.29	56.49
190.509	-0.85
190.729	-11.09
190.948	-23.38
191.168	27.82
191.387	-21.33
191.607	9.39
191.826	-41.81
192.045	-90.96
192.265	-23.38
192.484	-29.52
192.704	-23.38
192.923	-47.96
193.142	5.29
193.362	-35.67
193.581	-0.85
193.8	-13.14
194.02	-9.05
194.239	11.43
194.458	-23.38
194.678	-58.2
194.897	-9.05
195.116	15.53
195.335	-64.34
195.555	-31.57
195.774	9.39
195.993	11.43
196.212	-74.58
196.432	-27.48
196.651	-2.9
196.87	-58.2
197.089	-15.19
197.308	-62.29
197.528	-43.86
197.747	-13.14
197.966	60.59
198.185	56.49
198.404	21.67
198.623	1.19
198.842	52.39
199.062	-17.24
199.281	-9.05
199.5	-15.19
199.719	-17.24
199.938	-33.62
200.157	-0.85
200.376	-113.49
200.595	27.82
200.814	-0.85
201.033	-82.77
201.252	66.73
201.471	-33.62
201.69	25.77
201.909	-27.48
202.128	52.39
202.347	-33.62
202.566	5.29
202.785	-78.68
203.004	-29.52
203.223	21.67
203.442	56.49
203.661	1.19
203.879	66.73
204.098	-17.24
204.317	48.3
204.536	42.15
204.755	-11.09
204.974	1.19
205.193	-50
205.411	-13.14
205.63	31.91
205.849	-23.38
206.068	17.58
206.287	62.63
206.505	-17.24
206.724	-33.62
206.943	17.58
207.162	-19.29
207.381	1.19
207.599	13.48
207.818	-29.52
208.037	-0.85
208.255	25.77
208.474	-21.33
208.693	-17.24
208.911	-17.24
209.13	7.34
209.349	9.39
209.567	3.24
209.786	-17.24
210.005	-11.09
210.223	33.96
210.442	-64.34
210.661	-60.24
210.879	1.19
211.098	7.34
211.316	11.43
211.535	23.72
211.753	-52.05
211.972	-19.29
212.191	-47.96
212.409	-4.95
212.628	58.54
212.846	-15.19
213.065	-11.09
213.283	17.58
213.502	-13.14
213.72	-27.48
213.938	25.77
214.157	-7
214.375	-37.72
214.594	29.87
214.812	-33.62
215.031	-25.43
215.249	-0.85
215.467	50.35
215.686	-64.34
215.904	23.72
216.122	-39.76
216.341	-9.05
216.559	17.58
216.778	-15.19
216.996	38.06
217.214	-39.76
217.432	-80.72
217.651	-13.14
217.869	7.34
218.087	-11.09
218.306	-21.33
218.524	-35.67
218.742	-17.24
218.96	-29.52
219.179	33.96
219.397	-39.76
219.615	11.43
219.833	-76.63
220.051	-21.33
220.27	-37.72
220.488	-60.24
220.706	-33.62
220.924	17.58
221.142	62.63
221.36	-0.85
221.578	1.19
221.796	-35.67
222.015	5.29
222.233	40.11
222.451	11.43
222.669	3.24
222.887	-43.86
223.105	-39.76
223.323	-9.05
223.541	25.77
223.759	23.72
223.977	-41.81
224.195	-50
224.413	-11.09
224.631	-15.19
224.849	-58.2
225.067	31.91
225.285	-39.76
225.503	-97.11
225.721	87.21
225.939	-4.95
226.157	-25.43
226.375	54.44
226.592	-107.35
226.81	-52.05
227.028	29.87
227.246	11.43
227.464	-29.52
227.682	-0.85
227.9	-17.24
228.117	5.29
228.335	-31.57
228.553	-50
228.771	7.34
228.989	48.3
229.206	-27.48
229.424	-13.14
229.642	38.06
229.86	13.48
230.077	27.82
230.295	-25.43
230.513	-37.72
230.731	11.43
230.948	54.44
231.166	-45.91
231.384	-47.96
231.601	-45.91
231.819	-15.19
232.037	-25.43
232.254	23.72
232.472	11.43
232.689	95.4
232.907	5.29
233.125	-43.86
233.342	-0.85
233.56	-17.24
233.777	7.34
233.995	-9.05
234.213	83.11
234.43	-39.76
234.648	66.73
234.865	-43.86
235.083	-0.85
235.3	1.19
235.518	25.77
235.735	7.34
235.953	-2.9
236.17	-11.09
236.388	9.39
236.605	-23.38
236.822	3.24
237.04	-17.24
237.257	15.53
237.475	-54.1
237.692	62.63
237.909	1.19
238.127	99.5
238.344	-7
238.562	40.11
238.779	17.58
238.996	-88.92
239.214	19.63
239.431	58.54
239.648	-4.95
239.865	9.39
240.083	-66.39
240.3	-19.29
240.517	-52.05
240.735	-23.38
240.952	19.63
241.169	-25.43
241.386	7.34
241.603	11.43
241.821	7.34
242.038	-9.05
242.255	-41.81
242.472	-15.19
242.689	-29.52
242.907	42.15
243.124	-2.9
243.341	-29.52
243.558	-17.24
243.775	-35.67
243.992	-31.57
244.209	64.68
244.426	-9.05
244.643	19.63
244.86	1.19
245.078	50.35
245.295	60.59
245.512	-52.05
245.729	3.24
245.946	-4.95
246.163	5.29
246.38	-25.43
246.597	23.72
246.814	15.53
247.031	5.29
247.248	33.96
247.464	40.11
247.681	-33.62
247.898	21.67
248.115	29.87
248.332	-9.05
248.549	107.69
248.766	-31.57
248.983	-52.05
249.2	-15.19
249.417	25.77
249.633	-70.48
249.85	-9.05
250.067	-37.72
250.284	72.87
250.501	46.25
250.717	-47.96
250.934	-31.57
251.151	33.96
251.368	56.49
251.585	-29.52
251.801	11.43
252.018	-23.38
252.235	-15.19
252.451	17.58
252.668	68.78
252.885	25.77
253.102	-52.05
253.318	44.2
253.535	-25.43
253.752	-25.43
253.968	-29.52
254.185	5.29
254.401	38.06
254.618	-41.81
254.835	-72.53
255.051	-2.9
255.268	-29.52
255.484	-2.9
255.701	-31.57
255.917	15.53
256.134	-25.43
256.351	-15.19
256.567	19.63
256.784	-64.34
257	15.53
257.217	-0.85
257.433	-31.57
257.65	44.2
257.866	-15.19
258.082	19.63
258.299	-37.72
258.515	15.53
258.732	23.72
258.948	42.15
259.165	-0.85
259.381	1.19
259.597	-43.86
259.814	33.96
260.03	-0.85
260.246	17.58
260.463	-11.09
260.679	31.91
260.895	27.82
261.112	-29.52
261.328	-35.67
261.544	7.34
261.761	31.91
261.977	-15.19
262.193	-4.95
262.409	-84.82
262.626	23.72
262.842	33.96
263.058	21.67
263.274	9.39
263.49	17.58
263.707	-2.9
263.923	-37.72
264.139	7.34
264.355	-31.57
264.571	-25.43
264.787	-7
265.004	15.53
265.22	-7
265.436	-103.25
265.652	-0.85
265.868	-13.14
266.084	-33.62
266.3	13.48
266.516	17.58
266.732	1.19
266.948	13.48
267.164	-33.62
267.38	-15.19
267.596	-56.15
267.812	72.87
268.028	15.53
268.244	-11.09
268.46	5.29
268.676	-64.34
268.892	-2.9
269.108	-39.76
269.324	-33.62
269.54	-13.14
269.756	25.77
269.972	-7
270.188	17.58
270.403	48.3
270.619	-31.57
270.835	5.29
271.051	3.24
271.267	13.48
271.483	-0.85
271.698	7.34
271.914	3.24
272.13	15.53
272.346	-70.48
272.562	-23.38
272.777	-27.48
272.993	-13.14
273.209	-23.38
273.425	-13.14
273.64	33.96
273.856	-4.95
274.072	15.53
274.287	-37.72
274.503	-41.81
274.719	-25.43
274.934	-0.85
275.15	-64.34
275.366	11.43
275.581	-84.82
275.797	-50
276.012	-31.57
276.228	11.43
276.444	-29.52
276.659	23.72
276.875	-13.14
277.09	-7
277.306	-7
277.521	29.87
277.737	76.97
277.952	-21.33
278.168	-15.19
278.383	-9.05
278.599	-15.19
278.814	19.63
279.03	5.29
279.245	72.87
279.461	-7
279.676	23.72
279.892	50.35
280.107	-17.24
280.322	19.63
280.538	17.58
280.753	-21.33
280.969	-37.72
281.184	-4.95
281.399	-9.05
281.615	115.88
281.83	-39.76
282.045	-45.91
282.26	3.24
282.476	21.67
282.691	5.29
282.906	21.67
283.122	-2.9
283.337	-23.38
283.552	-27.48
283.767	-25.43
283.983	-19.29
284.198	-25.43
284.413	46.25
284.628	33.96
284.843	-25.43
285.058	-66.39
285.274	-21.33
285.489	23.72
285.704	-0.85
285.919	-35.67
286.134	13.48
286.349	13.48
286.564	-25.43
286.779	-2.9
286.995	81.07
287.21	9.39
287.425	11.43
287.64	-13.14
287.855	9.39
288.07	-56.15
288.285	-15.19
288.5	29.87
288.715	7.34
288.93	48.3
289.145	87.21
289.36	29.87
289.575	-17.24
289.79	46.25
290.004	-21.33
290.219	-19.29
290.434	-23.38
290.649	-88.92
290.864	13.48
291.079	60.59
291.294	-80.72
291.509	3.24
291.724	9.39
291.938	-35.67
292.153	-4.95
292.368	113.83
292.583	21.67
292.798	27.82
293.012	38.06
293.227	72.87
293.442	11.43
293.657	44.2
293.871	11.43
294.086	-11.09
294.301	-39.76
294.516	-72.53
294.73	-56.15
294.945	62.63
295.16	-47.96
295.374	56.49
295.589	52.39
295.804	25.77
296.018	-74.58
296.233	-13.14
296.447	9.39
296.662	-9.05
296.877	-9.05
297.091	-54.1
297.306	48.3
297.52	-9.05
297.735	-37.72
297.949	-23.38
298.164	-25.43
298.378	13.48
298.593	50.35
298.807	64.68
299.022	-15.19
299.236	-29.52
299.451	15.53
299.665	-25.43
299.88	44.2
300.094	27.82
300.309	27.82
300.523	-64.34
300.737	-13.14
300.952	58.54
301.166	-21.33
301.381	-52.05
301.595	-17.24
301.809	-9.05
302.024	-9.05
302.238	5.29
302.452	15.53
302.667	-25.43
302.881	68.78
303.095	-23.38
303.309	15.53
303.524	31.91
303.738	-37.72
303.952	-47.96
304.166	-70.48
304.381	-39.76
304.595	1.19
304.809	-4.95
305.023	25.77
305.237	72.87
305.452	-47.96
305.666	3.24
305.88	64.68
306.094	-58.2
306.308	72.87
306.522	19.63
306.736	5.29
306.95	-31.57
307.164	9.39
307.379	15.53
307.593	23.72
307.807	1.19
308.021	-27.48
308.235	-11.09
308.449	3.24
308.663	-13.14
308.877	1.19
309.091	95.4
309.305	-17.24
309.519	-35.67
309.733	23.72
309.947	-43.86
310.161	-17.24
310.374	9.39
310.588	1.19
310.802	-52.05
311.016	40.11
311.23	11.43
311.444	-19.29
311.658	-64.34
311.872	1.19
312.085	-9.05
312.299	76.97
312.513	25.77
312.727	-52.05
312.941	-27.48
313.154	62.63
313.368	38.06
313.582	-4.95
313.796	13.48
314.009	17.58
314.223	23.72
314.437	-11.09
314.651	-43.86
314.864	-13.14
315.078	-13.14
315.292	-0.85
315.505	54.44
315.719	-82.77
315.933	36.01
316.146	-17.24
316.36	17.58
316.573	9.39
316.787	27.82
317.001	-31.57
317.214	-17.24
317.428	-19.29
317.641	-15.19
317.855	-4.95
318.068	13.48
318.282	-15.19
318.495	27.82
318.709	-9.05
318.922	64.68
319.136	-43.86
319.349	23.72
319.563	7.34
319.776	-2.9
319.99	-0.85
320.203	-47.96
320.417	-2.9
320.63	33.96
320.843	3.24
321.057	-9.05
321.27	56.49
321.483	-21.33
321.697	21.67
321.91	-35.67
322.124	9.39
322.337	13.48
322.55	-33.62
322.763	-9.05
322.977	-37.72
323.19	-13.14
323.403	-9.05
323.617	-27.48
323.83	68.78
324.043	56.49
324.256	15.53
324.469	1.19
324.683	13.48
324.896	23.72
325.109	-33.62
325.322	21.67
325.535	31.91
325.748	29.87
325.962	48.3
326.175	66.73
326.388	-11.09
326.601	89.26
326.814	27.82
327.027	-0.85
327.24	17.58
327.453	-9.05
327.666	-19.29
327.879	11.43
328.092	-7
328.305	46.25
328.518	-25.43
328.731	42.15
328.944	15.53
329.157	27.82
329.37	-33.62
329.583	36.01
329.796	-52.05
330.009	-43.86
330.222	42.15
330.435	70.83
330.648	83.11
330.861	21.67
331.073	52.39
331.286	-7
331.499	40.11
331.712	3.24
331.925	-31.57
332.138	-0.85
332.35	23.72
332.563	-13.14
332.776	66.73
332.989	1.19
333.202	25.77
333.414	27.82
333.627	42.15
333.84	-80.72
334.053	15.53
334.265	-13.14
334.478	21.67
334.691	-37.72
334.903	-0.85
335.116	58.54
335.329	5.29
335.541	1.19
335.754	66.73
335.966	52.39
336.179	-58.2
336.392	-13.14
336.604	-21.33
336.817	-9.05
337.029	-13.14
337.242	23.72
337.454	-62.29
337.667	5.29
337.88	-13.14
338.092	33.96
338.305	13.48
338.517	-9.05
338.729	-0.85
338.942	-13.14
339.154	-31.57
339.367	25.77
339.579	-64.34
339.792	23.72
340.004	9.39
340.217	17.58
340.429	3.24
340.641	13.48
340.854	17.58
341.066	-17.24
341.278	36.01
341.491	3.24
341.703	-0.85
341.915	17.58
342.128	31.91
342.34	-33.62
342.552	-54.1
342.764	-45.91
342.977	-7
343.189	-29.52
343.401	15.53
343.613	-4.95
343.826	40.11
344.038	-31.57
344.25	11.43
344.462	1.19
344.674	23.72
344.886	-41.81
345.099	25.77
345.311	-47.96
345.523	23.72
345.735	-52.05
345.947	29.87
346.159	-27.48
346.371	3.24
346.583	-13.14
346.795	76.97
347.007	-4.95
347.219	-23.38
347.431	-47.96
347.643	40.11
347.855	-17.24
348.067	21.67
348.279	-4.95
348.491	29.87
348.703	1.19
348.915	-64.34
349.127	46.25
349.339	81.07
349.551	46.25
349.763	-33.62
349.975	-0.85
350.187	-29.52
350.399	11.43
350.61	-43.86
350.822	9.39
351.034	-35.67
351.246	-21.33
351.458	33.96
351.669	-58.2
351.881	126.12
352.093	-64.34
352.305	64.68
352.517	-0.85
352.728	17.58
352.94	21.67
353.152	70.83
353.363	-56.15
353.575	31.91
353.787	33.96
353.999	64.68
354.21	25.77
354.422	60.59
354.633	-17.24
354.845	-50
355.057	52.39
355.268	42.15
355.48	5.29
355.692	-11.09
355.903	9.39
356.115	-50
356.326	-15.19
356.538	29.87
356.749	13.48
356.961	40.11
357.172	-19.29
357.384	25.77
357.595	15.53
357.807	-11.09
358.018	-11.09
358.23	13.48
358.441	-25.43
358.653	50.35
358.864	21.67
359.075	25.77
359.287	-19.29
359.498	23.72
359.709	7.34
359.921	1.19
360.132	17.58
360.344	-4.95
360.555	64.68
360.766	11.43
360.977	-9.05
361.189	9.39
361.4	-9.05
361.611	-39.76
361.823	62.63
362.034	9.39
362.245	-47.96
362.456	-2.9
362.667	-0.85
362.879	-21.33
363.09	-21.33
363.301	48.3
363.512	48.3
363.723	-58.2
363.935	79.02
364.146	25.77
364.357	-17.24
364.568	54.44
364.779	-29.52
364.99	1.19
365.201	33.96
365.412	-45.91
365.623	44.2
365.834	38.06
366.045	-2.9
366.256	11.43
366.467	27.82
366.678	-21.33
366.889	-15.19
367.1	33.96
367.311	31.91
367.522	17.58
367.733	-2.9
367.944	54.44
368.155	-15.19
368.366	38.06
368.577	23.72
368.788	1.19
368.999	-68.44
369.209	7.34
369.42	21.67
369.631	-39.76
369.842	42.15
370.053	44.2
370.264	31.91
370.474	29.87
370.685	23.72
370.896	1.19
371.107	31.91
371.317	-25.43
371.528	-15.19
371.739	66.73
371.95	87.21
372.16	83.11
372.371	64.68
372.582	64.68
372.792	15.53
373.003	54.44
373.214	54.44
373.424	87.21
373.635	15.53
373.846	44.2
374.056	23.72
374.267	48.3
374.477	74.92
374.688	21.67
374.898	87.21
375.109	-11.09
375.319	15.53
375.53	15.53
375.74	89.26
375.951	29.87
376.161	3.24
376.372	3.24
376.582	-27.48
376.793	74.92
377.003	7.34
377.214	62.63
377.424	7.34
377.635	48.3
377.845	52.39
378.055	48.3
378.266	9.39
378.476	17.58
378.686	29.87
378.897	40.11
379.107	87.21
379.317	7.34
379.528	13.48
379.738	-60.24
379.948	-43.86
380.158	-0.85
380.369	-31.57
380.579	76.97
380.789	87.21
380.999	25.77
381.21	31.91
381.42	72.87
381.63	1.19
381.84	31.91
382.05	-13.14
382.261	-2.9
382.471	-9.05
382.681	-0.85
382.891	31.91
383.101	21.67
383.311	-33.62
383.521	64.68
383.731	27.82
383.941	-19.29
384.151	87.21
384.361	17.58
384.571	11.43
384.781	-15.19
384.991	46.25
385.201	52.39
385.411	31.91
385.621	81.07
385.831	15.53
386.041	17.58
386.251	83.11
386.461	60.59
386.671	19.63
386.881	-2.9
387.091	-0.85
387.301	44.2
387.511	42.15
387.72	9.39
387.93	17.58
388.14	58.54
388.35	33.96
388.56	3.24
388.769	29.87
388.979	-7
389.189	-25.43
389.399	42.15
389.609	-9.05
389.818	11.43
390.028	-2.9
390.238	9.39
390.447	-7
390.657	-21.33
390.867	54.44
391.076	23.72
391.286	42.15
391.496	66.73
391.705	93.35
391.915	85.16
392.125	54.44
392.334	29.87
392.544	46.25
392.753	21.67
392.963	-11.09
393.172	5.29
393.382	-0.85
393.591	97.45
393.801	-35.67
394.01	29.87
394.22	13.48
394.429	52.39
394.639	-13.14
394.848	25.77
395.058	50.35
395.267	44.2
395.477	52.39
395.686	3.24
395.895	68.78
396.105	76.97
396.314	7.34
396.524	115.88
396.733	23.72
396.942	48.3
397.152	52.39
397.361	-29.52
397.57	87.21
397.78	50.35
397.989	13.48
398.198	56.49
398.407	33.96
398.617	48.3
398.826	115.88
399.035	56.49
399.244	-9.05
399.453	83.11
399.663	27.82
399.872	42.15
400.081	87.21
400.29	144.55
400.499	68.78
400.708	74.92
400.917	76.97
401.127	-2.9
401.336	44.2
401.545	50.35
401.754	70.83
401.963	52.39
402.172	58.54
402.381	54.44
402.59	72.87
402.799	66.73
403.008	113.83
403.217	132.26
403.426	115.88
403.635	99.5
403.844	85.16
404.053	83.11
404.262	79.02
404.471	54.44
404.68	68.78
404.888	74.92
405.097	101.55
405.306	93.35
405.515	74.92
405.724	132.26
405.933	177.32
406.142	136.36
406.35	122.02
406.559	46.25
406.768	74.92
406.977	189.61
407.185	199.85
407.394	95.4
407.603	99.5
407.812	109.74
408.02	191.66
408.229	85.16
408.438	185.51
408.646	117.93
408.855	89.26
409.064	158.89
409.272	119.98
409.481	138.41
409.69	189.61
409.898	212.14
410.107	253.09
410.315	138.41
410.524	136.36
410.733	187.56
410.941	228.52
411.15	265.38
411.358	242.85
411.567	287.91
411.775	328.87
411.984	242.85
412.192	304.29
412.401	292.01
412.609	314.53
412.818	287.91
413.026	425.12
413.234	263.33
413.443	332.97
413.651	400.55
413.86	390.31
414.068	408.74
414.276	429.22
414.485	451.75
414.693	474.28
414.901	453.8
415.11	509.09
415.318	447.65
415.526	466.08
415.734	556.19
415.943	562.34
416.151	572.58
416.359	588.96
416.567	623.78
416.776	615.59
416.984	660.64
417.192	670.88
417.4	756.9
417.608	642.21
417.817	754.85
418.025	724.13
418.233	801.95
418.441	832.67
418.649	781.47
418.857	883.87
419.065	971.93
419.273	926.88
419.481	939.16
419.689	1057.95
419.897	1033.37
420.105	1014.94
420.313	1123.48
420.521	1180.82
420.729	1201.3
420.937	1236.12
421.145	1217.69
421.353	1318.04
421.561	1432.72
421.769	1326.23
421.977	1588.37
422.185	1502.36
422.393	1553.55
422.601	1633.43
422.809	1680.53
423.017	1627.28
423.224	1686.67
423.432	1723.54
423.64	1766.54
423.848	1977.48
424.056	1864.85
424.263	2014.35
424.471	2045.07
424.679	2165.9
424.887	2239.62
425.094	2329.74
425.302	2229.38
425.51	2307.21
425.718	2475.14
425.925	2425.99
426.133	2647.17
426.341	2743.42
426.548	2878.59
426.756	2849.92
426.964	2927.74
427.171	3044.48
427.379	3153.02
427.586	3097.72
427.794	3198.07
428.001	3425.4
428.209	3650.67
428.417	3583.09
428.624	3777.65
428.832	3714.16
429.039	3794.03
429.247	3728.5
429.454	4047.98
429.662	4398.18
429.869	4033.65
430.076	4359.27
430.284	4303.98
430.491	4457.57
430.699	4791.39
430.906	4705.38
431.114	4736.1
431.321	4850.78
431.528	5078.11
431.736	5446.74
431.943	5522.52
432.15	5428.31
432.358	5448.79
432.565	5661.78
432.772	5807.19
432.979	6138.96
433.187	6190.16
433.394	6298.7
433.601	6741.06
433.808	6759.49
434.016	6630.47
434.223	6749.25
434.43	7285.82
434.637	7152.7
434.844	7521.34
435.052	7468.09
435.259	7556.15
435.466	7648.31
435.673	7625.78
435.88	8199.21
436.087	8514.6
436.294	8420.39
436.501	8301.61
436.708	8481.83
436.915	8987.68
437.122	9030.69
437.329	9223.2
437.537	9475.1
437.743	9741.33
437.95	9647.13
438.157	10222.61
438.364	10269.71
438.571	10400.78
438.778	10175.5
438.985	11164.67
439.192	10798.09
439.399	11111.43
439.606	11021.31
439.813	11719.67
440.02	12346.35
440.227	12135.41
440.433	12127.22
440.64	12352.49
440.847	12284.91
441.054	12418.03
441.261	13530.08
441.467	13497.31
441.674	13528.03
441.881	14025.68
442.088	13894.61
442.294	13900.76
442.501	14443.47
442.708	14601.16
442.914	15014.85
443.121	15709.11
443.328	15131.59
443.534	16401.33
443.741	15897.53
443.948	15719.35
444.154	17085.35
444.361	16702.38
444.568	17023.91
444.774	16989.1
444.981	17034.15
445.187	17593.25
445.394	18338.71
445.6	17873.82
445.807	19983.23
446.013	18903.95
446.22	19311.49
446.426	19960.7
446.633	20216.69
446.839	20913
447.046	20159.35
447.252	21207.91
447.459	21128.04
447.665	21130.09
447.871	21865.31
448.078	22727.5
448.284	21859.17
448.491	22442.84
448.697	23161.67
448.903	23628.61
449.11	23900.99
449.316	23485.25
449.522	23958.33
449.728	24154.94
449.935	24537.91
450.141	24300.34
450.347	25051.95
450.553	24404.79
450.76	24660.79
450.966	25512.74
451.172	25291.56
451.378	25834.27
451.584	25150.25
451.791	25670.43
451.997	25799.46
452.203	25967.39
452.409	26305.31
452.615	25776.93
452.821	24898.35
453.027	24539.96
453.233	26053.41
453.44	24763.18
453.646	25232.17
453.852	25619.24
454.058	25860.9
454.264	25160.49
454.47	25436.97
454.676	24847.15
454.882	25770.79
455.088	23632.71
455.294	23583.55
455.5	24290.1
455.705	24144.7
455.911	23151.43
456.117	22854.48
456.323	22233.94
456.529	21496.67
456.735	22235.99
456.941	21760.86
457.147	21107.56
457.352	20587.38
457.558	20267.89
457.764	20454.26
457.97	19962.75
458.176	19338.12
458.381	19522.43
458.587	18576.27
458.793	18797.45
458.999	17642.4
459.204	18652.05
459.41	18461.58
459.616	17361.83
459.821	17099.69
460.027	17005.48
460.233	16837.55
460.438	16047.03
460.644	16038.84
460.85	15430.59
461.055	15053.76
461.261	14932.93
461.466	13970.39
461.672	13450.21
461.878	14775.24
462.083	13401.05
462.289	13243.36
462.494	13339.62
462.7	12467.18
462.905	12413.93
463.111	12690.41
463.316	12897.25
463.522	12659.69
463.727	12626.92
463.932	12581.87
464.138	12393.45
464.343	12430.32
464.549	12049.39
464.754	12749.8
464.959	12510.19
465.165	12542.96
465.37	11820.02
465.575	11418.62
465.781	11965.43
465.986	12323.82
466.191	11824.12
466.397	11465.72
466.602	10771.46
466.807	11412.48
467.012	11332.61
467.218	11322.37
467.423	11158.53
467.628	11256.83
467.833	11713.53
468.038	11164.67
468.244	11000.83
468.449	11148.29
468.654	11009.03
468.859	10806.28
469.064	10611.72
469.269	10589.19
469.474	10423.31
469.679	10550.28
469.885	10388.49
470.09	10624.01
470.295	10316.81
470.5	10116.11
470.705	10195.98
470.91	9927.7
471.115	10026
471.32	10271.76
471.525	9999.38
471.73	9747.48
471.935	9516.06
472.139	9583.64
472.344	9448.47
472.549	9550.87
472.754	9411.61
472.959	9110.56
473.164	8985.63
473.369	8832.04
473.574	9247.77
473.778	9122.85
473.983	9055.26
474.188	9069.6
474.393	8266.8
474.598	8666.15
474.802	8422.44
475.007	8457.26
475.212	8447.02
475.417	7941.17
475.621	8260.65
475.826	8342.57
476.031	8023.09
476.235	7906.35
476.44	8199.21
476.645	7719.99
476.849	7820.34
477.054	7574.58
477.259	7576.63
477.463	7574.58
477.668	7363.64
477.872	7601.21
478.077	7529.53
478.282	7208
478.486	7220.28
478.691	7197.76
478.895	6931.52
479.1	6958.14
479.304	7119.93
479.509	6949.95
479.713	7013.44
479.918	6753.35
480.122	6810.69
480.326	6790.21
480.531	6986.82
480.735	6763.59
480.94	6585.41
481.144	7042.11
481.348	6483.02
481.553	6825.03
481.757	6595.65
481.961	6710.34
482.166	6906.95
482.37	6626.37
482.574	6534.21
482.778	6659.14
482.983	6732.87
483.187	6718.53
483.391	6865.99
483.595	6655.05
483.8	6708.29
484.004	6454.34
484.208	6589.51
484.412	6583.37
484.616	6532.17
484.821	6653
485.025	6599.75
485.229	6521.93
485.433	6628.42
485.637	6546.5
485.841	6624.33
486.045	6534.21
486.249	6437.96
486.453	6528.07
486.657	6614.09
486.861	6609.99
487.065	6444.1
487.269	6491.21
487.473	6538.31
487.677	6560.84
487.881	6673.48
488.085	6595.65
488.289	6554.69
488.493	6519.88
488.697	6614.09
488.901	6595.65
489.105	6640.71
489.309	6550.6
489.512	6741.06
489.716	6726.72
489.92	6671.43
490.124	6798.4
490.328	6714.44
490.531	6779.97
490.735	6755.4
490.939	6749.25
491.143	6743.11
491.346	6792.26
491.55	6880.32
491.754	6843.46
491.958	6986.82
492.161	6898.75
492.365	7029.82
492.569	6997.06
492.772	7031.87
492.976	7029.82
493.18	7046.21
493.383	7056.45
493.587	7072.83
493.79	7332.92
493.994	7154.75
494.197	7232.57
494.401	7486.52
494.605	7285.82
494.808	7588.92
495.012	7435.32
495.215	7529.53
495.419	7511.1
495.622	7707.7
495.825	7752.76
496.029	7742.52
496.232	8100.91
496.436	7918.64
496.639	8176.69
496.843	7961.65
497.046	8315.95
497.249	8492.07
497.453	8420.39
497.656	8412.2
497.859	8485.93
498.063	8524.84
498.266	8731.69
498.469	8705.06
498.673	8850.47
498.876	8848.42
499.079	9128.99
499.282	8977.44
499.485	9237.53
499.689	9348.12
499.892	9128.99
500.095	9516.06
500.298	9669.66
500.501	9790.49
500.705	9786.39
500.908	10116.11
501.111	10306.57
501.314	10087.44
501.517	10095.63
501.72	10251.28
501.923	10476.55
502.126	10619.91
502.329	10839.05
502.532	10826.76
502.735	10906.63
502.938	10959.88
503.141	11158.53
503.344	11461.63
503.547	11162.62
503.75	11498.49
503.953	11768.82
504.156	11836.41
504.359	12008.44
504.562	12039.15
504.765	12434.41
504.968	12479.47
505.17	12581.87
505.373	12516.33
505.576	12831.72
505.779	13046.76
505.982	13210.59
506.185	13253.6
506.387	13480.92
506.59	13622.23
506.793	13814.74
506.996	13714.39
507.198	14121.94
507.401	14246.87
507.604	14216.15
507.807	14568.4
508.009	14615.5
508.212	14883.78
508.415	14908.36
508.617	15139.78
508.82	15403.97
509.022	15303.62
509.225	15463.36
509.428	15762.36
509.63	15823.8
509.833	15903.67
510.035	16286.64
510.238	16378.8
510.44	16606.13
510.643	16702.38
510.845	16882.6
511.048	17042.34
511.25	17488.8
511.453	17316.77
511.655	17851.29
511.858	18074.52
512.06	18084.76
512.262	18187.16
512.465	18424.72
512.667	18535.31
512.87	18670.48
513.072	18973.58
513.274	19475.33
513.477	19143.56
513.679	19686.27
513.881	20050.81
514.084	20015.99
514.286	19860.35
514.488	20073.34
514.69	20986.73
514.893	20929.39
515.095	20781.93
515.297	21136.23
515.499	21570.4
515.701	21588.83
515.904	22215.51
516.106	21850.97
516.308	22270.81
516.51	22573.91
516.712	22688.59
516.914	22936.4
517.116	23229.26
517.318	23194.44
517.52	23495.49
517.722	23657.28
517.925	24091.45
518.127	24185.66
518.329	24087.36
518.531	24488.76
518.733	24769.33
518.935	24939.31
519.136	25232.17
519.338	25293.61
519.54	25457.45
519.742	25996.06
519.944	25848.61
520.146	26207
520.348	26653.46
520.55	26913.55
520.752	26878.74
520.954	27237.13
521.155	27175.69
521.357	27376.39
521.559	27921.15
521.761	28404.47
521.963	27894.53
522.164	28558.07
522.366	28629.75
522.568	28721.91
522.77	29149.93
522.971	29680.36
523.173	29450.99
523.375	29682.41
523.576	29580.01
523.778	29686.5
523.98	30145.25
524.181	30278.36
524.383	30384.86
524.584	30749.4
524.786	30833.36
524.988	30989.01
525.189	31363.79
525.391	31537.87
525.592	31296.21
525.794	31828.68
525.995	31507.15
526.197	31695.56
526.398	31931.08
526.6	32049.86
526.801	32168.64
527.003	32309.95
527.204	32162.5
527.406	32592.57
527.607	32709.3
527.808	33032.88
528.01	32283.33
528.211	32875.19
528.412	33569.45
528.614	33352.37
528.815	33145.52
529.016	33786.54
529.218	33163.95
529.419	33626.79
529.62	33632.94
529.822	33714.86
530.023	33389.23
530.224	33540.78
530.425	33895.08
530.626	33622.7
530.828	33745.58
531.029	34409.12
531.23	33929.89
531.431	34028.2
531.632	34175.65
531.833	34284.19
532.035	34204.32
532.236	34704.03
532.437	34527.9
532.638	34306.72
532.839	34550.43
533.04	34374.3
533.241	34067.11
533.442	34779.8
533.643	34658.97
533.844	34374.3
534.045	34808.47
534.246	34265.76
534.447	34603.67
534.648	34452.12
534.849	34517.66
535.05	34753.18
535.251	34781.85
535.451	34480.8
535.652	34818.71
535.853	34456.22
536.054	35052.18
536.255	34812.57
536.456	34413.21
536.657	35111.57
536.857	34603.67
537.058	34323.1
537.259	34964.12
537.46	34794.14
537.66	34724.5
537.861	35072.66
538.062	34677.4
538.263	34927.25
538.463	34439.84
538.664	34808.47
538.865	34923.16
539.065	34806.42
539.266	34605.72
539.466	35125.91
539.667	34511.52
539.868	35242.64
540.068	35050.13
540.269	34532
540.469	35072.66
540.67	34704.03
540.87	34751.13
541.071	34914.97
541.271	34691.74
541.472	34785.94
541.672	34939.54
541.873	34622.11
542.073	34286.24
542.274	34978.45
542.474	34572.96
542.675	34519.71
542.875	34988.69
543.075	34810.52
543.276	34421.41
543.476	34986.64
543.676	34517.66
543.877	34777.75
544.077	34781.85
544.277	34792.09
544.478	34591.39
544.678	34861.72
544.878	34781.85
545.078	34794.14
545.279	34595.48
545.479	34630.3
545.679	35048.08
545.879	34710.17
546.079	34540.19
546.28	34497.18
546.48	34204.32
546.68	34732.7
546.88	34787.99
547.08	34943.64
547.28	34751.13
547.48	34241.18
547.68	34687.64
547.88	34497.18
548.081	34650.78
548.281	35025.56
548.481	35035.8
548.681	34857.62
548.881	34642.59
549.081	34679.45
549.28	34665.11
549.48	34554.52
549.68	34372.25
549.88	34941.59
550.08	34587.29
550.28	34800.28
550.48	34441.89
550.68	35130
550.88	34083.49
551.08	34525.85
551.279	34402.97
551.479	34493.08
551.679	34726.55
551.879	34691.74
552.079	35222.16
552.278	34552.48
552.478	34718.36
552.678	34626.2
552.878	34689.69
553.077	34599.58
553.277	34146.98
553.477	35078.8
553.676	34108.07
553.876	34554.52
554.076	34362.01
554.275	34022.05
554.475	34114.21
554.674	34525.85
554.874	34157.22
555.074	34175.65
555.273	34345.63
555.473	34581.15
555.672	34259.62
555.872	34036.39
556.071	34020
556.271	34284.19
556.47	34030.24
556.67	33847.97
556.869	33954.47
557.068	34276
557.268	33682.09
557.467	34101.92
557.667	33880.74
557.866	34067.11
558.065	33868.45
558.265	33712.81
558.464	33467.05
558.663	33895.08
558.863	33256.11
559.062	34038.44
559.261	33419.95
559.461	33723.05
559.66	33180.34
559.859	33403.56
560.058	32660.15
560.258	33440.43
560.457	33022.64
560.656	33321.65
560.855	33028.79
561.054	33387.18
561.253	32910
561.453	33245.87
561.652	33397.42
561.851	33346.22
562.05	33063.6
562.249	33061.55
562.448	33270.45
562.647	32780.98
562.846	32862.9
563.045	33012.4
563.244	32537.27
563.443	33104.56
563.642	32639.67
563.841	32838.33
564.04	32445.12
564.239	32887.48
564.438	32277.18
564.637	32412.35
564.836	32760.5
565.035	32158.4
565.234	32438.97
565.432	31939.27
565.631	32211.65
565.83	32295.61
566.029	32299.71
566.228	32051.91
566.427	31845.06
566.625	31750.85
566.824	31556.3
567.023	31945.41
567.222	31574.73
567.42	32039.62
567.619	31754.95
567.818	31595.21
568.016	31347.4
568.215	31584.97
568.414	30970.58
568.612	31810.25
568.811	31494.86
569.01	31390.41
569.208	30849.75
569.407	31355.6
569.605	30628.57
569.804	31122.13
570.002	30900.95
570.201	31105.74
570.4	30866.13
570.598	30675.67
570.797	30550.74
570.995	30737.11
571.193	30112.48
571.392	30382.81
571.59	30214.88
571.789	30364.38
571.987	30315.23
572.186	30014.18
572.384	29979.36
572.582	30249.69
572.781	30014.18
572.979	29512.42
573.177	29729.51
573.376	29813.48
573.574	29399.79
573.772	29862.63
573.971	29625.06
574.169	29321.96
574.367	28975.86
574.565	29510.38
574.763	29141.74
574.962	28730.1
575.16	28805.88
575.358	28760.82
575.556	28398.33
575.754	29008.62
575.952	28713.72
576.151	28883.7
576.349	28273.4
576.547	28670.71
576.745	28355.32
576.943	28132.09
577.141	28437.24
577.339	28228.35
577.537	27943.68
577.735	28003.07
577.933	27804.42
578.131	28148.48
578.329	27702.02
578.527	27513.61
578.725	27716.36
578.923	27720.45
579.121	27620.1
579.319	27339.53
579.516	27409.16
579.714	27325.19
579.912	27265.8
580.11	27243.27
580.308	27230.99
580.506	26962.7
580.704	26860.3
580.901	26946.32
581.099	27079.44
581.297	26684.18
581.495	26614.55
581.692	27118.35
581.89	26645.27
582.088	26663.7
582.285	26432.28
582.483	26571.54
582.681	26231.58
582.878	26088.22
583.076	26182.43
583.274	26477.33
583.471	25740.07
583.669	25942.81
583.866	25830.18
584.064	25824.03
584.262	25477.93
584.459	25914.14
584.657	25539.36
584.854	25819.94
585.052	25000.75
585.249	25316.14
585.447	25424.68
585.644	25205.55
585.841	25242.41
586.039	25385.77
586.236	24816.43
586.434	25054
586.631	24793.9
586.828	25056.04
587.026	24898.35
587.223	24828.72
587.42	24353.59
587.618	24787.76
587.815	24410.93
588.012	24335.16
588.21	24310.58
588.407	24318.78
588.604	24449.85
588.801	24218.43
588.999	24179.51
589.196	24333.11
589.393	23954.24
589.59	23911.23
589.787	23933.76
589.984	23618.37
590.182	23724.86
590.379	23976.76
590.576	23515.97
590.773	23231.3
590.97	23389
591.167	23542.6
591.364	23153.48
591.561	23522.12
591.758	23235.4
591.955	22995.79
592.152	23243.59
592.349	23104.33
592.546	23264.07
592.743	22885.2
592.94	22696.78
593.137	23006.03
593.334	22823.76
593.531	22451.03
593.727	22543.19
593.924	22600.53
594.121	22498.13
594.318	22580.05
594.515	22330.2
594.712	22309.72
594.908	22154.07
595.105	22246.23
595.302	21889.88
595.499	22223.7
595.696	21859.17
595.892	21803.87
596.089	22188.89
596.286	21781.34
596.482	21439.33
596.679	21574.5
596.876	21771.1
597.072	21502.82
597.269	21293.93
597.466	21252.97
597.662	21353.32
597.859	21150.57
598.055	21683.04
598.252	21125.99
598.448	21158.76
598.645	20831.08
598.841	21177.19
599.038	21017.45
599.234	21091.18
599.431	20712.3
599.627	20921.2
599.824	20757.36
600.02	20519.79
600.217	20577.14
600.413	20382.58
600.609	20403.06
600.806	20075.38
601.002	20249.46
601.198	20394.87
601.395	19925.88
601.591	19977.08
601.787	20036.47
601.984	20015.99
602.18	19944.31
602.376	19903.35
602.572	19698.56
602.769	19561.34
602.965	19436.42
603.161	19608.45
603.357	19401.6
603.553	19424.13
603.75	19469.19
603.946	19356.55
604.142	19168.13
604.338	19360.64
604.534	19344.26
604.73	18899.85
604.926	19018.63
605.122	19254.15
605.318	19071.88
605.514	19014.54
605.71	18690.96
605.906	18772.88
606.102	18731.92
606.298	18733.96
606.494	18600.85
606.69	18652.05
606.886	18795.4
607.082	18332.56
607.278	18402.19
607.474	18176.92
607.67	18367.38
607.866	18113.43
608.062	18289.56
608.257	18181.01
608.453	18019.22
608.649	18252.69
608.845	18049.94
609.041	17857.43
609.236	18072.47
609.432	17552.29
609.628	17927.07
609.824	17804.19
610.019	17800.09
610.215	17613.73
610.411	17617.82
610.606	17630.11
610.802	17687.45
610.998	17443.74
611.193	17695.64
611.389	17314.72
611.584	17386.4
611.78	17066.92
611.976	17568.67
612.171	17382.31
612.367	17091.49
612.562	17034.15
612.758	16833.45
612.953	16980.9
613.149	17357.73
613.344	17222.56
613.539	17111.97
613.735	16960.42
613.93	16925.61
614.126	17007.53
614.321	16886.7
614.517	16765.87
614.712	16659.37
614.907	16577.45
615.103	16538.54
615.298	16606.13
615.493	16792.49
615.688	16448.43
615.884	16939.94
616.079	16397.23
616.274	16546.73
616.47	16403.38
616.665	16364.46
616.86	16264.11
617.055	16231.35
617.25	16309.17
617.445	16073.65
617.641	16102.32
617.836	15926.2
618.031	15934.39
618.226	15932.34
618.421	15864.76
618.616	16057.27
618.811	15465.41
619.006	16149.43
619.201	15528.89
619.396	15657.92
619.591	15489.98
619.786	15842.23
619.981	15281.09
620.176	15406.02
620.371	15139.78
620.566	15332.29
620.761	15221.7
620.956	15145.92
621.151	15010.76
621.346	15225.79
621.541	14842.82
621.735	14857.16
621.93	14707.66
622.125	14762.95
622.32	14676.94
622.515	14470.09
622.709	14441.42
622.904	14490.57
623.099	14377.94
623.294	14267.34
623.488	14140.37
623.683	14050.26
623.878	13773.78
624.072	14193.62
624.267	14138.32
624.462	13710.3
624.656	13642.71
624.851	13695.96
625.046	13503.45
625.24	13513.69
625.435	13339.62
625.629	13595.61
625.824	13315.04
626.018	13102.05
626.213	13181.92
626.407	13069.28
626.602	12944.36
626.796	13102.05
626.991	12940.26
627.185	12921.83
627.38	12618.73
627.574	12714.98
627.768	12377.07
627.963	12518.38
628.157	12565.48
628.352	12628.97
628.546	12346.35
628.74	12542.96
628.935	12198.9
629.129	12295.15
629.323	12141.55
629.517	11965.43
629.712	11832.31
629.906	12082.16
630.1	11707.38
630.294	11826.17
630.489	11734.01
630.683	11701.24
630.877	11457.53
631.071	11447.29
631.265	11666.42
631.459	11361.28
631.653	11410.43
631.848	11428.86
632.042	11318.27
632.236	11330.56
632.43	11080.71
632.624	11031.55
632.818	11181.06
633.012	10826.76
633.206	10845.19
633.4	11142.14
633.594	10468.36
633.788	10777.61
633.982	10851.33
634.176	10793.99
634.369	10687.5
634.563	10513.42
634.757	10718.22
634.951	10402.83
635.145	10372.11
635.339	10351.63
635.533	10224.65
635.726	10167.31
635.92	10128.4
636.114	10107.92
636.308	10019.86
636.501	10304.53
636.695	9937.94
636.889	9944.08
637.083	10034.19
637.276	9843.73
637.47	9638.94
637.664	9731.09
637.857	9688.09
638.051	9638.94
638.244	9569.3
638.438	9534.49
638.632	9403.42
638.825	9315.36
639.019	9348.12
639.212	9339.93
639.406	9204.77
639.599	9286.68
639.793	9337.88
639.986	9024.54
640.18	9083.94
640.373	9122.85
640.567	8928.29
640.76	8858.66
640.954	8879.14
641.147	8873
641.34	8756.26
641.534	8829.99
641.727	8653.86
641.92	8707.11
642.114	8631.33
642.307	8684.58
642.5	8420.39
642.694	8365.1
642.887	8350.76
643.08	8457.26
643.273	8473.64
643.467	8313.9
643.66	8246.32
643.853	8289.32
644.046	8117.29
644.239	8070.19
644.432	8127.53
644.626	8023.09
644.819	7867.44
645.012	8070.19
645.205	7803.96
645.398	7789.62
645.591	7865.39
645.784	7722.04
645.977	7715.89
646.17	7658.55
646.363	7568.44
646.556	7496.76
646.749	7564.34
646.942	7601.21
647.135	7124.03
647.328	7388.22
647.521	7251
647.714	7156.8
647.907	7273.53
648.099	7117.89
648.292	7134.27
648.485	7187.52
648.678	6947.9
648.871	7005.25
649.064	7134.27
649.256	7040.06
649.449	7027.78
649.642	6853.7
649.835	6792.26
650.027	6878.27
650.22	6771.78
650.413	6851.65
650.605	6693.96
650.798	6542.41
650.991	6661.19
651.183	6556.74
651.376	6468.68
651.568	6530.12
651.761	6550.6
651.954	6470.73
652.146	6489.16
652.339	6308.94
652.531	6374.47
652.724	6218.83
652.916	6292.55
653.109	6165.58
653.301	6167.63
653.494	6231.12
653.686	6153.29
653.879	6210.64
654.071	6014.03
654.263	5882.96
654.456	6038.61
654.648	6093.9
654.84	6009.93
655.033	5864.53
655.225	5989.46
655.417	5915.73
655.61	5704.79
655.802	5768.27
655.994	5612.63
656.186	5661.78
656.379	5788.75
656.571	5643.35
656.763	5575.77
656.955	5454.94
657.148	5676.12
657.34	5383.26
657.532	5491.8
657.724	5518.42
657.916	5348.44
658.108	5258.33
658.3	5491.8
658.492	5254.23
658.684	5239.9
658.876	5194.84
659.068	5332.06
659.26	5293.15
659.452	5186.65
659.644	5123.16
659.836	5049.44
660.028	5184.6
660.22	5053.53
660.412	5022.81
660.604	4957.28
660.796	4901.98
660.988	4940.9
661.18	5045.34
661.372	4928.61
661.563	4899.94
661.755	4752.48
661.947	4711.52
662.139	4770.91
662.331	4621.41
662.522	4766.82
662.714	4549.73
662.906	4684.9
663.097	4568.16
663.289	4529.25
663.481	4580.45
663.673	4414.57
663.864	4539.49
664.056	4435.05
664.247	4443.24
664.439	4254.83
664.631	4449.38
664.822	4381.8
665.014	4424.81
665.205	4275.31
665.397	4250.73
665.588	4283.5
665.78	4281.45
665.971	4232.3
666.163	4148.33
666.354	4273.26
666.546	4250.73
666.737	4004.97
666.929	4230.25
667.12	4105.32
667.311	4197.48
667.503	4078.7
667.694	4047.98
667.885	3996.78
668.077	3976.3
668.268	3970.16
668.459	3976.3
668.651	3832.94
668.842	3945.58
669.033	3933.29
669.224	3834.99
669.416	3841.14
669.607	3857.52
669.798	3791.98
669.989	3847.28
670.18	3697.78
670.371	3683.44
670.563	3652.72
670.754	3775.6
670.945	3572.85
671.136	3699.83
671.327	3597.43
671.518	3599.48
671.709	3685.49
671.9	3654.77
672.091	3611.76
672.282	3574.9
672.473	3538.04
672.664	3554.42
672.855	3480.69
673.046	3599.48
673.237	3632.24
673.428	3476.6
673.619	3589.24
673.809	3443.83
674	3406.97
674.191	3402.87
674.382	3253.37
674.573	3531.89
674.764	3472.5
674.954	3447.93
675.145	3245.18
675.336	3392.63
675.527	3351.67
675.717	3277.94
675.908	3179.64
676.099	3370.1
676.289	3251.32
676.48	3214.46
676.671	3124.35
676.861	3273.85
677.052	3224.7
677.243	3077.24
677.433	3140.73
677.624	3120.25
677.814	3124.35
678.005	3077.24
678.195	3077.24
678.386	3138.68
678.576	3163.26
678.767	2999.42
678.957	3193.98
679.148	3112.06
679.338	3079.29
679.529	2974.85
679.719	3085.44
679.909	2993.28
680.1	3073.15
680.29	3017.85
680.481	2966.65
680.671	3038.33
680.861	2915.45
681.052	3003.52
681.242	2827.39
681.432	2851.97
681.622	2933.89
681.813	2890.88
682.003	2864.25
682.193	2796.67
682.383	2835.58
682.573	2927.74
682.764	2921.6
682.954	2729.09
683.144	2827.39
683.334	2866.3
683.524	2788.48
683.714	2849.92
683.904	2919.55
684.094	2790.53
684.284	2792.58
684.474	2774.14
684.664	2759.81
684.854	2786.43
685.044	2784.38
685.234	2677.89
685.424	2753.66
685.614	2708.61
685.804	2747.52
685.994	2724.99
686.184	2636.93
686.374	2735.23
686.564	2622.59
686.753	2718.85
686.943	2673.79
687.133	2731.14
687.323	2647.17
687.513	2765.95
687.702	2557.06
687.892	2571.4
688.082	2616.45
688.272	2591.88
688.461	2651.27
688.651	2657.41
688.841	2641.03
689.03	2587.78
689.22	2520.2
689.41	2524.29
689.599	2518.15
689.789	2567.3
689.979	2501.76
690.168	2501.76
690.358	2598.02
690.547	2481.28
690.737	2481.28
690.926	2548.87
691.116	2507.91
691.305	2538.63
691.495	2598.02
691.684	2503.81
691.874	2415.75
692.063	2442.37
692.252	2534.53
692.442	2456.71
692.631	2598.02
692.82	2507.91
693.01	2393.22
693.199	2321.54
693.388	2469
693.578	2503.81
693.767	2520.2
693.956	2317.45
694.146	2540.68
694.335	2464.9
694.524	2401.41
694.713	2290.82
694.902	2446.47
695.092	2387.08
695.281	2415.75
695.47	2417.8
695.659	2342.02
695.848	2337.93
696.037	2321.54
696.226	2370.69
696.415	2456.71
696.604	2376.84
696.793	2272.39
696.982	2366.6
697.171	2329.74
697.36	2299.02
697.549	2243.72
697.738	2466.95
697.927	2321.54
698.116	2401.41
698.305	2348.17
698.494	2280.58
698.683	2344.07
698.872	2411.65
699.061	2276.49
699.25	2331.78
699.438	2249.86
699.627	2235.53
699.816	2262.15
700.005	2237.58
700.193	2274.44
700.382	2276.49
700.571	2301.06
700.76	2286.73
700.948	2325.64
701.137	2382.98
701.326	2200.71
701.514	2227.34
701.703	2225.29
701.892	2346.12
702.08	2231.43
702.269	2290.82
702.457	2223.24
702.646	2253.96
702.834	2210.95
703.023	2165.9
703.212	2190.47
703.4	2204.81
703.589	2180.23
703.777	2307.21
703.965	2210.95
704.154	2231.43
704.342	2237.58
704.531	2180.23
704.719	2139.27
704.907	2215.05
705.096	2186.38
705.284	2112.65
705.472	2092.17
705.661	2131.08
705.849	2131.08
706.037	2088.07
706.226	2153.61
706.414	2024.59
706.602	1995.92
706.79	2110.6
706.979	2008.2
707.167	2167.95
707.355	2038.92
707.543	2081.93
707.731	2131.08
707.919	2110.6
708.107	1973.39
708.296	1983.63
708.484	2079.88
708.672	1950.86
708.86	2094.22
709.048	2088.07
709.236	1952.91
709.424	1983.63
709.612	2034.83
709.8	2061.45
709.988	1938.57
710.176	2010.25
710.364	1985.68
710.551	1868.94
710.739	1897.61
710.927	1907.85
711.115	2020.49
711.303	1973.39
711.491	2059.4
711.679	1981.58
711.866	1836.17
712.054	1991.82
712.242	1920.14
712.43	1916.05
712.617	1875.09
712.805	1891.47
712.993	1928.33
713.181	1752.21
713.368	1911.95
713.556	1893.52
713.744	1825.93
713.931	1834.13
714.119	1842.32
714.306	1801.36
714.494	1793.17
714.682	1760.4
714.869	1834.13
715.057	1770.64
715.244	1805.46
715.432	1809.55
715.619	1770.64
715.807	1780.88
715.994	1809.55
716.182	1612.95
716.369	1766.54
716.556	1744.02
716.744	1703.06
716.931	1684.62
717.119	1741.97
717.306	1664.15
717.493	1623.19
717.681	1721.49
717.868	1662.1
718.055	1674.39
718.242	1678.48
718.43	1649.81
718.617	1676.43
718.804	1721.49
718.991	1651.86
719.179	1614.99
719.366	1582.23
719.553	1580.18
719.74	1539.22
719.927	1574.03
720.114	1614.99
720.301	1551.51
720.488	1502.36
720.676	1469.59
720.863	1600.66
721.05	1479.83
721.237	1608.85
721.424	1574.03
721.611	1461.4
721.798	1549.46
721.985	1463.44
722.172	1533.08
722.358	1475.73
722.545	1512.6
722.732	1500.31
722.919	1434.77
723.106	1510.55
723.293	1465.49
723.48	1537.17
723.667	1451.16
723.853	1371.29
724.04	1473.68
724.227	1391.77
724.414	1442.96
724.6	1459.35
724.787	1277.08
724.974	1408.15
725.161	1426.58
725.347	1406.1
725.534	1367.19
725.72	1410.2
725.907	1492.12
726.094	1537.17
726.28	1375.38
726.467	1301.65
726.653	1363.09
726.84	1424.53
727.027	1402.01
727.213	1322.13
727.4	1377.43
727.586	1285.27
727.773	1408.15
727.959	1397.91
728.145	1270.94
728.332	1309.85
728.518	1318.04
728.705	1268.89
728.891	1229.98
729.077	1283.22
729.264	1287.32
729.45	1332.37
729.636	1246.36
729.823	1295.51
730.009	1266.84
730.195	1356.95
730.382	1270.94
730.568	1248.41
730.754	1252.5
730.94	1303.7
731.126	1293.46
731.313	1225.88
731.499	1232.02
731.685	1240.22
731.871	1279.13
732.057	1221.78
732.243	1117.34
732.429	1184.92
732.615	1166.49
732.801	1186.97
732.987	1148.06
733.173	1170.58
733.359	1180.82
733.545	1336.47
733.731	1193.11
733.917	1158.3
734.103	1121.43
734.289	1252.5
734.475	1277.08
734.661	1156.25
734.847	1191.06
735.033	1240.22
735.219	1160.34
735.404	1148.06
735.59	1121.43
735.776	1156.25
735.962	1150.11
736.148	1287.32
736.333	1068.19
736.519	1053.85
736.705	1103
736.89	1113.24
737.076	1123.48
737.262	1049.75
737.447	1064.09
737.633	1135.77
737.819	1041.56
738.004	1129.63
738.19	986.27
738.375	1076.38
738.561	1090.71
738.747	1033.37
738.932	1053.85
739.118	1180.82
739.303	1072.28
739.489	1002.65
739.674	1076.38
739.859	1055.9
740.045	1076.38
740.23	1014.94
740.416	1043.61
740.601	998.56
740.786	990.36
740.972	937.12
741.157	996.51
741.342	945.31
741.528	1019.04
741.713	1053.85
741.898	978.08
742.084	941.21
742.269	957.6
742.454	959.64
742.639	1014.94
742.824	953.5
743.01	990.36
743.195	1043.61
743.38	941.21
743.565	937.12
743.75	922.78
743.935	877.73
744.12	1000.6
744.305	877.73
744.49	824.48
744.675	916.64
744.86	935.07
745.045	933.02
745.23	922.78
745.415	896.16
745.6	877.73
745.785	851.1
745.97	922.78
746.155	806.05
746.34	828.57
746.525	783.52
746.71	836.77
746.895	801.95
747.079	795.81
747.264	818.33
747.449	832.67
747.634	844.96
747.819	861.34
748.003	754.85
748.188	756.9
748.373	730.27
748.557	781.47
748.742	832.67
748.927	767.13
749.111	717.98
749.296	760.99
749.481	842.91
749.665	777.37
749.85	820.38
750.034	785.57
750.219	832.67
750.404	797.85
750.588	787.61
750.773	699.55
750.957	779.42
751.141	703.65
751.326	691.36
751.51	720.03
751.695	683.17
751.879	668.83
752.064	760.99
752.248	744.61
752.432	709.79
752.617	652.45
752.801	709.79
752.985	758.94
753.17	613.54
753.354	605.35
753.538	591.01
753.722	703.65
753.907	646.3
754.091	601.25
754.275	646.3
754.459	689.31
754.643	613.54
754.828	658.59
755.012	695.46
755.196	543.91
755.38	607.39
755.564	644.26
755.748	666.78
755.932	662.69
756.116	564.39
756.3	629.92
756.484	613.54
756.668	629.92
756.852	554.15
757.036	588.96
757.22	601.25
757.404	568.48
757.588	572.58
757.772	609.44
757.956	468.13
758.14	548
758.323	550.05
758.507	595.11
758.691	584.87
758.875	566.43
759.059	566.43
759.242	400.55
759.426	474.28
759.61	531.62
759.794	474.28
759.977	521.38
760.161	517.28
760.345	570.53
760.528	615.59
760.712	535.71
760.895	529.57
761.079	572.58
761.263	539.81
761.446	498.85
761.63	566.43
761.813	496.8
761.997	478.37
762.18	435.36
762.364	464.04
762.547	494.76
762.731	504.99
762.914	451.75
763.098	447.65
763.281	439.46
763.464	443.56
763.648	464.04
763.831	580.77
764.015	478.37
764.198	457.89
764.381	445.6
764.564	496.8
764.748	480.42
764.931	500.9
765.114	459.94
765.297	466.08
765.481	511.14
765.664	433.32
765.847	486.56
766.03	449.7
766.213	474.28
766.397	474.28
766.58	482.47
766.763	433.32
766.946	425.12
767.129	482.47
767.312	433.32
767.495	429.22
767.678	519.33
767.861	453.8
768.044	392.36
768.227	492.71
768.41	445.6
768.593	453.8
768.776	470.18
768.959	384.16
769.142	414.88
769.324	459.94
769.507	449.7
769.69	394.4
769.873	382.12
770.056	459.94
770.239	431.27
770.421	371.88
770.604	418.98
770.787	478.37
770.97	443.56
771.152	406.69
771.335	404.64
771.518	371.88
771.7	498.85
771.883	433.32
772.066	519.33
772.248	451.75
772.431	404.64
772.613	410.79
772.796	455.84
772.978	402.6
773.161	451.75
773.343	355.49
773.526	390.31
773.708	382.12
773.891	416.93
774.073	367.78
774.256	357.54
774.438	402.6
774.621	382.12
774.803	341.16
774.985	402.6
775.168	375.97
775.35	312.49
775.532	314.53
775.715	382.12
775.897	378.02
776.079	332.97
776.261	308.39
776.444	378.02
776.626	441.51
776.808	302.25
776.99	304.29
777.173	351.4
777.355	373.92
777.537	318.63
777.719	361.64
777.901	285.86
778.083	304.29
778.265	300.2
778.447	378.02
778.629	304.29
778.811	289.96
778.993	275.62
779.175	294.05
779.357	337.06
779.539	328.87
779.721	281.77
779.903	335.01
780.085	306.34
780.267	328.87
780.449	371.88
780.631	324.77
780.812	306.34
780.994	312.49
781.176	240.81
781.358	365.73
781.54	240.81
781.721	320.68
781.903	298.15
782.085	224.42
782.267	271.53
782.448	203.94
782.63	242.85
782.812	425.12
782.993	308.39
783.175	265.38
783.357	316.58
783.538	314.53
783.72	300.2
783.901	226.47
784.083	277.67
784.264	203.94
784.446	236.71
784.627	203.94
784.809	234.66
784.99	214.18
785.172	191.66
785.353	210.09
785.535	208.04
785.716	214.18
785.897	191.66
786.079	257.19
786.26	236.71
786.441	228.52
786.623	263.33
786.804	201.9
786.985	253.09
787.167	244.9
787.348	203.94
787.529	214.18
787.71	212.14
787.891	195.75
788.073	183.46
788.254	175.27
788.435	253.09
788.616	195.75
788.797	119.98
788.978	181.42
789.159	259.24
789.34	165.03
789.522	128.17
789.703	228.52
789.884	269.48
790.065	179.37
790.246	150.7
790.427	175.27
790.607	199.85
790.788	187.56
790.969	230.57
791.15	249
791.331	205.99
791.512	177.32
791.693	173.22
791.874	126.12
792.054	210.09
792.235	189.61
792.416	109.74
792.597	195.75
792.778	214.18
792.958	167.08
793.139	136.36
793.32	203.94
793.5	99.5
793.681	210.09
793.862	212.14
794.042	189.61
794.223	152.74
794.404	179.37
794.584	154.79
794.765	191.66
794.945	230.57
795.126	167.08
795.306	175.27
795.487	193.7
795.667	109.74
795.848	162.98
796.028	115.88
796.209	173.22
796.389	259.24
796.57	154.79
796.75	126.12
796.93	177.32
797.111	146.6
797.291	126.12
797.471	158.89
797.652	148.65
797.832	109.74
798.012	83.11
798.192	132.26
798.373	111.78
798.553	173.22
798.733	111.78
798.913	124.07
799.093	134.31
799.274	128.17
799.454	109.74
799.634	85.16
799.814	140.46
799.994	119.98
800.174	183.46
800.354	42.15
800.534	119.98
800.714	105.64
800.894	107.69
801.074	183.46
801.254	128.17
801.434	197.8
801.614	101.55
801.794	122.02
801.974	330.92
802.154	33.96
802.334	150.7
802.514	89.26
802.693	66.73
802.873	56.49
803.053	130.22
803.233	54.44
803.413	130.22
803.592	81.07
803.772	21.67
803.952	89.26
804.131	85.16
804.311	124.07
804.491	29.87
804.67	144.55
804.85	113.83
805.03	101.55
805.209	25.77
805.389	60.59
805.568	109.74
805.748	66.73
805.928	70.83
806.107	40.11
806.287	183.46
806.466	74.92
806.646	117.93
806.825	50.35
807.004	91.31
807.184	103.59
807.363	81.07
807.543	99.5
807.722	79.02
807.901	154.79
808.081	52.39
808.26	105.64
808.439	115.88
808.619	17.58
808.798	66.73
808.977	62.63
809.156	138.41
809.336	33.96
809.515	136.36
809.694	122.02
809.873	101.55
810.052	-4.95
810.231	83.11
810.411	144.55
810.59	64.68
810.769	46.25
810.948	136.36
811.127	-0.85
811.306	40.11
811.485	50.35
811.664	93.35
811.843	62.63
812.022	60.59
812.201	93.35
812.38	52.39
812.559	83.11
812.737	128.17
812.916	42.15
813.095	64.68
813.274	68.78
813.453	44.2
813.632	103.59
813.811	97.45
813.989	54.44
814.168	25.77
814.347	113.83
814.526	58.54
814.704	19.63
814.883	105.64
815.062	29.87
815.24	62.63
815.419	-0.85
815.598	74.92
815.776	115.88
815.955	58.54
816.133	60.59
816.312	27.82
816.49	56.49
816.669	27.82
816.847	25.77
817.026	48.3
817.204	-31.57
817.383	148.65
817.561	38.06
817.74	42.15
817.918	64.68
818.097	50.35
818.275	91.31
818.453	38.06
818.632	1.19
818.81	105.64
818.988	23.72
819.167	27.82
819.345	44.2
819.523	50.35
819.701	91.31
819.879	44.2
820.058	81.07
820.236	44.2
820.414	23.72
820.592	42.15
820.77	89.26
820.948	40.11
821.127	60.59
821.305	38.06
821.483	-7
821.661	9.39
821.839	38.06
822.017	29.87
822.195	93.35
822.373	19.63
822.551	21.67
822.729	44.2
822.907	27.82
823.085	60.59
823.262	-15.19
823.44	48.3
823.618	15.53
823.796	25.77
823.974	15.53
824.152	40.11
824.329	52.39
824.507	40.11
824.685	87.21
824.863	7.34
825.04	72.87
825.218	-2.9
825.396	64.68
825.574	76.97
825.751	64.68
825.929	72.87
826.107	97.45
826.284	115.88
826.462	48.3
826.639	54.44
826.817	17.58
826.994	1.19
827.172	27.82
827.349	31.91
827.527	85.16
827.704	72.87
827.882	87.21
828.059	25.77
828.237	81.07
828.414	17.58
828.591	13.48
828.769	87.21
828.946	27.82
829.124	48.3
829.301	-39.76
829.478	-17.24
829.655	-7
829.833	36.01
830.01	27.82
830.187	23.72
830.364	-11.09
830.542	33.96
830.719	38.06
830.896	83.11
831.073	68.78
831.25	68.78
831.427	23.72
831.604	60.59
831.782	-31.57
831.959	31.91
832.136	11.43
832.313	29.87
832.49	1.19
832.667	3.24
832.844	-15.19
833.021	15.53
833.198	97.45
833.374	-25.43
833.551	5.29
833.728	-39.76
833.905	13.48
834.082	-29.52
834.259	-2.9
834.436	27.82
834.612	-56.15
834.789	-2.9
834.966	-13.14
835.143	-56.15
835.319	-68.44
835.496	38.06
835.673	81.07
835.85	56.49
836.026	33.96
836.203	1.19
836.38	11.43
836.556	25.77
836.733	-50
836.909	-4.95
837.086	3.24
837.262	50.35
837.439	27.82
837.616	-76.63
837.792	52.39
837.968	25.77
838.145	-2.9
838.321	-52.05
838.498	70.83
838.674	95.4
838.851	-25.43
839.027	19.63
839.203	-33.62
839.38	25.77
839.556	48.3
839.732	21.67
839.909	19.63
840.085	-15.19
840.261	83.11
840.437	15.53
840.614	38.06
840.79	17.58
840.966	-19.29
841.142	9.39
841.318	60.59
841.494	89.26
841.671	-23.38
841.847	27.82
842.023	-45.91
842.199	3.24
842.375	81.07
842.551	29.87
842.727	27.82
842.903	-0.85
843.079	-52.05
843.255	1.19
843.431	7.34
843.607	101.55
843.783	3.24
843.959	46.25
844.134	3.24
844.31	52.39
844.486	-27.48
844.662	-21.33
844.838	-45.91
845.013	11.43
845.189	25.77
845.365	13.48
845.541	7.34
845.716	7.34
845.892	-0.85
846.068	70.83
846.244	-39.76
846.419	13.48
846.595	-4.95
846.77	11.43
846.946	19.63
847.122	42.15
847.297	-45.91
847.473	40.11
847.648	5.29
847.824	36.01
847.999	-50
848.175	-41.81
848.35	87.21
848.526	21.67
848.701	-9.05
848.876	-39.76
849.052	44.2
849.227	-2.9
849.403	-15.19
849.578	7.34
849.753	15.53
849.929	50.35
850.104	-41.81
850.279	17.58
850.454	17.58
850.63	-29.52
850.805	44.2
850.98	-33.62
851.155	-41.81
851.33	23.72
851.505	-50
851.681	-7
851.856	-47.96
852.031	33.96
852.206	15.53
852.381	-45.91
852.556	46.25
852.731	-0.85
852.906	-0.85
853.081	21.67
853.256	-74.58
853.431	-47.96
853.606	-52.05
853.781	17.58
853.956	-19.29
854.131	-35.67
854.305	-31.57
854.48	52.39
854.655	-17.24
854.83	-7
855.005	-60.24
855.18	11.43
855.354	25.77
855.529	7.34
855.704	-13.14
855.879	7.34
856.053	23.72
856.228	33.96
856.403	36.01
856.577	-2.9
856.752	-43.86
856.926	58.54
857.101	60.59
857.276	48.3
857.45	11.43
857.625	42.15
857.799	-80.72
857.974	-15.19
858.148	17.58
858.323	-2.9
858.497	25.77
858.672	76.97
858.846	9.39
859.02	-11.09
859.195	-39.76
859.369	25.77
859.543	1.19
859.718	-45.91
859.892	42.15
860.066	-88.92
860.241	-56.15
860.415	-62.29
860.589	3.24
860.763	7.34
860.938	-33.62
861.112	13.48
861.286	27.82
861.46	48.3
861.634	48.3
861.808	42.15
861.982	-7
862.157	-9.05
862.331	-90.96
862.505	-25.43
862.679	15.53
862.853	-7
863.027	27.82
863.201	72.87
863.375	19.63
863.549	-80.72
863.722	-39.76
863.896	23.72
864.07	58.54
864.244	1.19
864.418	-41.81
864.592	56.49
864.766	-68.44
864.939	58.54
865.113	-2.9
865.287	-7
865.461	7.34
865.634	3.24
865.808	7.34
865.982	-7
866.156	9.39
866.329	-99.16
866.503	-74.58
866.676	42.15
866.85	31.91
867.024	44.2
867.197	33.96
867.371	50.35
867.544	-74.58
867.718	-82.77
867.891	-11.09
868.065	-11.09
868.238	-43.86
868.412	-23.38
868.585	9.39
868.759	-39.76
868.932	9.39
869.105	-7
869.279	-41.81
869.452	-15.19
869.625	48.3
869.799	-17.24
869.972	3.24
870.145	-64.34
870.319	-27.48
870.492	-7
870.665	23.72
870.838	-23.38
871.011	1.19
871.185	-9.05
871.358	7.34
871.531	-7
871.704	-0.85
871.877	17.58
872.05	19.63
872.223	3.24
872.396	-15.19
872.569	31.91
872.742	-19.29
872.915	-25.43
873.088	29.87
873.261	3.24
873.434	-25.43
873.607	-56.15
873.78	-31.57
873.953	-0.85
874.126	52.39
874.299	-19.29
874.471	-11.09
874.644	21.67
874.817	97.45
874.99	27.82
875.163	-33.62
875.335	-23.38
875.508	-47.96
875.681	-37.72
875.853	-52.05
876.026	9.39
876.199	15.53
876.371	-0.85
876.544	-47.96
876.717	-21.33
876.889	-43.86
877.062	-13.14
877.234	-4.95
877.407	-41.81
877.579	13.48
877.752	23.72
877.924	23.72
878.097	-43.86
878.269	-50
878.442	36.01
878.614	54.44
878.786	-45.91
878.959	-52.05
879.131	-74.58
879.303	-47.96
879.476	-52.05
879.648	-2.9
879.82	-15.19
879.993	-37.72
880.165	-17.24
880.337	-21.33
880.509	-15.19
880.681	-66.39
880.854	-31.57
881.026	19.63
881.198	-21.33
881.37	5.29
881.542	9.39
881.714	1.19
881.886	27.82
882.058	48.3
882.23	-27.48
882.402	-72.53
882.574	11.43
882.746	-19.29
882.918	-29.52
883.09	-13.14
883.262	25.77
883.434	17.58
883.606	9.39
883.778	-23.38
883.95	-50
884.122	-21.33
884.293	-0.85
884.465	-4.95
884.637	15.53
884.809	-111.44
884.98	-15.19
885.152	29.87
885.324	-2.9
885.496	-4.95
885.667	-70.48
885.839	-17.24
886.011	23.72
886.182	-68.44
886.354	-50
886.525	-52.05
886.697	5.29
886.869	-41.81
887.04	1.19
887.212	-9.05
887.383	-31.57
887.555	-101.2
887.726	-17.24
887.897	48.3
888.069	29.87
888.24	-15.19
888.412	1.19
888.583	-19.29
888.754	-19.29
888.926	-150.36
889.097	1.19
889.268	-35.67
889.44	-11.09
889.611	-17.24
889.782	-29.52
889.953	-45.91
890.125	9.39
890.296	-31.57
890.467	-29.52
890.638	-31.57
890.809	3.24
890.98	-64.34
891.151	19.63
891.323	5.29
891.494	-35.67
891.665	3.24
891.836	-2.9
892.007	-21.33
892.178	9.39
892.349	-9.05
892.52	-13.14
892.691	-56.15
892.862	11.43
893.032	-21.33
893.203	-35.67
893.374	-25.43
893.545	11.43
893.716	25.77
893.887	-50
894.057	36.01
894.228	-41.81
894.399	-23.38
894.57	17.58
894.74	-35.67
894.911	-17.24
895.082	-70.48
895.253	-80.72
895.423	-47.96
895.594	-4.95
895.764	9.39
895.935	40.11
896.106	44.2
896.276	-23.38
896.447	33.96
896.617	-21.33
896.788	-58.2
896.958	-33.62
897.129	-37.72
897.299	5.29
897.47	11.43
897.64	7.34
897.81	-58.2
897.981	23.72
898.151	-68.44
898.322	-15.19
898.492	-41.81
898.662	3.24
898.832	23.72
899.003	-41.81
899.173	-29.52
899.343	-4.95
899.513	1.19
