Data from USB4F104151__262__14-01-57-262.txt Node

Date: Thu Mar 13 14:01:57 EDT 2025
User: louis
Spectrometer: USB4F10415
Trigger mode: 4
Integration Time (sec): 1.000000E-2
Scans to average: 1
Electric dark correction enabled: true
Nonlinearity correction enabled: false
Boxcar width: 0
XAxis mode: Wavelengths
Number of Pixels in Spectrum: 3648
>>>>>Begin Spectral Data<<<<<
178.204	-3.41
178.424	-3.41
178.644	-3.41
178.864	-64.85
179.084	-87.38
179.304	8.87
179.524	-54.61
179.744	-27.99
179.964	-5.46
180.184	60.07
180.404	-15.7
180.624	-3.41
180.844	-36.18
181.064	27.31
181.283	-32.08
181.503	43.69
181.723	35.5
181.943	-60.76
182.163	-13.65
182.383	25.26
182.602	-3.41
182.822	-7.51
183.042	-7.51
183.262	-1.37
183.482	12.97
183.701	6.83
183.921	-11.61
184.141	25.26
184.361	-42.32
184.58	-3.41
184.8	10.92
185.02	-9.56
185.239	88.75
185.459	-46.42
185.679	-30.04
185.898	12.97
186.118	4.78
186.338	39.59
186.557	60.07
186.777	-42.32
186.997	23.21
187.216	27.31
187.436	10.92
187.655	-15.7
187.875	49.83
188.095	82.6
188.314	25.26
188.534	15.02
188.753	6.83
188.973	31.4
189.192	64.17
189.412	23.21
189.631	80.55
189.851	64.17
190.07	47.79
190.29	10.92
190.509	-3.41
190.729	45.74
190.948	90.79
191.168	49.83
191.387	10.92
191.607	37.55
191.826	21.16
192.045	45.74
192.265	43.69
192.484	-1.37
192.704	15.02
192.923	80.55
193.142	60.07
193.362	76.46
193.581	21.16
193.8	25.26
194.02	27.31
194.239	8.87
194.458	10.92
194.678	-9.56
194.897	-44.37
195.116	-3.41
195.335	15.02
195.555	25.26
195.774	33.45
195.993	15.02
196.212	35.5
196.432	-11.61
196.651	45.74
196.87	43.69
197.089	58.03
197.308	15.02
197.528	62.12
197.747	-111.96
197.966	-68.95
198.185	-9.56
198.404	-3.41
198.623	19.11
198.842	-9.56
199.062	-48.47
199.281	27.31
199.5	51.88
199.719	-9.56
199.938	47.79
200.157	-1.37
200.376	-1.37
200.595	70.31
200.814	-9.56
201.033	12.97
201.252	23.21
201.471	-7.51
201.69	4.78
201.909	19.11
202.128	2.73
202.347	4.78
202.566	47.79
202.785	76.46
203.004	-19.8
203.223	-17.75
203.442	-34.13
203.661	-17.75
203.879	31.4
204.098	-3.41
204.317	-19.8
204.536	-42.32
204.755	43.69
204.974	-79.19
205.193	-1.37
205.411	33.45
205.63	96.94
205.849	-38.23
206.068	17.07
206.287	-13.65
206.505	12.97
206.724	51.88
206.943	35.5
207.162	-23.89
207.381	70.31
207.599	-1.37
207.818	-21.85
208.037	0.68
208.255	-1.37
208.474	2.73
208.693	19.11
208.911	53.93
209.13	43.69
209.349	66.22
209.567	53.93
209.786	15.02
210.005	4.78
210.223	-36.18
210.442	-34.13
210.661	58.03
210.879	29.35
211.098	60.07
211.316	53.93
211.535	49.83
211.753	39.59
211.972	-27.99
212.191	2.73
212.409	19.11
212.628	27.31
212.846	4.78
213.065	72.36
213.283	35.5
213.502	41.64
213.72	12.97
213.938	-1.37
214.157	19.11
214.375	8.87
214.594	41.64
214.812	37.55
215.031	55.98
215.249	68.27
215.467	-5.46
215.686	21.16
215.904	17.07
216.122	-15.7
216.341	45.74
216.559	39.59
216.778	10.92
216.996	35.5
217.214	31.4
217.432	6.83
217.651	-42.32
217.869	35.5
218.087	31.4
218.306	21.16
218.524	109.23
218.742	21.16
218.96	27.31
219.179	-23.89
219.397	47.79
219.615	80.55
219.833	74.41
220.051	-58.71
220.27	78.51
220.488	17.07
220.706	-21.85
220.924	66.22
221.142	103.08
221.36	-1.37
221.578	62.12
221.796	66.22
222.015	10.92
222.233	6.83
222.451	31.4
222.669	35.5
222.887	-3.41
223.105	6.83
223.323	10.92
223.541	19.11
223.759	21.16
223.977	27.31
224.195	27.31
224.413	4.78
224.631	80.55
224.849	-9.56
225.067	29.35
225.285	-25.94
225.503	23.21
225.721	-25.94
225.939	-75.09
226.157	35.5
226.375	135.85
226.592	33.45
226.81	2.73
227.028	37.55
227.246	21.16
227.464	-23.89
227.682	-30.04
227.9	15.02
228.117	-103.76
228.335	51.88
228.553	4.78
228.771	2.73
228.989	76.46
229.206	51.88
229.424	68.27
229.642	41.64
229.86	17.07
230.077	90.79
230.295	84.65
230.513	-21.85
230.731	-21.85
230.948	-1.37
231.166	51.88
231.384	25.26
231.601	19.11
231.819	-27.99
232.037	35.5
232.254	21.16
232.472	21.16
232.689	-44.37
232.907	60.07
233.125	-58.71
233.342	-9.56
233.56	39.59
233.777	12.97
233.995	2.73
234.213	2.73
234.43	17.07
234.648	17.07
234.865	74.41
235.083	72.36
235.3	29.35
235.518	76.46
235.735	72.36
235.953	15.02
236.17	68.27
236.388	-38.23
236.605	-21.85
236.822	84.65
237.04	-17.75
237.257	-21.85
237.475	41.64
237.692	68.27
237.909	31.4
238.127	29.35
238.344	47.79
238.562	33.45
238.779	-9.56
238.996	39.59
239.214	17.07
239.431	37.55
239.648	-44.37
239.865	55.98
240.083	-38.23
240.3	70.31
240.517	2.73
240.735	39.59
240.952	-21.85
241.169	19.11
241.386	-5.46
241.603	21.16
241.821	51.88
242.038	43.69
242.255	62.12
242.472	12.97
242.689	-38.23
242.907	-9.56
243.124	-3.41
243.341	31.4
243.558	35.5
243.775	8.87
243.992	-40.28
244.209	-44.37
244.426	64.17
244.643	35.5
244.86	-1.37
245.078	-27.99
245.295	47.79
245.512	6.83
245.729	10.92
245.946	-36.18
246.163	-5.46
246.38	8.87
246.597	-27.99
246.814	31.4
247.031	12.97
247.248	23.21
247.464	-54.61
247.681	27.31
247.898	55.98
248.115	51.88
248.332	-15.7
248.549	78.51
248.766	49.83
248.983	88.75
249.2	-9.56
249.417	74.41
249.633	41.64
249.85	-21.85
250.067	51.88
250.284	12.97
250.501	-71
250.717	53.93
250.934	29.35
251.151	51.88
251.368	-9.56
251.585	29.35
251.801	60.07
252.018	-5.46
252.235	45.74
252.451	-5.46
252.668	-44.37
252.885	70.31
253.102	49.83
253.318	-30.04
253.535	68.27
253.752	-30.04
253.968	-3.41
254.185	-21.85
254.401	4.78
254.618	15.02
254.835	43.69
255.051	76.46
255.268	-7.51
255.484	64.17
255.701	37.55
255.917	60.07
256.134	41.64
256.351	-48.47
256.567	27.31
256.784	15.02
257	21.16
257.217	60.07
257.433	10.92
257.65	64.17
257.866	33.45
258.082	49.83
258.299	37.55
258.515	74.41
258.732	43.69
258.948	-44.37
259.165	-17.75
259.381	25.26
259.597	35.5
259.814	17.07
260.03	15.02
260.246	35.5
260.463	27.31
260.679	25.26
260.895	-25.94
261.112	53.93
261.328	62.12
261.544	12.97
261.761	125.61
261.977	-56.66
262.193	-25.94
262.409	64.17
262.626	8.87
262.842	10.92
263.058	-32.08
263.274	29.35
263.49	12.97
263.707	55.98
263.923	35.5
264.139	53.93
264.355	4.78
264.571	49.83
264.787	-3.41
265.004	68.27
265.22	2.73
265.436	-66.9
265.652	-21.85
265.868	43.69
266.084	68.27
266.3	23.21
266.516	37.55
266.732	37.55
266.948	27.31
267.164	37.55
267.38	19.11
267.596	76.46
267.812	70.31
268.028	58.03
268.244	-23.89
268.46	15.02
268.676	-34.13
268.892	70.31
269.108	72.36
269.324	2.73
269.54	-19.8
269.756	53.93
269.972	35.5
270.188	-58.71
270.403	-34.13
270.619	-11.61
270.835	29.35
271.051	-5.46
271.267	51.88
271.483	19.11
271.698	60.07
271.914	-50.52
272.13	27.31
272.346	15.02
272.562	2.73
272.777	29.35
272.993	51.88
273.209	68.27
273.425	29.35
273.64	68.27
273.856	70.31
274.072	27.31
274.287	19.11
274.503	15.02
274.719	-17.75
274.934	37.55
275.15	19.11
275.366	6.83
275.581	45.74
275.797	92.84
276.012	-5.46
276.228	-32.08
276.444	35.5
276.659	78.51
276.875	-21.85
277.09	25.26
277.306	-34.13
277.521	51.88
277.737	4.78
277.952	-11.61
278.168	-17.75
278.383	4.78
278.599	51.88
278.814	39.59
279.03	19.11
279.245	66.22
279.461	21.16
279.676	6.83
279.892	-27.99
280.107	31.4
280.322	64.17
280.538	103.08
280.753	51.88
280.969	23.21
281.184	49.83
281.399	98.99
281.615	-56.66
281.83	39.59
282.045	-1.37
282.26	4.78
282.476	19.11
282.691	94.89
282.906	-5.46
283.122	68.27
283.337	8.87
283.552	72.36
283.767	-30.04
283.983	-5.46
284.198	-25.94
284.413	23.21
284.628	39.59
284.843	10.92
285.058	31.4
285.274	74.41
285.489	15.02
285.704	-7.51
285.919	10.92
286.134	66.22
286.349	-19.8
286.564	60.07
286.779	0.68
286.995	115.37
287.21	-11.61
287.425	64.17
287.64	12.97
287.855	51.88
288.07	-7.51
288.285	35.5
288.5	23.21
288.715	94.89
288.93	94.89
289.145	37.55
289.36	62.12
289.575	39.59
289.79	113.32
290.004	41.64
290.219	51.88
290.434	-11.61
290.649	-36.18
290.864	17.07
291.079	23.21
291.294	86.7
291.509	-44.37
291.724	21.16
291.938	43.69
292.153	-32.08
292.368	-3.41
292.583	29.35
292.798	74.41
293.012	-1.37
293.227	47.79
293.442	92.84
293.657	35.5
293.871	-13.65
294.086	21.16
294.301	101.03
294.516	29.35
294.73	-42.32
294.945	19.11
295.16	78.51
295.374	-30.04
295.589	15.02
295.804	27.31
296.018	4.78
296.233	51.88
296.447	101.03
296.662	-58.71
296.877	43.69
297.091	19.11
297.306	15.02
297.52	-9.56
297.735	17.07
297.949	-30.04
298.164	33.45
298.378	10.92
298.593	23.21
298.807	-50.52
299.022	41.64
299.236	51.88
299.451	6.83
299.665	2.73
299.88	27.31
300.094	-3.41
300.309	4.78
300.523	-36.18
300.737	2.73
300.952	17.07
301.166	23.21
301.381	-27.99
301.595	62.12
301.809	29.35
302.024	43.69
302.238	39.59
302.452	64.17
302.667	-7.51
302.881	86.7
303.095	53.93
303.309	35.5
303.524	29.35
303.738	88.75
303.952	29.35
304.166	96.94
304.381	-42.32
304.595	64.17
304.809	31.4
305.023	37.55
305.237	-30.04
305.452	4.78
305.666	39.59
305.88	84.65
306.094	-3.41
306.308	49.83
306.522	19.11
306.736	2.73
306.95	-9.56
307.164	23.21
307.379	8.87
307.593	-11.61
307.807	62.12
308.021	10.92
308.235	47.79
308.449	8.87
308.663	55.98
308.877	21.16
309.091	15.02
309.305	47.79
309.519	-1.37
309.733	-56.66
309.947	31.4
310.161	35.5
310.374	21.16
310.588	-3.41
310.802	4.78
311.016	25.26
311.23	33.45
311.444	-13.65
311.658	27.31
311.872	51.88
312.085	62.12
312.299	17.07
312.513	51.88
312.727	45.74
312.941	-60.76
313.154	27.31
313.368	10.92
313.582	21.16
313.796	-13.65
314.009	35.5
314.223	45.74
314.437	43.69
314.651	53.93
314.864	45.74
315.078	51.88
315.292	39.59
315.505	86.7
315.719	-9.56
315.933	29.35
316.146	-11.61
316.36	68.27
316.573	105.13
316.787	53.93
317.001	70.31
317.214	-38.23
317.428	-32.08
317.641	68.27
317.855	45.74
318.068	-36.18
318.282	90.79
318.495	-11.61
318.709	111.27
318.922	-30.04
319.136	60.07
319.349	19.11
319.563	-21.85
319.776	37.55
319.99	25.26
320.203	-11.61
320.417	53.93
320.63	25.26
320.843	-38.23
321.057	4.78
321.27	-19.8
321.483	25.26
321.697	17.07
321.91	-3.41
322.124	43.69
322.337	39.59
322.55	53.93
322.763	92.84
322.977	39.59
323.19	41.64
323.403	-21.85
323.617	-58.71
323.83	53.93
324.043	21.16
324.256	12.97
324.469	-9.56
324.683	29.35
324.896	8.87
325.109	60.07
325.322	-83.28
325.535	23.21
325.748	-64.85
325.962	51.88
326.175	58.03
326.388	29.35
326.601	-13.65
326.814	4.78
327.027	66.22
327.24	-13.65
327.453	-38.23
327.666	51.88
327.879	45.74
328.092	49.83
328.305	58.03
328.518	72.36
328.731	17.07
328.944	12.97
329.157	4.78
329.37	-9.56
329.583	39.59
329.796	25.26
330.009	-99.67
330.222	-42.32
330.435	45.74
330.648	33.45
330.861	37.55
331.073	62.12
331.286	41.64
331.499	-5.46
331.712	-17.75
331.925	70.31
332.138	19.11
332.35	66.22
332.563	21.16
332.776	60.07
332.989	29.35
333.202	51.88
333.414	53.93
333.627	133.8
333.84	62.12
334.053	125.61
334.265	62.12
334.478	-30.04
334.691	15.02
334.903	47.79
335.116	45.74
335.329	21.16
335.541	80.55
335.754	60.07
335.966	-54.61
336.179	39.59
336.392	94.89
336.604	-17.75
336.817	-11.61
337.029	19.11
337.242	-19.8
337.454	-13.65
337.667	88.75
337.88	58.03
338.092	-3.41
338.305	-15.7
338.517	51.88
338.729	82.6
338.942	35.5
339.154	45.74
339.367	37.55
339.579	49.83
339.792	-60.76
340.004	103.08
340.217	17.07
340.429	19.11
340.641	-17.75
340.854	-11.61
341.066	-19.8
341.278	10.92
341.491	-5.46
341.703	35.5
341.915	-3.41
342.128	21.16
342.34	47.79
342.552	47.79
342.764	51.88
342.977	68.27
343.189	-17.75
343.401	129.7
343.613	-21.85
343.826	72.36
344.038	-5.46
344.25	78.51
344.462	49.83
344.674	0.68
344.886	90.79
345.099	109.23
345.311	-32.08
345.523	64.17
345.735	-13.65
345.947	23.21
346.159	64.17
346.371	23.21
346.583	-5.46
346.795	27.31
347.007	-30.04
347.219	8.87
347.431	19.11
347.643	111.27
347.855	29.35
348.067	76.46
348.279	27.31
348.491	47.79
348.703	84.65
348.915	35.5
349.127	62.12
349.339	78.51
349.551	33.45
349.763	43.69
349.975	49.83
350.187	-3.41
350.399	-15.7
350.61	-21.85
350.822	41.64
351.034	-44.37
351.246	41.64
351.458	2.73
351.669	45.74
351.881	60.07
352.093	-36.18
352.305	94.89
352.517	58.03
352.728	51.88
352.94	-27.99
353.152	68.27
353.363	27.31
353.575	-64.85
353.787	80.55
353.999	84.65
354.21	41.64
354.422	12.97
354.633	4.78
354.845	4.78
355.057	53.93
355.268	60.07
355.48	-34.13
355.692	86.7
355.903	64.17
356.115	27.31
356.326	33.45
356.538	12.97
356.749	41.64
356.961	-3.41
357.172	-13.65
357.384	37.55
357.595	141.99
357.807	-5.46
358.018	37.55
358.23	70.31
358.441	39.59
358.653	2.73
358.864	-44.37
359.075	15.02
359.287	-17.75
359.498	60.07
359.709	31.4
359.921	-30.04
360.132	15.02
360.344	53.93
360.555	17.07
360.766	60.07
360.977	15.02
361.189	-21.85
361.4	8.87
361.611	76.46
361.823	-46.42
362.034	6.83
362.245	66.22
362.456	78.51
362.667	17.07
362.879	-3.41
363.09	21.16
363.301	60.07
363.512	78.51
363.723	84.65
363.935	-11.61
364.146	41.64
364.357	19.11
364.568	43.69
364.779	19.11
364.99	68.27
365.201	35.5
365.412	55.98
365.623	64.17
365.834	60.07
366.045	55.98
366.256	23.21
366.467	49.83
366.678	72.36
366.889	-9.56
367.1	53.93
367.311	39.59
367.522	21.16
367.733	-17.75
367.944	82.6
368.155	25.26
368.366	70.31
368.577	31.4
368.788	88.75
368.999	58.03
369.209	51.88
369.42	55.98
369.631	182.95
369.842	60.07
370.053	74.41
370.264	-21.85
370.474	6.83
370.685	88.75
370.896	8.87
371.107	72.36
371.317	72.36
371.528	72.36
371.739	55.98
371.95	43.69
372.16	62.12
372.371	39.59
372.582	66.22
372.792	31.4
373.003	2.73
373.214	86.7
373.424	55.98
373.635	31.4
373.846	98.99
374.056	4.78
374.267	45.74
374.477	-44.37
374.688	90.79
374.898	10.92
375.109	64.17
375.319	12.97
375.53	2.73
375.74	29.35
375.951	17.07
376.161	25.26
376.372	-13.65
376.582	2.73
376.793	-3.41
377.003	27.31
377.214	35.5
377.424	-11.61
377.635	90.79
377.845	64.17
378.055	47.79
378.266	-27.99
378.476	76.46
378.686	41.64
378.897	55.98
379.107	53.93
379.317	25.26
379.528	-75.09
379.738	72.36
379.948	80.55
380.158	19.11
380.369	68.27
380.579	123.56
380.789	-19.8
380.999	8.87
381.21	53.93
381.42	-40.28
381.63	76.46
381.84	96.94
382.05	51.88
382.261	37.55
382.471	88.75
382.681	39.59
382.891	55.98
383.101	107.18
383.311	-11.61
383.521	27.31
383.731	62.12
383.941	78.51
384.151	19.11
384.361	86.7
384.571	76.46
384.781	21.16
384.991	58.03
385.201	10.92
385.411	78.51
385.621	19.11
385.831	35.5
386.041	51.88
386.251	62.12
386.461	117.42
386.671	25.26
386.881	39.59
387.091	84.65
387.301	31.4
387.511	88.75
387.72	37.55
387.93	64.17
388.14	47.79
388.35	21.16
388.56	17.07
388.769	41.64
388.979	-40.28
389.189	53.93
389.399	10.92
389.609	68.27
389.818	47.79
390.028	12.97
390.238	43.69
390.447	115.37
390.657	-27.99
390.867	21.16
391.076	139.94
391.286	-5.46
391.496	31.4
391.705	-9.56
391.915	47.79
392.125	68.27
392.334	-19.8
392.544	45.74
392.753	94.89
392.963	55.98
393.172	62.12
393.382	68.27
393.591	21.16
393.801	23.21
394.01	80.55
394.22	53.93
394.429	101.03
394.639	53.93
394.848	119.46
395.058	-1.37
395.267	92.84
395.477	37.55
395.686	84.65
395.895	51.88
396.105	127.66
396.314	31.4
396.524	-1.37
396.733	113.32
396.942	101.03
397.152	51.88
397.361	21.16
397.57	119.46
397.78	135.85
397.989	39.59
398.198	74.41
398.407	12.97
398.617	94.89
398.826	156.33
399.035	133.8
399.244	101.03
399.453	8.87
399.663	88.75
399.872	109.23
400.081	80.55
400.29	137.9
400.499	15.02
400.708	62.12
400.917	111.27
401.127	154.28
401.336	103.08
401.545	103.08
401.754	162.47
401.963	113.32
402.172	35.5
402.381	92.84
402.59	109.23
402.799	84.65
403.008	92.84
403.217	101.03
403.426	152.23
403.635	86.7
403.844	70.31
404.053	109.23
404.262	154.28
404.471	158.38
404.68	72.36
404.888	127.66
405.097	141.99
405.306	137.9
405.515	174.76
405.724	125.61
405.933	187.05
406.142	117.42
406.35	148.14
406.559	168.62
406.768	213.67
406.977	191.14
407.185	141.99
407.394	168.62
407.603	262.82
407.812	180.9
408.02	174.76
408.229	168.62
408.438	148.14
408.646	166.57
408.855	213.67
409.064	223.91
409.272	174.76
409.481	342.69
409.69	187.05
409.898	264.87
410.107	199.34
410.315	301.73
410.524	277.16
410.733	254.63
410.941	191.14
411.15	273.06
411.358	287.4
411.567	373.41
411.775	264.87
411.984	391.84
412.192	309.93
412.401	395.94
412.609	369.32
412.818	326.31
413.026	498.34
413.234	461.48
413.443	449.19
413.651	453.28
413.86	436.9
414.068	410.28
414.276	443.04
414.485	473.76
414.693	539.3
414.901	615.07
415.11	608.93
415.318	498.34
415.526	608.93
415.734	551.59
415.943	627.36
416.151	635.55
416.359	633.51
416.567	715.42
416.776	694.94
416.984	821.92
417.192	797.34
417.4	778.91
417.608	783.01
417.817	828.06
418.025	881.31
418.233	930.46
418.441	1020.57
418.649	1045.15
418.857	1141.4
419.065	1122.97
419.273	1047.19
419.481	1104.54
419.689	1147.55
419.897	1233.56
420.105	1319.57
420.313	1268.38
420.521	1419.93
420.729	1350.29
420.937	1346.2
421.145	1477.27
421.353	1483.41
421.561	1616.53
421.769	1643.15
421.977	1634.96
422.185	1688.21
422.393	1821.33
422.601	1964.68
422.809	1835.66
423.017	1989.26
423.224	2001.55
423.432	2105.99
423.64	2120.33
423.848	2278.02
424.056	2222.73
424.263	2368.13
424.471	2366.09
424.679	2474.63
424.887	2611.84
425.094	2620.03
425.302	2648.71
425.51	2622.08
425.718	2724.48
425.925	2620.03
426.133	2945.66
426.341	3127.93
426.548	3189.37
426.756	3316.34
426.964	3287.67
427.171	3408.5
427.379	3498.61
427.586	3564.15
427.794	3783.28
428.001	3875.44
428.209	4123.24
428.417	3902.06
428.624	4223.59
428.832	4147.82
429.039	4360.81
429.247	4256.36
429.454	4573.8
429.662	4942.43
429.869	4526.69
430.076	4868.7
430.284	4831.84
430.491	4919.9
430.699	5239.39
430.906	5272.15
431.114	5386.84
431.321	5665.36
431.528	5589.59
431.736	6060.62
431.943	6302.28
432.15	6144.59
432.358	6255.18
432.565	6670.92
432.772	6257.23
432.979	6941.25
433.187	6945.34
433.394	7133.76
433.601	7504.44
433.808	7404.09
434.016	7483.96
434.223	7836.21
434.43	8145.45
434.637	8071.73
434.844	8731.17
435.052	8532.52
435.259	8727.08
435.466	8837.67
435.673	8684.07
435.88	9198.11
436.087	9732.63
436.294	9859.6
436.501	9433.63
436.708	9667.1
436.915	10015.25
437.122	10338.83
437.329	10494.47
437.537	10723.85
437.743	11033.09
437.95	10859.01
438.157	11186.69
438.364	11864.57
438.571	11770.36
438.778	11727.35
438.985	12978.66
439.192	12495.34
439.399	12843.49
439.606	12687.85
439.813	13208.03
440.02	13922.77
440.227	13724.12
440.433	13803.99
440.64	14174.67
440.847	13978.07
441.054	14285.26
441.261	15256
441.467	15378.88
441.674	15528.38
441.881	15964.6
442.088	16191.92
442.294	15675.84
442.501	16404.91
442.708	16523.69
442.914	17332.64
443.121	18008.47
443.328	17308.07
443.534	18651.53
443.741	18131.35
443.948	17891.74
444.154	19032.46
444.361	19239.3
444.568	19106.18
444.774	19300.74
444.981	19569.02
445.187	20154.74
445.394	21088.62
445.6	20240.76
445.807	22356.31
446.013	21469.54
446.22	21956.96
446.426	22858.06
446.633	22825.29
446.839	23613.76
447.046	23030.09
447.252	24199.48
447.459	24011.07
447.665	23742.78
447.871	25055.53
448.078	26056.99
448.284	24922.41
448.491	25465.13
448.697	26833.17
448.903	26933.52
449.11	26867.98
449.316	26818.83
449.522	27152.65
449.728	27967.74
449.935	27975.94
450.141	28082.43
450.347	28406.01
450.553	27635.97
450.76	27990.27
450.966	29001.97
451.172	28799.22
451.378	29337.83
451.584	28444.92
451.791	29188.33
451.997	29092.08
452.203	29823.2
452.409	30167.26
452.615	29876.45
452.821	28285.18
453.027	28236.03
453.233	29792.48
453.44	28373.24
453.646	28801.27
453.852	28829.94
454.058	29391.08
454.264	28678.39
454.47	28999.92
454.676	28500.22
454.882	29122.8
455.088	26462.49
455.294	27140.36
455.5	27455.75
455.705	28047.61
455.911	26452.25
456.117	26343.7
456.323	25577.76
456.529	24451.38
456.735	25262.38
456.941	24832.3
457.147	24629.55
457.352	23578.95
457.558	23193.93
457.764	23562.56
457.97	22813.01
458.176	22460.76
458.381	22399.32
458.587	21283.17
458.793	21535.07
458.999	20484.47
459.204	21768.54
459.41	21307.75
459.616	19710.33
459.821	19732.86
460.027	19792.25
460.233	19331.46
460.438	18551.18
460.644	18610.57
460.85	17772.96
461.055	17367.46
461.261	17439.14
461.466	16208.31
461.672	15878.58
461.878	16947.62
462.083	15475.13
462.289	15153.6
462.494	14995.91
462.7	14678.47
462.905	14070.23
463.111	14635.47
463.316	14643.66
463.522	14412.24
463.727	14688.71
463.932	14574.03
464.138	14315.98
464.343	14369.23
464.549	14010.84
464.754	14412.24
464.959	14283.22
465.165	14100.95
465.37	13447.65
465.575	13294.05
465.781	13674.97
465.986	13711.83
466.191	13443.55
466.397	13081.06
466.602	12493.29
466.807	13029.86
467.012	12802.54
467.218	12825.06
467.423	12675.56
467.628	12976.61
467.833	13255.14
468.038	12773.86
468.244	12685.8
468.449	13093.35
468.654	12548.59
468.859	12607.98
469.064	12362.22
469.269	12059.12
469.474	12077.55
469.679	12284.4
469.885	11917.81
470.09	12227.06
470.295	12173.81
470.5	11618.81
470.705	11764.22
470.91	11383.29
471.115	11454.97
471.32	11586.04
471.525	11391.48
471.73	11119.1
471.935	11131.39
472.139	10758.66
472.344	10990.08
472.549	10809.86
472.754	10789.38
472.959	10277.39
473.164	10514.95
473.369	10293.77
473.574	10398.22
473.778	10414.6
473.983	10265.1
474.188	10189.33
474.393	9826.84
474.598	9933.33
474.802	9894.42
475.007	9792.02
475.212	9941.52
475.417	9564.7
475.621	9415.19
475.826	9499.16
476.031	9394.72
476.235	9044.51
476.44	9398.81
476.645	9046.56
476.849	8976.93
477.054	8751.65
477.259	8669.73
477.463	8919.59
477.668	8417.83
477.872	8849.96
478.077	8477.23
478.282	8354.35
478.486	8301.1
478.691	8256.04
478.895	8331.82
479.1	8100.4
479.304	8184.37
479.509	7858.74
479.713	8034.86
479.918	7952.95
480.122	7895.6
480.326	8063.54
480.531	8204.85
480.735	7940.66
480.94	7883.31
481.144	7770.68
481.348	7662.13
481.553	7684.66
481.757	7643.7
481.961	7580.21
482.166	7754.29
482.37	7793.2
482.574	7639.61
482.778	7600.69
482.983	8057.39
483.187	7545.4
483.391	7574.07
483.595	7557.69
483.8	7426.62
484.004	7549.5
484.208	7961.14
484.412	7547.45
484.616	7662.13
484.821	7537.21
485.025	7404.09
485.229	7795.25
485.433	7594.55
485.637	7506.49
485.841	7549.5
486.045	7596.6
486.249	7557.69
486.453	7520.82
486.657	7645.75
486.861	7612.98
487.065	7416.38
487.269	7531.06
487.473	7393.85
487.677	7574.07
487.881	7658.04
488.085	7737.91
488.289	7789.11
488.493	7637.56
488.697	7557.69
488.901	7531.06
489.105	7582.26
489.309	7625.27
489.512	7535.16
489.716	7688.76
489.92	7645.75
490.124	7850.55
490.328	7856.69
490.531	7805.49
490.735	7789.11
490.939	7813.68
491.143	7977.52
491.346	7668.28
491.55	7983.66
491.754	7916.08
491.958	7998
492.161	7998
492.365	8219.18
492.569	8008.24
492.772	8094.26
492.976	8112.69
493.18	8288.81
493.383	8120.88
493.587	8401.45
493.79	8311.34
493.994	8395.31
494.197	8450.6
494.401	8579.62
494.605	8491.56
494.808	8835.62
495.012	8641.06
495.215	8661.54
495.419	8890.92
495.622	8882.72
495.825	8755.75
496.029	8872.48
496.232	9097.76
496.436	8987.17
496.639	9255.45
496.843	9302.56
497.046	9642.52
497.249	9521.69
497.453	9544.22
497.656	9982.48
497.859	9589.27
498.063	9947.67
498.266	10005.01
498.469	10005.01
498.673	10093.07
498.876	10320.4
499.079	10265.1
499.282	10336.78
499.485	10557.96
499.689	10766.85
499.892	10711.56
500.095	10916.36
500.298	11168.26
500.501	10908.16
500.705	11624.95
500.908	11340.29
501.111	11454.97
501.314	11588.09
501.517	11829.75
501.72	11909.62
501.923	11782.65
502.126	12184.05
502.329	12392.94
502.532	12390.89
502.735	12374.51
502.938	12700.14
503.141	12777.96
503.344	13015.52
503.547	13081.06
503.75	13263.33
503.953	13558.24
504.156	13478.36
504.359	13767.13
504.562	13767.13
504.765	14084.56
504.968	14250.45
505.17	14434.77
505.373	14432.72
505.576	14688.71
505.779	14811.59
505.982	14758.35
506.185	15233.47
506.387	15356.35
506.59	15309.25
506.793	15806.91
506.996	15522.24
507.198	15901.11
507.401	15991.22
507.604	16206.26
507.807	16634.28
508.009	16759.21
508.212	16814.51
508.415	17144.23
508.617	17191.33
508.82	17467.81
509.022	17211.81
509.225	17801.63
509.428	18149.78
509.63	18100.63
509.833	18033.05
510.035	18665.87
510.238	18694.54
510.44	18635.15
510.643	19190.15
510.845	19323.27
511.048	19237.25
511.25	19573.12
511.453	19741.05
511.655	20449.65
511.858	20099.45
512.06	20484.47
512.262	20590.96
512.465	20787.57
512.667	21061.99
512.87	21293.41
513.072	21152.1
513.274	21985.63
513.477	21877.08
513.679	22004.06
513.881	22210.9
514.084	22810.96
514.286	22487.38
514.488	23013.71
514.69	23564.61
514.893	23728.45
515.095	23464.26
515.297	23906.62
515.499	23853.37
515.701	24500.53
515.904	24441.14
516.106	24994.09
516.308	24959.28
516.51	25485.61
516.712	25545
516.914	25778.47
517.116	26149.15
517.318	26089.76
517.52	26552.6
517.722	26738.96
517.925	27089.17
518.127	27048.21
518.329	27126.03
518.531	27420.94
518.733	27955.46
518.935	27955.46
519.136	28143.87
519.338	28868.85
519.54	28594.42
519.742	28993.78
519.944	29141.23
520.146	29714.66
520.348	29810.92
520.55	29896.93
520.752	30091.49
520.954	30666.97
521.155	30288.09
521.357	30884.05
521.559	31207.63
521.761	31613.13
521.963	31623.37
522.164	31461.58
522.366	31615.18
522.568	32172.22
522.77	32221.37
522.971	32897.2
523.173	32551.1
523.375	33093.81
523.576	32809.14
523.778	32786.61
523.98	33433.77
524.181	33286.32
524.383	33708.2
524.584	34193.57
524.786	34011.3
524.988	34205.86
525.189	34621.59
525.391	34513.05
525.592	34943.13
525.794	35313.81
525.995	35311.76
526.197	35092.63
526.398	35205.27
526.6	35696.78
526.801	35555.47
527.003	35975.3
527.204	35571.85
527.406	35963.01
527.607	36008.07
527.808	36739.19
528.01	35846.28
528.211	36046.98
528.412	37212.27
528.614	36427.9
528.815	36933.75
529.016	37025.91
529.218	36577.4
529.419	36984.95
529.62	37122.16
529.822	37091.44
530.023	37240.95
530.224	37351.54
530.425	37269.62
530.626	37288.05
530.828	36759.67
531.029	37949.54
531.23	37189.75
531.431	37566.57
531.632	37879.91
531.833	37904.49
532.035	37757.03
532.236	37646.44
532.437	38086.76
532.638	37701.74
532.839	37959.78
533.04	38025.32
533.241	37714.03
533.442	38402.14
533.643	37972.07
533.844	37415.02
534.045	38060.13
534.246	38082.66
534.447	38416.48
534.648	37984.36
534.849	37990.5
535.05	38152.29
535.251	38320.23
535.451	38318.18
535.652	38314.08
535.853	38195.3
536.054	37996.65
536.255	38623.33
536.456	38144.1
536.657	38830.17
536.857	38318.18
537.058	38072.42
537.259	38246.5
537.46	38477.92
537.66	38441.06
537.861	38088.81
538.062	37894.25
538.263	38211.68
538.463	38406.24
538.664	37957.74
538.865	38246.5
539.065	38436.96
539.266	37982.31
539.466	38447.2
539.667	37982.31
539.868	38647.9
540.068	38307.94
540.269	37898.34
540.469	38584.41
540.67	37865.58
540.87	38051.94
541.071	38219.88
541.271	38494.3
541.472	37974.12
541.672	37884.01
541.873	37810.28
542.073	37298.29
542.274	38297.7
542.474	38080.61
542.675	37912.68
542.875	38471.78
543.075	37959.78
543.276	37697.64
543.476	38137.96
543.676	38053.99
543.877	38428.77
544.077	37978.22
544.277	37955.69
544.478	38162.53
544.678	38246.5
544.878	38238.31
545.078	38064.23
545.279	37808.23
545.479	37873.77
545.679	38115.43
545.879	38060.13
546.079	37957.74
546.28	37976.17
546.48	37623.92
546.68	38117.48
546.88	37843.05
547.08	37974.12
547.28	37963.88
547.48	37716.08
547.68	38002.79
547.88	38125.67
548.081	38346.85
548.281	37814.38
548.481	38037.61
548.681	38314.08
548.881	38266.98
549.081	38066.28
549.28	37797.99
549.48	38207.59
549.68	37898.34
549.88	38043.75
550.08	37746.79
550.28	38008.93
550.48	37369.97
550.68	38240.36
550.88	37662.83
551.08	37802.09
551.279	38049.89
551.479	37765.23
551.679	38049.89
551.879	37935.21
552.079	38060.13
552.278	37570.67
552.478	37959.78
552.678	37808.23
552.878	37931.11
553.077	37388.4
553.277	37214.32
553.477	37916.78
553.676	37740.65
553.876	37820.52
554.076	37855.34
554.275	37017.72
554.475	37212.27
554.674	37533.81
554.874	37546.09
555.074	37374.06
555.273	37666.92
555.473	37877.86
555.672	37273.71
555.872	37585.01
556.071	37161.08
556.271	37595.24
556.47	37187.7
556.67	37007.48
556.869	37146.74
557.068	37380.21
557.268	36851.83
557.467	36774.01
557.667	37023.86
557.866	36946.04
558.065	36784.25
558.265	36855.93
558.464	36657.28
558.663	37531.76
558.863	36829.3
559.062	37140.6
559.261	36540.54
559.461	36878.46
559.66	36391.04
559.859	36761.72
560.058	36262.02
560.258	36538.49
560.457	36477.05
560.656	36638.84
560.855	36364.42
561.054	36507.77
561.253	35879.05
561.453	36266.11
561.652	36311.17
561.851	36526.21
562.05	36003.97
562.249	35817.61
562.448	36102.28
562.647	35623.05
562.846	35946.63
563.045	36128.9
563.244	35698.83
563.443	36378.75
563.642	35661.96
563.841	35897.48
564.04	35219.6
564.239	36214.91
564.438	35289.23
564.637	35520.65
564.836	35657.87
565.035	35070.1
565.234	35498.12
565.432	34949.27
565.631	35074.2
565.83	35231.89
566.029	35246.22
566.228	34932.89
566.427	34863.25
566.625	34910.36
566.824	34576.54
567.023	34865.3
567.222	34515.1
567.42	34996.37
567.619	34668.7
567.818	34513.05
568.016	34517.15
568.215	34756.76
568.414	34502.81
568.612	34750.62
568.811	34478.24
569.01	33706.15
569.208	33794.21
569.407	34511
569.605	33501.36
569.804	34388.13
570.002	33519.79
570.201	34363.55
570.4	33540.27
570.598	33800.36
570.797	33177.78
570.995	33675.43
571.193	32983.22
571.392	33564.84
571.59	32889.01
571.789	33329.33
571.987	33159.34
572.186	33130.67
572.384	32766.13
572.582	33011.89
572.781	32997.56
572.979	32526.52
573.177	32549.05
573.376	32841.91
573.574	32284.86
573.772	32250.05
573.971	32397.5
574.169	32266.43
574.367	32008.39
574.565	32422.08
574.763	32166.08
574.962	31932.61
575.16	31766.73
575.358	31936.71
575.556	31791.3
575.754	31897.8
575.952	31385.8
576.151	31355.08
576.349	31336.65
576.547	30931.15
576.745	31215.82
576.943	30892.24
577.141	30931.15
577.339	31019.22
577.537	30486.75
577.735	30750.93
577.933	30623.96
578.131	30738.65
578.329	30650.58
578.527	30245.09
578.725	30437.59
578.923	30427.35
579.121	30324.96
579.319	30212.32
579.516	29731.04
579.714	30234.85
579.912	30202.08
580.11	29984.99
580.308	30073.06
580.506	30122.21
580.704	29427.95
580.901	30013.66
581.099	29968.61
581.297	29167.85
581.495	29626.6
581.692	29630.69
581.89	29169.9
582.088	29321.45
582.285	28958.96
582.483	29087.98
582.681	29325.55
582.878	28778.74
583.076	28461.3
583.274	29217
583.471	28596.47
583.669	28571.89
583.866	28698.87
584.064	28498.17
584.262	28240.12
584.459	28635.38
584.657	28403.96
584.854	28494.07
585.052	27697.41
585.249	27975.94
585.447	27816.19
585.644	27959.55
585.841	27818.24
586.039	28258.56
586.236	27814.15
586.434	27953.41
586.631	27341.07
586.828	27457.8
587.026	27420.94
587.223	27756.8
587.42	27402.5
587.618	27314.44
587.815	26919.18
588.012	27195.66
588.21	26773.78
588.407	27416.84
588.604	27070.73
588.801	26552.6
588.999	26794.26
589.196	26722.58
589.393	26747.15
589.59	26521.88
589.787	26372.38
589.984	26452.25
590.182	25991.45
590.379	26122.52
590.576	26382.62
590.773	25876.77
590.97	25864.48
591.167	26100
591.364	25862.43
591.561	25891.1
591.758	25659.68
591.955	25532.71
592.152	25514.28
592.349	25286.95
592.546	25401.64
592.743	25508.13
592.94	24934.7
593.137	25153.83
593.334	25297.19
593.531	24555.83
593.727	24998.19
593.924	24918.32
594.121	24428.85
594.318	24832.3
594.515	24678.71
594.712	24865.07
594.908	24768.82
595.105	24805.68
595.302	24514.87
595.499	24480.05
595.696	23988.54
595.892	24039.74
596.089	24400.18
596.286	23949.63
596.482	24203.58
596.679	24023.36
596.876	23886.14
597.072	23925.05
597.269	23951.68
597.466	23685.44
597.662	23492.93
597.859	23484.74
598.055	23564.61
598.252	23195.98
598.448	23658.82
598.645	23566.66
598.841	23122.25
599.038	22915.4
599.234	23316.81
599.431	23046.47
599.627	23026
599.824	22962.51
600.02	22739.28
600.217	22608.21
600.413	22888.78
600.609	22606.16
600.806	22389.08
601.002	22546.77
601.198	22212.95
601.395	22221.14
601.591	22139.22
601.787	22356.31
601.984	22085.98
602.18	22126.94
602.376	21944.67
602.572	22122.84
602.769	21995.87
602.965	21746.01
603.161	21641.57
603.357	21660
603.553	21979.48
603.75	21668.19
603.946	21553.51
604.142	21412.2
604.338	20965.74
604.534	21580.13
604.73	21129.58
604.926	21168.49
605.122	21174.63
605.318	20777.33
605.514	20992.36
605.71	20670.83
605.906	20597.1
606.102	20304.24
606.298	20676.98
606.494	20785.52
606.69	20709.74
606.886	20650.35
607.082	20216.18
607.278	20492.66
607.474	20277.62
607.67	20332.92
607.866	19982.71
608.062	20527.47
608.257	19949.95
608.453	19931.51
608.649	20070.78
608.845	19812.73
609.041	20119.93
609.236	19949.95
609.432	19636.61
609.628	19769.72
609.824	19792.25
610.019	19657.09
610.215	19786.11
610.411	19548.54
610.606	19642.75
610.802	19450.24
610.998	19698.05
611.193	19495.3
611.389	19335.56
611.584	19173.77
611.78	19100.04
611.976	19409.28
612.171	19380.61
612.367	18848.14
612.562	19206.53
612.758	18889.1
612.953	19110.28
613.149	19077.51
613.344	18803.08
613.539	19093.9
613.735	19067.27
613.93	19116.42
614.126	18581.9
614.321	19188.1
614.517	18352.53
614.712	18669.97
614.907	18577.81
615.103	18663.82
615.298	18567.57
615.493	18641.29
615.688	18459.03
615.884	18540.94
616.079	18125.21
616.274	18409.87
616.47	18219.41
616.665	18293.14
616.86	18241.94
617.055	18291.09
617.25	17883.55
617.445	18131.35
617.641	17750.43
617.836	18129.3
618.031	17844.63
618.226	18110.87
618.421	17496.48
618.616	17957.27
618.811	17369.51
619.006	17883.55
619.201	17144.23
619.396	17678.75
619.591	17381.79
619.786	17469.86
619.981	16972.2
620.176	17267.11
620.371	17207.72
620.566	17093.03
620.761	17185.19
620.956	17052.07
621.151	16583.09
621.346	16581.04
621.541	16476.59
621.735	16726.44
621.93	16251.31
622.125	16357.81
622.32	16216.5
622.515	16222.64
622.709	16230.83
622.904	16320.95
623.099	15913.4
623.294	15995.32
623.488	16050.61
623.683	15882.68
623.878	15788.47
624.072	15624.64
624.267	15761.85
624.462	15294.91
624.656	15315.39
624.851	15180.23
625.046	15176.13
625.24	15086.02
625.435	14895.56
625.629	14961.09
625.824	14893.51
626.018	14887.37
626.213	14635.47
626.407	14864.84
626.602	14297.55
626.796	14449.1
626.991	14463.44
627.185	14377.42
627.38	14133.72
627.574	14289.36
627.768	14086.61
627.963	14014.93
628.157	13724.12
628.352	13885.91
628.546	13820.38
628.74	13715.93
628.935	13683.16
629.129	13760.98
629.323	13486.56
629.517	13410.78
629.712	13398.49
629.906	13347.29
630.1	13177.31
630.294	13244.9
630.489	13142.5
630.683	13142.5
630.877	12835.3
631.071	12777.96
631.265	12966.37
631.459	12691.94
631.653	12714.47
631.848	12665.32
632.042	12534.25
632.236	12538.35
632.43	12417.52
632.624	12607.98
632.818	12413.42
633.012	12161.52
633.206	12055.03
633.4	12177.9
633.594	12026.36
633.788	12149.23
633.982	11942.39
634.176	11930.1
634.369	12034.55
634.563	11665.91
634.757	11938.29
634.951	11672.06
635.145	11649.53
635.339	11622.91
635.533	11502.08
635.726	11594.23
635.92	11127.3
636.114	11457.02
636.308	11221.5
636.501	11207.17
636.695	11319.81
636.889	11301.37
637.083	11037.19
637.276	10816.01
637.47	10936.84
637.664	10846.73
637.857	10940.93
638.051	10732.04
638.244	10820.1
638.438	10498.57
638.632	10545.67
638.825	10574.35
639.019	10510.86
639.212	10582.54
639.406	10500.62
639.599	10330.64
639.793	10291.73
639.986	10048.02
640.18	10367.5
640.373	10070.54
640.567	9990.67
640.76	9900.56
640.954	9855.51
641.147	9878.04
641.34	9947.67
641.534	9685.53
641.727	9601.56
641.92	9738.77
642.114	9820.69
642.307	9544.22
642.5	9425.43
642.694	9208.35
642.887	9312.8
643.08	9445.91
643.273	9320.99
643.467	9128.48
643.66	9191.97
643.853	9226.78
644.046	8981.03
644.239	9011.75
644.432	8931.87
644.626	8927.78
644.819	8757.8
645.012	8849.96
645.205	8870.44
645.398	8661.54
645.591	8663.59
645.784	8514.09
645.977	8591.91
646.17	8598.06
646.363	8401.45
646.556	8356.4
646.749	8614.44
646.942	8397.35
647.135	8340.01
647.328	8141.36
647.521	8159.79
647.714	8163.89
647.907	8034.86
648.099	8122.93
648.292	8049.2
648.485	8106.54
648.678	7860.79
648.871	7868.98
649.064	7914.03
649.256	7850.55
649.449	7623.22
649.642	7727.67
649.835	7522.87
650.027	7584.31
650.22	7631.41
650.413	7612.98
650.605	7402.04
650.798	7526.97
650.991	7508.54
651.183	7397.95
651.376	7412.28
651.568	7240.25
651.761	7445.05
651.954	7203.39
652.146	7264.83
652.339	7068.22
652.531	7025.22
652.724	7035.46
652.916	6949.44
653.109	6836.8
653.301	6834.75
653.494	6830.66
653.686	6908.48
653.879	6896.19
654.071	6660.68
654.263	6705.73
654.456	6572.61
654.648	6658.63
654.84	6496.84
655.033	6474.31
655.225	6623.81
655.417	6509.13
655.61	6472.26
655.802	6599.24
655.994	6306.38
656.186	6394.44
656.379	6394.44
656.571	6296.14
656.763	6228.56
656.955	6378.06
657.148	6191.69
657.34	6181.45
657.532	6165.07
657.724	6019.66
657.916	6281.8
658.108	6058.57
658.3	5894.74
658.492	5927.5
658.684	5886.54
658.876	5894.74
659.068	5853.78
659.26	5829.2
659.452	5825.11
659.644	5648.98
659.836	5614.16
660.028	5804.63
660.22	5517.91
660.412	5655.12
660.604	5517.91
660.796	5603.93
660.988	5575.25
661.18	5587.54
661.372	5362.26
661.563	5343.83
661.755	5341.79
661.947	5302.87
662.139	5327.45
662.331	5249.63
662.522	5225.05
662.714	5309.02
662.906	5239.39
663.097	5220.95
663.289	5268.06
663.481	4997.73
663.673	5151.32
663.864	5038.69
664.056	4903.52
664.247	5012.06
664.439	5061.21
664.631	4893.28
664.822	4913.76
665.014	4911.71
665.205	4950.62
665.397	4829.79
665.588	4758.11
665.78	4672.1
665.971	4754.02
666.163	4897.38
666.354	4803.17
666.546	4657.76
666.737	4649.57
666.929	4647.52
667.12	4788.83
667.311	4551.27
667.503	4561.51
667.694	4489.83
667.885	4364.9
668.077	4364.9
668.268	4393.58
668.459	4336.23
668.651	4450.92
668.842	4383.34
669.033	4239.98
669.224	4311.66
669.416	4412.01
669.607	4405.86
669.798	4156.01
669.989	4213.35
670.18	4176.49
670.371	4158.06
670.563	4133.48
670.754	4315.75
670.945	4125.29
671.136	4143.72
671.327	4143.72
671.518	4035.18
671.709	4041.32
671.9	4094.57
672.091	4051.56
672.282	4010.61
672.473	4098.67
672.664	4016.75
672.855	3887.73
673.046	4010.61
673.237	4031.09
673.428	3801.71
673.619	3961.45
673.809	3770.99
674	3883.63
674.191	3918.45
674.382	3801.71
674.573	3875.44
674.764	3676.79
674.954	3701.36
675.145	3684.98
675.336	3754.61
675.527	3680.88
675.717	3719.79
675.908	3697.27
676.099	3809.9
676.289	3580.53
676.48	3539.57
676.671	3568.24
676.861	3582.58
677.052	3451.51
677.243	3574.39
677.433	3558
677.624	3551.86
677.814	3461.75
678.005	3644.02
678.195	3494.52
678.386	3404.41
678.576	3543.67
678.767	3435.13
678.957	3412.6
679.148	3607.16
679.338	3410.55
679.529	3342.97
679.719	3320.44
679.909	3347.06
680.1	3336.82
680.29	3500.66
680.481	3265.14
680.671	3363.45
680.861	3230.33
681.052	3295.86
681.242	3308.15
681.432	3189.37
681.622	3181.18
681.813	3218.04
682.003	3148.41
682.193	3246.71
682.383	3199.61
682.573	3287.67
682.764	3259
682.954	3191.42
683.144	3193.47
683.334	3195.51
683.524	3089.02
683.714	3189.37
683.904	3121.79
684.094	3078.78
684.284	3068.54
684.474	3281.53
684.664	3095.16
684.854	3111.55
685.044	3003
685.234	3003
685.424	2966.14
685.614	3111.55
685.804	2982.53
685.994	3015.29
686.184	3017.34
686.374	2992.77
686.564	3043.96
686.753	3062.4
686.943	3035.77
687.133	2947.71
687.323	2988.67
687.513	2851.46
687.702	2871.93
687.892	2878.08
688.082	2837.12
688.272	2919.04
688.461	2890.37
688.651	2949.76
688.841	2841.22
689.03	2970.24
689.22	2843.26
689.41	2935.42
689.599	2869.89
689.789	2759.3
689.979	2763.39
690.168	2810.5
690.358	2722.43
690.547	2814.59
690.737	2732.67
690.926	2744.96
691.116	2599.56
691.305	2826.88
691.495	2753.15
691.684	2650.75
691.874	2665.09
692.063	2738.82
692.252	2665.09
692.442	2755.2
692.631	2683.52
692.82	2775.68
693.01	2673.28
693.199	2695.81
693.388	2796.16
693.578	2640.51
693.767	2652.8
693.956	2642.56
694.146	2650.75
694.335	2599.56
694.524	2599.56
694.713	2683.52
694.902	2599.56
695.092	2695.81
695.281	2697.86
695.47	2540.16
695.659	2546.31
695.848	2517.64
696.037	2552.45
696.226	2663.04
696.415	2552.45
696.604	2656.9
696.793	2488.96
696.982	2577.03
697.171	2638.47
697.36	2566.79
697.549	2486.92
697.738	2609.79
697.927	2577.03
698.116	2671.23
698.305	2595.46
698.494	2519.68
698.683	2523.78
698.872	2484.87
699.061	2597.51
699.25	2599.56
699.438	2515.59
699.627	2587.27
699.816	2517.64
700.005	2443.91
700.193	2484.87
700.382	2497.16
700.571	2529.92
700.76	2478.72
700.948	2466.44
701.137	2421.38
701.326	2445.96
701.514	2525.83
701.703	2478.72
701.892	2339.46
702.08	2450.05
702.269	2312.84
702.457	2495.11
702.646	2409.09
702.834	2370.18
703.023	2394.76
703.212	2415.24
703.4	2400.9
703.589	2308.74
703.777	2382.47
703.965	2390.66
704.154	2423.43
704.342	2331.27
704.531	2302.6
704.719	2288.26
704.907	2427.53
705.096	2292.36
705.284	2257.54
705.472	2267.78
705.661	2286.22
705.849	2269.83
706.037	2396.81
706.226	2314.89
706.414	2263.69
706.602	2290.31
706.79	2232.97
706.979	2247.3
707.167	2208.39
707.355	2157.19
707.543	2230.92
707.731	2187.91
707.919	2114.19
708.107	2218.63
708.296	2142.86
708.484	2216.58
708.672	2116.23
708.86	2030.22
709.048	2155.15
709.236	2110.09
709.424	2157.19
709.612	2192.01
709.8	2101.9
709.988	2042.51
710.176	2171.53
710.364	2136.71
710.551	2169.48
710.739	2077.32
710.927	2036.36
711.115	2058.89
711.303	2110.09
711.491	2058.89
711.679	1940.11
711.866	2001.55
712.054	2017.93
712.242	1948.3
712.43	2099.85
712.617	1962.64
712.805	1929.87
712.993	1974.92
713.181	1870.48
713.368	1921.68
713.556	2034.32
713.744	2019.98
713.931	1888.91
714.119	1979.02
714.306	1940.11
714.494	1870.48
714.682	1987.21
714.869	1872.53
715.057	1936.01
715.244	1964.68
715.432	1936.01
715.619	1841.81
715.807	1747.6
715.994	1833.61
716.182	1874.57
716.369	1956.49
716.556	1850
716.744	1864.33
716.931	1804.94
717.119	1866.38
717.306	1880.72
717.493	1823.37
717.681	1749.65
717.868	1792.66
718.055	1743.5
718.242	1866.38
718.43	1704.59
718.617	1723.02
718.804	1657.49
718.991	1702.54
719.179	1714.83
719.366	1743.5
719.553	1700.5
719.74	1682.07
719.927	1620.63
720.114	1763.98
720.301	1632.91
720.488	1634.96
720.676	1645.2
720.863	1675.92
721.05	1634.96
721.237	1708.69
721.424	1749.65
721.611	1530.52
721.798	1608.34
721.985	1653.39
722.172	1542.8
722.358	1602.19
722.545	1512.08
722.732	1651.35
722.919	1690.26
723.106	1661.59
723.293	1647.25
723.48	1542.8
723.667	1690.26
723.853	1608.34
724.04	1497.75
724.227	1542.8
724.414	1477.27
724.6	1553.04
724.787	1460.88
724.974	1522.32
725.161	1430.16
725.347	1467.03
725.534	1419.93
725.72	1479.32
725.907	1534.61
726.094	1503.89
726.28	1381.01
726.467	1469.08
726.653	1436.31
726.84	1419.93
727.027	1436.31
727.213	1415.83
727.4	1395.35
727.586	1346.2
727.773	1354.39
727.959	1448.6
728.145	1452.69
728.332	1456.79
728.518	1460.88
728.705	1387.16
728.891	1348.25
729.077	1469.08
729.264	1364.63
729.45	1411.73
729.636	1421.97
729.823	1338.01
730.009	1399.45
730.195	1372.82
730.382	1374.87
730.568	1321.62
730.754	1342.1
730.94	1424.02
731.126	1387.16
731.313	1338.01
731.499	1360.53
731.685	1331.86
731.871	1340.05
732.057	1223.32
732.243	1278.62
732.429	1348.25
732.615	1227.42
732.801	1266.33
732.987	1299.09
733.173	1264.28
733.359	1245.85
733.545	1258.14
733.731	1137.31
733.917	1278.62
734.103	1229.46
734.289	1227.42
734.475	1311.38
734.661	1331.86
734.847	1223.32
735.033	1190.55
735.219	1274.52
735.404	1125.02
735.59	1184.41
735.776	1172.12
735.962	1176.22
736.148	1182.36
736.333	1200.79
736.519	1174.17
736.705	1155.74
736.89	1116.83
737.076	1174.17
737.262	1125.02
737.447	1127.07
737.633	1196.7
737.819	1176.22
738.004	1065.63
738.19	1206.94
738.375	1122.97
738.561	1122.97
738.747	1092.25
738.932	1112.73
739.118	1139.35
739.303	1086.11
739.489	1174.17
739.674	1102.49
739.859	1077.91
740.045	1118.87
740.23	1172.12
740.416	1102.49
740.601	1043.1
740.786	1086.11
740.972	1032.86
741.157	1041.05
741.342	1018.52
741.528	1039
741.713	1028.76
741.898	1100.44
742.084	1133.21
742.269	1098.39
742.454	1036.95
742.639	1010.33
742.824	952.99
743.01	914.08
743.195	1036.95
743.38	979.61
743.565	996
743.75	987.8
743.935	944.8
744.12	1014.43
744.305	991.9
744.49	879.26
744.675	961.18
744.86	936.6
745.045	965.28
745.23	899.74
745.415	936.6
745.6	856.73
745.785	922.27
745.97	985.76
746.155	889.5
746.34	944.8
746.525	840.35
746.71	993.95
746.895	881.31
747.079	854.69
747.264	797.34
747.449	858.78
747.634	889.5
747.819	885.41
748.003	862.88
748.188	897.69
748.373	799.39
748.557	912.03
748.742	774.81
748.927	840.35
749.111	850.59
749.296	805.53
749.481	836.25
749.665	856.73
749.85	817.82
750.034	832.16
750.219	768.67
750.404	766.62
750.588	752.29
750.773	789.15
750.957	744.1
751.141	776.86
751.326	828.06
751.51	742.05
751.695	664.22
751.879	799.39
752.064	752.29
752.248	805.53
752.432	813.73
752.617	801.44
752.801	668.32
752.985	740
753.17	774.81
753.354	727.71
753.538	731.81
753.722	758.43
753.907	721.57
754.091	731.81
754.275	717.47
754.459	715.42
754.643	723.62
754.828	674.46
755.012	750.24
755.196	645.79
755.38	625.31
755.564	674.46
755.748	627.36
755.932	627.36
756.116	688.8
756.3	541.35
756.484	629.41
756.668	580.26
756.852	666.27
757.036	580.26
757.22	545.44
757.404	666.27
757.588	660.13
757.772	608.93
757.956	643.74
758.14	658.08
758.323	576.16
758.507	602.79
758.691	600.74
758.875	627.36
759.059	625.31
759.242	561.83
759.426	610.98
759.61	561.83
759.794	574.11
759.977	574.11
760.161	586.4
760.345	531.11
760.528	535.2
760.712	570.02
760.895	572.07
761.079	576.16
761.263	522.91
761.446	561.83
761.63	553.63
761.813	520.87
761.997	574.11
762.18	496.29
762.364	504.48
762.547	488.1
762.731	647.84
762.914	477.86
763.098	613.03
763.281	477.86
763.464	559.78
763.648	553.63
763.831	484
764.015	498.34
764.198	504.48
764.381	449.19
764.564	488.1
764.748	522.91
764.931	490.15
765.114	524.96
765.297	553.63
765.481	463.52
765.664	504.48
765.847	430.76
766.03	539.3
766.213	475.81
766.397	514.72
766.58	436.9
766.763	449.19
766.946	518.82
767.129	539.3
767.312	436.9
767.495	529.06
767.678	529.06
767.861	477.86
768.044	498.34
768.227	459.43
768.41	475.81
768.593	455.33
768.776	434.85
768.959	420.52
769.142	461.48
769.324	467.62
769.507	461.48
769.69	570.02
769.873	512.67
770.056	500.39
770.239	484
770.421	383.65
770.604	428.71
770.787	420.52
770.97	428.71
771.152	410.28
771.335	438.95
771.518	481.96
771.7	477.86
771.883	457.38
772.066	469.67
772.248	414.37
772.431	496.29
772.613	412.32
772.796	447.14
772.978	428.71
773.161	443.04
773.343	467.62
773.526	361.13
773.708	428.71
773.891	397.99
774.073	465.57
774.256	387.75
774.438	387.75
774.621	379.56
774.803	404.13
774.985	385.7
775.168	477.86
775.35	387.75
775.532	371.37
775.715	428.71
775.897	420.52
776.079	379.56
776.261	324.26
776.444	420.52
776.626	352.93
776.808	418.47
776.99	377.51
777.173	359.08
777.355	424.61
777.537	352.93
777.719	449.19
777.901	406.18
778.083	402.08
778.265	332.45
778.447	406.18
778.629	334.5
778.811	371.37
778.993	277.16
779.175	395.94
779.357	258.73
779.539	332.45
779.721	357.03
779.903	371.37
780.085	373.41
780.267	305.83
780.449	309.93
780.631	340.65
780.812	363.17
780.994	289.45
781.176	359.08
781.358	346.79
781.54	322.21
781.721	273.06
781.903	291.49
782.085	230.06
782.267	275.11
782.448	354.98
782.63	287.4
782.812	387.75
782.993	322.21
783.175	330.41
783.357	264.87
783.538	359.08
783.72	256.68
783.901	299.69
784.083	295.59
784.264	228.01
784.446	213.67
784.627	299.69
784.809	291.49
784.99	307.88
785.172	187.05
785.353	250.53
785.535	281.25
785.716	252.58
785.897	316.07
786.079	279.21
786.26	264.87
786.441	309.93
786.623	170.66
786.804	223.91
786.985	283.3
787.167	187.05
787.348	279.21
787.529	193.19
787.71	158.38
787.891	311.97
788.073	207.53
788.254	268.97
788.435	228.01
788.616	258.73
788.797	207.53
788.978	154.28
789.159	289.45
789.34	174.76
789.522	195.24
789.703	232.1
789.884	205.48
790.065	268.97
790.246	185
790.427	240.3
790.607	137.9
790.788	246.44
790.969	219.82
791.15	187.05
791.331	293.54
791.512	158.38
791.693	193.19
791.874	139.94
792.054	193.19
792.235	158.38
792.416	207.53
792.597	162.47
792.778	240.3
792.958	260.77
793.139	170.66
793.32	211.62
793.5	193.19
793.681	150.18
793.862	174.76
794.042	158.38
794.223	191.14
794.404	211.62
794.584	178.86
794.765	125.61
794.945	182.95
795.126	131.75
795.306	195.24
795.487	215.72
795.667	219.82
795.848	172.71
796.028	166.57
796.209	70.31
796.389	141.99
796.57	219.82
796.75	125.61
796.93	152.23
797.111	246.44
797.291	172.71
797.471	230.06
797.652	230.06
797.832	107.18
798.012	141.99
798.192	133.8
798.373	174.76
798.553	131.75
798.733	162.47
798.913	103.08
799.093	168.62
799.274	193.19
799.454	185
799.634	211.62
799.814	150.18
799.994	68.27
800.174	182.95
800.354	76.46
800.534	148.14
800.714	123.56
800.894	244.39
801.074	105.13
801.254	146.09
801.434	176.81
801.614	141.99
801.794	166.57
801.974	354.98
802.154	158.38
802.334	94.89
802.514	152.23
802.693	146.09
802.873	164.52
803.053	166.57
803.233	127.66
803.413	92.84
803.592	113.32
803.772	121.51
803.952	84.65
804.131	176.81
804.311	141.99
804.491	158.38
804.67	150.18
804.85	166.57
805.03	144.04
805.209	133.8
805.389	133.8
805.568	182.95
805.748	92.84
805.928	137.9
806.107	43.69
806.287	121.51
806.466	76.46
806.646	127.66
806.825	35.5
807.004	123.56
807.184	53.93
807.363	158.38
807.543	41.64
807.722	49.83
807.901	137.9
808.081	115.37
808.26	121.51
808.439	80.55
808.619	105.13
808.798	174.76
808.977	101.03
809.156	115.37
809.336	53.93
809.515	76.46
809.694	88.75
809.873	76.46
810.052	62.12
810.231	68.27
810.411	70.31
810.59	127.66
810.769	109.23
810.948	43.69
811.127	121.51
811.306	141.99
811.485	158.38
811.664	117.42
811.843	94.89
812.022	135.85
812.201	58.03
812.38	96.94
812.559	39.59
812.737	127.66
812.916	135.85
813.095	53.93
813.274	133.8
813.453	66.22
813.632	86.7
813.811	207.53
813.989	76.46
814.168	103.08
814.347	146.09
814.526	94.89
814.704	137.9
814.883	62.12
815.062	45.74
815.24	109.23
815.419	92.84
815.598	107.18
815.776	113.32
815.955	70.31
816.133	55.98
816.312	121.51
816.49	86.7
816.669	107.18
816.847	109.23
817.026	68.27
817.204	82.6
817.383	109.23
817.561	62.12
817.74	133.8
817.918	70.31
818.097	117.42
818.275	60.07
818.453	117.42
818.632	58.03
818.81	76.46
818.988	43.69
819.167	47.79
819.345	90.79
819.523	111.27
819.701	31.4
819.879	74.41
820.058	62.12
820.236	76.46
820.414	53.93
820.592	139.94
820.77	49.83
820.948	-5.46
821.127	60.07
821.305	78.51
821.483	45.74
821.661	144.04
821.839	135.85
822.017	39.59
822.195	101.03
822.373	129.7
822.551	88.75
822.729	90.79
822.907	101.03
823.085	94.89
823.262	101.03
823.44	82.6
823.618	60.07
823.796	-21.85
823.974	45.74
824.152	37.55
824.329	92.84
824.507	101.03
824.685	15.02
824.863	72.36
825.04	62.12
825.218	45.74
825.396	41.64
825.574	51.88
825.751	21.16
825.929	43.69
826.107	72.36
826.284	51.88
826.462	41.64
826.639	96.94
826.817	37.55
826.994	72.36
827.172	101.03
827.349	51.88
827.527	66.22
827.704	76.46
827.882	74.41
828.059	53.93
828.237	76.46
828.414	125.61
828.591	-23.89
828.769	29.35
828.946	37.55
829.124	92.84
829.301	27.31
829.478	6.83
829.655	-46.42
829.833	33.45
830.01	-58.71
830.187	62.12
830.364	15.02
830.542	103.08
830.719	21.16
830.896	62.12
831.073	107.18
831.25	62.12
831.427	72.36
831.604	49.83
831.782	49.83
831.959	115.37
832.136	49.83
832.313	0.68
832.49	37.55
832.667	72.36
832.844	37.55
833.021	62.12
833.198	64.17
833.374	25.26
833.551	72.36
833.728	72.36
833.905	35.5
834.082	58.03
834.259	0.68
834.436	88.75
834.612	2.73
834.789	37.55
834.966	39.59
835.143	-3.41
835.319	60.07
835.496	135.85
835.673	-25.94
835.85	29.35
836.026	60.07
836.203	78.51
836.38	25.26
836.556	-7.51
836.733	84.65
836.909	19.11
837.086	33.45
837.262	78.51
837.439	51.88
837.616	-1.37
837.792	35.5
837.968	45.74
838.145	60.07
838.321	23.21
838.498	70.31
838.674	72.36
838.851	35.5
839.027	84.65
839.203	-25.94
839.38	15.02
839.556	8.87
839.732	31.4
839.909	-19.8
840.085	25.26
840.261	-5.46
840.437	51.88
840.614	37.55
840.79	103.08
840.966	10.92
841.142	31.4
841.318	55.98
841.494	72.36
841.671	2.73
841.847	2.73
842.023	70.31
842.199	68.27
842.375	78.51
842.551	12.97
842.727	21.16
842.903	45.74
843.079	55.98
843.255	15.02
843.431	19.11
843.607	19.11
843.783	60.07
843.959	41.64
844.134	31.4
844.31	15.02
844.486	12.97
844.662	15.02
844.838	86.7
845.013	19.11
845.189	60.07
845.365	21.16
845.541	-19.8
845.716	12.97
845.892	21.16
846.068	-27.99
846.244	10.92
846.419	43.69
846.595	53.93
846.77	45.74
846.946	72.36
847.122	35.5
847.297	6.83
847.473	64.17
847.648	111.27
847.824	88.75
847.999	-25.94
848.175	51.88
848.35	60.07
848.526	33.45
848.701	27.31
848.876	53.93
849.052	39.59
849.227	-25.94
849.403	53.93
849.578	68.27
849.753	-1.37
849.929	-5.46
850.104	-58.71
850.279	29.35
850.454	-13.65
850.63	43.69
850.805	55.98
850.98	60.07
851.155	39.59
851.33	58.03
851.505	25.26
851.681	21.16
851.856	21.16
852.031	8.87
852.206	8.87
852.381	-77.14
852.556	-11.61
852.731	94.89
852.906	-19.8
853.081	60.07
853.256	-1.37
853.431	31.4
853.606	-5.46
853.781	12.97
853.956	55.98
854.131	-1.37
854.305	10.92
854.48	-38.23
854.655	-5.46
854.83	0.68
855.005	43.69
855.18	111.27
855.354	41.64
855.529	60.07
855.704	-54.61
855.879	68.27
856.053	29.35
856.228	109.23
856.403	25.26
856.577	84.65
856.752	-46.42
856.926	109.23
857.101	-38.23
857.276	21.16
857.45	-23.89
857.625	27.31
857.799	55.98
857.974	92.84
858.148	0.68
858.323	39.59
858.497	49.83
858.672	64.17
858.846	-13.65
859.02	15.02
859.195	-66.9
859.369	43.69
859.543	64.17
859.718	-64.85
859.892	19.11
860.066	35.5
860.241	27.31
860.415	12.97
860.589	37.55
860.763	39.59
860.938	-9.56
861.112	2.73
861.286	-25.94
861.46	-3.41
861.634	-19.8
861.808	84.65
861.982	23.21
862.157	66.22
862.331	8.87
862.505	-27.99
862.679	64.17
862.853	12.97
863.027	-34.13
863.201	78.51
863.375	0.68
863.549	21.16
863.722	35.5
863.896	25.26
864.07	74.41
864.244	10.92
864.418	10.92
864.592	39.59
864.766	-9.56
864.939	-1.37
865.113	-21.85
865.287	-5.46
865.461	62.12
865.634	-13.65
865.808	4.78
865.982	23.21
866.156	51.88
866.329	-13.65
866.503	-50.52
866.676	47.79
866.85	43.69
867.024	60.07
867.197	6.83
867.371	76.46
867.544	31.4
867.718	90.79
867.891	10.92
868.065	-50.52
868.238	-11.61
868.412	43.69
868.585	19.11
868.759	-25.94
868.932	-3.41
869.105	8.87
869.279	35.5
869.452	-13.65
869.625	37.55
869.799	53.93
869.972	6.83
870.145	55.98
870.319	76.46
870.492	29.35
870.665	-27.99
870.838	0.68
871.011	-21.85
871.185	41.64
871.358	-30.04
871.531	72.36
871.704	19.11
871.877	-19.8
872.05	35.5
872.223	4.78
872.396	8.87
872.569	47.79
872.742	43.69
872.915	8.87
873.088	53.93
873.261	51.88
873.434	27.31
873.607	21.16
873.78	-1.37
873.953	23.21
874.126	21.16
874.299	21.16
874.471	-44.37
874.644	82.6
874.817	-34.13
874.99	-5.46
875.163	-1.37
875.335	-44.37
875.508	21.16
875.681	-1.37
875.853	41.64
876.026	-56.66
876.199	-62.8
876.371	25.26
876.544	-36.18
876.717	-5.46
876.889	-9.56
877.062	-34.13
877.234	-7.51
877.407	10.92
877.579	41.64
877.752	68.27
877.924	33.45
878.097	-17.75
878.269	2.73
878.442	-3.41
878.614	8.87
878.786	-38.23
878.959	-11.61
879.131	-3.41
879.303	4.78
879.476	-52.56
879.648	49.83
879.82	27.31
879.993	27.31
880.165	-15.7
880.337	-25.94
880.509	51.88
880.681	45.74
880.854	-27.99
881.026	64.17
881.198	101.03
881.37	60.07
881.542	10.92
881.714	-27.99
881.886	-9.56
882.058	62.12
882.23	-9.56
882.402	-44.37
882.574	27.31
882.746	37.55
882.918	-9.56
883.09	51.88
883.262	2.73
883.434	-77.14
883.606	-64.85
883.778	-15.7
883.95	55.98
884.122	-13.65
884.293	-40.28
884.465	-30.04
884.637	109.23
884.809	-46.42
884.98	12.97
885.152	35.5
885.324	12.97
885.496	-21.85
885.667	37.55
885.839	-17.75
886.011	49.83
886.182	4.78
886.354	-15.7
886.525	10.92
886.697	66.22
886.869	-34.13
887.04	6.83
887.212	-34.13
887.383	43.69
887.555	37.55
887.726	27.31
887.897	-9.56
888.069	-3.41
888.24	21.16
888.412	2.73
888.583	-21.85
888.754	2.73
888.926	-9.56
889.097	-3.41
889.268	-40.28
889.44	0.68
889.611	-17.75
889.782	15.02
889.953	74.41
890.125	35.5
890.296	-87.38
890.467	43.69
890.638	-52.56
890.809	12.97
890.98	-38.23
891.151	29.35
891.323	51.88
891.494	33.45
891.665	66.22
891.836	-5.46
892.007	10.92
892.178	146.09
892.349	8.87
892.52	82.6
892.691	-60.76
892.862	27.31
893.032	21.16
893.203	47.79
893.374	-60.76
893.545	4.78
893.716	35.5
893.887	-38.23
894.057	-27.99
894.228	-5.46
894.399	31.4
894.57	35.5
894.74	-1.37
894.911	35.5
895.082	4.78
895.253	2.73
895.423	78.51
895.594	-27.99
895.764	29.35
895.935	6.83
896.106	-5.46
896.276	17.07
896.447	43.69
896.617	49.83
896.788	-54.61
896.958	31.4
897.129	-15.7
897.299	-38.23
897.47	-23.89
897.64	12.97
897.81	-44.37
897.981	66.22
898.151	-38.23
898.322	-11.61
898.492	4.78
898.662	-62.8
898.832	-34.13
899.003	45.74
899.173	-17.75
899.343	-44.37
899.513	72.36
