Data from USB4F104151__56__13-53-34-636.txt Node

Date: Thu Mar 13 13:53:34 EDT 2025
User: louis
Spectrometer: USB4F10415
Trigger mode: 4
Integration Time (sec): 1.000000E-2
Scans to average: 1
Electric dark correction enabled: true
Nonlinearity correction enabled: false
Boxcar width: 0
XAxis mode: Wavelengths
Number of Pixels in Spectrum: 3648
>>>>>Begin Spectral Data<<<<<
178.204	0
178.424	0
178.644	0
178.864	-26.62
179.084	-59.39
179.304	-28.67
179.524	6.14
179.744	-32.77
179.964	24.58
180.184	-47.1
180.404	71.68
180.624	-6.14
180.844	6.14
181.064	-40.96
181.283	43.01
181.503	0
181.723	4.1
181.943	32.77
182.163	28.67
182.383	-28.67
182.602	26.62
182.822	18.43
183.042	12.29
183.262	53.25
183.482	49.15
183.701	22.53
183.921	16.38
184.141	45.06
184.361	-24.58
184.58	14.34
184.8	88.06
185.02	45.06
185.239	2.05
185.459	-47.1
185.679	45.06
185.898	20.48
186.118	2.05
186.338	38.91
186.557	-24.58
186.777	28.67
186.997	28.67
187.216	49.15
187.436	77.82
187.655	59.39
187.875	8.19
188.095	77.82
188.314	59.39
188.534	47.1
188.753	-47.1
188.973	18.43
189.192	90.11
189.412	14.34
189.631	77.82
189.851	-16.38
190.07	34.82
190.29	18.43
190.509	4.1
190.729	32.77
190.948	34.82
191.168	34.82
191.387	75.77
191.607	-16.38
191.826	14.34
192.045	24.58
192.265	71.68
192.484	-2.05
192.704	22.53
192.923	18.43
193.142	100.35
193.362	53.25
193.581	18.43
193.8	90.11
194.02	30.72
194.239	-38.91
194.458	67.58
194.678	32.77
194.897	129.02
195.116	26.62
195.335	47.1
195.555	24.58
195.774	22.53
195.993	94.21
196.212	4.1
196.432	14.34
196.651	71.68
196.87	71.68
197.089	12.29
197.308	28.67
197.528	79.87
197.747	51.2
197.966	112.64
198.185	26.62
198.404	0
198.623	77.82
198.842	6.14
199.062	178.17
199.281	55.3
199.5	86.01
199.719	53.25
199.938	38.91
200.157	30.72
200.376	0
200.595	55.3
200.814	43.01
201.033	20.48
201.252	73.73
201.471	30.72
201.69	69.63
201.909	-14.34
202.128	61.44
202.347	34.82
202.566	92.16
202.785	14.34
203.004	2.05
203.223	59.39
203.442	-30.72
203.661	45.06
203.879	94.21
204.098	47.1
204.317	36.86
204.536	12.29
204.755	43.01
204.974	75.77
205.193	55.3
205.411	106.49
205.63	-2.05
205.849	81.92
206.068	-20.48
206.287	32.77
206.505	-65.53
206.724	24.58
206.943	16.38
207.162	4.1
207.381	116.73
207.599	57.34
207.818	55.3
208.037	83.97
208.255	-28.67
208.474	-18.43
208.693	55.3
208.911	57.34
209.13	36.86
209.349	6.14
209.567	10.24
209.786	122.88
210.005	14.34
210.223	2.05
210.442	-10.24
210.661	36.86
210.879	65.54
211.098	83.97
211.316	36.86
211.535	63.49
211.753	71.68
211.972	-12.29
212.191	59.39
212.409	-30.72
212.628	-2.05
212.846	-26.62
213.065	20.48
213.283	71.68
213.502	28.67
213.72	53.25
213.938	4.1
214.157	-6.14
214.375	83.97
214.594	57.34
214.812	49.15
215.031	81.92
215.249	4.1
215.467	71.68
215.686	-12.29
215.904	12.29
216.122	45.06
216.341	34.82
216.559	51.2
216.778	16.38
216.996	40.96
217.214	47.1
217.432	-47.1
217.651	12.29
217.869	0
218.087	-16.38
218.306	18.43
218.524	32.77
218.742	-30.72
218.96	45.06
219.179	12.29
219.397	55.3
219.615	2.05
219.833	-40.96
220.051	55.3
220.27	38.91
220.488	73.73
220.706	63.49
220.924	-40.96
221.142	-8.19
221.36	73.73
221.578	55.3
221.796	67.58
222.015	22.53
222.233	-10.24
222.451	65.54
222.669	96.25
222.887	69.63
223.105	38.91
223.323	20.48
223.541	-10.24
223.759	26.62
223.977	55.3
224.195	53.25
224.413	55.3
224.631	43.01
224.849	-26.62
225.067	71.68
225.285	51.2
225.503	32.77
225.721	0
225.939	24.58
226.157	59.39
226.375	90.11
226.592	47.1
226.81	63.49
227.028	30.72
227.246	83.97
227.464	53.25
227.682	6.14
227.9	16.38
228.117	67.58
228.335	96.25
228.553	12.29
228.771	61.44
228.989	47.1
229.206	45.06
229.424	-2.05
229.642	16.38
229.86	6.14
230.077	137.21
230.295	36.86
230.513	63.49
230.731	32.77
230.948	47.1
231.166	49.15
231.384	30.72
231.601	65.54
231.819	22.53
232.037	81.92
232.254	24.58
232.472	79.87
232.689	38.91
232.907	-8.19
233.125	2.05
233.342	59.39
233.56	61.44
233.777	32.77
233.995	18.43
234.213	49.15
234.43	34.82
234.648	32.77
234.865	-32.77
235.083	32.77
235.3	-2.05
235.518	88.06
235.735	59.39
235.953	-24.58
236.17	59.39
236.388	40.96
236.605	-10.24
236.822	-28.67
237.04	30.72
237.257	40.96
237.475	18.43
237.692	59.39
237.909	51.2
238.127	18.43
238.344	77.82
238.562	-12.29
238.779	0
238.996	47.1
239.214	-2.05
239.431	108.54
239.648	8.19
239.865	55.3
240.083	24.58
240.3	-12.29
240.517	-8.19
240.735	47.1
240.952	83.97
241.169	122.88
241.386	26.62
241.603	30.72
241.821	53.25
242.038	18.43
242.255	32.77
242.472	51.2
242.689	-6.14
242.907	71.68
243.124	63.49
243.341	69.63
243.558	49.15
243.775	81.92
243.992	22.53
244.209	-28.67
244.426	59.39
244.643	22.53
244.86	75.77
245.078	-10.24
245.295	57.34
245.512	22.53
245.729	71.68
245.946	6.14
246.163	51.2
246.38	59.39
246.597	38.91
246.814	4.1
247.031	81.92
247.248	51.2
247.464	40.96
247.681	86.01
247.898	49.15
248.115	65.54
248.332	18.43
248.549	57.34
248.766	38.91
248.983	73.73
249.2	83.97
249.417	18.43
249.633	67.58
249.85	38.91
250.067	10.24
250.284	38.91
250.501	83.97
250.717	49.15
250.934	24.58
251.151	88.06
251.368	47.1
251.585	-10.24
251.801	63.49
252.018	59.39
252.235	69.63
252.451	32.77
252.668	92.16
252.885	67.58
253.102	83.97
253.318	51.2
253.535	61.44
253.752	73.73
253.968	6.14
254.185	0
254.401	26.62
254.618	116.73
254.835	61.44
255.051	-49.15
255.268	-10.24
255.484	139.26
255.701	49.15
255.917	18.43
256.134	40.96
256.351	22.53
256.567	112.64
256.784	-4.1
257	22.53
257.217	24.58
257.433	-6.14
257.65	28.67
257.866	75.77
258.082	43.01
258.299	61.44
258.515	57.34
258.732	14.34
258.948	73.73
259.165	69.63
259.381	30.72
259.597	18.43
259.814	36.86
260.03	-2.05
260.246	49.15
260.463	43.01
260.679	-12.29
260.895	-12.29
261.112	79.87
261.328	61.44
261.544	49.15
261.761	65.54
261.977	-18.43
262.193	40.96
262.409	69.63
262.626	2.05
262.842	67.58
263.058	67.58
263.274	73.73
263.49	120.83
263.707	40.96
263.923	45.06
264.139	24.58
264.355	98.3
264.571	83.97
264.787	47.1
265.004	104.45
265.22	6.14
265.436	10.24
265.652	14.34
265.868	-22.53
266.084	65.54
266.3	4.1
266.516	30.72
266.732	-69.63
266.948	34.82
267.164	43.01
267.38	83.97
267.596	104.45
267.812	110.59
268.028	14.34
268.244	75.77
268.46	75.77
268.676	12.29
268.892	30.72
269.108	6.14
269.324	38.91
269.54	-4.1
269.756	75.77
269.972	14.34
270.188	75.77
270.403	34.82
270.619	59.39
270.835	53.25
271.051	36.86
271.267	77.82
271.483	114.69
271.698	34.82
271.914	71.68
272.13	129.02
272.346	14.34
272.562	53.25
272.777	18.43
272.993	22.53
273.209	20.48
273.425	-2.05
273.64	40.96
273.856	49.15
274.072	32.77
274.287	59.39
274.503	28.67
274.719	-34.82
274.934	10.24
275.15	43.01
275.366	40.96
275.581	32.77
275.797	16.38
276.012	-6.14
276.228	20.48
276.444	-4.1
276.659	88.06
276.875	59.39
277.09	28.67
277.306	24.58
277.521	67.58
277.737	22.53
277.952	30.72
278.168	34.82
278.383	67.58
278.599	16.38
278.814	8.19
279.03	22.53
279.245	-14.34
279.461	40.96
279.676	30.72
279.892	-40.96
280.107	110.59
280.322	73.73
280.538	38.91
280.753	86.01
280.969	36.86
281.184	45.06
281.399	53.25
281.615	0
281.83	-12.29
282.045	16.38
282.26	88.06
282.476	-34.82
282.691	45.06
282.906	26.62
283.122	51.2
283.337	-18.43
283.552	-43.01
283.767	59.39
283.983	10.24
284.198	24.58
284.413	38.91
284.628	6.14
284.843	-6.14
285.058	43.01
285.274	57.34
285.489	61.44
285.704	30.72
285.919	69.63
286.134	28.67
286.349	88.06
286.564	-16.38
286.779	73.73
286.995	90.11
287.21	57.34
287.425	43.01
287.64	120.83
287.855	55.3
288.07	22.53
288.285	88.06
288.5	24.58
288.715	47.1
288.93	10.24
289.145	47.1
289.36	28.67
289.575	45.06
289.79	116.73
290.004	51.2
290.219	53.25
290.434	-10.24
290.649	36.86
290.864	10.24
291.079	69.63
291.294	86.01
291.509	49.15
291.724	6.14
291.938	112.64
292.153	69.63
292.368	100.35
292.583	14.34
292.798	18.43
293.012	36.86
293.227	-51.2
293.442	10.24
293.657	65.54
293.871	75.77
294.086	34.82
294.301	104.45
294.516	-12.29
294.73	-40.96
294.945	53.25
295.16	69.63
295.374	77.82
295.589	55.3
295.804	51.2
296.018	-24.58
296.233	71.68
296.447	20.48
296.662	-4.1
296.877	75.77
297.091	22.53
297.306	36.86
297.52	14.34
297.735	88.06
297.949	36.86
298.164	6.14
298.378	26.62
298.593	55.3
298.807	-2.05
299.022	24.58
299.236	120.83
299.451	-18.43
299.665	43.01
299.88	53.25
300.094	40.96
300.309	40.96
300.523	-14.34
300.737	67.58
300.952	-4.1
301.166	59.39
301.381	8.19
301.595	63.49
301.809	67.58
302.024	26.62
302.238	102.4
302.452	14.34
302.667	-16.38
302.881	61.44
303.095	6.14
303.309	32.77
303.524	43.01
303.738	63.49
303.952	32.77
304.166	14.34
304.381	28.67
304.595	59.39
304.809	55.3
305.023	53.25
305.237	36.86
305.452	81.92
305.666	40.96
305.88	36.86
306.094	-55.3
306.308	36.86
306.522	8.19
306.736	10.24
306.95	88.06
307.164	32.77
307.379	-6.14
307.593	47.1
307.807	100.35
308.021	-12.29
308.235	43.01
308.449	18.43
308.663	10.24
308.877	0
309.091	49.15
309.305	100.35
309.519	34.82
309.733	32.77
309.947	8.19
310.161	34.82
310.374	59.39
310.588	94.21
310.802	-10.24
311.016	120.83
311.23	20.48
311.444	20.48
311.658	94.21
311.872	32.77
312.085	65.54
312.299	79.87
312.513	65.54
312.727	59.39
312.941	24.58
313.154	75.77
313.368	0
313.582	38.91
313.796	-4.1
314.009	36.86
314.223	8.19
314.437	38.91
314.651	2.05
314.864	61.44
315.078	0
315.292	51.2
315.505	73.73
315.719	67.58
315.933	-36.86
316.146	22.53
316.36	83.97
316.573	40.96
316.787	-30.72
317.001	92.16
317.214	14.34
317.428	59.39
317.641	-2.05
317.855	-36.86
318.068	32.77
318.282	43.01
318.495	71.68
318.709	20.48
318.922	69.63
319.136	8.19
319.349	47.1
319.563	-30.72
319.776	90.11
319.99	96.25
320.203	36.86
320.417	59.39
320.63	49.15
320.843	22.53
321.057	8.19
321.27	61.44
321.483	24.58
321.697	49.15
321.91	28.67
322.124	100.35
322.337	51.2
322.55	47.1
322.763	0
322.977	81.92
323.19	81.92
323.403	-4.1
323.617	61.44
323.83	22.53
324.043	67.58
324.256	137.21
324.469	116.73
324.683	141.31
324.896	49.15
325.109	55.3
325.322	57.34
325.535	30.72
325.748	71.68
325.962	63.49
326.175	38.91
326.388	114.69
326.601	-6.14
326.814	83.97
327.027	83.97
327.24	0
327.453	12.29
327.666	2.05
327.879	36.86
328.092	63.49
328.305	18.43
328.518	18.43
328.731	-6.14
328.944	96.25
329.157	26.62
329.37	-30.72
329.583	-16.38
329.796	57.34
330.009	61.44
330.222	71.68
330.435	63.49
330.648	36.86
330.861	22.53
331.073	90.11
331.286	-24.58
331.499	36.86
331.712	47.1
331.925	36.86
332.138	141.31
332.35	16.38
332.563	69.63
332.776	43.01
332.989	16.38
333.202	30.72
333.414	-8.19
333.627	47.1
333.84	77.82
334.053	-16.38
334.265	-10.24
334.478	71.68
334.691	61.44
334.903	30.72
335.116	20.48
335.329	49.15
335.541	26.62
335.754	147.45
335.966	45.06
336.179	73.73
336.392	2.05
336.604	100.35
336.817	36.86
337.029	108.54
337.242	-24.58
337.454	53.25
337.667	-22.53
337.88	32.77
338.092	53.25
338.305	-10.24
338.517	-14.34
338.729	86.01
338.942	30.72
339.154	0
339.367	18.43
339.579	28.67
339.792	6.14
340.004	30.72
340.217	-12.29
340.429	88.06
340.641	-10.24
340.854	53.25
341.066	57.34
341.278	122.88
341.491	49.15
341.703	73.73
341.915	14.34
342.128	98.3
342.34	88.06
342.552	45.06
342.764	79.87
342.977	102.4
343.189	65.54
343.401	61.44
343.613	10.24
343.826	45.06
344.038	67.58
344.25	86.01
344.462	36.86
344.674	51.2
344.886	65.54
345.099	43.01
345.311	79.87
345.523	-14.34
345.735	-57.34
345.947	67.58
346.159	98.3
346.371	32.77
346.583	47.1
346.795	77.82
347.007	63.49
347.219	12.29
347.431	40.96
347.643	98.3
347.855	55.3
348.067	49.15
348.279	61.44
348.491	-4.1
348.703	81.92
348.915	40.96
349.127	18.43
349.339	30.72
349.551	51.2
349.763	0
349.975	32.77
350.187	65.54
350.399	-73.73
350.61	40.96
350.822	131.07
351.034	28.67
351.246	12.29
351.458	86.01
351.669	6.14
351.881	43.01
352.093	67.58
352.305	18.43
352.517	77.82
352.728	28.67
352.94	114.69
353.152	28.67
353.363	77.82
353.575	57.34
353.787	73.73
353.999	6.14
354.21	55.3
354.422	55.3
354.633	-24.58
354.845	24.58
355.057	96.25
355.268	71.68
355.48	43.01
355.692	43.01
355.903	0
356.115	57.34
356.326	120.83
356.538	61.44
356.749	10.24
356.961	83.97
357.172	49.15
357.384	40.96
357.595	81.92
357.807	-14.34
358.018	67.58
358.23	8.19
358.441	77.82
358.653	32.77
358.864	24.58
359.075	-6.14
359.287	77.82
359.498	-10.24
359.709	-20.48
359.921	94.21
360.132	43.01
360.344	55.3
360.555	26.62
360.766	92.16
360.977	65.54
361.189	34.82
361.4	88.06
361.611	26.62
361.823	22.53
362.034	81.92
362.245	24.58
362.456	26.62
362.667	26.62
362.879	12.29
363.09	32.77
363.301	61.44
363.512	-8.19
363.723	30.72
363.935	28.67
364.146	2.05
364.357	-4.1
364.568	90.11
364.779	-47.1
364.99	145.41
365.201	30.72
365.412	28.67
365.623	22.53
365.834	63.49
366.045	67.58
366.256	36.86
366.467	32.77
366.678	20.48
366.889	55.3
367.1	22.53
367.311	14.34
367.522	26.62
367.733	38.91
367.944	116.73
368.155	63.49
368.366	43.01
368.577	71.68
368.788	49.15
368.999	55.3
369.209	81.92
369.42	53.25
369.631	45.06
369.842	126.97
370.053	67.58
370.264	67.58
370.474	38.91
370.685	36.86
370.896	108.54
371.107	106.49
371.317	110.59
371.528	34.82
371.739	8.19
371.95	36.86
372.16	47.1
372.371	61.44
372.582	61.44
372.792	79.87
373.003	73.73
373.214	94.21
373.424	49.15
373.635	40.96
373.846	63.49
374.056	63.49
374.267	104.45
374.477	26.62
374.688	96.25
374.898	61.44
375.109	122.88
375.319	12.29
375.53	81.92
375.74	141.31
375.951	36.86
376.161	12.29
376.372	55.3
376.582	116.73
376.793	26.62
377.003	106.49
377.214	75.77
377.424	112.64
377.635	92.16
377.845	-20.48
378.055	53.25
378.266	43.01
378.476	28.67
378.686	24.58
378.897	112.64
379.107	-2.05
379.317	38.91
379.528	8.19
379.738	137.21
379.948	16.38
380.158	47.1
380.369	22.53
380.579	114.69
380.789	34.82
380.999	36.86
381.21	73.73
381.42	32.77
381.63	34.82
381.84	36.86
382.05	22.53
382.261	61.44
382.471	57.34
382.681	22.53
382.891	32.77
383.101	-16.38
383.311	53.25
383.521	28.67
383.731	18.43
383.941	67.58
384.151	57.34
384.361	88.06
384.571	65.54
384.781	104.45
384.991	57.34
385.201	36.86
385.411	-2.05
385.621	6.14
385.831	53.25
386.041	-16.38
386.251	102.4
386.461	114.69
386.671	83.97
386.881	49.15
387.091	63.49
387.301	55.3
387.511	4.1
387.72	26.62
387.93	63.49
388.14	90.11
388.35	67.58
388.56	83.97
388.769	92.16
388.979	53.25
389.189	32.77
389.399	6.14
389.609	61.44
389.818	104.45
390.028	94.21
390.238	69.63
390.447	18.43
390.657	139.26
390.867	16.38
391.076	77.82
391.286	63.49
391.496	38.91
391.705	45.06
391.915	118.78
392.125	79.87
392.334	110.59
392.544	24.58
392.753	73.73
392.963	-18.43
393.172	69.63
393.382	67.58
393.591	51.2
393.801	12.29
394.01	106.49
394.22	88.06
394.429	102.4
394.639	86.01
394.848	8.19
395.058	77.82
395.267	90.11
395.477	86.01
395.686	100.35
395.895	92.16
396.105	47.1
396.314	104.45
396.524	32.77
396.733	98.3
396.942	208.89
397.152	71.68
397.361	149.5
397.57	106.49
397.78	182.27
397.989	120.83
398.198	53.25
398.407	65.54
398.617	57.34
398.826	77.82
399.035	147.45
399.244	73.73
399.453	45.06
399.663	96.25
399.872	129.02
400.081	90.11
400.29	135.17
400.499	81.92
400.708	151.55
400.917	155.65
401.127	98.3
401.336	73.73
401.545	120.83
401.754	69.63
401.963	186.37
402.172	63.49
402.381	114.69
402.59	47.1
402.799	32.77
403.008	79.87
403.217	106.49
403.426	96.25
403.635	32.77
403.844	92.16
404.053	145.41
404.262	112.64
404.471	126.97
404.68	145.41
404.888	22.53
405.097	104.45
405.306	141.31
405.515	88.06
405.724	139.26
405.933	104.45
406.142	129.02
406.35	100.35
406.559	159.74
406.768	172.03
406.977	112.64
407.185	147.45
407.394	145.41
407.603	114.69
407.812	163.84
408.02	225.28
408.229	202.75
408.438	200.7
408.646	155.65
408.855	239.61
409.064	178.17
409.272	233.47
409.481	215.04
409.69	284.67
409.898	200.7
410.107	176.13
410.315	233.47
410.524	245.76
410.733	184.32
410.941	223.23
411.15	278.52
411.358	346.11
411.567	251.9
411.775	350.2
411.984	299
412.192	321.53
412.401	237.56
412.609	307.2
412.818	370.68
413.026	370.68
413.234	413.69
413.443	354.3
413.651	344.06
413.86	348.15
414.068	462.84
414.276	401.4
414.485	378.87
414.693	397.31
414.901	495.61
415.11	452.6
415.318	438.27
415.526	520.18
415.734	493.56
415.943	587.77
416.151	462.84
416.359	567.29
416.567	610.29
416.776	620.53
416.984	673.78
417.192	665.59
417.4	598.01
417.608	692.21
417.817	745.46
418.025	737.27
418.233	739.32
418.441	786.42
418.649	813.04
418.857	776.18
419.065	849.91
419.273	821.24
419.481	882.67
419.689	962.55
419.897	1026.03
420.105	993.26
420.313	1030.13
420.521	1091.57
420.729	1110
420.937	1103.86
421.145	1257.45
421.353	1183.73
421.561	1308.65
421.769	1202.16
421.977	1279.98
422.185	1345.52
422.393	1480.68
422.601	1476.59
422.809	1439.72
423.017	1503.21
423.224	1689.57
423.432	1679.33
423.64	1699.81
423.848	1759.21
424.056	1726.44
424.263	2015.2
424.471	1748.97
424.679	1947.62
424.887	2021.35
425.094	2090.98
425.302	2113.5
425.51	2209.76
425.718	2215.9
425.925	2275.29
426.133	2295.77
426.341	2408.41
426.548	2539.48
426.756	2574.3
426.964	2631.64
427.171	2746.33
427.379	2879.44
427.586	2973.65
427.794	3020.75
428.001	3033.04
428.209	3166.16
428.417	3198.93
428.624	3385.29
428.832	3436.49
429.039	3446.73
429.247	3260.37
429.454	3712.97
429.662	3893.19
429.869	3833.8
430.076	4118.47
430.284	3786.69
430.491	3872.71
430.699	4231.1
430.906	4227.01
431.114	4140.99
431.321	4589.5
431.528	4405.18
431.736	4847.54
431.943	5009.33
432.15	4894.65
432.358	4841.4
432.565	5205.94
432.772	5148.59
432.979	5246.9
433.187	5388.21
433.394	5574.57
433.601	6115.23
433.808	6041.51
434.016	5937.06
434.223	6160.29
434.43	6543.26
434.637	6563.74
434.844	6883.22
435.052	6967.19
435.259	6809.5
435.466	6856.6
435.673	6795.16
435.88	7384.98
436.087	7823.24
436.294	7698.31
436.501	7608.2
436.708	7763.85
436.915	7987.08
437.122	8187.78
437.329	8423.3
437.537	8515.45
437.743	8523.65
437.95	8693.63
438.157	9035.64
438.364	9523.05
438.571	9422.7
438.778	9363.31
438.985	10211.17
439.192	9992.04
439.399	10190.69
439.606	9926.5
439.813	10403.68
440.02	11345.75
440.227	10993.5
440.433	10784.6
440.64	11251.54
440.847	11245.4
441.054	11540.3
441.261	12300.1
441.467	11972.43
441.674	12230.47
441.881	12799.8
442.088	12654.4
442.294	12494.66
442.501	12859.2
442.708	13156.15
442.914	13707.05
443.121	14190.38
443.328	13840.17
443.534	14692.13
443.741	14462.76
443.948	14212.9
444.154	15636.24
444.361	15114.01
444.568	15456.02
444.774	15552.27
444.981	15609.62
445.187	15894.29
445.394	16776.96
445.6	16541.44
445.807	17913.58
446.013	17073.92
446.22	17544.95
446.426	18314.98
446.633	18411.24
446.839	19033.82
447.046	18290.41
447.252	19160.8
447.459	19453.66
447.665	18956
447.871	20059.85
448.078	20735.68
448.284	19523.29
448.491	20358.86
448.697	20889.28
448.903	21477.05
449.11	21569.21
449.316	21268.16
449.522	21495.48
449.728	22109.87
449.935	22177.45
450.141	22554.28
450.347	22728.36
450.553	22193.84
450.76	22404.78
450.966	23158.43
451.172	22851.24
451.378	23369.37
451.584	22705.83
451.791	23547.54
451.997	23330.46
452.203	23721.62
452.409	23785.11
452.615	23537.3
452.821	22574.76
453.027	22490.79
453.233	23746.2
453.44	22759.08
453.646	23152.29
453.852	23383.71
454.058	23379.61
454.264	22716.07
454.47	23219.87
454.676	22320.81
454.882	23297.69
455.088	21376.7
455.294	21575.35
455.5	21708.47
455.705	22021.81
455.911	20913.86
456.117	20895.43
456.323	20614.85
456.529	19402.46
456.735	20055.76
456.941	19799.76
457.147	19480.28
457.352	18984.67
457.558	18667.24
457.764	18437.86
457.97	18357.99
458.176	18038.51
458.381	17692.4
458.587	16783.1
458.793	17137.4
458.999	16172.81
459.204	17286.9
459.41	16715.52
459.616	15589.14
459.821	15662.86
460.027	15552.27
460.233	15130.39
460.438	14323.49
460.644	14622.5
460.85	13961
461.055	13831.98
461.261	13532.98
461.466	12728.13
461.672	12496.71
461.878	13279.03
462.083	12408.64
462.289	12486.47
462.494	12248.9
462.7	11538.26
462.905	11251.54
463.111	11816.78
463.316	11480.91
463.522	11366.23
463.727	11489.1
463.932	11319.12
464.138	11339.6
464.343	11360.08
464.549	10747.74
464.754	11372.37
464.959	11048.79
465.165	11372.37
465.37	10563.42
465.575	10487.65
465.781	11024.22
465.986	10803.04
466.191	10729.31
466.397	10444.64
466.602	9731.95
466.807	10280.8
467.012	10340.19
467.218	10170.21
467.423	10065.77
467.628	10002.28
467.833	10354.53
468.038	10123.11
468.244	9973.61
468.449	10233.7
468.654	9918.31
468.859	9854.83
469.064	9744.24
469.269	9543.53
469.474	9432.94
469.679	9672.56
469.885	9416.56
470.09	9430.9
470.295	9457.52
470.5	9267.06
470.705	9265.01
470.91	8871.8
471.115	9115.51
471.32	9031.54
471.525	9068.41
471.73	8886.14
471.935	8683.39
472.139	8316.8
472.344	8769.4
472.549	8568.7
472.754	8558.46
472.959	8247.17
473.164	8081.28
473.369	7839.62
473.574	8224.64
473.778	8109.96
473.983	8122.24
474.188	7999.37
474.393	7804.81
474.598	7698.31
474.802	7786.38
475.007	7614.35
475.212	7675.79
475.417	7333.78
475.621	7389.07
475.826	7397.26
476.031	7350.16
476.235	7016.34
476.44	7255.95
476.645	6965.14
476.849	7059.35
477.054	6881.17
477.259	7016.34
477.463	6920.09
477.668	6619.03
477.872	6668.19
478.077	6737.82
478.282	6543.26
478.486	6578.08
478.691	6389.66
478.895	6432.67
479.1	6256.54
479.304	6326.18
479.509	6203.3
479.713	6420.38
479.918	6313.89
480.122	6121.38
480.326	6279.07
480.531	6356.89
480.735	5988.26
480.94	6102.95
481.144	6397.85
481.348	5951.4
481.553	6141.86
481.757	5916.58
481.961	6016.93
482.166	6072.23
482.37	6008.74
482.574	5746.6
482.778	5932.97
482.983	5935.01
483.187	6158.24
483.391	5951.4
483.595	5916.58
483.8	5691.31
484.004	5844.9
484.208	5990.31
484.412	5736.36
484.616	5947.3
484.821	6076.32
485.025	5744.55
485.229	5953.45
485.433	5881.77
485.637	5769.13
485.841	5910.44
486.045	5875.62
486.249	6021.03
486.453	5758.89
486.657	5885.86
486.861	5896.1
487.065	5795.75
487.269	5865.38
487.473	5625.77
487.677	5912.49
487.881	6094.75
488.085	5842.85
488.289	6000.55
488.493	6035.36
488.697	5943.21
488.901	6107.04
489.105	5951.4
489.309	6043.56
489.512	6004.64
489.716	6090.66
489.92	6047.65
490.124	6078.37
490.328	6039.46
490.531	5986.21
490.735	6195.11
490.939	6115.23
491.143	6057.89
491.346	6145.95
491.55	6068.13
491.754	6131.62
491.958	6225.82
492.161	6242.21
492.365	6137.76
492.569	6248.35
492.772	6477.73
492.976	6401.95
493.18	6356.89
493.383	6494.11
493.587	6557.6
493.79	6543.26
493.994	6283.17
494.197	6578.08
494.401	6707.1
494.605	6666.14
494.808	6764.44
495.012	6791.06
495.215	6827.93
495.419	6918.04
495.622	6819.74
495.825	7143.31
496.029	6971.29
496.232	7174.03
496.436	7153.55
496.639	7294.86
496.843	7030.68
497.046	7384.98
497.249	7362.45
497.453	7356.3
497.656	7579.53
497.859	7563.15
498.063	7528.33
498.266	7759.75
498.469	7909.26
498.673	7888.78
498.876	8071.04
499.079	8308.61
499.282	8087.43
499.485	8417.15
499.689	8349.57
499.892	8441.73
500.095	8621.95
500.298	8750.97
500.501	8738.68
500.705	8927.1
500.908	8908.66
501.111	9193.33
501.314	9414.51
501.517	9369.46
501.72	9463.66
501.923	9428.85
502.126	9645.93
502.329	9998.18
502.532	9834.35
502.735	10145.64
502.938	10280.8
503.141	10116.97
503.344	10534.75
503.547	10288.99
503.75	10633.05
503.953	10792.8
504.156	10831.71
504.359	11009.88
504.562	11069.27
504.765	11376.47
504.968	11472.72
505.17	11808.59
505.373	11611.98
505.576	11704.14
505.779	11878.22
505.982	11970.38
506.185	12390.21
506.387	12441.41
506.59	12513.09
506.793	12695.36
506.996	12681.02
507.198	13145.91
507.401	12916.54
507.604	13131.58
507.807	13485.87
508.009	13506.35
508.212	13645.62
508.415	13948.72
508.617	14251.81
508.82	14321.45
509.022	13942.57
509.225	14530.34
509.428	14866.21
509.63	14710.56
509.833	15064.86
510.035	15374.1
510.238	15304.47
510.44	15533.84
510.643	15742.74
510.845	16023.31
511.048	15859.47
511.25	16084.75
511.453	16437
511.655	16791.3
511.858	16774.91
512.06	16733.95
512.262	17063.68
512.465	17100.54
512.667	17377.01
512.87	17614.58
513.072	17934.06
513.274	18233.07
513.477	18470.63
513.679	18837.22
513.881	18833.12
514.084	19076.83
514.286	19246.81
514.488	19310.3
514.69	20045.52
514.893	19859.15
515.095	19803.86
515.297	20098.77
515.499	20577.99
515.701	20528.84
515.904	21028.54
516.106	21020.35
516.308	21180.09
516.51	21620.41
516.712	21571.25
516.914	21864.11
517.116	22273.71
517.318	22363.82
517.52	22738.6
517.722	22769.32
517.925	23150.24
518.127	23342.75
518.329	23834.26
518.531	23459.48
518.733	24006.29
518.935	24096.4
519.136	24338.06
519.338	24880.77
519.54	24909.44
519.742	25214.59
519.944	25372.28
520.146	25798.26
520.348	26158.7
520.55	25630.33
520.752	26275.44
520.954	26781.29
521.155	26658.41
521.357	27188.83
521.559	26947.17
521.761	27473.5
521.963	27412.06
522.164	27917.91
522.366	28022.36
522.568	28130.9
522.77	28493.39
522.971	29023.81
523.173	28470.86
523.375	28900.94
523.576	28968.52
523.778	29277.76
523.98	29736.51
524.181	29701.69
524.383	30137.91
524.584	30273.07
524.786	30144.05
524.988	30395.95
525.189	30518.83
525.391	31110.69
525.592	31188.52
525.794	31004.2
525.995	31219.24
526.197	31682.08
526.398	31581.73
526.6	31510.05
526.801	31976.98
527.003	31741.47
527.204	32357.91
527.406	32519.7
527.607	32355.86
527.808	32609.81
528.01	32310.8
528.211	32552.46
528.412	33359.36
528.614	32888.33
528.815	33019.4
529.016	33510.91
529.218	33324.55
529.419	33625.6
529.62	33480.19
529.822	33216.01
530.023	33611.26
530.224	33893.88
530.425	33775.1
530.626	33631.74
530.828	33762.81
531.029	34627.06
531.23	33955.32
531.431	33539.58
531.632	33904.12
531.833	34149.88
532.035	34274.81
532.236	34348.53
532.437	34549.23
532.638	34457.07
532.839	34369.01
533.04	34381.3
533.241	34080.25
533.442	34934.25
533.643	34311.67
533.844	34551.28
534.045	34741.74
534.246	34424.31
534.447	34461.17
534.648	34604.53
534.849	34747.89
535.05	34735.6
535.251	35044.84
535.451	34590.19
535.652	34835.95
535.853	34844.14
536.054	34864.62
536.255	34940.39
536.456	34424.31
536.657	35487.2
536.857	34835.95
537.058	34788.85
537.259	34944.49
537.46	35046.89
537.66	34637.3
537.861	35093.99
538.062	34864.62
538.263	34915.82
538.463	34692.59
538.664	35202.53
538.865	34993.64
539.065	35012.07
539.266	34786.8
539.466	35356.13
539.667	34487.79
539.868	34983.4
540.068	34913.77
540.269	34528.75
540.469	35368.42
540.67	34668.01
540.87	34639.34
541.071	34776.56
541.271	35122.66
541.472	34760.17
541.672	34915.82
541.873	34635.25
542.073	34506.23
542.274	35065.32
542.474	34598.38
542.675	34610.67
542.875	35089.9
543.075	34797.04
543.276	34721.26
543.476	35067.37
543.676	34444.79
543.877	34856.43
544.077	34690.54
544.277	34508.27
544.478	34815.47
544.678	35007.98
544.878	35057.13
545.078	34907.63
545.279	34764.27
545.479	34608.62
545.679	34807.28
545.879	34962.92
546.079	35087.85
546.28	35220.97
546.48	34547.18
546.68	35120.62
546.88	34788.85
547.08	35091.94
547.28	34717.17
547.48	34633.2
547.68	35065.32
547.88	35048.94
548.081	34805.23
548.281	34678.25
548.481	34569.71
548.681	34825.71
548.881	34821.61
549.081	34543.09
549.28	34510.32
549.48	34958.83
549.68	34805.23
549.88	35057.13
550.08	34801.13
550.28	34694.64
550.48	34588.14
550.68	34557.42
550.88	34481.65
551.08	34721.26
551.279	35089.9
551.479	34506.23
551.679	34708.97
551.879	34303.48
552.079	34655.73
552.278	34403.83
552.478	34086.39
552.678	34584.05
552.878	34610.67
553.077	34534.9
553.277	34199.03
553.477	34577.9
553.676	34504.18
553.876	34442.74
554.076	34117.11
554.275	34129.4
554.475	33865.21
554.674	34221.56
554.874	34500.08
555.074	34405.88
555.273	34147.83
555.473	34741.74
555.672	33988.09
555.872	34409.97
556.071	34123.26
556.271	33996.28
556.47	33889.79
556.67	33824.25
556.869	34135.54
557.068	34072.06
557.268	33713.66
557.467	33875.45
557.667	34039.29
557.866	33682.94
558.065	33695.23
558.265	33684.99
558.464	33017.35
558.663	33652.22
558.863	33205.77
559.062	33957.37
559.261	33302.02
559.461	33836.54
559.66	33066.5
559.859	33562.11
560.058	32984.58
560.258	32976.39
560.457	32681.49
560.656	33144.33
560.855	32728.59
561.054	32779.79
561.253	32822.8
561.453	33146.37
561.652	33175.05
561.851	33003.02
562.05	32722.44
562.249	32476.69
562.448	32773.64
562.647	32519.7
562.846	32572.94
563.045	32198.16
563.244	32402.96
563.443	32613.9
563.642	32063
563.841	32525.84
564.04	31682.08
564.239	32566.8
564.438	31731.23
564.637	31759.9
564.836	32304.66
565.035	31348.26
565.234	32067.09
565.432	31872.54
565.631	31757.85
565.83	31989.27
566.029	31768.09
566.228	31460.9
566.427	31206.95
566.625	31313.44
566.824	30817.83
567.023	31219.24
567.222	30717.48
567.42	31419.94
567.619	30948.9
567.818	31100.45
568.016	30740.01
568.215	30823.98
568.414	31012.39
568.612	31161.89
568.811	30385.71
569.01	30303.79
569.208	30072.37
569.407	30588.46
569.605	29824.57
569.804	30307.89
570.002	30021.17
570.201	30228.02
570.4	30146.1
570.598	30047.8
570.797	29632.06
570.995	29685.31
571.193	29398.59
571.392	29799.99
571.59	29204.03
571.789	29605.44
571.987	29277.76
572.186	29406.78
572.384	29105.73
572.582	29515.33
572.781	29249.09
572.979	28583.5
573.177	29222.47
573.376	28755.53
573.574	28462.67
573.772	28716.62
573.971	28864.07
574.169	28317.26
574.367	28552.78
574.565	28165.71
574.763	28218.96
574.962	28165.71
575.16	27844.18
575.358	27913.81
575.556	27655.77
575.754	28001.88
575.952	27672.15
576.151	27616.86
576.349	27258.46
576.547	27307.62
576.745	27534.94
576.943	27502.17
577.141	27018.85
577.339	27135.59
577.537	27207.26
577.735	27117.15
577.933	26637.93
578.131	26879.59
578.329	26646.12
578.527	26707.56
578.725	26754.66
578.923	26594.92
579.121	26189.42
579.319	26527.34
579.516	26605.16
579.714	26324.59
579.912	25874.04
580.11	26005.11
580.308	26013.3
580.506	25927.28
580.704	25673.34
580.901	25824.89
581.099	25921.14
581.297	25517.69
581.495	25501.31
581.692	25882.23
581.89	25368.19
582.088	25443.96
582.285	25333.37
582.483	25304.7
582.681	25257.6
582.878	24905.35
583.076	24858.24
583.274	25079.43
583.471	24970.88
583.669	24641.16
583.866	24682.12
584.064	24899.2
584.262	24293.01
584.459	24626.82
584.657	24299.15
584.854	24411.79
585.052	23983.76
585.249	24239.76
585.447	24098.45
585.644	24096.4
585.841	24053.39
586.039	24059.54
586.236	23989.91
586.434	23684.76
586.631	23447.19
586.828	23510.68
587.026	23516.83
587.223	23187.1
587.42	23395.99
587.618	23473.82
587.815	22949.54
588.012	23002.78
588.21	23068.32
588.407	23109.28
588.604	22728.36
588.801	22814.37
588.999	22664.87
589.196	22724.26
589.393	22660.77
589.59	22607.53
589.787	22425.26
589.984	22482.6
590.182	22314.67
590.379	22615.72
590.576	22126.25
590.773	22042.29
590.97	21911.22
591.167	22124.21
591.364	21833.39
591.561	21751.48
591.758	21561.01
591.955	21655.22
592.152	21614.26
592.349	21485.24
592.546	21411.51
592.743	21731
592.94	21200.57
593.137	21620.41
593.334	21419.71
593.531	21259.96
593.727	21323.45
593.924	21313.21
594.121	20995.78
594.318	21282.49
594.515	20844.23
594.712	21022.4
594.908	20897.47
595.105	20692.68
595.302	20680.39
595.499	20750.02
595.696	20700.87
595.892	20260.55
596.089	20647.62
596.286	20586.18
596.482	20414.15
596.679	20252.36
596.876	20276.94
597.072	20240.08
597.269	20481.74
597.466	20131.53
597.662	20090.57
597.859	20055.76
598.055	19853.01
598.252	19857.1
598.448	19783.38
598.645	19711.7
598.841	19504.85
599.038	19703.51
599.234	19545.81
599.431	19619.54
599.627	19416.79
599.824	19508.95
600.02	19255
600.217	19488.47
600.413	19427.03
600.609	18984.67
600.806	19019.49
601.002	19064.54
601.198	18980.57
601.395	18857.7
601.591	18841.31
601.787	18665.19
601.984	18790.11
602.18	18843.36
602.376	18747.11
602.572	18560.74
602.769	18663.14
602.965	18489.06
603.161	18263.79
603.357	18278.12
603.553	18241.26
603.75	18140.91
603.946	18071.28
604.142	17895.15
604.338	17878.77
604.534	17907.44
604.73	17622.77
604.926	17745.65
605.122	17790.7
605.318	17622.77
605.514	17686.26
605.71	17626.87
605.906	17426.17
606.102	17239.8
606.298	17653.49
606.494	17508.08
606.69	17508.08
606.886	17516.28
607.082	17174.27
607.278	17389.3
607.474	16905.98
607.67	16989.95
607.866	16797.44
608.062	17043.2
608.257	17016.57
608.453	16787.2
608.649	17082.11
608.845	16748.29
609.041	16742.14
609.236	16434.95
609.432	16514.82
609.628	16531.2
609.824	16467.72
610.019	16484.1
610.215	16322.31
610.411	16547.59
610.606	16338.69
610.802	16631.55
610.998	16305.93
611.193	16299.78
611.389	16234.25
611.584	16125.71
611.78	15992.59
611.976	16178.95
612.171	16158.47
612.367	16137.99
612.562	16148.23
612.758	15861.52
612.953	15761.17
613.149	15789.84
613.344	15724.3
613.539	16017.16
613.735	15617.81
613.93	15882
614.126	15691.54
614.321	15795.98
614.517	15402.77
614.712	15505.17
614.907	15394.58
615.103	15628.05
615.298	15212.31
615.493	15548.18
615.688	14929.69
615.884	15511.32
616.079	15396.63
616.274	15152.92
616.47	15232.79
616.665	15234.84
616.86	15107.87
617.055	15099.67
617.25	15095.58
617.445	15308.57
617.641	14735.14
617.836	15052.57
618.031	14602.02
618.226	14700.32
618.421	14591.78
618.616	14823.2
618.811	14475.04
619.006	14495.52
619.201	14612.26
619.396	14503.71
619.591	14198.57
619.786	14495.52
619.981	14354.21
620.176	14188.33
620.371	14202.66
620.566	13961
620.761	14137.13
620.956	14065.45
621.151	13915.95
621.346	13872.94
621.541	13553.46
621.735	13874.99
621.93	13625.14
622.125	13719.34
622.32	13430.58
622.515	13360.95
622.709	13246.26
622.904	13492.02
623.099	13217.59
623.294	13178.68
623.488	13133.62
623.683	12822.33
623.878	13090.62
624.072	12853.05
624.267	12724.03
624.462	12719.93
624.656	12519.23
624.851	12621.63
625.046	12508.99
625.24	12392.26
625.435	12216.13
625.629	11988.81
625.824	12128.07
626.018	12115.78
626.213	11935.56
626.407	12119.88
626.602	12003.14
626.796	11765.58
626.991	12007.24
627.185	11724.62
627.38	11870.03
627.574	11591.5
627.768	11523.92
627.963	11439.95
628.157	11210.58
628.352	11370.32
628.546	11196.25
628.74	11345.75
628.935	11048.79
629.129	11337.55
629.323	11036.5
629.517	10997.59
629.712	11022.17
629.906	10995.54
630.1	10846.04
630.294	10848.09
630.489	10766.17
630.683	10778.46
630.877	10776.41
631.071	10553.18
631.265	10350.43
631.459	10469.22
631.653	10592.09
631.848	10262.37
632.042	10370.91
632.236	10245.99
632.43	10194.79
632.624	10299.23
632.818	10149.73
633.012	9910.12
633.206	10106.73
633.4	9881.45
633.594	9729.9
633.788	9885.55
633.982	9703.28
634.176	9949.03
634.369	9611.12
634.563	9746.28
634.757	9506.67
634.951	9506.67
635.145	9475.95
635.339	9627.5
635.533	9375.6
635.726	9238.39
635.92	9203.57
636.114	9281.39
636.308	9156.47
636.501	9021.3
636.695	8914.81
636.889	9101.17
637.083	8908.66
637.276	9082.74
637.47	8947.58
637.664	8810.36
637.857	8759.16
638.051	8732.54
638.244	8732.54
638.438	8773.5
638.632	8638.33
638.825	8593.28
639.019	8546.17
639.212	8482.69
639.406	8314.75
639.599	8427.39
639.793	8251.27
639.986	8286.08
640.18	8380.29
640.373	8179.59
640.567	7917.45
640.76	7968.65
640.954	7823.24
641.147	7933.83
641.34	7933.83
641.534	7872.39
641.727	7831.43
641.92	7810.95
642.114	7710.6
642.307	7726.99
642.5	7671.69
642.694	7520.14
642.887	7645.07
643.08	7552.91
643.273	7569.29
643.467	7327.63
643.66	7405.45
643.853	7577.48
644.046	7272.34
644.239	7151.51
644.432	7305.1
644.626	7290.77
644.819	7196.56
645.012	7034.77
645.205	7077.78
645.398	6786.97
645.591	6999.96
645.784	7081.88
645.977	6780.82
646.17	6930.33
646.363	6737.82
646.556	6750.1
646.749	6748.06
646.942	6633.37
647.135	6576.03
647.328	6412.19
647.521	6526.88
647.714	6350.75
647.907	6350.75
648.099	6537.12
648.292	6543.26
648.485	6434.72
648.678	6195.11
648.871	6395.81
649.064	6326.18
649.256	6160.29
649.449	6068.13
649.642	6096.8
649.835	6006.69
650.027	6012.84
650.22	5859.24
650.413	6059.94
650.605	6053.8
650.798	5902.25
650.991	5943.21
651.183	5859.24
651.376	5814.18
651.568	5855.14
651.761	5648.3
651.954	5740.46
652.146	5656.49
652.339	5582.76
652.531	5588.91
652.724	5511.08
652.916	5564.33
653.109	5341.1
653.301	5455.79
653.494	5382.06
653.686	5357.49
653.879	5373.87
654.071	5339.05
654.263	5183.41
654.456	5423.02
654.648	5277.62
654.84	5171.12
655.033	5216.18
655.225	5095.35
655.417	5138.35
655.61	5220.27
655.802	5347.25
655.994	4949.94
656.186	4964.28
656.379	4962.23
656.571	4943.8
656.763	4947.89
656.955	5072.82
657.148	4851.64
657.34	4790.2
657.532	4782.01
657.724	4784.05
657.916	4734.9
658.108	4745.14
658.3	4564.92
658.492	4685.75
658.684	4511.68
658.876	4634.55
659.068	4587.45
659.26	4546.49
659.452	4720.57
659.644	4478.91
659.836	4595.64
660.028	4409.28
660.22	4286.4
660.412	4304.83
660.604	4458.43
660.796	4368.32
660.988	4284.35
661.18	4227.01
661.372	4167.62
661.563	4323.26
661.755	4220.86
661.947	4239.3
662.139	4091.84
662.331	4128.7
662.522	4085.7
662.714	4206.53
662.906	4077.51
663.097	4100.03
663.289	3999.68
663.481	3987.4
663.673	3919.81
663.864	3876.8
664.056	4003.78
664.247	3889.09
664.439	3768.26
664.631	3936.2
664.822	3790.79
665.014	3837.89
665.205	3743.69
665.397	3815.37
665.588	3692.49
665.78	3829.7
665.971	3682.25
666.163	3796.93
666.354	3612.62
666.546	3680.2
666.737	3592.14
666.929	3542.99
667.12	3667.91
667.311	3473.35
667.503	3481.55
667.694	3489.74
667.885	3432.4
668.077	3514.31
668.268	3540.94
668.459	3506.12
668.651	3416.01
668.842	3446.73
669.033	3422.16
669.224	3436.49
669.416	3413.96
669.607	3293.13
669.798	3342.28
669.989	3409.87
670.18	3346.38
670.371	3268.56
670.563	3323.85
670.754	3354.57
670.945	3338.19
671.136	3211.21
671.327	3170.26
671.518	3338.19
671.709	3248.08
671.9	3192.78
672.091	3121.1
672.282	3067.86
672.473	3141.58
672.664	3147.73
672.855	3098.58
673.046	3139.54
673.237	3172.3
673.428	3112.91
673.619	2940.88
673.809	3022.8
674	3192.78
674.191	3018.71
674.382	3028.95
674.573	3033.04
674.764	3129.3
674.954	3076.05
675.145	2922.45
675.336	3045.33
675.527	2957.27
675.717	3020.75
675.908	2990.03
676.099	2957.27
676.289	2916.31
676.48	2801.62
676.671	2934.74
676.861	2965.46
677.052	2947.03
677.243	2852.82
677.433	2838.48
677.624	2815.96
677.814	2738.13
678.005	2906.07
678.195	2803.67
678.386	2918.36
678.576	2858.96
678.767	2856.92
678.957	2822.1
679.148	2744.28
679.338	2766.81
679.529	2738.13
679.719	2709.46
679.909	2729.94
680.1	2791.38
680.29	2715.61
680.481	2809.81
680.671	2729.94
680.861	2781.14
681.052	2719.7
681.242	2717.65
681.432	2799.57
681.622	2672.6
681.813	2742.23
682.003	2682.84
682.193	2648.02
682.383	2668.5
682.573	2709.46
682.764	2729.94
682.954	2770.9
683.144	2625.5
683.334	2715.61
683.524	2619.35
683.714	2693.08
683.904	2619.35
684.094	2631.64
684.284	2578.39
684.474	2617.3
684.664	2705.37
684.854	2623.45
685.044	2551.77
685.234	2508.76
685.424	2654.17
685.614	2602.97
685.804	2648.02
685.994	2631.64
686.184	2645.98
686.374	2691.03
686.564	2664.41
686.753	2695.13
686.943	2635.74
687.133	2533.34
687.323	2527.19
687.513	2613.21
687.702	2531.29
687.892	2543.58
688.082	2582.49
688.272	2643.93
688.461	2619.35
688.651	2574.3
688.841	2463.71
689.03	2408.41
689.22	2490.33
689.41	2541.53
689.599	2553.82
689.789	2484.19
689.979	2361.31
690.168	2463.71
690.358	2562.01
690.547	2459.61
690.737	2478.04
690.926	2504.67
691.116	2375.64
691.305	2609.11
691.495	2443.23
691.684	2568.15
691.874	2437.08
692.063	2529.24
692.252	2510.81
692.442	2525.15
692.631	2512.86
692.82	2578.39
693.01	2324.44
693.199	2482.14
693.388	2547.67
693.578	2416.6
693.767	2457.56
693.956	2340.83
694.146	2361.31
694.335	2281.44
694.524	2459.61
694.713	2379.74
694.902	2422.75
695.092	2516.95
695.281	2453.47
695.47	2416.6
695.659	2486.23
695.848	2312.16
696.037	2463.71
696.226	2482.14
696.415	2519
696.604	2406.36
696.793	2439.13
696.982	2383.84
697.171	2365.4
697.36	2402.27
697.549	2361.31
697.738	2426.84
697.927	2396.12
698.116	2533.34
698.305	2441.18
698.494	2295.77
698.683	2385.88
698.872	2486.23
699.061	2297.82
699.25	2408.41
699.438	2381.79
699.627	2420.7
699.816	2478.04
700.005	2363.36
700.193	2400.22
700.382	2467.8
700.571	2385.88
700.76	2308.06
700.948	2387.93
701.137	2408.41
701.326	2473.95
701.514	2303.96
701.703	2406.36
701.892	2371.55
702.08	2424.8
702.269	2387.93
702.457	2398.17
702.646	2375.64
702.834	2480.09
703.023	2359.26
703.212	2471.9
703.4	2303.96
703.589	2373.6
703.777	2469.85
703.965	2340.83
704.154	2406.36
704.342	2385.88
704.531	2326.49
704.719	2250.72
704.907	2330.59
705.096	2285.53
705.284	2303.96
705.472	2430.94
705.661	2402.27
705.849	2455.51
706.037	2293.73
706.226	2275.29
706.414	2320.35
706.602	2236.38
706.79	2299.87
706.979	2166.75
707.167	2338.78
707.355	2197.47
707.543	2285.53
707.731	2318.3
707.919	2297.82
708.107	2138.08
708.296	2154.46
708.484	2263.01
708.672	2183.13
708.86	2205.66
709.048	2236.38
709.236	2195.42
709.424	2228.19
709.612	2279.39
709.8	2199.52
709.988	2205.66
710.176	2080.74
710.364	2119.65
710.551	2047.97
710.739	2099.17
710.927	2140.13
711.115	2150.37
711.303	2148.32
711.491	2125.79
711.679	2105.31
711.866	2158.56
712.054	2152.42
712.242	2054.11
712.43	2121.7
712.617	2160.61
712.805	2185.18
712.993	2072.54
713.181	2123.74
713.368	2017.25
713.556	2080.74
713.744	2066.4
713.931	2111.46
714.119	2021.35
714.306	2056.16
714.494	2113.5
714.682	2027.49
714.869	1970.15
715.057	2023.39
715.244	2023.39
715.432	1947.62
715.619	1988.58
715.807	2033.63
715.994	1929.19
716.182	2011.11
716.369	1972.19
716.556	1955.81
716.744	1927.14
716.931	1861.6
717.119	1822.69
717.306	2013.15
717.493	1914.85
717.681	1929.19
717.868	1845.22
718.055	1920.99
718.242	1988.58
718.43	1923.04
718.617	1910.75
718.804	1892.32
718.991	1873.89
719.179	1880.04
719.366	1904.61
719.553	1777.64
719.74	1763.3
719.927	1740.77
720.114	1796.07
720.301	1863.65
720.488	1880.04
720.676	1851.36
720.863	1769.44
721.05	1796.07
721.237	1708.01
721.424	1726.44
721.611	1894.37
721.798	1753.06
721.985	1746.92
722.172	1714.15
722.358	1714.15
722.545	1679.33
722.732	1720.29
722.919	1791.97
723.106	1677.29
723.293	1705.96
723.48	1857.51
723.667	1726.44
723.853	1667.05
724.04	1720.29
724.227	1712.1
724.414	1728.49
724.6	1755.11
724.787	1759.21
724.974	1675.24
725.161	1691.62
725.347	1621.99
725.534	1646.57
725.72	1599.46
725.907	1492.97
726.094	1722.34
726.28	1644.52
726.467	1685.48
726.653	1681.38
726.84	1566.7
727.027	1726.44
727.213	1675.24
727.4	1667.05
727.586	1621.99
727.773	1566.7
727.959	1570.79
728.145	1605.61
728.332	1578.98
728.518	1589.22
728.705	1574.89
728.891	1529.83
729.077	1630.18
729.264	1730.53
729.45	1519.59
729.636	1632.23
729.823	1509.35
730.009	1566.7
730.195	1499.11
730.382	1589.22
730.568	1572.84
730.754	1529.83
730.94	1531.88
731.126	1624.04
731.313	1466.35
731.499	1521.64
731.685	1599.46
731.871	1503.21
732.057	1554.41
732.243	1472.49
732.429	1505.26
732.615	1441.77
732.801	1411.05
732.987	1550.31
733.173	1462.25
733.359	1558.5
733.545	1507.31
733.731	1497.07
733.917	1499.11
734.103	1576.94
734.289	1478.63
734.475	1435.63
734.661	1540.07
734.847	1390.57
735.033	1415.15
735.219	1402.86
735.404	1441.77
735.59	1372.14
735.776	1503.21
735.962	1470.44
736.148	1529.83
736.333	1529.83
736.519	1345.52
736.705	1406.95
736.89	1415.15
737.076	1351.66
737.262	1409
737.447	1419.24
737.633	1423.34
737.819	1404.91
738.004	1363.95
738.19	1398.76
738.375	1361.9
738.561	1433.58
738.747	1275.88
738.932	1351.66
739.118	1415.15
739.303	1294.32
739.489	1314.8
739.674	1325.04
739.859	1357.8
740.045	1298.41
740.23	1320.94
740.416	1337.32
740.601	1374.19
740.786	1265.64
740.972	1327.08
741.157	1363.95
741.342	1286.12
741.528	1335.28
741.713	1282.03
741.898	1230.83
742.084	1251.31
742.269	1314.8
742.454	1234.93
742.639	1296.36
742.824	1110
743.01	1265.64
743.195	1128.43
743.38	1251.31
743.565	1214.45
743.75	1275.88
743.935	1206.25
744.12	1253.36
744.305	1228.78
744.49	1206.25
744.675	1294.32
744.86	1130.48
745.045	1181.68
745.23	1228.78
745.415	1185.77
745.6	1130.48
745.785	1165.29
745.97	1163.25
746.155	1101.81
746.34	1204.21
746.525	1177.58
746.71	1136.62
746.895	1134.57
747.079	1136.62
747.264	1009.65
747.449	1056.75
747.634	1085.42
747.819	1093.62
748.003	1015.79
748.188	1155.05
748.373	1095.66
748.557	1144.81
748.742	1112.05
748.927	1064.94
749.111	1003.5
749.296	1001.46
749.481	1013.74
749.665	968.69
749.85	1083.38
750.034	1005.55
750.219	1058.8
750.404	976.88
750.588	948.21
750.773	1036.27
750.957	1036.27
751.141	1058.8
751.326	1028.08
751.51	886.77
751.695	921.59
751.879	1003.5
752.064	942.07
752.248	1017.84
752.432	903.15
752.617	935.92
752.801	1075.18
752.985	978.93
753.17	847.86
753.354	997.36
753.538	899.06
753.722	856.05
753.907	942.07
754.091	878.58
754.275	849.91
754.459	913.39
754.643	892.91
754.828	860.15
755.012	933.87
755.196	800.76
755.38	854
755.564	937.97
755.748	847.86
755.932	892.91
756.116	765.94
756.3	790.52
756.484	849.91
756.668	751.6
756.852	737.27
757.036	819.19
757.22	761.84
757.404	800.76
757.588	776.18
757.772	806.9
757.956	815.09
758.14	765.94
758.323	712.69
758.507	763.89
758.691	684.02
758.875	829.43
759.059	706.55
759.242	698.36
759.426	679.93
759.61	706.55
759.794	692.21
759.977	737.27
760.161	862.19
760.345	761.84
760.528	710.65
760.712	702.45
760.895	659.45
761.079	708.6
761.263	739.32
761.446	647.16
761.63	645.11
761.813	712.69
761.997	718.84
762.18	733.17
762.364	694.26
762.547	618.49
762.731	708.6
762.914	749.56
763.098	661.49
763.281	749.56
763.464	634.87
763.648	694.26
763.831	600.05
764.015	634.87
764.198	638.97
764.381	667.64
764.564	602.1
764.748	645.11
764.931	671.73
765.114	595.96
765.297	702.45
765.481	681.97
765.664	618.49
765.847	604.15
766.03	643.06
766.213	591.86
766.397	587.77
766.58	626.68
766.763	571.38
766.946	612.34
767.129	630.77
767.312	491.51
767.495	638.97
767.678	565.24
767.861	618.49
768.044	681.97
768.227	604.15
768.41	593.91
768.593	583.67
768.776	651.25
768.959	552.95
769.142	581.62
769.324	661.49
769.507	546.81
769.69	569.34
769.873	550.9
770.056	583.67
770.239	565.24
770.421	548.86
770.604	516.09
770.787	475.13
770.97	493.56
771.152	591.86
771.335	536.57
771.518	524.28
771.7	538.62
771.883	616.44
772.066	534.52
772.248	499.7
772.431	567.29
772.613	518.14
772.796	479.22
772.978	534.52
773.161	503.8
773.343	505.85
773.526	442.36
773.708	509.94
773.891	444.41
774.073	462.84
774.256	557.05
774.438	473.08
774.621	542.71
774.803	466.94
774.985	526.33
775.168	487.42
775.35	339.96
775.532	524.28
775.715	483.32
775.897	454.65
776.079	501.75
776.261	487.42
776.444	481.27
776.626	399.35
776.808	497.66
776.99	454.65
777.173	471.03
777.355	448.51
777.537	555
777.719	405.5
777.901	438.27
778.083	411.64
778.265	505.85
778.447	423.93
778.629	544.76
778.811	415.74
778.993	428.03
779.175	428.03
779.357	419.83
779.539	436.22
779.721	399.35
779.903	356.35
780.085	378.87
780.267	387.07
780.449	393.21
780.631	471.03
780.812	430.07
780.994	382.97
781.176	368.63
781.358	378.87
781.54	428.03
781.721	307.2
781.903	325.63
782.085	428.03
782.267	405.5
782.448	356.35
782.63	280.57
782.812	387.07
782.993	327.67
783.175	335.87
783.357	346.11
783.538	360.44
783.72	243.71
783.901	358.39
784.083	278.52
784.264	315.39
784.446	331.77
784.627	362.49
784.809	315.39
784.99	274.43
785.172	352.25
785.353	339.96
785.535	348.15
785.716	157.69
785.897	337.91
786.079	368.63
786.26	303.1
786.441	344.06
786.623	286.72
786.804	358.39
786.985	311.29
787.167	194.56
787.348	212.99
787.529	331.77
787.71	243.71
787.891	264.19
788.073	294.91
788.254	253.95
788.435	258.04
788.616	202.75
788.797	219.13
788.978	227.32
789.159	231.42
789.34	284.67
789.522	266.24
789.703	274.43
789.884	266.24
790.065	266.24
790.246	294.91
790.427	286.72
790.607	264.19
790.788	299
790.969	335.87
791.15	247.8
791.331	225.28
791.512	288.76
791.693	200.7
791.874	233.47
792.054	241.66
792.235	215.04
792.416	200.7
792.597	198.65
792.778	241.66
792.958	155.65
793.139	194.56
793.32	315.39
793.5	202.75
793.681	239.61
793.862	266.24
794.042	169.98
794.223	182.27
794.404	260.09
794.584	251.9
794.765	206.84
794.945	165.89
795.126	233.47
795.306	266.24
795.487	221.18
795.667	210.94
795.848	176.13
796.028	231.42
796.209	307.2
796.389	225.28
796.57	198.65
796.75	184.32
796.93	176.13
797.111	258.04
797.291	204.8
797.471	153.6
797.652	276.48
797.832	231.42
798.012	231.42
798.192	266.24
798.373	180.22
798.553	190.46
798.733	174.08
798.913	184.32
799.093	190.46
799.274	122.88
799.454	167.93
799.634	229.37
799.814	184.32
799.994	86.01
800.174	155.65
800.354	194.56
800.534	114.69
800.714	204.8
800.894	143.36
801.074	169.98
801.254	159.74
801.434	217.08
801.614	176.13
801.794	206.84
801.974	337.91
802.154	92.16
802.334	137.21
802.514	153.6
802.693	94.21
802.873	157.69
803.053	231.42
803.233	141.31
803.413	210.94
803.592	100.35
803.772	198.65
803.952	176.13
804.131	172.03
804.311	169.98
804.491	200.7
804.67	157.69
804.85	208.89
805.03	137.21
805.209	161.79
805.389	167.93
805.568	135.17
805.748	141.31
805.928	137.21
806.107	174.08
806.287	217.08
806.466	161.79
806.646	186.37
806.825	169.98
807.004	120.83
807.184	155.65
807.363	174.08
807.543	114.69
807.722	135.17
807.901	176.13
808.081	145.41
808.26	59.39
808.439	180.22
808.619	159.74
808.798	67.58
808.977	114.69
809.156	98.3
809.336	102.4
809.515	126.97
809.694	110.59
809.873	110.59
810.052	120.83
810.231	172.03
810.411	133.12
810.59	204.8
810.769	155.65
810.948	161.79
811.127	73.73
811.306	90.11
811.485	43.01
811.664	219.13
811.843	149.5
812.022	77.82
812.201	77.82
812.38	237.56
812.559	161.79
812.737	118.78
812.916	32.77
813.095	112.64
813.274	165.89
813.453	112.64
813.632	243.71
813.811	186.37
813.989	18.43
814.168	98.3
814.347	100.35
814.526	135.17
814.704	124.93
814.883	122.88
815.062	81.92
815.24	147.45
815.419	67.58
815.598	88.06
815.776	122.88
815.955	108.54
816.133	45.06
816.312	147.45
816.49	90.11
816.669	94.21
816.847	106.49
817.026	110.59
817.204	102.4
817.383	110.59
817.561	71.68
817.74	83.97
817.918	126.97
818.097	124.93
818.275	90.11
818.453	77.82
818.632	145.41
818.81	120.83
818.988	88.06
819.167	40.96
819.345	102.4
819.523	153.6
819.701	129.02
819.879	104.45
820.058	116.73
820.236	59.39
820.414	118.78
820.592	96.25
820.77	90.11
820.948	32.77
821.127	34.82
821.305	100.35
821.483	59.39
821.661	22.53
821.839	114.69
822.017	94.21
822.195	98.3
822.373	77.82
822.551	71.68
822.729	104.45
822.907	88.06
823.085	131.07
823.262	149.5
823.44	81.92
823.618	71.68
823.796	110.59
823.974	73.73
824.152	59.39
824.329	112.64
824.507	106.49
824.685	61.44
824.863	57.34
825.04	43.01
825.218	65.54
825.396	102.4
825.574	67.58
825.751	126.97
825.929	122.88
826.107	90.11
826.284	149.5
826.462	49.15
826.639	141.31
826.817	77.82
826.994	71.68
827.172	59.39
827.349	81.92
827.527	49.15
827.704	92.16
827.882	55.3
828.059	137.21
828.237	34.82
828.414	96.25
828.591	59.39
828.769	81.92
828.946	12.29
829.124	88.06
829.301	114.69
829.478	122.88
829.655	77.82
829.833	114.69
830.01	14.34
830.187	100.35
830.364	61.44
830.542	88.06
830.719	55.3
830.896	106.49
831.073	110.59
831.25	102.4
831.427	81.92
831.604	104.45
831.782	63.49
831.959	16.38
832.136	57.34
832.313	104.45
832.49	67.58
832.667	43.01
832.844	59.39
833.021	79.87
833.198	81.92
833.374	110.59
833.551	67.58
833.728	8.19
833.905	59.39
834.082	67.58
834.259	36.86
834.436	81.92
834.612	53.25
834.789	73.73
834.966	77.82
835.143	67.58
835.319	34.82
835.496	88.06
835.673	47.1
835.85	49.15
836.026	135.17
836.203	43.01
836.38	71.68
836.556	55.3
836.733	38.91
836.909	83.97
837.086	43.01
837.262	139.26
837.439	63.49
837.616	69.63
837.792	49.15
837.968	32.77
838.145	100.35
838.321	73.73
838.498	114.69
838.674	147.45
838.851	40.96
839.027	34.82
839.203	6.14
839.38	71.68
839.556	47.1
839.732	96.25
839.909	28.67
840.085	14.34
840.261	6.14
840.437	61.44
840.614	-24.58
840.79	45.06
840.966	59.39
841.142	57.34
841.318	12.29
841.494	59.39
841.671	88.06
841.847	40.96
842.023	-4.1
842.199	104.45
842.375	45.06
842.551	63.49
842.727	-6.14
842.903	135.17
843.079	96.25
843.255	18.43
843.431	147.45
843.607	81.92
843.783	36.86
843.959	63.49
844.134	20.48
844.31	77.82
844.486	18.43
844.662	47.1
844.838	26.62
845.013	-51.2
845.189	61.44
845.365	110.59
845.541	38.91
845.716	75.77
845.892	83.97
846.068	40.96
846.244	30.72
846.419	73.73
846.595	28.67
846.77	14.34
846.946	98.3
847.122	55.3
847.297	104.45
847.473	67.58
847.648	73.73
847.824	22.53
847.999	65.54
848.175	45.06
848.35	30.72
848.526	57.34
848.701	77.82
848.876	108.54
849.052	-10.24
849.227	69.63
849.403	43.01
849.578	57.34
849.753	40.96
849.929	28.67
850.104	90.11
850.279	51.2
850.454	45.06
850.63	-30.72
850.805	-2.05
850.98	55.3
851.155	-57.34
851.33	98.3
851.505	-14.34
851.681	30.72
851.856	18.43
852.031	135.17
852.206	26.62
852.381	43.01
852.556	88.06
852.731	10.24
852.906	77.82
853.081	63.49
853.256	14.34
853.431	94.21
853.606	-51.2
853.781	22.53
853.956	-16.38
854.131	92.16
854.305	47.1
854.48	-24.58
854.655	-10.24
854.83	-6.14
855.005	20.48
855.18	45.06
855.354	-49.15
855.529	69.63
855.704	45.06
855.879	26.62
856.053	-40.96
856.228	65.54
856.403	106.49
856.577	0
856.752	102.4
856.926	94.21
857.101	4.1
857.276	71.68
857.45	90.11
857.625	47.1
857.799	28.67
857.974	-12.29
858.148	77.82
858.323	55.3
858.497	55.3
858.672	38.91
858.846	96.25
859.02	32.77
859.195	16.38
859.369	-2.05
859.543	14.34
859.718	36.86
859.892	77.82
860.066	47.1
860.241	0
860.415	-30.72
860.589	38.91
860.763	51.2
860.938	22.53
861.112	22.53
861.286	61.44
861.46	63.49
861.634	43.01
861.808	12.29
861.982	24.58
862.157	83.97
862.331	22.53
862.505	-16.38
862.679	12.29
862.853	65.54
863.027	79.87
863.201	98.3
863.375	43.01
863.549	71.68
863.722	-47.1
863.896	-20.48
864.07	22.53
864.244	43.01
864.418	45.06
864.592	-55.3
864.766	77.82
864.939	-12.29
865.113	73.73
865.287	24.58
865.461	59.39
865.634	14.34
865.808	100.35
865.982	43.01
866.156	59.39
866.329	-20.48
866.503	30.72
866.676	94.21
866.85	-36.86
867.024	45.06
867.197	77.82
867.371	124.93
867.544	77.82
867.718	55.3
867.891	43.01
868.065	53.25
868.238	-49.15
868.412	77.82
868.585	-22.53
868.759	12.29
868.932	75.77
869.105	34.82
869.279	-22.53
869.452	67.58
869.625	86.01
869.799	32.77
869.972	8.19
870.145	81.92
870.319	36.86
870.492	0
870.665	55.3
870.838	49.15
871.011	28.67
871.185	110.59
871.358	38.91
871.531	22.53
871.704	-32.77
871.877	100.35
872.05	36.86
872.223	8.19
872.396	24.58
872.569	65.54
872.742	12.29
872.915	14.34
873.088	75.77
873.261	-4.1
873.434	45.06
873.607	34.82
873.78	49.15
873.953	38.91
874.126	4.1
874.299	81.92
874.471	-30.72
874.644	53.25
874.817	18.43
874.99	49.15
875.163	-4.1
875.335	49.15
875.508	26.62
875.681	65.54
875.853	-36.86
876.026	26.62
876.199	38.91
876.371	67.58
876.544	-34.82
876.717	57.34
876.889	63.49
877.062	67.58
877.234	-16.38
877.407	53.25
877.579	-20.48
877.752	10.24
877.924	-75.77
878.097	79.87
878.269	-8.19
878.442	-2.05
878.614	26.62
878.786	104.45
878.959	71.68
879.131	104.45
879.303	30.72
879.476	106.49
879.648	45.06
879.82	22.53
879.993	-16.38
880.165	6.14
880.337	8.19
880.509	18.43
880.681	63.49
880.854	-14.34
881.026	-12.29
881.198	69.63
881.37	20.48
881.542	16.38
881.714	40.96
881.886	20.48
882.058	59.39
882.23	-10.24
882.402	26.62
882.574	38.91
882.746	51.2
882.918	6.14
883.09	12.29
883.262	22.53
883.434	-2.05
883.606	65.54
883.778	47.1
883.95	12.29
884.122	28.67
884.293	-6.14
884.465	22.53
884.637	14.34
884.809	-90.11
884.98	63.49
885.152	40.96
885.324	18.43
885.496	28.67
885.667	8.19
885.839	-34.82
886.011	71.68
886.182	-32.77
886.354	36.86
886.525	-4.1
886.697	67.58
886.869	-10.24
887.04	-59.39
887.212	-30.72
887.383	67.58
887.555	2.05
887.726	-10.24
887.897	18.43
888.069	83.97
888.24	40.96
888.412	108.54
888.583	22.53
888.754	-6.14
888.926	55.3
889.097	10.24
889.268	-2.05
889.44	65.54
889.611	116.73
889.782	-12.29
889.953	-16.38
890.125	28.67
890.296	86.01
890.467	-18.43
890.638	18.43
890.809	-49.15
890.98	22.53
891.151	22.53
891.323	8.19
891.494	-6.14
891.665	-10.24
891.836	47.1
892.007	32.77
892.178	38.91
892.349	24.58
892.52	43.01
892.691	79.87
892.862	-57.34
893.032	-10.24
893.203	83.97
893.374	6.14
893.545	67.58
893.716	18.43
893.887	63.49
894.057	-24.58
894.228	59.39
894.399	-16.38
894.57	55.3
894.74	65.54
894.911	22.53
895.082	32.77
895.253	55.3
895.423	8.19
895.594	4.1
895.764	67.58
895.935	4.1
896.106	28.67
896.276	26.62
896.447	-8.19
896.617	14.34
896.788	32.77
896.958	57.34
897.129	18.43
897.299	-20.48
897.47	43.01
897.64	16.38
897.81	16.38
897.981	18.43
898.151	-4.1
898.322	22.53
898.492	6.14
898.662	-32.77
898.832	-14.34
899.003	75.77
899.173	51.2
899.343	-12.29
899.513	49.15
