Data from USB4F104151__102__13-54-43-588.txt Node

Date: Thu Mar 13 13:54:43 EDT 2025
User: louis
Spectrometer: USB4F10415
Trigger mode: 4
Integration Time (sec): 1.000000E-2
Scans to average: 1
Electric dark correction enabled: true
Nonlinearity correction enabled: false
Boxcar width: 0
XAxis mode: Wavelengths
Number of Pixels in Spectrum: 3648
>>>>>Begin Spectral Data<<<<<
178.204	-49.32
178.424	-49.32
178.644	-49.32
178.864	-84.14
179.084	-100.52
179.304	-26.79
179.524	-47.27
179.744	-22.7
179.964	20.31
180.184	-32.94
180.404	53.08
180.624	14.17
180.844	14.17
181.064	-49.32
181.283	-28.84
181.503	14.17
181.723	91.99
181.943	-0.17
182.163	91.99
182.383	-26.79
182.602	14.17
182.822	-20.65
183.042	46.93
183.262	-22.7
183.482	12.12
183.701	26.45
183.921	38.74
184.141	-4.27
184.361	-34.99
184.58	12.12
184.8	42.84
185.02	-88.23
185.239	-24.75
185.459	65.36
185.679	-53.42
185.898	12.12
186.118	-8.36
186.338	-24.75
186.557	53.08
186.777	-57.51
186.997	-43.18
187.216	53.08
187.436	-63.66
187.655	-8.36
187.875	-26.79
188.095	5.97
188.314	-26.79
188.534	-4.27
188.753	75.6
188.973	-26.79
189.192	28.5
189.412	10.07
189.631	65.36
189.851	-43.18
190.07	55.12
190.29	-63.66
190.509	8.02
190.729	-53.42
190.948	20.31
191.168	79.7
191.387	-10.41
191.607	44.88
191.826	-28.84
192.045	-45.23
192.265	-12.46
192.484	18.26
192.704	-6.31
192.923	-71.85
193.142	-12.46
193.362	-90.28
193.581	-20.65
193.8	-14.51
194.02	-34.99
194.239	-41.13
194.458	-24.75
194.678	-28.84
194.897	12.12
195.116	1.88
195.335	-20.65
195.555	-39.08
195.774	-4.27
195.993	1.88
196.212	-37.03
196.432	38.74
196.651	-32.94
196.87	-8.36
197.089	-6.31
197.308	14.17
197.528	14.17
197.747	-28.84
197.966	-92.33
198.185	-14.51
198.404	-49.32
198.623	-8.36
198.842	-34.99
199.062	12.12
199.281	-28.84
199.5	-41.13
199.719	1.88
199.938	40.79
200.157	61.27
200.376	65.36
200.595	71.51
200.814	-63.66
201.033	-30.89
201.252	-61.61
201.471	10.07
201.69	-2.22
201.909	10.07
202.128	-47.27
202.347	32.6
202.566	-18.6
202.785	-8.36
203.004	8.02
203.223	-32.94
203.442	-14.51
203.661	-4.27
203.879	28.5
204.098	22.36
204.317	8.02
204.536	-30.89
204.755	-45.23
204.974	-18.6
205.193	-10.41
205.411	55.12
205.63	16.21
205.849	24.4
206.068	-41.13
206.287	-41.13
206.505	44.88
206.724	18.26
206.943	-10.41
207.162	-4.27
207.381	-65.71
207.599	26.45
207.818	-10.41
208.037	-67.75
208.255	-26.79
208.474	51.03
208.693	12.12
208.911	65.36
209.13	10.07
209.349	53.08
209.567	5.97
209.786	-30.89
210.005	-34.99
210.223	30.55
210.442	-18.6
210.661	-22.7
210.879	83.8
211.098	-18.6
211.316	16.21
211.535	12.12
211.753	-14.51
211.972	-80.04
212.191	3.93
212.409	-71.85
212.628	12.12
212.846	-55.47
213.065	10.07
213.283	-12.46
213.502	-18.6
213.72	8.02
213.938	14.17
214.157	-16.55
214.375	46.93
214.594	26.45
214.812	-28.84
215.031	48.98
215.249	8.02
215.467	16.21
215.686	-10.41
215.904	-26.79
216.122	-4.27
216.341	-0.17
216.559	-61.61
216.778	12.12
216.996	3.93
217.214	3.93
217.432	-43.18
217.651	36.69
217.869	-0.17
218.087	67.41
218.306	75.6
218.524	-14.51
218.742	-24.75
218.96	38.74
219.179	59.22
219.397	71.51
219.615	-18.6
219.833	24.4
220.051	3.93
220.27	48.98
220.488	20.31
220.706	16.21
220.924	-41.13
221.142	-8.36
221.36	-47.27
221.578	57.17
221.796	22.36
222.015	-10.41
222.233	-57.51
222.451	-47.27
222.669	30.55
222.887	14.17
223.105	-34.99
223.323	-63.66
223.541	30.55
223.759	12.12
223.977	-30.89
224.195	-69.8
224.413	-59.56
224.631	38.74
224.849	-0.17
225.067	30.55
225.285	38.74
225.503	-30.89
225.721	12.12
225.939	16.21
226.157	-80.04
226.375	26.45
226.592	20.31
226.81	24.4
227.028	22.36
227.246	32.6
227.464	16.21
227.682	-24.75
227.9	-10.41
228.117	-43.18
228.335	-6.31
228.553	24.4
228.771	26.45
228.989	30.55
229.206	28.5
229.424	-26.79
229.642	-12.46
229.86	38.74
230.077	57.17
230.295	98.13
230.513	-12.46
230.731	20.31
230.948	-8.36
231.166	30.55
231.384	-12.46
231.601	5.97
231.819	-0.17
232.037	-18.6
232.254	-57.51
232.472	-12.46
232.689	40.79
232.907	-0.17
233.125	8.02
233.342	32.6
233.56	-47.27
233.777	8.02
233.995	20.31
234.213	38.74
234.43	1.88
234.648	-26.79
234.865	-71.85
235.083	32.6
235.3	-0.17
235.518	57.17
235.735	57.17
235.953	26.45
236.17	14.17
236.388	-20.65
236.605	-28.84
236.822	22.36
237.04	59.22
237.257	3.93
237.475	14.17
237.692	-0.17
237.909	-24.75
238.127	32.6
238.344	-39.08
238.562	1.88
238.779	-47.27
238.996	46.93
239.214	79.7
239.431	120.66
239.648	-34.99
239.865	81.75
240.083	75.6
240.3	-43.18
240.517	-30.89
240.735	-75.95
240.952	-6.31
241.169	-34.99
241.386	-37.03
241.603	-61.61
241.821	-18.6
242.038	48.98
242.255	-12.46
242.472	-57.51
242.689	5.97
242.907	8.02
243.124	22.36
243.341	102.23
243.558	57.17
243.775	-34.99
243.992	-34.99
244.209	40.79
244.426	20.31
244.643	14.17
244.86	-4.27
245.078	71.51
245.295	63.32
245.512	38.74
245.729	38.74
245.946	-24.75
246.163	-6.31
246.38	14.17
246.597	34.64
246.814	8.02
247.031	48.98
247.248	-18.6
247.464	57.17
247.681	51.03
247.898	28.5
248.115	16.21
248.332	36.69
248.549	20.31
248.766	94.04
248.983	-34.99
249.2	-16.55
249.417	40.79
249.633	-4.27
249.85	18.26
250.067	20.31
250.284	10.07
250.501	40.79
250.717	67.41
250.934	-14.51
251.151	-6.31
251.368	5.97
251.585	73.56
251.801	83.8
252.018	12.12
252.235	-10.41
252.451	-2.22
252.668	-20.65
252.885	-8.36
253.102	-0.17
253.318	12.12
253.535	18.26
253.752	-47.27
253.968	-22.7
254.185	61.27
254.401	61.27
254.618	30.55
254.835	3.93
255.051	3.93
255.268	20.31
255.484	-22.7
255.701	46.93
255.917	12.12
256.134	3.93
256.351	-8.36
256.567	-30.89
256.784	26.45
257	1.88
257.217	-53.42
257.433	-20.65
257.65	85.84
257.866	5.97
258.082	-28.84
258.299	38.74
258.515	20.31
258.732	1.88
258.948	12.12
259.165	-2.22
259.381	18.26
259.597	10.07
259.814	14.17
260.03	-6.31
260.246	30.55
260.463	65.36
260.679	-24.75
260.895	-30.89
261.112	3.93
261.328	20.31
261.544	-16.55
261.761	71.51
261.977	24.4
262.193	8.02
262.409	1.88
262.626	10.07
262.842	10.07
263.058	20.31
263.274	-28.84
263.49	8.02
263.707	18.26
263.923	3.93
264.139	16.21
264.355	51.03
264.571	-24.75
264.787	48.98
265.004	-41.13
265.22	65.36
265.436	-104.62
265.652	-8.36
265.868	38.74
266.084	-6.31
266.3	16.21
266.516	34.64
266.732	3.93
266.948	12.12
267.164	24.4
267.38	14.17
267.596	1.88
267.812	89.94
268.028	36.69
268.244	-55.47
268.46	63.32
268.676	-18.6
268.892	-14.51
269.108	-18.6
269.324	100.18
269.54	-18.6
269.756	38.74
269.972	-34.99
270.188	55.12
270.403	36.69
270.619	22.36
270.835	3.93
271.051	30.55
271.267	30.55
271.483	-26.79
271.698	-30.89
271.914	-8.36
272.13	-37.03
272.346	-8.36
272.562	20.31
272.777	61.27
272.993	67.41
273.209	-14.51
273.425	44.88
273.64	1.88
273.856	28.5
274.072	34.64
274.287	30.55
274.503	12.12
274.719	-30.89
274.934	48.98
275.15	12.12
275.366	-73.9
275.581	32.6
275.797	-6.31
276.012	-24.75
276.228	48.98
276.444	30.55
276.659	-2.22
276.875	-22.7
277.09	-41.13
277.306	34.64
277.521	32.6
277.737	59.22
277.952	59.22
278.168	-12.46
278.383	81.75
278.599	-34.99
278.814	-0.17
279.03	-43.18
279.245	73.56
279.461	-10.41
279.676	28.5
279.892	16.21
280.107	22.36
280.322	-8.36
280.538	28.5
280.753	-32.94
280.969	1.88
281.184	-24.75
281.399	5.97
281.615	-39.08
281.83	36.69
282.045	59.22
282.26	-51.37
282.476	67.41
282.691	55.12
282.906	16.21
283.122	24.4
283.337	-47.27
283.552	-26.79
283.767	48.98
283.983	-10.41
284.198	12.12
284.413	44.88
284.628	-39.08
284.843	-0.17
285.058	-2.22
285.274	-24.75
285.489	-14.51
285.704	-43.18
285.919	-22.7
286.134	-34.99
286.349	3.93
286.564	26.45
286.779	-12.46
286.995	-84.14
287.21	26.45
287.425	57.17
287.64	-59.56
287.855	-63.66
288.07	-6.31
288.285	-73.9
288.5	34.64
288.715	51.03
288.93	8.02
289.145	51.03
289.36	36.69
289.575	-20.65
289.79	-10.41
290.004	44.88
290.219	10.07
290.434	51.03
290.649	-30.89
290.864	28.5
291.079	-12.46
291.294	51.03
291.509	14.17
291.724	-34.99
291.938	51.03
292.153	20.31
292.368	-4.27
292.583	16.21
292.798	69.46
293.012	118.61
293.227	-26.79
293.442	46.93
293.657	-45.23
293.871	34.64
294.086	30.55
294.301	8.02
294.516	26.45
294.73	16.21
294.945	-18.6
295.16	32.6
295.374	30.55
295.589	73.56
295.804	-18.6
296.018	44.88
296.233	1.88
296.447	42.84
296.662	34.64
296.877	46.93
297.091	-6.31
297.306	-45.23
297.52	-47.27
297.735	38.74
297.949	8.02
298.164	-55.47
298.378	10.07
298.593	28.5
298.807	18.26
299.022	16.21
299.236	22.36
299.451	42.84
299.665	20.31
299.88	-6.31
300.094	-0.17
300.309	5.97
300.523	40.79
300.737	-2.22
300.952	61.27
301.166	-24.75
301.381	-20.65
301.595	85.84
301.809	-34.99
302.024	3.93
302.238	55.12
302.452	3.93
302.667	-18.6
302.881	30.55
303.095	-12.46
303.309	-6.31
303.524	-2.22
303.738	-18.6
303.952	51.03
304.166	-24.75
304.381	-16.55
304.595	44.88
304.809	-32.94
305.023	12.12
305.237	-20.65
305.452	-24.75
305.666	26.45
305.88	38.74
306.094	-37.03
306.308	-22.7
306.522	20.31
306.736	16.21
306.95	59.22
307.164	63.32
307.379	73.56
307.593	-12.46
307.807	16.21
308.021	8.02
308.235	-14.51
308.449	38.74
308.663	-57.51
308.877	3.93
309.091	-16.55
309.305	28.5
309.519	-24.75
309.733	26.45
309.947	30.55
310.161	3.93
310.374	81.75
310.588	-49.32
310.802	3.93
311.016	36.69
311.23	-4.27
311.444	-24.75
311.658	16.21
311.872	-28.84
312.085	87.89
312.299	-32.94
312.513	48.98
312.727	104.28
312.941	-67.75
313.154	-26.79
313.368	44.88
313.582	18.26
313.796	28.5
314.009	-39.08
314.223	24.4
314.437	-37.03
314.651	-63.66
314.864	51.03
315.078	8.02
315.292	24.4
315.505	-20.65
315.719	65.36
315.933	48.98
316.146	-8.36
316.36	-4.27
316.573	53.08
316.787	34.64
317.001	-49.32
317.214	-24.75
317.428	16.21
317.641	-14.51
317.855	-0.17
318.068	3.93
318.282	8.02
318.495	-51.37
318.709	5.97
318.922	1.88
319.136	24.4
319.349	32.6
319.563	5.97
319.776	89.94
319.99	3.93
320.203	53.08
320.417	32.6
320.63	26.45
320.843	32.6
321.057	-22.7
321.27	24.4
321.483	-4.27
321.697	73.56
321.91	83.8
322.124	24.4
322.337	-12.46
322.55	55.12
322.763	30.55
322.977	-43.18
323.19	-24.75
323.403	51.03
323.617	18.26
323.83	-30.89
324.043	14.17
324.256	22.36
324.469	-18.6
324.683	8.02
324.896	-0.17
325.109	75.6
325.322	30.55
325.535	77.65
325.748	16.21
325.962	-45.23
326.175	-57.51
326.388	-24.75
326.601	16.21
326.814	-61.61
327.027	91.99
327.24	-47.27
327.453	-57.51
327.666	8.02
327.879	-4.27
328.092	-4.27
328.305	14.17
328.518	77.65
328.731	85.84
328.944	79.7
329.157	-2.22
329.37	-22.7
329.583	20.31
329.796	12.12
330.009	79.7
330.222	-10.41
330.435	-34.99
330.648	-18.6
330.861	26.45
331.073	-32.94
331.286	73.56
331.499	-24.75
331.712	-57.51
331.925	18.26
332.138	3.93
332.35	44.88
332.563	51.03
332.776	-24.75
332.989	-45.23
333.202	102.23
333.414	-18.6
333.627	67.41
333.84	16.21
334.053	14.17
334.265	1.88
334.478	73.56
334.691	34.64
334.903	26.45
335.116	-82.09
335.329	-49.32
335.541	-39.08
335.754	34.64
335.966	18.26
336.179	-24.75
336.392	48.98
336.604	8.02
336.817	-37.03
337.029	-10.41
337.242	55.12
337.454	-2.22
337.667	-55.47
337.88	53.08
338.092	67.41
338.305	22.36
338.517	-4.27
338.729	3.93
338.942	71.51
339.154	12.12
339.367	30.55
339.579	-18.6
339.792	16.21
340.004	48.98
340.217	-41.13
340.429	16.21
340.641	-67.75
340.854	55.12
341.066	28.5
341.278	-18.6
341.491	26.45
341.703	53.08
341.915	-55.47
342.128	67.41
342.34	-12.46
342.552	-4.27
342.764	12.12
342.977	14.17
343.189	-10.41
343.401	159.57
343.613	34.64
343.826	71.51
344.038	-24.75
344.25	83.8
344.462	46.93
344.674	53.08
344.886	12.12
345.099	73.56
345.311	36.69
345.523	48.98
345.735	36.69
345.947	32.6
346.159	-34.99
346.371	-30.89
346.583	-0.17
346.795	24.4
347.007	-24.75
347.219	12.12
347.431	-37.03
347.643	-24.75
347.855	65.36
348.067	24.4
348.279	-22.7
348.491	14.17
348.703	20.31
348.915	-67.75
349.127	3.93
349.339	-45.23
349.551	-22.7
349.763	46.93
349.975	-22.7
350.187	14.17
350.399	57.17
350.61	36.69
350.822	-16.55
351.034	-4.27
351.246	14.17
351.458	55.12
351.669	1.88
351.881	-24.75
352.093	51.03
352.305	40.79
352.517	87.89
352.728	44.88
352.94	1.88
353.152	18.26
353.363	-0.17
353.575	77.65
353.787	57.17
353.999	-20.65
354.21	44.88
354.422	-12.46
354.633	-32.94
354.845	5.97
355.057	8.02
355.268	10.07
355.48	-16.55
355.692	12.12
355.903	-30.89
356.115	28.5
356.326	-12.46
356.538	85.84
356.749	18.26
356.961	34.64
357.172	-49.32
357.384	-12.46
357.595	-2.22
357.807	104.28
358.018	-18.6
358.23	48.98
358.441	-14.51
358.653	-28.84
358.864	55.12
359.075	42.84
359.287	1.88
359.498	20.31
359.709	91.99
359.921	57.17
360.132	-30.89
360.344	30.55
360.555	-24.75
360.766	18.26
360.977	24.4
361.189	112.47
361.4	42.84
361.611	51.03
361.823	-12.46
362.034	-22.7
362.245	-77.99
362.456	-51.37
362.667	8.02
362.879	-2.22
363.09	22.36
363.301	-4.27
363.512	20.31
363.723	8.02
363.935	16.21
364.146	118.61
364.357	42.84
364.568	-6.31
364.779	24.4
364.99	14.17
365.201	8.02
365.412	14.17
365.623	18.26
365.834	67.41
366.045	14.17
366.256	-6.31
366.467	67.41
366.678	63.32
366.889	-45.23
367.1	8.02
367.311	18.26
367.522	10.07
367.733	112.47
367.944	-14.51
368.155	1.88
368.366	28.5
368.577	1.88
368.788	96.08
368.999	91.99
369.209	87.89
369.42	44.88
369.631	18.26
369.842	65.36
370.053	-12.46
370.264	59.22
370.474	-0.17
370.685	40.79
370.896	73.56
371.107	34.64
371.317	18.26
371.528	57.17
371.739	-32.94
371.95	-57.51
372.16	28.5
372.371	-57.51
372.582	87.89
372.792	-2.22
373.003	-8.36
373.214	-4.27
373.424	14.17
373.635	26.45
373.846	5.97
374.056	77.65
374.267	24.4
374.477	-28.84
374.688	24.4
374.898	59.22
375.109	51.03
375.319	55.12
375.53	20.31
375.74	83.8
375.951	-22.7
376.161	26.45
376.372	14.17
376.582	-2.22
376.793	22.36
377.003	-6.31
377.214	51.03
377.424	8.02
377.635	-47.27
377.845	36.69
378.055	67.41
378.266	-6.31
378.476	10.07
378.686	-12.46
378.897	-24.75
379.107	44.88
379.317	-43.18
379.528	-20.65
379.738	132.95
379.948	-10.41
380.158	-8.36
380.369	24.4
380.579	16.21
380.789	-10.41
380.999	42.84
381.21	-2.22
381.42	8.02
381.63	44.88
381.84	34.64
382.05	108.37
382.261	71.51
382.471	24.4
382.681	-65.71
382.891	24.4
383.101	26.45
383.311	-0.17
383.521	10.07
383.731	63.32
383.941	28.5
384.151	24.4
384.361	-6.31
384.571	3.93
384.781	38.74
384.991	24.4
385.201	38.74
385.411	44.88
385.621	81.75
385.831	46.93
386.041	34.64
386.251	-37.03
386.461	59.22
386.671	-8.36
386.881	71.51
387.091	16.21
387.301	42.84
387.511	-22.7
387.72	-45.23
387.93	89.94
388.14	79.7
388.35	120.66
388.56	14.17
388.769	57.17
388.979	22.36
389.189	46.93
389.399	38.74
389.609	-2.22
389.818	20.31
390.028	73.56
390.238	-12.46
390.447	1.88
390.657	65.36
390.867	81.75
391.076	16.21
391.286	32.6
391.496	8.02
391.705	36.69
391.915	22.36
392.125	55.12
392.334	51.03
392.544	-24.75
392.753	3.93
392.963	38.74
393.172	46.93
393.382	5.97
393.591	53.08
393.801	-20.65
394.01	53.08
394.22	40.79
394.429	34.64
394.639	-26.79
394.848	40.79
395.058	26.45
395.267	8.02
395.477	57.17
395.686	79.7
395.895	120.66
396.105	108.37
396.314	98.13
396.524	-4.27
396.733	-10.41
396.942	3.93
397.152	38.74
397.361	32.6
397.57	51.03
397.78	89.94
397.989	98.13
398.198	55.12
398.407	22.36
398.617	40.79
398.826	59.22
399.035	104.28
399.244	79.7
399.453	75.6
399.663	-8.36
399.872	96.08
400.081	51.03
400.29	28.5
400.499	106.32
400.708	-4.27
400.917	96.08
401.127	98.13
401.336	57.17
401.545	71.51
401.754	75.6
401.963	61.27
402.172	24.4
402.381	118.61
402.59	18.26
402.799	94.04
403.008	42.84
403.217	24.4
403.426	89.94
403.635	34.64
403.844	65.36
404.053	73.56
404.262	79.7
404.471	83.8
404.68	104.28
404.888	149.33
405.097	81.75
405.306	61.27
405.515	51.03
405.724	110.42
405.933	106.32
406.142	46.93
406.35	22.36
406.559	139.09
406.768	124.76
406.977	91.99
407.185	116.56
407.394	132.95
407.603	102.23
407.812	116.56
408.02	122.71
408.229	155.47
408.438	132.95
408.646	143.19
408.855	118.61
409.064	163.67
409.272	104.28
409.481	147.28
409.69	91.99
409.898	196.43
410.107	169.81
410.315	130.9
410.524	218.96
410.733	235.35
410.941	216.91
411.15	286.54
411.358	225.11
411.567	214.87
411.775	171.86
411.984	210.77
412.192	311.12
412.401	294.74
412.609	264.02
412.818	298.83
413.026	255.83
413.234	378.7
413.443	298.83
413.651	343.89
413.86	311.12
414.068	354.13
414.276	331.6
414.485	393.04
414.693	401.23
414.901	378.7
415.11	483.15
415.318	423.76
415.526	423.76
415.734	481.1
415.943	483.15
416.151	446.29
416.359	483.15
416.567	540.49
416.776	563.02
416.984	556.88
417.192	591.69
417.4	538.45
417.608	575.31
417.817	634.7
418.025	657.23
418.233	712.52
418.441	716.62
418.649	733
418.857	864.07
419.065	804.68
419.273	786.25
419.481	847.69
419.689	874.31
419.897	843.59
420.105	931.66
420.313	876.36
420.521	1034.05
420.729	986.95
420.937	1042.25
421.145	1089.35
421.353	1136.45
421.561	1130.31
421.769	1238.85
421.977	1238.85
422.185	1230.66
422.393	1396.54
422.601	1404.74
422.809	1435.46
423.017	1392.45
423.224	1531.71
423.432	1484.61
423.64	1482.56
423.848	1660.73
424.056	1650.49
424.263	1685.31
424.471	1756.99
424.679	1740.6
424.887	1894.2
425.094	2029.37
425.302	1976.12
425.51	2000.69
425.718	2191.16
425.925	2006.84
426.133	2256.69
426.341	2281.27
426.548	2402.1
426.756	2383.66
426.964	2449.2
427.171	2543.41
427.379	2662.19
427.586	2799.4
427.794	2893.61
428.001	2912.04
428.209	2953
428.417	2942.76
428.624	3137.32
428.832	3161.89
429.039	3127.08
429.247	3145.51
429.454	3440.42
429.662	3524.38
429.869	3387.17
430.076	3800.86
430.284	3536.67
430.491	3743.52
430.699	3905.31
430.906	4024.09
431.114	4030.23
431.321	4181.78
431.528	4251.41
431.736	4638.48
431.943	4663.05
432.15	4618
432.358	4624.14
432.565	4945.67
432.772	4847.37
432.979	5246.73
433.187	5191.43
433.394	5129.99
433.601	5601.02
433.808	5574.4
434.016	5576.45
434.223	5723.9
434.43	6096.63
434.637	5988.09
434.844	6432.5
435.052	6434.55
435.259	6319.86
435.466	6475.51
435.673	6500.08
435.88	6969.07
436.087	7440.1
436.294	7212.78
436.501	7173.86
436.708	7229.16
436.915	7479.01
437.122	7935.71
437.329	7954.14
437.537	7948
437.743	8197.85
437.95	7999.2
438.157	8521.43
438.364	8836.81
438.571	8756.94
438.778	8783.57
438.985	9701.06
439.192	9234.12
439.399	9621.19
439.606	9586.37
439.813	9848.51
440.02	10450.61
440.227	10090.17
440.433	10147.51
440.64	10632.88
440.847	10438.33
441.054	10495.67
441.261	11380.39
441.467	11347.62
441.674	11488.93
441.881	11843.23
442.088	11984.54
442.294	11830.94
442.501	11962.01
442.708	12236.44
442.914	13080.21
443.121	13426.31
443.328	12994.19
443.534	13930.11
443.741	13430.41
443.948	13387.4
444.154	14401.15
444.361	14231.16
444.568	14429.82
444.774	14442.1
444.981	14550.65
445.187	14947.95
445.394	15464.04
445.6	15222.38
445.807	16877.14
446.013	16191.07
446.22	16471.64
446.426	16981.59
446.633	17241.68
446.839	17974.85
447.046	17163.86
447.252	17761.86
447.459	18153.02
447.665	17944.13
447.871	18996.79
448.078	19463.72
448.284	18671.16
448.491	19084.85
448.697	19924.52
448.903	19992.1
449.11	20280.86
449.316	20071.97
449.522	20221.47
449.728	20760.09
449.935	21018.13
450.141	20919.83
450.347	21638.67
450.553	20932.12
450.76	20983.32
450.966	21792.26
451.172	21696.01
451.378	22154.76
451.584	21368.34
451.791	22121.99
451.997	22078.98
452.203	22584.83
452.409	22107.65
452.615	22318.59
452.821	21483.02
453.027	21317.14
453.233	22251.01
453.44	21593.61
453.646	21949.96
453.852	21751.31
454.058	22138.37
454.264	21126.67
454.47	21820.94
454.676	21296.66
454.882	22136.32
455.088	20010.53
455.294	20278.82
455.5	20766.23
455.705	21089.81
455.911	20110.88
456.117	19373.61
456.323	19373.61
456.529	18054.72
456.735	19076.66
456.941	18579
457.147	18302.53
457.352	17999.43
457.558	17481.29
457.764	17505.87
457.97	17524.3
458.176	16737.88
458.381	16782.93
458.587	16182.88
458.793	16086.62
458.999	15093.36
459.204	16268.89
459.41	16033.38
459.616	14896.75
459.821	14941.81
460.027	14990.96
460.233	14534.26
460.438	13954.69
460.644	13905.54
460.85	13123.21
461.055	13145.74
461.261	12922.51
461.466	12119.71
461.672	11624.1
461.878	12539.54
462.083	11808.42
462.289	11439.78
462.494	11411.11
462.7	11087.53
462.905	10766
463.111	10905.26
463.316	11067.05
463.522	10768.05
463.727	10858.16
463.932	10743.47
464.138	10630.84
464.343	10849.97
464.549	10190.52
464.754	10700.47
464.959	10645.17
465.165	10757.81
465.37	10313.4
465.575	9823.94
465.781	10383.03
465.986	10413.75
466.191	9914.05
466.397	9840.32
466.602	9406.15
466.807	9678.53
467.012	9703.11
467.218	9563.84
467.423	9555.65
467.628	9602.75
467.833	10100.41
468.038	9627.33
468.244	9266.89
468.449	9895.61
468.654	9340.61
468.859	9154.25
469.064	9201.35
469.269	8912.59
469.474	8971.98
469.679	9043.66
469.885	8705.74
470.09	8963.79
470.295	8908.49
470.5	8613.59
470.705	8812.24
470.91	8503
471.115	8459.99
471.32	8505.04
471.525	8562.39
471.73	8394.45
471.935	8324.82
472.139	7921.37
472.344	8306.39
472.549	8042.2
472.754	8054.49
472.959	8023.77
473.164	7704.29
473.369	7507.68
473.574	7904.99
473.778	7601.89
473.983	7706.34
474.188	7692
474.393	7325.41
474.598	7288.55
474.802	7302.89
475.007	7270.12
475.212	7159.53
475.417	7071.47
475.621	6956.78
475.826	6977.26
476.031	6651.63
476.235	6731.5
476.44	7010.03
476.645	6780.65
476.849	6571.76
477.054	6764.27
477.259	6563.57
477.463	6618.86
477.668	6338.29
477.872	6491.89
478.077	6393.59
478.282	6164.22
478.486	6080.25
478.691	5986.04
478.895	6293.24
479.1	6207.22
479.304	6244.09
479.509	6018.81
479.713	5990.14
479.918	5854.97
480.122	5875.45
480.326	5842.68
480.531	5785.34
480.735	5670.65
480.94	5641.98
481.144	5773.05
481.348	5652.22
481.553	5709.57
481.757	5596.93
481.961	5508.87
482.166	5742.33
482.37	5744.38
482.574	5736.19
482.778	5635.84
482.983	5820.16
483.187	5781.25
483.391	5699.33
483.595	5723.9
483.8	5496.58
484.004	5584.64
484.208	5672.7
484.412	5633.79
484.616	5594.88
484.821	5568.26
485.025	5603.07
485.229	5738.24
485.433	5586.69
485.637	5664.51
485.841	5525.25
486.045	5586.69
486.249	5492.48
486.453	5431.04
486.657	5555.97
486.861	5656.32
487.065	5459.71
487.269	5590.78
487.473	5566.21
487.677	5897.98
487.881	5652.22
488.085	5682.94
488.289	5664.51
488.493	5553.92
488.697	5760.77
488.901	5650.18
489.105	5656.32
489.309	5920.51
489.512	5725.95
489.716	5674.75
489.92	5732.09
490.124	5605.12
490.328	5957.37
490.531	5814.01
490.735	5873.4
490.939	5742.33
491.143	5762.81
491.346	5867.26
491.55	6035.19
491.754	5924.6
491.958	6002.43
492.161	6033.15
492.365	6024.95
492.569	5961.47
492.772	5994.23
492.976	6098.68
493.18	6102.78
493.383	6049.53
493.587	6227.7
493.79	6237.94
493.994	6205.17
494.197	6215.41
494.401	6303.48
494.605	6336.24
494.808	6375.16
495.012	6510.32
495.215	6508.27
495.419	6620.91
495.622	6434.55
495.825	6655.73
496.029	6708.97
496.232	6700.78
496.436	6692.59
496.639	6989.55
496.843	6932.2
497.046	7048.94
497.249	7038.7
497.453	7200.49
497.656	7278.31
497.859	7411.43
498.063	7448.29
498.266	7446.24
498.469	7429.86
498.673	7476.96
498.876	7562.98
499.079	7753.44
499.282	7616.23
499.485	8142.55
499.689	8103.64
499.892	8136.41
500.095	8109.79
500.298	8349.4
500.501	8333.01
500.705	8486.61
500.908	8548.05
501.111	8984.27
501.314	8709.84
501.517	8871.63
501.72	9082.57
501.923	9168.59
502.126	9262.79
502.329	9305.8
502.532	9576.13
502.735	9459.4
502.938	9793.22
503.141	9778.88
503.344	9985.72
503.547	9957.05
503.75	10251.96
503.953	10129.08
504.156	10546.87
504.359	10663.6
504.562	10641.07
504.765	10774.19
504.968	11161.26
505.17	11054.76
505.373	11275.95
505.576	11366.06
505.779	11685.54
505.982	11568.8
506.185	11732.64
506.387	11792.03
506.59	12007.07
506.793	12138.14
506.996	12136.09
507.198	12447.38
507.401	12469.91
507.604	12641.94
507.807	13020.81
508.009	13155.98
508.212	13004.43
508.415	13551.24
508.617	13788.8
508.82	13471.37
509.022	13555.33
509.225	14229.12
509.428	14233.21
509.63	14288.51
509.833	14423.67
510.035	14759.54
510.238	14612.09
510.44	14876.27
510.643	15074.93
510.845	15341.16
511.048	15203.95
511.25	15437.42
511.453	15867.49
511.655	16502.36
511.858	16191.07
512.06	16316
512.262	16760.41
512.465	16447.07
512.667	17018.45
512.87	17194.57
513.072	17272.4
513.274	17638.98
513.477	17892.93
513.679	18196.03
513.881	18179.65
514.084	18286.14
514.286	18429.5
514.488	18699.83
514.69	19439.15
514.893	19310.13
515.095	19381.81
515.297	19531.31
515.499	19852.84
515.701	19988
515.904	20223.52
516.106	20577.82
516.308	20704.79
516.51	21302.8
516.712	21347.86
516.914	21507.6
517.116	21564.94
517.318	21659.15
517.52	22173.19
517.722	22136.32
517.925	22279.68
518.127	22670.84
518.329	23019
518.531	22871.54
518.733	23270.9
518.935	23846.38
519.136	23916.01
519.338	24022.5
519.54	24374.75
519.742	24389.09
519.944	24776.16
520.146	25007.58
520.348	25023.96
520.55	25189.84
520.752	25621.97
520.954	26060.23
521.155	26133.96
521.357	26324.42
521.559	26992.06
521.761	26957.24
521.963	26826.17
522.164	27401.65
522.366	27409.84
522.568	27760.05
522.77	27923.88
522.971	28218.79
523.173	28128.68
523.375	28345.76
523.576	28564.9
523.778	28558.75
523.98	28966.3
524.181	29007.26
524.383	29617.55
524.584	29605.27
524.786	29801.87
524.988	29900.17
525.189	30141.83
525.391	30578.05
525.592	30612.87
525.794	30784.9
525.995	30768.51
526.197	30782.85
526.398	31006.08
526.6	31311.22
526.801	31282.55
527.003	31483.25
527.204	31409.53
527.406	31884.65
527.607	32259.43
527.808	32349.54
528.01	31839.6
528.211	32126.32
528.412	32972.13
528.614	32603.49
528.815	32716.13
529.016	33219.93
529.218	32771.43
529.419	32884.06
529.62	33428.82
529.822	33158.49
530.023	33539.41
530.224	33027.42
530.425	33199.45
530.626	33138.01
530.828	32992.61
531.029	33963.34
531.23	33498.45
531.431	33490.26
531.632	33604.95
531.833	33768.79
532.035	33850.7
532.236	33776.98
532.437	34114.89
532.638	33613.14
532.839	34434.38
533.04	34168.14
533.241	33836.37
533.442	34504.01
533.643	34153.8
533.844	34542.92
534.045	34317.64
534.246	34012.49
534.447	34792.77
534.648	34170.19
534.849	34458.95
535.05	34274.63
535.251	34501.96
535.451	34108.75
535.652	34374.98
535.853	34852.16
536.054	34737.48
536.255	34772.29
536.456	34381.13
536.657	34633.03
536.857	34657.6
537.058	34221.39
537.259	35032.38
537.46	34661.7
537.66	34624.84
537.861	34649.41
538.062	34585.93
538.263	34997.57
538.463	34594.12
538.664	34579.78
538.865	34522.44
539.065	34590.02
539.266	34272.59
539.466	34921.79
539.667	34317.64
539.868	34958.66
540.068	34510.15
540.269	34686.28
540.469	34321.74
540.67	34274.63
540.87	34387.27
541.071	34559.3
541.271	34919.74
541.472	34534.73
541.672	34731.33
541.873	34301.26
542.073	34547.01
542.274	34907.46
542.474	34774.34
542.675	34428.23
542.875	34766.15
543.075	34891.07
543.276	34534.73
543.476	34829.63
543.676	34598.21
543.877	34606.41
544.077	34452.81
544.277	34641.22
544.478	34645.32
544.678	34768.19
544.878	34231.63
545.078	34587.97
545.279	34229.58
545.479	34508.1
545.679	34530.63
545.879	34434.38
546.079	34540.87
546.28	35050.81
546.48	34469.19
546.68	34669.89
546.88	34706.76
547.08	34585.93
547.28	34401.61
547.48	34270.54
547.68	34614.6
547.88	34030.93
548.081	34667.84
548.281	34368.84
548.481	34575.69
548.681	34440.52
548.881	34497.86
549.081	34422.09
549.28	34428.23
549.48	34942.27
549.68	34358.6
549.88	34764.1
550.08	34401.61
550.28	34551.11
550.48	34592.07
550.68	35034.43
550.88	34225.48
551.08	34596.17
551.279	34245.96
551.479	34243.91
551.679	34153.8
551.879	34162
552.079	34434.38
552.278	34559.3
552.478	34372.94
552.678	34182.48
552.878	34469.19
553.077	34426.18
553.277	34207.05
553.477	34321.74
553.676	34331.98
553.876	34200.91
554.076	34080.08
554.275	34284.87
554.475	34194.76
554.674	34067.79
554.874	34374.98
555.074	34227.53
555.273	34305.35
555.473	34358.6
555.672	33889.62
555.872	34000.21
556.071	33934.67
556.271	33838.42
556.47	33699.16
556.67	33613.14
556.869	33654.1
557.068	33994.06
557.268	33703.25
557.467	33529.17
557.667	33764.69
557.866	33469.78
558.065	33373.53
558.265	33586.52
558.464	33152.35
558.663	33809.75
558.863	32912.74
559.062	33381.72
559.261	32996.7
559.461	33684.82
559.66	33138.01
559.859	33008.99
560.058	32718.18
560.258	32873.82
560.457	32679.27
560.656	32886.11
560.855	32793.95
561.054	32617.83
561.253	32458.09
561.453	32658.79
561.652	32746.85
561.851	32847.2
562.05	32306.54
562.249	32488.81
562.448	32517.48
562.647	32433.51
562.846	32451.94
563.045	32410.98
563.244	31993.2
563.443	32802.14
563.642	31954.29
563.841	32134.51
564.04	31677.81
564.239	32310.63
564.438	31855.98
564.637	31966.57
564.836	31896.94
565.035	31864.18
565.234	31913.33
565.432	31640.95
565.631	31542.64
565.83	31509.88
566.029	31509.88
566.228	31526.26
566.427	31221.11
566.625	30958.97
566.824	30805.38
567.023	31395.19
567.222	30725.5
567.42	31477.11
567.619	31012.22
567.818	30643.59
568.016	30666.11
568.215	30739.84
568.414	30442.88
568.612	30862.72
568.811	30498.18
569.01	30520.71
569.208	30096.78
569.407	30205.32
569.605	29552.02
569.804	30363.01
570.002	29709.71
570.201	30526.85
570.4	29607.31
570.598	29826.45
570.797	29289.88
570.995	29625.75
571.193	29298.07
571.392	29816.21
571.59	29302.17
571.789	29392.28
571.987	29390.23
572.186	29105.56
572.384	29044.12
572.582	29009.31
572.781	29109.66
572.979	28833.18
573.177	29072.79
573.376	28638.62
573.574	28392.87
573.772	28693.92
573.971	28454.31
574.169	28296.61
574.367	28212.65
574.565	28188.07
574.763	28030.38
574.962	28001.71
575.16	27268.53
575.358	28032.43
575.556	27293.11
575.754	27891.12
575.952	27471.28
576.151	27592.11
576.349	27213.24
576.547	27149.75
576.745	27409.84
576.943	27223.48
577.141	27114.94
577.339	27123.13
577.537	26910.14
577.735	27164.09
577.933	26623.42
578.131	26875.32
578.329	26631.61
578.527	26359.24
578.725	26488.26
578.923	26375.62
579.121	26043.85
579.319	26101.19
579.516	26125.77
579.714	26336.71
579.912	25890.25
580.11	25736.65
580.308	25712.08
580.506	25497.04
580.704	25234.9
580.901	25675.21
581.099	25863.63
581.297	25474.51
581.495	25408.98
581.692	25325.01
581.89	25204.18
582.088	25253.33
582.285	25200.08
582.483	25439.7
582.681	25019.86
582.878	24985.05
583.076	24401.38
583.274	24671.71
583.471	24518.11
583.669	24421.86
583.866	24311.27
584.064	24518.11
584.262	24206.82
584.459	24374.75
584.657	24468.96
584.854	24587.74
585.052	23600.62
585.249	23952.87
585.447	23928.3
585.644	23500.27
585.841	23981.54
586.039	23752.17
586.236	23635.44
586.434	23498.22
586.631	23367.15
586.828	23412.21
587.026	23297.52
587.223	23455.22
587.42	23350.77
587.618	23160.31
587.815	22920.7
588.012	23207.41
588.21	22926.84
588.407	22814.2
588.604	22984.18
588.801	22642.17
588.999	22734.33
589.196	22664.7
589.393	22545.92
589.59	22330.88
589.787	22363.65
589.984	22294.02
590.182	22255.11
590.379	22267.39
590.576	21827.08
590.773	22124.04
590.97	21900.81
591.167	22126.08
591.364	21716.49
591.561	21521.93
591.758	21476.88
591.955	21642.76
592.152	21876.23
592.349	21544.46
592.546	21253.65
592.743	21616.14
592.94	21157.39
593.137	21155.35
593.334	21503.5
593.531	21210.64
593.727	20991.51
593.924	21165.59
594.121	20930.07
594.318	21042.71
594.515	20586.01
594.712	21190.16
594.908	20704.79
595.105	20897.3
595.302	20332.06
595.499	20751.9
595.696	20567.58
595.892	20383.26
596.089	20344.35
596.286	20477.47
596.482	20477.47
596.679	20239.9
596.876	20239.9
597.072	20022.82
597.269	20233.76
597.466	19861.03
597.662	19996.2
597.859	19836.45
598.055	19836.45
598.252	19629.61
598.448	19551.79
598.645	19609.13
598.841	19402.29
599.038	19562.03
599.234	19435.05
599.431	19441.2
599.627	19211.82
599.824	19488.3
600.02	18828.85
600.217	19090.99
600.413	19062.32
600.609	18800.18
600.806	18925.11
601.002	18832.95
601.198	18677.3
601.395	18900.53
601.591	18675.26
601.787	18628.15
601.984	18335.29
602.18	18595.39
602.376	18327.1
602.572	18384.44
602.769	18456.12
602.965	18298.43
603.161	18161.22
603.357	18386.49
603.553	18136.64
603.75	18126.4
603.946	18118.21
604.142	17835.59
604.338	17501.77
604.534	17841.73
604.73	17679.94
604.926	17559.11
605.122	17684.04
605.318	17538.63
605.514	17233.49
605.71	17442.38
605.906	17419.85
606.102	17194.57
606.298	17137.23
606.494	17464.91
606.69	17022.55
606.886	17116.75
607.082	16901.72
607.278	17165.9
607.474	16741.97
607.67	16918.1
607.866	16971.35
608.062	16713.3
608.257	16506.46
608.453	16498.27
608.649	16569.94
608.845	16442.97
609.041	16639.58
609.236	16375.39
609.432	16428.63
609.628	16342.62
609.824	16565.85
610.019	16344.67
610.215	16285.28
610.411	16262.75
610.606	16201.31
610.802	16080.48
610.998	16084.58
611.193	15937.12
611.389	15844.96
611.584	15877.73
611.78	15699.56
611.976	15658.6
612.171	15715.94
612.367	15773.28
612.562	15535.72
612.758	15449.71
612.953	15375.98
613.149	15599.21
613.344	15259.24
613.539	15810.15
613.735	15316.59
613.93	15584.87
614.126	14982.77
614.321	15410.79
614.517	15255.15
614.712	15048.3
614.907	15021.68
615.103	15142.51
615.298	15128.17
615.493	14921.33
615.688	14827.12
615.884	14978.67
616.079	14710.39
616.274	15046.26
616.47	14716.53
616.665	14698.1
616.86	14648.95
617.055	14458.49
617.25	14532.22
617.445	14859.89
617.641	14288.51
617.836	14468.73
618.031	14362.23
618.226	14444.15
618.421	14296.7
618.616	14554.74
618.811	14052.99
619.006	14182.01
619.201	13620.87
619.396	13932.16
619.591	13794.95
619.786	13977.22
619.981	13598.34
620.176	13745.8
620.371	13436.55
620.566	13721.22
620.761	13729.41
620.956	13743.75
621.151	13457.03
621.346	13481.61
621.541	13246.09
621.735	13227.66
621.93	13188.75
622.125	12924.56
622.32	12842.64
622.515	13203.08
622.709	12965.52
622.904	12940.94
623.099	12951.18
623.294	12803.73
623.488	12498.58
623.683	12557.97
623.878	12482.2
624.072	12324.51
624.267	12353.18
624.462	12410.52
624.656	12240.54
624.851	12365.46
625.046	12160.67
625.24	12175
625.435	11964.06
625.629	12000.93
625.824	11646.63
626.018	11880.1
626.213	11687.59
626.407	11787.94
626.602	11380.39
626.796	11507.37
626.991	11370.15
627.185	11404.97
627.38	11054.76
627.574	11343.53
627.768	11232.94
627.963	11161.26
628.157	11093.68
628.352	10946.22
628.546	10866.35
628.74	11044.52
628.935	10768.05
629.129	10886.83
629.323	10503.86
629.517	10497.72
629.712	10639.03
629.906	10501.81
630.1	10622.64
630.294	10442.42
630.489	10352.31
630.683	10458.81
630.877	10329.78
631.071	10288.82
631.265	10260.15
631.459	10151.61
631.653	10133.18
631.848	9959.1
632.042	9934.53
632.236	10137.27
632.43	9995.96
632.624	9928.38
632.818	9514.69
633.012	9649.86
633.206	9649.86
633.4	9569.99
633.594	9412.29
633.788	9612.99
633.982	9625.28
634.176	9410.25
634.369	9223.88
634.563	9494.21
634.757	9158.35
634.951	9387.72
635.145	9250.5
635.339	9334.47
635.533	9180.87
635.726	8957.64
635.92	8902.35
636.114	8908.49
636.308	8888.01
636.501	8924.88
636.695	8677.07
636.889	8722.13
637.083	8707.79
637.276	8611.54
637.47	8548.05
637.664	8629.97
637.857	8539.86
638.051	8533.72
638.244	8302.29
638.438	8474.32
638.632	8382.17
638.825	8421.08
639.019	8253.14
639.212	7976.67
639.406	8029.91
639.599	8122.07
639.793	8263.38
639.986	7997.15
640.18	8232.66
640.373	7907.04
640.567	7790.3
640.76	7773.92
640.954	7857.89
641.147	7833.31
641.34	7726.82
641.534	7608.03
641.727	7790.3
641.92	7597.79
642.114	7702.24
642.307	7624.42
642.5	7360.23
642.694	7343.85
642.887	7401.19
643.08	7354.09
643.273	7253.73
643.467	7302.89
643.66	6940.4
643.853	6934.25
644.046	6975.21
644.239	7167.72
644.432	6852.33
644.626	6987.5
644.819	7012.07
645.012	6899.44
645.205	6780.65
645.398	6719.21
645.591	6653.68
645.784	6749.93
645.977	6622.96
646.17	6690.54
646.363	6330.1
646.556	6573.81
646.749	6452.98
646.942	6555.38
647.135	6524.66
647.328	6487.79
647.521	6188.79
647.714	6170.36
647.907	6264.57
648.099	6196.98
648.292	6174.46
648.485	6072.06
648.678	6100.73
648.871	5983.99
649.064	6168.31
649.256	6051.58
649.449	5902.08
649.642	6045.43
649.835	5838.59
650.027	5748.48
650.22	5695.23
650.413	5811.96
650.605	5701.37
650.798	5715.71
650.991	5605.12
651.183	5631.74
651.376	5664.51
651.568	5457.67
651.761	5617.41
651.954	5408.51
652.146	5287.68
652.339	5392.13
652.531	5347.08
652.724	5320.45
652.916	5265.16
653.109	5222.15
653.301	5136.13
653.494	5201.67
653.686	5242.63
653.879	5273.35
654.071	5015.3
654.263	4998.92
654.456	5039.88
654.648	5109.51
654.84	4951.82
655.033	5023.5
655.225	4892.43
655.417	4937.48
655.61	4964.11
655.802	4878.09
655.994	4794.12
656.186	4757.26
656.379	4804.36
656.571	4560.66
656.763	4716.3
656.955	4732.69
657.148	4822.8
657.34	4605.71
657.532	4574.99
657.724	4540.18
657.916	4574.99
658.108	4497.17
658.3	4495.12
658.492	4325.14
658.684	4339.48
658.876	4448.02
659.068	4384.53
659.26	4302.61
659.452	4208.41
659.644	4265.75
659.836	4251.41
660.028	4273.94
660.22	4155.16
660.412	4171.54
660.604	4044.57
660.796	4095.77
660.988	4081.43
661.18	3976.98
661.372	4069.14
661.563	4007.7
661.755	3954.46
661.947	3921.69
662.139	3831.58
662.331	3856.15
662.522	3745.56
662.714	3872.54
662.906	3807
663.097	3784.48
663.289	3751.71
663.481	3720.99
663.673	3780.38
663.864	3850.01
664.056	3641.12
664.247	3694.36
664.439	3479.33
664.631	3702.56
664.822	3737.37
665.014	3704.6
665.205	3645.21
665.397	3372.83
665.588	3536.67
665.78	3436.32
665.971	3401.51
666.163	3430.18
666.354	3358.5
666.546	3448.61
666.737	3325.73
666.929	3415.84
667.12	3389.22
667.311	3290.92
667.503	3378.98
667.694	3401.51
667.885	3262.24
668.077	3198.76
668.268	3172.13
668.459	3157.8
668.651	3278.63
668.842	3170.08
669.033	3131.17
669.224	3118.89
669.416	3014.44
669.607	3196.71
669.798	3084.07
669.989	3053.35
670.18	2879.27
670.371	2996.01
670.563	2946.86
670.754	3026.73
670.945	3024.68
671.136	3014.44
671.327	2961.19
671.518	2979.62
671.709	2957.1
671.9	3045.16
672.091	3022.63
672.282	2846.51
672.473	2965.29
672.664	2920.23
672.855	2916.14
673.046	2883.37
673.237	2840.36
673.428	2897.71
673.619	2856.75
673.809	2856.75
674	2750.25
674.191	2756.4
674.382	2780.97
674.573	2821.93
674.764	2662.19
674.954	2871.08
675.145	2768.68
675.336	2694.96
675.527	2731.82
675.717	2834.22
675.908	2572.08
676.099	2666.28
676.289	2699.05
676.48	2543.41
676.671	2670.38
676.861	2725.68
677.052	2621.23
677.243	2692.91
677.433	2666.28
677.624	2662.19
677.814	2615.09
678.005	2641.71
678.195	2547.5
678.386	2635.57
678.576	2572.08
678.767	2766.64
678.957	2719.53
679.148	2613.04
679.338	2494.26
679.529	2596.65
679.719	2498.35
679.909	2582.32
680.1	2553.65
680.29	2592.56
680.481	2457.39
680.671	2430.77
680.861	2590.51
681.052	2438.96
681.242	2520.88
681.432	2553.65
681.622	2522.93
681.813	2516.78
682.003	2488.11
682.193	2473.78
682.383	2451.25
682.573	2414.38
682.764	2330.42
682.954	2535.21
683.144	2467.63
683.334	2363.19
683.524	2459.44
683.714	2408.24
683.904	2559.79
684.094	2488.11
684.284	2463.54
684.474	2373.43
684.664	2502.45
684.854	2518.83
685.044	2406.19
685.234	2314.03
685.424	2398
685.614	2420.53
685.804	2338.61
685.994	2410.29
686.184	2363.19
686.374	2404.14
686.564	2357.04
686.753	2424.62
686.943	2402.1
687.133	2449.2
687.323	2363.19
687.513	2285.36
687.702	2422.58
687.892	2385.71
688.082	2346.8
688.272	2373.43
688.461	2336.56
688.651	2244.4
688.841	2283.31
689.03	2428.72
689.22	2359.09
689.41	2281.27
689.599	2203.44
689.789	2350.9
689.979	2361.14
690.168	2332.47
690.358	2318.13
690.547	2299.7
690.737	2420.53
690.926	2342.71
691.116	2438.96
691.305	2297.65
691.495	2318.13
691.684	2326.32
691.874	2346.8
692.063	2348.85
692.252	2340.66
692.442	2293.55
692.631	2348.85
692.82	2264.88
693.01	2400.05
693.199	2275.12
693.388	2164.53
693.578	2316.08
693.767	2330.42
693.956	2295.6
694.146	2371.38
694.335	2291.51
694.524	2307.89
694.713	2213.68
694.902	2283.31
695.092	2289.46
695.281	2338.61
695.47	2449.2
695.659	2299.7
695.848	2199.35
696.037	2365.23
696.226	2248.5
696.415	2221.88
696.604	2316.08
696.793	2275.12
696.982	2318.13
697.171	2207.54
697.36	2293.55
697.549	2379.57
697.738	2346.8
697.927	2324.27
698.116	2346.8
698.305	2258.74
698.494	2256.69
698.683	2223.92
698.872	2311.99
699.061	2250.55
699.25	2266.93
699.438	2297.65
699.627	2258.74
699.816	2326.32
700.005	2246.45
700.193	2336.56
700.382	2283.31
700.571	2252.59
700.76	2232.12
700.948	2340.66
701.137	2256.69
701.326	2242.36
701.514	2299.7
701.703	2248.5
701.892	2133.81
702.08	2240.31
702.269	2197.3
702.457	2213.68
702.646	2316.08
702.834	2264.88
703.023	2262.83
703.212	2168.63
703.4	2178.87
703.589	2311.99
703.777	2316.08
703.965	2131.76
704.154	2146.1
704.342	2250.55
704.531	2223.92
704.719	2264.88
704.907	2113.33
705.096	2127.67
705.284	2209.59
705.472	2152.24
705.661	2248.5
705.849	2105.14
706.037	2107.19
706.226	2047.8
706.414	2045.75
706.602	2037.56
706.79	2146.1
706.979	2080.57
707.167	2060.09
707.355	2084.66
707.543	2066.23
707.731	2062.13
707.919	2086.71
708.107	2105.14
708.296	2008.89
708.484	2082.61
708.672	2019.13
708.86	2049.85
709.048	1924.92
709.236	2037.56
709.424	1937.21
709.612	2084.66
709.8	2035.51
709.988	1963.83
710.176	2078.52
710.364	1969.98
710.551	1908.54
710.739	2070.33
710.927	2000.69
711.115	1980.22
711.303	2004.79
711.491	1953.59
711.679	1935.16
711.866	2000.69
712.054	1967.93
712.242	2010.93
712.43	1840.95
712.617	1937.21
712.805	1931.06
712.993	1939.26
713.181	1875.77
713.368	1902.39
713.556	1838.91
713.744	1963.83
713.931	1935.16
714.119	1845.05
714.306	1922.87
714.494	1732.41
714.682	1754.94
714.869	1826.62
715.057	1824.57
715.244	1851.19
715.432	1859.38
715.619	1859.38
715.807	1759.03
715.994	1769.27
716.182	1802.04
716.369	1824.57
716.556	1773.37
716.744	1791.8
716.931	1761.08
717.119	1777.47
717.306	1683.26
717.493	1808.19
717.681	1605.44
717.868	1675.07
718.055	1568.57
718.242	1832.76
718.43	1763.13
718.617	1779.51
718.804	1744.7
718.991	1699.64
719.179	1750.84
719.366	1738.55
719.553	1693.5
719.74	1664.83
719.927	1621.82
720.114	1644.35
720.301	1621.82
720.488	1662.78
720.676	1691.45
720.863	1644.35
721.05	1552.19
721.237	1619.77
721.424	1613.63
721.611	1607.48
721.798	1673.02
721.985	1697.6
722.172	1455.94
722.358	1662.78
722.545	1560.38
722.732	1574.72
722.919	1552.19
723.106	1546.05
723.293	1476.41
723.48	1445.7
723.667	1464.13
723.853	1480.51
724.04	1494.85
724.227	1476.41
724.414	1507.13
724.6	1419.07
724.787	1544
724.974	1457.98
725.161	1437.5
725.347	1488.7
725.534	1429.31
725.72	1597.24
725.907	1498.94
726.094	1468.22
726.28	1431.36
726.467	1316.67
726.653	1371.97
726.84	1431.36
727.027	1488.7
727.213	1541.95
727.4	1421.12
727.586	1431.36
727.773	1318.72
727.959	1353.54
728.145	1451.84
728.332	1394.5
728.518	1478.46
728.705	1349.44
728.891	1412.93
729.077	1283.91
729.264	1322.82
729.45	1457.98
729.636	1378.11
729.823	1310.53
730.009	1400.64
730.195	1443.65
730.382	1308.48
730.568	1283.91
730.754	1314.63
730.94	1337.15
731.126	1316.67
731.313	1394.5
731.499	1353.54
731.685	1302.34
731.871	1310.53
732.057	1261.38
732.243	1224.51
732.429	1220.42
732.615	1326.91
732.801	1263.43
732.987	1322.82
733.173	1300.29
733.359	1199.94
733.545	1285.95
733.731	1279.81
733.917	1240.9
734.103	1189.7
734.289	1161.03
734.475	1208.13
734.661	1333.06
734.847	1181.51
735.033	1275.71
735.219	1253.19
735.404	1318.72
735.59	1185.6
735.776	1230.66
735.962	1199.94
736.148	1201.99
736.333	1232.71
736.519	1210.18
736.705	1075.01
736.89	1218.37
737.076	1228.61
737.262	1154.88
737.447	1191.75
737.633	1214.27
737.819	1175.36
738.004	1120.07
738.19	1199.94
738.375	1136.45
738.561	1218.37
738.747	1128.26
738.932	1138.5
739.118	1199.94
739.303	1156.93
739.489	1138.5
739.674	1136.45
739.859	1118.02
740.045	1115.97
740.23	1193.8
740.416	1044.29
740.601	1161.03
740.786	1087.3
740.972	1101.64
741.157	1079.11
741.342	1052.49
741.528	1029.96
741.713	1038.15
741.898	1056.58
742.084	1152.84
742.269	1089.35
742.454	1136.45
742.639	1113.92
742.824	1040.2
743.01	1044.29
743.195	1077.06
743.38	1015.62
743.565	1013.57
743.75	1052.49
743.935	1040.2
744.12	950.09
744.305	937.8
744.49	1046.34
744.675	968.52
744.86	1005.38
745.045	1015.62
745.23	1052.49
745.415	980.81
745.6	933.7
745.785	962.37
745.97	964.42
746.155	917.32
746.34	1007.43
746.525	945.99
746.71	933.7
746.895	991.05
747.079	937.8
747.264	982.85
747.449	919.37
747.634	935.75
747.819	880.46
748.003	976.71
748.188	921.42
748.373	862.02
748.557	849.74
748.742	933.7
748.927	804.68
749.111	886.6
749.296	894.79
749.481	874.31
749.665	878.41
749.85	851.78
750.034	816.97
750.219	730.95
750.404	778.06
750.588	884.55
750.773	788.3
750.957	876.36
751.141	743.24
751.326	792.39
751.51	763.72
751.695	737.1
751.879	728.91
752.064	816.97
752.248	857.93
752.432	747.34
752.617	716.62
752.801	808.78
752.985	749.39
753.17	802.63
753.354	733
753.538	745.29
753.722	767.82
753.907	710.47
754.091	702.28
754.275	728.91
754.459	636.75
754.643	759.63
754.828	745.29
755.012	698.19
755.196	712.52
755.38	694.09
755.564	632.65
755.748	689.99
755.932	696.14
756.116	720.71
756.3	603.98
756.484	644.94
756.668	599.88
756.852	565.07
757.036	632.65
757.22	626.51
757.404	671.56
757.588	563.02
757.772	571.21
757.956	587.6
758.14	608.08
758.323	646.99
758.507	612.17
758.691	599.88
758.875	601.93
759.059	644.94
759.242	530.25
759.426	595.79
759.61	563.02
759.794	597.84
759.977	591.69
760.161	560.97
760.345	548.68
760.528	628.56
760.712	632.65
760.895	587.6
761.079	628.56
761.263	515.92
761.446	624.46
761.63	599.88
761.813	534.35
761.997	601.93
762.18	460.62
762.364	575.31
762.547	528.21
762.731	401.23
762.914	558.92
763.098	546.64
763.281	548.68
763.464	501.58
763.648	472.91
763.831	511.82
764.015	575.31
764.198	483.15
764.381	474.96
764.564	550.73
764.748	497.49
764.931	470.86
765.114	483.15
765.297	542.54
765.481	487.25
765.664	505.68
765.847	501.58
766.03	436.05
766.213	499.53
766.397	472.91
766.58	556.88
766.763	558.92
766.946	466.77
767.129	513.87
767.312	505.68
767.495	503.63
767.678	536.4
767.861	462.67
768.044	440.14
768.227	458.57
768.41	444.24
768.593	530.25
768.776	464.72
768.959	479.05
769.142	440.14
769.324	474.96
769.507	517.97
769.69	460.62
769.873	489.29
770.056	520.01
770.239	470.86
770.421	489.29
770.604	497.49
770.787	530.25
770.97	454.48
771.152	456.53
771.335	401.23
771.518	456.53
771.7	458.57
771.883	466.77
772.066	397.14
772.248	456.53
772.431	481.1
772.613	360.27
772.796	483.15
772.978	472.91
773.161	411.47
773.343	429.9
773.526	388.94
773.708	409.42
773.891	384.85
774.073	466.77
774.256	397.14
774.438	538.45
774.621	339.79
774.803	401.23
774.985	337.74
775.168	429.9
775.35	395.09
775.532	407.38
775.715	362.32
775.897	427.85
776.079	393.04
776.261	382.8
776.444	288.59
776.626	347.98
776.808	358.22
776.99	366.42
777.173	405.33
777.355	366.42
777.537	362.32
777.719	446.29
777.901	384.85
778.083	390.99
778.265	319.31
778.447	354.13
778.629	290.64
778.811	347.98
778.993	360.27
779.175	431.95
779.357	356.18
779.539	292.69
779.721	321.36
779.903	286.54
780.085	347.98
780.267	302.93
780.449	311.12
780.631	378.7
780.812	362.32
780.994	331.6
781.176	337.74
781.358	288.59
781.54	315.22
781.721	311.12
781.903	272.21
782.085	300.88
782.267	304.98
782.448	212.82
782.63	247.63
782.812	341.84
782.993	290.64
783.175	288.59
783.357	198.48
783.538	319.31
783.72	259.92
783.901	225.11
784.083	210.77
784.264	204.63
784.446	227.15
784.627	290.64
784.809	276.31
784.99	239.44
785.172	208.72
785.353	255.83
785.535	249.68
785.716	221.01
785.897	237.39
786.079	233.3
786.26	300.88
786.441	317.26
786.623	249.68
786.804	247.63
786.985	245.59
787.167	227.15
787.348	161.62
787.529	227.15
787.71	243.54
787.891	276.31
788.073	274.26
788.254	202.58
788.435	264.02
788.616	284.5
788.797	198.48
788.978	225.11
789.159	192.34
789.34	227.15
789.522	141.14
789.703	214.87
789.884	198.48
790.065	241.49
790.246	155.47
790.427	184.15
790.607	249.68
790.788	149.33
790.969	182.1
791.15	122.71
791.331	188.24
791.512	194.39
791.693	173.91
791.874	161.62
792.054	214.87
792.235	200.53
792.416	196.43
792.597	192.34
792.778	143.19
792.958	206.67
793.139	89.94
793.32	169.81
793.5	147.28
793.681	137.04
793.862	186.19
794.042	210.77
794.223	175.95
794.404	288.59
794.584	175.95
794.765	102.23
794.945	124.76
795.126	212.82
795.306	190.29
795.487	124.76
795.667	151.38
795.848	96.08
796.028	91.99
796.209	151.38
796.389	139.09
796.57	163.67
796.75	135
796.93	110.42
797.111	159.57
797.291	145.24
797.471	204.63
797.652	128.85
797.832	96.08
798.012	159.57
798.192	126.8
798.373	139.09
798.553	169.81
798.733	163.67
798.913	69.46
799.093	214.87
799.274	182.1
799.454	227.15
799.634	135
799.814	153.43
799.994	247.63
800.174	149.33
800.354	83.8
800.534	153.43
800.714	163.67
800.894	155.47
801.074	77.65
801.254	71.51
801.434	143.19
801.614	98.13
801.794	124.76
801.974	304.98
802.154	171.86
802.334	65.36
802.514	94.04
802.693	91.99
802.873	100.18
803.053	145.24
803.233	85.84
803.413	110.42
803.592	139.09
803.772	126.8
803.952	77.65
804.131	81.75
804.311	163.67
804.491	67.41
804.67	-0.17
804.85	132.95
805.03	75.6
805.209	143.19
805.389	48.98
805.568	161.62
805.748	116.56
805.928	61.27
806.107	151.38
806.287	89.94
806.466	59.22
806.646	139.09
806.825	61.27
807.004	145.24
807.184	61.27
807.363	44.88
807.543	65.36
807.722	57.17
807.901	128.85
808.081	10.07
808.26	79.7
808.439	124.76
808.619	96.08
808.798	153.43
808.977	100.18
809.156	167.76
809.336	75.6
809.515	104.28
809.694	94.04
809.873	89.94
810.052	102.23
810.231	108.37
810.411	18.26
810.59	116.56
810.769	116.56
810.948	34.64
811.127	59.22
811.306	130.9
811.485	59.22
811.664	87.89
811.843	81.75
812.022	87.89
812.201	145.24
812.38	94.04
812.559	40.79
812.737	94.04
812.916	81.75
813.095	126.8
813.274	38.74
813.453	96.08
813.632	51.03
813.811	102.23
813.989	79.7
814.168	106.32
814.347	83.8
814.526	57.17
814.704	48.98
814.883	65.36
815.062	79.7
815.24	42.84
815.419	89.94
815.598	75.6
815.776	79.7
815.955	53.08
816.133	63.32
816.312	48.98
816.49	85.84
816.669	-12.46
816.847	59.22
817.026	59.22
817.204	48.98
817.383	24.4
817.561	120.66
817.74	94.04
817.918	75.6
818.097	61.27
818.275	10.07
818.453	-14.51
818.632	38.74
818.81	34.64
818.988	32.6
819.167	163.67
819.345	28.5
819.523	96.08
819.701	96.08
819.879	63.32
820.058	124.76
820.236	22.36
820.414	20.31
820.592	10.07
820.77	30.55
820.948	16.21
821.127	30.55
821.305	87.89
821.483	51.03
821.661	34.64
821.839	114.52
822.017	26.45
822.195	-2.22
822.373	59.22
822.551	118.61
822.729	46.93
822.907	22.36
823.085	96.08
823.262	26.45
823.44	38.74
823.618	51.03
823.796	61.27
823.974	22.36
824.152	51.03
824.329	8.02
824.507	77.65
824.685	8.02
824.863	83.8
825.04	67.41
825.218	139.09
825.396	75.6
825.574	87.89
825.751	-8.36
825.929	-0.17
826.107	14.17
826.284	-34.99
826.462	102.23
826.639	89.94
826.817	16.21
826.994	108.37
827.172	40.79
827.349	69.46
827.527	59.22
827.704	51.03
827.882	65.36
828.059	55.12
828.237	51.03
828.414	5.97
828.591	34.64
828.769	110.42
828.946	-37.03
829.124	51.03
829.301	14.17
829.478	1.88
829.655	85.84
829.833	67.41
830.01	40.79
830.187	44.88
830.364	-16.55
830.542	24.4
830.719	141.14
830.896	73.56
831.073	-14.51
831.25	55.12
831.427	69.46
831.604	14.17
831.782	59.22
831.959	1.88
832.136	-18.6
832.313	30.55
832.49	24.4
832.667	-0.17
832.844	-12.46
833.021	73.56
833.198	8.02
833.374	28.5
833.551	-24.75
833.728	65.36
833.905	-12.46
834.082	30.55
834.259	28.5
834.436	69.46
834.612	83.8
834.789	114.52
834.966	-0.17
835.143	73.56
835.319	-2.22
835.496	18.26
835.673	26.45
835.85	-8.36
836.026	53.08
836.203	34.64
836.38	40.79
836.556	24.4
836.733	65.36
836.909	-26.79
837.086	16.21
837.262	38.74
837.439	63.32
837.616	96.08
837.792	-30.89
837.968	-22.7
838.145	26.45
838.321	18.26
838.498	-30.89
838.674	53.08
838.851	75.6
839.027	-16.55
839.203	-4.27
839.38	16.21
839.556	-10.41
839.732	-34.99
839.909	-4.27
840.085	89.94
840.261	-4.27
840.437	-16.55
840.614	-28.84
840.79	46.93
840.966	38.74
841.142	28.5
841.318	67.41
841.494	79.7
841.671	-86.19
841.847	-4.27
842.023	-12.46
842.199	22.36
842.375	-41.13
842.551	12.12
842.727	55.12
842.903	34.64
843.079	-24.75
843.255	63.32
843.431	8.02
843.607	18.26
843.783	-0.17
843.959	108.37
844.134	8.02
844.31	24.4
844.486	-20.65
844.662	-30.89
844.838	-4.27
845.013	53.08
845.189	63.32
845.365	14.17
845.541	32.6
845.716	44.88
845.892	10.07
846.068	61.27
846.244	1.88
846.419	34.64
846.595	28.5
846.77	3.93
846.946	-2.22
847.122	-4.27
847.297	28.5
847.473	98.13
847.648	-12.46
847.824	59.22
847.999	-57.51
848.175	100.18
848.35	-2.22
848.526	36.69
848.701	-94.38
848.876	-39.08
849.052	67.41
849.227	16.21
849.403	32.6
849.578	-57.51
849.753	28.5
849.929	106.32
850.104	-4.27
850.279	-6.31
850.454	8.02
850.63	20.31
850.805	32.6
850.98	-20.65
851.155	-2.22
851.33	-0.17
851.505	-18.6
851.681	22.36
851.856	-14.51
852.031	44.88
852.206	28.5
852.381	77.65
852.556	38.74
852.731	24.4
852.906	20.31
853.081	-18.6
853.256	46.93
853.431	53.08
853.606	1.88
853.781	-34.99
853.956	-55.47
854.131	-0.17
854.305	-39.08
854.48	63.32
854.655	-24.75
854.83	-49.32
855.005	-14.51
855.18	-37.03
855.354	8.02
855.529	-18.6
855.704	-32.94
855.879	87.89
856.053	-20.65
856.228	-6.31
856.403	-61.61
856.577	-41.13
856.752	-34.99
856.926	63.32
857.101	-28.84
857.276	79.7
857.45	44.88
857.625	42.84
857.799	-0.17
857.974	-59.56
858.148	65.36
858.323	-114.86
858.497	34.64
858.672	20.31
858.846	-12.46
859.02	-8.36
859.195	-26.79
859.369	-8.36
859.543	63.32
859.718	-37.03
859.892	-22.7
860.066	-10.41
860.241	-73.9
860.415	-34.99
860.589	-73.9
860.763	5.97
860.938	-47.27
861.112	10.07
861.286	79.7
861.46	-53.42
861.634	5.97
861.808	42.84
861.982	-53.42
862.157	-47.27
862.331	-10.41
862.505	30.55
862.679	20.31
862.853	-18.6
863.027	8.02
863.201	75.6
863.375	-98.47
863.549	-18.6
863.722	-65.71
863.896	79.7
864.07	26.45
864.244	22.36
864.418	-57.51
864.592	12.12
864.766	-2.22
864.939	-18.6
865.113	-18.6
865.287	8.02
865.461	3.93
865.634	-18.6
865.808	-16.55
865.982	-47.27
866.156	-49.32
866.329	-82.09
866.503	-34.99
866.676	18.26
866.85	-22.7
867.024	-51.37
867.197	-49.32
867.371	-12.46
867.544	-57.51
867.718	1.88
867.891	-92.33
868.065	44.88
868.238	18.26
868.412	-22.7
868.585	20.31
868.759	26.45
868.932	-30.89
869.105	-30.89
869.279	-63.66
869.452	57.17
869.625	10.07
869.799	59.22
869.972	48.98
870.145	16.21
870.319	69.46
870.492	-41.13
870.665	3.93
870.838	-12.46
871.011	42.84
871.185	-80.04
871.358	-41.13
871.531	32.6
871.704	-12.46
871.877	71.51
872.05	18.26
872.223	-34.99
872.396	-10.41
872.569	38.74
872.742	-43.18
872.915	34.64
873.088	-18.6
873.261	-12.46
873.434	-8.36
873.607	-49.32
873.78	3.93
873.953	24.4
874.126	-39.08
874.299	1.88
874.471	-10.41
874.644	-28.84
874.817	30.55
874.99	-4.27
875.163	-49.32
875.335	71.51
875.508	34.64
875.681	46.93
875.853	-20.65
876.026	10.07
876.199	10.07
876.371	-45.23
876.544	-4.27
876.717	-18.6
876.889	-26.79
877.062	-6.31
877.234	-20.65
877.407	-8.36
877.579	34.64
877.752	-2.22
877.924	-32.94
878.097	-24.75
878.269	-24.75
878.442	-0.17
878.614	-28.84
878.786	-24.75
878.959	-57.51
879.131	-8.36
879.303	-77.99
879.476	20.31
879.648	-28.84
879.82	12.12
879.993	-30.89
880.165	-67.75
880.337	-28.84
880.509	75.6
880.681	-34.99
880.854	42.84
881.026	48.98
881.198	14.17
881.37	-14.51
881.542	85.84
881.714	-24.75
881.886	-20.65
882.058	-55.47
882.23	55.12
882.402	-12.46
882.574	32.6
882.746	36.69
882.918	30.55
883.09	46.93
883.262	-57.51
883.434	-43.18
883.606	-41.13
883.778	-32.94
883.95	-4.27
884.122	-32.94
884.293	8.02
884.465	12.12
884.637	53.08
884.809	-0.17
884.98	-39.08
885.152	-0.17
885.324	14.17
885.496	5.97
885.667	57.17
885.839	-12.46
886.011	61.27
886.182	-18.6
886.354	32.6
886.525	26.45
886.697	-45.23
886.869	22.36
887.04	38.74
887.212	3.93
887.383	-20.65
887.555	55.12
887.726	3.93
887.897	-39.08
888.069	34.64
888.24	-57.51
888.412	1.88
888.583	-8.36
888.754	-8.36
888.926	-59.56
889.097	14.17
889.268	-37.03
889.44	-14.51
889.611	-4.27
889.782	-45.23
889.953	-71.85
890.125	-6.31
890.296	10.07
890.467	-30.89
890.638	20.31
890.809	-10.41
890.98	32.6
891.151	-39.08
891.323	-26.79
891.494	-24.75
891.665	10.07
891.836	51.03
892.007	-43.18
892.178	-59.56
892.349	-32.94
892.52	12.12
892.691	67.41
892.862	-2.22
893.032	-8.36
893.203	-43.18
893.374	91.99
893.545	-80.04
893.716	5.97
893.887	8.02
894.057	8.02
894.228	-14.51
894.399	-2.22
894.57	-4.27
894.74	-26.79
894.911	-22.7
895.082	-20.65
895.253	-6.31
895.423	20.31
895.594	-30.89
895.764	-34.99
895.935	-8.36
896.106	-2.22
896.276	-6.31
896.447	22.36
896.617	51.03
896.788	18.26
896.958	34.64
897.129	8.02
897.299	-14.51
897.47	-51.37
897.64	57.17
897.81	-34.99
897.981	-57.51
898.151	-18.6
898.322	83.8
898.492	-18.6
898.662	42.84
898.832	18.26
899.003	-26.79
899.173	-108.71
899.343	-4.27
899.513	-28.84
