Data from USB4F104151__36__13-53-03-399.txt Node

Date: Thu Mar 13 13:53:03 EDT 2025
User: louis
Spectrometer: USB4F10415
Trigger mode: 4
Integration Time (sec): 1.000000E-2
Scans to average: 1
Electric dark correction enabled: true
Nonlinearity correction enabled: false
Boxcar width: 0
XAxis mode: Wavelengths
Number of Pixels in Spectrum: 3648
>>>>>Begin Spectral Data<<<<<
178.204	-31.57
178.424	-31.57
178.644	-31.57
178.864	-54.1
179.084	-54.1
179.304	-68.44
179.524	79.02
179.744	25.77
179.964	48.3
180.184	-0.85
180.404	-33.62
180.624	-43.86
180.844	-17.24
181.064	-41.81
181.283	5.29
181.503	17.58
181.723	29.87
181.943	27.82
182.163	29.87
182.383	-7
182.602	15.53
182.822	-35.67
183.042	19.63
183.262	17.58
183.482	13.48
183.701	13.48
183.921	3.24
184.141	-19.29
184.361	-35.67
184.58	64.68
184.8	62.63
185.02	-33.62
185.239	-2.9
185.459	-4.95
185.679	44.2
185.898	31.91
186.118	33.96
186.338	50.35
186.557	95.4
186.777	31.91
186.997	-64.34
187.216	-4.95
187.436	23.72
187.655	58.54
187.875	1.19
188.095	56.49
188.314	33.96
188.534	17.58
188.753	72.87
188.973	3.24
189.192	136.36
189.412	-90.96
189.631	54.44
189.851	-29.52
190.07	21.67
190.29	27.82
190.509	-31.57
190.729	-33.62
190.948	44.2
191.168	13.48
191.387	40.11
191.607	-7
191.826	11.43
192.045	-17.24
192.265	-80.72
192.484	13.48
192.704	31.91
192.923	-84.82
193.142	83.11
193.362	46.25
193.581	60.59
193.8	87.21
194.02	-11.09
194.239	-54.1
194.458	-13.14
194.678	-0.85
194.897	60.59
195.116	-15.19
195.335	19.63
195.555	42.15
195.774	66.73
195.993	36.01
196.212	-17.24
196.432	70.83
196.651	-25.43
196.87	-17.24
197.089	93.35
197.308	15.53
197.528	33.96
197.747	-2.9
197.966	-27.48
198.185	56.49
198.404	31.91
198.623	66.73
198.842	56.49
199.062	36.01
199.281	130.22
199.5	-11.09
199.719	33.96
199.938	11.43
200.157	-37.72
200.376	-41.81
200.595	23.72
200.814	62.63
201.033	46.25
201.252	-2.9
201.471	36.01
201.69	19.63
201.909	124.07
202.128	36.01
202.347	56.49
202.566	3.24
202.785	38.06
203.004	-52.05
203.223	107.69
203.442	36.01
203.661	68.78
203.879	-11.09
204.098	13.48
204.317	76.97
204.536	87.21
204.755	-21.33
204.974	31.91
205.193	19.63
205.411	46.25
205.63	-17.24
205.849	42.15
206.068	23.72
206.287	87.21
206.505	15.53
206.724	23.72
206.943	7.34
207.162	38.06
207.381	36.01
207.599	-25.43
207.818	-19.29
208.037	48.3
208.255	-4.95
208.474	33.96
208.693	19.63
208.911	19.63
209.13	-13.14
209.349	46.25
209.567	13.48
209.786	38.06
210.005	13.48
210.223	-33.62
210.442	-13.14
210.661	50.35
210.879	38.06
211.098	62.63
211.316	-4.95
211.535	29.87
211.753	-39.76
211.972	1.19
212.191	3.24
212.409	-4.95
212.628	-0.85
212.846	46.25
213.065	74.92
213.283	-9.05
213.502	89.26
213.72	5.29
213.938	-27.48
214.157	17.58
214.375	-7
214.594	72.87
214.812	23.72
215.031	-15.19
215.249	13.48
215.467	42.15
215.686	25.77
215.904	23.72
216.122	-2.9
216.341	44.2
216.559	136.36
216.778	-2.9
216.996	17.58
217.214	42.15
217.432	-25.43
217.651	-25.43
217.869	72.87
218.087	17.58
218.306	3.24
218.524	9.39
218.742	-21.33
218.96	46.25
219.179	85.16
219.397	21.67
219.615	89.26
219.833	17.58
220.051	29.87
220.27	-35.67
220.488	38.06
220.706	21.67
220.924	36.01
221.142	17.58
221.36	-60.24
221.578	33.96
221.796	58.54
222.015	29.87
222.233	-13.14
222.451	29.87
222.669	-0.85
222.887	81.07
223.105	-4.95
223.323	29.87
223.541	23.72
223.759	15.53
223.977	3.24
224.195	76.97
224.413	-31.57
224.631	40.11
224.849	-25.43
225.067	-23.38
225.285	5.29
225.503	36.01
225.721	79.02
225.939	50.35
226.157	54.44
226.375	27.82
226.592	-31.57
226.81	13.48
227.028	7.34
227.246	-11.09
227.464	-7
227.682	83.11
227.9	29.87
228.117	105.64
228.335	60.59
228.553	21.67
228.771	-50
228.989	36.01
229.206	38.06
229.424	23.72
229.642	64.68
229.86	9.39
230.077	56.49
230.295	13.48
230.513	17.58
230.731	-31.57
230.948	40.11
231.166	62.63
231.384	3.24
231.601	50.35
231.819	27.82
232.037	38.06
232.254	70.83
232.472	36.01
232.689	50.35
232.907	79.02
233.125	38.06
233.342	72.87
233.56	25.77
233.777	5.29
233.995	25.77
234.213	29.87
234.43	72.87
234.648	87.21
234.865	-31.57
235.083	44.2
235.3	9.39
235.518	72.87
235.735	33.96
235.953	19.63
236.17	-43.86
236.388	38.06
236.605	-7
236.822	29.87
237.04	58.54
237.257	-11.09
237.475	7.34
237.692	1.19
237.909	15.53
238.127	36.01
238.344	5.29
238.562	-52.05
238.779	44.2
238.996	-9.05
239.214	29.87
239.431	-2.9
239.648	-15.19
239.865	48.3
240.083	15.53
240.3	21.67
240.517	66.73
240.735	7.34
240.952	58.54
241.169	40.11
241.386	89.26
241.603	19.63
241.821	3.24
242.038	1.19
242.255	62.63
242.472	-11.09
242.689	27.82
242.907	-15.19
243.124	-23.38
243.341	23.72
243.558	93.35
243.775	62.63
243.992	-13.14
244.209	-4.95
244.426	56.49
244.643	-39.76
244.86	-52.05
245.078	27.82
245.295	117.93
245.512	17.58
245.729	-13.14
245.946	72.87
246.163	83.11
246.38	66.73
246.597	9.39
246.814	1.19
247.031	60.59
247.248	19.63
247.464	76.97
247.681	-15.19
247.898	38.06
248.115	54.44
248.332	27.82
248.549	-9.05
248.766	27.82
248.983	58.54
249.2	5.29
249.417	27.82
249.633	-66.39
249.85	15.53
250.067	5.29
250.284	38.06
250.501	23.72
250.717	-7
250.934	36.01
251.151	-4.95
251.368	54.44
251.585	54.44
251.801	70.83
252.018	-21.33
252.235	25.77
252.451	56.49
252.668	19.63
252.885	101.55
253.102	-41.81
253.318	50.35
253.535	68.78
253.752	1.19
253.968	13.48
254.185	-33.62
254.401	-7
254.618	31.91
254.835	-0.85
255.051	44.2
255.268	29.87
255.484	3.24
255.701	13.48
255.917	19.63
256.134	44.2
256.351	-0.85
256.567	3.24
256.784	58.54
257	-0.85
257.217	-13.14
257.433	29.87
257.65	36.01
257.866	7.34
258.082	-15.19
258.299	19.63
258.515	81.07
258.732	64.68
258.948	56.49
259.165	46.25
259.381	19.63
259.597	-19.29
259.814	19.63
260.03	19.63
260.246	31.91
260.463	62.63
260.679	66.73
260.895	3.24
261.112	48.3
261.328	-25.43
261.544	44.2
261.761	56.49
261.977	-35.67
262.193	38.06
262.409	40.11
262.626	40.11
262.842	50.35
263.058	25.77
263.274	-13.14
263.49	-41.81
263.707	-39.76
263.923	36.01
264.139	56.49
264.355	11.43
264.571	42.15
264.787	27.82
265.004	-9.05
265.22	-0.85
265.436	3.24
265.652	-29.52
265.868	64.68
266.084	70.83
266.3	-37.72
266.516	-37.72
266.732	52.39
266.948	29.87
267.164	58.54
267.38	29.87
267.596	99.5
267.812	79.02
268.028	38.06
268.244	17.58
268.46	3.24
268.676	15.53
268.892	97.45
269.108	33.96
269.324	54.44
269.54	19.63
269.756	-19.29
269.972	11.43
270.188	52.39
270.403	60.59
270.619	13.48
270.835	7.34
271.051	29.87
271.267	9.39
271.483	13.48
271.698	-33.62
271.914	-58.2
272.13	1.19
272.346	1.19
272.562	46.25
272.777	50.35
272.993	38.06
273.209	1.19
273.425	70.83
273.64	126.12
273.856	7.34
274.072	-54.1
274.287	46.25
274.503	7.34
274.719	62.63
274.934	-41.81
275.15	-11.09
275.366	-43.86
275.581	-2.9
275.797	-4.95
276.012	3.24
276.228	-21.33
276.444	-41.81
276.659	105.64
276.875	-41.81
277.09	29.87
277.306	36.01
277.521	33.96
277.737	42.15
277.952	58.54
278.168	-23.38
278.383	-45.91
278.599	31.91
278.814	-11.09
279.03	5.29
279.245	11.43
279.461	29.87
279.676	54.44
279.892	-13.14
280.107	56.49
280.322	27.82
280.538	54.44
280.753	-17.24
280.969	36.01
281.184	109.74
281.399	-4.95
281.615	25.77
281.83	38.06
282.045	40.11
282.26	46.25
282.476	-27.48
282.691	21.67
282.906	60.59
283.122	66.73
283.337	58.54
283.552	48.3
283.767	23.72
283.983	31.91
284.198	7.34
284.413	76.97
284.628	36.01
284.843	7.34
285.058	21.67
285.274	-68.44
285.489	5.29
285.704	89.26
285.919	-2.9
286.134	23.72
286.349	21.67
286.564	38.06
286.779	11.43
286.995	5.29
287.21	52.39
287.425	23.72
287.64	83.11
287.855	54.44
288.07	23.72
288.285	81.07
288.5	11.43
288.715	36.01
288.93	29.87
289.145	58.54
289.36	46.25
289.575	19.63
289.79	-56.15
290.004	23.72
290.219	38.06
290.434	29.87
290.649	-21.33
290.864	27.82
291.079	38.06
291.294	-27.48
291.509	7.34
291.724	87.21
291.938	-19.29
292.153	23.72
292.368	1.19
292.583	70.83
292.798	-62.29
293.012	70.83
293.227	-29.52
293.442	19.63
293.657	17.58
293.871	31.91
294.086	29.87
294.301	15.53
294.516	21.67
294.73	29.87
294.945	9.39
295.16	66.73
295.374	-11.09
295.589	36.01
295.804	68.78
296.018	50.35
296.233	42.15
296.447	-0.85
296.662	72.87
296.877	40.11
297.091	58.54
297.306	13.48
297.52	44.2
297.735	-4.95
297.949	54.44
298.164	38.06
298.378	19.63
298.593	68.78
298.807	52.39
299.022	7.34
299.236	85.16
299.451	3.24
299.665	74.92
299.88	50.35
300.094	9.39
300.309	29.87
300.523	46.25
300.737	19.63
300.952	-0.85
301.166	50.35
301.381	66.73
301.595	-15.19
301.809	40.11
302.024	31.91
302.238	66.73
302.452	40.11
302.667	15.53
302.881	74.92
303.095	-2.9
303.309	11.43
303.524	3.24
303.738	-9.05
303.952	56.49
304.166	66.73
304.381	72.87
304.595	70.83
304.809	9.39
305.023	64.68
305.237	-17.24
305.452	40.11
305.666	15.53
305.88	40.11
306.094	68.78
306.308	25.77
306.522	-9.05
306.736	23.72
306.95	36.01
307.164	33.96
307.379	58.54
307.593	29.87
307.807	38.06
308.021	38.06
308.235	31.91
308.449	-9.05
308.663	-54.1
308.877	19.63
309.091	31.91
309.305	93.35
309.519	-29.52
309.733	95.4
309.947	13.48
310.161	64.68
310.374	19.63
310.588	-9.05
310.802	-7
311.016	38.06
311.23	21.67
311.444	31.91
311.658	46.25
311.872	97.45
312.085	38.06
312.299	52.39
312.513	38.06
312.727	48.3
312.941	40.11
313.154	76.97
313.368	13.48
313.582	48.3
313.796	7.34
314.009	52.39
314.223	1.19
314.437	52.39
314.651	17.58
314.864	60.59
315.078	-33.62
315.292	27.82
315.505	17.58
315.719	122.02
315.933	29.87
316.146	89.26
316.36	5.29
316.573	25.77
316.787	27.82
317.001	-7
317.214	46.25
317.428	13.48
317.641	38.06
317.855	42.15
318.068	-2.9
318.282	23.72
318.495	-39.76
318.709	33.96
318.922	62.63
319.136	74.92
319.349	21.67
319.563	3.24
319.776	58.54
319.99	-43.86
320.203	113.83
320.417	64.68
320.63	40.11
320.843	27.82
321.057	-21.33
321.27	70.83
321.483	46.25
321.697	48.3
321.91	15.53
322.124	1.19
322.337	13.48
322.55	93.35
322.763	1.19
322.977	33.96
323.19	-74.58
323.403	33.96
323.617	-2.9
323.83	15.53
324.043	-11.09
324.256	58.54
324.469	-9.05
324.683	52.39
324.896	-11.09
325.109	52.39
325.322	-25.43
325.535	-29.52
325.748	105.64
325.962	-0.85
326.175	42.15
326.388	50.35
326.601	31.91
326.814	56.49
327.027	17.58
327.24	42.15
327.453	3.24
327.666	17.58
327.879	60.59
328.092	52.39
328.305	91.31
328.518	29.87
328.731	-70.48
328.944	38.06
329.157	-17.24
329.37	23.72
329.583	-47.96
329.796	54.44
330.009	38.06
330.222	36.01
330.435	46.25
330.648	66.73
330.861	9.39
331.073	64.68
331.286	50.35
331.499	5.29
331.712	52.39
331.925	48.3
332.138	31.91
332.35	132.26
332.563	31.91
332.776	-19.29
332.989	79.02
333.202	-11.09
333.414	36.01
333.627	-27.48
333.84	-7
334.053	132.26
334.265	109.74
334.478	25.77
334.691	87.21
334.903	-72.53
335.116	-43.86
335.329	74.92
335.541	54.44
335.754	54.44
335.966	66.73
336.179	3.24
336.392	40.11
336.604	40.11
336.817	-0.85
337.029	70.83
337.242	-2.9
337.454	64.68
337.667	7.34
337.88	50.35
338.092	36.01
338.305	33.96
338.517	56.49
338.729	-37.72
338.942	42.15
339.154	17.58
339.367	21.67
339.579	105.64
339.792	21.67
340.004	-31.57
340.217	-60.24
340.429	40.11
340.641	-21.33
340.854	-0.85
341.066	85.16
341.278	-27.48
341.491	33.96
341.703	-0.85
341.915	-13.14
342.128	50.35
342.34	33.96
342.552	-35.67
342.764	58.54
342.977	3.24
343.189	-0.85
343.401	25.77
343.613	-33.62
343.826	5.29
344.038	15.53
344.25	19.63
344.462	29.87
344.674	68.78
344.886	-9.05
345.099	21.67
345.311	50.35
345.523	101.55
345.735	21.67
345.947	44.2
346.159	-2.9
346.371	95.4
346.583	-9.05
346.795	93.35
347.007	3.24
347.219	-43.86
347.431	66.73
347.643	52.39
347.855	52.39
348.067	25.77
348.279	21.67
348.491	113.83
348.703	1.19
348.915	70.83
349.127	-19.29
349.339	99.5
349.551	5.29
349.763	68.78
349.975	5.29
350.187	64.68
350.399	36.01
350.61	89.26
350.822	48.3
351.034	1.19
351.246	29.87
351.458	33.96
351.669	36.01
351.881	9.39
352.093	19.63
352.305	76.97
352.517	36.01
352.728	111.78
352.94	50.35
353.152	48.3
353.363	38.06
353.575	23.72
353.787	15.53
353.999	23.72
354.21	29.87
354.422	-7
354.633	33.96
354.845	-17.24
355.057	89.26
355.268	27.82
355.48	17.58
355.692	-4.95
355.903	11.43
356.115	9.39
356.326	33.96
356.538	81.07
356.749	5.29
356.961	42.15
357.172	17.58
357.384	74.92
357.595	66.73
357.807	56.49
358.018	-2.9
358.23	15.53
358.441	15.53
358.653	60.59
358.864	42.15
359.075	99.5
359.287	54.44
359.498	99.5
359.709	72.87
359.921	23.72
360.132	70.83
360.344	-2.9
360.555	-9.05
360.766	1.19
360.977	-25.43
361.189	68.78
361.4	27.82
361.611	17.58
361.823	23.72
362.034	66.73
362.245	31.91
362.456	-9.05
362.667	-7
362.879	46.25
363.09	68.78
363.301	19.63
363.512	50.35
363.723	36.01
363.935	48.3
364.146	21.67
364.357	48.3
364.568	58.54
364.779	74.92
364.99	25.77
365.201	27.82
365.412	87.21
365.623	27.82
365.834	54.44
366.045	17.58
366.256	48.3
366.467	9.39
366.678	25.77
366.889	29.87
367.1	36.01
367.311	33.96
367.522	-13.14
367.733	36.01
367.944	36.01
368.155	76.97
368.366	-33.62
368.577	46.25
368.788	21.67
368.999	56.49
369.209	-35.67
369.42	50.35
369.631	64.68
369.842	36.01
370.053	15.53
370.264	-11.09
370.474	48.3
370.685	38.06
370.896	-2.9
371.107	72.87
371.317	-7
371.528	-31.57
371.739	3.24
371.95	101.55
372.16	21.67
372.371	56.49
372.582	27.82
372.792	83.11
373.003	31.91
373.214	-31.57
373.424	68.78
373.635	13.48
373.846	11.43
374.056	-39.76
374.267	3.24
374.477	48.3
374.688	72.87
374.898	17.58
375.109	31.91
375.319	62.63
375.53	76.97
375.74	50.35
375.951	48.3
376.161	-9.05
376.372	76.97
376.582	29.87
376.793	46.25
377.003	62.63
377.214	31.91
377.424	64.68
377.635	56.49
377.845	21.67
378.055	93.35
378.266	-9.05
378.476	33.96
378.686	74.92
378.897	11.43
379.107	25.77
379.317	107.69
379.528	17.58
379.738	50.35
379.948	-45.91
380.158	58.54
380.369	-50
380.579	85.16
380.789	-76.63
380.999	48.3
381.21	7.34
381.42	76.97
381.63	3.24
381.84	36.01
382.05	-60.24
382.261	21.67
382.471	40.11
382.681	-43.86
382.891	113.83
383.101	101.55
383.311	103.59
383.521	15.53
383.731	-39.76
383.941	9.39
384.151	58.54
384.361	52.39
384.571	7.34
384.781	48.3
384.991	62.63
385.201	72.87
385.411	-2.9
385.621	97.45
385.831	56.49
386.041	-47.96
386.251	21.67
386.461	95.4
386.671	52.39
386.881	36.01
387.091	25.77
387.301	119.98
387.511	23.72
387.72	-23.38
387.93	-17.24
388.14	58.54
388.35	60.59
388.56	36.01
388.769	19.63
388.979	58.54
389.189	15.53
389.399	60.59
389.609	7.34
389.818	70.83
390.028	1.19
390.238	17.58
390.447	46.25
390.657	122.02
390.867	-29.52
391.076	-2.9
391.286	66.73
391.496	21.67
391.705	66.73
391.915	23.72
392.125	181.42
392.334	40.11
392.544	54.44
392.753	-41.81
392.963	-19.29
393.172	27.82
393.382	31.91
393.591	138.41
393.801	36.01
394.01	19.63
394.22	68.78
394.429	79.02
394.639	5.29
394.848	23.72
395.058	46.25
395.267	27.82
395.477	79.02
395.686	-21.33
395.895	68.78
396.105	60.59
396.314	21.67
396.524	60.59
396.733	60.59
396.942	62.63
397.152	76.97
397.361	99.5
397.57	66.73
397.78	83.11
397.989	21.67
398.198	95.4
398.407	25.77
398.617	89.26
398.826	79.02
399.035	29.87
399.244	83.11
399.453	89.26
399.663	70.83
399.872	62.63
400.081	36.01
400.29	54.44
400.499	64.68
400.708	107.69
400.917	52.39
401.127	74.92
401.336	23.72
401.545	89.26
401.754	52.39
401.963	119.98
402.172	87.21
402.381	31.91
402.59	70.83
402.799	44.2
403.008	27.82
403.217	160.94
403.426	19.63
403.635	81.07
403.844	36.01
404.053	107.69
404.262	76.97
404.471	95.4
404.68	40.11
404.888	15.53
405.097	142.5
405.306	72.87
405.515	58.54
405.724	13.48
405.933	76.97
406.142	171.18
406.35	85.16
406.559	140.46
406.768	124.07
406.977	111.78
407.185	113.83
407.394	162.98
407.603	119.98
407.812	58.54
408.02	97.45
408.229	83.11
408.438	97.45
408.646	101.55
408.855	76.97
409.064	101.55
409.272	85.16
409.481	210.09
409.69	130.22
409.898	187.56
410.107	165.03
410.315	160.94
410.524	130.22
410.733	162.98
410.941	156.84
411.15	238.76
411.358	263.33
411.567	210.09
411.775	343.21
411.984	236.71
412.192	210.09
412.401	197.8
412.609	242.85
412.818	134.31
413.026	337.06
413.234	226.47
413.443	244.9
413.651	300.2
413.86	287.91
414.068	304.29
414.276	332.97
414.485	320.68
414.693	281.77
414.901	353.45
415.11	339.11
415.318	306.34
415.526	337.06
415.734	302.25
415.943	310.44
416.151	392.36
416.359	388.26
416.567	453.8
416.776	416.93
416.984	533.67
417.192	507.04
417.4	439.46
417.608	443.56
417.817	529.57
418.025	584.87
418.233	515.23
418.441	560.29
418.649	644.26
418.857	621.73
419.065	584.87
419.273	621.73
419.481	580.77
419.689	726.18
419.897	699.55
420.105	742.56
420.313	742.56
420.521	849.05
420.729	711.84
420.937	820.38
421.145	863.39
421.353	916.64
421.561	916.64
421.769	928.92
421.977	1021.08
422.185	922.78
422.393	1008.8
422.601	1115.29
422.809	1113.24
423.017	1074.33
423.224	1047.71
423.432	1180.82
423.64	1164.44
423.848	1256.6
424.056	1238.17
424.263	1334.42
424.471	1385.62
424.679	1305.75
424.887	1475.73
425.094	1457.3
425.302	1465.49
425.51	1543.32
425.718	1584.27
425.925	1508.5
426.133	1602.71
426.341	1791.12
426.548	1914
426.756	1885.33
426.964	1944.72
427.171	1971.34
427.379	2194.57
427.586	2165.9
427.794	2075.79
428.001	2194.57
428.209	2229.38
428.417	2307.21
428.624	2466.95
428.832	2376.84
429.039	2456.71
429.247	2419.85
429.454	2718.85
429.662	2774.14
429.869	2499.72
430.076	2802.82
430.284	2776.19
430.491	2929.79
430.699	3095.68
430.906	3128.44
431.114	3081.34
431.321	3247.23
431.528	3224.7
431.736	3421.3
431.943	3595.38
432.15	3515.51
432.358	3564.66
432.565	3800.18
432.772	3761.27
432.979	3984.49
433.187	3980.4
433.394	4113.52
433.601	4252.78
433.808	4375.66
434.016	4258.92
434.223	4459.62
434.43	4678.76
434.637	4631.65
434.844	4762.72
435.052	5086.3
435.259	4910.18
435.466	5047.39
435.673	5024.86
435.88	5393.5
436.087	5518.42
436.294	5614.68
436.501	5553.24
436.708	5616.72
436.915	5774.42
437.122	5803.09
437.329	5903.44
437.537	6052.94
437.743	6347.85
437.95	6208.59
438.157	6519.88
438.364	6825.03
438.571	6753.35
438.778	6767.68
438.985	7410.75
439.192	7128.13
439.399	7390.27
439.606	7152.7
439.813	7595.06
440.02	8094.77
440.227	7898.16
440.433	8027.18
440.64	8033.33
440.847	7914.55
441.054	8098.86
441.261	8817.7
441.467	8631.33
441.674	8870.95
441.881	9229.34
442.088	9202.72
442.294	9012.26
442.501	9456.67
442.708	9456.67
442.914	9657.37
443.121	10247.18
443.328	9913.36
443.534	10574.86
443.741	10327.05
443.948	10355.72
444.154	11074.56
444.361	10920.96
444.568	11119.62
444.774	10822.66
444.981	11330.56
445.187	11455.48
445.394	12057.59
445.6	11871.22
445.807	13038.56
446.013	12407.79
446.22	12522.48
446.426	12942.31
446.633	13106.15
446.839	13704.15
447.046	12901.35
447.252	13710.3
447.459	13863.9
447.665	13757.4
447.871	14152.66
448.078	15211.46
448.284	14179.28
448.491	14621.64
448.697	14975.94
448.903	15449.02
449.11	15334.34
449.316	14969.8
449.522	15369.15
449.728	15793.08
449.935	16061.37
450.141	15971.25
450.347	16298.93
450.553	15770.55
450.76	15848.38
450.966	16575.41
451.172	16380.85
451.378	16815.02
451.584	16229.3
451.791	16745.39
451.997	16690.09
452.203	16767.91
452.409	16880.55
452.615	16800.68
452.821	16128.95
453.027	16085.94
453.233	16599.98
453.44	16188.34
453.646	16333.75
453.852	16503.73
454.058	16591.79
454.264	16171.96
454.47	16444.34
454.676	15911.86
454.882	16509.87
455.088	15002.57
455.294	15344.58
455.5	15313.86
455.705	15635.39
455.911	15086.53
456.117	14771.15
456.323	14525.39
456.529	13677.53
456.735	14154.71
456.941	13974.49
457.147	13708.25
457.352	13272.03
457.558	13292.51
457.764	13216.74
457.97	12940.26
458.176	12637.16
458.381	12536.81
458.587	11699.19
458.793	11666.42
458.999	11484.16
459.204	12428.27
459.41	11695.1
459.616	11027.46
459.821	10882.05
460.027	11078.66
460.233	10556.43
460.438	10226.7
460.644	10402.83
460.85	9944.08
461.055	9600.02
461.261	9704.47
461.466	9083.94
461.672	8713.25
461.878	9270.3
462.083	8911.91
462.289	8514.6
462.494	8453.16
462.7	8180.78
462.905	7742.52
463.111	8471.59
463.316	8162.35
463.522	8143.92
463.727	8062
463.932	7947.31
464.138	7904.31
464.343	8129.58
464.549	7889.97
464.754	7961.65
464.959	7986.22
465.165	7971.89
465.37	7580.73
465.575	7470.14
465.781	7533.62
465.986	7900.21
466.191	7384.12
466.397	7488.57
466.602	6939.71
466.807	7232.57
467.012	7310.4
467.218	7318.59
467.423	7220.28
467.628	7081.02
467.833	7425.08
468.038	7085.12
468.244	6954.05
468.449	7283.77
468.654	6970.43
468.859	7011.39
469.064	6769.73
469.269	6755.4
469.474	6786.12
469.679	6851.65
469.885	6601.8
470.09	6849.6
470.295	6696
470.5	6505.54
470.705	6677.57
470.91	6397
471.115	6130.77
471.32	6429.77
471.525	6239.31
471.73	6253.64
471.935	6397
472.139	6091.85
472.344	6163.53
472.549	6200.4
472.754	6102.09
472.959	5864.53
473.164	5848.15
473.369	5725.27
473.574	5917.78
473.778	5905.49
473.983	5674.07
474.188	5743.7
474.393	5602.39
474.598	5479.51
474.802	5528.66
475.007	5520.47
475.212	5456.98
475.417	5149.79
475.621	5301.34
475.826	5141.6
476.031	5246.04
476.235	5033.05
476.44	5106.78
476.645	5047.39
476.849	5114.97
477.054	5082.21
477.259	5059.68
477.463	4871.26
477.668	4805.73
477.872	4920.42
478.077	4744.29
478.282	4605.03
478.486	4564.07
478.691	4654.18
478.895	4621.41
479.1	4588.64
479.304	4674.66
479.509	4482.15
479.713	4588.64
479.918	4359.27
480.122	4342.89
480.326	4375.66
480.531	4592.74
480.735	4357.22
480.94	4238.44
481.144	4471.91
481.348	4336.74
481.553	4244.59
481.757	4240.49
481.961	4293.74
482.166	4389.99
482.37	4303.98
482.574	4252.78
482.778	4293.74
482.983	4314.22
483.187	4123.76
483.391	4162.67
483.595	4312.17
483.8	4152.43
484.004	4322.41
484.208	4412.52
484.412	4205.67
484.616	4277.35
484.821	4195.43
485.025	4043.88
485.229	4361.32
485.433	4086.89
485.637	4205.67
485.841	4203.63
486.045	4299.88
486.249	4324.46
486.453	4291.69
486.657	4314.22
486.861	4306.02
487.065	4187.24
487.269	4088.94
487.473	4308.07
487.677	4277.35
487.881	4314.22
488.085	4215.91
488.289	4232.3
488.493	4240.49
488.697	4340.84
488.901	4375.66
489.105	4131.95
489.309	4289.64
489.512	4336.74
489.716	4383.85
489.92	4291.69
490.124	4359.27
490.328	4306.02
490.531	4213.87
490.735	4367.46
490.939	4527.21
491.143	4273.26
491.346	4424.81
491.55	4387.94
491.754	4299.88
491.958	4488.29
492.161	4428.9
492.365	4537.45
492.569	4349.03
492.772	4445.29
492.976	4494.44
493.18	4551.78
493.383	4598.88
493.587	4709.47
493.79	4738.15
493.994	4650.08
494.197	4781.15
494.401	4711.52
494.605	4654.18
494.808	4936.8
495.012	4918.37
495.215	4828.26
495.419	4938.85
495.622	4871.26
495.825	4918.37
496.029	4877.41
496.232	5104.73
496.436	5074.01
496.639	5227.61
496.843	5254.23
497.046	5383.26
497.249	5411.93
497.453	5325.91
497.656	5418.07
497.859	5502.04
498.063	5575.77
498.266	5637.2
498.469	5690.45
498.673	5643.35
498.876	5710.93
499.079	5999.7
499.282	5842
499.485	6054.99
499.689	6016.08
499.892	6079.57
500.095	6124.62
500.298	6321.23
500.501	6319.18
500.705	6446.15
500.908	6280.27
501.111	6581.32
501.314	6607.94
501.517	6571.08
501.72	6908.99
501.923	6884.42
502.126	6884.42
502.329	7056.45
502.532	7148.61
502.735	7136.32
502.938	7263.29
503.141	7351.35
503.344	7521.34
503.547	7400.51
503.75	7275.58
503.953	7826.48
504.156	7873.59
504.359	7892.02
504.562	7857.2
504.765	8070.19
504.968	8244.27
505.17	8279.08
505.373	8213.55
505.576	8416.3
505.779	8602.66
505.982	8557.61
506.185	8492.07
506.387	8717.35
506.59	9012.26
506.793	9108.51
506.996	9049.12
507.198	9303.07
507.401	9270.3
507.604	9378.84
507.807	9530.39
508.009	9530.39
508.212	9720.85
508.415	9921.56
508.617	10095.63
508.82	10007.57
509.022	10150.93
509.225	10439.69
509.428	10396.68
509.63	10499.08
509.833	10699.78
510.035	10882.05
510.238	10839.05
510.44	11027.46
510.643	11152.38
510.845	11355.13
511.048	11226.11
511.25	11484.16
511.453	11609.08
511.655	12135.41
511.858	11756.54
512.06	11899.89
512.262	12209.14
512.465	11971.57
512.667	12381.17
512.87	12315.63
513.072	12598.25
513.274	12956.64
513.477	12905.45
513.679	13073.38
513.881	13321.18
514.084	13560.8
514.286	13452.25
514.488	13564.89
514.69	14011.35
514.893	14099.41
515.095	13976.53
515.297	14390.22
515.499	14494.67
515.701	14439.37
515.904	14791.62
516.106	14420.94
516.308	14939.08
516.51	15193.03
516.712	15225.79
516.914	15557.57
517.116	15758.27
517.318	15963.06
517.52	15872.95
517.722	15997.88
517.925	16229.3
518.127	16409.52
518.329	16595.89
518.531	16499.63
518.733	16808.87
518.935	16995.24
519.136	16919.46
519.338	17523.62
519.54	17353.63
519.742	17793.95
519.944	17869.72
520.146	18144.15
520.348	18166.68
520.55	18434.96
520.752	18471.82
520.954	18768.78
521.155	18686.86
521.357	18975.63
521.559	19008.39
521.761	19237.77
521.963	19260.29
522.164	19614.59
522.366	19653.5
522.568	19594.11
522.77	19893.12
522.971	20126.58
523.173	20097.91
523.375	20478.83
523.576	20480.88
523.778	20511.6
523.98	20767.6
524.181	20855.66
524.383	21017.45
524.584	21138.28
524.786	21162.86
524.988	21199.72
525.189	21658.46
525.391	21920.6
525.592	21697.38
525.794	21680.99
525.995	21767.01
526.197	22141.78
526.398	21928.8
526.6	22403.92
526.801	22205.27
527.003	22690.64
527.204	22659.92
527.406	23182.15
527.607	22887.25
527.808	23012.17
528.01	22569.81
528.211	22659.92
528.412	23327.56
528.614	23165.77
528.815	23243.59
529.016	23489.35
529.218	23151.43
529.419	23272.26
529.62	23612.23
529.822	23509.83
530.023	23442.24
530.224	23534.4
530.425	23554.88
530.626	23526.21
530.828	23305.03
531.029	23884.61
531.23	23860.03
531.431	23460.68
531.632	23579.46
531.833	23880.51
532.035	23829.31
532.236	23923.52
532.437	23823.17
532.638	23630.66
532.839	24271.67
533.04	24232.76
533.241	23810.88
533.442	24369.97
533.643	24486.71
533.844	24079.16
534.045	23894.85
534.246	24167.23
534.447	24476.47
534.648	24326.97
534.849	24302.39
535.05	23862.08
535.251	24269.62
535.451	24167.23
535.652	24398.65
535.853	24236.86
536.054	24216.38
536.255	24343.35
536.456	24126.27
536.657	24435.51
536.857	24398.65
537.058	24118.07
537.259	24709.94
537.46	24390.45
537.66	24259.38
537.861	24443.7
538.062	24482.61
538.263	24312.63
538.463	24083.26
538.664	24359.73
538.865	24435.51
539.065	24638.26
539.266	24197.95
539.466	24675.12
539.667	24144.7
539.868	24679.22
540.068	24384.31
540.269	24062.78
540.469	24419.13
540.67	24343.35
540.87	24222.52
541.071	24210.23
541.271	24501.04
541.472	24585.01
541.672	24197.95
541.873	24318.78
542.073	23823.17
542.274	24521.52
542.474	24415.03
542.675	24204.09
542.875	24582.96
543.075	24376.12
543.276	24116.03
543.476	24326.97
543.676	24251.19
543.877	24191.8
544.077	24390.45
544.277	24228.66
544.478	24343.35
544.678	24552.24
544.878	24159.03
545.078	24558.39
545.279	24261.43
545.479	24439.61
545.679	24400.69
545.879	24509.24
546.079	24474.42
546.28	24163.13
546.48	24058.68
546.68	24044.35
546.88	24197.95
547.08	24451.89
547.28	24572.72
547.48	23944
547.68	24240.95
547.88	24128.31
548.081	24355.64
548.281	24417.08
548.481	23905.09
548.681	24412.98
548.881	24441.65
549.081	24111.93
549.28	24365.88
549.48	24111.93
549.68	24073.02
549.88	24226.62
550.08	24156.99
550.28	24451.89
550.48	24296.25
550.68	24533.81
550.88	24212.28
551.08	24034.11
551.279	24462.13
551.479	23972.67
551.679	23915.33
551.879	24179.51
552.079	24478.52
552.278	24288.06
552.478	24097.59
552.678	24019.77
552.878	24310.58
553.077	23968.57
553.277	23896.89
553.477	24292.15
553.676	24150.84
553.876	24091.45
554.076	23989.05
554.275	23991.1
554.475	23919.42
554.674	24150.84
554.874	24134.46
555.074	24333.11
555.273	24007.48
555.473	24017.72
555.672	24154.94
555.872	23692.1
556.071	23757.63
556.271	23941.95
556.47	23737.15
556.67	23806.78
556.869	23847.74
557.068	23757.63
557.268	23257.93
557.467	23731.01
557.667	23454.53
557.866	23661.38
558.065	23472.96
558.265	23640.9
558.464	23202.63
558.663	23630.66
558.863	23268.17
559.062	23610.18
559.261	23116.62
559.461	23475.01
559.66	23231.3
559.859	23370.57
560.058	23151.43
560.258	23257.93
560.457	22999.88
560.656	23307.08
560.855	23292.74
561.054	23259.98
561.253	22786.89
561.453	23098.19
561.652	23190.34
561.851	23190.34
562.05	22971.21
562.249	22813.52
562.448	23044.94
562.647	22825.81
562.846	22803.28
563.045	22784.85
563.244	22496.08
563.443	22676.3
563.642	22672.21
563.841	22694.74
564.04	22336.34
564.239	22543.19
564.438	22276.95
564.637	22604.63
564.836	22256.47
565.035	22389.59
565.234	22502.23
565.432	22197.08
565.631	22197.08
565.83	22156.12
566.029	22233.94
566.228	22094.68
566.427	22029.15
566.625	22215.51
566.824	21506.91
567.023	22029.15
567.222	21412.71
567.42	21830.49
567.619	21834.59
567.818	21955.42
568.016	21902.17
568.215	21791.58
568.414	21449.57
568.612	21799.77
568.811	21402.47
569.01	21371.75
569.208	21326.69
569.407	21373.8
569.605	20822.89
569.804	21222.25
570.002	20898.67
570.201	21025.64
570.4	20837.23
570.598	20898.67
570.797	20945.77
570.995	20949.87
571.193	20788.08
571.392	20829.04
571.59	20444.02
571.789	20505.46
571.987	20566.9
572.186	20558.7
572.384	20439.92
572.582	20593.52
572.781	20614
572.979	20384.63
573.177	20140.92
573.376	20323.19
573.574	20380.53
573.772	20153.21
573.971	19745.66
574.169	19915.64
574.367	19645.31
574.565	19764.09
574.763	19665.79
574.962	19680.13
575.16	19661.69
575.358	19514.24
575.556	19493.76
575.754	19547.01
575.952	19368.84
576.151	19620.74
576.349	19161.99
576.547	19444.61
576.745	19186.57
576.943	19184.52
577.141	19032.97
577.339	19501.95
577.537	18781.07
577.735	18897.8
577.933	18592.65
578.131	18883.47
578.329	18402.19
578.527	18727.82
578.725	18867.08
578.923	18662.29
579.121	18453.39
579.319	18314.13
579.516	18781.07
579.714	18682.77
579.912	18232.21
580.11	18080.66
580.308	18138.01
580.506	18217.88
580.704	17802.14
580.901	18230.16
581.099	17998.74
581.297	17902.49
581.495	17679.26
581.692	17978.26
581.89	17675.16
582.088	17822.62
582.285	17669.02
582.483	17798.04
582.681	17609.63
582.878	17523.62
583.076	17398.69
583.274	17519.52
583.471	16964.52
583.669	17329.06
583.866	17329.06
584.064	17378.21
584.262	17025.96
584.459	17472.42
584.657	17056.68
584.854	17103.78
585.052	16665.52
585.249	17042.34
585.447	17036.2
585.644	16677.8
585.841	16710.57
586.039	16815.02
586.236	16411.57
586.434	16745.39
586.631	16325.55
586.828	16352.18
587.026	16577.45
587.223	16507.82
587.42	16481.2
587.618	16669.61
587.815	16174
588.012	16468.91
588.21	15985.59
588.407	16174
588.604	16071.61
588.801	16237.49
588.999	16057.27
589.196	15940.54
589.393	15930.3
589.59	16098.23
589.787	15985.59
589.984	15655.87
590.182	15606.72
590.379	15862.71
590.576	15494.08
590.773	15639.48
590.97	15563.71
591.167	15471.55
591.364	15573.95
591.561	15401.92
591.758	15215.55
591.955	15463.36
592.152	15408.06
592.349	15033.29
592.546	15125.44
592.743	15119.3
592.94	15012.81
593.137	15033.29
593.334	15164.36
593.531	14795.72
593.727	14980.04
593.924	14767.05
594.121	14523.34
594.318	14951.37
594.515	14732.23
594.712	14781.39
594.908	14590.92
595.105	14697.42
595.302	14461.9
595.499	14578.64
595.696	14513.1
595.892	14560.2
596.089	14412.75
596.286	14592.97
596.482	14412.75
596.679	14365.65
596.876	14259.15
597.072	14171.09
597.269	14279.63
597.466	14316.5
597.662	13863.9
597.859	14027.73
598.055	14062.55
598.252	14126.04
598.448	13978.58
598.645	13769.69
598.841	13650.91
599.038	13939.67
599.234	13775.83
599.431	13568.99
599.627	13501.4
599.824	13749.21
600.02	13736.92
600.217	13609.95
600.413	13487.07
600.609	13491.16
600.806	13450.21
601.002	13388.77
601.198	13186.02
601.395	13435.87
601.591	13290.46
601.787	13347.81
601.984	12983.27
602.18	13298.66
602.376	13267.94
602.572	12991.46
602.769	12989.41
602.965	12725.22
603.161	12897.25
603.357	12780.52
603.553	12794.86
603.75	12880.87
603.946	12620.78
604.142	12520.43
604.338	12592.11
604.534	12643.31
604.73	12680.17
604.926	12579.82
605.122	12532.72
605.318	12485.61
605.514	12502
605.71	12313.58
605.906	12159.99
606.102	12225.52
606.298	12213.23
606.494	12205.04
606.69	12291.06
606.886	12362.73
607.082	12180.46
607.278	12043.25
607.474	12041.2
607.67	12039.15
607.866	11877.37
608.062	11746.3
608.257	11969.52
608.453	12010.48
608.649	12000.24
608.845	11713.53
609.041	11895.8
609.236	11869.17
609.432	11684.86
609.628	11742.2
609.824	11516.92
610.019	11469.82
610.215	11795.45
610.411	11711.48
610.606	11379.71
610.802	11504.64
610.998	11611.13
611.193	11426.81
611.389	11256.83
611.584	11447.29
611.78	11205.63
611.976	11361.28
612.171	11480.06
612.367	11324.41
612.562	11297.79
612.758	10988.55
612.953	10963.97
613.149	11131.9
613.344	11152.38
613.539	11346.94
613.735	11156.48
613.93	11316.22
614.126	10898.44
614.321	11019.27
614.517	10933.25
614.712	10863.62
614.907	10974.21
615.103	10875.91
615.298	10849.29
615.493	10882.05
615.688	10654.73
615.884	10963.97
616.079	10728.45
616.274	10851.33
616.47	10605.58
616.665	10769.41
616.86	10613.77
617.055	10759.17
617.25	10464.27
617.445	10691.59
617.641	10499.08
617.836	10435.6
618.031	10236.94
618.226	10411.02
618.421	10466.31
618.616	10384.4
618.811	10343.44
619.006	10374.16
619.201	10148.88
619.396	9939.99
619.591	10202.13
619.786	10146.83
619.981	9911.32
620.176	10163.22
620.371	9856.02
620.566	10026
620.761	9980.95
620.956	9694.23
621.151	9702.42
621.346	9946.13
621.541	9729.05
621.735	9776.15
621.93	9493.53
622.125	9714.71
622.32	9522.2
622.515	9526.3
622.709	9636.89
622.904	9411.61
623.099	9253.92
623.294	9401.37
623.488	9284.64
623.683	9311.26
623.878	8944.67
624.072	8922.15
624.267	8909.86
624.462	8885.28
624.656	9083.94
624.851	8838.18
625.046	8807.46
625.24	8770.6
625.435	8825.89
625.629	8827.94
625.824	8666.15
626.018	8565.8
626.213	8576.04
626.407	8533.03
626.602	8522.79
626.796	8338.48
626.991	8379.43
627.185	8457.26
627.38	8272.94
627.574	8307.76
627.768	8195.12
627.963	8117.29
628.157	8303.66
628.352	8062
628.546	7957.55
628.74	7941.17
628.935	7849.01
629.129	7857.2
629.323	7935.03
629.517	7599.16
629.712	7748.66
629.906	7568.44
630.1	7648.31
630.294	7652.41
630.489	7597.11
630.683	7765.04
630.877	7410.75
631.071	7238.72
631.265	7453.75
631.459	7306.3
631.653	7420.99
631.848	7291.96
632.042	7164.99
632.236	7357.5
632.43	7291.96
632.624	7191.61
632.818	7121.98
633.012	7054.4
633.206	7064.64
633.4	7169.09
633.594	6777.92
633.788	6796.35
633.982	7038.02
634.176	6874.18
634.369	6878.27
634.563	6937.66
634.757	6904.9
634.951	6886.47
635.145	6618.18
635.339	6673.48
635.533	6589.51
635.726	6786.12
635.92	6564.93
636.114	6575.17
636.308	6384.71
636.501	6470.73
636.695	6427.72
636.889	6517.83
637.083	6362.19
637.276	6421.58
637.47	6239.31
637.664	6204.49
637.857	6233.16
638.051	6282.31
638.244	6198.35
638.438	6124.62
638.632	6134.86
638.825	5993.55
639.019	6104.14
639.212	5905.49
639.406	5942.35
639.599	5907.54
639.793	5934.16
639.986	5846.1
640.18	5821.52
640.373	5768.27
640.567	5704.79
640.76	5766.23
640.954	5676.12
641.147	5600.34
641.34	5616.72
641.534	5667.92
641.727	5514.33
641.92	5522.52
642.114	5538.9
642.307	5493.85
642.5	5325.91
642.694	5340.25
642.887	5344.35
643.08	5358.68
643.273	5200.99
643.467	5252.19
643.66	5125.21
643.853	5129.31
644.046	5094.49
644.239	5135.45
644.432	5196.89
644.626	5049.44
644.819	4977.76
645.012	4979.81
645.205	5096.54
645.398	4955.23
645.591	4965.47
645.784	4852.83
645.977	4881.5
646.17	4914.27
646.363	4932.7
646.556	4738.15
646.749	4766.82
646.942	4811.87
647.135	4717.67
647.328	4734.05
647.521	4545.64
647.714	4504.68
647.907	4662.37
648.099	4488.29
648.292	4641.89
648.485	4541.54
648.678	4422.76
648.871	4484.2
649.064	4416.62
649.256	4412.52
649.449	4412.52
649.642	4215.91
649.835	4215.91
650.027	4373.61
650.22	4338.79
650.413	4234.35
650.605	4291.69
650.798	4168.81
650.991	4021.36
651.183	4220.01
651.376	4093.04
651.568	4140.14
651.761	4058.22
651.954	4021.36
652.146	4107.37
652.339	4041.84
652.531	3923.05
652.724	3939.44
652.916	3871.86
653.109	3943.53
653.301	3955.82
653.494	3978.35
653.686	3816.56
653.879	3828.85
654.071	3699.83
654.263	3910.77
654.456	3814.51
654.648	3828.85
654.84	3673.2
655.033	3689.59
655.225	3759.22
655.417	3611.76
655.61	3693.68
655.802	3693.68
655.994	3611.76
656.186	3697.78
656.379	3626.1
656.571	3566.71
656.763	3624.05
656.955	3472.5
657.148	3562.61
657.34	3464.31
657.532	3400.82
657.724	3327.1
657.916	3419.25
658.108	3316.86
658.3	3435.64
658.492	3394.68
658.684	3335.29
658.876	3193.98
659.068	3275.9
659.26	3267.7
659.452	3257.46
659.644	3247.23
659.836	3200.12
660.028	3165.31
660.22	3081.34
660.412	3118.2
660.604	3032.19
660.796	3167.35
660.988	3017.85
661.18	3138.68
661.372	3144.83
661.563	2999.42
661.755	2974.85
661.947	2993.28
662.139	2886.78
662.331	2909.31
662.522	2960.51
662.714	2964.61
662.906	2919.55
663.097	2845.82
663.289	2843.78
663.481	2884.73
663.673	2714.75
663.864	2841.73
664.056	2690.18
664.247	2788.48
664.439	2843.78
664.631	2714.75
664.822	2688.13
665.014	2593.92
665.205	2708.61
665.397	2630.79
665.588	2794.62
665.78	2702.47
665.971	2505.86
666.163	2675.84
666.354	2645.12
666.546	2628.74
666.737	2595.97
666.929	2520.2
667.12	2575.49
667.311	2561.16
667.503	2438.28
667.694	2499.72
667.885	2491.52
668.077	2407.56
668.268	2469
668.459	2456.71
668.651	2522.24
668.842	2552.96
669.033	2460.81
669.224	2391.17
669.416	2450.57
669.607	2315.4
669.798	2331.78
669.989	2401.41
670.18	2460.81
670.371	2321.54
670.563	2282.63
670.754	2444.42
670.945	2438.28
671.136	2479.24
671.327	2241.67
671.518	2376.84
671.709	2364.55
671.9	2290.82
672.091	2204.81
672.282	2231.43
672.473	2210.95
672.664	2233.48
672.855	2219.14
673.046	2229.38
673.237	2231.43
673.428	2202.76
673.619	2274.44
673.809	2223.24
674	2276.49
674.191	2258.06
674.382	2192.52
674.573	2182.28
674.764	2169.99
674.954	2208.9
675.145	2071.69
675.336	2129.03
675.527	2157.71
675.717	2206.86
675.908	2206.86
676.099	2122.89
676.289	2077.83
676.48	2126.99
676.671	2110.6
676.861	2213
677.052	2122.89
677.243	2051.21
677.433	1942.67
677.624	2069.64
677.814	2065.55
678.005	2034.83
678.195	2004.11
678.386	2000.01
678.576	2038.92
678.767	1952.91
678.957	2098.31
679.148	2055.31
679.338	2116.75
679.529	1961.1
679.719	2008.2
679.909	1985.68
680.1	1946.76
680.29	1952.91
680.481	1975.44
680.671	1975.44
680.861	2010.25
681.052	1928.33
681.242	1932.43
681.432	2049.16
681.622	1877.13
681.813	2004.11
682.003	1989.77
682.193	1916.05
682.383	1916.05
682.573	1877.13
682.764	1963.15
682.954	1909.9
683.144	1907.85
683.334	1907.85
683.524	1793.17
683.714	1909.9
683.904	1854.61
684.094	1959.05
684.284	1922.19
684.474	1819.79
684.664	1926.29
684.854	1877.13
685.044	1934.48
685.234	1754.26
685.424	1856.65
685.614	1877.13
685.804	1813.65
685.994	1834.13
686.184	1868.94
686.374	1924.24
686.564	1813.65
686.753	1836.17
686.943	1793.17
687.133	1903.76
687.323	1903.76
687.513	1737.87
687.702	1952.91
687.892	1817.74
688.082	1764.5
688.272	1727.63
688.461	1737.87
688.651	1766.54
688.841	1707.15
689.03	1750.16
689.22	1789.07
689.41	1641.62
689.599	1883.28
689.789	1776.78
689.979	1842.32
690.168	1858.7
690.358	1727.63
690.547	1787.02
690.737	1735.82
690.926	1713.3
691.116	1715.34
691.305	1887.37
691.495	1752.21
691.684	1725.58
691.874	1811.6
692.063	1762.45
692.252	1766.54
692.442	1754.26
692.631	1701.01
692.82	1715.34
693.01	1721.49
693.199	1754.26
693.388	1729.68
693.578	1748.11
693.767	1719.44
693.956	1698.96
694.146	1658
694.335	1694.86
694.524	1719.44
694.713	1633.43
694.902	1676.43
695.092	1731.73
695.281	1709.2
695.47	1711.25
695.659	1817.74
695.848	1668.24
696.037	1686.67
696.226	1676.43
696.415	1600.66
696.604	1813.65
696.793	1741.97
696.982	1688.72
697.171	1754.26
697.36	1739.92
697.549	1754.26
697.738	1768.59
697.927	1780.88
698.116	1721.49
698.305	1746.06
698.494	1731.73
698.683	1668.24
698.872	1772.69
699.061	1741.97
699.25	1627.28
699.438	1760.4
699.627	1717.39
699.816	1690.77
700.005	1739.92
700.193	1631.38
700.382	1698.96
700.571	1660.05
700.76	1737.87
700.948	1703.06
701.137	1658
701.326	1717.39
701.514	1571.99
701.703	1682.58
701.892	1662.1
702.08	1770.64
702.269	1746.06
702.457	1676.43
702.646	1621.14
702.834	1725.58
703.023	1645.71
703.212	1666.19
703.4	1737.87
703.589	1701.01
703.777	1698.96
703.965	1576.08
704.154	1684.62
704.342	1600.66
704.531	1703.06
704.719	1643.67
704.907	1684.62
705.096	1594.51
705.284	1633.43
705.472	1518.74
705.661	1518.74
705.849	1739.92
706.037	1598.61
706.226	1576.08
706.414	1543.32
706.602	1635.47
706.79	1578.13
706.979	1578.13
707.167	1584.27
707.355	1569.94
707.543	1604.75
707.731	1574.03
707.919	1492.12
708.107	1490.07
708.296	1473.68
708.484	1571.99
708.672	1520.79
708.86	1496.21
709.048	1469.59
709.236	1510.55
709.424	1430.68
709.612	1494.16
709.8	1535.12
709.988	1430.68
710.176	1541.27
710.364	1414.29
710.551	1502.36
710.739	1475.73
710.927	1518.74
711.115	1453.2
711.303	1576.08
711.491	1442.96
711.679	1449.11
711.866	1541.27
712.054	1492.12
712.242	1449.11
712.43	1492.12
712.617	1377.43
712.805	1506.45
712.993	1531.03
713.181	1426.58
713.368	1463.44
713.556	1459.35
713.744	1498.26
713.931	1402.01
714.119	1334.42
714.306	1488.02
714.494	1295.51
714.682	1416.34
714.869	1397.91
715.057	1340.57
715.244	1445.01
715.432	1332.37
715.619	1399.96
715.807	1512.6
715.994	1361.05
716.182	1330.33
716.369	1379.48
716.556	1350.81
716.744	1281.18
716.931	1197.21
717.119	1402.01
717.306	1295.51
717.493	1352.85
717.681	1277.08
717.868	1332.37
718.055	1309.85
718.242	1281.18
718.43	1359
718.617	1303.7
718.804	1307.8
718.991	1315.99
719.179	1268.89
719.366	1320.09
719.553	1332.37
719.74	1291.41
719.927	1344.66
720.114	1295.51
720.301	1270.94
720.488	1246.36
720.676	1262.74
720.863	1201.3
721.05	1334.42
721.237	1205.4
721.424	1115.29
721.611	1217.69
721.798	1252.5
721.985	1293.46
722.172	1193.11
722.358	1242.26
722.545	1270.94
722.732	1184.92
722.919	1170.58
723.106	1217.69
723.293	1158.3
723.48	1160.34
723.667	1297.56
723.853	1152.15
724.04	1213.59
724.227	1160.34
724.414	1213.59
724.6	1148.06
724.787	1127.58
724.974	1148.06
725.161	1217.69
725.347	1137.82
725.534	1154.2
725.72	1215.64
725.907	1072.28
726.094	1133.72
726.28	1240.22
726.467	1109.15
726.653	1143.96
726.84	1080.47
727.027	1080.47
727.213	1029.27
727.4	1139.87
727.586	1180.82
727.773	1152.15
727.959	1098.91
728.145	1006.75
728.332	1021.08
728.518	1103
728.705	1115.29
728.891	1150.11
729.077	1168.54
729.264	1062.04
729.45	1066.14
729.636	1109.15
729.823	1057.95
730.009	1086.62
730.195	1029.27
730.382	1035.42
730.568	1084.57
730.754	1168.54
730.94	1021.08
731.126	1035.42
731.313	1033.37
731.499	1023.13
731.685	971.93
731.871	1084.57
732.057	1039.51
732.243	1023.13
732.429	996.51
732.615	1113.24
732.801	1076.38
732.987	994.46
733.173	1049.75
733.359	986.27
733.545	1082.52
733.731	1051.8
733.917	1004.7
734.103	1078.43
734.289	1041.56
734.475	988.32
734.661	988.32
734.847	990.36
735.033	1082.52
735.219	945.31
735.404	1070.23
735.59	920.73
735.776	988.32
735.962	990.36
736.148	1066.14
736.333	914.59
736.519	1080.47
736.705	922.78
736.89	1016.99
737.076	986.27
737.262	1010.84
737.447	904.35
737.633	971.93
737.819	892.06
738.004	1041.56
738.19	990.36
738.375	986.27
738.561	930.97
738.747	969.88
738.932	967.84
739.118	906.4
739.303	896.16
739.489	922.78
739.674	902.3
739.859	887.97
740.045	947.36
740.23	930.97
740.416	928.92
740.601	955.55
740.786	912.54
740.972	902.3
741.157	793.76
741.342	922.78
741.528	793.76
741.713	861.34
741.898	912.54
742.084	875.68
742.269	840.86
742.454	869.53
742.639	814.24
742.824	902.3
743.01	935.07
743.195	834.72
743.38	859.29
743.565	847.01
743.75	867.49
743.935	820.38
744.12	814.24
744.305	785.57
744.49	779.42
744.675	824.48
744.86	742.56
745.045	885.92
745.23	892.06
745.415	783.52
745.6	853.15
745.785	804
745.97	816.29
746.155	728.22
746.34	799.9
746.525	793.76
746.71	760.99
746.895	791.71
747.079	720.03
747.264	717.98
747.449	726.18
747.634	756.9
747.819	697.5
748.003	717.98
748.188	730.27
748.373	701.6
748.557	715.94
748.742	787.61
748.927	750.75
749.111	703.65
749.296	701.6
749.481	634.02
749.665	650.4
749.85	693.41
750.034	767.13
750.219	707.74
750.404	582.82
750.588	683.17
750.773	619.68
750.957	756.9
751.141	634.02
751.326	691.36
751.51	715.94
751.695	728.22
751.879	558.24
752.064	689.31
752.248	660.64
752.432	668.83
752.617	650.4
752.801	687.26
752.985	664.74
753.17	623.78
753.354	687.26
753.538	597.15
753.722	621.73
753.907	580.77
754.091	574.63
754.275	496.8
754.459	543.91
754.643	556.19
754.828	615.59
755.012	550.05
755.196	566.43
755.38	550.05
755.564	627.87
755.748	515.23
755.932	494.76
756.116	550.05
756.3	488.61
756.484	584.87
756.668	523.43
756.852	517.28
757.036	500.9
757.22	613.54
757.404	509.09
757.588	550.05
757.772	490.66
757.956	570.53
758.14	484.52
758.323	533.67
758.507	507.04
758.691	472.23
758.875	552.1
759.059	470.18
759.242	507.04
759.426	459.94
759.61	470.18
759.794	566.43
759.977	476.32
760.161	533.67
760.345	474.28
760.528	504.99
760.712	504.99
760.895	484.52
761.079	431.27
761.263	500.9
761.446	410.79
761.63	443.56
761.813	496.8
761.997	502.95
762.18	488.61
762.364	431.27
762.547	482.47
762.731	550.05
762.914	478.37
763.098	468.13
763.281	425.12
763.464	437.41
763.648	373.92
763.831	423.08
764.015	412.84
764.198	414.88
764.381	418.98
764.564	470.18
764.748	507.04
764.931	423.08
765.114	476.32
765.297	398.5
765.481	443.56
765.664	443.56
765.847	351.4
766.03	474.28
766.213	429.22
766.397	384.16
766.58	392.36
766.763	443.56
766.946	494.76
767.129	410.79
767.312	371.88
767.495	373.92
767.678	421.03
767.861	392.36
768.044	386.21
768.227	390.31
768.41	423.08
768.593	394.4
768.776	388.26
768.959	390.31
769.142	431.27
769.324	416.93
769.507	421.03
769.69	390.31
769.873	369.83
770.056	451.75
770.239	472.23
770.421	384.16
770.604	349.35
770.787	404.64
770.97	375.97
771.152	353.45
771.335	488.61
771.518	375.97
771.7	355.49
771.883	355.49
772.066	359.59
772.248	396.45
772.431	380.07
772.613	433.32
772.796	294.05
772.978	378.02
773.161	382.12
773.343	337.06
773.526	386.21
773.708	341.16
773.891	322.73
774.073	339.11
774.256	308.39
774.438	418.98
774.621	302.25
774.803	300.2
774.985	257.19
775.168	300.2
775.35	341.16
775.532	394.4
775.715	347.3
775.897	359.59
776.079	341.16
776.261	335.01
776.444	251.05
776.626	310.44
776.808	347.3
776.99	353.45
777.173	312.49
777.355	308.39
777.537	337.06
777.719	318.63
777.901	261.29
778.083	228.52
778.265	244.9
778.447	328.87
778.629	347.3
778.811	228.52
778.993	261.29
779.175	279.72
779.357	304.29
779.539	292.01
779.721	279.72
779.903	246.95
780.085	332.97
780.267	343.21
780.449	287.91
780.631	306.34
780.812	273.57
780.994	292.01
781.176	208.04
781.358	304.29
781.54	216.23
781.721	273.57
781.903	242.85
782.085	310.44
782.267	210.09
782.448	238.76
782.63	279.72
782.812	249
782.993	152.74
783.175	220.33
783.357	216.23
783.538	316.58
783.72	189.61
783.901	283.81
784.083	238.76
784.264	285.86
784.446	259.24
784.627	277.67
784.809	242.85
784.99	158.89
785.172	203.94
785.353	228.52
785.535	216.23
785.716	279.72
785.897	158.89
786.079	214.18
786.26	212.14
786.441	171.18
786.623	160.94
786.804	244.9
786.985	238.76
787.167	240.81
787.348	251.05
787.529	162.98
787.71	185.51
787.891	95.4
788.073	203.94
788.254	185.51
788.435	171.18
788.616	181.42
788.797	169.13
788.978	226.47
789.159	187.56
789.34	234.66
789.522	199.85
789.703	203.94
789.884	169.13
790.065	214.18
790.246	130.22
790.427	167.08
790.607	173.22
790.788	226.47
790.969	146.6
791.15	142.5
791.331	167.08
791.512	119.98
791.693	134.31
791.874	167.08
792.054	160.94
792.235	173.22
792.416	154.79
792.597	160.94
792.778	236.71
792.958	101.55
793.139	146.6
793.32	70.83
793.5	122.02
793.681	122.02
793.862	199.85
794.042	203.94
794.223	167.08
794.404	85.16
794.584	162.98
794.765	177.32
794.945	124.07
795.126	175.27
795.306	173.22
795.487	162.98
795.667	128.17
795.848	99.5
796.028	173.22
796.209	113.83
796.389	160.94
796.57	148.65
796.75	148.65
796.93	152.74
797.111	119.98
797.291	111.78
797.471	134.31
797.652	189.61
797.832	48.3
798.012	160.94
798.192	93.35
798.373	113.83
798.553	70.83
798.733	126.12
798.913	111.78
799.093	140.46
799.274	117.93
799.454	195.75
799.634	148.65
799.814	175.27
799.994	74.92
800.174	146.6
800.354	156.84
800.534	152.74
800.714	95.4
800.894	134.31
801.074	95.4
801.254	103.59
801.434	165.03
801.614	140.46
801.794	93.35
801.974	373.92
802.154	54.44
802.334	93.35
802.514	111.78
802.693	70.83
802.873	124.07
803.053	130.22
803.233	103.59
803.413	140.46
803.592	66.73
803.772	144.55
803.952	171.18
804.131	148.65
804.311	81.07
804.491	66.73
804.67	64.68
804.85	93.35
805.03	140.46
805.209	97.45
805.389	122.02
805.568	111.78
805.748	117.93
805.928	132.26
806.107	115.88
806.287	56.49
806.466	138.41
806.646	48.3
806.825	66.73
807.004	97.45
807.184	162.98
807.363	74.92
807.543	17.58
807.722	117.93
807.901	83.11
808.081	146.6
808.26	81.07
808.439	109.74
808.619	109.74
808.798	19.63
808.977	113.83
809.156	76.97
809.336	72.87
809.515	109.74
809.694	89.26
809.873	93.35
810.052	95.4
810.231	74.92
810.411	83.11
810.59	74.92
810.769	142.5
810.948	56.49
811.127	50.35
811.306	44.2
811.485	50.35
811.664	48.3
811.843	105.64
812.022	97.45
812.201	62.63
812.38	27.82
812.559	117.93
812.737	56.49
812.916	105.64
813.095	60.59
813.274	56.49
813.453	117.93
813.632	91.31
813.811	103.59
813.989	38.06
814.168	25.77
814.347	52.39
814.526	101.55
814.704	119.98
814.883	83.11
815.062	-4.95
815.24	56.49
815.419	91.31
815.598	23.72
815.776	48.3
815.955	136.36
816.133	38.06
816.312	44.2
816.49	48.3
816.669	115.88
816.847	101.55
817.026	-35.67
817.204	66.73
817.383	44.2
817.561	99.5
817.74	97.45
817.918	95.4
818.097	31.91
818.275	72.87
818.453	74.92
818.632	46.25
818.81	76.97
818.988	17.58
819.167	62.63
819.345	62.63
819.523	76.97
819.701	17.58
819.879	42.15
820.058	56.49
820.236	76.97
820.414	50.35
820.592	23.72
820.77	76.97
820.948	119.98
821.127	99.5
821.305	87.21
821.483	52.39
821.661	119.98
821.839	40.11
822.017	70.83
822.195	101.55
822.373	113.83
822.551	19.63
822.729	91.31
822.907	81.07
823.085	87.21
823.262	101.55
823.44	11.43
823.618	48.3
823.796	101.55
823.974	33.96
824.152	56.49
824.329	17.58
824.507	136.36
824.685	74.92
824.863	54.44
825.04	44.2
825.218	33.96
825.396	91.31
825.574	48.3
825.751	91.31
825.929	33.96
826.107	21.67
826.284	79.02
826.462	91.31
826.639	107.69
826.817	79.02
826.994	138.41
827.172	74.92
827.349	93.35
827.527	-4.95
827.704	76.97
827.882	122.02
828.059	64.68
828.237	46.25
828.414	40.11
828.591	48.3
828.769	83.11
828.946	19.63
829.124	95.4
829.301	31.91
829.478	97.45
829.655	66.73
829.833	46.25
830.01	29.87
830.187	46.25
830.364	38.06
830.542	44.2
830.719	56.49
830.896	72.87
831.073	42.15
831.25	31.91
831.427	-13.14
831.604	29.87
831.782	19.63
831.959	23.72
832.136	13.48
832.313	42.15
832.49	19.63
832.667	85.16
832.844	93.35
833.021	132.26
833.198	-25.43
833.374	130.22
833.551	66.73
833.728	72.87
833.905	38.06
834.082	33.96
834.259	48.3
834.436	-2.9
834.612	3.24
834.789	119.98
834.966	7.34
835.143	93.35
835.319	7.34
835.496	74.92
835.673	52.39
835.85	40.11
836.026	11.43
836.203	109.74
836.38	23.72
836.556	62.63
836.733	25.77
836.909	64.68
837.086	33.96
837.262	38.06
837.439	54.44
837.616	44.2
837.792	46.25
837.968	64.68
838.145	89.26
838.321	48.3
838.498	3.24
838.674	7.34
838.851	33.96
839.027	56.49
839.203	-2.9
839.38	74.92
839.556	19.63
839.732	95.4
839.909	19.63
840.085	72.87
840.261	72.87
840.437	44.2
840.614	48.3
840.79	91.31
840.966	21.67
841.142	1.19
841.318	89.26
841.494	46.25
841.671	17.58
841.847	58.54
842.023	119.98
842.199	23.72
842.375	23.72
842.551	97.45
842.727	-0.85
842.903	70.83
843.079	-7
843.255	62.63
843.431	62.63
843.607	25.77
843.783	54.44
843.959	-13.14
844.134	1.19
844.31	60.59
844.486	36.01
844.662	74.92
844.838	64.68
845.013	17.58
845.189	68.78
845.365	-29.52
845.541	-0.85
845.716	50.35
845.892	23.72
846.068	-29.52
846.244	9.39
846.419	81.07
846.595	44.2
846.77	44.2
846.946	52.39
847.122	52.39
847.297	95.4
847.473	50.35
847.648	74.92
847.824	3.24
847.999	60.59
848.175	50.35
848.35	-21.33
848.526	56.49
848.701	29.87
848.876	48.3
849.052	29.87
849.227	62.63
849.403	42.15
849.578	70.83
849.753	-23.38
849.929	103.59
850.104	7.34
850.279	-7
850.454	3.24
850.63	72.87
850.805	79.02
850.98	70.83
851.155	17.58
851.33	42.15
851.505	66.73
851.681	31.91
851.856	101.55
852.031	50.35
852.206	144.55
852.381	13.48
852.556	15.53
852.731	79.02
852.906	44.2
853.081	70.83
853.256	54.44
853.431	1.19
853.606	17.58
853.781	21.67
853.956	29.87
854.131	64.68
854.305	85.16
854.48	31.91
854.655	25.77
854.83	23.72
855.005	-17.24
855.18	7.34
855.354	33.96
855.529	38.06
855.704	3.24
855.879	9.39
856.053	50.35
856.228	17.58
856.403	7.34
856.577	-7
856.752	36.01
856.926	31.91
857.101	25.77
857.276	56.49
857.45	1.19
857.625	79.02
857.799	23.72
857.974	36.01
858.148	54.44
858.323	60.59
858.497	87.21
858.672	1.19
858.846	-39.76
859.02	27.82
859.195	17.58
859.369	23.72
859.543	132.26
859.718	-15.19
859.892	15.53
860.066	60.59
860.241	-23.38
860.415	1.19
860.589	42.15
860.763	7.34
860.938	-35.67
861.112	50.35
861.286	23.72
861.46	56.49
861.634	-4.95
861.808	31.91
861.982	17.58
862.157	-15.19
862.331	25.77
862.505	50.35
862.679	3.24
862.853	-0.85
863.027	31.91
863.201	13.48
863.375	-13.14
863.549	31.91
863.722	62.63
863.896	42.15
864.07	11.43
864.244	9.39
864.418	25.77
864.592	66.73
864.766	46.25
864.939	3.24
865.113	40.11
865.287	89.26
865.461	13.48
865.634	-4.95
865.808	74.92
865.982	-23.38
866.156	-39.76
866.329	11.43
866.503	13.48
866.676	46.25
866.85	11.43
867.024	-4.95
867.197	-52.05
867.371	-31.57
867.544	-0.85
867.718	58.54
867.891	27.82
868.065	-9.05
868.238	-2.9
868.412	-17.24
868.585	5.29
868.759	-11.09
868.932	-13.14
869.105	93.35
869.279	25.77
869.452	50.35
869.625	9.39
869.799	29.87
869.972	13.48
870.145	21.67
870.319	-19.29
870.492	15.53
870.665	-35.67
870.838	29.87
871.011	-11.09
871.185	19.63
871.358	-21.33
871.531	91.31
871.704	-66.39
871.877	31.91
872.05	7.34
872.223	27.82
872.396	42.15
872.569	13.48
872.742	48.3
872.915	33.96
873.088	19.63
873.261	-35.67
873.434	52.39
873.607	5.29
873.78	-35.67
873.953	-29.52
874.126	15.53
874.299	48.3
874.471	3.24
874.644	44.2
874.817	9.39
874.99	7.34
875.163	-4.95
875.335	70.83
875.508	52.39
875.681	38.06
875.853	-15.19
876.026	15.53
876.199	56.49
876.371	13.48
876.544	-9.05
876.717	40.11
876.889	-21.33
877.062	48.3
877.234	-4.95
877.407	58.54
877.579	-29.52
877.752	-45.91
877.924	15.53
878.097	66.73
878.269	66.73
878.442	27.82
878.614	-35.67
878.786	40.11
878.959	-29.52
879.131	13.48
879.303	11.43
879.476	72.87
879.648	81.07
879.82	15.53
879.993	3.24
880.165	33.96
880.337	9.39
880.509	-2.9
880.681	11.43
880.854	-37.72
881.026	7.34
881.198	13.48
881.37	-15.19
881.542	79.02
881.714	-37.72
881.886	31.91
882.058	74.92
882.23	64.68
882.402	-2.9
882.574	13.48
882.746	31.91
882.918	13.48
883.09	50.35
883.262	1.19
883.434	48.3
883.606	-2.9
883.778	-31.57
883.95	44.2
884.122	-43.86
884.293	54.44
884.465	19.63
884.637	17.58
884.809	-9.05
884.98	11.43
885.152	3.24
885.324	-0.85
885.496	60.59
885.667	-13.14
885.839	52.39
886.011	87.21
886.182	46.25
886.354	-41.81
886.525	29.87
886.697	3.24
886.869	36.01
887.04	-0.85
887.212	23.72
887.383	-25.43
887.555	-50
887.726	-7
887.897	72.87
888.069	72.87
888.24	42.15
888.412	23.72
888.583	-4.95
888.754	33.96
888.926	56.49
889.097	-11.09
889.268	-31.57
889.44	-50
889.611	1.19
889.782	-7
889.953	64.68
890.125	52.39
890.296	-21.33
890.467	21.67
890.638	36.01
890.809	31.91
890.98	-60.24
891.151	25.77
891.323	42.15
891.494	-4.95
891.665	74.92
891.836	-17.24
892.007	66.73
892.178	33.96
892.349	-31.57
892.52	-41.81
892.691	-0.85
892.862	50.35
893.032	33.96
893.203	46.25
893.374	83.11
893.545	7.34
893.716	21.67
893.887	64.68
894.057	50.35
894.228	-19.29
894.399	52.39
894.57	13.48
894.74	17.58
894.911	46.25
895.082	3.24
895.253	70.83
895.423	-27.48
895.594	52.39
895.764	27.82
895.935	15.53
896.106	-15.19
896.276	19.63
896.447	-27.48
896.617	60.59
896.788	23.72
896.958	72.87
897.129	23.72
897.299	52.39
897.47	15.53
897.64	103.59
897.81	36.01
897.981	1.19
898.151	25.77
898.322	58.54
898.492	76.97
898.662	25.77
898.832	-9.05
899.003	7.34
899.173	48.3
899.343	46.25
899.513	68.78
