Data from USB4F104151__27__13-52-43-362.txt Node

Date: Thu Mar 13 13:52:43 EDT 2025
User: louis
Spectrometer: USB4F10415
Trigger mode: 4
Integration Time (sec): 1.000000E-2
Scans to average: 1
Electric dark correction enabled: true
Nonlinearity correction enabled: false
Boxcar width: 0
XAxis mode: Wavelengths
Number of Pixels in Spectrum: 3648
>>>>>Begin Spectral Data<<<<<
178.204	-46.42
178.424	-46.42
178.644	-46.42
178.864	-27.99
179.084	-60.76
179.304	23.21
179.524	33.45
179.744	-27.99
179.964	8.87
180.184	15.02
180.404	-68.95
180.624	29.35
180.844	-3.41
181.064	-54.61
181.283	37.55
181.503	15.02
181.723	-7.51
181.943	-13.65
182.163	88.75
182.383	0.68
182.602	60.07
182.822	33.45
183.042	66.22
183.262	4.78
183.482	6.83
183.701	-7.51
183.921	47.79
184.141	8.87
184.361	51.88
184.58	21.16
184.8	33.45
185.02	58.03
185.239	-9.56
185.459	29.35
185.679	-5.46
185.898	35.5
186.118	68.27
186.338	-3.41
186.557	70.31
186.777	41.64
186.997	6.83
187.216	37.55
187.436	70.31
187.655	51.88
187.875	84.65
188.095	84.65
188.314	76.46
188.534	35.5
188.753	64.17
188.973	53.93
189.192	74.41
189.412	49.83
189.631	49.83
189.851	21.16
190.07	78.51
190.29	15.02
190.509	-50.52
190.729	27.31
190.948	-7.51
191.168	4.78
191.387	133.8
191.607	10.92
191.826	8.87
192.045	86.7
192.265	33.45
192.484	66.22
192.704	31.4
192.923	-7.51
193.142	27.31
193.362	-1.37
193.581	78.51
193.8	35.5
194.02	47.79
194.239	88.75
194.458	86.7
194.678	119.46
194.897	80.55
195.116	-13.65
195.335	-19.8
195.555	78.51
195.774	47.79
195.993	4.78
196.212	55.98
196.432	-5.46
196.651	66.22
196.87	123.56
197.089	127.66
197.308	39.59
197.528	64.17
197.747	-11.61
197.966	12.97
198.185	6.83
198.404	39.59
198.623	31.4
198.842	80.55
199.062	21.16
199.281	45.74
199.5	-23.89
199.719	51.88
199.938	12.97
200.157	12.97
200.376	-1.37
200.595	117.42
200.814	-3.41
201.033	37.55
201.252	41.64
201.471	-25.94
201.69	80.55
201.909	49.83
202.128	-9.56
202.347	107.18
202.566	-7.51
202.785	68.27
203.004	4.78
203.223	82.6
203.442	10.92
203.661	19.11
203.879	19.11
204.098	21.16
204.317	29.35
204.536	15.02
204.755	10.92
204.974	72.36
205.193	53.93
205.411	68.27
205.63	-23.89
205.849	25.26
206.068	31.4
206.287	12.97
206.505	47.79
206.724	49.83
206.943	58.03
207.162	60.07
207.381	70.31
207.599	49.83
207.818	25.26
208.037	43.69
208.255	49.83
208.474	0.68
208.693	2.73
208.911	66.22
209.13	8.87
209.349	-9.56
209.567	45.74
209.786	82.6
210.005	4.78
210.223	12.97
210.442	12.97
210.661	33.45
210.879	15.02
211.098	41.64
211.316	41.64
211.535	-11.61
211.753	35.5
211.972	-15.7
212.191	6.83
212.409	70.31
212.628	58.03
212.846	45.74
213.065	-13.65
213.283	47.79
213.502	8.87
213.72	37.55
213.938	10.92
214.157	39.59
214.375	74.41
214.594	135.85
214.812	80.55
215.031	49.83
215.249	4.78
215.467	45.74
215.686	84.65
215.904	41.64
216.122	78.51
216.341	37.55
216.559	90.79
216.778	94.89
216.996	72.36
217.214	45.74
217.432	8.87
217.651	-11.61
217.869	12.97
218.087	37.55
218.306	98.99
218.524	58.03
218.742	64.17
218.96	41.64
219.179	8.87
219.397	0.68
219.615	78.51
219.833	-3.41
220.051	-19.8
220.27	31.4
220.488	12.97
220.706	78.51
220.924	8.87
221.142	29.35
221.36	4.78
221.578	96.94
221.796	39.59
222.015	2.73
222.233	131.75
222.451	-5.46
222.669	25.26
222.887	82.6
223.105	35.5
223.323	72.36
223.541	-3.41
223.759	74.41
223.977	-25.94
224.195	8.87
224.413	12.97
224.631	60.07
224.849	-9.56
225.067	64.17
225.285	-17.75
225.503	53.93
225.721	-48.47
225.939	98.99
226.157	47.79
226.375	72.36
226.592	37.55
226.81	12.97
227.028	76.46
227.246	72.36
227.464	47.79
227.682	41.64
227.9	17.07
228.117	35.5
228.335	78.51
228.553	6.83
228.771	64.17
228.989	70.31
229.206	15.02
229.424	76.46
229.642	-9.56
229.86	49.83
230.077	51.88
230.295	74.41
230.513	29.35
230.731	72.36
230.948	45.74
231.166	35.5
231.384	23.21
231.601	107.18
231.819	43.69
232.037	12.97
232.254	12.97
232.472	45.74
232.689	103.08
232.907	41.64
233.125	-7.51
233.342	49.83
233.56	60.07
233.777	0.68
233.995	82.6
234.213	-3.41
234.43	-25.94
234.648	60.07
234.865	105.13
235.083	37.55
235.3	43.69
235.518	-1.37
235.735	39.59
235.953	137.9
236.17	17.07
236.388	47.79
236.605	-7.51
236.822	31.4
237.04	53.93
237.257	-5.46
237.475	78.51
237.692	41.64
237.909	76.46
238.127	90.79
238.344	45.74
238.562	29.35
238.779	23.21
238.996	41.64
239.214	47.79
239.431	17.07
239.648	10.92
239.865	94.89
240.083	47.79
240.3	51.88
240.517	10.92
240.735	60.07
240.952	-3.41
241.169	68.27
241.386	25.26
241.603	86.7
241.821	-15.7
242.038	21.16
242.255	64.17
242.472	29.35
242.689	21.16
242.907	29.35
243.124	55.98
243.341	86.7
243.558	-34.13
243.775	49.83
243.992	6.83
244.209	31.4
244.426	76.46
244.643	74.41
244.86	58.03
245.078	94.89
245.295	37.55
245.512	64.17
245.729	35.5
245.946	129.7
246.163	17.07
246.38	19.11
246.597	17.07
246.814	39.59
247.031	64.17
247.248	-3.41
247.464	60.07
247.681	64.17
247.898	47.79
248.115	62.12
248.332	43.69
248.549	23.21
248.766	66.22
248.983	80.55
249.2	15.02
249.417	72.36
249.633	58.03
249.85	21.16
250.067	-56.66
250.284	35.5
250.501	-13.65
250.717	27.31
250.934	29.35
251.151	109.22
251.368	27.31
251.585	70.31
251.801	47.79
252.018	47.79
252.235	8.87
252.451	-40.28
252.668	-52.56
252.885	58.03
253.102	10.92
253.318	64.17
253.535	53.93
253.752	41.64
253.968	45.74
254.185	47.79
254.401	115.37
254.618	72.36
254.835	6.83
255.051	96.94
255.268	86.7
255.484	37.55
255.701	21.16
255.917	45.74
256.134	35.5
256.351	47.79
256.567	-30.04
256.784	4.78
257	17.07
257.217	6.83
257.433	39.59
257.65	47.79
257.866	15.02
258.082	29.35
258.299	70.31
258.515	74.41
258.732	82.6
258.948	33.45
259.165	76.46
259.381	66.22
259.597	15.02
259.814	12.97
260.03	121.51
260.246	41.64
260.463	58.03
260.679	53.93
260.895	88.75
261.112	80.55
261.328	31.4
261.544	51.88
261.761	94.89
261.977	0.68
262.193	92.84
262.409	98.99
262.626	66.22
262.842	25.26
263.058	33.45
263.274	-1.37
263.49	27.31
263.707	47.79
263.923	2.73
264.139	39.59
264.355	-11.61
264.571	82.6
264.787	66.22
265.004	4.78
265.22	25.26
265.436	6.83
265.652	17.07
265.868	68.27
266.084	94.89
266.3	25.26
266.516	-85.33
266.732	68.27
266.948	35.5
267.164	70.31
267.38	45.74
267.596	82.6
267.812	29.35
268.028	55.98
268.244	41.64
268.46	29.35
268.676	68.27
268.892	51.88
269.108	58.03
269.324	31.4
269.54	-3.41
269.756	29.35
269.972	-5.46
270.188	66.22
270.403	-9.56
270.619	82.6
270.835	119.46
271.051	47.79
271.267	76.46
271.483	41.64
271.698	-5.46
271.914	70.31
272.13	66.22
272.346	37.55
272.562	98.99
272.777	82.6
272.993	15.02
273.209	23.21
273.425	-5.46
273.64	6.83
273.856	-21.85
274.072	55.98
274.287	17.07
274.503	-15.7
274.719	4.78
274.934	25.26
275.15	-38.23
275.366	74.41
275.581	-3.41
275.797	-50.52
276.012	37.55
276.228	103.08
276.444	8.87
276.659	60.07
276.875	41.64
277.09	25.26
277.306	-48.47
277.521	119.46
277.737	103.08
277.952	74.41
278.168	55.98
278.383	0.68
278.599	-5.46
278.814	19.11
279.03	35.5
279.245	96.94
279.461	25.26
279.676	19.11
279.892	19.11
280.107	33.45
280.322	76.46
280.538	-13.65
280.753	29.35
280.969	29.35
281.184	64.17
281.399	101.03
281.615	80.55
281.83	82.6
282.045	33.45
282.26	-21.85
282.476	76.46
282.691	86.7
282.906	15.02
283.122	101.03
283.337	80.55
283.552	29.35
283.767	-21.85
283.983	0.68
284.198	88.75
284.413	84.65
284.628	43.69
284.843	96.94
285.058	76.46
285.274	-9.56
285.489	55.98
285.704	121.51
285.919	70.31
286.134	35.5
286.349	-7.51
286.564	-1.37
286.779	96.94
286.995	55.98
287.21	90.79
287.425	-25.94
287.64	29.35
287.855	84.65
288.07	27.31
288.285	64.17
288.5	27.31
288.715	35.5
288.93	49.83
289.145	39.59
289.36	103.08
289.575	43.69
289.79	72.36
290.004	15.02
290.219	-9.56
290.434	119.46
290.649	12.97
290.864	119.46
291.079	96.94
291.294	45.74
291.509	21.16
291.724	152.23
291.938	60.07
292.153	10.92
292.368	21.16
292.583	27.31
292.798	66.22
293.012	101.03
293.227	25.26
293.442	66.22
293.657	-42.32
293.871	-34.13
294.086	51.88
294.301	78.51
294.516	-25.94
294.73	37.55
294.945	43.69
295.16	70.31
295.374	105.13
295.589	55.98
295.804	2.73
296.018	45.74
296.233	49.83
296.447	64.17
296.662	58.03
296.877	86.7
297.091	58.03
297.306	94.89
297.52	137.9
297.735	2.73
297.949	86.7
298.164	105.13
298.378	-5.46
298.593	62.12
298.807	-11.61
299.022	29.35
299.236	27.31
299.451	66.22
299.665	53.93
299.88	29.35
300.094	96.94
300.309	47.79
300.523	115.37
300.737	82.6
300.952	53.93
301.166	66.22
301.381	-19.8
301.595	98.99
301.809	74.41
302.024	23.21
302.238	-7.51
302.452	70.31
302.667	-15.7
302.881	55.98
303.095	31.4
303.309	45.74
303.524	-21.85
303.738	74.41
303.952	76.46
304.166	49.83
304.381	17.07
304.595	64.17
304.809	80.55
305.023	25.26
305.237	-9.56
305.452	80.55
305.666	2.73
305.88	47.79
306.094	27.31
306.308	4.78
306.522	62.12
306.736	90.79
306.95	78.51
307.164	47.79
307.379	86.7
307.593	90.79
307.807	60.07
308.021	70.31
308.235	41.64
308.449	25.26
308.663	51.88
308.877	98.99
309.091	45.74
309.305	39.59
309.519	12.97
309.733	31.4
309.947	90.79
310.161	-1.37
310.374	45.74
310.588	51.88
310.802	78.51
311.016	78.51
311.23	8.87
311.444	-23.89
311.658	98.99
311.872	82.6
312.085	94.89
312.299	58.03
312.513	86.7
312.727	8.87
312.941	55.98
313.154	68.27
313.368	88.75
313.582	35.5
313.796	43.69
314.009	31.4
314.223	82.6
314.437	4.78
314.651	0.68
314.864	15.02
315.078	84.65
315.292	8.87
315.505	-21.85
315.719	29.35
315.933	64.17
316.146	68.27
316.36	-42.32
316.573	60.07
316.787	70.31
317.001	-15.7
317.214	101.03
317.428	-60.76
317.641	101.03
317.855	55.98
318.068	121.51
318.282	10.92
318.495	133.8
318.709	43.69
318.922	74.41
319.136	129.7
319.349	107.18
319.563	15.02
319.776	45.74
319.99	15.02
320.203	17.07
320.417	88.75
320.63	17.07
320.843	70.31
321.057	66.22
321.27	33.45
321.483	72.36
321.697	55.98
321.91	76.46
322.124	82.6
322.337	53.93
322.55	86.7
322.763	60.07
322.977	58.03
323.19	37.55
323.403	96.94
323.617	101.03
323.83	-9.56
324.043	0.68
324.256	43.69
324.469	17.07
324.683	12.97
324.896	19.11
325.109	103.08
325.322	131.75
325.535	41.64
325.748	-34.13
325.962	37.55
326.175	76.46
326.388	6.83
326.601	80.55
326.814	78.51
327.027	72.36
327.24	12.97
327.453	37.55
327.666	60.07
327.879	60.07
328.092	53.93
328.305	31.4
328.518	27.31
328.731	4.78
328.944	45.74
329.157	66.22
329.37	35.5
329.583	10.92
329.796	103.08
330.009	78.51
330.222	-38.23
330.435	53.93
330.648	39.59
330.861	45.74
331.073	66.22
331.286	49.83
331.499	74.41
331.712	55.98
331.925	33.45
332.138	92.84
332.35	55.98
332.563	74.41
332.776	31.4
332.989	60.07
333.202	86.7
333.414	23.21
333.627	55.98
333.84	33.45
334.053	62.12
334.265	74.41
334.478	64.17
334.691	66.22
334.903	15.02
335.116	111.27
335.329	58.03
335.541	82.6
335.754	109.22
335.966	121.51
336.179	19.11
336.392	86.7
336.604	49.83
336.817	53.93
337.029	21.16
337.242	70.31
337.454	10.92
337.667	-32.08
337.88	96.94
338.092	-25.94
338.305	53.93
338.517	-58.71
338.729	43.69
338.942	0.68
339.154	-3.41
339.367	49.83
339.579	25.26
339.792	25.26
340.004	47.79
340.217	0.68
340.429	53.93
340.641	119.46
340.854	-13.65
341.066	0.68
341.278	66.22
341.491	29.35
341.703	78.51
341.915	17.07
342.128	133.8
342.34	15.02
342.552	-7.51
342.764	-34.13
342.977	37.55
343.189	4.78
343.401	45.74
343.613	33.45
343.826	-19.8
344.038	72.36
344.25	4.78
344.462	47.79
344.674	119.46
344.886	29.35
345.099	41.64
345.311	43.69
345.523	62.12
345.735	74.41
345.947	31.4
346.159	21.16
346.371	53.93
346.583	-1.37
346.795	-1.37
347.007	62.12
347.219	25.26
347.431	80.55
347.643	66.22
347.855	-38.23
348.067	62.12
348.279	23.21
348.491	45.74
348.703	72.36
348.915	80.55
349.127	70.31
349.339	55.98
349.551	88.75
349.763	43.69
349.975	86.7
350.187	33.45
350.399	84.65
350.61	37.55
350.822	43.69
351.034	27.31
351.246	88.75
351.458	-34.13
351.669	60.07
351.881	58.03
352.093	4.78
352.305	41.64
352.517	70.31
352.728	27.31
352.94	53.93
353.152	62.12
353.363	-23.89
353.575	68.27
353.787	17.07
353.999	37.55
354.21	121.51
354.422	49.83
354.633	53.93
354.845	123.56
355.057	103.08
355.268	53.93
355.48	60.07
355.692	41.64
355.903	72.36
356.115	72.36
356.326	51.88
356.538	51.88
356.749	47.79
356.961	72.36
357.172	88.75
357.384	33.45
357.595	66.22
357.807	66.22
358.018	6.83
358.23	131.75
358.441	60.07
358.653	88.75
358.864	-36.18
359.075	-3.41
359.287	96.94
359.498	76.46
359.709	64.17
359.921	70.31
360.132	64.17
360.344	43.69
360.555	8.87
360.766	6.83
360.977	68.27
361.189	53.93
361.4	92.84
361.611	66.22
361.823	53.93
362.034	0.68
362.245	41.64
362.456	88.75
362.667	39.59
362.879	96.94
363.09	39.59
363.301	88.75
363.512	29.35
363.723	8.87
363.935	76.46
364.146	78.51
364.357	51.88
364.568	121.51
364.779	-7.51
364.99	74.41
365.201	-3.41
365.412	84.65
365.623	94.89
365.834	80.55
366.045	62.12
366.256	33.45
366.467	43.69
366.678	-3.41
366.889	25.26
367.1	37.55
367.311	111.27
367.522	51.88
367.733	17.07
367.944	141.99
368.155	86.7
368.366	-23.89
368.577	51.88
368.788	6.83
368.999	-11.61
369.209	10.92
369.42	141.99
369.631	105.13
369.842	4.78
370.053	119.46
370.264	21.16
370.474	31.4
370.685	53.93
370.896	43.69
371.107	43.69
371.317	80.55
371.528	113.32
371.739	68.27
371.95	39.59
372.16	17.07
372.371	60.07
372.582	101.03
372.792	47.79
373.003	39.59
373.214	15.02
373.424	29.35
373.635	55.98
373.846	94.89
374.056	92.84
374.267	55.98
374.477	49.83
374.688	125.61
374.898	68.27
375.109	76.46
375.319	41.64
375.53	84.65
375.74	129.7
375.951	90.79
376.161	-40.28
376.372	8.87
376.582	139.94
376.793	45.74
377.003	31.4
377.214	117.42
377.424	55.98
377.635	88.75
377.845	31.4
378.055	47.79
378.266	74.41
378.476	70.31
378.686	45.74
378.897	162.47
379.107	39.59
379.317	107.18
379.528	60.07
379.738	74.41
379.948	33.45
380.158	172.71
380.369	78.51
380.579	49.83
380.789	115.37
380.999	19.11
381.21	23.21
381.42	84.65
381.63	35.5
381.84	96.94
382.05	80.55
382.261	70.31
382.471	43.69
382.681	80.55
382.891	60.07
383.101	55.98
383.311	-5.46
383.521	92.84
383.731	47.79
383.941	107.18
384.151	88.75
384.361	74.41
384.571	37.55
384.781	6.83
384.991	15.02
385.201	78.51
385.411	64.17
385.621	17.07
385.831	12.97
386.041	31.4
386.251	64.17
386.461	43.69
386.671	78.51
386.881	117.42
387.091	127.66
387.301	103.08
387.511	27.31
387.72	107.18
387.93	113.32
388.14	60.07
388.35	101.03
388.56	25.26
388.769	70.31
388.979	150.18
389.189	37.55
389.399	10.92
389.609	90.79
389.818	115.37
390.028	55.98
390.238	19.11
390.447	15.02
390.657	-30.04
390.867	78.51
391.076	35.5
391.286	60.07
391.496	90.79
391.705	35.5
391.915	31.4
392.125	156.33
392.334	47.79
392.544	82.6
392.753	47.79
392.963	47.79
393.172	60.07
393.382	-13.65
393.591	74.41
393.801	86.7
394.01	133.8
394.22	60.07
394.429	15.02
394.639	43.69
394.848	96.94
395.058	72.36
395.267	90.79
395.477	68.27
395.686	121.51
395.895	84.65
396.105	37.55
396.314	43.69
396.524	90.79
396.733	70.31
396.942	47.79
397.152	115.37
397.361	68.27
397.57	-7.51
397.78	113.32
397.989	66.22
398.198	139.94
398.407	154.28
398.617	121.51
398.826	76.46
399.035	111.27
399.244	119.46
399.453	88.75
399.663	121.51
399.872	105.13
400.081	82.6
400.29	111.27
400.499	68.27
400.708	53.93
400.917	139.94
401.127	129.7
401.336	96.94
401.545	135.85
401.754	47.79
401.963	90.79
402.172	86.7
402.381	131.75
402.59	115.37
402.799	90.79
403.008	135.85
403.217	121.51
403.426	115.37
403.635	88.75
403.844	70.31
404.053	135.85
404.262	144.04
404.471	162.47
404.68	109.22
404.888	125.61
405.097	127.66
405.306	148.14
405.515	164.52
405.724	160.42
405.933	172.71
406.142	164.52
406.35	117.42
406.559	154.28
406.768	156.33
406.977	207.53
407.185	158.38
407.394	215.72
407.603	111.27
407.812	172.71
408.02	209.58
408.229	228.01
408.438	213.67
408.646	197.29
408.855	271.01
409.064	250.53
409.272	189.1
409.481	211.62
409.69	152.23
409.898	262.82
410.107	207.53
410.315	285.35
410.524	236.2
410.733	301.73
410.941	305.83
411.15	185
411.358	361.13
411.567	316.07
411.775	314.02
411.984	322.21
412.192	387.75
412.401	359.08
412.609	369.32
412.818	441
413.026	354.98
413.234	436.9
413.443	385.7
413.651	365.22
413.86	449.19
414.068	441
414.276	436.9
414.485	441
414.693	467.62
414.901	531.11
415.11	469.67
415.318	522.91
415.526	561.83
415.734	592.55
415.943	541.35
416.151	631.46
416.359	666.27
416.567	631.46
416.776	617.12
416.984	641.7
417.192	709.28
417.4	641.7
417.608	758.43
417.817	682.66
418.025	811.68
418.233	930.46
418.441	879.26
418.649	916.12
418.857	936.6
419.065	1010.33
419.273	828.06
419.481	1014.43
419.689	1065.63
419.897	1131.16
420.105	1079.96
420.313	1094.3
420.521	1204.89
420.729	1141.4
420.937	1186.46
421.145	1276.57
421.353	1301.14
421.561	1413.78
421.769	1479.32
421.977	1417.88
422.185	1458.84
422.393	1546.9
422.601	1581.71
422.809	1630.87
423.017	1596.05
423.224	1733.26
423.432	1755.79
423.64	1737.36
423.848	1907.34
424.056	1847.95
424.263	2060.94
424.471	1946.25
424.679	2097.8
424.887	2144.91
425.094	2292.36
425.302	2204.3
425.51	2314.89
425.718	2439.81
425.925	2499.2
426.133	2566.79
426.341	2730.62
426.548	2847.36
426.756	2701.95
426.964	2837.12
427.171	2962.05
427.379	3084.92
427.586	3107.45
427.794	3066.49
428.001	3338.87
428.209	3578.48
428.417	3408.5
428.624	3691.12
428.832	3768.95
429.039	3701.36
429.247	3703.41
429.454	4006.51
429.662	4219.5
429.869	4043.37
430.076	4180.59
430.284	4149.87
430.491	4321.9
430.699	4577.89
430.906	4559.46
431.114	4717.15
431.321	4815.46
431.528	4883.04
431.736	5427.8
431.943	5513.81
432.15	5204.57
432.358	5376.6
432.565	5636.69
432.772	5626.45
432.979	5921.36
433.187	5849.68
433.394	6001.23
433.601	6521.42
433.808	6478.41
434.016	6419.02
434.223	6873.67
434.43	7141.95
434.637	6785.6
434.844	7356.99
435.052	7547.45
435.259	7504.44
435.466	7434.81
435.673	7569.98
435.88	7971.38
436.087	8311.34
436.294	8430.12
436.501	8077.87
436.708	8319.53
436.915	8600.1
437.122	9171.49
437.329	9007.65
437.537	9388.57
437.743	9591.32
437.95	9404.96
438.157	9822.74
438.364	10254.86
438.571	10066.45
438.778	10215.95
438.985	11057.67
439.192	10689.03
439.399	11069.95
439.606	10818.05
439.813	11457.02
440.02	11993.59
440.227	11774.45
440.433	11670.01
440.64	12210.67
440.847	12075.51
441.054	12247.54
441.261	13359.58
441.467	13115.87
441.674	13320.67
441.881	13736.41
442.088	13773.27
442.294	13674.97
442.501	14027.22
442.708	14342.61
442.914	14860.74
443.121	15335.87
443.328	15317.44
443.534	16314.8
443.741	15880.63
443.948	15233.47
444.154	16855.47
444.361	16560.56
444.568	16751.02
444.774	16546.22
444.981	16851.37
445.187	17355.17
445.394	17934.74
445.6	17826.2
445.807	19585.41
446.013	19020.17
446.22	19204.49
446.426	19755.39
446.633	19923.32
446.839	20625.78
447.046	20035.96
447.252	21025.13
447.459	21211.49
447.665	20836.72
447.871	21780.83
448.078	22454.61
448.284	21815.65
448.491	22020.44
448.697	22792.53
448.903	23419.21
449.11	23609.67
449.316	23238.98
449.522	23306.57
449.728	23982.4
449.935	23839.04
450.141	24312.12
450.347	24875.31
450.553	24025.4
450.76	24541.49
450.966	25272.62
451.172	24887.6
451.378	25426.21
451.584	24996.14
451.791	25428.26
451.997	25366.82
452.203	25743.65
452.409	25745.7
452.615	25696.55
452.821	24658.23
453.027	24469.81
453.233	25606.44
453.44	24717.62
453.646	24750.38
453.852	24959.28
454.058	25682.21
454.264	24647.99
454.47	24914.22
454.676	24146.23
454.882	25282.86
455.088	22784.33
455.294	23505.22
455.5	23687.49
455.705	23931.2
455.911	22702.42
456.117	22384.98
456.323	22245.72
456.529	21027.18
456.735	21848.41
456.941	21342.56
457.147	20904.3
457.352	20273.53
457.558	20056.44
457.764	20076.92
457.97	19773.82
458.176	19386.75
458.381	19210.63
458.587	18444.69
458.793	18295.19
458.999	17189.28
459.204	18653.58
459.41	18008.47
459.616	16884.14
459.821	16964.01
460.027	16880.04
460.233	16648.62
460.438	15704.51
460.644	15702.46
460.85	15116.74
461.055	15075.78
461.261	14991.81
461.466	13984.21
461.672	13238.75
461.878	14295.5
462.083	13459.93
462.289	13197.79
462.494	13093.35
462.7	12481
462.905	12069.36
463.111	12671.47
463.316	12493.29
463.522	12444.14
463.727	12358.13
463.932	12384.75
464.138	12276.21
464.343	12247.54
464.549	11766.26
464.754	12378.61
464.959	12143.09
465.165	12263.92
465.37	11710.97
465.575	11334.14
465.781	11776.5
465.986	11864.57
466.191	11385.34
466.397	11106.82
466.602	10598.92
466.807	11227.65
467.012	11235.84
467.218	11049.47
467.423	10781.19
467.628	11010.56
467.833	11502.08
468.038	10717.7
468.244	10463.76
468.449	11340.29
468.654	10783.24
468.859	10682.89
469.064	10803.72
469.269	10244.62
469.474	10519.05
469.679	10480.14
469.885	9835.03
470.09	10383.88
470.295	10215.95
470.5	10091.02
470.705	10152.46
470.91	9884.18
471.115	9775.64
471.32	9921.04
471.525	9861.65
471.73	9638.42
471.935	9601.56
472.139	9359.9
472.344	9300.51
472.549	9396.76
472.754	9108
472.959	9011.75
473.164	8852
473.369	8628.77
473.574	9153.06
473.778	8876.58
473.983	8931.87
474.188	8692.26
474.393	8356.4
474.598	8407.59
474.802	8354.35
475.007	8178.22
475.212	8260.14
475.417	8071.73
475.621	7979.57
475.826	8057.39
476.031	7842.35
476.235	7885.36
476.44	7985.71
476.645	7977.52
476.849	7772.72
477.054	7561.78
477.259	7430.71
477.463	7529.02
477.668	7551.54
477.872	7383.61
478.077	7162.43
478.282	7078.46
478.486	7098.94
478.691	6892.1
478.895	7055.94
479.1	6937.15
479.304	6908.48
479.509	6818.37
479.713	7014.98
479.918	6738.5
480.122	6804.03
480.326	6720.07
480.531	6697.54
480.735	6515.27
480.94	6707.78
481.144	6736.45
481.348	6439.5
481.553	6560.33
481.757	6513.22
481.961	6562.37
482.166	6933.06
482.37	6462.02
482.574	6404.68
482.778	6519.37
482.983	6543.94
483.187	6410.82
483.391	6535.75
483.595	6351.43
483.8	6412.87
484.004	6457.93
484.208	6584.9
484.412	6466.12
484.616	6709.83
484.821	6578.76
485.025	6560.33
485.229	6578.76
485.433	6347.34
485.637	6713.92
485.841	6429.26
486.045	6507.08
486.249	6441.54
486.453	6455.88
486.657	6443.59
486.861	6615.62
487.065	6386.25
487.269	6462.02
487.473	6500.94
487.677	6443.59
487.881	6431.3
488.085	6429.26
488.289	6502.98
488.493	6478.41
488.697	6613.57
488.901	6539.85
489.105	6478.41
489.309	6535.75
489.512	6441.54
489.716	6695.49
489.92	6548.04
490.124	6484.55
490.328	6664.77
490.531	6638.15
490.735	6619.72
490.939	6566.47
491.143	6683.2
491.346	6742.6
491.55	6867.52
491.754	6660.68
491.958	6865.47
492.161	6789.7
492.365	6904.39
492.569	6971.97
492.772	6939.2
492.976	6896.19
493.18	6974.02
493.383	6937.15
493.587	7197.24
493.79	7377.47
493.994	7227.96
494.197	7244.35
494.401	7381.56
494.605	7443
494.808	7469.62
495.012	7473.72
495.215	7406.14
495.419	7678.52
495.622	7524.92
495.825	7709.24
496.029	7666.23
496.232	7768.63
496.436	7938.61
496.639	8127.02
496.843	8024.62
497.046	8116.78
497.249	8256.04
497.453	8323.63
497.656	8438.31
497.859	8403.5
498.063	8690.21
498.266	8710.69
498.469	8665.64
498.673	8886.82
498.876	8931.87
499.079	9112.1
499.282	9048.61
499.485	9261.6
499.689	9271.84
499.892	9493.02
500.095	9482.78
500.298	9697.81
500.501	9781.78
500.705	10015.25
500.908	10015.25
501.111	10097.17
501.314	10250.77
501.517	10353.16
501.72	10496.52
501.923	10519.05
502.126	10764.81
502.329	10938.88
502.532	10881.54
502.735	11123.2
502.938	11336.19
503.141	11268.61
503.344	11569.66
503.547	11647.48
503.75	11784.69
503.953	11977.2
504.156	12114.42
504.359	12343.79
504.562	12435.95
504.765	12489.2
504.968	12870.12
505.17	13013.48
505.373	13052.39
505.576	13355.49
505.779	13584.86
505.982	13380.06
506.185	13920.73
506.387	13627.87
506.59	13978.07
506.793	14350.8
506.996	14268.88
507.198	14916.04
507.401	14754.25
507.604	15016.39
507.807	15270.34
508.009	15333.82
508.212	15528.38
508.415	15772.09
508.617	15782.33
508.82	15956.41
509.022	16294.32
509.225	16384.43
509.428	16454.06
509.63	16546.22
509.833	16732.59
510.035	17179.04
510.238	17414.56
510.44	17715.61
510.643	17971.61
510.845	18155.93
511.048	18033.05
511.25	18727.31
511.453	18356.63
511.655	19304.84
511.858	19130.76
512.06	19446.15
512.262	19224.97
512.465	19587.46
512.667	20185.46
512.87	20314.48
513.072	20349.3
513.274	20803.95
513.477	20926.83
513.679	21174.63
513.881	21330.28
514.084	21651.81
514.286	21743.97
514.488	22227.29
514.69	22657.36
514.893	22937.93
515.095	22907.21
515.297	23271.75
515.499	23198.02
515.701	23615.81
515.904	23888.19
516.106	24342.84
516.308	24283.45
516.51	24836.4
516.712	24973.61
516.914	25186.6
517.116	25590.05
517.318	25659.68
517.52	25835.81
517.722	26278.17
517.925	26468.63
518.127	26960.14
518.329	27150.6
518.531	27052.3
518.733	27818.24
518.935	27693.32
519.136	28561.65
519.338	28498.17
519.54	28801.27
519.742	28842.23
519.944	29257.96
520.146	29653.22
520.348	30179.55
520.55	29972.71
520.752	30259.42
520.954	30527.7
521.155	30875.86
521.357	31209.68
521.559	31824.07
521.761	31762.63
521.963	31873.22
522.164	32278.72
522.366	32170.18
522.568	32917.68
522.77	32932.02
522.971	33284.27
523.173	33044.66
523.375	33751.21
523.576	33358
523.778	33915.05
523.98	34777.24
524.181	34756.76
524.383	35059.86
524.584	35305.62
524.786	35213.46
524.988	34844.82
525.189	35664.01
525.391	35602.57
525.592	36264.07
525.794	36241.54
525.995	36276.35
526.197	36493.44
526.398	36608.12
526.6	36728.95
526.801	37079.16
527.003	37048.44
527.204	37580.91
527.406	37539.95
527.607	37425.26
527.808	38029.41
528.01	37478.51
528.211	37683.31
528.412	38033.51
528.614	38553.69
528.815	38336.61
529.016	38652
529.218	38621.28
529.419	38682.72
529.62	38961.24
529.822	38692.96
530.023	38729.82
530.224	39057.49
530.425	39008.34
530.626	38623.33
530.828	38971.48
531.029	39776.33
531.23	38756.44
531.431	39444.56
531.632	39706.7
531.833	39618.64
532.035	39772.24
532.236	39762
532.437	40212.55
532.638	39612.49
532.839	39854.15
533.04	39805
533.241	39596.11
533.442	40317
533.643	40101.96
533.844	40114.25
534.045	39942.22
534.246	39649.36
534.447	40360
534.648	39766.09
534.849	40210.5
535.05	39878.73
535.251	40216.64
535.451	40224.84
535.652	40173.64
535.853	40443.97
536.054	40499.26
536.255	40429.63
536.456	39929.93
536.657	40400.96
536.857	40155.21
537.058	40331.33
537.259	40683.58
537.46	40771.64
537.66	40286.28
537.861	40349.76
538.062	40163.4
538.263	40413.25
538.463	40126.53
538.664	40441.92
538.865	40710.21
539.065	40323.14
539.266	40290.37
539.466	40968.25
539.667	40013.9
539.868	40794.17
540.068	40699.97
540.269	40351.81
540.469	40362.05
540.67	40460.35
540.87	40478.78
541.071	40167.49
541.271	40656.96
541.472	40288.32
541.672	40142.92
541.873	40071.24
542.073	39731.28
542.274	40566.85
542.474	40489.02
542.675	40339.52
542.875	40427.59
543.075	40400.96
543.276	39966.79
543.476	40450.11
543.676	40142.92
543.877	40470.59
544.077	40583.23
544.277	40368.19
544.478	40362.05
544.678	40292.42
544.878	40212.55
545.078	40271.94
545.279	39856.2
545.479	40366.15
545.679	40390.72
545.879	40368.19
546.079	40540.22
546.28	40489.02
546.48	40149.06
546.68	40130.63
546.88	40554.56
547.08	39993.42
547.28	40407.11
547.48	39948.36
547.68	40278.08
547.88	40108.1
548.081	40241.22
548.281	40083.53
548.481	39848.01
548.681	40685.63
548.881	40345.67
549.081	39946.31
549.28	39950.41
549.48	40476.74
549.68	40165.45
549.88	40976.44
550.08	39819.34
550.28	40640.57
550.48	40278.08
550.68	40366.15
550.88	40108.1
551.08	40173.64
551.279	40618.05
551.479	40067.14
551.679	40165.45
551.879	39907.4
552.079	40546.37
552.278	39856.2
552.478	39934.03
552.678	40042.57
552.878	40204.36
553.077	39874.63
553.277	40032.33
553.477	40157.25
553.676	39927.88
553.876	39929.93
554.076	40319.04
554.275	39915.59
554.475	39508.05
554.674	39942.22
554.874	39815.24
555.074	39960.65
555.273	39901.26
555.473	39886.92
555.672	39489.62
555.872	39503.95
556.071	39581.77
556.271	39778.38
556.47	39688.27
556.67	39030.87
556.869	39151.7
557.068	39229.52
557.268	38758.49
557.467	39133.27
557.667	38959.19
557.866	39192.66
558.065	39061.59
558.265	39182.42
558.464	39032.92
558.663	39485.52
558.863	38699.1
559.062	39100.5
559.261	38770.78
559.461	38817.88
559.66	38203.49
559.859	38770.78
560.058	38084.71
560.258	38719.58
560.457	38340.71
560.656	38584.41
560.855	38365.28
561.054	38426.72
561.253	37978.22
561.453	37953.64
561.652	38373.47
561.851	38303.84
562.05	38039.65
562.249	37949.54
562.448	38217.83
562.647	38109.29
562.846	37636.2
563.045	37980.26
563.244	37529.71
563.443	38066.28
563.642	37101.68
563.841	37771.37
564.04	37656.68
564.239	37488.75
564.438	37329.01
564.637	37412.98
564.836	37343.34
565.035	37245.04
565.234	37298.29
565.432	37185.65
565.631	37202.03
565.83	37218.42
566.029	37040.25
566.228	36628.6
566.427	36909.18
566.625	36948.09
566.824	36257.92
567.023	36833.4
567.222	35950.73
567.42	36561.02
567.619	36501.63
567.818	36573.31
568.016	36149.38
568.215	36157.57
568.414	36243.59
568.612	36333.7
568.811	35596.43
569.01	35764.36
569.208	35750.03
569.407	35379.34
569.605	35143.83
569.804	35739.79
570.002	34975.89
570.201	35647.63
570.4	35211.41
570.598	34965.65
570.797	34842.77
570.995	34924.69
571.193	34656.41
571.392	34873.49
571.59	34384.03
571.789	34844.82
571.987	34230.43
572.186	34719.9
572.384	34089.12
572.582	34140.32
572.781	34803.86
572.979	34021.54
573.177	33695.91
573.376	33777.83
573.574	33613.99
573.772	33773.74
573.971	33792.17
574.169	33274.03
574.367	32993.46
574.565	33192.11
574.763	32979.12
574.962	32753.85
575.16	32901.3
575.358	33343.66
575.556	32768.18
575.754	33126.58
575.952	32641.21
576.151	32915.64
576.349	32022.72
576.547	32307.39
576.745	32327.87
576.943	32266.43
577.141	32037.06
577.339	32215.23
577.537	31742.15
577.735	31973.57
577.933	31625.42
578.131	31660.23
578.329	31776.97
578.527	30877.91
578.725	31760.58
578.923	31619.27
579.121	30990.55
579.319	31189.2
579.516	30945.49
579.714	31283.41
579.912	30679.25
580.11	30601.43
580.308	30554.33
580.506	30636.25
580.704	30105.82
580.901	30427.35
581.099	30791.89
581.297	29870.31
581.495	30161.12
581.692	30034.14
581.89	29759.72
582.088	29976.8
582.285	29788.39
582.483	30050.53
582.681	29829.35
582.878	29333.74
583.076	29425.9
583.274	29898.98
583.471	29264.11
583.669	29174
583.866	28856.56
584.064	29245.68
584.262	28659.96
584.459	29008.11
584.657	28748.02
584.854	29049.07
585.052	28561.65
585.249	28545.27
585.447	28637.43
585.644	28078.33
585.841	28190.97
586.039	28289.27
586.236	27834.63
586.434	28141.82
586.631	27414.79
586.828	28090.62
587.026	28047.61
587.223	27646.21
587.42	27410.7
587.618	27623.69
587.815	27484.42
588.012	27363.59
588.21	26855.7
588.407	27558.15
588.604	27154.7
588.801	26771.73
588.999	27009.29
589.196	27011.34
589.393	26804.5
589.59	26425.62
589.787	26867.98
589.984	26620.18
590.182	26325.27
590.379	26636.56
590.576	25995.55
590.773	26597.65
590.97	26198.3
591.167	26097.95
591.364	26165.53
591.561	25930.01
591.758	25655.59
591.955	25774.37
592.152	25981.21
592.349	25469.22
592.546	25405.73
592.743	25778.47
592.94	25141.55
593.137	25317.67
593.334	25516.33
593.531	24963.37
593.727	25444.65
593.924	25342.25
594.121	25076.01
594.318	25274.66
594.515	24789.3
594.712	24582.45
594.908	24574.26
595.105	24901.93
595.302	24637.75
595.499	24758.58
595.696	24021.31
595.892	24355.13
596.089	24465.72
596.286	24484.15
596.482	24146.23
596.679	24277.3
596.876	23935.29
597.072	24062.27
597.269	24037.69
597.466	23781.7
597.662	23755.07
597.859	23814.46
598.055	23857.47
598.252	23486.79
598.448	23574.85
598.645	23462.21
598.841	23339.33
599.038	23263.56
599.234	23402.82
599.431	22839.63
599.627	23105.87
599.824	23241.03
600.02	22653.26
600.217	22763.86
600.413	22870.35
600.609	22638.93
600.806	22743.38
601.002	22724.94
601.198	22509.91
601.395	22241.62
601.591	22192.47
601.787	22362.45
601.984	22202.71
602.18	22331.73
602.376	21942.62
602.572	22098.27
602.769	22045.02
602.965	21989.72
603.161	21694.82
603.357	21625.18
603.553	21647.71
603.75	21555.55
603.946	21309.8
604.142	21610.85
604.338	21297.51
604.534	21344.61
604.73	21248.36
604.926	21107.05
605.122	20984.17
605.318	21084.52
605.514	20953.45
605.71	20504.95
605.906	20836.72
606.102	20775.28
606.298	20396.4
606.494	20556.14
606.69	20468.08
606.886	20347.25
607.082	20369.78
607.278	20496.75
607.474	20214.13
607.67	20318.58
607.866	20015.48
608.062	20087.16
608.257	19968.38
608.453	20009.34
608.649	20216.18
608.845	19734.91
609.041	20109.69
609.236	19863.93
609.432	19548.54
609.628	19636.61
609.824	19374.47
610.019	19335.56
610.215	19208.58
610.411	19337.6
610.606	19245.44
610.802	19270.02
610.998	19057.03
611.193	19222.92
611.389	18729.36
611.584	19069.32
611.78	18868.62
611.976	18622.86
612.171	18692.49
612.367	18868.62
612.562	18467.22
612.758	18764.17
612.953	18442.64
613.149	18987.4
613.344	18491.79
613.539	18602.38
613.735	18426.26
613.93	18379.15
614.126	18313.62
614.321	18409.87
614.517	18262.42
614.712	18123.16
614.907	18184.6
615.103	18276.76
615.298	17848.73
615.493	18260.37
615.688	17840.54
615.884	18139.54
616.079	17723.8
616.274	17920.41
616.47	17912.22
616.665	17480.1
616.86	17523.1
617.055	17383.84
617.25	17334.69
617.445	17688.99
617.641	17336.74
617.836	17541.53
618.031	17156.52
618.226	17254.82
618.421	17060.26
618.616	17240.48
618.811	16931.24
619.006	17201.57
619.201	16658.86
619.396	17205.67
619.591	16769.45
619.786	16761.26
619.981	16603.57
620.176	16695.72
620.371	16286.13
620.566	16331.19
620.761	16325.04
620.956	16314.8
621.151	16316.85
621.346	16277.94
621.541	15823.29
621.735	15962.55
621.93	15815.1
622.125	15665.6
622.32	15606.2
622.515	15813.05
622.709	15681.98
622.904	15417.79
623.099	15243.71
623.294	15413.7
623.488	15137.22
623.683	15065.54
623.878	15008.2
624.072	15217.09
624.267	15034.82
624.462	14942.66
624.656	14854.6
624.851	14428.62
625.046	14533.07
625.24	14365.14
625.435	14363.09
625.629	14324.18
625.824	14051.8
626.018	14158.29
626.213	13777.37
626.407	14023.12
626.602	13986.26
626.796	13943.25
626.991	13709.79
627.185	13638.11
627.38	13685.21
627.574	13453.79
627.768	13468.13
627.963	13308.38
628.157	13361.63
628.352	13582.81
628.546	13265.38
628.74	13171.17
628.935	13040.1
629.129	13081.06
629.323	12974.56
629.517	12765.67
629.712	12661.23
629.906	12648.94
630.1	12509.68
630.294	12519.92
630.489	12587.5
630.683	12786.15
630.877	12104.18
631.071	12200.43
631.265	12184.05
631.459	12290.54
631.653	12265.97
631.848	12169.71
632.042	11852.28
632.236	12220.91
632.43	11583.99
632.624	11860.47
632.818	11651.58
633.012	11624.95
633.206	11717.11
633.4	11727.35
633.594	11487.74
633.788	11356.67
633.982	11567.61
634.176	11514.36
634.369	11289.09
634.563	11141.63
634.757	11065.86
634.951	11301.37
635.145	10973.7
635.339	10979.84
635.533	11022.85
635.726	10945.03
635.92	10887.68
636.114	10902.02
636.308	10746.37
636.501	10592.78
636.695	10715.66
636.889	10625.54
637.083	10480.14
637.276	10289.68
637.47	10293.77
637.664	10273.29
637.857	10459.66
638.051	10193.42
638.244	10285.58
638.438	10271.25
638.632	10232.33
638.825	9986.58
639.019	9912.85
639.212	9951.76
639.406	9837.08
639.599	9724.44
639.793	9919
639.986	9568.79
640.18	9611.8
640.373	9533.98
640.567	9423.39
640.76	9570.84
640.954	9441.82
641.147	9359.9
641.34	9120.29
641.534	9351.71
641.727	8931.87
641.92	9171.49
642.114	9181.73
642.307	9048.61
642.5	9069.09
642.694	8890.92
642.887	8696.36
643.08	8974.88
643.273	8782.37
643.467	8596.01
643.66	8714.79
643.853	8626.73
644.046	8720.93
644.239	8555.05
644.432	8485.42
644.626	8380.97
644.819	8299.05
645.012	8352.3
645.205	8208.94
645.398	8254
645.591	8249.9
645.784	8186.41
645.977	8030.77
646.17	8036.91
646.363	8120.88
646.556	7842.35
646.749	8000.05
646.942	7987.76
647.135	7684.66
647.328	7752.24
647.521	7545.4
647.714	7592.5
647.907	7592.5
648.099	7623.22
648.292	7547.45
648.485	7410.23
648.678	7406.14
648.871	7432.76
649.064	7291.45
649.256	7385.66
649.449	7068.22
649.642	7213.63
649.835	6980.16
650.027	7141.95
650.22	7184.96
650.413	6953.54
650.605	6898.24
650.798	7098.94
650.991	6810.18
651.183	6783.56
651.376	6705.73
651.568	6689.35
651.761	6787.65
651.954	6619.72
652.146	6554.18
652.339	6433.35
652.531	6677.06
652.724	6449.74
652.916	6451.78
653.109	6265.42
653.301	6255.18
653.494	6443.59
653.686	6230.6
653.879	6341.19
654.071	6167.12
654.263	6234.7
654.456	6048.33
654.648	6009.42
654.84	6167.12
655.033	6255.18
655.225	5880.4
655.417	6001.23
655.61	5855.83
655.802	5962.32
655.994	5837.39
656.186	5927.5
656.379	5896.78
656.571	5782.1
656.763	5735
656.955	5714.52
657.148	5640.79
657.34	5573.21
657.532	5519.96
657.724	5534.29
657.916	5448.28
658.108	5442.14
658.3	5356.12
658.492	5302.87
658.684	5294.68
658.876	5167.71
659.068	5255.77
659.26	5130.84
659.452	5157.47
659.644	5139.04
659.836	5028.45
660.028	5059.17
660.22	5028.45
660.412	5010.01
660.604	4909.66
660.796	4913.76
660.988	4876.9
661.18	4928.1
661.372	4780.64
661.563	4946.53
661.755	4846.18
661.947	4803.17
662.139	4612.71
662.331	4629.09
662.522	4479.59
662.714	4588.13
662.906	4647.52
663.097	4651.62
663.289	4557.41
663.481	4438.63
663.673	4395.62
663.864	4438.63
664.056	4317.8
664.247	4387.43
664.439	4328.04
664.631	4078.19
664.822	4262.51
665.014	4375.14
665.205	4252.27
665.397	4053.61
665.588	4113
665.78	4225.64
665.971	4162.16
666.163	4020.85
666.354	4029.04
666.546	3973.74
666.737	4065.9
666.929	3834.48
667.12	3967.6
667.311	3971.69
667.503	4043.37
667.694	3721.84
667.885	3945.07
668.077	3836.53
668.268	3877.49
668.459	3775.09
668.651	3736.18
668.842	3768.95
669.033	3641.97
669.224	3777.14
669.416	3588.72
669.607	3684.98
669.798	3654.26
669.989	3744.37
670.18	3676.79
670.371	3682.93
670.563	3709.55
670.754	3631.73
670.945	3453.56
671.136	3631.73
671.327	3510.9
671.518	3447.41
671.709	3332.73
671.9	3580.53
672.091	3529.33
672.282	3416.69
672.473	3431.03
672.664	3543.67
672.855	3441.27
673.046	3322.49
673.237	3369.59
673.428	3328.63
673.619	3291.77
673.809	3332.73
674	3340.92
674.191	3234.43
674.382	3123.84
674.573	3314.3
674.764	3338.87
674.954	3275.38
675.145	3340.92
675.336	3293.82
675.527	3500.66
675.717	3199.61
675.908	3224.19
676.099	3259
676.289	3215.99
676.48	3093.12
676.671	3154.55
676.861	3187.32
677.052	3134.07
677.243	3111.55
677.433	3146.36
677.624	3078.78
677.814	3005.05
678.005	3041.92
678.195	3039.87
678.386	3048.06
678.576	3007.1
678.767	3046.01
678.957	2996.86
679.148	2943.61
679.338	2988.67
679.529	2998.91
679.719	3056.25
679.909	2990.72
680.1	2925.18
680.29	2851.46
680.481	2857.6
680.671	3007.1
680.861	2871.93
681.052	2968.19
681.242	2734.72
681.432	3033.72
681.622	2957.95
681.813	2935.42
682.003	2699.91
682.193	2800.26
682.383	2878.08
682.573	2837.12
682.764	2894.46
682.954	2962.05
683.144	2830.98
683.334	2880.13
683.524	2910.85
683.714	2941.57
683.904	2665.09
684.094	2839.17
684.284	2904.7
684.474	2908.8
684.664	2835.07
684.854	2761.34
685.044	2708.1
685.234	2814.59
685.424	2751.1
685.614	2665.09
685.804	2828.93
685.994	2757.25
686.184	2771.58
686.374	2761.34
686.564	2728.58
686.753	2859.65
686.943	2783.87
687.133	2824.83
687.323	2722.43
687.513	2734.72
687.702	2728.58
687.892	2693.76
688.082	2716.29
688.272	2871.93
688.461	2663.04
688.651	2841.22
688.841	2769.54
689.03	2683.52
689.22	2603.65
689.41	2710.15
689.599	2747.01
689.789	2792.06
689.979	2720.39
690.168	2722.43
690.358	2642.56
690.547	2642.56
690.737	2785.92
690.926	2640.51
691.116	2650.75
691.305	2622.08
691.495	2744.96
691.684	2620.03
691.874	2687.62
692.063	2640.51
692.252	2751.1
692.442	2806.4
692.631	2648.71
692.82	2669.19
693.01	2624.13
693.199	2652.8
693.388	2728.58
693.578	2712.19
693.767	2757.25
693.956	2646.66
694.146	2681.47
694.335	2781.82
694.524	2622.08
694.713	2689.67
694.902	2536.07
695.092	2714.24
695.281	2695.81
695.47	2665.09
695.659	2611.84
695.848	2599.55
696.037	2691.71
696.226	2744.96
696.415	2615.94
696.604	2687.62
696.793	2622.08
696.982	2650.75
697.171	2732.67
697.36	2697.86
697.549	2849.41
697.738	2693.76
697.927	2656.9
698.116	2675.33
698.305	2622.08
698.494	2675.33
698.683	2611.84
698.872	2736.77
699.061	2691.71
699.25	2687.62
699.438	2761.34
699.627	2730.62
699.816	2601.6
700.005	2599.55
700.193	2583.17
700.382	2615.94
700.571	2552.45
700.76	2630.27
700.948	2509.44
701.137	2628.23
701.326	2560.64
701.514	2495.11
701.703	2572.93
701.892	2558.6
702.08	2617.99
702.269	2599.55
702.457	2605.7
702.646	2605.7
702.834	2468.48
703.023	2564.74
703.212	2536.07
703.4	2497.16
703.589	2534.02
703.777	2529.92
703.965	2566.79
704.154	2462.34
704.342	2499.2
704.531	2521.73
704.719	2491.01
704.907	2484.87
705.096	2497.16
705.284	2574.98
705.472	2468.48
705.661	2480.77
705.849	2534.02
706.037	2472.58
706.226	2450.05
706.414	2482.82
706.602	2493.06
706.79	2429.57
706.979	2390.66
707.167	2353.8
707.355	2361.99
707.543	2450.05
707.731	2394.76
707.919	2384.52
708.107	2429.57
708.296	2435.72
708.484	2491.01
708.672	2361.99
708.86	2400.9
709.048	2380.42
709.236	2368.13
709.424	2292.36
709.612	2347.65
709.8	2290.31
709.988	2255.5
710.176	2419.33
710.364	2237.06
710.551	2173.58
710.739	2251.4
710.927	2349.7
711.115	2243.21
711.303	2202.25
711.491	2237.06
711.679	2198.15
711.866	2232.97
712.054	2239.11
712.242	2112.14
712.43	2214.54
712.617	2218.63
712.805	2171.53
712.993	2206.34
713.181	2099.85
713.368	2210.44
713.556	2194.06
713.744	2153.1
713.931	2161.29
714.119	2013.84
714.306	2091.66
714.494	2114.19
714.682	2138.76
714.869	1940.11
715.057	2146.95
715.244	1991.31
715.432	1948.3
715.619	1970.83
715.807	2038.41
715.994	2046.6
716.182	2001.55
716.369	2024.08
716.556	2024.08
716.744	2034.32
716.931	1974.92
717.119	1981.07
717.306	1931.92
717.493	1997.45
717.681	1995.4
717.868	1856.14
718.055	1942.16
718.242	1976.97
718.43	1976.97
718.617	1884.81
718.804	1979.02
718.991	1847.95
719.179	1831.57
719.366	1847.95
719.553	1919.63
719.74	1804.94
719.927	1852.05
720.114	1800.85
720.301	1835.66
720.488	1819.28
720.676	1833.61
720.863	1919.63
721.05	1929.87
721.237	1854.09
721.424	1741.46
721.611	1802.9
721.798	1706.64
721.985	1712.78
722.172	1800.85
722.358	1813.13
722.545	1757.84
722.732	1747.6
722.919	1669.78
723.106	1768.08
723.293	1774.22
723.48	1780.37
723.667	1704.59
723.853	1634.96
724.04	1639.06
724.227	1622.67
724.414	1591.95
724.6	1698.45
724.787	1591.95
724.974	1702.54
725.161	1645.2
725.347	1700.5
725.534	1700.5
725.72	1712.78
725.907	1647.25
726.094	1653.39
726.28	1532.56
726.467	1620.63
726.653	1542.8
726.84	1587.86
727.027	1530.52
727.213	1571.47
727.4	1585.81
727.586	1643.15
727.773	1606.29
727.959	1626.77
728.145	1647.25
728.332	1522.32
728.518	1520.28
728.705	1532.56
728.891	1540.76
729.077	1501.84
729.264	1376.92
729.45	1454.74
729.636	1493.65
729.823	1473.17
730.009	1589.91
730.195	1444.5
730.382	1424.02
730.568	1469.08
730.754	1448.6
730.94	1507.99
731.126	1487.51
731.313	1415.83
731.499	1403.54
731.685	1381.01
731.871	1348.25
732.057	1358.49
732.243	1471.12
732.429	1419.92
732.615	1335.96
732.801	1493.65
732.987	1421.97
733.173	1346.2
733.359	1350.29
733.545	1327.77
733.731	1329.81
733.917	1419.92
734.103	1405.59
734.289	1469.08
734.475	1442.45
734.661	1434.26
734.847	1333.91
735.033	1462.93
735.219	1282.71
735.404	1409.69
735.59	1321.62
735.776	1299.09
735.962	1370.77
736.148	1245.85
736.333	1376.92
736.519	1276.57
736.705	1299.09
736.89	1288.86
737.076	1305.24
737.262	1258.14
737.447	1262.23
737.633	1268.38
737.819	1254.04
738.004	1192.6
738.19	1206.94
738.375	1278.62
738.561	1364.63
738.747	1256.09
738.932	1161.88
739.118	1237.66
739.303	1237.66
739.489	1231.51
739.674	1239.7
739.859	1139.35
740.045	1196.7
740.23	1268.38
740.416	1180.31
740.601	1131.16
740.786	1086.11
740.972	1112.73
741.157	1247.9
741.342	1079.96
741.528	1198.74
741.713	1174.17
741.898	1106.59
742.084	1213.08
742.269	1159.83
742.454	1055.39
742.639	1114.78
742.824	1155.74
743.01	1165.98
743.195	1082.01
743.38	1077.91
743.565	1043.1
743.75	1125.02
743.935	1063.58
744.12	1073.82
744.305	1039
744.49	1088.15
744.675	1061.53
744.86	1086.11
745.045	934.56
745.23	1043.1
745.415	1063.58
745.6	1036.95
745.785	1086.11
745.97	983.71
746.155	1088.15
746.34	1010.33
746.525	926.36
746.71	1045.15
746.895	1006.24
747.079	946.84
747.264	961.18
747.449	1002.14
747.634	1063.58
747.819	869.02
748.003	946.84
748.188	877.21
748.373	914.08
748.557	955.04
748.742	930.46
748.927	912.03
749.111	983.71
749.296	912.03
749.481	1010.33
749.665	899.74
749.85	844.45
750.034	936.6
750.219	879.26
750.404	801.44
750.588	875.17
750.773	821.92
750.957	932.51
751.141	897.69
751.326	762.53
751.51	846.49
751.695	832.16
751.879	850.59
752.064	783.01
752.248	873.12
752.432	785.05
752.617	793.25
752.801	866.97
752.985	785.05
753.17	793.25
753.354	789.15
753.538	842.4
753.722	762.53
753.907	756.38
754.091	805.53
754.275	785.05
754.459	725.66
754.643	832.16
754.828	832.16
755.012	727.71
755.196	793.25
755.38	748.19
755.564	682.66
755.748	656.03
755.932	715.42
756.116	746.14
756.3	690.85
756.484	670.37
756.668	670.37
756.852	662.18
757.036	754.34
757.22	715.42
757.404	649.89
757.588	629.41
757.772	733.86
757.956	645.79
758.14	647.84
758.323	670.37
758.507	666.27
758.691	674.46
758.875	678.56
759.059	696.99
759.242	668.32
759.426	653.98
759.61	635.55
759.794	713.38
759.977	639.65
760.161	631.46
760.345	705.18
760.528	635.55
760.712	608.93
760.895	684.7
761.079	623.27
761.263	602.79
761.446	660.13
761.63	613.03
761.813	666.27
761.997	660.13
762.18	547.49
762.364	600.74
762.547	565.92
762.731	561.83
762.914	531.11
763.098	500.39
763.281	524.96
763.464	574.11
763.648	596.64
763.831	588.45
764.015	576.16
764.198	559.78
764.381	576.16
764.564	541.35
764.748	522.91
764.931	578.21
765.114	602.79
765.297	533.15
765.481	514.72
765.664	592.55
765.847	559.78
766.03	561.83
766.213	529.06
766.397	635.55
766.58	549.54
766.763	580.26
766.946	619.17
767.129	541.35
767.312	561.83
767.495	590.5
767.678	518.82
767.861	502.43
768.044	510.63
768.227	543.39
768.41	498.34
768.593	494.24
768.776	533.15
768.959	496.29
769.142	565.92
769.324	471.72
769.507	504.48
769.69	424.61
769.873	537.25
770.056	539.3
770.239	510.63
770.421	490.15
770.604	486.05
770.787	510.63
770.97	531.11
771.152	451.24
771.335	549.54
771.518	498.34
771.7	520.87
771.883	498.34
772.066	457.38
772.248	481.96
772.431	561.83
772.613	467.62
772.796	533.15
772.978	488.1
773.161	469.67
773.343	469.67
773.526	445.09
773.708	404.13
773.891	459.43
774.073	461.48
774.256	434.85
774.438	492.2
774.621	412.32
774.803	469.67
774.985	391.84
775.168	502.43
775.35	508.58
775.532	469.67
775.715	494.24
775.897	486.05
776.079	471.72
776.261	426.66
776.444	412.32
776.626	418.47
776.808	424.61
776.99	447.14
777.173	400.04
777.355	418.47
777.537	385.7
777.719	475.81
777.901	438.95
778.083	379.56
778.265	434.85
778.447	410.28
778.629	334.5
778.811	381.6
778.993	430.76
779.175	432.8
779.357	332.45
779.539	332.45
779.721	412.32
779.903	352.93
780.085	371.37
780.267	393.89
780.449	418.47
780.631	414.37
780.812	283.3
780.994	404.13
781.176	379.56
781.358	342.69
781.54	346.79
781.721	340.65
781.903	361.13
782.085	297.64
782.267	344.74
782.448	309.93
782.63	328.36
782.812	352.93
782.993	387.75
783.175	324.26
783.357	293.54
783.538	314.02
783.72	340.65
783.901	326.31
784.083	301.73
784.264	287.4
784.446	340.65
784.627	289.45
784.809	301.73
784.99	314.02
785.172	314.02
785.353	283.3
785.535	307.88
785.716	256.68
785.897	244.39
786.079	314.02
786.26	256.68
786.441	293.54
786.623	248.49
786.804	223.91
786.985	230.06
787.167	201.38
787.348	221.86
787.529	303.78
787.71	287.4
787.891	334.5
788.073	266.92
788.254	250.53
788.435	297.64
788.616	281.25
788.797	250.53
788.978	248.49
789.159	266.92
789.34	246.44
789.522	209.58
789.703	314.02
789.884	271.01
790.065	266.92
790.246	248.49
790.427	256.68
790.607	283.3
790.788	250.53
790.969	289.45
791.15	203.43
791.331	178.86
791.512	301.73
791.693	215.72
791.874	213.67
792.054	256.68
792.235	225.96
792.416	209.58
792.597	250.53
792.778	254.63
792.958	248.49
793.139	221.86
793.32	207.53
793.5	246.44
793.681	195.24
793.862	221.86
794.042	217.77
794.223	199.34
794.404	185
794.584	215.72
794.765	178.86
794.945	187.05
795.126	201.38
795.306	254.63
795.487	152.23
795.667	197.29
795.848	271.01
796.028	215.72
796.209	178.86
796.389	154.28
796.57	195.24
796.75	150.18
796.93	242.34
797.111	166.57
797.291	211.62
797.471	236.2
797.652	217.77
797.832	193.19
798.012	201.38
798.192	166.57
798.373	174.76
798.553	189.1
798.733	160.42
798.913	164.52
799.093	240.29
799.274	176.81
799.454	129.7
799.634	174.76
799.814	180.9
799.994	170.66
800.174	234.15
800.354	213.67
800.534	76.46
800.714	135.85
800.894	135.85
801.074	234.15
801.254	115.37
801.434	195.24
801.614	137.9
801.794	189.1
801.974	367.27
802.154	119.46
802.334	152.23
802.514	154.28
802.693	193.19
802.873	60.07
803.053	193.19
803.233	152.23
803.413	119.46
803.592	174.76
803.772	172.71
803.952	170.66
804.131	148.14
804.311	144.04
804.491	139.94
804.67	152.23
804.85	117.42
805.03	156.33
805.209	117.42
805.389	178.86
805.568	189.1
805.748	148.14
805.928	90.79
806.107	141.99
806.287	141.99
806.466	146.09
806.646	133.8
806.825	127.66
807.004	137.9
807.184	68.27
807.363	178.86
807.543	185
807.722	90.79
807.901	144.04
808.081	189.1
808.26	129.7
808.439	225.96
808.619	74.41
808.798	98.99
808.977	166.57
809.156	213.67
809.336	78.51
809.515	125.61
809.694	164.52
809.873	117.42
810.052	131.75
810.231	111.27
810.411	129.7
810.59	119.46
810.769	66.22
810.948	166.57
811.127	29.35
811.306	168.62
811.485	119.46
811.664	94.89
811.843	213.67
812.022	141.99
812.201	94.89
812.38	156.33
812.559	90.79
812.737	133.8
812.916	107.18
813.095	64.17
813.274	64.17
813.453	146.09
813.632	135.85
813.811	139.94
813.989	178.86
814.168	51.88
814.347	109.22
814.526	201.38
814.704	131.75
814.883	96.94
815.062	23.21
815.24	88.75
815.419	129.7
815.598	127.66
815.776	119.46
815.955	84.65
816.133	49.83
816.312	185
816.49	103.08
816.669	105.13
816.847	111.27
817.026	64.17
817.204	45.74
817.383	131.75
817.561	113.32
817.74	68.27
817.918	98.99
818.097	94.89
818.275	72.36
818.453	127.66
818.632	49.83
818.81	55.98
818.988	41.64
819.167	119.46
819.345	76.46
819.523	166.57
819.701	123.56
819.879	64.17
820.058	43.69
820.236	94.89
820.414	62.12
820.592	129.7
820.77	131.75
820.948	156.33
821.127	84.65
821.305	154.28
821.483	68.27
821.661	146.09
821.839	19.11
822.017	55.98
822.195	137.9
822.373	101.03
822.551	-19.8
822.729	80.55
822.907	76.46
823.085	53.93
823.262	90.79
823.44	60.07
823.618	105.13
823.796	62.12
823.974	111.27
824.152	68.27
824.329	115.37
824.507	62.12
824.685	135.85
824.863	123.56
825.04	17.07
825.218	43.69
825.396	74.41
825.574	72.36
825.751	21.16
825.929	156.33
826.107	76.46
826.284	123.56
826.462	39.59
826.639	45.74
826.817	98.99
826.994	96.94
827.172	21.16
827.349	82.6
827.527	109.22
827.704	45.74
827.882	88.75
828.059	49.83
828.237	31.4
828.414	84.65
828.591	90.79
828.769	101.03
828.946	53.93
829.124	113.32
829.301	135.85
829.478	129.7
829.655	70.31
829.833	74.41
830.01	39.59
830.187	139.94
830.364	72.36
830.542	64.17
830.719	125.61
830.896	123.56
831.073	49.83
831.25	41.64
831.427	76.46
831.604	103.08
831.782	94.89
831.959	105.13
832.136	90.79
832.313	74.41
832.49	33.45
832.667	37.55
832.844	64.17
833.021	94.89
833.198	29.35
833.374	62.12
833.551	123.56
833.728	70.31
833.905	92.84
834.082	109.22
834.259	58.03
834.436	6.83
834.612	-42.32
834.789	119.46
834.966	78.51
835.143	107.18
835.319	98.99
835.496	90.79
835.673	60.07
835.85	53.93
836.026	66.22
836.203	137.9
836.38	53.93
836.556	64.17
836.733	15.02
836.909	53.93
837.086	29.35
837.262	72.36
837.439	49.83
837.616	94.89
837.792	8.87
837.968	127.66
838.145	94.89
838.321	64.17
838.498	98.99
838.674	131.75
838.851	121.51
839.027	39.59
839.203	92.84
839.38	8.87
839.556	107.18
839.732	31.4
839.909	29.35
840.085	55.98
840.261	47.79
840.437	70.31
840.614	82.6
840.79	76.46
840.966	78.51
841.142	51.88
841.318	72.36
841.494	92.84
841.671	76.46
841.847	6.83
842.023	55.98
842.199	84.65
842.375	10.92
842.551	131.75
842.727	21.16
842.903	123.56
843.079	23.21
843.255	51.88
843.431	29.35
843.607	58.03
843.783	-38.23
843.959	72.36
844.134	33.45
844.31	37.55
844.486	119.46
844.662	25.26
844.838	107.18
845.013	55.98
845.189	53.93
845.365	-15.7
845.541	68.27
845.716	23.21
845.892	49.83
846.068	-13.65
846.244	29.35
846.419	8.87
846.595	78.51
846.77	92.84
846.946	31.4
847.122	96.94
847.297	51.88
847.473	123.56
847.648	10.92
847.824	0.68
847.999	23.21
848.175	15.02
848.35	88.75
848.526	78.51
848.701	82.6
848.876	68.27
849.052	68.27
849.227	45.74
849.403	-32.08
849.578	27.31
849.753	62.12
849.929	17.07
850.104	78.51
850.279	62.12
850.454	41.64
850.63	94.89
850.805	53.93
850.98	119.46
851.155	49.83
851.33	31.4
851.505	55.98
851.681	86.7
851.856	78.51
852.031	72.36
852.206	8.87
852.381	10.92
852.556	41.64
852.731	64.17
852.906	103.08
853.081	-9.56
853.256	64.17
853.431	55.98
853.606	109.22
853.781	70.31
853.956	55.98
854.131	70.31
854.305	35.5
854.48	31.4
854.655	39.59
854.83	55.98
855.005	8.87
855.18	105.13
855.354	31.4
855.529	68.27
855.704	78.51
855.879	37.55
856.053	37.55
856.228	43.69
856.403	27.31
856.577	39.59
856.752	45.74
856.926	12.97
857.101	49.83
857.276	84.65
857.45	29.35
857.625	82.6
857.799	12.97
857.974	74.41
858.148	82.6
858.323	103.08
858.497	60.07
858.672	39.59
858.846	41.64
859.02	103.08
859.195	19.11
859.369	96.94
859.543	78.51
859.718	41.64
859.892	0.68
860.066	80.55
860.241	-1.37
860.415	66.22
860.589	64.17
860.763	35.5
860.938	25.26
861.112	96.94
861.286	0.68
861.46	105.13
861.634	45.74
861.808	74.41
861.982	2.73
862.157	64.17
862.331	47.79
862.505	66.22
862.679	12.97
862.853	33.45
863.027	74.41
863.201	70.31
863.375	39.59
863.549	25.26
863.722	15.02
863.896	98.99
864.07	-9.56
864.244	47.79
864.418	41.64
864.592	70.31
864.766	45.74
864.939	82.6
865.113	51.88
865.287	19.11
865.461	23.21
865.634	27.31
865.808	23.21
865.982	17.07
866.156	68.27
866.329	-3.41
866.503	-36.18
866.676	55.98
866.85	92.84
867.024	84.65
867.197	47.79
867.371	23.21
867.544	-5.46
867.718	58.03
867.891	39.59
868.065	58.03
868.238	53.93
868.412	27.31
868.585	39.59
868.759	39.59
868.932	23.21
869.105	4.78
869.279	76.46
869.452	10.92
869.625	-27.99
869.799	74.41
869.972	8.87
870.145	-40.28
870.319	123.56
870.492	37.55
870.665	-54.61
870.838	84.65
871.011	66.22
871.185	33.45
871.358	12.97
871.531	80.55
871.704	31.4
871.877	41.64
872.05	-11.61
872.223	55.98
872.396	10.92
872.569	105.13
872.742	23.21
872.915	37.55
873.088	-13.65
873.261	10.92
873.434	27.31
873.607	-77.14
873.78	41.64
873.953	-23.89
874.126	15.02
874.299	8.87
874.471	39.59
874.644	23.21
874.817	17.07
874.99	-1.37
875.163	10.92
875.335	37.55
875.508	45.74
875.681	12.97
875.853	12.97
876.026	6.83
876.199	60.07
876.371	41.64
876.544	8.87
876.717	10.92
876.889	82.6
877.062	39.59
877.234	21.16
877.407	47.79
877.579	27.31
877.752	64.17
877.924	17.07
878.097	72.36
878.269	8.87
878.442	-9.56
878.614	43.69
878.786	103.08
878.959	29.35
879.131	-44.37
879.303	29.35
879.476	2.73
879.648	68.27
879.82	58.03
879.993	35.5
880.165	64.17
880.337	96.94
880.509	-13.65
880.681	-27.99
880.854	35.5
881.026	2.73
881.198	51.88
881.37	-30.04
881.542	-7.51
881.714	72.36
881.886	17.07
882.058	121.51
882.23	2.73
882.402	-1.37
882.574	78.51
882.746	-15.7
882.918	45.74
883.09	27.31
883.262	35.5
883.434	35.5
883.606	41.64
883.778	21.16
883.95	70.31
884.122	41.64
884.293	29.35
884.465	49.83
884.637	4.78
884.809	0.68
884.98	37.55
885.152	-48.47
885.324	15.02
885.496	35.5
885.667	76.46
885.839	31.4
886.011	33.45
886.182	62.12
886.354	78.51
886.525	58.03
886.697	49.83
886.869	51.88
887.04	76.46
887.212	8.87
887.383	121.51
887.555	6.83
887.726	25.26
887.897	-3.41
888.069	31.4
888.24	60.07
888.412	53.93
888.583	39.59
888.754	86.7
888.926	19.11
889.097	47.79
889.268	64.17
889.44	29.35
889.611	-32.08
889.782	10.92
889.953	-13.65
890.125	25.26
890.296	-5.46
890.467	60.07
890.638	-38.23
890.809	23.21
890.98	0.68
891.151	35.5
891.323	68.27
891.494	74.41
891.665	-15.7
891.836	-1.37
892.007	-66.9
892.178	23.21
892.349	4.78
892.52	103.08
892.691	98.99
892.862	33.45
893.032	35.5
893.203	31.4
893.374	-1.37
893.545	15.02
893.716	-36.18
893.887	51.88
894.057	21.16
894.228	58.03
894.399	68.27
894.57	74.41
894.74	15.02
894.911	27.31
895.082	41.64
895.253	23.21
895.423	-30.04
895.594	64.17
895.764	53.93
895.935	72.36
896.106	51.88
896.276	29.35
896.447	66.22
896.617	47.79
896.788	33.45
896.958	-34.13
897.129	60.07
897.299	-9.56
897.47	103.08
897.64	29.35
897.81	4.78
897.981	12.97
898.151	4.78
898.322	98.99
898.492	-44.37
898.662	45.74
898.832	19.11
899.003	66.22
899.173	25.26
899.343	98.99
899.513	-58.71
