Data from USB4F104151__25__13-52-39-702.txt Node

Date: Thu Mar 13 13:52:39 EDT 2025
User: louis
Spectrometer: USB4F10415
Trigger mode: 4
Integration Time (sec): 1.000000E-2
Scans to average: 1
Electric dark correction enabled: true
Nonlinearity correction enabled: false
Boxcar width: 0
XAxis mode: Wavelengths
Number of Pixels in Spectrum: 3648
>>>>>Begin Spectral Data<<<<<
178.204	-7
178.424	-7
178.644	-7
178.864	-47.96
179.084	-31.57
179.304	27.82
179.524	5.29
179.744	-56.15
179.964	-7
180.184	7.34
180.404	7.34
180.624	17.58
180.844	-4.95
181.064	-52.05
181.283	36.01
181.503	25.77
181.723	-7
181.943	89.26
182.163	33.96
182.383	-21.33
182.602	-2.9
182.822	-17.24
183.042	-56.15
183.262	44.2
183.482	36.01
183.701	33.96
183.921	72.87
184.141	5.29
184.361	-52.05
184.58	81.07
184.8	36.01
185.02	42.15
185.239	-7
185.459	23.72
185.679	44.2
185.898	-17.24
186.118	-23.38
186.338	3.24
186.557	-19.29
186.777	-15.19
186.997	-50
187.216	-84.82
187.436	29.87
187.655	7.34
187.875	48.3
188.095	40.11
188.314	44.2
188.534	27.82
188.753	21.67
188.973	52.39
189.192	5.29
189.412	15.53
189.631	21.67
189.851	-17.24
190.07	-15.19
190.29	15.53
190.509	1.19
190.729	56.49
190.948	68.78
191.168	9.39
191.387	60.59
191.607	-50
191.826	13.48
192.045	-27.48
192.265	-21.33
192.484	3.24
192.704	64.68
192.923	-35.67
193.142	27.82
193.362	-11.09
193.581	21.67
193.8	3.24
194.02	72.87
194.239	-33.62
194.458	29.87
194.678	-70.48
194.897	74.92
195.116	103.59
195.335	-9.05
195.555	-9.05
195.774	-15.19
195.993	1.19
196.212	-43.86
196.432	9.39
196.651	38.06
196.87	1.19
197.089	87.21
197.308	-25.43
197.528	-39.76
197.747	-0.85
197.966	31.91
198.185	-58.2
198.404	-31.57
198.623	48.3
198.842	-2.9
199.062	44.2
199.281	72.87
199.5	-23.38
199.719	54.44
199.938	27.82
200.157	-4.95
200.376	-31.57
200.595	50.35
200.814	-9.05
201.033	11.43
201.252	23.72
201.471	-21.33
201.69	7.34
201.909	33.96
202.128	5.29
202.347	9.39
202.566	-29.52
202.785	15.53
203.004	17.58
203.223	42.15
203.442	56.49
203.661	-23.38
203.879	-4.95
204.098	64.68
204.317	-37.72
204.536	38.06
204.755	29.87
204.974	-19.29
205.193	9.39
205.411	44.2
205.63	-52.05
205.849	-21.33
206.068	72.87
206.287	-2.9
206.505	-45.91
206.724	19.63
206.943	19.63
207.162	83.11
207.381	-0.85
207.599	21.67
207.818	5.29
208.037	19.63
208.255	-2.9
208.474	19.63
208.693	-47.96
208.911	-4.95
209.13	31.91
209.349	-68.44
209.567	31.91
209.786	40.11
210.005	-11.09
210.223	-37.72
210.442	-41.81
210.661	3.24
210.879	44.2
211.098	5.29
211.316	3.24
211.535	-33.62
211.753	-0.85
211.972	-15.19
212.191	50.35
212.409	1.19
212.628	13.48
212.846	-15.19
213.065	48.3
213.283	11.43
213.502	48.3
213.72	33.96
213.938	1.19
214.157	89.26
214.375	25.77
214.594	-11.09
214.812	15.53
215.031	44.2
215.249	-70.48
215.467	-41.81
215.686	23.72
215.904	17.58
216.122	54.44
216.341	13.48
216.559	-2.9
216.778	1.19
216.996	76.97
217.214	15.53
217.432	15.53
217.651	-35.67
217.869	-13.14
218.087	23.72
218.306	1.19
218.524	66.73
218.742	-54.1
218.96	27.82
219.179	-17.24
219.397	15.53
219.615	52.39
219.833	33.96
220.051	-7
220.27	52.39
220.488	-58.2
220.706	-23.38
220.924	7.34
221.142	54.44
221.36	58.54
221.578	19.63
221.796	33.96
222.015	11.43
222.233	38.06
222.451	11.43
222.669	17.58
222.887	17.58
223.105	103.59
223.323	23.72
223.541	-11.09
223.759	31.91
223.977	3.24
224.195	-21.33
224.413	-9.05
224.631	40.11
224.849	31.91
225.067	50.35
225.285	-4.95
225.503	19.63
225.721	13.48
225.939	31.91
226.157	15.53
226.375	38.06
226.592	31.91
226.81	-23.38
227.028	33.96
227.246	31.91
227.464	-90.96
227.682	62.63
227.9	-27.48
228.117	83.11
228.335	-11.09
228.553	15.53
228.771	42.15
228.989	-7
229.206	-9.05
229.424	-29.52
229.642	9.39
229.86	-7
230.077	15.53
230.295	3.24
230.513	-56.15
230.731	-35.67
230.948	81.07
231.166	7.34
231.384	13.48
231.601	1.19
231.819	23.72
232.037	52.39
232.254	42.15
232.472	48.3
232.689	-7
232.907	-41.81
233.125	5.29
233.342	68.78
233.56	42.15
233.777	42.15
233.995	46.25
234.213	15.53
234.43	31.91
234.648	-7
234.865	7.34
235.083	-2.9
235.3	23.72
235.518	-39.76
235.735	13.48
235.953	23.72
236.17	-23.38
236.388	19.63
236.605	5.29
236.822	36.01
237.04	54.44
237.257	17.58
237.475	33.96
237.692	74.92
237.909	72.87
238.127	27.82
238.344	-9.05
238.562	19.63
238.779	-2.9
238.996	81.07
239.214	3.24
239.431	9.39
239.648	27.82
239.865	-15.19
240.083	17.58
240.3	38.06
240.517	-35.67
240.735	40.11
240.952	50.35
241.169	3.24
241.386	-2.9
241.603	38.06
241.821	-41.81
242.038	-7
242.255	70.83
242.472	-17.24
242.689	17.58
242.907	42.15
243.124	58.54
243.341	3.24
243.558	-4.95
243.775	-0.85
243.992	62.63
244.209	21.67
244.426	50.35
244.643	40.11
244.86	36.01
245.078	-13.14
245.295	48.3
245.512	25.77
245.729	27.82
245.946	60.59
246.163	-43.86
246.38	-25.43
246.597	3.24
246.814	91.31
247.031	48.3
247.248	50.35
247.464	74.92
247.681	1.19
247.898	81.07
248.115	40.11
248.332	-93.01
248.549	46.25
248.766	58.54
248.983	52.39
249.2	56.49
249.417	3.24
249.633	36.01
249.85	-15.19
250.067	101.55
250.284	21.67
250.501	76.97
250.717	9.39
250.934	83.11
251.151	83.11
251.368	44.2
251.585	29.87
251.801	83.11
252.018	27.82
252.235	42.15
252.451	-0.85
252.668	17.58
252.885	36.01
253.102	-27.48
253.318	29.87
253.535	-19.29
253.752	-37.72
253.968	46.25
254.185	101.55
254.401	-35.67
254.618	33.96
254.835	-4.95
255.051	1.19
255.268	62.63
255.484	31.91
255.701	23.72
255.917	60.59
256.134	1.19
256.351	33.96
256.567	-0.85
256.784	-15.19
257	58.54
257.217	56.49
257.433	13.48
257.65	-29.52
257.866	-17.24
258.082	-4.95
258.299	-37.72
258.515	-31.57
258.732	62.63
258.948	83.11
259.165	72.87
259.381	95.4
259.597	52.39
259.814	83.11
260.03	46.25
260.246	29.87
260.463	-19.29
260.679	17.58
260.895	105.64
261.112	33.96
261.328	81.07
261.544	-27.48
261.761	38.06
261.977	-17.24
262.193	38.06
262.409	48.3
262.626	-15.19
262.842	23.72
263.058	-33.62
263.274	31.91
263.49	19.63
263.707	72.87
263.923	-33.62
264.139	7.34
264.355	89.26
264.571	44.2
264.787	25.77
265.004	44.2
265.22	52.39
265.436	46.25
265.652	-4.95
265.868	76.97
266.084	-33.62
266.3	21.67
266.516	74.92
266.732	3.24
266.948	-41.81
267.164	76.97
267.38	-15.19
267.596	19.63
267.812	40.11
268.028	19.63
268.244	38.06
268.46	62.63
268.676	-62.29
268.892	17.58
269.108	5.29
269.324	66.73
269.54	7.34
269.756	-27.48
269.972	-86.87
270.188	38.06
270.403	62.63
270.619	-23.38
270.835	-0.85
271.051	-21.33
271.267	-4.95
271.483	-7
271.698	48.3
271.914	25.77
272.13	-9.05
272.346	-23.38
272.562	-13.14
272.777	62.63
272.993	48.3
273.209	5.29
273.425	117.93
273.64	-11.09
273.856	56.49
274.072	-45.91
274.287	44.2
274.503	23.72
274.719	54.44
274.934	-29.52
275.15	21.67
275.366	36.01
275.581	7.34
275.797	48.3
276.012	31.91
276.228	31.91
276.444	29.87
276.659	-35.67
276.875	60.59
277.09	17.58
277.306	52.39
277.521	58.54
277.737	46.25
277.952	17.58
278.168	58.54
278.383	64.68
278.599	-2.9
278.814	70.83
279.03	62.63
279.245	31.91
279.461	40.11
279.676	50.35
279.892	-0.85
280.107	23.72
280.322	48.3
280.538	11.43
280.753	-0.85
280.969	36.01
281.184	7.34
281.399	48.3
281.615	46.25
281.83	13.48
282.045	25.77
282.26	81.07
282.476	48.3
282.691	3.24
282.906	7.34
283.122	-9.05
283.337	87.21
283.552	58.54
283.767	-33.62
283.983	3.24
284.198	11.43
284.413	-11.09
284.628	64.68
284.843	89.26
285.058	27.82
285.274	72.87
285.489	3.24
285.704	38.06
285.919	-11.09
286.134	62.63
286.349	91.31
286.564	13.48
286.779	5.29
286.995	50.35
287.21	-27.48
287.425	3.24
287.64	-17.24
287.855	31.91
288.07	3.24
288.285	23.72
288.5	-17.24
288.715	79.02
288.93	76.97
289.145	64.68
289.36	74.92
289.575	60.59
289.79	15.53
290.004	50.35
290.219	33.96
290.434	54.44
290.649	38.06
290.864	54.44
291.079	23.72
291.294	21.67
291.509	13.48
291.724	3.24
291.938	27.82
292.153	91.31
292.368	-0.85
292.583	76.97
292.798	44.2
293.012	113.83
293.227	13.48
293.442	23.72
293.657	50.35
293.871	85.16
294.086	44.2
294.301	58.54
294.516	1.19
294.73	48.3
294.945	97.45
295.16	3.24
295.374	3.24
295.589	44.2
295.804	1.19
296.018	54.44
296.233	40.11
296.447	-7
296.662	23.72
296.877	70.83
297.091	23.72
297.306	19.63
297.52	128.17
297.735	33.96
297.949	11.43
298.164	9.39
298.378	40.11
298.593	44.2
298.807	-15.19
299.022	119.98
299.236	29.87
299.451	50.35
299.665	40.11
299.88	-33.62
300.094	-11.09
300.309	-47.96
300.523	50.35
300.737	93.35
300.952	46.25
301.166	72.87
301.381	33.96
301.595	58.54
301.809	9.39
302.024	-11.09
302.238	-4.95
302.452	40.11
302.667	-2.9
302.881	91.31
303.095	40.11
303.309	66.73
303.524	27.82
303.738	15.53
303.952	7.34
304.166	89.26
304.381	-2.9
304.595	33.96
304.809	31.91
305.023	5.29
305.237	42.15
305.452	27.82
305.666	93.35
305.88	70.83
306.094	66.73
306.308	50.35
306.522	-41.81
306.736	-17.24
306.95	56.49
307.164	-9.05
307.379	44.2
307.593	52.39
307.807	-0.85
308.021	85.16
308.235	38.06
308.449	-19.29
308.663	25.77
308.877	126.12
309.091	48.3
309.305	17.58
309.519	42.15
309.733	74.92
309.947	-4.95
310.161	46.25
310.374	33.96
310.588	93.35
310.802	17.58
311.016	29.87
311.23	36.01
311.444	66.73
311.658	44.2
311.872	25.77
312.085	19.63
312.299	83.11
312.513	38.06
312.727	46.25
312.941	54.44
313.154	38.06
313.368	48.3
313.582	58.54
313.796	13.48
314.009	-4.95
314.223	9.39
314.437	52.39
314.651	-17.24
314.864	27.82
315.078	-52.05
315.292	-21.33
315.505	-0.85
315.719	9.39
315.933	-17.24
316.146	11.43
316.36	-13.14
316.573	21.67
316.787	5.29
317.001	87.21
317.214	87.21
317.428	36.01
317.641	38.06
317.855	-39.76
318.068	44.2
318.282	3.24
318.495	5.29
318.709	-29.52
318.922	33.96
319.136	50.35
319.349	36.01
319.563	40.11
319.776	42.15
319.99	-11.09
320.203	56.49
320.417	68.78
320.63	54.44
320.843	44.2
321.057	72.87
321.27	79.02
321.483	79.02
321.697	19.63
321.91	-27.48
322.124	52.39
322.337	21.67
322.55	9.39
322.763	85.16
322.977	13.48
323.19	-21.33
323.403	19.63
323.617	62.63
323.83	85.16
324.043	38.06
324.256	40.11
324.469	68.78
324.683	33.96
324.896	36.01
325.109	87.21
325.322	23.72
325.535	70.83
325.748	-41.81
325.962	52.39
326.175	15.53
326.388	42.15
326.601	-45.91
326.814	56.49
327.027	33.96
327.24	33.96
327.453	58.54
327.666	38.06
327.879	64.68
328.092	66.73
328.305	62.63
328.518	15.53
328.731	62.63
328.944	54.44
329.157	-13.14
329.37	-21.33
329.583	38.06
329.796	5.29
330.009	31.91
330.222	-35.67
330.435	-13.14
330.648	29.87
330.861	23.72
331.073	-13.14
331.286	33.96
331.499	15.53
331.712	52.39
331.925	31.91
332.138	1.19
332.35	-11.09
332.563	3.24
332.776	52.39
332.989	-13.14
333.202	21.67
333.414	-25.43
333.627	42.15
333.84	-15.19
334.053	21.67
334.265	31.91
334.478	5.29
334.691	7.34
334.903	27.82
335.116	-0.85
335.329	-13.14
335.541	85.16
335.754	56.49
335.966	13.48
336.179	56.49
336.392	56.49
336.604	-39.76
336.817	81.07
337.029	7.34
337.242	-25.43
337.454	17.58
337.667	64.68
337.88	-15.19
338.092	33.96
338.305	33.96
338.517	31.91
338.729	66.73
338.942	-0.85
339.154	91.31
339.367	-11.09
339.579	11.43
339.792	52.39
340.004	9.39
340.217	5.29
340.429	29.87
340.641	103.59
340.854	64.68
341.066	-4.95
341.278	60.59
341.491	-2.9
341.703	-39.76
341.915	48.3
342.128	52.39
342.34	52.39
342.552	40.11
342.764	-21.33
342.977	36.01
343.189	36.01
343.401	33.96
343.613	27.82
343.826	89.26
344.038	-19.29
344.25	-7
344.462	-31.57
344.674	31.91
344.886	27.82
345.099	19.63
345.311	25.77
345.523	76.97
345.735	36.01
345.947	56.49
346.159	36.01
346.371	74.92
346.583	68.78
346.795	89.26
347.007	21.67
347.219	31.91
347.431	103.59
347.643	40.11
347.855	54.44
348.067	19.63
348.279	19.63
348.491	52.39
348.703	42.15
348.915	68.78
349.127	1.19
349.339	-66.39
349.551	33.96
349.763	36.01
349.975	-43.86
350.187	48.3
350.399	-4.95
350.61	19.63
350.822	-15.19
351.034	7.34
351.246	15.53
351.458	72.87
351.669	-11.09
351.881	38.06
352.093	3.24
352.305	66.73
352.517	-9.05
352.728	81.07
352.94	76.97
353.152	3.24
353.363	31.91
353.575	81.07
353.787	42.15
353.999	95.4
354.21	19.63
354.422	29.87
354.633	13.48
354.845	60.59
355.057	13.48
355.268	42.15
355.48	101.55
355.692	-17.24
355.903	54.44
356.115	64.68
356.326	-35.67
356.538	81.07
356.749	72.87
356.961	-2.9
357.172	85.16
357.384	31.91
357.595	111.78
357.807	23.72
358.018	-19.29
358.23	7.34
358.441	-21.33
358.653	7.34
358.864	23.72
359.075	-7
359.287	79.02
359.498	46.25
359.709	9.39
359.921	87.21
360.132	-11.09
360.344	33.96
360.555	103.59
360.766	3.24
360.977	62.63
361.189	-29.52
361.4	58.54
361.611	93.35
361.823	36.01
362.034	76.97
362.245	62.63
362.456	11.43
362.667	-9.05
362.879	25.77
363.09	11.43
363.301	-29.52
363.512	5.29
363.723	44.2
363.935	-33.62
364.146	74.92
364.357	40.11
364.568	74.92
364.779	72.87
364.99	21.67
365.201	68.78
365.412	111.78
365.623	-39.76
365.834	17.58
366.045	79.02
366.256	72.87
366.467	25.77
366.678	68.78
366.889	19.63
367.1	66.73
367.311	17.58
367.522	-9.05
367.733	83.11
367.944	52.39
368.155	15.53
368.366	44.2
368.577	105.64
368.788	33.96
368.999	40.11
369.209	23.72
369.42	52.39
369.631	54.44
369.842	-17.24
370.053	46.25
370.264	17.58
370.474	-0.85
370.685	31.91
370.896	-13.14
371.107	31.91
371.317	93.35
371.528	101.55
371.739	48.3
371.95	-39.76
372.16	29.87
372.371	70.83
372.582	27.82
372.792	-29.52
373.003	36.01
373.214	-19.29
373.424	7.34
373.635	7.34
373.846	-2.9
374.056	29.87
374.267	101.55
374.477	66.73
374.688	1.19
374.898	-27.48
375.109	105.64
375.319	46.25
375.53	91.31
375.74	173.22
375.951	122.02
376.161	-31.57
376.372	54.44
376.582	29.87
376.793	27.82
377.003	81.07
377.214	-15.19
377.424	52.39
377.635	31.91
377.845	87.21
378.055	44.2
378.266	3.24
378.476	40.11
378.686	13.48
378.897	36.01
379.107	46.25
379.317	68.78
379.528	33.96
379.738	23.72
379.948	56.49
380.158	99.5
380.369	-56.15
380.579	1.19
380.789	81.07
380.999	50.35
381.21	50.35
381.42	17.58
381.63	89.26
381.84	66.73
382.05	44.2
382.261	62.63
382.471	40.11
382.681	66.73
382.891	48.3
383.101	36.01
383.311	3.24
383.521	85.16
383.731	40.11
383.941	60.59
384.151	-43.86
384.361	19.63
384.571	97.45
384.781	15.53
384.991	44.2
385.201	66.73
385.411	85.16
385.621	38.06
385.831	31.91
386.041	48.3
386.251	17.58
386.461	42.15
386.671	7.34
386.881	79.02
387.091	-41.81
387.301	101.55
387.511	-21.33
387.72	79.02
387.93	23.72
388.14	33.96
388.35	52.39
388.56	58.54
388.769	62.63
388.979	50.35
389.189	64.68
389.399	60.59
389.609	44.2
389.818	48.3
390.028	-31.57
390.238	68.78
390.447	1.19
390.657	72.87
390.867	101.55
391.076	60.59
391.286	72.87
391.496	62.63
391.705	70.83
391.915	19.63
392.125	79.02
392.334	117.93
392.544	70.83
392.753	76.97
392.963	56.49
393.172	103.59
393.382	25.77
393.591	44.2
393.801	126.12
394.01	83.11
394.22	1.19
394.429	21.67
394.639	23.72
394.848	58.54
395.058	60.59
395.267	13.48
395.477	44.2
395.686	91.31
395.895	111.78
396.105	50.35
396.314	66.73
396.524	31.91
396.733	50.35
396.942	85.16
397.152	68.78
397.361	85.16
397.57	-11.09
397.78	25.77
397.989	50.35
398.198	-0.85
398.407	52.39
398.617	60.59
398.826	62.63
399.035	124.07
399.244	99.5
399.453	42.15
399.663	62.63
399.872	38.06
400.081	79.02
400.29	95.4
400.499	62.63
400.708	62.63
400.917	36.01
401.127	66.73
401.336	115.88
401.545	109.74
401.754	95.4
401.963	56.49
402.172	134.31
402.381	113.83
402.59	87.21
402.799	140.46
403.008	50.35
403.217	99.5
403.426	146.6
403.635	13.48
403.844	165.03
404.053	107.69
404.262	187.56
404.471	173.22
404.68	134.31
404.888	99.5
405.097	89.26
405.306	42.15
405.515	76.97
405.724	107.69
405.933	119.98
406.142	83.11
406.35	109.74
406.559	134.31
406.768	132.26
406.977	167.08
407.185	136.36
407.394	148.65
407.603	173.22
407.812	189.61
408.02	210.09
408.229	105.64
408.438	144.55
408.646	253.09
408.855	113.83
409.064	150.7
409.272	230.57
409.481	189.61
409.69	165.03
409.898	199.85
410.107	234.66
410.315	203.94
410.524	199.85
410.733	261.29
410.941	222.38
411.15	259.24
411.358	339.11
411.567	271.53
411.775	281.77
411.984	261.29
412.192	302.25
412.401	296.1
412.609	351.4
412.818	404.64
413.026	408.74
413.234	255.14
413.443	294.05
413.651	355.49
413.86	371.88
414.068	423.08
414.276	373.92
414.485	425.12
414.693	470.18
414.901	511.14
415.11	513.19
415.318	509.09
415.526	470.18
415.734	496.8
415.943	545.95
416.151	593.06
416.359	584.87
416.567	537.76
416.776	603.3
416.984	586.91
417.192	681.12
417.4	677.02
417.608	650.4
417.817	728.22
418.025	734.37
418.233	822.43
418.441	758.94
418.649	705.7
418.857	873.63
419.065	871.58
419.273	951.45
419.481	1033.37
419.689	1078.43
419.897	992.41
420.105	1074.33
420.313	1137.82
420.521	1146.01
420.729	1197.21
420.937	1182.87
421.145	1174.68
421.353	1242.26
421.561	1338.52
421.769	1299.61
421.977	1514.64
422.185	1328.28
422.393	1524.88
422.601	1649.81
422.809	1563.79
423.017	1547.41
423.224	1590.42
423.432	1744.02
423.64	1754.26
423.848	1883.28
424.056	1832.08
424.263	1889.42
424.471	1922.19
424.679	1901.71
424.887	2079.88
425.094	2292.87
425.302	2067.6
425.51	2163.85
425.718	2251.91
425.925	2370.69
426.133	2335.88
426.341	2483.33
426.548	2653.31
426.756	2630.79
426.964	2669.7
427.171	2864.25
427.379	2808.96
427.586	2837.63
427.794	3110.01
428.001	3175.55
428.209	3333.24
428.417	3353.72
428.624	3642.48
428.832	3576.95
429.039	3542.13
429.247	3415.16
429.454	3806.32
429.662	4062.32
429.869	3734.64
430.076	4174.95
430.284	4105.32
430.491	4201.58
430.699	4459.62
430.906	4430.95
431.114	4463.72
431.321	4627.56
431.528	4699.23
431.736	5149.79
431.943	5129.31
432.15	5203.04
432.358	5086.3
432.565	5487.7
432.772	5428.31
432.979	5862.48
433.187	5792.85
433.394	5876.82
433.601	6177.87
433.808	6145.1
434.016	6106.19
434.223	6517.83
434.43	6861.89
434.637	6716.48
434.844	6988.86
435.052	7177.28
435.259	7140.41
435.466	7308.35
435.673	7191.61
435.88	7650.36
436.087	7998.51
436.294	8170.54
436.501	7871.54
436.708	8076.34
436.915	8211.5
437.122	8844.32
437.329	8703.01
437.537	8969.25
437.743	9194.53
437.95	9036.83
438.157	9579.54
438.364	9919.51
438.571	9763.86
438.778	9919.51
438.985	10738.69
439.192	10314.77
439.399	10847.24
439.606	10578.95
439.813	11084.8
440.02	11760.63
440.227	11682.81
440.433	11607.03
440.64	11715.58
440.847	11758.58
441.054	12071.92
441.261	12860.39
441.467	12680.17
441.674	12968.93
441.881	13558.75
442.088	13335.52
442.294	13198.31
442.501	13638.62
442.708	13894.61
442.914	14582.73
443.121	15115.2
443.328	14584.78
443.534	15553.47
443.741	15354.82
443.948	15078.34
444.154	16118.71
444.361	15958.97
444.568	16315.31
444.774	16034.74
444.981	16518.06
445.187	16944.04
445.394	17542.05
445.6	16958.38
445.807	19032.97
446.013	18150.29
446.22	18363.28
446.426	19291.01
446.633	19555.2
446.839	20507.51
447.046	19434.37
447.252	20224.89
447.459	20609.9
447.665	20325.24
447.871	21191.53
448.078	22043.48
448.284	20974.44
448.491	21640.03
448.697	22342.49
448.903	23042.89
449.11	22520.66
449.316	22291.29
449.522	22809.42
449.728	23438.15
449.935	23696.19
450.141	23700.29
450.347	24269.62
450.553	23477.06
450.76	23630.66
450.966	24466.23
451.172	24193.85
451.378	24773.42
451.584	24300.34
451.791	24849.2
451.997	24795.95
452.203	25199.4
452.409	25273.13
452.615	24816.43
452.821	24245.05
453.027	23782.21
453.233	25301.8
453.44	24206.14
453.646	24513.33
453.852	24453.94
454.058	24845.1
454.264	24386.36
454.47	24736.56
454.676	23808.83
454.882	24585.01
455.088	22739.79
455.294	22698.83
455.5	23186.25
455.705	23442.24
455.911	22354.77
456.117	21805.92
456.323	21803.87
456.529	20730.73
456.735	21355.36
456.941	21425
457.147	20632.43
457.352	19739.52
457.558	19843.96
457.764	19831.68
457.97	19342.21
458.176	18983.82
458.381	18852.75
458.587	18113.43
458.793	18058.14
458.999	16987.05
459.204	18258.84
459.41	17890.2
459.616	16550.83
459.821	16688.04
460.027	16694.19
460.233	15993.78
460.438	15567.81
460.644	15578.04
460.85	15014.85
461.055	14588.88
461.261	14709.71
461.466	13669.34
461.672	13175.78
461.878	14177.23
462.083	13360.09
462.289	13145.06
462.494	12864.49
462.7	12239.86
462.905	11983.86
463.111	12368.88
463.316	12196.85
463.522	11992.05
463.727	12225.52
463.932	12192.75
464.138	12088.31
464.343	12248.05
464.549	11863.03
464.754	12166.13
464.959	12059.63
465.165	12030.96
465.37	11572.22
465.575	11332.61
465.781	11707.38
465.986	11731.96
466.191	11242.5
466.397	11181.06
466.602	10480.65
466.807	10931.2
467.012	11074.56
467.218	11201.54
467.423	10783.75
467.628	10691.59
467.833	11262.97
468.038	10937.35
468.244	10484.75
468.449	10986.5
468.654	10777.61
468.859	10660.87
469.064	10597.38
469.269	10214.41
469.474	10384.4
469.679	10333.2
469.885	10019.86
470.09	10286.09
470.295	10273.81
470.5	9759.77
470.705	10058.77
470.91	9966.61
471.115	9770.01
471.32	9950.23
471.525	9782.29
471.73	9395.23
471.935	9602.07
472.139	9305.12
472.344	9362.46
472.549	9143.33
472.754	9096.22
472.959	9092.13
473.164	9022.5
473.369	8660.01
473.574	8946.72
473.778	8903.71
473.983	8600.62
474.188	8809.51
474.393	8477.74
474.598	8320.04
474.802	8447.02
475.007	8387.63
475.212	8324.14
475.417	7937.07
475.621	8090.67
475.826	8129.58
476.031	7951.41
476.235	7779.38
476.44	7765.04
476.645	7746.61
476.849	7615.54
477.054	7437.37
477.259	7472.18
477.463	7529.53
477.668	7267.39
477.872	7351.35
478.077	7289.92
478.282	7097.41
478.486	7068.73
478.691	6878.27
478.895	6939.71
479.1	7001.15
479.304	6908.99
479.509	6898.75
479.713	6833.22
479.918	6769.73
480.122	6673.48
480.326	6884.42
480.531	6923.33
480.735	6800.45
480.94	6634.57
481.144	6779.97
481.348	6513.74
481.553	6503.5
481.757	6474.82
481.961	6593.61
482.166	6650.95
482.37	6693.96
482.574	6437.96
482.778	6591.56
482.983	6861.89
483.187	6526.02
483.391	6323.27
483.595	6618.18
483.8	6513.74
484.004	6503.5
484.208	6550.6
484.412	6638.66
484.616	6462.54
484.821	6575.17
485.025	6421.58
485.229	6585.41
485.433	6595.65
485.637	6747.2
485.841	6431.82
486.045	6442.06
486.249	6507.59
486.453	6351.95
486.657	6538.31
486.861	6566.98
487.065	6421.58
487.269	6362.19
487.473	6411.34
487.677	6706.24
487.881	6749.25
488.085	6515.78
488.289	6521.93
488.493	6646.85
488.697	6521.93
488.901	6601.8
489.105	6593.61
489.309	6593.61
489.512	6671.43
489.716	6628.42
489.92	6685.76
490.124	6620.23
490.328	6829.12
490.531	6782.02
490.735	6677.57
490.939	6970.43
491.143	6607.94
491.346	6730.82
491.55	7007.3
491.754	6876.23
491.958	7154.75
492.161	7146.56
492.365	6878.27
492.569	6913.09
492.772	6964.29
492.976	7140.41
493.18	7195.71
493.383	7277.63
493.587	7109.69
493.79	7365.69
493.994	7275.58
494.197	7324.73
494.401	7437.37
494.605	7623.73
494.808	7742.52
495.012	7556.15
495.215	7693.37
495.419	7676.98
495.622	7728.18
495.825	7945.27
496.029	7859.25
496.232	7906.35
496.436	7998.51
496.639	8225.84
496.843	8004.66
497.046	8356.91
497.249	8535.08
497.453	8451.11
497.656	8649.77
497.859	8664.1
498.063	8711.21
498.266	8920.1
498.469	8967.2
498.673	8983.59
498.876	9255.97
499.079	9313.31
499.282	9360.41
499.485	9448.47
499.689	9600.02
499.892	9628.7
500.095	9759.77
500.298	10056.72
500.501	9858.07
500.705	10175.5
500.908	10251.28
501.111	10404.88
501.314	10404.88
501.517	10793.99
501.72	10683.4
501.923	10773.51
502.126	11133.95
502.329	11267.07
502.532	11285.5
502.735	11297.79
502.938	11688.95
503.141	11621.37
503.344	11914.23
503.547	11914.23
503.75	11924.47
503.953	12436.46
504.156	12426.22
504.359	12469.23
504.562	12633.07
504.765	13040.61
504.968	13013.99
505.17	13349.85
505.373	13460.45
505.576	13571.04
505.779	13859.8
505.982	13724.63
506.185	14271.44
506.387	14377.94
506.59	14336.98
506.793	14566.35
506.996	14509.01
507.198	15227.84
507.401	15018.95
507.604	15225.79
507.807	15678.4
508.009	15856.57
508.212	15725.5
508.415	16149.43
508.617	16495.53
508.82	16483.25
509.022	16462.77
509.225	16823.21
509.428	16868.27
509.63	17224.61
509.833	17202.08
510.035	17693.6
510.238	17605.53
510.44	18060.18
510.643	18469.78
510.845	18336.66
511.048	18563.98
511.25	18639.76
511.453	18934.67
511.655	19848.06
511.858	19508.1
512.06	20009.85
512.262	20151.16
512.465	19854.2
512.667	20628.34
512.87	20802.41
513.072	20738.93
513.274	21306.21
513.477	21392.23
513.679	21982.04
513.881	21982.04
514.084	22512.47
514.286	22459.22
514.488	22690.64
514.69	23329.61
514.893	23370.57
515.095	23491.4
515.297	23675.71
515.499	24038.2
515.701	24187.71
515.904	24611.64
516.106	24861.49
516.308	25187.11
516.51	25299.75
516.712	25289.51
516.914	25768.74
517.116	26133.28
517.318	26362.65
517.52	26477.33
517.722	26911.5
517.925	27450.12
518.127	27446.02
518.329	27679.49
518.531	27910.91
518.733	28195.58
518.935	28633.85
519.136	28809.97
519.338	28957.42
519.54	29258.48
519.742	29901.54
519.944	29946.59
520.146	30253.79
520.348	30624.47
520.55	30585.56
520.752	30786.26
520.954	31556.3
521.155	31175.37
521.357	32031.43
521.559	32039.62
521.761	32774.84
521.963	32541.37
522.164	33096.37
522.366	32944.82
522.568	33776.3
522.77	33317.55
522.971	34253.47
523.173	33616.55
523.375	34343.58
523.576	34738.84
523.778	34505.37
523.98	35328.66
524.181	35480.21
524.383	35238.54
524.584	35807.88
524.786	36020.87
524.988	35818.12
525.189	36244.1
525.391	36663.93
525.592	36766.33
525.794	36848.25
525.995	37151.35
526.197	36815.48
526.398	37067.38
526.6	37321.33
526.801	37692.01
527.003	37882.47
527.204	37782.12
527.406	38439.52
527.607	38158.95
527.808	38570.59
528.01	37646.96
528.211	38589.02
528.412	39236.18
528.614	39127.64
528.815	38937.18
529.016	39570
529.218	39053.91
529.419	39656.01
529.62	39277.14
529.822	39682.64
530.023	39737.93
530.224	39639.63
530.425	39965.26
530.626	39735.88
530.828	39811.66
531.029	40677.95
531.23	39912.01
531.431	39907.91
531.632	40499.78
531.833	40397.38
532.035	40010.31
532.236	40260.16
532.437	41097.78
532.638	40368.71
532.839	40847.93
533.04	40614.46
533.241	40569.41
533.442	41263.67
533.643	40905.27
533.844	40944.19
534.045	41081.4
534.246	40393.28
534.447	41153.08
534.648	40802.88
534.849	40995.39
535.05	40823.36
535.251	40960.57
535.451	40815.16
535.652	41001.53
535.853	41443.89
536.054	40829.5
536.255	41017.91
536.456	40960.57
536.657	41845.29
536.857	40815.16
537.058	40852.03
537.259	41554.48
537.46	41634.35
537.66	41407.03
537.861	41558.58
538.062	41173.56
538.263	41548.34
538.463	41265.72
538.664	41267.76
538.865	41255.48
539.065	41538.1
539.266	41110.07
539.466	42107.43
539.667	41083.45
539.868	41867.82
540.068	41372.21
540.269	41298.48
540.469	41490.99
540.67	41466.42
540.87	41411.12
541.071	41165.37
541.271	41716.27
541.472	41460.27
541.672	41165.37
541.873	41321.01
542.073	40929.85
542.274	41773.61
542.474	41288.24
542.675	40983.1
542.875	41339.44
543.075	41314.87
543.276	41153.08
543.476	41400.88
543.676	41226.81
543.877	41480.75
544.077	40921.66
544.277	41413.17
544.478	41120.31
544.678	41224.76
544.878	41298.48
545.078	41579.06
545.279	41069.11
545.479	41431.6
545.679	41509.43
545.879	41378.36
546.079	41237.05
546.28	41261.62
546.48	41175.61
546.68	41372.21
546.88	41640.5
547.08	41667.12
547.28	41321.01
547.48	40839.74
547.68	41386.55
547.88	41206.33
548.081	41450.03
548.281	41187.89
548.481	41171.51
548.681	41593.39
548.881	41423.41
549.081	41316.92
549.28	41083.45
549.48	41589.3
549.68	41241.14
549.88	41843.24
550.08	40641.09
550.28	41198.13
550.48	41298.48
550.68	41656.88
550.88	40997.43
551.08	41531.95
551.279	41101.88
551.479	41235
551.679	41099.83
551.879	41050.68
552.079	41775.66
552.278	41022.01
552.478	41269.81
552.678	41140.79
552.878	41450.03
553.077	41144.89
553.277	40931.9
553.477	41456.18
553.676	40747.58
553.876	41048.63
554.076	41118.26
554.275	41177.65
554.475	40520.26
554.674	41316.92
554.874	40997.43
555.074	40575.55
555.273	41056.82
555.473	41146.93
555.672	40761.92
555.872	41108.02
556.071	40694.33
556.271	41122.36
556.47	40798.78
556.67	40194.63
556.869	40297.03
557.068	40454.72
557.268	40286.79
557.467	40317.51
557.667	40372.8
557.866	40456.77
558.065	40358.47
558.265	40237.64
558.464	40534.59
558.663	41050.68
558.863	39694.92
559.062	40333.89
559.261	39942.73
559.461	40411.71
559.66	39602.77
559.859	39742.03
560.058	39570
560.258	39979.59
560.457	39578.19
560.656	39967.3
560.855	39660.11
561.054	40100.42
561.253	39340.63
561.453	39739.98
561.652	39395.92
561.851	40141.38
562.05	39359.06
562.249	39537.23
562.448	39580.24
562.647	39375.44
562.846	38869.59
563.045	39309.91
563.244	39182.93
563.443	39318.1
563.642	38728.28
563.841	39096.92
564.04	39055.96
564.239	39098.97
564.438	38793.82
564.637	38920.79
564.836	38892.12
565.035	38697.56
565.234	38759
565.432	38189.67
565.631	38707.8
565.83	38470.24
566.029	38339.17
566.228	38357.6
566.427	38271.59
566.625	38347.36
566.824	37763.69
567.023	38206.05
567.222	37505.65
567.42	38273.63
567.619	37984.87
567.818	38021.73
568.016	37620.33
568.215	37565.04
568.414	37470.83
568.612	37988.97
568.811	37487.21
569.01	37239.41
569.208	36754.04
569.407	37343.86
569.605	36696.7
569.804	36954.74
570.002	36850.3
570.201	37227.12
570.4	36510.33
570.598	36405.89
570.797	36627.07
570.995	36838.01
571.193	36622.97
571.392	36612.73
571.59	36301.44
571.789	36405.89
571.987	36158.08
572.186	36381.31
572.384	35766.92
572.582	35766.92
572.781	35854.98
572.979	35598.99
573.177	35861.13
573.376	35797.64
573.574	35209.87
573.772	35521.16
573.971	34886.29
574.169	35117.71
574.367	34800.28
574.565	35218.07
574.763	34964.12
574.962	34710.17
575.16	34554.52
575.358	34654.87
575.556	33964.71
575.754	34488.99
575.952	34024.1
576.151	34470.56
576.349	33985.19
576.547	33940.13
576.745	34265.76
576.943	33927.84
577.141	33585.83
577.339	33776.3
577.537	33252.02
577.735	33614.51
577.933	33548.97
578.131	33573.55
578.329	33063.6
578.527	32893.62
578.725	33397.42
578.923	33354.41
579.121	33065.65
579.319	32920.24
579.516	32793.27
579.714	33063.6
579.912	32377.53
580.11	32361.15
580.308	32324.29
580.506	32355
580.704	31797.96
580.901	32256.7
581.099	32164.54
581.297	31736.52
581.495	32113.34
581.692	32031.43
581.89	31593.16
582.088	31793.86
582.285	31437.51
582.483	31363.79
582.681	31554.25
582.878	31236.81
583.076	30890.71
583.274	31474.38
583.471	30552.79
583.669	31062.74
583.866	30900.95
584.064	30704.34
584.262	30634.71
584.459	31091.41
584.657	30485.21
584.854	30644.95
585.052	30198.49
585.249	30526.17
585.447	30348
585.644	30061.28
585.841	30153.44
586.039	30348
586.236	29764.32
586.434	29758.18
586.631	29623.01
586.828	29512.42
587.026	29684.45
587.223	29418.22
587.42	29344.49
587.618	29592.3
587.815	28562.17
588.012	29022.96
588.21	29043.44
588.407	29076.21
588.604	29268.72
588.801	28666.61
588.999	28543.74
589.196	28644.09
589.393	28818.16
589.59	28412.67
589.787	28693.24
589.984	28193.53
590.182	27960.06
590.379	28449.53
590.576	27734.79
590.773	28332.79
590.97	27790.08
591.167	27874.05
591.364	27738.88
591.561	28080.89
591.758	27362.06
591.955	27734.79
592.152	27931.39
592.349	27454.22
592.546	27370.25
592.743	27519.75
592.94	27136.78
593.137	27362.06
593.334	27118.35
593.531	26604.31
593.727	27003.66
593.924	26712.85
594.121	26671.89
594.318	27120.4
594.515	26254.11
594.712	26825.49
594.908	26549.01
595.105	26600.21
595.302	26252.06
595.499	26403.61
595.696	26239.77
595.892	26309.4
596.089	26368.79
596.286	26055.45
596.482	26161.95
596.679	25996.06
596.876	25516.84
597.072	25748.26
597.269	25658.15
597.466	25701.15
597.662	25764.64
597.859	25391.91
598.055	25285.42
598.252	25529.13
598.448	25135.92
598.645	25232.17
598.841	24972.08
599.038	25094.96
599.234	24929.07
599.431	25078.57
599.627	24435.51
599.824	25129.77
600.02	24439.61
600.217	24984.37
600.413	24646.45
600.609	24607.54
600.806	24705.84
601.002	24484.66
601.198	24347.45
601.395	24152.89
601.591	24197.95
601.787	24058.68
601.984	24177.47
602.18	24228.66
602.376	23819.07
602.572	23489.35
602.769	23479.11
602.965	23348.04
603.161	23675.71
603.357	23200.58
603.553	23147.34
603.75	23284.55
603.946	22776.66
604.142	23276.36
604.338	22784.85
604.534	22909.77
604.73	22905.68
604.926	22887.25
605.122	22614.87
605.318	22827.85
605.514	22668.11
605.71	22578
605.906	22653.78
606.102	22385.49
606.298	22487.89
606.494	22348.63
606.69	22113.11
606.886	22303.57
607.082	21902.17
607.278	22491.99
607.474	21611.36
607.67	21912.41
607.866	21416.8
608.062	22063.96
608.257	21416.8
608.453	21676.9
608.649	21791.58
608.845	21373.8
609.041	21529.44
609.236	21357.41
609.432	21377.89
609.628	21398.37
609.824	21169
610.019	21205.86
610.215	21078.89
610.411	21195.62
610.606	21011.31
610.802	21076.84
610.998	20917.1
611.193	20849.52
611.389	20534.13
611.584	20603.76
611.78	20849.52
611.976	20798.32
612.171	20593.52
612.367	20446.07
612.562	20241.27
612.758	20292.47
612.953	20415.35
613.149	20423.54
613.344	20085.62
613.539	20607.86
613.735	20138.87
613.93	20237.17
614.126	19968.89
614.321	20294.52
614.517	19960.7
614.712	20042.62
614.907	19866.49
615.103	20147.06
615.298	19626.88
615.493	19778.43
615.688	19616.64
615.884	19960.7
616.079	19610.5
616.274	19581.82
616.47	19528.58
616.665	19518.34
616.86	19667.84
617.055	19346.31
617.25	19442.56
617.445	19430.27
617.641	18996.1
617.836	19043.21
618.031	18955.15
618.226	19194.76
618.421	18940.81
618.616	19215.24
618.811	18764.68
619.006	19020.68
619.201	18412.43
619.396	18484.11
619.591	18441.11
619.786	18264.98
619.981	18246.55
620.176	18260.88
620.371	18086.81
620.566	18412.43
620.761	17935.26
620.956	18105.24
621.151	17748.89
621.346	17804.19
621.541	17599.39
621.735	17773.47
621.93	17644.45
622.125	17365.92
622.32	17499.04
622.515	17251.24
622.709	16989.1
622.904	16855.98
623.099	16939.94
623.294	17099.69
623.488	16722.86
623.683	16872.36
623.878	16649.13
624.072	16749.48
624.267	16495.53
624.462	16399.28
624.656	16108.47
624.851	16253.87
625.046	15971.25
625.24	16094.13
625.435	15862.71
625.629	15709.11
625.824	15682.49
626.018	15756.22
626.213	15514.56
626.407	15645.63
626.602	15461.31
626.796	15557.57
626.991	15328.19
627.185	14977.99
627.38	15229.89
627.574	15139.78
627.768	14920.65
627.963	15051.72
628.157	14703.56
628.352	14709.71
628.546	14306.26
628.74	14676.94
628.935	14478.29
629.129	14490.57
629.323	14287.82
629.517	14382.03
629.712	14085.08
629.906	14218.19
630.1	14072.79
630.294	14210
630.489	13710.3
630.683	14060.5
630.877	13769.69
631.071	13712.35
631.265	13607.9
631.459	13657.05
631.653	13288.42
631.848	13448.16
632.042	13413.34
632.236	13411.29
632.43	13011.94
632.624	13102.05
632.818	13366.24
633.012	13059.04
633.206	12858.34
633.4	12882.92
633.594	12663.79
633.788	12977.12
633.982	12856.29
634.176	12585.96
634.369	12680.17
634.563	12626.92
634.757	12397.55
634.951	12379.12
635.145	12284.91
635.339	12461.04
635.533	11832.31
635.726	12233.71
635.92	12004.34
636.114	11975.67
636.308	11910.13
636.501	11856.89
636.695	11691
636.889	11940.85
637.083	11574.27
637.276	11781.11
637.47	11572.22
637.664	11590.65
637.857	11521.02
638.051	11643.9
638.244	11598.84
638.438	11355.13
638.632	11162.62
638.825	11140.1
639.019	11213.82
639.212	11060.23
639.406	11144.19
639.599	10793.99
639.793	10953.73
639.986	10587.15
640.18	10865.67
640.373	10775.56
640.567	10732.55
640.76	10654.73
640.954	10689.54
641.147	10650.63
641.34	10415.12
641.534	10363.92
641.727	10329.1
641.92	10390.54
642.114	10122.26
642.307	10114.06
642.5	10128.4
642.694	9944.08
642.887	10044.43
643.08	9942.03
643.273	9874.45
643.467	9675.8
643.66	9745.43
643.853	9780.25
644.046	9511.96
644.239	9557.02
644.432	9557.02
644.626	9380.89
644.819	9278.49
645.012	9405.47
645.205	9301.02
645.398	9329.69
645.591	8956.96
645.784	9200.67
645.977	8969.25
646.17	9016.35
646.363	8905.76
646.556	8870.95
646.749	8868.9
646.942	8846.37
647.135	8768.55
647.328	8703.01
647.521	8524.84
647.714	8465.45
647.907	8539.18
648.099	8614.95
648.292	8510.5
648.485	8346.67
648.678	8459.31
648.871	8322.09
649.064	8371.24
649.256	8326.19
649.449	8211.5
649.642	8129.58
649.835	7988.27
650.027	8068.14
650.22	7869.49
650.413	7910.45
650.605	7998.51
650.798	7765.04
650.991	7828.53
651.183	7689.27
651.376	7447.61
651.568	7631.93
651.761	7609.4
651.954	7566.39
652.146	7457.85
652.339	7363.64
652.531	7492.66
652.724	7490.62
652.916	7332.92
653.109	7230.52
653.301	7093.31
653.494	7232.57
653.686	7095.36
653.879	7267.39
654.071	7169.09
654.263	7050.3
654.456	7040.06
654.648	6945.86
654.84	6855.75
655.033	6820.93
655.225	6786.12
655.417	6667.33
655.61	6708.29
655.802	6605.89
655.994	6507.59
656.186	6681.67
656.379	6618.18
656.571	6601.8
656.763	6450.25
656.955	6380.62
657.148	6343.75
657.34	6374.47
657.532	6132.81
657.724	6290.51
657.916	6188.11
658.108	6126.67
658.3	6159.44
658.492	6024.27
658.684	5983.31
658.876	6112.33
659.068	5946.45
659.26	5985.36
659.452	5981.26
659.644	5948.5
659.836	5907.54
660.028	5921.87
660.22	5688.4
660.412	5825.62
660.604	5647.44
660.796	5653.59
660.988	5557.33
661.18	5563.48
661.372	5446.74
661.563	5471.32
661.755	5330.01
661.947	5358.68
662.139	5248.09
662.331	5229.66
662.522	5196.89
662.714	5395.54
662.906	5119.07
663.097	5145.69
663.289	5014.62
663.481	5112.92
663.673	5211.23
663.864	5004.38
664.056	4760.67
664.247	5035.1
664.439	4975.71
664.631	4889.7
664.822	4889.7
665.014	4865.12
665.205	4883.55
665.397	4818.02
665.588	4797.54
665.78	4834.4
665.971	4772.96
666.163	4707.43
666.354	4699.23
666.546	4648.04
666.737	4631.65
666.929	4602.98
667.12	4584.55
667.311	4420.71
667.503	4455.53
667.694	4584.55
667.885	4467.81
668.077	4324.46
668.268	4346.98
668.459	4355.18
668.651	4396.14
668.842	4136.04
669.033	4312.17
669.224	4295.79
669.416	4242.54
669.607	4258.92
669.798	4263.02
669.989	4207.72
670.18	4271.21
670.371	4111.47
670.563	3972.21
670.754	4009.07
670.945	4158.57
671.136	4148.33
671.327	3873.9
671.518	4158.57
671.709	4076.65
671.9	4037.74
672.091	4109.42
672.282	3986.54
672.473	3966.06
672.664	4148.33
672.855	3861.62
673.046	3880.05
673.237	3939.44
673.428	3937.39
673.619	3775.6
673.809	3882.1
674	3810.42
674.191	3796.08
674.382	3779.7
674.573	3746.93
674.764	3699.83
674.954	3812.46
675.145	3615.86
675.336	3714.16
675.527	3857.52
675.717	3658.87
675.908	3632.24
676.099	3712.11
676.289	3556.47
676.48	3675.25
676.671	3599.48
676.861	3560.56
677.052	3554.42
677.243	3454.07
677.433	3550.32
677.624	3603.57
677.814	3513.46
678.005	3456.12
678.195	3472.5
678.386	3421.3
678.576	3449.97
678.767	3542.13
678.957	3343.48
679.148	3310.71
679.338	3409.01
679.529	3380.34
679.719	3511.41
679.909	3433.59
680.1	3343.48
680.29	3288.18
680.481	3386.49
680.671	3304.57
680.861	3286.14
681.052	3366.01
681.242	3306.62
681.432	3224.7
681.622	3259.51
681.813	3341.43
682.003	3269.75
682.193	3273.85
682.383	3142.78
682.573	3390.58
682.764	3251.32
682.954	3294.33
683.144	3282.04
683.334	3257.46
683.524	3157.11
683.714	3175.55
683.904	3210.36
684.094	3284.09
684.284	3228.79
684.474	3140.73
684.664	3142.78
684.854	3136.63
685.044	2999.42
685.234	3130.49
685.424	3138.68
685.614	3204.22
685.804	3089.53
685.994	3189.88
686.184	3136.63
686.374	3187.83
686.564	3071.1
686.753	3075.2
686.943	2952.32
687.133	3062.91
687.323	3155.07
687.513	3060.86
687.702	2978.94
687.892	3030.14
688.082	3058.81
688.272	3241.08
688.461	3056.76
688.651	3003.52
688.841	2892.93
689.03	3083.39
689.22	2972.8
689.41	3021.95
689.599	3036.28
689.789	3136.63
689.979	3030.14
690.168	2978.94
690.358	3091.58
690.547	2884.73
690.737	3054.72
690.926	3007.61
691.116	2968.7
691.305	2989.18
691.495	2880.64
691.684	2968.7
691.874	3038.33
692.063	2954.37
692.252	2944.13
692.442	2997.37
692.631	2937.98
692.82	2915.45
693.01	2890.88
693.199	3013.76
693.388	2827.39
693.578	2935.93
693.767	2933.89
693.956	2833.54
694.146	3019.9
694.335	2925.69
694.524	2952.32
694.713	2933.89
694.902	2929.79
695.092	2956.41
695.281	2897.02
695.47	2948.22
695.659	2892.93
695.848	2894.97
696.037	2784.38
696.226	2950.27
696.415	2856.06
696.604	2899.07
696.793	2948.22
696.982	3005.56
697.171	2923.65
697.36	2782.34
697.549	2929.79
697.738	2962.56
697.927	2892.93
698.116	2888.83
698.305	2901.12
698.494	2790.53
698.683	2792.58
698.872	2956.41
699.061	2907.26
699.25	2860.16
699.438	2892.93
699.627	2751.62
699.816	2839.68
700.005	2915.45
700.193	2802.82
700.382	2894.97
700.571	2880.64
700.76	2843.78
700.948	2823.3
701.137	2749.57
701.326	2706.56
701.514	2823.3
701.703	2851.97
701.892	2821.25
702.08	2808.96
702.269	2798.72
702.457	2722.95
702.646	2743.42
702.834	2663.55
703.023	2704.51
703.212	2700.42
703.4	2872.45
703.589	2624.64
703.777	2690.18
703.965	2761.86
704.154	2657.41
704.342	2604.16
704.531	2698.37
704.719	2675.84
704.907	2704.51
705.096	2634.88
705.284	2589.83
705.472	2626.69
705.661	2722.95
705.849	2692.23
706.037	2481.28
706.226	2575.49
706.414	2559.11
706.602	2698.37
706.79	2661.51
706.979	2559.11
707.167	2538.63
707.355	2499.72
707.543	2518.15
707.731	2610.31
707.919	2407.56
708.107	2380.93
708.296	2591.88
708.484	2454.66
708.672	2514.05
708.86	2444.42
709.048	2559.11
709.236	2518.15
709.424	2464.9
709.612	2530.44
709.8	2430.09
709.988	2307.21
710.176	2485.38
710.364	2397.32
710.551	2382.98
710.739	2403.46
710.927	2374.79
711.115	2405.51
711.303	2411.65
711.491	2323.59
711.679	2190.47
711.866	2368.65
712.054	2352.26
712.242	2305.16
712.43	2305.16
712.617	2247.82
712.805	2337.93
712.993	2294.92
713.181	2245.77
713.368	2190.47
713.556	2190.47
713.744	2083.98
713.931	2296.97
714.119	2165.9
714.306	2157.71
714.494	2098.31
714.682	2114.7
714.869	2065.55
715.057	2223.24
715.244	2079.88
715.432	2176.14
715.619	2213
715.807	2045.07
715.994	2059.4
716.182	2038.92
716.369	2057.36
716.556	2069.64
716.744	2133.13
716.931	2047.12
717.119	2100.36
717.306	2086.03
717.493	1901.71
717.681	1989.77
717.868	1895.57
718.055	2116.75
718.242	2028.68
718.43	1975.44
718.617	1920.14
718.804	1903.76
718.991	2004.11
719.179	1868.94
719.366	1901.71
719.553	1959.05
719.74	1916.05
719.927	1817.74
720.114	1909.9
720.301	1918.09
720.488	1811.6
720.676	1830.03
720.863	1873.04
721.05	1866.89
721.237	1848.46
721.424	1838.22
721.611	1762.45
721.798	1805.46
721.985	1811.6
722.172	1821.84
722.358	1862.8
722.545	1768.59
722.732	1858.7
722.919	1676.43
723.106	1711.25
723.293	1760.4
723.48	1703.06
723.667	1725.58
723.853	1770.64
724.04	1750.16
724.227	1787.02
724.414	1746.06
724.6	1641.62
724.787	1701.01
724.974	1741.97
725.161	1674.39
725.347	1576.08
725.534	1713.3
725.72	1600.66
725.907	1608.85
726.094	1668.24
726.28	1719.44
726.467	1658
726.653	1670.29
726.84	1662.1
727.027	1633.43
727.213	1612.95
727.4	1604.75
727.586	1655.95
727.773	1617.04
727.959	1606.8
728.145	1655.95
728.332	1504.4
728.518	1508.5
728.705	1445.01
728.891	1457.3
729.077	1531.03
729.264	1479.83
729.45	1524.88
729.636	1490.07
729.823	1457.3
730.009	1508.5
730.195	1412.25
730.382	1424.53
730.568	1393.81
730.754	1467.54
730.94	1471.64
731.126	1477.78
731.313	1533.08
731.499	1440.92
731.685	1479.83
731.871	1461.4
732.057	1406.1
732.243	1461.4
732.429	1320.09
732.615	1397.91
732.801	1391.77
732.987	1412.25
733.173	1385.62
733.359	1359
733.545	1367.19
733.731	1285.27
733.917	1416.34
734.103	1385.62
734.289	1354.9
734.475	1346.71
734.661	1359
734.847	1236.12
735.033	1344.66
735.219	1346.71
735.404	1236.12
735.59	1346.71
735.776	1297.56
735.962	1270.94
736.148	1332.37
736.333	1352.85
736.519	1215.64
736.705	1297.56
736.89	1352.85
737.076	1311.89
737.262	1193.11
737.447	1203.35
737.633	1223.83
737.819	1221.78
738.004	1311.89
738.19	1248.41
738.375	1221.78
738.561	1281.18
738.747	1313.94
738.932	1148.06
739.118	1256.6
739.303	1182.87
739.489	1197.21
739.674	1035.42
739.859	1215.64
740.045	1152.15
740.23	1207.45
740.416	1229.98
740.601	1164.44
740.786	1166.49
740.972	1182.87
741.157	1053.85
741.342	1117.34
741.528	1092.76
741.713	1209.5
741.898	1156.25
742.084	1103
742.269	1152.15
742.454	1168.54
742.639	1150.11
742.824	1113.24
743.01	1094.81
743.195	1117.34
743.38	1076.38
743.565	1043.61
743.75	1078.43
743.935	1062.04
744.12	1084.57
744.305	1057.95
744.49	998.56
744.675	1053.85
744.86	959.64
745.045	1008.8
745.23	1000.6
745.415	900.25
745.6	1076.38
745.785	973.98
745.97	994.46
746.155	1012.89
746.34	1012.89
746.525	990.36
746.71	957.6
746.895	996.51
747.079	894.11
747.264	961.69
747.449	1033.37
747.634	990.36
747.819	947.36
748.003	1031.32
748.188	930.97
748.373	937.12
748.557	939.16
748.742	937.12
748.927	818.33
749.111	924.83
749.296	855.2
749.481	883.87
749.665	937.12
749.85	855.2
750.034	902.3
750.219	853.15
750.404	834.72
750.588	900.25
750.773	853.15
750.957	785.57
751.141	738.46
751.326	840.86
751.51	935.07
751.695	756.9
751.879	855.2
752.064	726.18
752.248	814.24
752.432	808.09
752.617	836.77
752.801	855.2
752.985	806.05
753.17	820.38
753.354	752.8
753.538	722.08
753.722	826.53
753.907	744.61
754.091	689.31
754.275	685.22
754.459	812.19
754.643	699.55
754.828	715.94
755.012	734.37
755.196	767.13
755.38	717.98
755.564	689.31
755.748	674.98
755.932	754.85
756.116	701.6
756.3	629.92
756.484	705.7
756.668	715.94
756.852	705.7
757.036	687.26
757.22	652.45
757.404	679.07
757.588	603.3
757.772	627.87
757.956	652.45
758.14	672.93
758.323	582.82
758.507	672.93
758.691	619.68
758.875	580.77
759.059	615.59
759.242	629.92
759.426	601.25
759.61	568.48
759.794	629.92
759.977	644.26
760.161	619.68
760.345	674.98
760.528	631.97
760.712	621.73
760.895	613.54
761.079	568.48
761.263	533.67
761.446	642.21
761.63	576.67
761.813	543.91
761.997	541.86
762.18	586.91
762.364	566.43
762.547	576.67
762.731	615.59
762.914	566.43
763.098	521.38
763.281	597.15
763.464	474.28
763.648	572.58
763.831	511.14
764.015	558.24
764.198	541.86
764.381	564.39
764.564	552.1
764.748	527.52
764.931	558.24
765.114	459.94
765.297	502.95
765.481	584.87
765.664	545.95
765.847	507.04
766.03	525.47
766.213	525.47
766.397	531.62
766.58	605.35
766.763	527.52
766.946	556.19
767.129	504.99
767.312	576.67
767.495	502.95
767.678	513.19
767.861	507.04
768.044	515.23
768.227	550.05
768.41	457.89
768.593	509.09
768.776	558.24
768.959	439.46
769.142	541.86
769.324	529.57
769.507	488.61
769.69	554.15
769.873	494.76
770.056	498.85
770.239	535.71
770.421	476.32
770.604	560.29
770.787	453.8
770.97	470.18
771.152	502.95
771.335	466.08
771.518	435.36
771.7	554.15
771.883	492.71
772.066	416.93
772.248	507.04
772.431	449.7
772.613	425.12
772.796	400.55
772.978	521.38
773.161	474.28
773.343	453.8
773.526	488.61
773.708	468.13
773.891	449.7
774.073	453.8
774.256	410.79
774.438	498.85
774.621	480.42
774.803	425.12
774.985	449.7
775.168	439.46
775.35	351.4
775.532	388.26
775.715	382.12
775.897	378.02
776.079	445.6
776.261	435.36
776.444	445.6
776.626	384.16
776.808	371.88
776.99	375.97
777.173	445.6
777.355	498.85
777.537	461.99
777.719	412.84
777.901	365.73
778.083	427.17
778.265	353.45
778.447	367.78
778.629	480.42
778.811	361.64
778.993	388.26
779.175	406.69
779.357	324.77
779.539	328.87
779.721	298.15
779.903	359.59
780.085	324.77
780.267	423.08
780.449	375.97
780.631	400.55
780.812	347.3
780.994	314.53
781.176	353.45
781.358	361.64
781.54	320.68
781.721	316.58
781.903	328.87
782.085	355.49
782.267	320.68
782.448	298.15
782.63	249
782.812	324.77
782.993	339.11
783.175	341.16
783.357	314.53
783.538	330.92
783.72	283.81
783.901	343.21
784.083	363.69
784.264	285.86
784.446	265.38
784.627	308.39
784.809	314.53
784.99	287.91
785.172	304.29
785.353	253.09
785.535	404.64
785.716	302.25
785.897	185.51
786.079	275.62
786.26	306.34
786.441	249
786.623	292.01
786.804	308.39
786.985	281.77
787.167	244.9
787.348	199.85
787.529	228.52
787.71	285.86
787.891	283.81
788.073	253.09
788.254	222.38
788.435	263.33
788.616	189.61
788.797	226.47
788.978	292.01
789.159	210.09
789.34	165.03
789.522	228.52
789.703	292.01
789.884	175.27
790.065	300.2
790.246	203.94
790.427	246.95
790.607	185.51
790.788	230.57
790.969	167.08
791.15	298.15
791.331	146.6
791.512	240.81
791.693	304.29
791.874	306.34
792.054	212.14
792.235	183.46
792.416	253.09
792.597	212.14
792.778	201.9
792.958	265.38
793.139	179.37
793.32	185.51
793.5	220.33
793.681	165.03
793.862	158.89
794.042	171.18
794.223	203.94
794.404	169.13
794.584	234.66
794.765	142.5
794.945	179.37
795.126	210.09
795.306	130.22
795.487	228.52
795.667	226.47
795.848	185.51
796.028	183.46
796.209	208.04
796.389	199.85
796.57	126.12
796.75	101.55
796.93	148.65
797.111	148.65
797.291	87.21
797.471	238.76
797.652	169.13
797.832	181.42
798.012	249
798.192	232.62
798.373	171.18
798.553	185.51
798.733	138.41
798.913	115.88
799.093	130.22
799.274	191.66
799.454	185.51
799.634	208.04
799.814	195.75
799.994	177.32
800.174	216.23
800.354	177.32
800.534	74.92
800.714	160.94
800.894	189.61
801.074	212.14
801.254	148.65
801.434	111.78
801.614	122.02
801.794	150.7
801.974	380.07
802.154	185.51
802.334	205.99
802.514	111.78
802.693	179.37
802.873	136.36
803.053	117.93
803.233	179.37
803.413	208.04
803.592	79.02
803.772	89.26
803.952	25.77
804.131	103.59
804.311	44.2
804.491	136.36
804.67	115.88
804.85	152.74
805.03	130.22
805.209	122.02
805.389	87.21
805.568	152.74
805.748	115.88
805.928	101.55
806.107	146.6
806.287	154.79
806.466	101.55
806.646	62.63
806.825	87.21
807.004	138.41
807.184	50.35
807.363	115.88
807.543	54.44
807.722	134.31
807.901	70.83
808.081	144.55
808.26	95.4
808.439	117.93
808.619	91.31
808.798	72.87
808.977	130.22
809.156	101.55
809.336	117.93
809.515	50.35
809.694	70.83
809.873	122.02
810.052	150.7
810.231	193.7
810.411	38.06
810.59	132.26
810.769	83.11
810.948	81.07
811.127	122.02
811.306	93.35
811.485	85.16
811.664	83.11
811.843	48.3
812.022	119.98
812.201	156.84
812.38	203.94
812.559	79.02
812.737	68.78
812.916	124.07
813.095	126.12
813.274	122.02
813.453	150.7
813.632	85.16
813.811	158.89
813.989	81.07
814.168	99.5
814.347	81.07
814.526	76.97
814.704	85.16
814.883	134.31
815.062	122.02
815.24	109.74
815.419	148.65
815.598	119.98
815.776	134.31
815.955	122.02
816.133	66.73
816.312	99.5
816.49	95.4
816.669	11.43
816.847	81.07
817.026	140.46
817.204	140.46
817.383	38.06
817.561	76.97
817.74	68.78
817.918	111.78
818.097	91.31
818.275	107.69
818.453	58.54
818.632	56.49
818.81	117.93
818.988	74.92
819.167	117.93
819.345	42.15
819.523	40.11
819.701	70.83
819.879	23.72
820.058	33.96
820.236	97.45
820.414	44.2
820.592	83.11
820.77	46.25
820.948	13.48
821.127	19.63
821.305	91.31
821.483	54.44
821.661	126.12
821.839	144.55
822.017	105.64
822.195	144.55
822.373	122.02
822.551	68.78
822.729	105.64
822.907	42.15
823.085	19.63
823.262	9.39
823.44	68.78
823.618	64.68
823.796	109.74
823.974	56.49
824.152	48.3
824.329	70.83
824.507	124.07
824.685	29.87
824.863	115.88
825.04	128.17
825.218	56.49
825.396	3.24
825.574	23.72
825.751	107.69
825.929	-7
826.107	122.02
826.284	113.83
826.462	99.5
826.639	107.69
826.817	58.54
826.994	31.91
827.172	50.35
827.349	17.58
827.527	74.92
827.704	115.88
827.882	40.11
828.059	99.5
828.237	122.02
828.414	33.96
828.591	54.44
828.769	31.91
828.946	15.53
829.124	-15.19
829.301	36.01
829.478	58.54
829.655	95.4
829.833	101.55
830.01	85.16
830.187	48.3
830.364	13.48
830.542	-15.19
830.719	79.02
830.896	89.26
831.073	79.02
831.25	29.87
831.427	25.77
831.604	44.2
831.782	52.39
831.959	85.16
832.136	122.02
832.313	23.72
832.49	97.45
832.667	95.4
832.844	3.24
833.021	76.97
833.198	19.63
833.374	-31.57
833.551	21.67
833.728	54.44
833.905	31.91
834.082	29.87
834.259	44.2
834.436	109.74
834.612	48.3
834.789	66.73
834.966	58.54
835.143	52.39
835.319	56.49
835.496	56.49
835.673	-37.72
835.85	56.49
836.026	5.29
836.203	74.92
836.38	72.87
836.556	105.64
836.733	42.15
836.909	36.01
837.086	50.35
837.262	48.3
837.439	58.54
837.616	40.11
837.792	31.91
837.968	44.2
838.145	-2.9
838.321	36.01
838.498	-2.9
838.674	17.58
838.851	72.87
839.027	17.58
839.203	46.25
839.38	74.92
839.556	5.29
839.732	68.78
839.909	99.5
840.085	62.63
840.261	83.11
840.437	97.45
840.614	58.54
840.79	-4.95
840.966	89.26
841.142	29.87
841.318	23.72
841.494	27.82
841.671	1.19
841.847	81.07
842.023	-47.96
842.199	56.49
842.375	64.68
842.551	-19.29
842.727	38.06
842.903	124.07
843.079	46.25
843.255	27.82
843.431	5.29
843.607	70.83
843.783	-7
843.959	7.34
844.134	56.49
844.31	15.53
844.486	25.77
844.662	48.3
844.838	-37.72
845.013	48.3
845.189	36.01
845.365	62.63
845.541	23.72
845.716	-39.76
845.892	62.63
846.068	15.53
846.244	-25.43
846.419	25.77
846.595	-29.52
846.77	27.82
846.946	56.49
847.122	31.91
847.297	64.68
847.473	85.16
847.648	31.91
847.824	1.19
847.999	5.29
848.175	11.43
848.35	-4.95
848.526	85.16
848.701	62.63
848.876	42.15
849.052	7.34
849.227	36.01
849.403	31.91
849.578	5.29
849.753	70.83
849.929	-0.85
850.104	3.24
850.279	19.63
850.454	60.59
850.63	25.77
850.805	31.91
850.98	-25.43
851.155	-15.19
851.33	38.06
851.505	-21.33
851.681	9.39
851.856	25.77
852.031	-50
852.206	83.11
852.381	11.43
852.556	33.96
852.731	109.74
852.906	60.59
853.081	70.83
853.256	66.73
853.431	36.01
853.606	60.59
853.781	54.44
853.956	7.34
854.131	-9.05
854.305	-41.81
854.48	29.87
854.655	40.11
854.83	3.24
855.005	-82.77
855.18	42.15
855.354	9.39
855.529	-39.76
855.704	19.63
855.879	3.24
856.053	7.34
856.228	9.39
856.403	31.91
856.577	48.3
856.752	5.29
856.926	44.2
857.101	29.87
857.276	29.87
857.45	29.87
857.625	31.91
857.799	74.92
857.974	-60.24
858.148	31.91
858.323	3.24
858.497	29.87
858.672	33.96
858.846	13.48
859.02	-23.38
859.195	3.24
859.369	-23.38
859.543	-15.19
859.718	5.29
859.892	52.39
860.066	1.19
860.241	13.48
860.415	101.55
860.589	93.35
860.763	48.3
860.938	3.24
861.112	-25.43
861.286	36.01
861.46	52.39
861.634	25.77
861.808	23.72
861.982	-23.38
862.157	60.59
862.331	52.39
862.505	-45.91
862.679	19.63
862.853	38.06
863.027	19.63
863.201	25.77
863.375	-4.95
863.549	38.06
863.722	36.01
863.896	13.48
864.07	-21.33
864.244	-41.81
864.418	23.72
864.592	9.39
864.766	31.91
864.939	107.69
865.113	52.39
865.287	66.73
865.461	19.63
865.634	40.11
865.808	-9.05
865.982	13.48
866.156	-27.48
866.329	87.21
866.503	52.39
866.676	5.29
866.85	-27.48
867.024	85.16
867.197	-17.24
867.371	56.49
867.544	25.77
867.718	-23.38
867.891	-0.85
868.065	15.53
868.238	44.2
868.412	54.44
868.585	38.06
868.759	60.59
868.932	-60.24
869.105	31.91
869.279	9.39
869.452	19.63
869.625	19.63
869.799	1.19
869.972	-41.81
870.145	5.29
870.319	-41.81
870.492	68.78
870.665	7.34
870.838	42.15
871.011	11.43
871.185	-25.43
871.358	15.53
871.531	-13.14
871.704	-21.33
871.877	31.91
872.05	-19.29
872.223	38.06
872.396	-2.9
872.569	62.63
872.742	-2.9
872.915	-13.14
873.088	-41.81
873.261	9.39
873.434	36.01
873.607	25.77
873.78	9.39
873.953	27.82
874.126	-17.24
874.299	3.24
874.471	-27.48
874.644	19.63
874.817	13.48
874.99	74.92
875.163	-29.52
875.335	-15.19
875.508	33.96
875.681	50.35
875.853	-19.29
876.026	23.72
876.199	17.58
876.371	62.63
876.544	46.25
876.717	-0.85
876.889	11.43
877.062	36.01
877.234	-13.14
877.407	13.48
877.579	-39.76
877.752	5.29
877.924	-35.67
878.097	31.91
878.269	-21.33
878.442	-31.57
878.614	19.63
878.786	46.25
878.959	-23.38
879.131	-33.62
879.303	-23.38
879.476	25.77
879.648	44.2
879.82	-27.48
879.993	-19.29
880.165	-13.14
880.337	-37.72
880.509	9.39
880.681	3.24
880.854	-13.14
881.026	-23.38
881.198	-17.24
881.37	9.39
881.542	17.58
881.714	27.82
881.886	-62.29
882.058	-19.29
882.23	-27.48
882.402	36.01
882.574	-35.67
882.746	-4.95
882.918	48.3
883.09	-25.43
883.262	-11.09
883.434	7.34
883.606	-29.52
883.778	46.25
883.95	97.45
884.122	40.11
884.293	25.77
884.465	44.2
884.637	38.06
884.809	-39.76
884.98	83.11
885.152	17.58
885.324	-7
885.496	68.78
885.667	-29.52
885.839	103.59
886.011	11.43
886.182	9.39
886.354	54.44
886.525	11.43
886.697	-90.96
886.869	-23.38
887.04	3.24
887.212	97.45
887.383	52.39
887.555	-11.09
887.726	25.77
887.897	11.43
888.069	50.35
888.24	-23.38
888.412	56.49
888.583	5.29
888.754	19.63
888.926	-0.85
889.097	64.68
889.268	-66.39
889.44	1.19
889.611	-52.05
889.782	38.06
889.953	-84.82
890.125	-13.14
890.296	1.19
890.467	33.96
890.638	-58.2
890.809	1.19
890.98	46.25
891.151	13.48
891.323	3.24
891.494	29.87
891.665	-33.62
891.836	62.63
892.007	44.2
892.178	11.43
892.349	48.3
892.52	-2.9
892.691	23.72
892.862	19.63
893.032	-64.34
893.203	-11.09
893.374	-11.09
893.545	33.96
893.716	-58.2
893.887	-2.9
894.057	56.49
894.228	25.77
894.399	-27.48
894.57	19.63
894.74	-4.95
894.911	-15.19
895.082	-0.85
895.253	1.19
895.423	23.72
895.594	38.06
895.764	79.02
895.935	-41.81
896.106	9.39
896.276	29.87
896.447	44.2
896.617	-33.62
896.788	76.97
896.958	60.59
897.129	-47.96
897.299	7.34
897.47	15.53
897.64	50.35
897.81	-62.29
897.981	31.91
898.151	79.02
898.322	15.53
898.492	-4.95
898.662	1.19
898.832	7.34
899.003	-2.9
899.173	-7
899.343	5.29
899.513	21.67
