Data from USB4F104151__213__14-00-02-324.txt Node

Date: Thu Mar 13 14:00:02 EDT 2025
User: louis
Spectrometer: USB4F10415
Trigger mode: 4
Integration Time (sec): 1.000000E-2
Scans to average: 1
Electric dark correction enabled: true
Nonlinearity correction enabled: false
Boxcar width: 0
XAxis mode: Wavelengths
Number of Pixels in Spectrum: 3648
>>>>>Begin Spectral Data<<<<<
178.204	-40.45
178.424	-40.45
178.644	-40.45
178.864	-60.93
179.084	-91.65
179.304	20.99
179.524	16.9
179.744	-40.45
179.964	43.52
180.184	29.18
180.404	2.56
180.624	-58.88
180.844	18.94
181.064	-40.45
181.283	49.66
181.503	16.9
181.723	-58.88
181.943	-54.78
182.163	47.62
182.383	-56.83
182.602	61.95
182.822	49.66
183.042	90.62
183.262	41.47
183.482	51.71
183.701	-3.58
183.921	20.99
184.141	41.47
184.361	6.66
184.58	-7.68
184.8	-32.26
185.02	12.8
185.239	6.66
185.459	-15.87
185.679	10.75
185.898	31.23
186.118	25.09
186.338	29.18
186.557	31.23
186.777	25.09
186.997	-24.06
187.216	-15.87
187.436	74.24
187.655	29.18
187.875	57.86
188.095	-11.78
188.314	29.18
188.534	2.56
188.753	25.09
188.973	25.09
189.192	-28.16
189.412	88.57
189.631	41.47
189.851	-24.06
190.07	61.95
190.29	-28.16
190.509	-15.87
190.729	8.7
190.948	31.23
191.168	37.38
191.387	12.8
191.607	20.99
191.826	57.86
192.045	37.38
192.265	-3.58
192.484	74.24
192.704	-34.3
192.923	55.81
193.142	43.52
193.362	4.61
193.581	-40.45
193.8	4.61
194.02	37.38
194.239	-22.02
194.458	51.71
194.678	18.94
194.897	31.23
195.116	-17.92
195.335	-11.78
195.555	-13.82
195.774	29.18
195.993	84.48
196.212	68.09
196.432	33.28
196.651	-48.64
196.87	49.66
197.089	33.28
197.308	14.85
197.528	76.29
197.747	-50.69
197.966	-7.68
198.185	84.48
198.404	-1.54
198.623	12.8
198.842	76.29
199.062	-19.97
199.281	49.66
199.5	45.57
199.719	90.62
199.938	-28.16
200.157	74.24
200.376	66.05
200.595	-24.06
200.814	45.57
201.033	16.9
201.252	39.42
201.471	74.24
201.69	4.61
201.909	82.43
202.128	4.61
202.347	0.51
202.566	-15.87
202.785	78.33
203.004	-24.06
203.223	8.7
203.442	-5.63
203.661	2.56
203.879	-44.54
204.098	45.57
204.317	35.33
204.536	-28.16
204.755	-11.78
204.974	37.38
205.193	57.86
205.411	72.19
205.63	35.33
205.849	53.76
206.068	-50.69
206.287	55.81
206.505	-30.21
206.724	31.23
206.943	37.38
207.162	33.28
207.381	20.99
207.599	45.57
207.818	53.76
208.037	35.33
208.255	10.75
208.474	25.09
208.693	2.56
208.911	-13.82
209.13	29.18
209.349	33.28
209.567	31.23
209.786	-11.78
210.005	-7.68
210.223	16.9
210.442	57.86
210.661	51.71
210.879	29.18
211.098	33.28
211.316	-5.63
211.535	92.67
211.753	53.76
211.972	82.43
212.191	31.23
212.409	-30.21
212.628	4.61
212.846	2.56
213.065	39.42
213.283	29.18
213.502	-1.54
213.72	72.19
213.938	16.9
214.157	31.23
214.375	20.99
214.594	-22.02
214.812	-28.16
215.031	-11.78
215.249	45.57
215.467	35.33
215.686	39.42
215.904	12.8
216.122	-24.06
216.341	-1.54
216.559	104.96
216.778	2.56
216.996	-32.26
217.214	-48.64
217.432	49.66
217.651	-13.82
217.869	2.56
218.087	16.9
218.306	-30.21
218.524	8.7
218.742	25.09
218.96	-28.16
219.179	-7.68
219.397	16.9
219.615	57.86
219.833	53.76
220.051	2.56
220.27	27.14
220.488	18.94
220.706	-24.06
220.924	33.28
221.142	18.94
221.36	25.09
221.578	90.62
221.796	55.81
222.015	6.66
222.233	4.61
222.451	57.86
222.669	33.28
222.887	12.8
223.105	37.38
223.323	35.33
223.541	4.61
223.759	-22.02
223.977	-3.58
224.195	51.71
224.413	10.75
224.631	-24.06
224.849	-5.63
225.067	76.29
225.285	-17.92
225.503	-3.58
225.721	27.14
225.939	-3.58
226.157	59.9
226.375	37.38
226.592	33.28
226.81	57.86
227.028	-30.21
227.246	25.09
227.464	49.66
227.682	27.14
227.9	-26.11
228.117	-5.63
228.335	20.99
228.553	72.19
228.771	2.56
228.989	55.81
229.206	-19.97
229.424	45.57
229.642	47.62
229.86	-17.92
230.077	64
230.295	68.09
230.513	12.8
230.731	41.47
230.948	31.23
231.166	18.94
231.384	-34.3
231.601	57.86
231.819	29.18
232.037	-24.06
232.254	18.94
232.472	33.28
232.689	-13.82
232.907	-13.82
233.125	-15.87
233.342	55.81
233.56	-22.02
233.777	29.18
233.995	20.99
234.213	31.23
234.43	25.09
234.648	74.24
234.865	-1.54
235.083	16.9
235.3	-24.06
235.518	16.9
235.735	80.38
235.953	33.28
236.17	47.62
236.388	2.56
236.605	98.81
236.822	51.71
237.04	16.9
237.257	45.57
237.475	0.51
237.692	12.8
237.909	-7.68
238.127	6.66
238.344	4.61
238.562	-9.73
238.779	-7.68
238.996	55.81
239.214	51.71
239.431	6.66
239.648	-32.26
239.865	-7.68
240.083	76.29
240.3	-42.5
240.517	43.52
240.735	14.85
240.952	14.85
241.169	43.52
241.386	-11.78
241.603	-32.26
241.821	27.14
242.038	64
242.255	-5.63
242.472	-28.16
242.689	76.29
242.907	68.09
243.124	61.95
243.341	84.48
243.558	45.57
243.775	-22.02
243.992	33.28
244.209	25.09
244.426	55.81
244.643	29.18
244.86	-22.02
245.078	41.47
245.295	8.7
245.512	59.9
245.729	16.9
245.946	33.28
246.163	74.24
246.38	-50.69
246.597	-5.63
246.814	37.38
247.031	49.66
247.248	-15.87
247.464	51.71
247.681	8.7
247.898	-15.87
248.115	0.51
248.332	0.51
248.549	78.33
248.766	66.05
248.983	39.42
249.2	-1.54
249.417	49.66
249.633	35.33
249.85	16.9
250.067	-44.54
250.284	18.94
250.501	16.9
250.717	16.9
250.934	8.7
251.151	74.24
251.368	68.09
251.585	10.75
251.801	109.05
252.018	41.47
252.235	33.28
252.451	33.28
252.668	23.04
252.885	27.14
253.102	-7.68
253.318	-85.5
253.535	68.09
253.752	94.72
253.968	23.04
254.185	6.66
254.401	14.85
254.618	-13.82
254.835	-5.63
255.051	-40.45
255.268	10.75
255.484	53.76
255.701	31.23
255.917	61.95
256.134	-32.26
256.351	-7.68
256.567	-42.5
256.784	16.9
257	-38.4
257.217	18.94
257.433	66.05
257.65	0.51
257.866	25.09
258.082	8.7
258.299	-30.21
258.515	57.86
258.732	-7.68
258.948	37.38
259.165	49.66
259.381	2.56
259.597	-9.73
259.814	-3.58
260.03	55.81
260.246	133.63
260.463	-3.58
260.679	10.75
260.895	-17.92
261.112	51.71
261.328	25.09
261.544	16.9
261.761	33.28
261.977	43.52
262.193	23.04
262.409	-11.78
262.626	33.28
262.842	-7.68
263.058	29.18
263.274	45.57
263.49	74.24
263.707	61.95
263.923	37.38
264.139	82.43
264.355	-81.41
264.571	55.81
264.787	102.91
265.004	16.9
265.22	-13.82
265.436	16.9
265.652	47.62
265.868	82.43
266.084	18.94
266.3	-38.4
266.516	57.86
266.732	0.51
266.948	51.71
267.164	-11.78
267.38	31.23
267.596	-11.78
267.812	-5.63
268.028	8.7
268.244	43.52
268.46	-11.78
268.676	51.71
268.892	45.57
269.108	-28.16
269.324	66.05
269.54	-34.3
269.756	92.67
269.972	29.18
270.188	-9.73
270.403	-26.11
270.619	4.61
270.835	53.76
271.051	14.85
271.267	-9.73
271.483	0.51
271.698	2.56
271.914	41.47
272.13	-7.68
272.346	-13.82
272.562	-54.78
272.777	66.05
272.993	-36.35
273.209	92.67
273.425	74.24
273.64	31.23
273.856	4.61
274.072	49.66
274.287	8.7
274.503	72.19
274.719	27.14
274.934	-28.16
275.15	-19.97
275.366	61.95
275.581	80.38
275.797	43.52
276.012	51.71
276.228	20.99
276.444	29.18
276.659	-7.68
276.875	64
277.09	59.9
277.306	68.09
277.521	43.52
277.737	-28.16
277.952	51.71
278.168	-5.63
278.383	18.94
278.599	-69.12
278.814	84.48
279.03	37.38
279.245	20.99
279.461	-3.58
279.676	68.09
279.892	51.71
280.107	-1.54
280.322	-26.11
280.538	59.9
280.753	16.9
280.969	35.33
281.184	35.33
281.399	82.43
281.615	33.28
281.83	2.56
282.045	4.61
282.26	12.8
282.476	23.04
282.691	98.81
282.906	18.94
283.122	4.61
283.337	-13.82
283.552	61.95
283.767	2.56
283.983	84.48
284.198	8.7
284.413	37.38
284.628	96.77
284.843	43.52
285.058	33.28
285.274	20.99
285.489	20.99
285.704	82.43
285.919	29.18
286.134	-11.78
286.349	-1.54
286.564	16.9
286.779	49.66
286.995	45.57
287.21	39.42
287.425	59.9
287.64	4.61
287.855	137.73
288.07	-56.83
288.285	96.77
288.5	-13.82
288.715	8.7
288.93	27.14
289.145	-48.64
289.36	49.66
289.575	78.33
289.79	31.23
290.004	0.51
290.219	-26.11
290.434	12.8
290.649	-93.69
290.864	-9.73
291.079	59.9
291.294	45.57
291.509	-19.97
291.724	53.76
291.938	-15.87
292.153	37.38
292.368	25.09
292.583	33.28
292.798	31.23
293.012	-15.87
293.227	27.14
293.442	43.52
293.657	37.38
293.871	41.47
294.086	-19.97
294.301	-24.06
294.516	25.09
294.73	64
294.945	59.9
295.16	49.66
295.374	-15.87
295.589	88.57
295.804	-24.06
296.018	53.76
296.233	49.66
296.447	-32.26
296.662	2.56
296.877	35.33
297.091	57.86
297.306	33.28
297.52	43.52
297.735	27.14
297.949	43.52
298.164	27.14
298.378	2.56
298.593	18.94
298.807	37.38
299.022	-1.54
299.236	115.2
299.451	80.38
299.665	23.04
299.88	43.52
300.094	33.28
300.309	0.51
300.523	-24.06
300.737	-97.79
300.952	-24.06
301.166	47.62
301.381	70.14
301.595	8.7
301.809	49.66
302.024	2.56
302.238	27.14
302.452	-7.68
302.667	-28.16
302.881	18.94
303.095	33.28
303.309	66.05
303.524	49.66
303.738	-13.82
303.952	43.52
304.166	35.33
304.381	59.9
304.595	66.05
304.809	10.75
305.023	29.18
305.237	70.14
305.452	47.62
305.666	20.99
305.88	82.43
306.094	0.51
306.308	12.8
306.522	-24.06
306.736	37.38
306.95	-11.78
307.164	10.75
307.379	-19.97
307.593	107.01
307.807	25.09
308.021	-19.97
308.235	41.47
308.449	33.28
308.663	18.94
308.877	88.57
309.091	4.61
309.305	14.85
309.519	6.66
309.733	57.86
309.947	-13.82
310.161	-28.16
310.374	35.33
310.588	82.43
310.802	8.7
311.016	76.29
311.23	45.57
311.444	35.33
311.658	74.24
311.872	64
312.085	68.09
312.299	27.14
312.513	18.94
312.727	49.66
312.941	6.66
313.154	53.76
313.368	25.09
313.582	27.14
313.796	29.18
314.009	100.86
314.223	2.56
314.437	74.24
314.651	29.18
314.864	53.76
315.078	64
315.292	102.91
315.505	59.9
315.719	31.23
315.933	43.52
316.146	66.05
316.36	4.61
316.573	8.7
316.787	109.05
317.001	-22.02
317.214	45.57
317.428	45.57
317.641	59.9
317.855	31.23
318.068	12.8
318.282	-9.73
318.495	82.43
318.709	45.57
318.922	23.04
319.136	43.52
319.349	29.18
319.563	82.43
319.776	94.72
319.99	57.86
320.203	35.33
320.417	45.57
320.63	0.51
320.843	-13.82
321.057	31.23
321.27	-13.82
321.483	39.42
321.697	20.99
321.91	29.18
322.124	98.81
322.337	61.95
322.55	-69.12
322.763	43.52
322.977	0.51
323.19	94.72
323.403	12.8
323.617	61.95
323.83	107.01
324.043	0.51
324.256	49.66
324.469	-7.68
324.683	4.61
324.896	27.14
325.109	-13.82
325.322	-46.59
325.535	66.05
325.748	29.18
325.962	35.33
326.175	45.57
326.388	12.8
326.601	25.09
326.814	80.38
327.027	41.47
327.24	92.67
327.453	49.66
327.666	18.94
327.879	43.52
328.092	39.42
328.305	76.29
328.518	-1.54
328.731	-46.59
328.944	59.9
329.157	-50.69
329.37	-13.82
329.583	29.18
329.796	29.18
330.009	57.86
330.222	25.09
330.435	29.18
330.648	68.09
330.861	45.57
331.073	25.09
331.286	8.7
331.499	45.57
331.712	4.61
331.925	43.52
332.138	20.99
332.35	6.66
332.563	57.86
332.776	29.18
332.989	-9.73
333.202	43.52
333.414	0.51
333.627	88.57
333.84	6.66
334.053	53.76
334.265	-24.06
334.478	23.04
334.691	6.66
334.903	27.14
335.116	78.33
335.329	20.99
335.541	129.53
335.754	55.81
335.966	12.8
336.179	84.48
336.392	74.24
336.604	33.28
336.817	31.23
337.029	31.23
337.242	66.05
337.454	27.14
337.667	6.66
337.88	35.33
338.092	25.09
338.305	53.76
338.517	31.23
338.729	80.38
338.942	123.39
339.154	8.7
339.367	4.61
339.579	-22.02
339.792	4.61
340.004	-13.82
340.217	23.04
340.429	113.15
340.641	35.33
340.854	82.43
341.066	70.14
341.278	25.09
341.491	41.47
341.703	-19.97
341.915	25.09
342.128	43.52
342.34	-44.54
342.552	25.09
342.764	-56.83
342.977	2.56
343.189	-36.35
343.401	68.09
343.613	29.18
343.826	25.09
344.038	-15.87
344.25	55.81
344.462	57.86
344.674	25.09
344.886	14.85
345.099	10.75
345.311	29.18
345.523	-7.68
345.735	14.85
345.947	8.7
346.159	68.09
346.371	107.01
346.583	43.52
346.795	113.15
347.007	-5.63
347.219	33.28
347.431	20.99
347.643	53.76
347.855	-9.73
348.067	45.57
348.279	-24.06
348.491	10.75
348.703	43.52
348.915	43.52
349.127	2.56
349.339	59.9
349.551	8.7
349.763	66.05
349.975	8.7
350.187	51.71
350.399	43.52
350.61	-7.68
350.822	6.66
351.034	35.33
351.246	-17.92
351.458	92.67
351.669	82.43
351.881	33.28
352.093	51.71
352.305	23.04
352.517	31.23
352.728	6.66
352.94	37.38
353.152	47.62
353.363	-26.11
353.575	74.24
353.787	74.24
353.999	70.14
354.21	49.66
354.422	53.76
354.633	-40.45
354.845	18.94
355.057	4.61
355.268	68.09
355.48	-1.54
355.692	33.28
355.903	2.56
356.115	-36.35
356.326	45.57
356.538	49.66
356.749	-5.63
356.961	41.47
357.172	6.66
357.384	-1.54
357.595	-11.78
357.807	-54.78
358.018	96.77
358.23	41.47
358.441	104.96
358.653	33.28
358.864	92.67
359.075	18.94
359.287	-11.78
359.498	45.57
359.709	0.51
359.921	29.18
360.132	-13.82
360.344	29.18
360.555	49.66
360.766	8.7
360.977	43.52
361.189	20.99
361.4	6.66
361.611	47.62
361.823	64
362.034	-17.92
362.245	70.14
362.456	16.9
362.667	25.09
362.879	23.04
363.09	2.56
363.301	33.28
363.512	80.38
363.723	68.09
363.935	16.9
364.146	-32.26
364.357	43.52
364.568	96.77
364.779	41.47
364.99	18.94
365.201	55.81
365.412	45.57
365.623	-1.54
365.834	-40.45
366.045	-9.73
366.256	84.48
366.467	74.24
366.678	59.9
366.889	74.24
367.1	49.66
367.311	37.38
367.522	45.57
367.733	2.56
367.944	88.57
368.155	61.95
368.366	45.57
368.577	-3.58
368.788	53.76
368.999	57.86
369.209	33.28
369.42	82.43
369.631	41.47
369.842	12.8
370.053	31.23
370.264	-48.64
370.474	-3.58
370.685	25.09
370.896	66.05
371.107	59.9
371.317	90.62
371.528	-3.58
371.739	66.05
371.95	-7.68
372.16	41.47
372.371	-15.87
372.582	2.56
372.792	-5.63
373.003	20.99
373.214	68.09
373.424	57.86
373.635	55.81
373.846	64
374.056	0.51
374.267	74.24
374.477	70.14
374.688	25.09
374.898	55.81
375.109	66.05
375.319	2.56
375.53	117.25
375.74	-46.59
375.951	4.61
376.161	57.86
376.372	74.24
376.582	45.57
376.793	70.14
377.003	92.67
377.214	80.38
377.424	8.7
377.635	76.29
377.845	-1.54
378.055	76.29
378.266	53.76
378.476	76.29
378.686	-7.68
378.897	57.86
379.107	41.47
379.317	57.86
379.528	-11.78
379.738	74.24
379.948	33.28
380.158	94.72
380.369	31.23
380.579	51.71
380.789	16.9
380.999	74.24
381.21	41.47
381.42	51.71
381.63	35.33
381.84	51.71
382.05	18.94
382.261	68.09
382.471	90.62
382.681	8.7
382.891	-1.54
383.101	29.18
383.311	-13.82
383.521	18.94
383.731	25.09
383.941	-1.54
384.151	68.09
384.361	51.71
384.571	143.87
384.781	31.23
384.991	35.33
385.201	86.53
385.411	80.38
385.621	100.86
385.831	14.85
386.041	68.09
386.251	84.48
386.461	47.62
386.671	86.53
386.881	27.14
387.091	18.94
387.301	57.86
387.511	8.7
387.72	-5.63
387.93	98.81
388.14	29.18
388.35	0.51
388.56	-40.45
388.769	20.99
388.979	45.57
389.189	82.43
389.399	6.66
389.609	94.72
389.818	14.85
390.028	45.57
390.238	61.95
390.447	10.75
390.657	51.71
390.867	31.23
391.076	57.86
391.286	98.81
391.496	61.95
391.705	43.52
391.915	57.86
392.125	113.15
392.334	82.43
392.544	90.62
392.753	115.2
392.963	47.62
393.172	78.33
393.382	80.38
393.591	94.72
393.801	16.9
394.01	107.01
394.22	84.48
394.429	98.81
394.639	55.81
394.848	27.14
395.058	49.66
395.267	45.57
395.477	66.05
395.686	98.81
395.895	135.68
396.105	92.67
396.314	66.05
396.524	88.57
396.733	49.66
396.942	78.33
397.152	111.1
397.361	66.05
397.57	113.15
397.78	20.99
397.989	147.97
398.198	125.44
398.407	70.14
398.617	45.57
398.826	78.33
399.035	92.67
399.244	57.86
399.453	131.58
399.663	16.9
399.872	133.63
400.081	88.57
400.29	98.81
400.499	127.49
400.708	49.66
400.917	53.76
401.127	76.29
401.336	84.48
401.545	168.45
401.754	88.57
401.963	176.64
402.172	160.25
402.381	92.67
402.59	29.18
402.799	86.53
403.008	33.28
403.217	55.81
403.426	115.2
403.635	127.49
403.844	23.04
404.053	164.35
404.262	127.49
404.471	74.24
404.68	68.09
404.888	92.67
405.097	70.14
405.306	215.55
405.515	49.66
405.724	180.73
405.933	168.45
406.142	176.64
406.35	96.77
406.559	221.69
406.768	201.21
406.977	174.59
407.185	190.97
407.394	211.45
407.603	133.63
407.812	123.39
408.02	209.4
408.229	115.2
408.438	211.45
408.646	184.83
408.855	180.73
409.064	262.65
409.272	211.45
409.481	231.93
409.69	283.13
409.898	242.17
410.107	264.7
410.315	199.16
410.524	285.18
410.733	291.32
410.941	334.33
411.15	309.76
411.358	307.71
411.567	406.01
411.775	401.91
411.984	332.28
412.192	393.72
412.401	403.96
412.609	338.43
412.818	393.72
413.026	459.26
413.234	408.06
413.443	451.07
413.651	485.88
413.86	502.26
414.068	543.22
414.276	526.84
414.485	580.09
414.693	512.5
414.901	551.42
415.11	508.41
415.318	557.56
415.526	588.28
415.734	616.95
415.943	651.77
416.151	721.4
416.359	657.91
416.567	684.53
416.776	778.74
416.984	782.84
417.192	758.26
417.4	850.42
417.608	852.47
417.817	877.04
418.025	932.34
418.233	948.72
418.441	993.78
418.649	956.91
418.857	1069.55
419.065	1018.35
419.273	1100.27
419.481	1130.99
419.689	1196.53
419.897	1241.58
420.105	1223.15
420.313	1339.88
420.521	1282.54
420.729	1352.17
420.937	1452.52
421.145	1544.68
421.353	1503.72
421.561	1581.54
421.769	1622.5
421.977	1712.61
422.185	1683.94
422.393	1765.86
422.601	1978.85
422.809	1935.84
423.017	1821.16
423.224	1978.85
423.432	1999.33
423.64	1987.04
423.848	2277.85
424.056	2212.32
424.263	2320.86
424.471	2435.55
424.679	2329.05
424.887	2607.58
425.094	2689.49
425.302	2509.27
425.51	2691.54
425.718	2763.22
425.925	2820.56
426.133	3051.99
426.341	3219.92
426.548	3301.84
426.756	3244.49
426.964	3262.93
427.171	3467.72
427.379	3621.32
427.586	3416.52
427.794	3656.14
428.001	3967.43
428.209	4055.49
428.417	4137.41
428.624	4202.94
428.832	4291.01
429.039	4381.12
429.247	4192.7
429.454	4630.97
429.662	4835.77
429.869	4561.34
430.076	4841.91
430.284	4794.81
430.491	4981.17
430.699	5448.11
430.906	5339.57
431.114	5284.27
431.321	5577.13
431.528	5704.1
431.736	6046.12
431.943	6314.4
432.15	6099.36
432.358	6234.53
432.565	6621.59
432.772	6531.48
432.979	6662.55
433.187	7127.44
433.394	7047.57
433.601	7549.32
433.808	7477.65
434.016	7332.24
434.223	7690.63
434.43	8321.41
434.637	8157.57
434.844	8626.56
435.052	8712.57
435.259	8599.93
435.466	8800.63
435.673	8608.12
435.88	9404.78
436.087	9718.12
436.294	9591.15
436.501	9613.68
436.708	9689.45
436.915	9937.26
437.122	10369.38
437.329	10373.47
437.537	10707.29
437.743	10975.58
437.95	10926.43
438.157	11495.76
438.364	11813.2
438.571	11784.52
438.778	11809.1
438.985	12976.44
439.192	12366.15
439.399	12841.28
439.606	12616
439.813	13066.55
440.02	14264.61
440.227	13801.77
440.433	13601.07
440.64	14025
440.847	13918.51
441.054	14471.46
441.261	15446.29
441.467	14944.54
441.674	15538.45
441.881	16056.59
442.088	15993.1
442.294	15839.5
442.501	16449.8
442.708	16578.82
442.914	17004.8
443.121	17842.42
443.328	17475.83
443.534	18618.6
443.741	18278.63
443.948	17883.38
444.154	19493.08
444.361	18913.5
444.568	19374.3
444.774	19271.9
444.981	19425.5
445.187	20037.84
445.394	20762.82
445.6	20695.24
445.807	22728.87
446.013	21407.93
446.22	22020.27
446.426	22694.05
446.633	23050.4
446.839	23808.15
447.046	22659.24
447.252	23871.64
447.459	23867.54
447.665	24223.89
447.871	24969.35
448.078	26255.47
448.284	25059.46
448.491	25636.98
448.697	26398.83
448.903	26697.83
449.11	27197.54
449.316	26787.94
449.522	27088.99
449.728	27830.36
449.935	28049.49
450.141	28178.51
450.347	28471.37
450.553	27961.43
450.76	28211.28
450.966	29003.85
451.172	29120.58
451.378	29311.04
451.584	28717.13
451.791	29407.3
451.997	29380.67
452.203	30310.45
452.409	30267.44
452.615	29845.56
452.821	28487.76
453.027	28184.66
453.233	29829.18
453.44	28473.42
453.646	29003.85
453.852	28987.46
454.058	29501.5
454.264	28616.78
454.47	29300.8
454.676	28579.92
454.882	29065.28
455.088	26925.16
455.294	27471.96
455.5	27713.63
455.705	28188.75
455.911	26755.18
456.117	26300.53
456.323	26011.76
456.529	24699.02
456.735	25522.3
456.941	25188.48
457.147	24600.71
457.352	23730.33
457.558	23734.42
457.764	23728.28
457.97	22974.63
458.176	22706.34
458.381	22775.97
458.587	21500.09
458.793	21891.25
458.999	20560.07
459.204	22296.75
459.41	21645.49
459.616	19912.91
459.821	20064.46
460.027	19923.15
460.233	19587.29
460.438	18532.58
460.644	18925.79
460.85	18028.78
461.055	17672.43
461.261	17723.63
461.466	16335.11
461.672	16197.9
461.878	17023.23
462.083	15853.84
462.289	15681.81
462.494	15718.67
462.7	14756.13
462.905	14436.64
463.111	14840.09
463.316	14866.72
463.522	14633.25
463.727	14758.17
463.932	14545.19
464.138	14719.26
464.343	14756.13
464.549	14080.3
464.754	14532.9
464.959	14561.57
465.165	14410.02
465.37	13898.03
465.575	13490.48
465.781	13951.28
465.986	14051.63
466.191	13672.75
466.397	13300.02
466.602	12706.11
466.807	13365.56
467.012	13224.25
467.218	13236.53
467.423	12919.1
467.628	13197.62
467.833	13480.24
468.038	12818.75
468.244	12575.04
468.449	13181.24
468.654	12798.27
468.859	12775.74
469.064	12687.68
469.269	12325.19
469.474	12472.64
469.679	12429.63
469.885	12187.97
470.09	12360
470.295	12310.85
470.5	12169.54
470.705	12063.05
470.91	11757.9
471.115	11538.77
471.32	11897.16
471.525	11675.98
471.73	11661.65
471.935	11424.08
472.139	10989.91
472.344	11393.36
472.549	11006.3
472.754	11096.41
472.959	10801.5
473.164	10574.17
473.369	10359.14
473.574	10895.71
473.778	10559.84
473.983	10309.99
474.188	10498.4
474.393	10187.11
474.598	10088.81
474.802	10010.98
475.007	9826.67
475.212	10076.52
475.417	9564.53
475.621	9646.44
475.826	9716.08
476.031	9347.44
476.235	9298.29
476.44	9572.72
476.645	9324.91
476.849	9484.66
477.054	9193.84
477.259	8937.85
477.463	8898.94
477.668	8849.78
477.872	8890.74
478.077	8577.41
478.282	8495.49
478.486	8548.73
478.691	8348.03
478.895	8274.31
479.1	8284.55
479.304	8176
479.509	8071.56
479.713	8225.15
479.918	8198.53
480.122	7762.31
480.326	8237.44
480.531	8049.03
480.735	8100.23
480.94	8069.51
481.144	8165.76
481.348	7758.22
481.553	7815.56
481.757	7838.09
481.961	7829.9
482.166	8053.13
482.37	7846.28
482.574	7809.42
482.778	7877
482.983	7838.09
483.187	7618.96
483.391	7940.49
483.595	7872.9
483.8	7670.15
484.004	7715.21
484.208	7758.22
484.412	7672.2
484.616	7686.54
484.821	7885.19
485.025	7799.18
485.229	7733.64
485.433	7498.13
485.637	7866.76
485.841	7684.49
486.045	7727.5
486.249	7754.12
486.453	7608.72
486.657	7831.94
486.861	7858.57
487.065	7541.13
487.269	7688.59
487.473	7661.96
487.677	7901.58
487.881	7872.9
488.085	7821.7
488.289	8057.22
488.493	7647.63
488.697	7877
488.901	7864.71
489.105	7881.1
489.309	7831.94
489.512	8012.17
489.716	7811.46
489.92	8036.74
490.124	7922.06
490.328	8151.43
490.531	7995.78
490.735	7907.72
490.939	8081.8
491.143	7975.3
491.346	8016.26
491.55	8044.93
491.754	8206.72
491.958	8276.35
492.161	8200.58
492.365	8339.84
492.569	8133
492.772	8225.15
492.976	8591.74
493.18	8419.71
493.383	8397.18
493.587	8587.64
493.79	8593.79
493.994	8550.78
494.197	8593.79
494.401	8733.05
494.605	8765.82
494.808	8989.05
495.012	9077.11
495.215	9042.29
495.419	9161.08
495.622	9113.97
495.825	9081.21
496.029	9335.15
496.232	9275.76
496.436	9492.85
496.639	9838.95
496.843	9568.62
497.046	9841
497.249	9855.34
497.453	10076.52
497.656	9961.83
497.859	10191.2
498.063	10088.81
498.266	10510.69
498.469	10389.86
498.673	10672.48
498.876	10875.23
499.079	10858.84
499.282	10934.62
499.485	11088.21
499.689	11053.4
499.892	11379.03
500.095	11571.54
500.298	11999.56
500.501	11649.36
500.705	12017.99
500.908	12095.82
501.111	12134.73
501.314	12054.86
501.517	12616
501.72	12810.56
501.923	12585.28
502.126	13099.32
502.329	13363.51
502.532	13238.58
502.735	13443.38
502.938	13652.27
503.141	13607.22
503.344	14098.73
503.547	13928.75
503.75	14346.53
503.953	14530.85
504.156	14543.14
504.359	14713.12
504.562	14909.72
504.765	15395.09
504.968	15339.8
505.17	15612.18
505.373	15599.89
505.576	16204.04
505.779	16349.45
505.982	16564.48
506.185	16769.28
506.387	16527.62
506.59	17004.8
506.793	17283.32
506.996	17285.37
507.198	17914.09
507.401	17830.13
507.604	17991.92
507.807	18432.23
508.009	18526.44
508.212	18557.16
508.415	19005.66
508.617	19275.99
508.82	19185.88
509.022	19351.77
509.225	19988.69
509.428	20191.44
509.63	20504.78
509.833	20631.75
510.035	21268.67
510.238	21219.52
510.44	21332.15
510.643	21887.15
510.845	21835.95
511.048	21854.39
511.25	22472.87
511.453	22374.57
511.655	23275.68
511.858	23015.58
512.06	23261.34
512.262	23736.47
512.465	23529.62
512.667	24092.82
512.87	24443.02
513.072	24627.34
513.274	25188.48
513.477	25186.43
513.679	25483.39
513.881	25829.49
514.084	26024.05
514.286	26263.66
514.488	26644.59
514.69	27179.11
514.893	27445.34
515.095	27543.64
515.297	27920.47
515.499	27981.91
515.701	28360.78
515.904	28835.91
516.106	29218.88
516.308	29093.96
516.51	29925.43
516.712	29859.9
516.914	30384.18
517.116	30810.15
517.318	31242.28
517.52	31201.32
517.722	31727.64
517.925	31887.39
518.127	32118.81
518.329	32444.43
518.531	32354.32
518.733	33363.97
518.935	33712.13
519.136	33861.63
519.338	34320.37
519.54	34193.4
519.742	34660.34
519.944	34684.91
520.146	35897.31
520.348	35784.67
520.55	35760.09
520.752	36063.19
520.954	36982.73
521.155	36587.47
521.357	37214.15
521.559	37703.62
521.761	38291.38
521.963	38451.13
522.164	38318.01
522.366	38490.04
522.568	38860.72
522.77	39042.99
522.971	39661.47
523.173	39255.98
523.375	39917.47
523.576	39843.74
523.778	39976.86
523.98	40644.5
524.181	40970.13
524.383	41086.86
524.584	41811.84
524.786	41508.74
524.988	41494.41
525.189	42518.39
525.391	42608.5
525.592	42362.75
525.794	42803.06
525.995	43059.05
526.197	42962.8
526.398	42909.55
526.6	43648.87
526.801	43738.98
527.003	44265.31
527.204	43958.11
527.406	44013.41
527.607	44121.95
527.808	44676.95
528.01	44150.62
528.211	44693.33
528.412	45166.41
528.614	44838.74
528.815	44928.85
529.016	45365.07
529.218	44986.19
529.419	45297.48
529.62	45561.67
529.822	45745.99
530.023	45815.62
530.224	45983.55
530.425	45676.36
530.626	45672.26
530.828	45784.9
531.029	46796.6
531.23	46118.72
531.431	45954.88
531.632	46511.93
531.833	46481.21
532.035	46384.96
532.236	46835.51
532.437	46960.44
532.638	46620.47
532.839	47019.83
533.04	47025.97
533.241	46382.91
533.442	47322.93
533.643	47157.04
533.844	46432.06
534.045	47261.49
534.246	46864.18
534.447	47697.7
534.648	46769.97
534.849	47204.14
535.05	47071.03
535.251	46917.43
535.451	46880.56
535.652	47523.63
535.853	47566.63
536.054	47249.2
536.255	47353.65
536.456	47044.4
536.657	47802.15
536.857	47208.24
537.058	47521.58
537.259	47638.31
537.46	47439.66
537.66	47427.37
537.861	47232.82
538.062	46987.06
538.263	47550.25
538.463	47165.23
538.664	47206.19
538.865	47431.47
539.065	47335.21
539.266	46788.41
539.466	47765.29
539.667	47146.8
539.868	47808.29
540.068	47353.65
540.269	47273.77
540.469	47771.43
540.67	47181.62
540.87	47302.45
541.071	47542.06
541.271	47851.3
541.472	47873.83
541.672	47273.77
541.873	47140.66
542.073	47359.79
542.274	47884.07
542.474	47370.03
542.675	46765.88
542.875	47855.4
543.075	47273.77
543.276	46763.83
543.476	47621.93
543.676	47152.94
543.877	47136.56
544.077	47109.94
544.277	47331.12
544.478	47261.49
544.678	47660.84
544.878	47171.38
545.078	47406.89
545.279	46612.28
545.479	47142.7
545.679	47894.31
545.879	47202.1
546.079	47200.05
546.28	47413.04
546.48	46720.82
546.68	47345.45
546.88	47331.12
547.08	47238.96
547.28	47263.53
547.48	46677.82
547.68	47345.45
547.88	47439.66
548.081	47103.79
548.281	47425.32
548.481	47245.1
548.681	47562.54
548.881	47333.17
549.081	47124.27
549.28	46599.99
549.48	47212.34
549.68	47261.49
549.88	47580.97
550.08	46987.06
550.28	47107.89
550.48	47392.56
550.68	47423.28
550.88	47066.93
551.08	47009.59
551.279	47251.25
551.479	46653.24
551.679	47476.52
551.879	46593.85
552.079	47241.01
552.278	46952.24
552.478	47101.75
552.678	47316.78
552.878	47114.03
553.077	46839.61
553.277	46655.29
553.477	47587.11
553.676	46593.85
553.876	46782.26
554.076	47105.84
554.275	46708.54
554.475	46591.8
554.674	46972.72
554.874	46649.14
555.074	46587.71
555.273	46892.85
555.473	46847.8
555.672	46372.67
555.872	46479.16
556.071	46645.05
556.271	46911.28
556.47	46475.07
556.67	46059.33
556.869	46171.97
557.068	46860.08
557.268	45889.35
557.467	46421.82
557.667	46575.42
557.866	45999.94
558.065	46110.53
558.265	45901.64
558.464	45870.92
558.663	46460.73
558.863	45432.65
559.062	46104.38
559.261	45680.45
559.461	45926.21
559.66	45012.82
559.859	45487.95
560.058	45444.94
560.258	45551.43
560.457	45244.24
560.656	45672.26
560.855	45252.43
561.054	45365.07
561.253	45555.53
561.453	45403.98
561.652	45496.14
561.851	45324.11
562.05	44752.73
562.249	44666.71
562.448	45391.69
562.647	45244.24
562.846	45041.49
563.045	44816.21
563.244	44728.15
563.443	45064.02
563.642	44388.19
563.841	44717.91
564.04	44734.29
564.239	44492.63
564.438	44576.6
564.637	44336.99
564.836	44736.34
565.035	43698.02
565.234	44144.48
565.432	43994.98
565.631	43949.92
565.83	44357.47
566.029	43831.14
566.228	43665.25
566.427	43911.01
566.625	43575.14
566.824	43089.77
567.023	43786.08
567.222	42823.54
567.42	43581.29
567.619	43958.11
567.818	43220.84
568.016	43061.1
568.215	43659.11
568.414	43497.32
568.612	43284.33
568.811	42864.5
569.01	43136.88
569.208	42446.71
569.407	42962.8
569.605	42119.04
569.804	42821.49
570.002	42262.4
570.201	42549.11
570.4	41953.15
570.598	41766.79
570.797	41688.96
570.995	41934.72
571.193	41250.7
571.392	42018.69
571.59	41848.71
571.789	41697.16
571.987	41392.01
572.186	41717.64
572.384	41250.7
572.582	41369.48
572.781	41494.41
572.979	40918.93
573.177	41379.72
573.376	40832.91
573.574	40562.58
573.772	40759.19
573.971	40372.12
574.169	40386.46
574.367	40107.93
574.565	40349.59
574.763	40370.07
574.962	40148.89
575.16	39649.19
575.358	39923.61
575.556	39008.17
575.754	40032.16
575.952	39270.31
576.151	39448.49
576.349	39032.75
576.547	39018.41
576.745	39067.56
576.943	39026.6
577.141	39112.62
577.339	39051.18
577.537	38913.97
577.735	38467.51
577.933	38535.09
578.131	38827.95
578.329	38541.24
578.527	38066.11
578.725	37939.13
578.923	38127.55
579.121	38166.46
579.319	37906.37
579.516	37832.64
579.714	37777.34
579.912	37689.28
580.11	37736.38
580.308	37617.6
580.506	37302.21
580.704	36693.97
580.901	37363.65
581.099	37312.45
581.297	36724.69
581.495	36581.33
581.692	36947.92
581.89	36384.72
582.088	36626.39
582.285	36462.55
582.483	36239.32
582.681	36712.4
582.878	36147.16
583.076	35694.56
583.274	35925.98
583.471	35657.7
583.669	35921.88
583.866	35831.77
584.064	35555.3
584.262	35250.15
584.459	35405.8
584.657	34994.15
584.854	35563.49
585.052	34684.91
585.249	35131.37
585.447	35270.63
585.644	34746.35
585.841	34809.84
586.039	34775.02
586.236	34418.67
586.434	34344.95
586.631	34246.65
586.828	34154.49
587.026	33972.22
587.223	34058.23
587.42	33953.79
587.618	34033.66
587.815	33507.33
588.012	33656.83
588.21	33372.16
588.407	33486.85
588.604	33286.15
588.801	33439.75
588.999	33355.78
589.196	32987.14
589.393	33028.1
589.59	32882.7
589.787	32497.68
589.984	32606.22
590.182	32495.63
590.379	32421.91
590.576	32776.2
590.773	32577.55
590.97	32038.94
591.167	32296.98
591.364	31770.65
591.561	32450.58
591.758	31760.41
591.955	31623.2
592.152	31924.25
592.349	31864.86
592.546	31658.01
592.743	31705.12
592.94	31186.98
593.137	31715.36
593.334	31735.84
593.531	31017
593.727	31086.63
593.924	31356.96
594.121	30728.24
594.318	30828.59
594.515	30320.69
594.712	30906.41
594.908	30500.91
595.105	30609.45
595.302	30064.69
595.499	30914.6
595.696	30083.12
595.892	29990.97
596.089	29941.82
596.286	30388.27
596.482	29728.83
596.679	29769.79
596.876	30021.69
597.072	29769.79
597.269	29356.1
597.466	29147.2
597.662	29378.62
597.859	29530.17
598.055	29651
598.252	29184.07
598.448	29030.47
598.645	29141.06
598.841	28643.4
599.038	28860.49
599.234	29093.96
599.431	28561.48
599.627	28624.97
599.824	28919.88
600.02	28434.51
600.217	28502.09
600.413	28233.81
600.609	28174.42
600.806	28110.93
601.002	28391.5
601.198	27439.2
601.395	27721.82
601.591	28207.19
601.787	27910.23
601.984	27594.84
602.18	27687
602.376	27584.6
602.572	27148.39
602.769	27295.84
602.965	26886.25
603.161	27097.19
603.357	27054.18
603.553	26908.77
603.75	27045.99
603.946	26925.16
604.142	26853.48
604.338	26282.09
604.534	26736.74
604.73	26052.72
604.926	26253.42
605.122	26218.61
605.318	25925.75
605.514	25657.46
605.71	25819.25
605.906	25706.62
606.102	25610.36
606.298	25831.54
606.494	25325.69
606.69	26075.25
606.886	25483.39
607.082	25219.2
607.278	25432.19
607.474	25288.83
607.67	25038.98
607.866	25004.16
608.062	24924.29
608.257	24674.44
608.453	24914.05
608.649	25133.18
608.845	24993.92
609.041	24869
609.236	24787.08
609.432	24424.59
609.628	24391.82
609.824	24350.86
610.019	24324.24
610.215	24234.13
610.411	24418.44
610.606	24098.96
610.802	23947.41
610.998	24043.67
611.193	23750.81
611.389	24037.52
611.584	23752.85
611.78	23464.09
611.976	23709.85
612.171	23597.21
612.367	23533.72
612.562	23509.15
612.758	23478.43
612.953	23380.12
613.149	23378.08
613.344	22642.85
613.539	23349.4
613.735	23480.47
613.93	23251.1
614.126	23138.46
614.321	23150.75
614.517	22929.57
614.712	22651.05
614.907	22345.9
615.103	22775.97
615.298	22542.5
615.493	22835.36
615.688	22380.71
615.884	22780.07
616.079	22120.62
616.274	22282.41
616.47	22429.87
616.665	22284.46
616.86	22069.42
617.055	21946.55
617.25	22010.03
617.445	22259.88
617.641	21825.71
617.836	21991.6
618.031	21616.82
618.226	21766.32
618.421	21371.07
618.616	21561.53
618.811	21420.22
619.006	21625.01
619.201	20834.5
619.396	21262.52
619.591	20910.27
619.786	21061.82
619.981	20795.59
620.176	20918.46
620.371	20551.88
620.566	20644.04
620.761	20486.34
620.956	20660.42
621.151	20293.83
621.346	20369.61
621.541	19968.21
621.735	19980.5
621.93	19747.03
622.125	19773.65
622.32	19411.16
622.515	19603.67
622.709	19605.72
622.904	19427.54
623.099	19450.07
623.294	19308.76
623.488	18993.37
623.683	19112.16
623.878	18821.34
624.072	18725.09
624.267	18755.81
624.462	18563.3
624.656	18534.63
624.851	18458.85
625.046	18239.72
625.24	18213.1
625.435	18067.69
625.629	17950.96
625.824	17869.04
626.018	17879.28
626.213	17645.81
626.407	17838.32
626.602	17506.55
626.796	17367.29
626.991	17336.57
627.185	17223.93
627.38	17033.47
627.574	16980.22
627.768	16867.58
627.963	16820.48
628.157	16969.98
628.352	16718.08
628.546	16460.04
628.74	16521.48
628.935	16457.99
629.129	16435.46
629.323	16052.49
629.517	15976.72
629.712	16204.04
629.906	16070.92
630.1	15923.47
630.294	16038.16
630.489	15825.17
630.683	15720.72
630.877	15620.37
631.071	15423.76
631.265	15622.42
631.459	15397.14
631.653	15409.43
631.848	15282.45
632.042	15087.9
632.236	15196.44
632.43	14872.86
632.624	15016.22
632.818	14903.58
633.012	14594.34
633.206	14913.82
633.4	14737.7
633.594	14315.81
633.788	14477.6
633.982	14696.74
634.176	14364.96
634.369	14418.21
634.563	14264.61
634.757	14154.02
634.951	14305.57
635.145	14014.76
635.339	14154.02
635.533	13840.68
635.726	13736.24
635.92	13594.93
636.114	13744.43
636.308	13754.67
636.501	13480.24
636.695	13508.91
636.889	13689.14
637.083	13353.27
637.276	13695.28
637.47	13177.14
637.664	13269.3
637.857	12988.73
638.051	13152.57
638.244	13082.94
638.438	12749.12
638.632	12828.99
638.825	12814.65
639.019	12781.88
639.212	12616
639.406	12421.44
639.599	12595.52
639.793	12474.69
639.986	12126.53
640.18	12276.04
640.373	12271.94
640.567	11950.41
640.76	12112.2
640.954	11958.6
641.147	11901.26
641.34	11698.51
641.534	11729.23
641.727	11725.13
641.92	11774.28
642.114	11282.77
642.307	11694.41
642.5	11522.38
642.694	11372.88
642.887	11245.91
643.08	11413.84
643.273	11278.68
643.467	11534.67
643.66	11100.5
643.853	10889.56
644.046	10920.28
644.239	10905.95
644.432	10731.87
644.626	10805.6
644.819	10805.6
645.012	10611.04
645.205	10723.68
645.398	10695
645.591	10531.17
645.784	10551.65
645.977	10211.68
646.17	10367.33
646.363	10113.38
646.556	10080.61
646.749	10097
646.942	10146.15
647.135	9970.02
647.328	9992.55
647.521	9879.91
647.714	9628.01
647.907	9789.8
648.099	9476.46
648.292	9718.12
648.485	9427.31
648.678	9566.57
648.871	9505.13
649.064	9247.09
649.256	9556.33
649.449	9300.34
649.642	9292.15
649.835	9171.32
650.027	9042.29
650.22	9183.6
650.413	9103.73
650.605	8874.36
650.798	8845.69
650.991	8833.4
651.183	8765.82
651.376	8685.95
651.568	8640.89
651.761	8642.94
651.954	8563.07
652.146	8419.71
652.339	8391.04
652.531	8423.81
652.724	8411.52
652.916	8188.29
653.109	8206.72
653.301	8157.57
653.494	8223.11
653.686	8145.28
653.879	7950.73
654.071	7981.45
654.263	7872.9
654.456	7917.96
654.648	7831.94
654.84	7541.13
655.033	7702.92
655.225	7725.45
655.417	7747.98
655.61	7602.57
655.802	7451.02
655.994	7307.66
656.186	7369.1
656.379	7391.63
656.571	7367.06
656.763	7371.15
656.955	7098.77
657.148	7303.57
657.34	7154.07
657.532	6998.42
657.724	7004.57
657.916	6920.6
658.108	6857.11
658.3	6834.58
658.492	6838.68
658.684	6818.2
658.876	6588.83
659.068	6703.51
659.26	6623.64
659.452	6545.82
659.644	6492.57
659.836	6455.71
660.028	6502.81
660.22	6330.78
660.412	6527.39
660.604	6314.4
660.796	6465.95
660.988	6273.44
661.18	6234.53
661.372	5994.92
661.563	5996.96
661.755	6009.25
661.947	5992.87
662.139	6042.02
662.331	5890.47
662.522	5878.18
662.714	5763.5
662.906	5720.49
663.097	5759.4
663.289	5706.15
663.481	5671.34
663.673	5685.67
663.864	5538.22
664.056	5595.56
664.247	5259.7
664.439	5319.09
664.631	5552.56
664.822	5452.2
665.014	5456.3
665.205	5286.32
665.397	5300.66
665.588	5302.7
665.78	5138.87
665.971	5208.5
666.163	5278.13
666.354	5140.91
666.546	5042.61
666.737	4979.12
666.929	4989.36
667.12	4977.08
667.311	4946.36
667.503	4874.68
667.694	4954.55
667.885	4868.53
668.077	4946.36
668.268	4762.04
668.459	4696.5
668.651	4725.18
668.842	4759.99
669.033	4606.39
669.224	4712.89
669.416	4620.73
669.607	4653.5
669.798	4583.87
669.989	4583.87
670.18	4458.94
670.371	4534.71
670.563	4391.36
670.754	4559.29
670.945	4372.93
671.136	4512.19
671.327	4479.42
671.518	4413.88
671.709	4360.64
671.9	4293.05
672.091	4434.36
672.282	4358.59
672.473	4180.42
672.664	4327.87
672.855	4223.42
673.046	4139.46
673.237	4180.42
673.428	4094.4
673.619	4241.86
673.809	4143.55
674	4194.75
674.191	4080.07
674.382	3971.52
674.573	4186.56
674.764	4041.15
674.954	4018.63
675.145	3930.56
675.336	3809.73
675.527	4090.31
675.717	3879.36
675.908	3926.47
676.099	3828.17
676.289	3926.47
676.48	3953.09
676.671	3809.73
676.861	3862.98
677.052	3838.41
677.243	3824.07
677.433	3803.59
677.624	3897.8
677.814	3705.29
678.005	3813.83
678.195	3707.34
678.386	3789.25
678.576	3731.91
678.767	3752.39
678.957	3705.29
679.148	3768.77
679.338	3639.75
679.529	3772.87
679.719	3541.45
679.909	3611.08
680.1	3629.51
680.29	3592.65
680.481	3613.13
680.671	3502.54
680.861	3598.79
681.052	3498.44
681.242	3613.13
681.432	3570.12
681.622	3494.35
681.813	3502.54
682.003	3594.7
682.193	3490.25
682.383	3596.75
682.573	3447.24
682.764	3525.07
682.954	3541.45
683.144	3547.59
683.334	3453.39
683.524	3475.91
683.714	3434.96
683.904	3441.1
684.094	3490.25
684.284	3383.76
684.474	3461.58
684.664	3398.09
684.854	3488.2
685.044	3267.02
685.234	3254.73
685.424	3377.61
685.614	3283.41
685.804	3310.03
685.994	3385.8
686.184	3367.37
686.374	3426.76
686.564	3234.25
686.753	3398.09
686.943	3195.34
687.133	3293.65
687.323	3412.43
687.513	3277.26
687.702	3404.24
687.892	3328.46
688.082	3350.99
688.272	3473.87
688.461	3344.84
688.651	3355.08
688.841	3328.46
689.03	3197.39
689.22	3307.98
689.41	3256.78
689.599	3312.08
689.789	3189.2
689.979	3262.93
690.168	3256.78
690.358	3234.25
690.547	3148.24
690.737	3330.51
690.926	3135.95
691.116	3090.9
691.305	3260.88
691.495	3287.5
691.684	3305.93
691.874	3195.34
692.063	3199.44
692.252	3240.4
692.442	3240.4
692.631	3299.79
692.82	3279.31
693.01	3125.71
693.199	3256.78
693.388	3060.18
693.578	3105.23
693.767	3219.92
693.956	3238.35
694.146	3230.16
694.335	3113.42
694.524	3123.66
694.713	3123.66
694.902	3269.07
695.092	3152.34
695.281	3199.44
695.47	3234.25
695.659	3193.3
695.848	3162.58
696.037	3215.82
696.226	3172.82
696.415	3131.86
696.604	3228.11
696.793	2996.69
696.982	3135.95
697.171	3146.19
697.36	3164.62
697.549	3191.25
697.738	3097.04
697.927	3035.6
698.116	3070.42
698.305	3140.05
698.494	3084.75
698.683	3035.6
698.872	3056.08
699.061	3035.6
699.25	3021.27
699.438	3205.58
699.627	3080.66
699.816	3113.42
700.005	3043.79
700.193	2992.59
700.382	3072.47
700.571	3097.04
700.76	3074.51
700.948	3041.75
701.137	2980.31
701.326	3090.9
701.514	2970.07
701.703	3056.08
701.892	2986.45
702.08	2933.2
702.269	3017.17
702.457	2824.66
702.646	2957.78
702.834	2943.44
703.023	2879.96
703.212	2888.15
703.4	2869.72
703.589	2882
703.777	2912.72
703.965	2894.29
704.154	2894.29
704.342	2795.99
704.531	2918.87
704.719	2845.14
704.907	2832.85
705.096	2859.48
705.284	2863.57
705.472	2712.02
705.661	2771.41
705.849	2738.65
706.037	2822.61
706.226	2783.7
706.414	2744.79
706.602	2646.49
706.79	2744.79
706.979	2656.73
707.167	2736.6
707.355	2695.64
707.543	2755.03
707.731	2593.24
707.919	2681.3
708.107	2669.02
708.296	2644.44
708.484	2595.29
708.672	2572.76
708.86	2535.9
709.048	2650.58
709.236	2597.34
709.424	2445.79
709.612	2550.23
709.8	2564.57
709.988	2560.47
710.176	2550.23
710.364	2505.18
710.551	2404.83
710.739	2406.88
710.927	2402.78
711.115	2433.5
711.303	2462.17
711.491	2367.96
711.679	2490.84
711.866	2441.69
712.054	2382.3
712.242	2273.76
712.43	2413.02
712.617	2327
712.805	2284
712.993	2306.52
713.181	2296.28
713.368	2286.05
713.556	2372.06
713.744	2386.4
713.931	2318.81
714.119	2253.28
714.306	2238.94
714.494	2265.57
714.682	2249.18
714.869	2187.74
715.057	2298.33
715.244	2226.65
715.432	2216.41
715.619	2130.4
715.807	2240.99
715.994	2171.36
716.182	2144.74
716.369	2122.21
716.556	2122.21
716.744	2075.1
716.931	1962.47
717.119	2097.63
717.306	2157.02
717.493	2075.1
717.681	2105.82
717.868	2068.96
718.055	2101.73
718.242	2116.06
718.43	2077.15
718.617	2021.86
718.804	2021.86
718.991	2083.3
719.179	1939.94
719.366	2021.86
719.553	2030.05
719.74	1978.85
719.927	1917.41
720.114	1931.75
720.301	2001.38
720.488	1903.07
720.676	1913.31
720.863	1999.33
721.05	1784.29
721.237	1827.3
721.424	1941.99
721.611	1755.62
721.798	1921.51
721.985	1841.64
722.172	1729
722.358	1794.53
722.545	1837.54
722.732	1739.24
722.919	1772
723.106	1855.97
723.293	1831.4
723.48	1782.24
723.667	1802.72
723.853	1714.66
724.04	1757.67
724.227	1694.18
724.414	1634.79
724.6	1677.8
724.787	1739.24
724.974	1759.72
725.161	1655.27
725.347	1679.85
725.534	1696.23
725.72	1718.76
725.907	1731.05
726.094	1669.61
726.28	1632.74
726.467	1587.69
726.653	1626.6
726.84	1647.08
727.027	1704.42
727.213	1614.31
727.4	1556.97
727.586	1475.05
727.773	1587.69
727.959	1667.56
728.145	1632.74
728.332	1556.97
728.518	1573.35
728.705	1511.91
728.891	1581.54
729.077	1491.43
729.264	1483.24
729.45	1427.95
729.636	1479.15
729.823	1511.91
730.009	1499.63
730.195	1507.82
730.382	1464.81
730.568	1456.62
730.754	1438.19
730.94	1413.61
731.126	1452.52
731.313	1380.84
731.499	1509.86
731.685	1487.34
731.871	1335.79
732.057	1415.66
732.243	1376.75
732.429	1395.18
732.615	1473
732.801	1395.18
732.987	1368.56
733.173	1395.18
733.359	1362.41
733.545	1391.08
733.731	1262.06
733.917	1327.6
734.103	1331.69
734.289	1311.21
734.475	1290.73
734.661	1333.74
734.847	1251.82
735.033	1399.27
735.219	1329.64
735.404	1321.45
735.59	1225.2
735.776	1264.11
735.962	1270.25
736.148	1272.3
736.333	1147.37
736.519	1202.67
736.705	1249.77
736.89	1339.88
737.076	1274.35
737.262	1251.82
737.447	1325.55
737.633	1231.34
737.819	1262.06
738.004	1309.16
738.19	1135.09
738.375	1214.96
738.561	1163.76
738.747	1214.96
738.932	1196.53
739.118	1145.33
739.303	1214.96
739.489	1133.04
739.674	1169.9
739.859	1210.86
740.045	1147.37
740.23	1141.23
740.416	1137.13
740.601	1180.14
740.786	1108.46
740.972	1120.75
741.157	1096.18
741.342	1042.93
741.528	1161.71
741.713	1083.89
741.898	1130.99
742.084	1036.78
742.269	1053.17
742.454	1063.41
742.639	1100.27
742.824	1061.36
743.01	1116.65
743.195	1083.89
743.38	981.49
743.565	1012.21
743.75	995.82
743.935	942.58
744.12	1047.02
744.305	997.87
744.49	1040.88
744.675	1087.98
744.86	971.25
745.045	1110.51
745.23	1047.02
745.415	967.15
745.6	1008.11
745.785	954.87
745.97	948.72
746.155	971.25
746.34	920.05
746.525	1018.35
746.71	901.62
746.895	928.24
747.079	952.82
747.264	942.58
747.449	879.09
747.634	961.01
747.819	981.49
748.003	848.37
748.188	920.05
748.373	946.67
748.557	874.99
748.742	854.51
748.927	840.18
749.111	913.91
749.296	795.12
749.481	856.56
749.665	924.15
749.85	844.28
750.034	852.47
750.219	848.37
750.404	827.89
750.588	799.22
750.773	850.42
750.957	805.36
751.141	713.21
751.326	786.93
751.51	721.4
751.695	803.32
751.879	694.77
752.064	768.5
752.248	795.12
752.432	739.83
752.617	811.51
752.801	741.88
752.985	815.6
753.17	766.45
753.354	729.59
753.538	737.78
753.722	637.43
753.907	791.03
754.091	721.4
754.275	750.07
754.459	696.82
754.643	743.92
754.828	686.58
755.012	659.96
755.196	641.53
755.38	684.53
755.564	719.35
755.748	590.33
755.932	629.24
756.116	707.06
756.3	625.14
756.484	662.01
756.668	631.29
756.852	565.75
757.036	659.96
757.22	627.19
757.404	629.24
757.588	668.15
757.772	608.76
757.956	621.05
758.14	629.24
758.323	621.05
758.507	680.44
758.691	590.33
758.875	563.7
759.059	635.38
759.242	623.09
759.426	614.9
759.61	590.33
759.794	647.67
759.977	643.57
760.161	625.14
760.345	549.37
760.528	598.52
760.712	598.52
760.895	598.52
761.079	489.98
761.263	500.22
761.446	573.94
761.63	565.75
761.813	590.33
761.997	492.02
762.18	565.75
762.364	555.51
762.547	508.41
762.731	586.23
762.914	479.74
763.098	580.09
763.281	575.99
763.464	465.4
763.648	578.04
763.831	537.08
764.015	485.88
764.198	469.5
764.381	522.74
764.564	485.88
764.748	549.37
764.931	612.85
765.114	494.07
765.297	535.03
765.481	545.27
765.664	500.22
765.847	494.07
766.03	502.26
766.213	516.6
766.397	537.08
766.58	465.4
766.763	545.27
766.946	434.68
767.129	471.54
767.312	483.83
767.495	453.11
767.678	489.98
767.861	436.73
768.044	483.83
768.227	510.46
768.41	428.54
768.593	455.16
768.776	395.77
768.959	483.83
769.142	438.78
769.324	453.11
769.507	545.27
769.69	500.22
769.873	446.97
770.056	467.45
770.239	391.67
770.421	467.45
770.604	500.22
770.787	475.64
770.97	520.7
771.152	463.35
771.335	440.83
771.518	403.96
771.7	449.02
771.883	410.11
772.066	514.55
772.248	403.96
772.431	451.07
772.613	479.74
772.796	422.39
772.978	455.16
773.161	465.4
773.343	385.53
773.526	502.26
773.708	434.68
773.891	465.4
774.073	444.92
774.256	463.35
774.438	426.49
774.621	406.01
774.803	434.68
774.985	389.63
775.168	395.77
775.35	414.2
775.532	383.48
775.715	360.95
775.897	352.76
776.079	344.57
776.261	373.24
776.444	414.2
776.626	350.71
776.808	375.29
776.99	385.53
777.173	330.23
777.355	455.16
777.537	395.77
777.719	348.67
777.901	403.96
778.083	385.53
778.265	348.67
778.447	406.01
778.629	342.52
778.811	371.19
778.993	406.01
779.175	418.3
779.357	369.15
779.539	287.23
779.721	383.48
779.903	346.62
780.085	350.71
780.267	299.52
780.449	379.39
780.631	293.37
780.812	322.04
780.994	385.53
781.176	346.62
781.358	315.9
781.54	256.51
781.721	367.1
781.903	320
782.085	334.33
782.267	303.61
782.448	248.32
782.63	299.52
782.812	418.3
782.993	250.36
783.175	281.08
783.357	340.47
783.538	289.28
783.72	332.28
783.901	313.85
784.083	254.46
784.264	283.13
784.446	211.45
784.627	342.52
784.809	344.57
784.99	233.98
785.172	262.65
785.353	252.41
785.535	268.8
785.716	307.71
785.897	231.93
786.079	356.86
786.26	201.21
786.441	162.3
786.623	236.03
786.804	301.56
786.985	225.79
787.167	188.93
787.348	170.49
787.529	221.69
787.71	236.03
787.891	258.56
788.073	266.75
788.254	258.56
788.435	217.6
788.616	184.83
788.797	238.08
788.978	272.89
789.159	186.88
789.34	133.63
789.522	164.35
789.703	137.73
789.884	188.93
790.065	246.27
790.246	264.7
790.427	188.93
790.607	229.88
790.788	246.27
790.969	209.4
791.15	197.12
791.331	209.4
791.512	199.16
791.693	227.84
791.874	115.2
792.054	172.54
792.235	201.21
792.416	205.31
792.597	211.45
792.778	233.98
792.958	201.21
793.139	182.78
793.32	143.87
793.5	184.83
793.681	172.54
793.862	123.39
794.042	215.55
794.223	211.45
794.404	168.45
794.584	190.97
794.765	174.59
794.945	229.88
795.126	186.88
795.306	217.6
795.487	178.69
795.667	213.5
795.848	152.06
796.028	162.3
796.209	113.15
796.389	221.69
796.57	184.83
796.75	133.63
796.93	213.5
797.111	180.73
797.291	109.05
797.471	156.16
797.652	107.01
797.832	180.73
798.012	213.5
798.192	186.88
798.373	147.97
798.553	184.83
798.733	164.35
798.913	131.58
799.093	164.35
799.274	147.97
799.454	168.45
799.634	135.68
799.814	190.97
799.994	158.21
800.174	160.25
800.354	164.35
800.534	78.33
800.714	123.39
800.894	145.92
801.074	115.2
801.254	168.45
801.434	125.44
801.614	174.59
801.794	186.88
801.974	403.96
802.154	168.45
802.334	156.16
802.514	137.73
802.693	135.68
802.873	131.58
803.053	131.58
803.233	107.01
803.413	141.82
803.592	143.87
803.772	49.66
803.952	59.9
804.131	102.91
804.311	172.54
804.491	170.49
804.67	117.25
804.85	123.39
805.03	113.15
805.209	107.01
805.389	141.82
805.568	152.06
805.748	12.8
805.928	133.63
806.107	104.96
806.287	74.24
806.466	107.01
806.646	80.38
806.825	131.58
807.004	88.57
807.184	190.97
807.363	123.39
807.543	147.97
807.722	80.38
807.901	74.24
808.081	133.63
808.26	141.82
808.439	104.96
808.619	102.91
808.798	104.96
808.977	66.05
809.156	82.43
809.336	131.58
809.515	92.67
809.694	131.58
809.873	82.43
810.052	123.39
810.231	152.06
810.411	23.04
810.59	174.59
810.769	115.2
810.948	80.38
811.127	43.52
811.306	59.9
811.485	98.81
811.664	57.86
811.843	133.63
812.022	139.77
812.201	139.77
812.38	141.82
812.559	59.9
812.737	86.53
812.916	86.53
813.095	107.01
813.274	18.94
813.453	123.39
813.632	84.48
813.811	88.57
813.989	125.44
814.168	64
814.347	102.91
814.526	55.81
814.704	80.38
814.883	90.62
815.062	70.14
815.24	139.77
815.419	125.44
815.598	127.49
815.776	117.25
815.955	78.33
816.133	100.86
816.312	59.9
816.49	125.44
816.669	74.24
816.847	109.05
817.026	143.87
817.204	0.51
817.383	0.51
817.561	119.29
817.74	80.38
817.918	86.53
818.097	82.43
818.275	68.09
818.453	107.01
818.632	109.05
818.81	4.61
818.988	53.76
819.167	68.09
819.345	119.29
819.523	82.43
819.701	43.52
819.879	131.58
820.058	86.53
820.236	70.14
820.414	96.77
820.592	47.62
820.77	76.29
820.948	107.01
821.127	59.9
821.305	57.86
821.483	88.57
821.661	109.05
821.839	53.76
822.017	92.67
822.195	115.2
822.373	115.2
822.551	57.86
822.729	39.42
822.907	98.81
823.085	-1.54
823.262	127.49
823.44	82.43
823.618	109.05
823.796	96.77
823.974	57.86
824.152	66.05
824.329	64
824.507	72.19
824.685	64
824.863	10.75
825.04	131.58
825.218	0.51
825.396	-17.92
825.574	51.71
825.751	39.42
825.929	66.05
826.107	61.95
826.284	90.62
826.462	-9.73
826.639	115.2
826.817	-3.58
826.994	84.48
827.172	39.42
827.349	76.29
827.527	90.62
827.704	45.57
827.882	49.66
828.059	86.53
828.237	4.61
828.414	-9.73
828.591	14.85
828.769	49.66
828.946	131.58
829.124	45.57
829.301	111.1
829.478	53.76
829.655	84.48
829.833	61.95
830.01	78.33
830.187	18.94
830.364	12.8
830.542	35.33
830.719	141.82
830.896	51.71
831.073	74.24
831.25	-5.63
831.427	-7.68
831.604	92.67
831.782	23.04
831.959	-28.16
832.136	82.43
832.313	109.05
832.49	-13.82
832.667	74.24
832.844	39.42
833.021	76.29
833.198	84.48
833.374	66.05
833.551	49.66
833.728	35.33
833.905	49.66
834.082	59.9
834.259	25.09
834.436	53.76
834.612	8.7
834.789	23.04
834.966	18.94
835.143	18.94
835.319	47.62
835.496	-7.68
835.673	12.8
835.85	-7.68
836.026	76.29
836.203	-5.63
836.38	23.04
836.556	-3.58
836.733	41.47
836.909	49.66
837.086	6.66
837.262	92.67
837.439	66.05
837.616	-1.54
837.792	111.1
837.968	35.33
838.145	94.72
838.321	12.8
838.498	37.38
838.674	109.05
838.851	-28.16
839.027	33.28
839.203	64
839.38	25.09
839.556	-58.88
839.732	-1.54
839.909	72.19
840.085	68.09
840.261	12.8
840.437	23.04
840.614	12.8
840.79	41.47
840.966	47.62
841.142	68.09
841.318	-22.02
841.494	45.57
841.671	-1.54
841.847	57.86
842.023	-22.02
842.199	31.23
842.375	4.61
842.551	41.47
842.727	2.56
842.903	27.14
843.079	43.52
843.255	76.29
843.431	39.42
843.607	8.7
843.783	2.56
843.959	14.85
844.134	66.05
844.31	6.66
844.486	43.52
844.662	55.81
844.838	6.66
845.013	37.38
845.189	49.66
845.365	-3.58
845.541	-9.73
845.716	-7.68
845.892	23.04
846.068	-26.11
846.244	-3.58
846.419	25.09
846.595	-3.58
846.77	-5.63
846.946	109.05
847.122	57.86
847.297	-17.92
847.473	74.24
847.648	68.09
847.824	33.28
847.999	-3.58
848.175	37.38
848.35	51.71
848.526	33.28
848.701	61.95
848.876	-7.68
849.052	-28.16
849.227	70.14
849.403	16.9
849.578	8.7
849.753	-15.87
849.929	16.9
850.104	18.94
850.279	20.99
850.454	31.23
850.63	59.9
850.805	16.9
850.98	-42.5
851.155	-19.97
851.33	72.19
851.505	61.95
851.681	90.62
851.856	14.85
852.031	47.62
852.206	27.14
852.381	2.56
852.556	-11.78
852.731	-19.97
852.906	0.51
853.081	55.81
853.256	6.66
853.431	-11.78
853.606	-5.63
853.781	-30.21
853.956	-26.11
854.131	41.47
854.305	8.7
854.48	-3.58
854.655	47.62
854.83	-19.97
855.005	98.81
855.18	37.38
855.354	-3.58
855.529	-56.83
855.704	4.61
855.879	12.8
856.053	0.51
856.228	84.48
856.403	-15.87
856.577	61.95
856.752	25.09
856.926	-3.58
857.101	-13.82
857.276	-22.02
857.45	6.66
857.625	-3.58
857.799	98.81
857.974	18.94
858.148	4.61
858.323	-13.82
858.497	45.57
858.672	51.71
858.846	-13.82
859.02	10.75
859.195	-24.06
859.369	-19.97
859.543	72.19
859.718	27.14
859.892	8.7
860.066	49.66
860.241	-28.16
860.415	76.29
860.589	-58.88
860.763	43.52
860.938	2.56
861.112	-46.59
861.286	64
861.46	12.8
861.634	-48.64
861.808	70.14
861.982	31.23
862.157	-13.82
862.331	43.52
862.505	27.14
862.679	-46.59
862.853	-1.54
863.027	16.9
863.201	68.09
863.375	6.66
863.549	8.7
863.722	-9.73
863.896	2.56
864.07	-77.31
864.244	27.14
864.418	74.24
864.592	53.76
864.766	-5.63
864.939	-3.58
865.113	29.18
865.287	4.61
865.461	14.85
865.634	35.33
865.808	-26.11
865.982	18.94
866.156	-38.4
866.329	4.61
866.503	4.61
866.676	57.86
866.85	10.75
867.024	41.47
867.197	-30.21
867.371	41.47
867.544	61.95
867.718	-17.92
867.891	-17.92
868.065	-50.69
868.238	-11.78
868.412	51.71
868.585	-32.26
868.759	6.66
868.932	-5.63
869.105	-114.17
869.279	-17.92
869.452	-30.21
869.625	-15.87
869.799	45.57
869.972	-46.59
870.145	-19.97
870.319	41.47
870.492	-7.68
870.665	-32.26
870.838	14.85
871.011	-52.74
871.185	-40.45
871.358	12.8
871.531	-56.83
871.704	74.24
871.877	25.09
872.05	14.85
872.223	43.52
872.396	-3.58
872.569	35.33
872.742	-38.4
872.915	47.62
873.088	-9.73
873.261	33.28
873.434	39.42
873.607	-7.68
873.78	25.09
873.953	-36.35
874.126	-40.45
874.299	29.18
874.471	-19.97
874.644	-40.45
874.817	64
874.99	4.61
875.163	-3.58
875.335	76.29
875.508	-1.54
875.681	2.56
875.853	-71.17
876.026	29.18
876.199	-36.35
876.371	6.66
876.544	-24.06
876.717	-1.54
876.889	-58.88
877.062	20.99
877.234	14.85
877.407	-3.58
877.579	-24.06
877.752	35.33
877.924	14.85
878.097	4.61
878.269	4.61
878.442	86.53
878.614	-19.97
878.786	8.7
878.959	-34.3
879.131	-3.58
879.303	-46.59
879.476	-7.68
879.648	16.9
879.82	47.62
879.993	-22.02
880.165	0.51
880.337	-42.5
880.509	33.28
880.681	41.47
880.854	2.56
881.026	68.09
881.198	10.75
881.37	-7.68
881.542	25.09
881.714	-3.58
881.886	4.61
882.058	-1.54
882.23	16.9
882.402	-48.64
882.574	25.09
882.746	33.28
882.918	12.8
883.09	12.8
883.262	-26.11
883.434	29.18
883.606	61.95
883.778	-5.63
883.95	45.57
884.122	-40.45
884.293	47.62
884.465	51.71
884.637	2.56
884.809	-69.12
884.98	-81.41
885.152	14.85
885.324	25.09
885.496	-7.68
885.667	-44.54
885.839	18.94
886.011	98.81
886.182	-17.92
886.354	59.9
886.525	-30.21
886.697	16.9
886.869	23.04
887.04	-11.78
887.212	-15.87
887.383	-30.21
887.555	25.09
887.726	-3.58
887.897	39.42
888.069	8.7
888.24	2.56
888.412	0.51
888.583	51.71
888.754	51.71
888.926	-95.74
889.097	14.85
889.268	53.76
889.44	45.57
889.611	-71.17
889.782	37.38
889.953	-79.36
890.125	-32.26
890.296	-7.68
890.467	8.7
890.638	100.86
890.809	-30.21
890.98	-85.5
891.151	8.7
891.323	-54.78
891.494	-38.4
891.665	12.8
891.836	68.09
892.007	12.8
892.178	14.85
892.349	-69.12
892.52	-28.16
892.691	41.47
892.862	16.9
893.032	-32.26
893.203	-11.78
893.374	-22.02
893.545	55.81
893.716	33.28
893.887	82.43
894.057	-3.58
894.228	16.9
894.399	23.04
894.57	-32.26
894.74	-7.68
894.911	18.94
895.082	-1.54
895.253	-30.21
895.423	-7.68
895.594	18.94
895.764	-56.83
895.935	16.9
896.106	-19.97
896.276	-48.64
896.447	-24.06
896.617	-56.83
896.788	20.99
896.958	-38.4
897.129	0.51
897.299	-32.26
897.47	41.47
897.64	-17.92
897.81	-15.87
897.981	2.56
898.151	16.9
898.322	-40.45
898.492	-7.68
898.662	-15.87
898.832	16.9
899.003	18.94
899.173	-26.11
899.343	39.42
899.513	-89.6
