Data from USB4F104151__39__13-53-14-019.txt Node

Date: Thu Mar 13 13:53:14 EDT 2025
User: louis
Spectrometer: USB4F10415
Trigger mode: 4
Integration Time (sec): 1.000000E-2
Scans to average: 1
Electric dark correction enabled: true
Nonlinearity correction enabled: false
Boxcar width: 0
XAxis mode: Wavelengths
Number of Pixels in Spectrum: 3648
>>>>>Begin Spectral Data<<<<<
178.204	-34.64
178.424	-34.64
178.644	-34.64
178.864	-32.6
179.084	-85.84
179.304	-8.02
179.524	-16.21
179.744	61.61
179.964	-10.07
180.184	-40.79
180.404	10.41
180.624	-3.93
180.844	-69.46
181.064	41.13
181.283	34.99
181.503	4.27
181.723	-3.93
181.943	34.99
182.163	2.22
182.383	45.23
182.602	-42.84
182.822	45.23
183.042	41.13
183.262	8.36
183.482	51.37
183.701	24.75
183.921	2.22
184.141	-48.98
184.361	0.17
184.58	12.46
184.8	71.85
185.02	8.36
185.239	18.6
185.459	-69.46
185.679	-20.31
185.898	-5.97
186.118	63.66
186.338	26.79
186.557	4.27
186.777	51.37
186.997	16.55
187.216	-5.97
187.436	77.99
187.655	-30.55
187.875	73.9
188.095	-1.88
188.314	75.95
188.534	108.71
188.753	49.32
188.973	-28.5
189.192	20.65
189.412	37.03
189.631	8.36
189.851	4.27
190.07	12.46
190.29	26.79
190.509	75.95
190.729	32.94
190.948	75.95
191.168	73.9
191.387	80.04
191.607	32.94
191.826	2.22
192.045	24.75
192.265	22.7
192.484	22.7
192.704	-12.12
192.923	24.75
193.142	65.71
193.362	-36.69
193.581	30.89
193.8	37.03
194.02	51.37
194.239	2.22
194.458	86.19
194.678	16.55
194.897	-63.32
195.116	-14.17
195.335	67.75
195.555	45.23
195.774	45.23
195.993	53.42
196.212	49.32
196.432	32.94
196.651	-12.12
196.87	77.99
197.089	80.04
197.308	26.79
197.528	-5.97
197.747	41.13
197.966	57.51
198.185	30.89
198.404	26.79
198.623	80.04
198.842	34.99
199.062	-65.36
199.281	39.08
199.5	32.94
199.719	71.85
199.938	43.18
200.157	65.71
200.376	14.51
200.595	43.18
200.814	22.7
201.033	41.13
201.252	18.6
201.471	73.9
201.69	84.14
201.909	71.85
202.128	71.85
202.347	-8.02
202.566	20.65
202.785	4.27
203.004	-3.93
203.223	24.75
203.442	73.9
203.661	57.51
203.879	-10.07
204.098	106.67
204.317	34.99
204.536	51.37
204.755	24.75
204.974	32.94
205.193	55.47
205.411	67.75
205.63	43.18
205.849	32.94
206.068	-20.31
206.287	22.7
206.505	59.56
206.724	28.84
206.943	26.79
207.162	12.46
207.381	-18.26
207.599	8.36
207.818	28.84
208.037	88.23
208.255	-10.07
208.474	43.18
208.693	0.17
208.911	-12.12
209.13	-26.45
209.349	-20.31
209.567	57.51
209.786	41.13
210.005	-14.17
210.223	49.32
210.442	2.22
210.661	61.61
210.879	37.03
211.098	37.03
211.316	26.79
211.535	51.37
211.753	71.85
211.972	34.99
212.191	22.7
212.409	6.31
212.628	-18.26
212.846	-46.93
213.065	-14.17
213.283	20.65
213.502	-30.55
213.72	8.36
213.938	12.46
214.157	69.8
214.375	22.7
214.594	-18.26
214.812	20.65
215.031	53.42
215.249	24.75
215.467	102.57
215.686	49.32
215.904	155.82
216.122	16.55
216.341	53.42
216.559	16.55
216.778	47.27
216.996	75.95
217.214	0.17
217.432	-24.4
217.651	4.27
217.869	16.55
218.087	16.55
218.306	-26.45
218.524	80.04
218.742	-20.31
218.96	16.55
219.179	10.41
219.397	47.27
219.615	63.66
219.833	-5.97
220.051	32.94
220.27	10.41
220.488	84.14
220.706	65.71
220.924	2.22
221.142	-16.21
221.36	45.23
221.578	0.17
221.796	63.66
222.015	84.14
222.233	-20.31
222.451	20.65
222.669	4.27
222.887	37.03
223.105	55.47
223.323	-44.88
223.541	-5.97
223.759	45.23
223.977	-67.41
224.195	4.27
224.413	18.6
224.631	-28.5
224.849	20.65
225.067	10.41
225.285	-22.36
225.503	34.99
225.721	-18.26
225.939	24.75
226.157	20.65
226.375	96.43
226.592	-28.5
226.81	16.55
227.028	-24.4
227.246	41.13
227.464	20.65
227.682	-46.93
227.9	53.42
228.117	82.09
228.335	18.6
228.553	65.71
228.771	30.89
228.989	-5.97
229.206	-38.74
229.424	63.66
229.642	73.9
229.86	0.17
230.077	20.65
230.295	-12.12
230.513	45.23
230.731	34.99
230.948	4.27
231.166	-16.21
231.384	10.41
231.601	96.43
231.819	69.8
232.037	53.42
232.254	-57.17
232.472	51.37
232.689	-20.31
232.907	20.65
233.125	57.51
233.342	10.41
233.56	43.18
233.777	32.94
233.995	30.89
234.213	34.99
234.43	57.51
234.648	24.75
234.865	12.46
235.083	49.32
235.3	47.27
235.518	41.13
235.735	57.51
235.953	84.14
236.17	-44.88
236.388	16.55
236.605	-5.97
236.822	-10.07
237.04	30.89
237.257	0.17
237.475	-32.6
237.692	-12.12
237.909	77.99
238.127	77.99
238.344	12.46
238.562	12.46
238.779	-30.55
238.996	14.51
239.214	26.79
239.431	10.41
239.648	-14.17
239.865	-3.93
240.083	28.84
240.3	-12.12
240.517	55.47
240.735	28.84
240.952	59.56
241.169	0.17
241.386	14.51
241.603	12.46
241.821	-55.12
242.038	16.55
242.255	49.32
242.472	-8.02
242.689	-3.93
242.907	45.23
243.124	-16.21
243.341	34.99
243.558	34.99
243.775	67.75
243.992	77.99
244.209	53.42
244.426	4.27
244.643	45.23
244.86	-8.02
245.078	98.47
245.295	32.94
245.512	30.89
245.729	-8.02
245.946	43.18
246.163	41.13
246.38	94.38
246.597	43.18
246.814	2.22
247.031	61.61
247.248	34.99
247.464	61.61
247.681	61.61
247.898	8.36
248.115	30.89
248.332	-44.88
248.549	32.94
248.766	71.85
248.983	12.46
249.2	-24.4
249.417	47.27
249.633	30.89
249.85	61.61
250.067	47.27
250.284	10.41
250.501	18.6
250.717	139.43
250.934	2.22
251.151	-1.88
251.368	-44.88
251.585	4.27
251.801	-59.22
252.018	80.04
252.235	104.62
252.451	39.08
252.668	45.23
252.885	57.51
253.102	71.85
253.318	-32.6
253.535	6.31
253.752	47.27
253.968	63.66
254.185	24.75
254.401	-34.64
254.618	63.66
254.835	0.17
255.051	77.99
255.268	59.56
255.484	55.47
255.701	73.9
255.917	30.89
256.134	39.08
256.351	34.99
256.567	63.66
256.784	-14.17
257	6.31
257.217	14.51
257.433	39.08
257.65	12.46
257.866	20.65
258.082	26.79
258.299	-1.88
258.515	24.75
258.732	82.09
258.948	45.23
259.165	-61.27
259.381	63.66
259.597	12.46
259.814	24.75
260.03	-10.07
260.246	28.84
260.463	2.22
260.679	12.46
260.895	-16.21
261.112	24.75
261.328	32.94
261.544	-5.97
261.761	65.71
261.977	6.31
262.193	-5.97
262.409	-18.26
262.626	6.31
262.842	65.71
263.058	-32.6
263.274	45.23
263.49	30.89
263.707	37.03
263.923	39.08
264.139	39.08
264.355	-38.74
264.571	75.95
264.787	47.27
265.004	14.51
265.22	77.99
265.436	37.03
265.652	71.85
265.868	30.89
266.084	20.65
266.3	63.66
266.516	-14.17
266.732	-46.93
266.948	12.46
267.164	-10.07
267.38	4.27
267.596	0.17
267.812	51.37
268.028	22.7
268.244	-10.07
268.46	-12.12
268.676	4.27
268.892	-48.98
269.108	49.32
269.324	73.9
269.54	51.37
269.756	2.22
269.972	-8.02
270.188	-8.02
270.403	108.71
270.619	-36.69
270.835	-12.12
271.051	114.86
271.267	-16.21
271.483	45.23
271.698	39.08
271.914	-14.17
272.13	6.31
272.346	24.75
272.562	63.66
272.777	43.18
272.993	30.89
273.209	16.55
273.425	73.9
273.64	-14.17
273.856	22.7
274.072	53.42
274.287	67.75
274.503	37.03
274.719	43.18
274.934	18.6
275.15	37.03
275.366	2.22
275.581	45.23
275.797	43.18
276.012	-26.45
276.228	-22.36
276.444	14.51
276.659	73.9
276.875	-12.12
277.09	-20.31
277.306	34.99
277.521	10.41
277.737	114.86
277.952	34.99
278.168	-44.88
278.383	67.75
278.599	30.89
278.814	-1.88
279.03	18.6
279.245	26.79
279.461	-5.97
279.676	49.32
279.892	20.65
280.107	26.79
280.322	84.14
280.538	49.32
280.753	65.71
280.969	24.75
281.184	12.46
281.399	41.13
281.615	12.46
281.83	102.57
282.045	41.13
282.26	18.6
282.476	59.56
282.691	59.56
282.906	45.23
283.122	55.47
283.337	32.94
283.552	73.9
283.767	41.13
283.983	41.13
284.198	41.13
284.413	30.89
284.628	6.31
284.843	4.27
285.058	32.94
285.274	73.9
285.489	30.89
285.704	-18.26
285.919	20.65
286.134	80.04
286.349	53.42
286.564	-65.36
286.779	20.65
286.995	55.47
287.21	-46.93
287.425	8.36
287.64	14.51
287.855	-24.4
288.07	18.6
288.285	2.22
288.5	65.71
288.715	32.94
288.93	20.65
289.145	28.84
289.36	18.6
289.575	43.18
289.79	39.08
290.004	80.04
290.219	8.36
290.434	80.04
290.649	18.6
290.864	47.27
291.079	30.89
291.294	49.32
291.509	-3.93
291.724	94.38
291.938	37.03
292.153	39.08
292.368	16.55
292.583	28.84
292.798	100.52
293.012	116.9
293.227	-20.31
293.442	-46.93
293.657	41.13
293.871	59.56
294.086	-26.45
294.301	-5.97
294.516	-1.88
294.73	20.65
294.945	34.99
295.16	32.94
295.374	34.99
295.589	77.99
295.804	180.39
296.018	80.04
296.233	30.89
296.447	30.89
296.662	-12.12
296.877	57.51
297.091	-46.93
297.306	53.42
297.52	14.51
297.735	37.03
297.949	-22.36
298.164	47.27
298.378	53.42
298.593	37.03
298.807	8.36
299.022	20.65
299.236	14.51
299.451	30.89
299.665	45.23
299.88	49.32
300.094	39.08
300.309	18.6
300.523	-10.07
300.737	75.95
300.952	47.27
301.166	30.89
301.381	-22.36
301.595	49.32
301.809	-5.97
302.024	-10.07
302.238	45.23
302.452	41.13
302.667	8.36
302.881	84.14
303.095	77.99
303.309	-14.17
303.524	-30.55
303.738	98.47
303.952	32.94
304.166	-5.97
304.381	-24.4
304.595	28.84
304.809	88.23
305.023	53.42
305.237	-24.4
305.452	47.27
305.666	4.27
305.88	16.55
306.094	8.36
306.308	32.94
306.522	61.61
306.736	53.42
306.95	30.89
307.164	14.51
307.379	26.79
307.593	51.37
307.807	55.47
308.021	22.7
308.235	10.41
308.449	-24.4
308.663	71.85
308.877	0.17
309.091	77.99
309.305	-18.26
309.519	-1.88
309.733	75.95
309.947	-14.17
310.161	43.18
310.374	67.75
310.588	75.95
310.802	18.6
311.016	-28.5
311.23	-16.21
311.444	80.04
311.658	12.46
311.872	12.46
312.085	75.95
312.299	73.9
312.513	51.37
312.727	-10.07
312.941	14.51
313.154	80.04
313.368	80.04
313.582	-65.36
313.796	28.84
314.009	-1.88
314.223	51.37
314.437	96.43
314.651	30.89
314.864	57.51
315.078	4.27
315.292	20.65
315.505	-24.4
315.719	45.23
315.933	100.52
316.146	-34.64
316.36	-16.21
316.573	108.71
316.787	43.18
317.001	-3.93
317.214	-12.12
317.428	4.27
317.641	-3.93
317.855	-48.98
318.068	51.37
318.282	51.37
318.495	75.95
318.709	41.13
318.922	22.7
319.136	73.9
319.349	24.75
319.563	63.66
319.776	123.05
319.99	-18.26
320.203	102.57
320.417	47.27
320.63	43.18
320.843	18.6
321.057	51.37
321.27	65.71
321.483	22.7
321.697	80.04
321.91	-20.31
322.124	43.18
322.337	37.03
322.55	53.42
322.763	86.19
322.977	43.18
323.19	63.66
323.403	77.99
323.617	47.27
323.83	26.79
324.043	-18.26
324.256	67.75
324.469	96.43
324.683	37.03
324.896	30.89
325.109	90.28
325.322	39.08
325.535	18.6
325.748	4.27
325.962	8.36
326.175	20.65
326.388	53.42
326.601	-18.26
326.814	2.22
327.027	18.6
327.24	-42.84
327.453	0.17
327.666	10.41
327.879	-5.97
328.092	22.7
328.305	30.89
328.518	71.85
328.731	61.61
328.944	108.71
329.157	14.51
329.37	22.7
329.583	-1.88
329.796	12.46
330.009	41.13
330.222	106.67
330.435	30.89
330.648	37.03
330.861	67.75
331.073	75.95
331.286	49.32
331.499	102.57
331.712	73.9
331.925	39.08
332.138	22.7
332.35	69.8
332.563	-14.17
332.776	32.94
332.989	65.71
333.202	34.99
333.414	2.22
333.627	59.56
333.84	-14.17
334.053	123.05
334.265	34.99
334.478	22.7
334.691	102.57
334.903	47.27
335.116	61.61
335.329	34.99
335.541	30.89
335.754	41.13
335.966	34.99
336.179	41.13
336.392	-38.74
336.604	67.75
336.817	71.85
337.029	88.23
337.242	86.19
337.454	-1.88
337.667	34.99
337.88	65.71
338.092	34.99
338.305	24.75
338.517	-55.12
338.729	84.14
338.942	22.7
339.154	-16.21
339.367	65.71
339.579	22.7
339.792	-51.03
340.004	49.32
340.217	53.42
340.429	28.84
340.641	6.31
340.854	-5.97
341.066	22.7
341.278	20.65
341.491	57.51
341.703	-1.88
341.915	22.7
342.128	41.13
342.34	14.51
342.552	61.61
342.764	24.75
342.977	24.75
343.189	57.51
343.401	37.03
343.613	69.8
343.826	73.9
344.038	14.51
344.25	43.18
344.462	47.27
344.674	37.03
344.886	49.32
345.099	92.33
345.311	12.46
345.523	16.55
345.735	49.32
345.947	96.43
346.159	77.99
346.371	121
346.583	37.03
346.795	67.75
347.007	-12.12
347.219	26.79
347.431	22.7
347.643	84.14
347.855	6.31
348.067	51.37
348.279	55.47
348.491	-3.93
348.703	6.31
348.915	-14.17
349.127	4.27
349.339	55.47
349.551	12.46
349.763	67.75
349.975	41.13
350.187	41.13
350.399	63.66
350.61	90.28
350.822	18.6
351.034	82.09
351.246	104.62
351.458	43.18
351.669	53.42
351.881	71.85
352.093	90.28
352.305	43.18
352.517	34.99
352.728	-16.21
352.94	22.7
353.152	47.27
353.363	10.41
353.575	10.41
353.787	32.94
353.999	8.36
354.21	6.31
354.422	24.75
354.633	51.37
354.845	51.37
355.057	22.7
355.268	18.6
355.48	41.13
355.692	82.09
355.903	82.09
356.115	-57.17
356.326	55.47
356.538	37.03
356.749	45.23
356.961	82.09
357.172	18.6
357.384	90.28
357.595	-1.88
357.807	-10.07
358.018	10.41
358.23	106.67
358.441	65.71
358.653	41.13
358.864	-8.02
359.075	-26.45
359.287	0.17
359.498	75.95
359.709	-36.69
359.921	84.14
360.132	53.42
360.344	14.51
360.555	82.09
360.766	75.95
360.977	34.99
361.189	37.03
361.4	123.05
361.611	47.27
361.823	37.03
362.034	12.46
362.245	73.9
362.456	49.32
362.667	43.18
362.879	67.75
363.09	61.61
363.301	92.33
363.512	4.27
363.723	-5.97
363.935	59.56
364.146	-24.4
364.357	51.37
364.568	18.6
364.779	0.17
364.99	28.84
365.201	39.08
365.412	-32.6
365.623	37.03
365.834	43.18
366.045	82.09
366.256	55.47
366.467	59.56
366.678	73.9
366.889	8.36
367.1	45.23
367.311	10.41
367.522	37.03
367.733	26.79
367.944	-14.17
368.155	-51.03
368.366	6.31
368.577	49.32
368.788	139.43
368.999	10.41
369.209	2.22
369.42	53.42
369.631	102.57
369.842	53.42
370.053	-36.69
370.264	-5.97
370.474	12.46
370.685	-12.12
370.896	-32.6
371.107	71.85
371.317	110.76
371.528	69.8
371.739	100.52
371.95	45.23
372.16	-14.17
372.371	69.8
372.582	41.13
372.792	2.22
373.003	65.71
373.214	-14.17
373.424	51.37
373.635	30.89
373.846	41.13
374.056	-3.93
374.267	53.42
374.477	28.84
374.688	71.85
374.898	-26.45
375.109	45.23
375.319	57.51
375.53	6.31
375.74	53.42
375.951	116.9
376.161	63.66
376.372	22.7
376.582	47.27
376.793	39.08
377.003	184.49
377.214	8.36
377.424	10.41
377.635	-14.17
377.845	18.6
378.055	30.89
378.266	121
378.476	28.84
378.686	14.51
378.897	26.79
379.107	16.55
379.317	51.37
379.528	6.31
379.738	71.85
379.948	55.47
380.158	102.57
380.369	8.36
380.579	8.36
380.789	51.37
380.999	110.76
381.21	8.36
381.42	164.01
381.63	61.61
381.84	20.65
382.05	77.99
382.261	61.61
382.471	77.99
382.681	30.89
382.891	8.36
383.101	69.8
383.311	45.23
383.521	16.55
383.731	39.08
383.941	65.71
384.151	57.51
384.361	98.47
384.571	12.46
384.781	84.14
384.991	37.03
385.201	96.43
385.411	34.99
385.621	59.56
385.831	39.08
386.041	41.13
386.251	94.38
386.461	127.14
386.671	39.08
386.881	-3.93
387.091	41.13
387.301	137.38
387.511	61.61
387.72	18.6
387.93	45.23
388.14	-22.36
388.35	55.47
388.56	67.75
388.769	51.37
388.979	71.85
389.189	22.7
389.399	30.89
389.609	71.85
389.818	73.9
390.028	82.09
390.238	75.95
390.447	30.89
390.657	51.37
390.867	53.42
391.076	-36.69
391.286	32.94
391.496	10.41
391.705	110.76
391.915	127.14
392.125	123.05
392.334	41.13
392.544	61.61
392.753	28.84
392.963	53.42
393.172	24.75
393.382	43.18
393.591	82.09
393.801	-18.26
394.01	69.8
394.22	18.6
394.429	172.2
394.639	63.66
394.848	32.94
395.058	77.99
395.267	-20.31
395.477	57.51
395.686	96.43
395.895	77.99
396.105	80.04
396.314	90.28
396.524	55.47
396.733	98.47
396.942	51.37
397.152	43.18
397.361	139.43
397.57	96.43
397.78	26.79
397.989	65.71
398.198	131.24
398.407	92.33
398.617	102.57
398.826	100.52
399.035	155.82
399.244	96.43
399.453	112.81
399.663	55.47
399.872	145.58
400.081	75.95
400.29	100.52
400.499	86.19
400.708	196.78
400.917	63.66
401.127	59.56
401.336	30.89
401.545	47.27
401.754	149.67
401.963	114.86
402.172	94.38
402.381	41.13
402.59	129.19
402.799	90.28
403.008	135.34
403.217	118.95
403.426	49.32
403.635	67.75
403.844	67.75
404.053	75.95
404.262	82.09
404.471	157.86
404.68	63.66
404.888	45.23
405.097	145.58
405.306	75.95
405.515	86.19
405.724	143.53
405.933	77.99
406.142	34.99
406.35	145.58
406.559	153.77
406.768	96.43
406.977	188.58
407.185	82.09
407.394	151.72
407.603	94.38
407.812	141.48
408.02	116.9
408.229	147.62
408.438	151.72
408.646	147.62
408.855	200.87
409.064	159.91
409.272	125.1
409.481	166.06
409.69	243.88
409.898	233.64
410.107	143.53
410.315	268.45
410.524	276.65
410.733	186.54
410.941	241.83
411.15	282.79
411.358	268.45
411.567	286.89
411.775	325.8
411.984	264.36
412.192	245.93
412.401	290.98
412.609	299.17
412.818	377
413.026	358.57
413.234	354.47
413.443	403.62
413.651	391.33
413.86	385.19
414.068	385.19
414.276	374.95
414.485	391.33
414.693	432.29
414.901	460.96
415.11	491.68
415.318	503.97
415.526	420
415.734	501.92
415.943	518.31
416.151	579.75
416.359	528.55
416.567	655.52
416.776	604.32
416.984	637.09
417.192	643.23
417.4	733.34
417.608	686.24
417.817	764.06
418.025	747.68
418.233	800.93
418.441	788.64
418.649	751.78
418.857	858.27
419.065	886.94
419.273	796.83
419.481	1011.87
419.689	999.58
419.897	1073.31
420.105	999.58
420.313	1101.98
420.521	1110.17
420.729	1085.59
420.937	1251.48
421.145	1120.41
421.353	1278.1
421.561	1321.11
421.769	1349.78
421.977	1415.32
422.185	1325.21
422.393	1509.52
422.601	1474.71
422.809	1595.54
423.017	1585.3
423.224	1624.21
423.432	1652.88
423.64	1661.07
423.848	1792.14
424.056	1820.81
424.263	1955.98
424.471	1945.74
424.679	2068.62
424.887	2062.48
425.094	2148.49
425.302	2115.72
425.51	2181.26
425.718	2291.85
425.925	2365.57
426.133	2359.43
426.341	2584.71
426.548	2605.19
426.756	2736.26
426.964	2779.26
427.171	2842.75
427.379	2975.87
427.586	3006.59
427.794	3076.22
428.001	3125.37
428.209	3278.97
428.417	3217.53
428.624	3403.89
428.832	3569.78
429.039	3502.2
429.247	3541.11
429.454	3901.55
429.662	4159.6
429.869	3897.46
430.076	4108.4
430.284	3922.03
430.491	4100.2
430.699	4458.6
430.906	4401.26
431.114	4481.13
431.321	4593.76
431.528	4722.79
431.736	4894.82
431.943	5277.79
432.15	5058.65
432.358	5101.66
432.565	5466.2
432.772	5388.38
432.979	5501.01
433.187	5677.14
433.394	5730.39
433.601	6031.44
433.808	6088.78
434.016	6187.08
434.223	6414.41
434.43	6803.52
434.637	6627.4
434.844	7026.75
435.052	7161.92
435.259	7096.38
435.466	7286.84
435.673	7071.81
435.88	7520.31
436.087	8040.5
436.294	8173.61
436.501	7702.58
436.708	8001.58
436.915	8386.6
437.122	8810.53
437.329	8646.69
437.537	8835.11
437.743	9127.97
437.95	8880.16
438.157	9453.59
438.364	10045.46
438.571	9783.32
438.778	9820.18
438.985	10661.9
439.192	10346.51
439.399	10543.11
439.606	10440.72
439.813	10938.37
440.02	11448.32
440.227	11380.73
440.433	11132.93
440.64	11669.5
440.847	11630.59
441.054	11847.67
441.261	12431.34
441.467	12535.79
441.674	12701.67
441.881	13129.7
442.088	13180.9
442.294	12984.29
442.501	13432.8
442.708	13350.88
442.914	13948.89
443.121	14817.22
443.328	14266.32
443.534	15384.51
443.741	15075.27
443.948	14852.04
444.154	16000.95
444.361	15701.95
444.568	15857.59
444.774	15855.54
444.981	16308.15
445.187	16664.49
445.394	17131.43
445.6	17067.94
445.807	18716.56
446.013	17764.25
446.22	18208.66
446.426	18794.38
446.633	19109.77
446.839	19621.76
447.046	18939.79
447.252	19810.17
447.459	19933.05
447.665	20045.69
447.871	20567.92
448.078	21340.01
448.284	20772.72
448.491	20920.17
448.697	21753.69
448.903	22151
449.11	22257.5
449.316	21788.51
449.522	22093.66
449.728	23023.44
449.935	23256.9
450.141	23150.41
450.347	23746.37
450.553	22808.4
450.76	22941.52
450.966	23820.1
451.172	23711.55
451.378	24215.35
451.584	23781.18
451.791	24440.63
451.997	24348.47
452.203	24762.16
452.409	24385.33
452.615	24262.46
452.821	23506.76
453.027	23166.79
453.233	24659.76
453.44	23402.31
453.646	23668.55
453.852	24039.23
454.058	24123.19
454.264	23736.13
454.47	24096.57
454.676	23142.22
454.882	24203.07
455.088	22007.64
455.294	22282.07
455.5	22533.97
455.705	22755.15
455.911	22060.89
456.117	21667.68
456.323	21186.41
456.529	19863.42
456.735	20942.7
456.941	20217.72
457.147	19943.29
457.352	19492.74
457.558	19189.64
457.764	19128.2
457.97	18941.83
458.176	18204.56
458.381	18616.21
458.587	17295.27
458.793	17713.05
458.999	16992.17
459.204	18018.2
459.41	17442.72
459.616	16209.84
459.821	16158.64
460.027	16084.92
460.233	16125.88
460.438	14995.4
460.644	15192
460.85	14292.94
461.055	14456.78
461.261	14127.06
461.466	13080.55
461.672	12763.11
461.878	13719.51
462.083	12785.64
462.289	12537.84
462.494	12451.82
462.7	11806.71
462.905	11638.78
463.111	12007.41
463.316	12122.1
463.522	11716.6
463.727	11902.97
463.932	11874.29
464.138	11667.45
464.343	11644.92
464.549	11182.08
464.754	11681.78
464.959	11847.67
465.165	11632.63
465.37	11075.59
465.575	10944.52
465.781	11327.49
465.986	11264
466.191	10747.91
466.397	10854.41
466.602	10395.66
466.807	10555.4
467.012	10559.5
467.218	10418.19
467.423	10305.55
467.628	10438.67
467.833	10956.8
468.038	10422.28
468.244	10164.24
468.449	10659.85
468.654	10135.57
468.859	10080.27
469.064	10174.48
469.269	9816.08
469.474	9650.2
469.679	9908.24
469.885	9617.43
470.09	9801.75
470.295	9734.17
470.5	9424.92
470.705	9373.72
470.91	9457.69
471.115	9232.41
471.32	9279.52
471.525	9343
471.73	9084.96
471.935	9076.77
472.139	8910.88
472.344	8884.26
472.549	8820.77
472.754	8589.35
472.959	8591.4
473.164	8247.34
473.369	8134.7
473.574	8534.06
473.778	8554.54
473.983	8304.68
474.188	8120.37
474.393	8009.78
474.598	7948.34
474.802	7917.62
475.007	7788.6
475.212	7786.55
475.417	7516.22
475.621	7702.58
475.826	7559.22
476.031	7469.11
476.235	7198.78
476.44	7403.58
476.645	7262.27
476.849	7282.75
477.054	7178.3
477.259	7067.71
477.463	7051.33
477.668	6733.89
477.872	6948.93
478.077	6932.54
478.282	6950.98
478.486	6672.45
478.691	6684.74
478.895	6522.95
479.1	6584.39
479.304	6531.14
479.509	6445.13
479.713	6455.37
479.918	6461.51
480.122	6301.77
480.326	6266.96
480.531	6416.46
480.735	6264.91
480.94	6238.28
481.144	6531.14
481.348	6086.73
481.553	6131.79
481.757	5998.67
481.961	6113.36
482.166	6371.4
482.37	6230.09
482.574	6203.47
482.778	6146.12
482.983	6307.91
483.187	6013.01
483.391	6174.8
483.595	6041.68
483.8	6000.72
484.004	6086.73
484.208	6174.8
484.412	6185.04
484.616	6139.98
484.821	6223.95
485.025	6027.34
485.229	6269
485.433	5998.67
485.637	6092.88
485.841	6142.03
486.045	6047.82
486.249	6080.59
486.453	6121.55
486.657	6045.77
486.861	6221.9
487.065	5877.84
487.269	5974.1
487.473	5945.42
487.677	6103.12
487.881	6056.01
488.085	6013.01
488.289	6226
488.493	5970
488.697	6164.56
488.901	6086.73
489.105	6207.56
489.309	6207.56
489.512	6226
489.716	6078.54
489.92	6150.22
490.124	6199.37
490.328	6332.49
490.531	6209.61
490.735	6334.54
490.939	6252.62
491.143	6271.05
491.346	6330.44
491.55	6393.93
491.754	6291.53
491.958	6453.32
492.161	6344.78
492.365	6269
492.569	6379.59
492.772	6357.07
492.976	6563.91
493.18	6561.86
493.383	6453.32
493.587	6463.56
493.79	6807.62
493.994	6746.18
494.197	6809.67
494.401	6862.91
494.605	6748.23
494.808	6836.29
495.012	6928.45
495.215	6961.22
495.419	6934.59
495.622	6983.74
495.825	7143.49
496.029	7166.01
496.232	7186.49
496.436	7444.54
496.639	7235.64
496.843	7370.81
497.046	7598.13
497.249	7639.09
497.453	7807.03
497.656	7798.84
497.859	7786.55
498.063	8093.74
498.266	7983.15
498.469	7811.12
498.673	8337.45
498.876	8177.71
499.079	8306.73
499.282	8376.36
499.485	8394.79
499.689	8628.26
499.892	8620.07
500.095	9017.38
500.298	8871.97
500.501	8820.77
500.705	9318.43
500.908	9334.81
501.111	9343
501.314	9379.87
501.517	9623.58
501.72	9576.47
501.923	9596.95
502.126	9910.29
502.329	9994.26
502.532	10197.01
502.735	10219.53
502.938	10418.19
503.141	10321.93
503.344	10690.57
503.547	10500.11
503.75	10665.99
503.953	10739.72
504.156	10958.85
504.359	11055.11
504.562	11206.66
504.765	11479.04
504.968	11593.72
505.17	11601.91
505.373	11857.91
505.576	12177.39
505.779	12140.53
505.982	12281.84
506.185	12556.27
506.387	12593.13
506.59	12691.43
506.793	12996.58
506.996	13080.55
507.198	13008.87
507.401	13271.01
507.604	13266.91
507.807	13633.5
508.009	13774.81
508.212	13791.19
508.415	14039
508.617	14039
508.82	14338
509.022	14434.25
509.225	14579.66
509.428	14763.98
509.63	15097.8
509.833	15136.71
510.035	15353.79
510.238	15585.21
510.44	15525.82
510.643	16025.53
510.845	16193.46
511.048	15951.8
511.25	16506.8
511.453	16461.74
511.655	17063.85
511.858	17106.85
512.06	16969.64
512.262	17147.81
512.465	17262.5
512.667	17516.45
512.87	17717.15
513.072	17985.43
513.274	18323.35
513.477	18610.06
513.679	18923.4
513.881	18864.01
514.084	19169.16
514.286	19206.02
514.488	19208.07
514.69	19892.09
514.893	19847.04
515.095	19949.43
515.297	20408.18
515.499	20225.91
515.701	20483.95
515.904	20911.98
516.106	20938.6
516.308	21264.23
516.51	21657.44
516.712	21315.43
516.914	21976.92
517.116	22431.57
517.318	22507.35
517.52	22531.92
517.722	22818.64
517.925	22902.61
518.127	23062.35
518.329	23680.83
518.531	23428.93
518.733	24018.75
518.935	24131.39
519.136	24510.26
519.338	24760.11
519.54	24897.33
519.742	24999.73
519.944	25288.49
520.146	25554.72
520.348	25765.67
520.55	25810.72
520.752	26115.87
520.954	26558.23
521.155	26509.08
521.357	27244.3
521.559	27535.11
521.761	27774.72
521.963	27352.84
522.164	27703.04
522.366	27852.55
522.568	28182.27
522.77	28235.52
522.971	28618.49
523.173	28522.23
523.375	29110
523.576	28860.15
523.778	29292.27
523.98	29390.57
524.181	29341.42
524.383	29765.35
524.584	30187.23
524.786	30410.46
524.988	30394.07
525.189	30574.3
525.391	30695.13
525.592	30754.52
525.794	31166.16
525.995	31004.37
526.197	31311.56
526.398	31252.17
526.6	31254.22
526.801	31751.88
527.003	31661.77
527.204	31866.56
527.406	32519.87
527.607	32208.58
527.808	32399.04
528.01	31925.96
528.211	32665.27
528.412	33167.02
528.614	32689.85
528.815	32843.45
529.016	33056.43
529.218	32913.08
529.419	33136.31
529.62	33275.57
529.822	33230.51
530.023	33513.13
530.224	33566.38
530.425	33566.38
530.626	33316.53
530.828	33334.96
531.029	34195.1
531.23	33269.42
531.431	33810.09
531.632	33801.89
531.833	33949.35
532.035	33894.05
532.236	33820.33
532.437	34317.98
532.638	33834.66
532.839	34256.54
533.04	34524.83
533.241	33695.4
533.442	34215.58
533.643	34428.57
533.844	34240.16
534.045	34170.53
534.246	34070.18
534.447	34797.21
534.648	34242.21
534.849	34629.27
535.05	34389.66
535.251	34758.3
535.451	34436.77
535.652	34879.13
535.853	34696.86
536.054	34428.57
536.255	34592.41
536.456	34346.65
536.657	35190.42
536.857	34330.27
537.058	34236.06
537.259	34895.51
537.46	34950.81
537.66	34260.64
537.861	34602.65
538.062	34440.86
538.263	34739.86
538.463	34533.02
538.664	34258.59
538.865	34676.38
539.065	34875.03
539.266	34447.01
539.466	35171.99
539.667	34113.19
539.868	35038.87
540.068	34268.83
540.269	34670.23
540.469	34602.65
540.67	34641.56
540.87	34670.23
541.071	34473.63
541.271	34832.02
541.472	34305.7
541.672	34432.67
541.873	34938.52
542.073	33994.4
542.274	34879.13
542.474	34453.15
542.675	34238.11
542.875	34735.77
543.075	34506.4
543.276	34397.85
543.476	34733.72
543.676	34211.49
543.877	34258.59
544.077	34555.55
544.277	34461.34
544.478	34352.8
544.678	34741.91
544.878	34553.5
545.078	34266.78
545.279	34039.46
545.479	34168.48
545.679	34647.71
545.879	34410.14
546.079	34385.57
546.28	34266.78
546.48	34580.12
546.68	34528.92
546.88	34442.91
547.08	34782.87
547.28	34293.41
547.48	34113.19
547.68	34135.71
547.88	34442.91
548.081	34274.98
548.281	34449.05
548.481	34291.36
548.681	34451.1
548.881	34586.27
549.081	34201.25
549.28	34303.65
549.48	34297.5
549.68	34342.56
549.88	34649.75
550.08	34096.8
550.28	34346.65
550.48	33824.42
550.68	34573.98
550.88	34473.63
551.08	34330.27
551.279	34500.25
551.479	33949.35
551.679	34227.87
551.879	34250.4
552.079	34526.88
552.278	34324.13
552.478	34168.48
552.678	34248.35
552.878	34584.22
553.077	34170.53
553.277	33918.63
553.477	34451.1
553.676	34047.65
553.876	33916.58
554.076	34049.7
554.275	34010.79
554.475	33824.42
554.674	33785.51
554.874	33920.68
555.074	33623.72
555.273	34010.79
555.473	33961.64
555.672	33650.35
555.872	33468.08
556.071	33752.74
556.271	34178.72
556.47	33670.82
556.67	33423.02
556.869	33408.68
557.068	33482.41
557.268	33521.32
557.467	33699.5
557.667	33562.28
557.866	33578.67
558.065	33621.67
558.265	33050.29
558.464	33277.61
558.663	33312.43
558.863	33005.24
559.062	33275.57
559.261	33074.87
559.461	33390.25
559.66	32552.63
559.859	33384.11
560.058	32919.22
560.258	33087.15
560.457	32331.45
560.656	32757.43
560.855	32571.07
561.054	32802.49
561.253	32413.37
561.453	32937.65
561.652	32904.88
561.851	32751.29
562.05	32472.76
562.249	32562.87
562.448	32528.06
562.647	32458.43
562.846	32343.74
563.045	32497.34
563.244	32136.9
563.443	32206.53
563.642	31880.9
563.841	32284.35
564.04	31837.89
564.239	31870.66
564.438	31911.62
564.637	31897.28
564.836	31680.2
565.035	31223.5
565.234	31608.52
565.432	31657.67
565.631	31626.95
565.83	31557.32
566.029	31143.63
566.228	31416.01
566.427	31010.51
566.625	31301.33
566.824	30899.92
567.023	31235.79
567.222	30519
567.42	30873.3
567.619	30791.38
567.818	30711.51
568.016	30699.22
568.215	30717.65
568.414	30691.03
568.612	30830.29
568.811	30377.69
569.01	30885.59
569.208	29972.19
569.407	30349.02
569.605	30187.23
569.804	30351.07
570.002	29724.39
570.201	29910.75
570.4	29671.14
570.598	29560.55
570.797	29357.8
570.995	29744.87
571.193	29155.05
571.392	29245.16
571.59	29046.51
571.789	29060.85
571.987	29284.08
572.186	28886.77
572.384	29044.46
572.582	29001.46
572.781	28980.98
572.979	28638.97
573.177	28870.39
573.376	28765.94
573.574	28399.35
573.772	28589.81
573.971	28419.83
574.169	28157.69
574.367	27997.95
574.565	28227.32
574.763	28233.47
574.962	28006.14
575.16	27836.16
575.358	27940.61
575.556	27229.96
575.754	27830.02
575.952	27244.3
576.151	27496.2
576.349	27424.52
576.547	27252.49
576.745	27197.2
576.943	27205.39
577.141	27203.34
577.339	26746.64
577.537	27047.69
577.735	26793.75
577.933	26654.48
578.131	27039.5
578.329	26427.16
578.527	26447.64
578.725	26490.65
578.923	26515.22
579.121	26291.99
579.319	26212.12
579.516	26240.79
579.714	26234.65
579.912	26109.72
580.11	26134.3
580.308	25956.13
580.506	25708.32
580.704	25257.77
580.901	25710.37
581.099	25730.85
581.297	25513.77
581.495	25736.99
581.692	25653.03
581.89	25157.42
582.088	25485.09
582.285	25200.43
582.483	25216.81
582.681	25003.82
582.878	24725.3
583.076	24649.52
583.274	25319.21
583.471	24653.62
583.669	24622.9
583.866	24438.58
584.064	24926
584.262	24155.96
584.459	24500.02
584.657	24534.84
584.854	24479.54
585.052	24119.1
585.249	24139.58
585.447	24110.91
585.644	23877.44
585.841	23955.26
586.039	23891.77
586.236	23754.56
586.434	23572.29
586.631	23549.76
586.828	23783.23
587.026	23672.64
587.223	23371.59
587.42	23113.55
587.618	23387.97
587.815	23330.63
588.012	22970.19
588.21	23222.09
588.407	22927.18
588.604	23021.39
588.801	22812.49
588.999	22966.09
589.196	22839.12
589.393	22660.94
589.59	22775.63
589.787	22552.4
589.984	22587.22
590.182	22228.82
590.379	22583.12
590.576	22091.61
590.773	22372.18
590.97	22159.19
591.167	22046.55
591.364	21749.6
591.561	21808.99
591.758	21768.03
591.955	21765.98
592.152	22095.71
592.349	21628.77
592.546	21759.84
592.743	21720.93
592.94	21167.98
593.137	21573.47
593.334	21473.12
593.531	21159.78
593.727	21358.44
593.924	21376.87
594.121	21155.69
594.318	20997.99
594.515	21038.95
594.712	21155.69
594.908	20742
595.105	20819.82
595.302	20549.49
595.499	20862.83
595.696	20641.65
595.892	20496.24
596.089	20795.25
596.286	20647.79
596.482	20264.82
596.679	20404.08
596.876	20148.09
597.072	20043.64
597.269	20459.38
597.466	20201.33
597.662	20074.36
597.859	20146.04
598.055	19883.9
598.252	19720.06
598.448	19859.32
598.645	19816.32
598.841	19613.57
599.038	19476.35
599.234	19433.35
599.431	19453.83
599.627	19449.73
599.824	19464.07
600.02	19482.5
600.217	19580.8
600.413	19244.93
600.609	19181.45
600.806	18943.88
601.002	19203.97
601.198	18747.28
601.395	18821
601.591	18927.5
601.787	18722.7
601.984	18612.11
602.18	18778
602.376	18757.52
602.572	18581.39
602.769	18739.08
602.965	18143.13
603.161	18384.79
603.357	18292.63
603.553	18022.3
603.75	18378.64
603.946	18134.93
604.142	17973.14
604.338	18057.11
604.534	17905.56
604.73	17831.83
604.926	17801.12
605.122	17962.9
605.318	17837.98
605.514	17684.38
605.71	17715.1
605.906	17434.53
606.102	17534.88
606.298	17633.18
606.494	17573.79
606.69	17479.58
606.886	17282.98
607.082	17184.68
607.278	17377.19
607.474	16904.1
607.67	17239.97
607.866	16766.89
608.062	17225.64
608.257	16721.84
608.453	16975.78
608.649	16857
608.845	16703.4
609.041	16707.5
609.236	16764.84
609.432	16840.62
609.628	16775.08
609.824	16562.09
610.019	16502.7
610.215	16453.55
610.411	16492.46
610.606	16291.76
610.802	16365.49
610.998	16402.35
611.193	16428.98
611.389	16228.28
611.584	16228.28
611.78	16007.09
611.976	16144.31
612.171	16310.19
612.367	16232.37
612.562	15863.74
612.758	15472.57
612.953	15886.26
613.149	15968.18
613.344	15605.69
613.539	16111.54
613.735	15708.09
613.93	15818.68
614.126	15759.29
614.321	15663.04
614.517	15620.03
614.712	15636.41
614.907	15546.3
615.103	15620.03
615.298	15304.64
615.493	15574.97
615.688	15370.18
615.884	15718.33
616.079	15431.62
616.274	15386.56
616.47	15112.13
616.665	15298.5
616.86	15105.99
617.055	15026.12
617.25	15003.59
617.445	15325.12
617.641	14901.19
617.836	15030.21
618.031	14727.11
618.226	15056.84
618.421	14895.05
618.616	15038.41
618.811	14688.2
619.006	14845.9
619.201	14606.28
619.396	14430.16
619.591	14307.28
619.786	14405.58
619.981	14168.02
620.176	14401.49
620.371	14215.12
620.566	14231.51
620.761	14104.53
620.956	14378.96
621.151	14006.23
621.346	14112.72
621.541	13598.68
621.735	13776.86
621.93	13506.52
622.125	13504.48
622.32	13627.35
622.515	13610.97
622.709	13475.81
622.904	13336.54
623.099	13361.12
623.294	13297.63
623.488	13131.75
623.683	13330.4
623.878	13025.25
624.072	13080.55
624.267	12742.63
624.462	12654.57
624.656	12705.77
624.851	12808.17
625.046	12664.81
625.24	12472.3
625.435	12412.91
625.629	12279.79
625.824	12161.01
626.018	12335.09
626.213	11876.34
626.407	12232.69
626.602	11806.71
626.796	12056.56
626.991	11993.08
627.185	11663.35
627.38	11589.63
627.574	11669.5
627.768	11571.19
627.963	11536.38
628.157	11431.93
628.352	11710.46
628.546	11272.19
628.74	11282.43
628.935	11108.35
629.129	11153.41
629.323	11073.54
629.517	11081.73
629.712	10895.36
629.906	10905.6
630.1	10772.49
630.294	10811.4
630.489	10801.16
630.683	10749.96
630.877	10559.5
631.071	10676.23
631.265	10567.69
631.459	10676.23
631.653	10520.59
631.848	10418.19
632.042	10270.73
632.236	10479.63
632.43	10154
632.624	10381.32
632.818	10080.27
633.012	10141.71
633.206	9936.92
633.4	10043.41
633.594	9934.87
633.788	10006.55
633.982	9908.24
634.176	9957.39
634.369	9908.24
634.563	9574.42
634.757	9455.64
634.951	9818.13
635.145	9371.68
635.339	9431.07
635.533	9441.31
635.726	9410.59
635.92	9234.46
636.114	9295.9
636.308	9177.12
636.501	9195.55
636.695	9082.91
636.889	9068.58
637.083	8890.4
637.276	8939.55
637.47	9044
637.664	8859.68
637.857	8761.38
638.051	8871.97
638.244	8661.03
638.438	8644.65
638.632	8550.44
638.825	8745
639.019	8577.06
639.212	8452.14
639.406	8357.93
639.599	8544.3
639.793	8464.43
639.986	8165.42
640.18	8171.57
640.373	8185.9
640.567	8298.54
640.76	7997.49
640.954	7987.25
641.147	7968.82
641.34	7934
641.534	8032.3
641.727	7938.1
641.92	7804.98
642.114	7817.27
642.307	7874.61
642.5	7733.3
642.694	7661.62
642.887	7493.69
643.08	7604.28
643.273	7635
643.467	7376.95
643.66	7422.01
643.853	7352.38
644.046	7417.91
644.239	7344.19
644.432	7307.32
644.626	7211.07
644.819	7301.18
645.012	7039.04
645.205	7182.4
645.398	7059.52
645.591	7043.14
645.784	7077.95
645.977	6789.19
646.17	6959.17
646.363	6840.39
646.556	6707.27
646.749	6834.24
646.942	6793.28
647.135	6678.6
647.328	6588.49
647.521	6541.38
647.714	6375.5
647.907	6385.74
648.099	6344.78
648.292	6516.81
648.485	6387.79
648.678	6160.46
648.871	6303.82
649.064	6326.35
649.256	6410.31
649.449	6219.85
649.642	6162.51
649.835	6111.31
650.027	6127.69
650.22	6021.2
650.413	5906.51
650.605	5902.42
650.798	5877.84
650.991	5916.75
651.183	6060.11
651.376	5814.35
651.568	5890.13
651.761	5677.14
651.954	5834.83
652.146	5763.15
652.339	5675.09
652.531	5476.44
652.724	5664.85
652.916	5558.36
653.109	5507.16
653.301	5464.15
653.494	5484.63
653.686	5382.23
653.879	5507.16
654.071	5480.54
654.263	5318.75
654.456	5443.67
654.648	5382.23
654.84	5208.16
655.033	5417.05
655.225	5146.72
655.417	5308.51
655.61	5290.07
655.802	5093.47
655.994	5064.8
656.186	5062.75
656.379	4986.97
656.571	5095.52
656.763	4964.45
656.955	4972.64
657.148	4890.72
657.34	4952.16
657.532	4823.14
657.724	4782.18
657.916	4962.4
658.108	4706.4
658.3	4733.03
658.492	4845.66
658.684	4755.55
658.876	4681.83
659.068	4847.71
659.26	4618.34
659.452	4710.5
659.644	4526.18
659.836	4710.5
660.028	4616.29
660.22	4462.69
660.412	4589.67
660.604	4272.23
660.796	4616.29
660.988	4360.3
661.18	4335.72
661.372	4223.08
661.563	4348.01
661.755	4243.56
661.947	4333.67
662.139	4100.2
662.331	4264.04
662.522	4051.05
662.714	4227.18
662.906	4126.83
663.097	4167.79
663.289	3946.61
663.481	3883.12
663.673	4042.86
663.864	3979.37
664.056	4055.15
664.247	4073.58
664.439	3760.24
664.631	3838.06
664.822	3948.65
665.014	3897.46
665.205	3907.7
665.397	3805.3
665.588	3934.32
665.78	3780.72
665.971	3733.62
666.163	3721.33
666.354	3776.63
666.546	3715.19
666.737	3688.56
666.929	3694.71
667.12	3768.43
667.311	3508.34
667.503	3651.7
667.694	3573.88
667.885	3645.56
668.077	3555.44
668.268	3567.73
668.459	3520.63
668.651	3399.8
668.842	3426.42
669.033	3463.29
669.224	3395.7
669.416	3473.53
669.607	3375.22
669.798	3350.65
669.989	3418.23
670.18	3326.07
670.371	3455.09
670.563	3207.29
670.754	3307.64
670.945	3285.11
671.136	3215.48
671.327	3244.15
671.518	3201.15
671.709	3244.15
671.9	3266.68
672.091	3244.15
672.282	3223.67
672.473	3141.75
672.664	3199.1
672.855	3172.47
673.046	3127.42
673.237	3164.28
673.428	3151.99
673.619	3135.61
673.809	2943.1
674	3104.89
674.191	3129.47
674.382	3020.92
674.573	3006.59
674.764	3031.16
674.954	3033.21
675.145	2967.68
675.336	2998.4
675.527	2885.76
675.717	3033.21
675.908	2857.09
676.099	3033.21
676.289	3022.97
676.48	2934.91
676.671	2943.1
676.861	2859.14
677.052	2834.56
677.243	2834.56
677.433	2865.28
677.624	2867.33
677.814	2904.19
678.005	2887.81
678.195	2928.77
678.386	2830.46
678.576	2818.18
678.767	2740.35
678.957	2738.3
679.148	2754.69
679.338	2685.06
679.529	2809.98
679.719	2719.87
679.909	2795.65
680.1	2721.92
680.29	2848.9
680.481	2726.02
680.671	2717.83
680.861	2818.18
681.052	2760.83
681.242	2746.5
681.432	2709.63
681.622	2594.95
681.813	2603.14
682.003	2664.58
682.193	2619.52
682.383	2597
682.573	2693.25
682.764	2558.08
682.954	2640
683.144	2662.53
683.334	2613.38
683.524	2609.28
683.714	2633.86
683.904	2695.3
684.094	2535.56
684.284	2685.06
684.474	2652.29
684.664	2648.19
684.854	2707.59
685.044	2568.32
685.234	2619.52
685.424	2527.36
685.614	2644.1
685.804	2517.12
685.994	2453.64
686.184	2519.17
686.374	2523.27
686.564	2467.97
686.753	2420.87
686.943	2467.97
687.133	2521.22
687.323	2506.88
687.513	2492.55
687.702	2437.25
687.892	2556.04
688.082	2392.2
688.272	2396.29
688.461	2492.55
688.651	2508.93
688.841	2449.54
689.03	2470.02
689.22	2459.78
689.41	2476.16
689.599	2390.15
689.789	2410.63
689.979	2494.6
690.168	2302.09
690.358	2478.21
690.547	2414.73
690.737	2412.68
690.926	2295.94
691.116	2324.62
691.305	2453.64
691.495	2343.05
691.684	2492.55
691.874	2320.52
692.063	2345.09
692.252	2306.18
692.442	2297.99
692.631	2341
692.82	2259.08
693.01	2400.39
693.199	2214.02
693.388	2367.62
693.578	2345.09
693.767	2341
693.956	2482.31
694.146	2236.55
694.335	2263.18
694.524	2418.82
694.713	2273.42
694.902	2312.33
695.092	2254.98
695.281	2285.7
695.47	2396.29
695.659	2312.33
695.848	2297.99
696.037	2398.34
696.226	2427.01
696.415	2228.36
696.604	2252.94
696.793	2369.67
696.982	2400.39
697.171	2322.57
697.36	2349.19
697.549	2314.38
697.738	2289.8
697.927	2216.07
698.116	2318.47
698.305	2320.52
698.494	2381.96
698.683	2193.55
698.872	2234.5
699.061	2357.38
699.25	2406.53
699.438	2308.23
699.627	2316.42
699.816	2285.7
700.005	2263.18
700.193	2199.69
700.382	2308.23
700.571	2316.42
700.76	2222.22
700.948	2297.99
701.137	2312.33
701.326	2297.99
701.514	2224.26
701.703	2322.57
701.892	2263.18
702.08	2263.18
702.269	2388.1
702.457	2144.39
702.646	2314.38
702.834	2328.71
703.023	2263.18
703.212	2293.9
703.4	2199.69
703.589	2318.47
703.777	2205.83
703.965	2168.97
704.154	2216.07
704.342	2209.93
704.531	2240.65
704.719	2222.22
704.907	2238.6
705.096	2181.26
705.284	2199.69
705.472	2121.87
705.661	2175.11
705.849	2156.68
706.037	2187.4
706.226	2193.55
706.414	2158.73
706.602	2168.97
706.79	2099.34
706.979	2115.72
707.167	2052.24
707.355	2209.93
707.543	2166.92
707.731	2181.26
707.919	2091.15
708.107	2080.91
708.296	2078.86
708.484	2078.86
708.672	2164.87
708.86	2132.11
709.048	2107.53
709.236	2148.49
709.424	2031.76
709.612	2089.1
709.8	2027.66
709.988	2068.62
710.176	2048.14
710.364	2115.72
710.551	2144.39
710.739	2013.32
710.927	2117.77
711.115	2101.39
711.303	2039.95
711.491	2033.8
711.679	1986.7
711.866	1962.12
712.054	1958.03
712.242	1986.7
712.43	1978.51
712.617	1992.84
712.805	1960.08
712.993	2009.23
713.181	1847.44
713.368	1876.11
713.556	1935.5
713.744	1984.65
713.931	1878.16
714.119	1855.63
714.306	1919.12
714.494	1931.41
714.682	1917.07
714.869	1974.41
715.057	1951.88
715.244	1906.83
715.432	1974.41
715.619	1816.72
715.807	1790.1
715.994	1779.86
716.182	1908.88
716.369	1849.49
716.556	1831.05
716.744	1859.73
716.931	1925.26
717.119	1796.24
717.306	1839.25
717.493	1851.53
717.681	1730.7
717.868	1714.32
718.055	1814.67
718.242	1706.13
718.43	1751.18
718.617	1802.38
718.804	1769.62
718.991	1775.76
719.179	1704.08
719.366	1732.75
719.553	1745.04
719.74	1704.08
719.927	1687.7
720.114	1720.46
720.301	1753.23
720.488	1783.95
720.676	1708.18
720.863	1681.55
721.05	1749.14
721.237	1650.83
721.424	1706.13
721.611	1665.17
721.798	1697.94
721.985	1681.55
722.172	1710.22
722.358	1616.02
722.545	1630.35
722.732	1685.65
722.919	1624.21
723.106	1689.74
723.293	1646.74
723.48	1671.31
723.667	1601.68
723.853	1609.87
724.04	1620.11
724.227	1552.53
724.414	1611.92
724.6	1607.83
724.787	1599.63
724.974	1587.35
725.161	1620.11
725.347	1587.35
725.534	1583.25
725.72	1525.91
725.907	1505.43
726.094	1620.11
726.28	1564.82
726.467	1611.92
726.653	1554.58
726.84	1603.73
727.027	1552.53
727.213	1581.2
727.4	1443.99
727.586	1542.29
727.773	1386.65
727.959	1491.09
728.145	1521.81
728.332	1523.86
728.518	1507.48
728.705	1579.15
728.891	1462.42
729.077	1489.04
729.264	1417.37
729.45	1439.89
729.636	1464.47
729.823	1368.21
730.009	1581.2
730.195	1415.32
730.382	1325.21
730.568	1357.97
730.754	1460.37
730.94	1480.85
731.126	1470.61
731.313	1452.18
731.499	1407.13
731.685	1441.94
731.871	1310.87
732.057	1540.24
732.243	1415.32
732.429	1302.68
732.615	1443.99
732.801	1433.75
732.987	1355.93
733.173	1392.79
733.359	1392.79
733.545	1343.64
733.731	1382.55
733.917	1366.17
734.103	1296.53
734.289	1288.34
734.475	1235.1
734.661	1388.69
734.847	1333.4
735.033	1331.35
735.219	1333.4
735.404	1314.97
735.59	1300.63
735.776	1235.1
735.962	1298.58
736.148	1366.17
736.333	1265.82
736.519	1292.44
736.705	1298.58
736.89	1321.11
737.076	1329.3
737.262	1265.82
737.447	1206.42
737.633	1304.73
737.819	1194.14
738.004	1187.99
738.19	1208.47
738.375	1165.46
738.561	1214.62
738.747	1259.67
738.932	1218.71
739.118	1224.86
739.303	1233.05
739.489	1212.57
739.674	1235.1
739.859	1251.48
740.045	1147.03
740.23	1116.31
740.416	1163.42
740.601	1269.91
740.786	1243.29
740.972	1171.61
741.157	1173.66
741.342	1206.42
741.528	1202.33
741.713	1218.71
741.898	1187.99
742.084	1208.47
742.269	1124.51
742.454	1110.17
742.639	1175.7
742.824	1206.42
743.01	1163.42
743.195	1151.13
743.38	1120.41
743.565	1081.5
743.75	1054.87
743.935	1097.88
744.12	1216.66
744.305	1058.97
744.49	1151.13
744.675	1083.55
744.86	1087.64
745.045	1075.35
745.23	1005.72
745.415	995.48
745.6	1032.35
745.785	1026.2
745.97	1042.59
746.155	1040.54
746.34	1071.26
746.525	1112.22
746.71	993.44
746.895	997.53
747.079	913.56
747.264	1013.92
747.449	999.58
747.634	975
747.819	938.14
748.003	923.8
748.188	960.67
748.373	884.89
748.557	942.24
748.742	923.8
748.927	903.32
749.111	929.95
749.296	948.38
749.481	952.48
749.665	1005.72
749.85	940.19
750.034	854.17
750.219	932
750.404	940.19
750.588	925.85
750.773	874.65
750.957	870.56
751.141	942.24
751.326	911.52
751.51	864.41
751.695	864.41
751.879	866.46
752.064	837.79
752.248	852.13
752.432	913.56
752.617	813.21
752.801	809.12
752.985	839.84
753.17	835.74
753.354	813.21
753.538	821.41
753.722	815.26
753.907	819.36
754.091	794.78
754.275	843.93
754.459	796.83
754.643	874.65
754.828	743.58
755.012	762.02
755.196	735.39
755.38	835.74
755.564	757.92
755.748	737.44
755.932	710.82
756.116	757.92
756.3	790.69
756.484	735.39
756.668	757.92
756.852	751.78
757.036	706.72
757.22	737.44
757.404	731.3
757.588	729.25
757.772	661.66
757.956	688.29
758.14	602.27
758.323	698.53
758.507	657.57
758.691	676
758.875	684.19
759.059	721.06
759.242	594.08
759.426	592.03
759.61	751.78
759.794	655.52
759.977	719.01
760.161	684.19
760.345	622.75
760.528	610.47
760.712	671.9
760.895	612.51
761.079	645.28
761.263	663.71
761.446	610.47
761.63	639.14
761.813	639.14
761.997	614.56
762.18	630.95
762.364	608.42
762.547	637.09
762.731	628.9
762.914	567.46
763.098	712.86
763.281	479.4
763.464	583.84
763.648	571.55
763.831	653.47
764.015	530.59
764.198	614.56
764.381	510.11
764.564	493.73
764.748	563.36
764.931	585.89
765.114	514.21
765.297	530.59
765.481	546.98
765.664	608.42
765.847	557.22
766.03	610.47
766.213	598.18
766.397	620.71
766.58	569.51
766.763	544.93
766.946	565.41
767.129	520.35
767.312	555.17
767.495	618.66
767.678	551.07
767.861	600.23
768.044	571.55
768.227	510.11
768.41	538.79
768.593	499.88
768.776	561.31
768.959	542.88
769.142	477.35
769.324	567.46
769.507	506.02
769.69	426.15
769.873	520.35
770.056	553.12
770.239	475.3
770.421	540.83
770.604	510.11
770.787	491.68
770.97	510.11
771.152	506.02
771.335	557.22
771.518	549.03
771.7	565.41
771.883	497.83
772.066	518.31
772.248	512.16
772.431	530.59
772.613	444.58
772.796	483.49
772.978	518.31
773.161	497.83
773.343	438.44
773.526	436.39
773.708	479.4
773.891	454.82
774.073	413.86
774.256	516.26
774.438	465.06
774.621	393.38
774.803	379.04
774.985	506.02
775.168	413.86
775.35	481.44
775.532	510.11
775.715	446.63
775.897	489.64
776.079	397.48
776.261	432.29
776.444	436.39
776.626	460.96
776.808	399.52
776.99	366.76
777.173	426.15
777.355	385.19
777.537	413.86
777.719	452.77
777.901	350.37
778.083	391.33
778.265	374.95
778.447	440.48
778.629	401.57
778.811	424.1
778.993	438.44
779.175	366.76
779.357	344.23
779.539	358.57
779.721	342.18
779.903	424.1
780.085	299.17
780.267	399.52
780.449	358.57
780.631	352.42
780.812	348.33
780.994	417.96
781.176	438.44
781.358	309.41
781.54	346.28
781.721	377
781.903	364.71
782.085	321.7
782.267	270.5
782.448	372.9
782.63	331.94
782.812	237.74
782.993	411.81
783.175	360.61
783.357	331.94
783.538	309.41
783.72	313.51
783.901	340.13
784.083	272.55
784.264	315.56
784.446	333.99
784.627	217.26
784.809	276.65
784.99	250.02
785.172	344.23
785.353	262.31
785.535	274.6
785.716	342.18
785.897	338.09
786.079	319.65
786.26	323.75
786.441	331.94
786.623	329.89
786.804	305.32
786.985	276.65
787.167	319.65
787.348	297.13
787.529	252.07
787.71	301.22
787.891	241.83
788.073	264.36
788.254	254.12
788.435	268.45
788.616	258.21
788.797	213.16
788.978	258.21
789.159	241.83
789.34	264.36
789.522	264.36
789.703	280.74
789.884	309.41
790.065	266.41
790.246	256.17
790.427	245.93
790.607	270.5
790.788	192.68
790.969	198.82
791.15	245.93
791.331	223.4
791.512	209.06
791.693	135.34
791.874	237.74
792.054	231.59
792.235	241.83
792.416	145.58
792.597	262.31
792.778	211.11
792.958	247.97
793.139	200.87
793.32	297.13
793.5	188.58
793.681	209.06
793.862	204.97
794.042	215.21
794.223	106.67
794.404	190.63
794.584	161.96
794.765	176.3
794.945	180.39
795.126	139.43
795.306	213.16
795.487	198.82
795.667	196.78
795.848	196.78
796.028	204.97
796.209	149.67
796.389	172.2
796.57	133.29
796.75	184.49
796.93	153.77
797.111	161.96
797.291	194.73
797.471	178.34
797.652	164.01
797.832	112.81
798.012	194.73
798.192	159.91
798.373	229.54
798.553	178.34
798.733	106.67
798.913	45.23
799.093	202.92
799.274	147.62
799.454	133.29
799.634	211.11
799.814	186.54
799.994	118.95
800.174	143.53
800.354	159.91
800.534	178.34
800.714	172.2
800.894	123.05
801.074	153.77
801.254	221.35
801.434	123.05
801.614	153.77
801.794	164.01
801.974	360.61
802.154	141.48
802.334	166.06
802.514	161.96
802.693	176.3
802.873	211.11
803.053	155.82
803.233	104.62
803.413	137.38
803.592	94.38
803.772	129.19
803.952	135.34
804.131	77.99
804.311	88.23
804.491	184.49
804.67	172.2
804.85	161.96
805.03	229.54
805.209	157.86
805.389	137.38
805.568	121
805.748	155.82
805.928	137.38
806.107	125.1
806.287	82.09
806.466	98.47
806.646	86.19
806.825	73.9
807.004	159.91
807.184	94.38
807.363	133.29
807.543	147.62
807.722	88.23
807.901	139.43
808.081	190.63
808.26	98.47
808.439	98.47
808.619	100.52
808.798	75.95
808.977	71.85
809.156	98.47
809.336	88.23
809.515	129.19
809.694	137.38
809.873	178.34
810.052	164.01
810.231	190.63
810.411	104.62
810.59	116.9
810.769	112.81
810.948	161.96
811.127	135.34
811.306	98.47
811.485	94.38
811.664	149.67
811.843	84.14
812.022	96.43
812.201	104.62
812.38	88.23
812.559	32.94
812.737	108.71
812.916	41.13
813.095	143.53
813.274	157.86
813.453	104.62
813.632	121
813.811	104.62
813.989	100.52
814.168	61.61
814.347	77.99
814.526	112.81
814.704	82.09
814.883	88.23
815.062	98.47
815.24	102.57
815.419	129.19
815.598	151.72
815.776	131.24
815.955	110.76
816.133	116.9
816.312	104.62
816.49	186.54
816.669	90.28
816.847	80.04
817.026	149.67
817.204	59.56
817.383	94.38
817.561	59.56
817.74	147.62
817.918	92.33
818.097	135.34
818.275	71.85
818.453	110.76
818.632	123.05
818.81	125.1
818.988	123.05
819.167	92.33
819.345	202.92
819.523	69.8
819.701	125.1
819.879	75.95
820.058	90.28
820.236	71.85
820.414	86.19
820.592	106.67
820.77	45.23
820.948	82.09
821.127	106.67
821.305	59.56
821.483	41.13
821.661	82.09
821.839	84.14
822.017	69.8
822.195	41.13
822.373	129.19
822.551	118.95
822.729	90.28
822.907	80.04
823.085	39.08
823.262	106.67
823.44	34.99
823.618	57.51
823.796	55.47
823.974	84.14
824.152	88.23
824.329	65.71
824.507	86.19
824.685	125.1
824.863	67.75
825.04	153.77
825.218	55.47
825.396	45.23
825.574	116.9
825.751	108.71
825.929	51.37
826.107	47.27
826.284	-20.31
826.462	98.47
826.639	-8.02
826.817	53.42
826.994	63.66
827.172	-8.02
827.349	104.62
827.527	57.51
827.704	28.84
827.882	34.99
828.059	75.95
828.237	55.47
828.414	67.75
828.591	49.32
828.769	106.67
828.946	86.19
829.124	69.8
829.301	43.18
829.478	16.55
829.655	69.8
829.833	51.37
830.01	16.55
830.187	32.94
830.364	71.85
830.542	118.95
830.719	135.34
830.896	112.81
831.073	10.41
831.25	88.23
831.427	92.33
831.604	90.28
831.782	59.56
831.959	73.9
832.136	82.09
832.313	80.04
832.49	86.19
832.667	43.18
832.844	-18.26
833.021	73.9
833.198	80.04
833.374	22.7
833.551	49.32
833.728	96.43
833.905	118.95
834.082	69.8
834.259	51.37
834.436	86.19
834.612	14.51
834.789	112.81
834.966	37.03
835.143	63.66
835.319	37.03
835.496	55.47
835.673	18.6
835.85	41.13
836.026	20.65
836.203	67.75
836.38	6.31
836.556	84.14
836.733	16.55
836.909	34.99
837.086	6.31
837.262	88.23
837.439	30.89
837.616	133.29
837.792	100.52
837.968	90.28
838.145	-14.17
838.321	37.03
838.498	24.75
838.674	34.99
838.851	26.79
839.027	47.27
839.203	100.52
839.38	67.75
839.556	16.55
839.732	63.66
839.909	37.03
840.085	77.99
840.261	55.47
840.437	86.19
840.614	12.46
840.79	30.89
840.966	53.42
841.142	67.75
841.318	37.03
841.494	22.7
841.671	51.37
841.847	39.08
842.023	-3.93
842.199	-22.36
842.375	10.41
842.551	51.37
842.727	-12.12
842.903	49.32
843.079	59.56
843.255	49.32
843.431	0.17
843.607	22.7
843.783	-8.02
843.959	63.66
844.134	86.19
844.31	80.04
844.486	4.27
844.662	14.51
844.838	39.08
845.013	108.71
845.189	137.38
845.365	20.65
845.541	37.03
845.716	-10.07
845.892	26.79
846.068	-18.26
846.244	-14.17
846.419	18.6
846.595	43.18
846.77	12.46
846.946	32.94
847.122	37.03
847.297	47.27
847.473	98.47
847.648	-3.93
847.824	49.32
847.999	18.6
848.175	43.18
848.35	61.61
848.526	-22.36
848.701	53.42
848.876	67.75
849.052	39.08
849.227	55.47
849.403	55.47
849.578	65.71
849.753	22.7
849.929	55.47
850.104	24.75
850.279	57.51
850.454	77.99
850.63	8.36
850.805	10.41
850.98	-30.55
851.155	8.36
851.33	108.71
851.505	34.99
851.681	41.13
851.856	37.03
852.031	73.9
852.206	-1.88
852.381	10.41
852.556	37.03
852.731	49.32
852.906	8.36
853.081	39.08
853.256	51.37
853.431	90.28
853.606	-38.74
853.781	-24.4
853.956	-28.5
854.131	49.32
854.305	30.89
854.48	49.32
854.655	12.46
854.83	65.71
855.005	-24.4
855.18	82.09
855.354	39.08
855.529	49.32
855.704	43.18
855.879	-42.84
856.053	125.1
856.228	34.99
856.403	53.42
856.577	98.47
856.752	88.23
856.926	75.95
857.101	6.31
857.276	28.84
857.45	20.65
857.625	-24.4
857.799	80.04
857.974	59.56
858.148	-16.21
858.323	69.8
858.497	49.32
858.672	57.51
858.846	-20.31
859.02	16.55
859.195	32.94
859.369	0.17
859.543	57.51
859.718	82.09
859.892	73.9
860.066	45.23
860.241	30.89
860.415	4.27
860.589	24.75
860.763	28.84
860.938	47.27
861.112	14.51
861.286	88.23
861.46	59.56
861.634	16.55
861.808	2.22
861.982	88.23
862.157	12.46
862.331	43.18
862.505	57.51
862.679	59.56
862.853	-10.07
863.027	-3.93
863.201	32.94
863.375	-12.12
863.549	18.6
863.722	39.08
863.896	-20.31
864.07	71.85
864.244	49.32
864.418	-5.97
864.592	-1.88
864.766	-1.88
864.939	41.13
865.113	-30.55
865.287	59.56
865.461	18.6
865.634	45.23
865.808	-28.5
865.982	14.51
866.156	-12.12
866.329	41.13
866.503	6.31
866.676	30.89
866.85	0.17
867.024	43.18
867.197	-34.64
867.371	67.75
867.544	2.22
867.718	14.51
867.891	47.27
868.065	-14.17
868.238	-26.45
868.412	63.66
868.585	20.65
868.759	-16.21
868.932	20.65
869.105	61.61
869.279	-10.07
869.452	-38.74
869.625	-18.26
869.799	18.6
869.972	18.6
870.145	47.27
870.319	10.41
870.492	84.14
870.665	37.03
870.838	47.27
871.011	41.13
871.185	-16.21
871.358	71.85
871.531	59.56
871.704	63.66
871.877	34.99
872.05	53.42
872.223	-24.4
872.396	88.23
872.569	-30.55
872.742	53.42
872.915	73.9
873.088	-32.6
873.261	-10.07
873.434	6.31
873.607	77.99
873.78	-51.03
873.953	24.75
874.126	45.23
874.299	2.22
874.471	18.6
874.644	67.75
874.817	75.95
874.99	34.99
875.163	16.55
875.335	-14.17
875.508	16.55
875.681	100.52
875.853	-34.64
876.026	39.08
876.199	-26.45
876.371	80.04
876.544	-24.4
876.717	-22.36
876.889	26.79
877.062	-12.12
877.234	-57.17
877.407	-1.88
877.579	53.42
877.752	26.79
877.924	100.52
878.097	22.7
878.269	20.65
878.442	41.13
878.614	-22.36
878.786	12.46
878.959	-24.4
879.131	-14.17
879.303	47.27
879.476	24.75
879.648	98.47
879.82	47.27
879.993	104.62
880.165	12.46
880.337	-28.5
880.509	49.32
880.681	82.09
880.854	-14.17
881.026	82.09
881.198	41.13
881.37	16.55
881.542	43.18
881.714	-12.12
881.886	34.99
882.058	37.03
882.23	12.46
882.402	-40.79
882.574	4.27
882.746	18.6
882.918	26.79
883.09	12.46
883.262	18.6
883.434	-1.88
883.606	0.17
883.778	47.27
883.95	112.81
884.122	-28.5
884.293	47.27
884.465	-30.55
884.637	34.99
884.809	34.99
884.98	34.99
885.152	-55.12
885.324	69.8
885.496	18.6
885.667	102.57
885.839	51.37
886.011	24.75
886.182	14.51
886.354	71.85
886.525	-30.55
886.697	61.61
886.869	24.75
887.04	106.67
887.212	84.14
887.383	80.04
887.555	61.61
887.726	-46.93
887.897	4.27
888.069	-42.84
888.24	6.31
888.412	16.55
888.583	-10.07
888.754	96.43
888.926	14.51
889.097	-12.12
889.268	10.41
889.44	12.46
889.611	32.94
889.782	6.31
889.953	-36.69
890.125	8.36
890.296	-16.21
890.467	-3.93
890.638	22.7
890.809	47.27
890.98	-32.6
891.151	69.8
891.323	34.99
891.494	53.42
891.665	-12.12
891.836	-30.55
892.007	-24.4
892.178	12.46
892.349	-16.21
892.52	49.32
892.691	-10.07
892.862	73.9
893.032	-3.93
893.203	-8.02
893.374	-24.4
893.545	14.51
893.716	30.89
893.887	47.27
894.057	43.18
894.228	-3.93
894.399	-1.88
894.57	55.47
894.74	55.47
894.911	28.84
895.082	-18.26
895.253	22.7
895.423	0.17
895.594	47.27
895.764	10.41
895.935	69.8
896.106	-20.31
896.276	0.17
896.447	-32.6
896.617	-14.17
896.788	-57.17
896.958	-3.93
897.129	39.08
897.299	28.84
897.47	-16.21
897.64	77.99
897.81	-20.31
897.981	-3.93
898.151	10.41
898.322	16.55
898.492	34.99
898.662	14.51
898.832	26.79
899.003	-67.41
899.173	22.7
899.343	43.18
899.513	-89.94
