Data from USB4F104151__210__13-59-57-365.txt Node

Date: Thu Mar 13 13:59:57 EDT 2025
User: louis
Spectrometer: USB4F10415
Trigger mode: 4
Integration Time (sec): 1.000000E-2
Scans to average: 1
Electric dark correction enabled: true
Nonlinearity correction enabled: false
Boxcar width: 0
XAxis mode: Wavelengths
Number of Pixels in Spectrum: 3648
>>>>>Begin Spectral Data<<<<<
178.204	-74.07
178.424	-74.07
178.644	-74.07
178.864	-12.63
179.084	-31.06
179.304	28.33
179.524	-8.53
179.744	-29.01
179.964	18.09
180.184	-49.49
180.404	-29.01
180.624	11.95
180.844	46.76
181.064	28.33
181.283	30.38
181.503	-35.16
181.723	-12.63
181.943	-47.44
182.163	44.71
182.383	5.8
182.602	-18.77
182.822	100.01
183.042	3.75
183.262	26.28
183.482	5.8
183.701	48.81
183.921	-4.44
184.141	104.11
184.361	22.19
184.58	97.96
184.8	36.52
185.02	11.95
185.239	77.48
185.459	28.33
185.679	11.95
185.898	30.38
186.118	20.14
186.338	26.28
186.557	54.95
186.777	44.71
186.997	22.19
187.216	36.52
187.436	100.01
187.655	34.47
187.875	59.05
188.095	38.57
188.314	34.47
188.534	20.14
188.753	65.19
188.973	-18.77
189.192	-6.49
189.412	30.38
189.631	30.38
189.851	91.82
190.07	71.34
190.29	24.23
190.509	52.91
190.729	34.47
190.948	57
191.168	134.82
191.387	38.57
191.607	30.38
191.826	44.71
192.045	22.19
192.265	36.52
192.484	1.71
192.704	52.91
192.923	93.87
193.142	38.57
193.362	50.86
193.581	-41.3
193.8	54.95
194.02	59.05
194.239	73.39
194.458	28.33
194.678	44.71
194.897	42.67
195.116	1.71
195.335	50.86
195.555	16.04
195.774	54.95
195.993	26.28
196.212	9.9
196.432	44.71
196.651	20.14
196.87	20.14
197.089	63.15
197.308	-18.77
197.528	24.23
197.747	-0.34
197.966	11.95
198.185	42.67
198.404	26.28
198.623	63.15
198.842	-2.39
199.062	-43.35
199.281	32.43
199.5	26.28
199.719	-12.63
199.938	18.09
200.157	24.23
200.376	-24.92
200.595	20.14
200.814	83.63
201.033	-6.49
201.252	-4.44
201.471	59.05
201.69	-2.39
201.909	57
202.128	36.52
202.347	87.72
202.566	54.95
202.785	128.68
203.004	-41.3
203.223	36.52
203.442	-37.2
203.661	85.67
203.879	26.28
204.098	-24.92
204.317	69.29
204.536	110.25
204.755	63.15
204.974	32.43
205.193	-6.49
205.411	30.38
205.63	13.99
205.849	26.28
206.068	42.67
206.287	11.95
206.505	77.48
206.724	87.72
206.943	36.52
207.162	-12.63
207.381	75.43
207.599	28.33
207.818	-18.77
208.037	-35.16
208.255	-8.53
208.474	54.95
208.693	38.57
208.911	22.19
209.13	-4.44
209.349	46.76
209.567	20.14
209.786	61.1
210.005	-8.53
210.223	26.28
210.442	22.19
210.661	38.57
210.879	-35.16
211.098	63.15
211.316	-4.44
211.535	13.99
211.753	-24.92
211.972	138.92
212.191	32.43
212.409	-2.39
212.628	46.76
212.846	-45.4
213.065	106.15
213.283	38.57
213.502	-29.01
213.72	46.76
213.938	-22.87
214.157	7.85
214.375	24.23
214.594	32.43
214.812	61.1
215.031	48.81
215.249	1.71
215.467	30.38
215.686	-0.34
215.904	61.1
216.122	46.76
216.341	28.33
216.559	85.67
216.778	13.99
216.996	20.14
217.214	95.91
217.432	59.05
217.651	93.87
217.869	26.28
218.087	28.33
218.306	-8.53
218.524	69.29
218.742	59.05
218.96	67.24
219.179	16.04
219.397	-0.34
219.615	38.57
219.833	36.52
220.051	-8.53
220.27	34.47
220.488	9.9
220.706	63.15
220.924	24.23
221.142	-12.63
221.36	24.23
221.578	104.11
221.796	38.57
222.015	42.67
222.233	36.52
222.451	102.06
222.669	48.81
222.887	71.34
223.105	18.09
223.323	54.95
223.541	5.8
223.759	-20.82
223.977	34.47
224.195	7.85
224.413	-14.68
224.631	28.33
224.849	26.28
225.067	77.48
225.285	40.62
225.503	13.99
225.721	28.33
225.939	36.52
226.157	16.04
226.375	122.54
226.592	52.91
226.81	40.62
227.028	50.86
227.246	22.19
227.464	7.85
227.682	59.05
227.9	112.3
228.117	59.05
228.335	89.77
228.553	65.19
228.771	-33.11
228.989	-26.96
229.206	50.86
229.424	11.95
229.642	-35.16
229.86	18.09
230.077	63.15
230.295	46.76
230.513	-20.82
230.731	-8.53
230.948	34.47
231.166	100.01
231.384	50.86
231.601	77.48
231.819	67.24
232.037	83.63
232.254	40.62
232.472	73.39
232.689	-10.58
232.907	-35.16
233.125	11.95
233.342	73.39
233.56	20.14
233.777	61.1
233.995	1.71
234.213	34.47
234.43	7.85
234.648	63.15
234.865	13.99
235.083	-0.34
235.3	81.58
235.518	9.9
235.735	16.04
235.953	52.91
236.17	50.86
236.388	-12.63
236.605	42.67
236.822	11.95
237.04	65.19
237.257	32.43
237.475	20.14
237.692	69.29
237.909	24.23
238.127	13.99
238.344	16.04
238.562	13.99
238.779	-37.2
238.996	65.19
239.214	-12.63
239.431	-2.39
239.648	69.29
239.865	24.23
240.083	22.19
240.3	16.04
240.517	61.1
240.735	-0.34
240.952	81.58
241.169	38.57
241.386	40.62
241.603	61.1
241.821	13.99
242.038	13.99
242.255	69.29
242.472	44.71
242.689	-31.06
242.907	30.38
243.124	20.14
243.341	36.52
243.558	46.76
243.775	3.75
243.992	52.91
244.209	73.39
244.426	81.58
244.643	24.23
244.86	71.34
245.078	52.91
245.295	-26.96
245.512	69.29
245.729	5.8
245.946	34.47
246.163	-35.16
246.38	1.71
246.597	59.05
246.814	32.43
247.031	128.68
247.248	-31.06
247.464	93.87
247.681	-0.34
247.898	65.19
248.115	50.86
248.332	34.47
248.549	89.77
248.766	61.1
248.983	71.34
249.2	-33.11
249.417	71.34
249.633	46.76
249.85	38.57
250.067	28.33
250.284	50.86
250.501	13.99
250.717	52.91
250.934	40.62
251.151	93.87
251.368	26.28
251.585	104.11
251.801	63.15
252.018	67.24
252.235	77.48
252.451	-4.44
252.668	100.01
252.885	38.57
253.102	16.04
253.318	44.71
253.535	3.75
253.752	-29.01
253.968	20.14
254.185	-12.63
254.401	-2.39
254.618	36.52
254.835	9.9
255.051	69.29
255.268	-24.92
255.484	-4.44
255.701	57
255.917	32.43
256.134	85.67
256.351	136.87
256.567	-31.06
256.784	87.72
257	73.39
257.217	59.05
257.433	-4.44
257.65	69.29
257.866	28.33
258.082	63.15
258.299	79.53
258.515	81.58
258.732	1.71
258.948	106.15
259.165	42.67
259.381	85.67
259.597	71.34
259.814	40.62
260.03	-35.16
260.246	44.71
260.463	26.28
260.679	34.47
260.895	24.23
261.112	52.91
261.328	-29.01
261.544	-2.39
261.761	46.76
261.977	52.91
262.193	69.29
262.409	50.86
262.626	48.81
262.842	50.86
263.058	69.29
263.274	61.1
263.49	97.96
263.707	44.71
263.923	-35.16
264.139	104.11
264.355	16.04
264.571	-35.16
264.787	65.19
265.004	118.44
265.22	52.91
265.436	22.19
265.652	-16.73
265.868	34.47
266.084	91.82
266.3	11.95
266.516	34.47
266.732	26.28
266.948	20.14
267.164	11.95
267.38	-35.16
267.596	-6.49
267.812	-12.63
268.028	-4.44
268.244	36.52
268.46	83.63
268.676	11.95
268.892	42.67
269.108	32.43
269.324	-84.31
269.54	16.04
269.756	36.52
269.972	-4.44
270.188	50.86
270.403	48.81
270.619	57
270.835	-10.58
271.051	63.15
271.267	30.38
271.483	16.04
271.698	38.57
271.914	67.24
272.13	24.23
272.346	63.15
272.562	81.58
272.777	22.19
272.993	-2.39
273.209	71.34
273.425	40.62
273.64	112.3
273.856	32.43
274.072	46.76
274.287	40.62
274.503	20.14
274.719	-12.63
274.934	18.09
275.15	42.67
275.366	-35.16
275.581	50.86
275.797	69.29
276.012	59.05
276.228	50.86
276.444	5.8
276.659	1.71
276.875	-12.63
277.09	87.72
277.306	44.71
277.521	102.06
277.737	65.19
277.952	59.05
278.168	100.01
278.383	26.28
278.599	36.52
278.814	79.53
279.03	120.49
279.245	77.48
279.461	100.01
279.676	44.71
279.892	61.1
280.107	97.96
280.322	69.29
280.538	77.48
280.753	63.15
280.969	30.38
281.184	42.67
281.399	95.91
281.615	93.87
281.83	40.62
282.045	-8.53
282.26	16.04
282.476	54.95
282.691	40.62
282.906	36.52
283.122	13.99
283.337	38.57
283.552	26.28
283.767	67.24
283.983	77.48
284.198	24.23
284.413	36.52
284.628	-4.44
284.843	59.05
285.058	1.71
285.274	-2.39
285.489	61.1
285.704	46.76
285.919	44.71
286.134	73.39
286.349	-22.87
286.564	36.52
286.779	114.34
286.995	77.48
287.21	77.48
287.425	75.43
287.64	36.52
287.855	87.72
288.07	9.9
288.285	30.38
288.5	5.8
288.715	24.23
288.93	57
289.145	44.71
289.36	20.14
289.575	16.04
289.79	63.15
290.004	52.91
290.219	93.87
290.434	3.75
290.649	-14.68
290.864	20.14
291.079	67.24
291.294	20.14
291.509	73.39
291.724	11.95
291.938	-51.54
292.153	112.3
292.368	38.57
292.583	7.85
292.798	110.25
293.012	36.52
293.227	61.1
293.442	67.24
293.657	20.14
293.871	65.19
294.086	-14.68
294.301	9.9
294.516	85.67
294.73	20.14
294.945	-10.58
295.16	61.1
295.374	69.29
295.589	73.39
295.804	5.8
296.018	42.67
296.233	30.38
296.447	24.23
296.662	32.43
296.877	61.1
297.091	65.19
297.306	81.58
297.52	138.92
297.735	11.95
297.949	22.19
298.164	46.76
298.378	71.34
298.593	13.99
298.807	52.91
299.022	-18.77
299.236	42.67
299.451	22.19
299.665	75.43
299.88	-4.44
300.094	61.1
300.309	102.06
300.523	32.43
300.737	54.95
300.952	89.77
301.166	128.68
301.381	28.33
301.595	18.09
301.809	44.71
302.024	63.15
302.238	87.72
302.452	77.48
302.667	26.28
302.881	-10.58
303.095	93.87
303.309	61.1
303.524	13.99
303.738	52.91
303.952	50.86
304.166	11.95
304.381	-39.25
304.595	112.3
304.809	16.04
305.023	28.33
305.237	-26.96
305.452	77.48
305.666	-12.63
305.88	87.72
306.094	13.99
306.308	16.04
306.522	138.92
306.736	-24.92
306.95	40.62
307.164	16.04
307.379	34.47
307.593	95.91
307.807	57
308.021	102.06
308.235	46.76
308.449	1.71
308.663	71.34
308.877	110.25
309.091	13.99
309.305	7.85
309.519	44.71
309.733	42.67
309.947	40.62
310.161	44.71
310.374	46.76
310.588	65.19
310.802	57
311.016	22.19
311.23	24.23
311.444	79.53
311.658	3.75
311.872	112.3
312.085	79.53
312.299	48.81
312.513	112.3
312.727	57
312.941	-4.44
313.154	57
313.368	85.67
313.582	22.19
313.796	61.1
314.009	16.04
314.223	11.95
314.437	63.15
314.651	32.43
314.864	-16.73
315.078	7.85
315.292	13.99
315.505	57
315.719	11.95
315.933	32.43
316.146	77.48
316.36	40.62
316.573	7.85
316.787	52.91
317.001	24.23
317.214	24.23
317.428	52.91
317.641	52.91
317.855	128.68
318.068	52.91
318.282	73.39
318.495	147.11
318.709	93.87
318.922	75.43
319.136	32.43
319.349	61.1
319.563	52.91
319.776	46.76
319.99	36.52
320.203	57
320.417	89.77
320.63	50.86
320.843	11.95
321.057	108.2
321.27	36.52
321.483	65.19
321.697	36.52
321.91	54.95
322.124	57
322.337	61.1
322.55	106.15
322.763	13.99
322.977	26.28
323.19	3.75
323.403	36.52
323.617	79.53
323.83	73.39
324.043	61.1
324.256	44.71
324.469	63.15
324.683	75.43
324.896	132.78
325.109	52.91
325.322	79.53
325.535	26.28
325.748	20.14
325.962	81.58
326.175	97.96
326.388	65.19
326.601	-12.63
326.814	52.91
327.027	71.34
327.24	63.15
327.453	28.33
327.666	30.38
327.879	124.58
328.092	65.19
328.305	20.14
328.518	81.58
328.731	87.72
328.944	71.34
329.157	120.49
329.37	11.95
329.583	91.82
329.796	63.15
330.009	52.91
330.222	-29.01
330.435	52.91
330.648	73.39
330.861	16.04
331.073	48.81
331.286	114.34
331.499	77.48
331.712	63.15
331.925	30.38
332.138	79.53
332.35	81.58
332.563	81.58
332.776	36.52
332.989	52.91
333.202	46.76
333.414	42.67
333.627	18.09
333.84	77.48
334.053	16.04
334.265	13.99
334.478	26.28
334.691	-0.34
334.903	57
335.116	7.85
335.329	36.52
335.541	65.19
335.754	-12.63
335.966	63.15
336.179	77.48
336.392	102.06
336.604	71.34
336.817	26.28
337.029	110.25
337.242	48.81
337.454	-0.34
337.667	73.39
337.88	153.26
338.092	71.34
338.305	65.19
338.517	30.38
338.729	112.3
338.942	85.67
339.154	40.62
339.367	28.33
339.579	71.34
339.792	63.15
340.004	59.05
340.217	110.25
340.429	34.47
340.641	67.24
340.854	52.91
341.066	50.86
341.278	5.8
341.491	73.39
341.703	112.3
341.915	79.53
342.128	-10.58
342.34	30.38
342.552	83.63
342.764	100.01
342.977	36.52
343.189	52.91
343.401	69.29
343.613	11.95
343.826	22.19
344.038	106.15
344.25	34.47
344.462	28.33
344.674	59.05
344.886	44.71
345.099	102.06
345.311	83.63
345.523	97.96
345.735	40.62
345.947	130.73
346.159	38.57
346.371	100.01
346.583	61.1
346.795	18.09
347.007	75.43
347.219	5.8
347.431	59.05
347.643	63.15
347.855	79.53
348.067	-16.73
348.279	38.57
348.491	93.87
348.703	73.39
348.915	42.67
349.127	38.57
349.339	69.29
349.551	63.15
349.763	85.67
349.975	57
350.187	54.95
350.399	20.14
350.61	18.09
350.822	28.33
351.034	81.58
351.246	-24.92
351.458	89.77
351.669	44.71
351.881	67.24
352.093	67.24
352.305	38.57
352.517	136.87
352.728	34.47
352.94	108.2
353.152	42.67
353.363	22.19
353.575	42.67
353.787	46.76
353.999	100.01
354.21	120.49
354.422	83.63
354.633	44.71
354.845	59.05
355.057	114.34
355.268	50.86
355.48	71.34
355.692	24.23
355.903	108.2
356.115	93.87
356.326	65.19
356.538	93.87
356.749	97.96
356.961	73.39
357.172	36.52
357.384	50.86
357.595	128.68
357.807	110.25
358.018	95.91
358.23	52.91
358.441	97.96
358.653	52.91
358.864	67.24
359.075	28.33
359.287	93.87
359.498	130.73
359.709	63.15
359.921	151.21
360.132	95.91
360.344	28.33
360.555	26.28
360.766	44.71
360.977	-8.53
361.189	50.86
361.4	81.58
361.611	24.23
361.823	79.53
362.034	95.91
362.245	63.15
362.456	65.19
362.667	11.95
362.879	61.1
363.09	108.2
363.301	104.11
363.512	18.09
363.723	34.47
363.935	85.67
364.146	30.38
364.357	3.75
364.568	97.96
364.779	77.48
364.99	136.87
365.201	22.19
365.412	46.76
365.623	44.71
365.834	118.44
366.045	-2.39
366.256	145.06
366.467	79.53
366.678	46.76
366.889	73.39
367.1	3.75
367.311	83.63
367.522	48.81
367.733	44.71
367.944	85.67
368.155	87.72
368.366	79.53
368.577	65.19
368.788	73.39
368.999	40.62
369.209	63.15
369.42	9.9
369.631	87.72
369.842	46.76
370.053	52.91
370.264	48.81
370.474	79.53
370.685	7.85
370.896	85.67
371.107	102.06
371.317	130.73
371.528	-4.44
371.739	83.63
371.95	61.1
372.16	46.76
372.371	69.29
372.582	67.24
372.792	81.58
373.003	69.29
373.214	13.99
373.424	134.82
373.635	85.67
373.846	87.72
374.056	95.91
374.267	104.11
374.477	77.48
374.688	24.23
374.898	89.77
375.109	48.81
375.319	126.63
375.53	100.01
375.74	71.34
375.951	59.05
376.161	97.96
376.372	104.11
376.582	40.62
376.793	87.72
377.003	110.25
377.214	122.54
377.424	20.14
377.635	30.38
377.845	46.76
378.055	34.47
378.266	46.76
378.476	81.58
378.686	75.43
378.897	77.48
379.107	38.57
379.317	73.39
379.528	44.71
379.738	36.52
379.948	44.71
380.158	85.67
380.369	91.82
380.579	122.54
380.789	126.63
380.999	52.91
381.21	83.63
381.42	69.29
381.63	28.33
381.84	5.8
382.05	138.92
382.261	69.29
382.471	85.67
382.681	79.53
382.891	198.31
383.101	71.34
383.311	20.14
383.521	34.47
383.731	83.63
383.941	30.38
384.151	5.8
384.361	38.57
384.571	38.57
384.781	-6.49
384.991	75.43
385.201	69.29
385.411	71.34
385.621	85.67
385.831	167.59
386.041	85.67
386.251	93.87
386.461	77.48
386.671	97.96
386.881	95.91
387.091	52.91
387.301	173.74
387.511	89.77
387.72	100.01
387.93	163.5
388.14	44.71
388.35	95.91
388.56	77.48
388.769	126.63
388.979	69.29
389.189	79.53
389.399	73.39
389.609	126.63
389.818	97.96
390.028	122.54
390.238	122.54
390.447	100.01
390.657	75.43
390.867	89.77
391.076	120.49
391.286	69.29
391.496	91.82
391.705	73.39
391.915	104.11
392.125	71.34
392.334	116.39
392.544	112.3
392.753	155.3
392.963	69.29
393.172	93.87
393.382	52.91
393.591	159.4
393.801	175.78
394.01	71.34
394.22	77.48
394.429	69.29
394.639	24.23
394.848	128.68
395.058	122.54
395.267	130.73
395.477	79.53
395.686	52.91
395.895	71.34
396.105	161.45
396.314	108.2
396.524	110.25
396.733	79.53
396.942	118.44
397.152	67.24
397.361	169.64
397.57	122.54
397.78	116.39
397.989	112.3
398.198	110.25
398.407	140.97
398.617	77.48
398.826	124.58
399.035	151.21
399.244	126.63
399.453	151.21
399.663	134.82
399.872	157.35
400.081	153.26
400.29	155.3
400.499	89.77
400.708	165.54
400.917	151.21
401.127	181.93
401.336	140.97
401.545	239.27
401.754	93.87
401.963	122.54
402.172	130.73
402.381	124.58
402.59	226.98
402.799	85.67
403.008	112.3
403.217	183.98
403.426	194.22
403.635	177.83
403.844	192.17
404.053	163.5
404.262	202.41
404.471	165.54
404.68	188.07
404.888	143.02
405.097	167.59
405.306	183.98
405.515	163.5
405.724	245.41
405.933	261.8
406.142	204.46
406.35	274.09
406.559	210.6
406.768	267.94
406.977	241.32
407.185	239.27
407.394	274.09
407.603	249.51
407.812	294.57
408.02	229.03
408.229	257.7
408.438	286.37
408.646	296.61
408.855	214.7
409.064	290.47
409.272	345.77
409.481	388.77
409.69	358.05
409.898	370.34
410.107	319.14
410.315	452.26
410.524	380.58
410.733	394.92
410.941	390.82
411.15	390.82
411.358	454.31
411.567	599.71
411.775	485.03
411.984	528.03
412.192	511.65
412.401	489.12
412.609	554.66
412.818	581.28
413.026	595.62
413.234	620.19
413.443	687.78
413.651	642.72
413.86	718.5
414.068	784.03
414.276	716.45
414.485	788.13
414.693	767.65
414.901	763.55
415.11	761.5
415.318	902.81
415.526	833.18
415.734	814.75
415.943	970.4
416.151	906.91
416.359	1117.85
416.567	1044.12
416.776	1085.08
416.984	1144.47
417.192	1136.28
417.4	1177.24
417.608	1169.05
417.817	1244.82
418.025	1324.69
418.233	1468.05
418.441	1359.51
418.649	1373.85
418.857	1576.59
419.065	1476.24
419.273	1576.59
419.481	1619.6
419.689	1676.95
419.897	1603.22
420.105	1715.86
420.313	1799.82
420.521	1967.76
420.729	1961.61
420.937	2061.96
421.145	2154.12
421.353	2188.94
421.561	2209.42
421.769	2360.97
421.977	2320.01
422.185	2301.58
422.393	2496.13
422.601	2657.92
422.809	2557.57
423.017	2758.27
423.224	2875.01
423.432	2967.17
423.64	2936.45
423.848	3176.06
424.056	3290.74
424.263	3391.09
424.471	3423.86
424.679	3380.86
424.887	3749.49
425.094	3636.85
425.302	3767.92
425.51	3851.89
425.718	3923.57
425.925	3985.01
426.133	4218.47
426.341	4486.76
426.548	4716.13
426.756	4673.12
426.964	4808.29
427.171	4943.46
427.379	5092.96
427.586	5224.03
427.794	5318.23
428.001	5652.05
428.209	5826.13
428.417	5596.76
428.624	6166.09
428.832	6049.36
429.039	6139.47
429.247	6041.17
429.454	6592.07
429.662	6958.66
429.869	6692.42
430.076	7083.58
430.284	6862.4
430.491	7056.96
430.699	7560.76
430.906	7644.73
431.114	7716.4
431.321	7802.42
431.528	8037.94
431.736	8703.53
431.943	9068.06
432.15	8877.6
432.358	8834.6
432.565	9270.81
432.772	9154.08
432.979	9633.3
433.187	9946.64
433.394	9909.78
433.601	10755.59
433.808	10571.27
434.016	10645
434.223	11048.45
434.43	11531.77
434.637	11574.78
434.844	12090.87
435.052	12373.49
435.259	12246.51
435.466	12594.67
435.673	12391.92
435.88	13041.12
436.087	14003.67
436.294	13884.89
436.501	13637.08
436.708	13886.93
436.915	14317.01
437.122	15064.52
437.329	15029.7
437.537	15549.89
437.743	15582.65
437.95	15480.25
438.157	16172.47
438.364	17018.28
438.571	16860.59
438.778	17141.16
438.985	18439.57
439.192	17837.47
439.399	18498.96
439.606	17724.83
439.813	18853.26
440.02	19879.29
440.227	19764.61
440.433	19271.04
440.64	20045.18
440.847	19852.67
441.054	20333.94
441.261	21788
441.467	21493.09
441.674	22189.4
441.881	22912.33
442.088	22881.61
442.294	22465.88
442.501	23106.89
442.708	23563.59
442.914	24567.09
443.121	25584.93
443.328	25005.36
443.534	26805.52
443.741	25904.42
443.948	25580.84
444.154	27231.5
444.361	27288.84
444.568	27471.11
444.774	27282.7
444.981	27569.41
445.187	28495.1
445.394	29707.49
445.6	29265.13
445.807	32113.86
446.013	30684.37
446.22	31282.38
446.426	32584.89
446.633	32599.23
446.839	33703.08
447.046	32402.62
447.252	34102.43
447.459	34342.05
447.665	34514.08
447.871	35490.96
448.078	36902.01
448.284	35695.75
448.491	36336.77
448.697	38141.03
448.903	38089.83
449.11	38524
449.316	37747.82
449.522	38476.9
449.728	39394.39
449.935	39775.31
450.141	39828.55
450.347	40084.55
450.553	39248.98
450.76	39824.46
450.966	41290.8
451.172	40436.8
451.378	41663.53
451.584	40801.34
451.791	41729.07
451.997	42026.03
452.203	42654.75
452.409	42896.41
452.615	41802.8
452.821	40485.95
453.027	40557.63
453.233	42255.4
453.44	40684.61
453.646	41016.38
453.852	41212.98
454.058	42353.7
454.264	40580.16
454.47	41272.37
454.676	40438.85
454.882	41745.45
455.088	38231.14
455.294	38917.21
455.5	39380.05
455.705	40189
455.911	38280.29
456.117	37561.45
456.323	37002.36
456.529	34804.89
456.735	36482.17
456.941	35826.82
457.147	35130.51
457.352	34440.35
457.558	33776.81
457.764	34016.42
457.97	33035.44
458.176	32732.34
458.381	32562.36
458.587	31204.56
458.793	30579.93
458.999	29261.04
459.204	31464.65
459.41	30518.49
459.616	28456.18
459.821	28880.11
460.027	28689.65
460.233	28105.98
460.438	26471.7
460.644	26803.47
460.85	25726.24
461.055	25191.72
461.261	25042.22
461.466	23586.11
461.672	22656.34
461.878	24218.94
462.083	22732.11
462.289	22224.22
462.494	22105.43
462.7	21239.14
462.905	20481.39
463.111	21364.07
463.316	21470.56
463.522	20790.64
463.727	20862.32
463.932	20684.14
464.138	20559.22
464.343	20778.35
464.549	20051.32
464.754	20800.88
464.959	20737.39
465.165	20362.61
465.37	19565.95
465.575	19166.6
465.781	19723.65
465.986	20307.32
466.191	19234.18
466.397	19051.91
466.602	17972.63
466.807	18714
467.012	18615.69
467.218	18447.76
467.423	18347.41
467.628	18505.1
467.833	19133.83
468.038	18326.93
468.244	18079.13
468.449	18699.66
468.654	18052.5
468.859	17735.07
469.064	17718.68
469.269	17311.14
469.474	17294.75
469.679	17677.72
469.885	17298.85
470.09	17403.3
470.295	17331.62
470.5	17044.9
470.705	17309.09
470.91	16860.59
471.115	16328.11
471.32	16690.6
471.525	16737.71
471.73	16108.98
471.935	16084.41
472.139	15461.82
472.344	15758.78
472.549	15594.94
472.754	15234.5
472.959	15218.11
473.164	14611.92
473.369	14556.62
473.574	15152.58
473.778	14998.98
473.983	14841.29
474.188	14769.61
474.393	14153.17
474.598	14218.71
474.802	14349.78
475.007	13987.29
475.212	14265.81
475.417	13563.36
475.621	13350.37
475.826	13477.34
476.031	13239.78
476.235	13073.89
476.44	13223.39
476.645	12903.91
476.849	13280.74
477.054	12690.92
477.259	12652.01
477.463	12703.21
477.668	12258.8
477.872	12430.83
478.077	12049.91
478.282	12033.52
478.486	11908.6
478.691	11451.9
478.895	11619.83
479.1	11890.17
479.304	11662.84
479.509	11263.49
479.713	11410.94
479.918	11392.51
480.122	11206.14
480.326	11294.21
480.531	11359.74
480.735	11003.39
480.94	11023.87
481.144	11476.48
481.348	10786.31
481.553	11001.35
481.757	10630.66
481.961	10892.8
482.166	11017.73
482.37	10806.79
482.574	10728.97
482.778	10724.87
482.983	10931.72
483.187	10751.49
483.391	11019.78
483.595	10812.93
483.8	10522.12
484.004	10886.66
484.208	10808.84
484.412	10726.92
484.616	11066.88
484.821	10962.44
485.025	10755.59
485.229	10751.49
485.433	10714.63
485.637	10812.93
485.841	10511.88
486.045	10765.83
486.249	10597.9
486.453	10440.2
486.657	10800.65
486.861	10876.42
487.065	10493.45
487.269	10671.62
487.473	10593.8
487.677	10737.16
487.881	10765.83
488.085	10763.78
488.289	10728.97
488.493	10767.88
488.697	10851.85
488.901	10884.61
489.105	10862.08
489.309	10956.29
489.512	10860.04
489.716	10694.15
489.92	11007.49
490.124	11136.51
490.328	11101.7
490.531	10845.7
490.735	11025.92
490.939	10972.68
491.143	11308.54
491.346	10913.28
491.55	11175.42
491.754	11103.75
491.958	11554.3
492.161	11355.65
492.365	11402.75
492.569	11200
492.772	11212.29
492.976	11468.28
493.18	11888.12
493.383	11804.15
493.587	11798.01
493.79	12023.28
493.994	11859.45
494.197	12135.92
494.401	12029.43
494.605	12121.59
494.808	12387.82
495.012	12097.01
495.215	12301.81
495.419	12570.09
495.622	12475.88
495.825	12686.83
496.029	12699.11
496.232	12912.1
496.436	12867.05
496.639	13376.99
496.843	13159.91
497.046	13305.31
497.249	13495.77
497.453	13714.91
497.656	13884.89
497.859	14052.82
498.063	13964.76
498.266	14243.28
498.469	14218.71
498.673	14335.44
498.876	14792.14
499.079	14894.54
499.282	14855.62
499.485	15242.69
499.689	15060.42
499.892	15519.17
500.095	15416.77
500.298	16238
500.501	15777.21
500.705	16242.1
500.908	16450.99
501.111	16502.19
501.314	16991.66
501.517	17030.57
501.72	17241.51
501.923	17067.43
502.126	17638.81
502.329	17647.01
502.532	17915.29
502.735	18267.54
502.938	18290.07
503.141	18503.06
503.344	18822.54
503.547	18972.04
503.75	19328.39
503.953	19570.05
504.156	20032.89
504.359	20315.51
504.562	20264.31
504.765	20555.12
504.968	20831.6
505.17	21034.35
505.373	21171.56
505.576	21359.97
505.779	21507.43
505.982	21892.44
506.185	22412.63
506.387	22193.5
506.59	22801.74
506.793	23088.46
506.996	23389.51
507.198	23999.8
507.401	23668.03
507.604	23842.11
507.807	24720.69
508.009	24683.83
508.212	24886.57
508.415	25296.17
508.617	25881.89
508.82	26064.16
509.022	25662.76
509.225	26801.43
509.428	26821.91
509.63	26916.11
509.833	27229.45
510.035	27938.05
510.238	28167.42
510.44	28318.97
510.643	28540.15
510.845	29025.52
511.048	28605.69
511.25	29752.55
511.453	29521.13
511.655	30952.66
511.858	30631.13
512.06	30854.36
512.262	31220.94
512.465	31147.22
512.667	31829.19
512.87	32466.11
513.072	32498.87
513.274	33172.66
513.477	33238.19
513.679	33838.25
513.881	34106.53
514.084	34196.64
514.286	34548.89
514.488	34917.53
514.69	35552.4
514.893	35814.54
515.095	36498.56
515.297	36504.7
515.499	36824.18
515.701	36889.72
515.904	37913.7
516.106	37858.41
516.308	38294.63
516.51	38982.74
516.712	38909.02
516.914	39441.49
517.116	40354.88
517.318	40414.27
517.52	40496.19
517.722	40504.38
517.925	41186.36
518.127	42017.83
518.329	42693.66
518.531	42112.04
518.733	42882.08
518.935	43619.35
519.136	43551.76
519.338	44432.39
519.54	44512.26
519.742	44985.34
519.944	45145.08
520.146	46050.28
520.348	46025.71
520.55	45913.07
520.752	46304.23
520.954	47473.62
521.155	46699.49
521.357	48063.44
521.559	48313.29
521.761	48833.47
521.963	48528.33
522.164	48888.77
522.366	49220.54
522.568	49640.37
522.77	50215.85
522.971	50654.12
523.173	50342.83
523.375	50809.76
523.576	51209.12
523.778	51088.29
523.98	51848.08
524.181	51749.78
524.383	52245.39
524.584	52683.65
524.786	52898.69
524.988	52931.46
525.189	53355.39
525.391	53894
525.592	54049.65
525.794	54412.14
525.995	54416.24
526.197	54831.97
526.398	54864.74
526.6	55092.07
526.801	55090.02
527.003	55096.16
527.204	55677.79
527.406	55917.4
527.607	56347.47
527.808	56318.8
528.01	55397.21
528.211	56023.89
528.412	57295.68
528.614	56560.46
528.815	56871.75
529.016	57789.24
529.218	57369.41
529.419	57205.57
529.62	57398.08
529.822	57443.13
530.023	57410.37
530.224	58090.29
530.425	57322.3
530.626	57328.45
530.828	57400.13
531.029	58477.36
531.23	58041.14
531.431	57905.98
531.632	58680.11
531.833	58442.54
532.035	58295.09
532.236	58878.76
532.437	58534.7
532.638	58522.41
532.839	58592.04
533.04	58850.09
533.241	58508.08
533.442	59265.83
533.643	58798.89
533.844	59065.13
534.045	59253.54
534.246	58444.59
534.447	59179.81
534.648	58958.63
534.849	59153.19
535.05	58555.18
535.251	58841.9
535.451	58751.79
535.652	59145
535.853	59157.28
536.054	59188
536.255	59192.1
536.456	58893.1
536.657	59904.79
536.857	58983.21
537.058	58891.05
537.259	59781.91
537.46	59218.72
537.66	59024.17
537.861	59204.39
538.062	59188
538.263	59648.8
538.463	59106.08
538.664	58940.2
538.865	59003.69
539.065	59474.72
539.266	58489.65
539.466	59781.91
539.667	58393.39
539.868	59491.1
540.068	59192.1
540.269	58733.35
540.469	59239.2
540.67	58868.52
540.87	59310.88
541.071	58665.77
541.271	59284.26
541.472	58999.59
541.672	58886.95
541.873	58972.97
542.073	58428.21
542.274	59480.86
542.474	58682.16
542.675	59030.31
542.875	59157.28
543.075	58938.15
543.276	58219.31
543.476	59314.98
543.676	58977.06
543.877	58880.81
544.077	58721.07
544.277	58499.89
544.478	58624.81
544.678	59046.69
544.878	58954.54
545.078	59112.23
545.279	58778.41
545.479	58585.9
545.679	58866.47
545.879	58843.94
546.079	58506.03
546.28	58608.43
546.48	58295.09
546.68	59022.12
546.88	58747.69
547.08	58598.19
547.28	58755.88
547.48	57828.15
547.68	58866.47
547.88	58278.71
548.081	58786.6
548.281	58245.94
548.481	58469.17
548.681	58684.2
548.881	58774.31
549.081	58219.31
549.28	58616.62
549.48	58850.09
549.68	58233.65
549.88	59474.72
550.08	58520.37
550.28	58534.7
550.48	58594.09
550.68	58794.79
550.88	58223.41
551.08	58344.24
551.279	58231.6
551.479	58293.04
551.679	58305.33
551.879	58344.24
552.079	58413.87
552.278	58409.78
552.478	58368.82
552.678	57629.5
552.878	58729.26
553.077	58069.81
553.277	57852.73
553.477	58676.01
553.676	57738.04
553.876	57895.74
554.076	57772.86
554.275	57836.34
554.475	57133.89
554.674	57908.02
554.874	57924.41
555.074	57633.6
555.273	57948.98
555.473	58264.37
555.672	56998.72
555.872	57455.42
556.071	57770.81
556.271	58020.66
556.47	56904.52
556.67	57666.36
556.869	57158.47
557.068	57475.9
557.268	56769.35
557.467	57400.13
557.667	57404.22
557.866	57578.3
558.065	57486.14
558.265	57000.77
558.464	56326.99
558.663	57699.13
558.863	56556.36
559.062	57500.48
559.261	56372.05
559.461	57019.2
559.66	56007.51
559.859	56560.46
560.058	56212.3
560.258	56742.73
560.457	55919.45
560.656	56623.95
560.855	56075.09
561.054	56576.84
561.253	55702.36
561.453	56312.66
561.652	56034.13
561.851	56218.45
562.05	55675.74
562.249	55720.79
562.448	56111.95
562.647	55712.6
562.846	55559
563.045	55997.27
563.244	55458.65
563.443	55847.77
563.642	55083.87
563.841	55688.02
564.04	55614.3
564.239	55769.94
564.438	55010.15
564.637	55321.44
564.836	55153.51
565.035	54545.26
565.234	55051.11
565.432	54827.88
565.631	54748.01
565.83	54987.62
566.029	54553.45
566.228	54303.6
566.427	54512.49
566.625	54297.45
566.824	53820.28
567.023	54377.32
567.222	53625.72
567.42	54614.89
567.619	53638.01
567.818	53889.91
568.016	53658.49
568.215	53875.57
568.414	53459.83
568.612	53877.62
568.811	53476.22
569.01	53580.67
569.208	52833.16
569.407	53457.79
569.605	52800.39
569.804	53181.31
570.002	52552.58
570.201	52835.2
570.4	52298.64
570.598	52099.98
570.797	52192.14
570.995	52542.34
571.193	51960.72
571.392	52648.84
571.59	51706.77
571.789	52364.17
571.987	51729.3
572.186	51983.25
572.384	51712.92
572.582	52077.46
572.781	51504.02
572.979	50840.48
573.177	51082.14
573.376	51207.07
573.574	50793.38
573.772	51319.71
573.971	50437.03
574.169	50629.54
574.367	50293.68
574.565	50877.35
574.763	50508.71
574.962	50326.44
575.16	49789.87
575.358	49869.75
575.556	49812.4
575.754	50287.53
575.952	49425.34
576.151	50135.98
576.349	49255.36
576.547	49210.3
576.745	49390.52
576.943	49089.47
577.141	48507.85
577.339	49396.66
577.537	48626.63
577.735	48567.24
577.933	48495.56
578.131	48323.53
578.329	48079.82
578.527	47817.68
578.725	47672.28
578.923	48174.03
579.121	47809.49
579.319	47582.16
579.516	47872.98
579.714	47424.47
579.912	47182.81
580.11	47289.31
580.308	47016.93
580.506	46885.86
580.704	46521.32
580.901	47016.93
581.099	46797.79
581.297	45925.36
581.495	46312.42
581.692	46281.7
581.89	45947.89
582.088	46322.66
582.285	45884.4
582.483	46363.62
582.681	45777.9
582.878	45456.37
583.076	45059.07
583.274	45296.63
583.471	44921.85
583.669	45005.82
583.866	44569.6
584.064	45032.44
584.262	44250.12
584.459	44821.5
584.657	44508.16
584.854	44602.37
585.052	43828.24
585.249	44217.35
585.447	43852.81
585.644	43736.08
585.841	43658.26
586.039	43990.03
586.236	43168.79
586.434	43275.29
586.631	43213.85
586.828	43185.18
587.026	43054.11
587.223	43119.64
587.42	42908.7
587.618	42734.62
587.815	42198.05
588.012	42361.89
588.21	42128.42
588.407	42863.64
588.604	41767.98
588.801	41860.14
588.999	42116.14
589.196	41976.87
589.393	42216.49
589.59	41456.69
589.787	41413.68
589.984	41069.62
590.182	41176.12
590.379	41323.57
590.576	41202.74
590.773	41143.35
590.97	40827.96
591.167	40719.42
591.364	40348.74
591.561	40467.52
591.758	40066.12
591.955	39783.5
592.152	40768.57
592.349	39994.44
592.546	40281.16
592.743	39976.01
592.94	39160.92
593.137	39584.85
593.334	39677.01
593.531	39130.2
593.727	39349.33
593.924	39445.58
594.121	38900.83
594.318	38933.59
594.515	38272.1
594.712	38761.56
594.908	38528.09
595.105	38526.05
595.302	38339.68
595.499	38693.98
595.696	38128.74
595.892	38138.98
596.089	38313.06
596.286	38143.08
596.482	37706.86
596.679	37516.4
596.876	37985.38
597.072	37321.84
597.269	37622.89
597.466	37178.48
597.662	37694.57
597.859	37360.75
598.055	37395.57
598.252	36543.61
598.448	36844.66
598.645	36637.82
598.841	36715.64
599.038	36666.49
599.234	36320.38
599.431	36103.3
599.627	36277.38
599.824	36271.23
600.02	36191.36
600.217	35656.84
600.413	35929.22
600.609	35581.07
600.806	35634.31
601.002	35329.17
601.198	35118.23
601.395	34991.25
601.591	34657.43
601.787	35116.18
601.984	34847.89
602.18	35171.47
602.376	34948.25
602.572	34368.67
602.769	34548.89
602.965	34235.55
603.161	34360.48
603.357	33797.29
603.553	33918.12
603.75	33895.59
603.946	33658.03
604.142	33490.09
604.338	33234.1
604.534	33305.77
604.73	33133.75
604.926	33158.32
605.122	33109.17
605.318	33008.82
605.514	32601.27
605.71	32761.01
605.906	32718.01
606.102	32756.92
606.298	32582.84
606.494	32509.11
606.69	32609.47
606.886	32625.85
607.082	31870.15
607.278	32556.22
607.474	31552.71
607.67	32050.37
607.866	31270.09
608.062	32017.6
608.257	31433.93
608.453	31491.27
608.649	31866.05
608.845	31210.7
609.041	31403.21
609.236	31558.86
609.432	31177.93
609.628	30995.67
609.824	31003.86
610.019	30657.75
610.215	30852.31
610.411	30819.54
610.606	30522.58
610.802	30579.93
610.998	30776.53
611.193	30239.97
611.389	30280.92
611.584	29768.93
611.78	29734.12
611.976	30233.82
612.171	29748.45
612.367	29594.86
612.562	29619.43
612.758	29330.67
612.953	29572.33
613.149	30067.94
613.344	29209.84
613.539	29586.66
613.735	29531.37
613.93	29027.57
614.126	29029.62
614.321	29195.5
614.517	29326.57
614.712	28986.61
614.907	28818.67
615.103	28933.36
615.298	28716.28
615.493	28970.22
615.688	28392.7
615.884	28757.24
616.079	28192
616.274	28556.53
616.47	28282.11
616.665	27987.2
616.86	28126.46
617.055	27872.51
617.25	28103.93
617.445	28353.79
617.641	27788.55
617.836	27714.82
618.031	27421.96
618.226	27694.34
618.421	27362.57
618.616	27647.24
618.811	27069.71
619.006	27346.19
619.201	26803.47
619.396	27366.67
619.591	26621.2
619.786	26590.48
619.981	26473.75
620.176	26596.63
620.371	26213.66
620.566	26066.2
620.761	26113.31
620.956	26338.58
621.151	25646.37
621.346	26023.2
621.541	25240.87
621.735	25615.65
621.93	24956.21
622.125	25079.08
622.32	24829.23
622.515	25267.5
622.709	24466.74
622.904	24913.2
623.099	24771.89
623.294	24591.67
623.488	23973.18
623.683	24438.07
623.878	23946.56
624.072	23995.71
624.267	23690.56
624.462	23713.09
624.656	23764.29
624.851	23448.9
625.046	23369.03
625.24	23283.02
625.435	22846.8
625.629	22836.56
625.824	22834.51
626.018	22625.62
626.213	22365.53
626.407	22824.27
626.602	22166.87
626.796	22211.93
626.991	22230.36
627.185	21904.73
627.38	21857.63
627.574	21706.08
627.768	21622.11
627.963	21712.22
628.157	21554.53
628.352	21495.14
628.546	21192.04
628.74	20919.66
628.935	20868.46
629.129	21065.07
629.323	20741.49
629.517	20856.17
629.712	20598.13
629.906	20473.2
630.1	20053.37
630.294	20155.77
630.489	20141.43
630.683	20235.64
630.877	19666.3
631.071	19615.1
631.265	19885.44
631.459	19731.84
631.653	19406.21
631.848	19463.55
632.042	19434.88
632.236	19328.39
632.43	18806.16
632.624	19084.68
632.818	18824.59
633.012	18744.72
633.206	18734.48
633.4	19008.9
633.594	18275.73
633.788	18509.2
633.982	18455.95
634.176	18232.72
634.369	18238.87
634.563	18304.4
634.757	18173.33
634.951	17974.68
635.145	17804.7
635.339	17624.48
635.533	17530.27
635.726	17491.36
635.92	17380.77
636.114	17327.52
636.308	17298.85
636.501	17534.37
636.695	17200.55
636.889	17063.33
637.083	16608.69
637.276	16627.12
637.47	16692.65
637.664	16481.71
637.857	16528.81
638.051	16567.73
638.244	16324.02
638.438	16592.3
638.632	16272.82
638.825	16145.84
639.019	16121.27
639.212	16029.11
639.406	16059.83
639.599	15873.46
639.793	15889.85
639.986	15379.9
640.18	15617.47
640.373	15463.87
640.567	15502.78
640.76	15445.44
640.954	15121.86
641.147	15193.54
641.34	15168.96
641.534	15195.59
641.727	14872.01
641.92	15023.56
642.114	14765.51
642.307	14716.36
642.5	14601.68
642.694	14347.73
642.887	14560.72
643.08	14448.08
643.273	14274
643.467	14130.64
643.66	14077.4
643.853	14130.64
644.046	13704.67
644.239	14077.4
644.432	13888.98
644.626	13757.91
644.819	13661.66
645.012	13667.8
645.205	13440.48
645.398	13710.81
645.591	13645.27
645.784	13235.68
645.977	13387.23
646.17	13229.54
646.363	12946.92
646.556	13110.75
646.749	12865
646.942	12705.26
647.135	12842.47
647.328	12707.3
647.521	12592.62
647.714	12400.11
647.907	12522.99
648.099	12383.73
648.292	12275.18
648.485	12279.28
648.678	12115.44
648.871	12078.58
649.064	12082.67
649.256	11890.17
649.449	11816.44
649.642	11793.91
649.835	11699.7
650.027	11587.07
650.22	11544.06
650.413	11623.93
650.605	11591.16
650.798	11652.6
650.991	11167.23
651.183	11320.83
651.376	11148.8
651.568	11189.76
651.761	11081.22
651.954	11093.51
652.146	10872.32
652.339	10923.52
652.531	10831.37
652.724	10690.06
652.916	10378.76
653.109	10468.87
653.301	10399.24
653.494	10563.08
653.686	10216.97
653.879	10348.04
654.071	10278.41
654.263	10022.42
654.456	10036.75
654.648	10014.23
654.84	9743.89
655.033	9926.16
655.225	9993.75
655.417	9657.88
655.61	9696.79
655.802	9645.59
655.994	9543.19
656.186	9633.3
656.379	9317.92
656.571	9457.18
656.763	9377.31
656.955	9252.38
657.148	9305.63
657.34	9287.2
657.532	9080.35
657.724	8961.57
657.916	8988.19
658.108	9000.48
658.3	8830.5
658.492	8883.75
658.684	8566.31
658.876	8662.57
659.068	8537.64
659.26	8398.38
659.452	8515.11
659.644	8394.28
659.836	8232.49
660.028	8371.75
660.22	8097.33
660.412	8166.96
660.604	7923.25
660.796	8039.98
660.988	7867.95
661.18	7833.14
661.372	7872.05
661.563	7796.28
661.755	7716.4
661.947	7925.3
662.139	7665.21
662.331	7484.98
662.522	7433.79
662.714	7581.24
662.906	7523.9
663.097	7304.76
663.289	7333.43
663.481	7138.88
663.673	7290.43
663.864	6987.33
664.056	6917.7
664.247	6917.7
664.439	6897.22
664.631	6907.46
664.822	6925.89
665.014	7028.29
665.205	6790.72
665.397	6782.53
665.588	6630.98
665.78	6700.61
665.971	6809.15
666.163	6485.58
666.354	6721.09
666.546	6571.59
666.737	6485.58
666.929	6358.6
667.12	6413.9
667.311	6237.77
667.503	6305.35
667.694	6340.17
667.885	6245.96
668.077	6110.8
668.268	6102.61
668.459	6143.56
668.651	6135.37
668.842	6141.52
669.033	6063.69
669.224	5989.97
669.416	5959.25
669.607	5873.23
669.798	5957.2
669.989	5918.29
670.18	5752.4
670.371	5754.45
670.563	5772.88
670.754	5738.07
670.945	5578.33
671.136	5824.08
671.327	5746.26
671.518	5645.91
671.709	5615.19
671.9	5656.15
672.091	5520.98
672.282	5492.31
672.473	5502.55
672.664	5496.41
672.855	5305.95
673.046	5525.08
673.237	5445.21
673.428	5363.29
673.619	5328.47
673.809	5396.06
674	5203.55
674.191	5277.27
674.382	5199.45
674.573	5144.16
674.764	5156.44
674.954	5140.06
675.145	5133.92
675.336	5146.2
675.527	5047.9
675.717	4953.7
675.908	4968.03
676.099	4974.17
676.289	4935.26
676.48	5095
676.671	4927.07
676.861	4953.7
677.052	4832.86
677.243	4931.17
677.433	4767.33
677.624	4877.92
677.814	4861.54
678.005	4728.42
678.195	4650.6
678.386	4910.69
678.576	4738.66
678.767	4791.91
678.957	4525.67
679.148	4646.5
679.338	4587.11
679.529	4669.03
679.719	4574.82
679.909	4646.5
680.1	4562.53
680.29	4775.52
680.481	4722.27
680.671	4662.88
680.861	4677.22
681.052	4576.87
681.242	4408.94
681.432	4654.69
681.622	4583.01
681.813	4583.01
682.003	4345.45
682.193	4363.88
682.383	4451.94
682.573	4476.52
682.764	4382.31
682.954	4474.47
683.144	4341.35
683.334	4322.92
683.524	4505.19
683.714	4447.85
683.904	4367.98
684.094	4431.46
684.284	4243.05
684.474	4357.74
684.664	4306.54
684.854	4157.04
685.044	4179.56
685.234	4224.62
685.424	4210.28
685.614	4363.88
685.804	4259.43
685.994	4189.8
686.184	4322.92
686.374	4267.63
686.564	4118.12
686.753	4181.61
686.943	4146.8
687.133	4157.04
687.323	4269.67
687.513	4224.62
687.702	4114.03
687.892	4288.11
688.082	4296.3
688.272	4224.62
688.461	4091.5
688.651	4050.54
688.841	4116.08
689.03	4136.56
689.22	4021.87
689.41	4056.68
689.599	4222.57
689.789	4142.7
689.979	4148.84
690.168	4191.85
690.358	4107.88
690.547	4068.97
690.737	4175.47
690.926	4122.22
691.116	3954.29
691.305	4058.73
691.495	4013.68
691.684	4085.36
691.874	4157.04
692.063	4107.88
692.252	4124.27
692.442	3962.48
692.631	4105.84
692.82	4066.92
693.01	3896.94
693.199	4107.88
693.388	3942
693.578	4019.82
693.767	4054.64
693.956	3948.14
694.146	3911.28
694.335	3864.18
694.524	3929.71
694.713	4028.01
694.902	3958.38
695.092	3989.1
695.281	3894.9
695.47	3964.53
695.659	3919.47
695.848	3929.71
696.037	3774.07
696.226	3911.28
696.415	3769.97
696.604	3868.27
696.793	3962.48
696.982	3958.38
697.171	3997.29
697.36	3868.27
697.549	3759.73
697.738	3952.24
697.927	3901.04
698.116	3954.29
698.305	3798.64
698.494	3882.61
698.683	3882.61
698.872	3823.22
699.061	3835.5
699.25	3755.63
699.438	3755.63
699.627	3812.98
699.816	3710.58
700.005	3710.58
700.193	3755.63
700.382	3784.3
700.571	3614.32
700.76	3696.24
700.948	3534.45
701.137	3679.86
701.326	3716.72
701.514	3683.95
701.703	3776.11
701.892	3583.6
702.08	3681.91
702.269	3546.74
702.457	3505.78
702.646	3483.25
702.834	3612.28
703.023	3571.32
703.212	3522.16
703.4	3346.04
703.589	3411.57
703.777	3530.36
703.965	3321.46
704.154	3561.08
704.342	3384.95
704.531	3505.78
704.719	3407.48
704.907	3358.33
705.096	3184.25
705.284	3346.04
705.472	3317.37
705.661	3212.92
705.849	3276.41
706.037	3217.02
706.226	3475.06
706.414	3352.18
706.602	3319.42
706.79	3176.06
706.979	3337.85
707.167	3124.86
707.355	3276.41
707.543	3284.6
707.731	3221.11
707.919	3257.98
708.107	3108.48
708.296	3223.16
708.484	3098.24
708.672	3147.39
708.86	3030.65
709.048	3157.63
709.236	3108.48
709.424	3071.61
709.612	3112.57
709.8	3018.36
709.988	2895.49
710.176	3042.94
710.364	3014.27
710.551	3001.98
710.739	2977.41
710.927	2823.81
711.115	2961.02
711.303	2981.5
711.491	2928.25
711.679	2852.48
711.866	2958.97
712.054	2764.42
712.242	2782.85
712.43	2870.91
712.617	2797.18
712.805	2741.89
712.993	2725.51
713.181	2881.15
713.368	2817.66
713.556	2848.38
713.744	2815.62
713.931	2809.47
714.119	2727.55
714.306	2770.56
714.494	2670.21
714.682	2674.31
714.869	2625.15
715.057	2604.67
715.244	2621.06
715.432	2561.67
715.619	2596.48
715.807	2639.49
715.994	2713.22
716.182	2604.67
716.369	2616.96
716.556	2496.13
716.744	2569.86
716.931	2502.28
717.119	2489.99
717.306	2489.99
717.493	2461.32
717.681	2563.72
717.868	2508.42
718.055	2465.41
718.242	2393.73
718.43	2551.43
718.617	2358.92
718.804	2479.75
718.991	2375.3
719.179	2330.25
719.366	2403.97
719.553	2428.55
719.74	2287.24
719.927	2289.29
720.114	2354.82
720.301	2305.67
720.488	2225.8
720.676	2363.01
720.863	2350.73
721.05	2197.13
721.237	2201.23
721.424	2201.23
721.611	2274.95
721.798	2154.12
721.985	2180.75
722.172	2207.37
722.358	2174.6
722.545	2176.65
722.732	2072.2
722.919	2078.35
723.106	2100.87
723.293	2078.35
723.48	2037.39
723.667	2127.5
723.853	2059.92
724.04	2047.63
724.227	2043.53
724.414	2107.02
724.6	2039.44
724.787	1996.43
724.974	2035.34
725.161	2029.2
725.347	1980.04
725.534	2051.72
725.72	1937.04
725.907	1998.48
726.094	2057.87
726.28	2000.52
726.467	1906.32
726.653	1834.64
726.84	2018.96
727.027	1857.17
727.213	1822.35
727.4	1961.61
727.586	1820.3
727.773	1910.41
727.959	1851.02
728.145	1881.74
728.332	1863.31
728.518	1859.21
728.705	1867.41
728.891	1785.49
729.077	1879.69
729.264	1746.58
729.45	1791.63
729.636	1842.83
729.823	1623.7
730.009	1767.06
730.195	1713.81
730.382	1742.48
730.568	1812.11
730.754	1685.14
730.94	1601.17
731.126	1623.7
731.313	1676.95
731.499	1746.58
731.685	1742.48
731.871	1670.8
732.057	1674.9
732.243	1707.66
732.429	1625.75
732.615	1670.8
732.801	1572.5
732.987	1535.64
733.173	1601.17
733.359	1562.26
733.545	1633.94
733.731	1568.4
733.917	1592.98
734.103	1592.98
734.289	1629.84
734.475	1576.59
734.661	1549.97
734.847	1623.7
735.033	1531.54
735.219	1535.64
735.404	1443.48
735.59	1511.06
735.776	1504.92
735.962	1425.04
736.148	1539.73
736.333	1511.06
736.519	1535.64
736.705	1490.58
736.89	1560.21
737.076	1523.35
737.262	1371.8
737.447	1482.39
737.633	1468.05
737.819	1429.14
738.004	1408.66
738.19	1390.23
738.375	1373.85
738.561	1416.85
738.747	1488.53
738.932	1328.79
739.118	1398.42
739.303	1408.66
739.489	1308.31
739.674	1316.5
739.859	1400.47
740.045	1384.09
740.23	1390.23
740.416	1353.37
740.601	1343.13
740.786	1334.93
740.972	1302.17
741.157	1334.93
741.342	1240.73
741.528	1298.07
741.713	1318.55
741.898	1265.3
742.084	1253.02
742.269	1285.78
742.454	1244.82
742.639	1308.31
742.824	1281.69
743.01	1240.73
743.195	1205.91
743.38	1289.88
743.565	1244.82
743.75	1253.02
743.935	1115.8
744.12	1162.9
744.305	1253.02
744.49	1185.43
744.675	1203.86
744.86	1193.62
745.045	1201.82
745.23	1203.86
745.415	1087.13
745.6	1158.81
745.785	1134.23
745.97	1171.1
746.155	1054.36
746.34	1171.1
746.525	1158.81
746.71	1123.99
746.895	1138.33
747.079	1025.69
747.264	1044.12
747.449	992.92
747.634	1027.74
747.819	1027.74
748.003	1074.84
748.188	1119.9
748.373	1076.89
748.557	1099.42
748.742	1023.64
748.927	958.11
749.111	1089.18
749.296	970.4
749.481	1003.16
749.665	962.2
749.85	1056.41
750.034	964.25
750.219	1068.7
750.404	941.72
750.588	1040.03
750.773	929.44
750.957	943.77
751.141	921.24
751.326	839.33
751.51	982.68
751.695	958.11
751.879	931.48
752.064	921.24
752.248	972.44
752.432	839.33
752.617	886.43
752.801	994.97
752.985	923.29
753.17	962.2
753.354	827.04
753.538	872.09
753.722	839.33
753.907	894.62
754.091	847.52
754.275	898.72
754.459	857.76
754.643	849.57
754.828	779.93
755.012	888.48
755.196	874.14
755.38	843.42
755.564	872.09
755.748	874.14
755.932	872.09
756.116	847.52
756.3	751.26
756.484	784.03
756.668	824.99
756.852	798.37
757.036	757.41
757.22	728.74
757.404	741.02
757.588	751.26
757.772	720.54
757.956	839.33
758.14	695.97
758.323	779.93
758.507	796.32
758.691	734.88
758.875	749.22
759.059	816.8
759.242	665.25
759.426	675.49
759.61	763.55
759.794	745.12
759.977	745.12
760.161	757.41
760.345	702.11
760.528	671.39
760.712	609.95
760.895	700.06
761.079	642.72
761.263	663.2
761.446	554.66
761.63	644.77
761.813	640.67
761.997	652.96
762.18	695.97
762.364	591.52
762.547	612
762.731	691.87
762.914	609.95
763.098	568.99
763.281	642.72
763.464	675.49
763.648	671.39
763.831	593.57
764.015	609.95
764.198	612
764.381	612
764.564	636.58
764.748	624.29
764.931	618.15
765.114	673.44
765.297	644.77
765.481	554.66
765.664	620.19
765.847	603.81
766.03	650.91
766.213	530.08
766.397	595.62
766.58	519.84
766.763	581.28
766.946	525.99
767.129	548.51
767.312	523.94
767.495	521.89
767.678	589.47
767.861	632.48
768.044	487.08
768.227	640.67
768.41	603.81
768.593	587.43
768.776	521.89
768.959	548.51
769.142	630.43
769.324	548.51
769.507	462.5
769.69	591.52
769.873	603.81
770.056	499.36
770.239	556.71
770.421	564.9
770.604	530.08
770.787	528.03
770.97	468.64
771.152	495.27
771.335	542.37
771.518	554.66
771.7	591.52
771.883	603.81
772.066	511.65
772.248	491.17
772.431	620.19
772.613	542.37
772.796	528.03
772.978	532.13
773.161	509.6
773.343	509.6
773.526	513.7
773.708	515.75
773.891	472.74
774.073	577.19
774.256	435.88
774.438	577.19
774.621	452.26
774.803	550.56
774.985	458.4
775.168	568.99
775.35	485.03
775.532	487.08
775.715	462.5
775.897	503.46
776.079	474.79
776.261	466.6
776.444	415.4
776.626	442.02
776.808	562.85
776.99	458.4
777.173	425.64
777.355	472.74
777.537	456.36
777.719	362.15
777.901	505.51
778.083	403.11
778.265	429.73
778.447	417.44
778.629	454.31
778.811	403.11
778.993	413.35
779.175	454.31
779.357	491.17
779.539	382.63
779.721	435.88
779.903	444.07
780.085	384.68
780.267	364.2
780.449	421.54
780.631	360.1
780.812	439.97
780.994	413.35
781.176	384.68
781.358	358.05
781.54	351.91
781.721	372.39
781.903	337.57
782.085	396.96
782.267	339.62
782.448	364.2
782.63	370.34
782.812	372.39
782.993	294.57
783.175	349.86
783.357	390.82
783.538	327.33
783.72	321.19
783.901	313
784.083	321.19
784.264	380.58
784.446	265.89
784.627	286.37
784.809	358.05
784.99	345.77
785.172	298.66
785.353	313
785.535	315.05
785.716	351.91
785.897	247.46
786.079	343.72
786.26	358.05
786.441	337.57
786.623	310.95
786.804	286.37
786.985	333.48
787.167	261.8
787.348	310.95
787.529	337.57
787.71	190.12
787.891	276.13
788.073	317.09
788.254	343.72
788.435	239.27
788.616	321.19
788.797	253.61
788.978	237.22
789.159	237.22
789.34	306.85
789.522	224.94
789.703	243.37
789.884	306.85
790.065	298.66
790.246	339.62
790.427	267.94
790.607	341.67
790.788	263.85
790.969	247.46
791.15	224.94
791.331	298.66
791.512	220.84
791.693	249.51
791.874	310.95
792.054	284.33
792.235	290.47
792.416	290.47
792.597	229.03
792.778	255.65
792.958	282.28
793.139	206.5
793.32	263.85
793.5	163.5
793.681	161.45
793.862	177.83
794.042	218.79
794.223	134.82
794.404	278.18
794.584	261.8
794.765	194.22
794.945	147.11
795.126	218.79
795.306	188.07
795.487	247.46
795.667	155.3
795.848	265.89
796.028	229.03
796.209	249.51
796.389	134.82
796.57	171.69
796.75	237.22
796.93	261.8
797.111	151.21
797.291	183.98
797.471	255.65
797.652	245.41
797.832	257.7
798.012	224.94
798.192	210.6
798.373	200.36
798.553	177.83
798.733	212.65
798.913	155.3
799.093	237.22
799.274	218.79
799.454	192.17
799.634	220.84
799.814	226.98
799.994	245.41
800.174	151.21
800.354	212.65
800.534	233.13
800.714	206.5
800.894	214.7
801.074	177.83
801.254	204.46
801.434	188.07
801.614	110.25
801.794	196.26
801.974	384.68
802.154	200.36
802.334	155.3
802.514	261.8
802.693	153.26
802.873	134.82
803.053	126.63
803.233	132.78
803.413	214.7
803.592	157.35
803.772	138.92
803.952	128.68
804.131	165.54
804.311	159.4
804.491	151.21
804.67	114.34
804.85	118.44
805.03	165.54
805.209	204.46
805.389	104.11
805.568	181.93
805.748	114.34
805.928	143.02
806.107	192.17
806.287	122.54
806.466	132.78
806.646	194.22
806.825	143.02
807.004	153.26
807.184	157.35
807.363	159.4
807.543	173.74
807.722	198.31
807.901	112.3
808.081	194.22
808.26	112.3
808.439	147.11
808.619	155.3
808.798	126.63
808.977	169.64
809.156	140.97
809.336	114.34
809.515	79.53
809.694	179.88
809.873	190.12
810.052	175.78
810.231	138.92
810.411	97.96
810.59	108.2
810.769	71.34
810.948	140.97
811.127	48.81
811.306	89.77
811.485	138.92
811.664	118.44
811.843	155.3
812.022	36.52
812.201	140.97
812.38	102.06
812.559	87.72
812.737	177.83
812.916	93.87
813.095	138.92
813.274	102.06
813.453	108.2
813.632	110.25
813.811	157.35
813.989	169.64
814.168	128.68
814.347	136.87
814.526	108.2
814.704	93.87
814.883	110.25
815.062	52.91
815.24	108.2
815.419	151.21
815.598	69.29
815.776	48.81
815.955	151.21
816.133	102.06
816.312	145.06
816.49	71.34
816.669	104.11
816.847	34.47
817.026	112.3
817.204	77.48
817.383	91.82
817.561	100.01
817.74	128.68
817.918	134.82
818.097	124.58
818.275	63.15
818.453	75.43
818.632	83.63
818.81	85.67
818.988	87.72
819.167	120.49
819.345	89.77
819.523	54.95
819.701	95.91
819.879	52.91
820.058	118.44
820.236	126.63
820.414	100.01
820.592	28.33
820.77	126.63
820.948	52.91
821.127	87.72
821.305	87.72
821.483	91.82
821.661	106.15
821.839	112.3
822.017	11.95
822.195	106.15
822.373	77.48
822.551	44.71
822.729	151.21
822.907	116.39
823.085	91.82
823.262	110.25
823.44	149.16
823.618	67.24
823.796	118.44
823.974	52.91
824.152	122.54
824.329	87.72
824.507	122.54
824.685	169.64
824.863	85.67
825.04	48.81
825.218	97.96
825.396	132.78
825.574	61.1
825.751	34.47
825.929	100.01
826.107	48.81
826.284	112.3
826.462	24.23
826.639	83.63
826.817	36.52
826.994	63.15
827.172	36.52
827.349	87.72
827.527	83.63
827.704	97.96
827.882	71.34
828.059	61.1
828.237	106.15
828.414	83.63
828.591	65.19
828.769	118.44
828.946	61.1
829.124	69.29
829.301	9.9
829.478	73.39
829.655	97.96
829.833	91.82
830.01	61.1
830.187	159.4
830.364	54.95
830.542	155.3
830.719	40.62
830.896	59.05
831.073	30.38
831.25	71.34
831.427	112.3
831.604	-0.34
831.782	57
831.959	87.72
832.136	52.91
832.313	16.04
832.49	36.52
832.667	61.1
832.844	26.28
833.021	153.26
833.198	59.05
833.374	18.09
833.551	73.39
833.728	77.48
833.905	61.1
834.082	63.15
834.259	93.87
834.436	65.19
834.612	13.99
834.789	20.14
834.966	28.33
835.143	11.95
835.319	75.43
835.496	44.71
835.673	36.52
835.85	81.58
836.026	93.87
836.203	16.04
836.38	61.1
836.556	16.04
836.733	30.38
836.909	65.19
837.086	126.63
837.262	52.91
837.439	48.81
837.616	38.57
837.792	36.52
837.968	34.47
838.145	20.14
838.321	40.62
838.498	65.19
838.674	48.81
838.851	75.43
839.027	44.71
839.203	59.05
839.38	52.91
839.556	69.29
839.732	50.86
839.909	40.62
840.085	75.43
840.261	46.76
840.437	28.33
840.614	32.43
840.79	5.8
840.966	24.23
841.142	59.05
841.318	44.71
841.494	18.09
841.671	52.91
841.847	46.76
842.023	-6.49
842.199	79.53
842.375	38.57
842.551	-2.39
842.727	81.58
842.903	116.39
843.079	46.76
843.255	9.9
843.431	118.44
843.607	46.76
843.783	-6.49
843.959	73.39
844.134	87.72
844.31	93.87
844.486	3.75
844.662	71.34
844.838	65.19
845.013	11.95
845.189	42.67
845.365	40.62
845.541	57
845.716	-61.78
845.892	52.91
846.068	22.19
846.244	69.29
846.419	44.71
846.595	1.71
846.77	77.48
846.946	75.43
847.122	-2.39
847.297	91.82
847.473	32.43
847.648	-45.4
847.824	57
847.999	-65.88
848.175	13.99
848.35	20.14
848.526	69.29
848.701	40.62
848.876	63.15
849.052	-8.53
849.227	9.9
849.403	30.38
849.578	118.44
849.753	57
849.929	73.39
850.104	59.05
850.279	11.95
850.454	16.04
850.63	32.43
850.805	30.38
850.98	91.82
851.155	73.39
851.33	79.53
851.505	24.23
851.681	85.67
851.856	-33.11
852.031	3.75
852.206	-29.01
852.381	16.04
852.556	44.71
852.731	67.24
852.906	52.91
853.081	46.76
853.256	104.11
853.431	36.52
853.606	-86.36
853.781	5.8
853.956	18.09
854.131	3.75
854.305	46.76
854.48	116.39
854.655	120.49
854.83	36.52
855.005	57
855.18	79.53
855.354	73.39
855.529	75.43
855.704	-31.06
855.879	24.23
856.053	-16.73
856.228	71.34
856.403	-2.39
856.577	54.95
856.752	69.29
856.926	-6.49
857.101	-0.34
857.276	50.86
857.45	44.71
857.625	-29.01
857.799	67.24
857.974	13.99
858.148	9.9
858.323	79.53
858.497	3.75
858.672	36.52
858.846	50.86
859.02	59.05
859.195	71.34
859.369	20.14
859.543	-6.49
859.718	30.38
859.892	44.71
860.066	-35.16
860.241	34.47
860.415	71.34
860.589	-16.73
860.763	-10.58
860.938	44.71
861.112	13.99
861.286	54.95
861.46	38.57
861.634	67.24
861.808	50.86
861.982	63.15
862.157	-61.78
862.331	52.91
862.505	20.14
862.679	-24.92
862.853	9.9
863.027	69.29
863.201	30.38
863.375	13.99
863.549	63.15
863.722	13.99
863.896	87.72
864.07	20.14
864.244	-24.92
864.418	42.67
864.592	24.23
864.766	38.57
864.939	-4.44
865.113	-37.2
865.287	77.48
865.461	38.57
865.634	-0.34
865.808	46.76
865.982	52.91
866.156	-2.39
866.329	34.47
866.503	61.1
866.676	40.62
866.85	65.19
867.024	61.1
867.197	-22.87
867.371	36.52
867.544	48.81
867.718	30.38
867.891	1.71
868.065	-41.3
868.238	-0.34
868.412	44.71
868.585	40.62
868.759	9.9
868.932	13.99
869.105	-2.39
869.279	32.43
869.452	30.38
869.625	-14.68
869.799	57
869.972	63.15
870.145	-24.92
870.319	-22.87
870.492	50.86
870.665	26.28
870.838	34.47
871.011	7.85
871.185	-10.58
871.358	13.99
871.531	5.8
871.704	-6.49
871.877	30.38
872.05	11.95
872.223	36.52
872.396	-55.64
872.569	79.53
872.742	26.28
872.915	102.06
873.088	-18.77
873.261	5.8
873.434	3.75
873.607	18.09
873.78	18.09
873.953	-2.39
874.126	26.28
874.299	116.39
874.471	46.76
874.644	40.62
874.817	52.91
874.99	52.91
875.163	-55.64
875.335	69.29
875.508	16.04
875.681	95.91
875.853	-24.92
876.026	71.34
876.199	34.47
876.371	63.15
876.544	-0.34
876.717	3.75
876.889	136.87
877.062	-29.01
877.234	11.95
877.407	38.57
877.579	3.75
877.752	-12.63
877.924	36.52
878.097	38.57
878.269	-10.58
878.442	102.06
878.614	-12.63
878.786	-22.87
878.959	-59.73
879.131	-0.34
879.303	-10.58
879.476	1.71
879.648	-4.44
879.82	89.77
879.993	46.76
880.165	20.14
880.337	34.47
880.509	20.14
880.681	28.33
880.854	52.91
881.026	-24.92
881.198	54.95
881.37	52.91
881.542	-2.39
881.714	42.67
881.886	44.71
882.058	73.39
882.23	-33.11
882.402	-10.58
882.574	-4.44
882.746	48.81
882.918	46.76
883.09	-29.01
883.262	36.52
883.434	5.8
883.606	85.67
883.778	9.9
883.95	71.34
884.122	-16.73
884.293	30.38
884.465	-10.58
884.637	13.99
884.809	-18.77
884.98	24.23
885.152	3.75
885.324	95.91
885.496	26.28
885.667	28.33
885.839	57
886.011	26.28
886.182	16.04
886.354	24.23
886.525	5.8
886.697	22.19
886.869	-22.87
887.04	59.05
887.212	5.8
887.383	52.91
887.555	40.62
887.726	-10.58
887.897	-10.58
888.069	34.47
888.24	24.23
888.412	3.75
888.583	16.04
888.754	9.9
888.926	9.9
889.097	32.43
889.268	87.72
889.44	22.19
889.611	22.19
889.782	-6.49
889.953	1.71
890.125	97.96
890.296	67.24
890.467	11.95
890.638	-20.82
890.809	36.52
890.98	57
891.151	91.82
891.323	57
891.494	85.67
891.665	20.14
891.836	7.85
892.007	85.67
892.178	18.09
892.349	-22.87
892.52	30.38
892.691	5.8
892.862	-10.58
893.032	24.23
893.203	5.8
893.374	-18.77
893.545	48.81
893.716	104.11
893.887	38.57
894.057	1.71
894.228	-24.92
894.399	-41.3
894.57	89.77
894.74	-4.44
894.911	59.05
895.082	38.57
895.253	95.91
895.423	-0.34
895.594	36.52
895.764	7.85
895.935	46.76
896.106	5.8
896.276	97.96
896.447	52.91
896.617	-10.58
896.788	24.23
896.958	-18.77
897.129	32.43
897.299	24.23
897.47	-41.3
897.64	-33.11
897.81	-18.77
897.981	20.14
898.151	-0.34
898.322	20.14
898.492	81.58
898.662	11.95
898.832	26.28
899.003	69.29
899.173	67.24
899.343	-33.11
899.513	13.99
