Data from USB4F104151__269__14-02-07-241.txt Node

Date: Thu Mar 13 14:02:07 EDT 2025
User: louis
Spectrometer: USB4F10415
Trigger mode: 4
Integration Time (sec): 1.000000E-2
Scans to average: 1
Electric dark correction enabled: true
Nonlinearity correction enabled: false
Boxcar width: 0
XAxis mode: Wavelengths
Number of Pixels in Spectrum: 3648
>>>>>Begin Spectral Data<<<<<
178.204	-42.67
178.424	-42.67
178.644	-42.67
178.864	-50.86
179.084	-1.71
179.304	-9.9
179.524	-20.14
179.744	-24.23
179.964	43.35
180.184	-54.95
180.404	55.64
180.624	12.63
180.844	-24.23
181.064	41.3
181.283	53.59
181.503	-28.33
181.723	-44.71
181.943	-38.57
182.163	43.35
182.383	33.11
182.602	51.54
182.822	31.06
183.042	90.45
183.262	55.64
183.482	49.49
183.701	-20.14
183.921	-40.62
184.141	-59.05
184.361	-13.99
184.58	55.64
184.8	41.3
185.02	24.92
185.239	51.54
185.459	102.74
185.679	108.88
185.898	-20.14
186.118	20.82
186.338	51.54
186.557	12.63
186.777	51.54
186.997	20.82
187.216	84.31
187.436	31.06
187.655	29.01
187.875	10.58
188.095	67.92
188.314	18.77
188.534	108.88
188.753	24.92
188.973	39.25
189.192	18.77
189.412	31.06
189.631	-34.47
189.851	26.96
190.07	59.73
190.29	76.12
190.509	39.25
190.729	-1.71
190.948	8.53
191.168	51.54
191.387	35.16
191.607	82.26
191.826	-5.8
192.045	41.3
192.265	-9.9
192.484	33.11
192.704	6.49
192.923	76.12
193.142	53.59
193.362	18.77
193.581	4.44
193.8	33.11
194.02	90.45
194.239	59.73
194.458	76.12
194.678	-59.05
194.897	18.77
195.116	67.92
195.335	59.73
195.555	94.55
195.774	2.39
195.993	-46.76
196.212	14.68
196.432	63.83
196.651	49.49
196.87	29.01
197.089	24.92
197.308	-18.09
197.528	-16.04
197.747	10.58
197.966	51.54
198.185	31.06
198.404	74.07
198.623	43.35
198.842	18.77
199.062	51.54
199.281	59.73
199.5	10.58
199.719	4.44
199.938	63.83
200.157	43.35
200.376	-32.43
200.595	74.07
200.814	102.74
201.033	4.44
201.252	-28.33
201.471	53.59
201.69	10.58
201.909	18.77
202.128	24.92
202.347	82.26
202.566	14.68
202.785	-16.04
203.004	10.58
203.223	22.87
203.442	-13.99
203.661	41.3
203.879	37.2
204.098	-22.19
204.317	-18.09
204.536	96.6
204.755	78.16
204.974	-28.33
205.193	65.88
205.411	-9.9
205.63	18.77
205.849	55.64
206.068	72.02
206.287	22.87
206.505	-36.52
206.724	-5.8
206.943	-5.8
207.162	29.01
207.381	76.12
207.599	51.54
207.818	129.36
208.037	18.77
208.255	74.07
208.474	12.63
208.693	-5.8
208.911	43.35
209.13	-3.75
209.349	-40.62
209.567	26.96
209.786	88.4
210.005	-13.99
210.223	67.92
210.442	43.35
210.661	45.4
210.879	33.11
211.098	61.78
211.316	92.5
211.535	117.08
211.753	78.16
211.972	4.44
212.191	10.58
212.409	10.58
212.628	-16.04
212.846	33.11
213.065	88.4
213.283	10.58
213.502	20.82
213.72	39.25
213.938	-5.8
214.157	24.92
214.375	45.4
214.594	55.64
214.812	24.92
215.031	59.73
215.249	-69.29
215.467	-28.33
215.686	8.53
215.904	37.2
216.122	-11.95
216.341	35.16
216.559	26.96
216.778	63.83
216.996	35.16
217.214	76.12
217.432	-1.71
217.651	-5.8
217.869	10.58
218.087	18.77
218.306	22.87
218.524	47.44
218.742	41.3
218.96	4.44
219.179	59.73
219.397	2.39
219.615	43.35
219.833	78.16
220.051	-28.33
220.27	37.2
220.488	65.88
220.706	51.54
220.924	-52.91
221.142	18.77
221.36	37.2
221.578	41.3
221.796	-13.99
222.015	51.54
222.233	53.59
222.451	53.59
222.669	31.06
222.887	51.54
223.105	-9.9
223.323	-40.62
223.541	6.49
223.759	12.63
223.977	43.35
224.195	-3.75
224.413	90.45
224.631	76.12
224.849	-7.85
225.067	43.35
225.285	14.68
225.503	61.78
225.721	10.58
225.939	31.06
226.157	8.53
226.375	12.63
226.592	94.55
226.81	24.92
227.028	-1.71
227.246	53.59
227.464	43.35
227.682	61.78
227.9	33.11
228.117	-52.91
228.335	49.49
228.553	37.2
228.771	6.49
228.989	43.35
229.206	12.63
229.424	24.92
229.642	0.34
229.86	6.49
230.077	20.82
230.295	-28.33
230.513	22.87
230.731	-9.9
230.948	6.49
231.166	43.35
231.384	12.63
231.601	6.49
231.819	94.55
232.037	51.54
232.254	-9.9
232.472	41.3
232.689	72.02
232.907	-7.85
233.125	12.63
233.342	96.6
233.56	-16.04
233.777	-46.76
233.995	67.92
234.213	45.4
234.43	-38.57
234.648	63.83
234.865	47.44
235.083	29.01
235.3	29.01
235.518	-44.71
235.735	26.96
235.953	49.49
236.17	-3.75
236.388	-24.23
236.605	72.02
236.822	45.4
237.04	4.44
237.257	84.31
237.475	69.97
237.692	0.34
237.909	78.16
238.127	72.02
238.344	37.2
238.562	12.63
238.779	-18.09
238.996	29.01
239.214	10.58
239.431	53.59
239.648	0.34
239.865	4.44
240.083	12.63
240.3	35.16
240.517	41.3
240.735	8.53
240.952	14.68
241.169	67.92
241.386	35.16
241.603	43.35
241.821	35.16
242.038	72.02
242.255	26.96
242.472	-5.8
242.689	-48.81
242.907	82.26
243.124	47.44
243.341	20.82
243.558	-3.75
243.775	72.02
243.992	18.77
244.209	35.16
244.426	35.16
244.643	57.68
244.86	-38.57
245.078	41.3
245.295	2.39
245.512	76.12
245.729	59.73
245.946	20.82
246.163	26.96
246.38	47.44
246.597	29.01
246.814	-9.9
247.031	100.69
247.248	-22.19
247.464	18.77
247.681	12.63
247.898	37.2
248.115	4.44
248.332	-20.14
248.549	59.73
248.766	112.98
248.983	53.59
249.2	-16.04
249.417	35.16
249.633	14.68
249.85	65.88
250.067	-20.14
250.284	63.83
250.501	-13.99
250.717	33.11
250.934	39.25
251.151	-26.28
251.368	14.68
251.585	55.64
251.801	51.54
252.018	22.87
252.235	-1.71
252.451	10.58
252.668	33.11
252.885	117.08
253.102	69.97
253.318	33.11
253.535	12.63
253.752	12.63
253.968	35.16
254.185	53.59
254.401	18.77
254.618	24.92
254.835	26.96
255.051	29.01
255.268	0.34
255.484	24.92
255.701	6.49
255.917	-36.52
256.134	53.59
256.351	18.77
256.567	2.39
256.784	102.74
257	-5.8
257.217	10.58
257.433	10.58
257.65	43.35
257.866	55.64
258.082	55.64
258.299	-24.23
258.515	51.54
258.732	61.78
258.948	78.16
259.165	37.2
259.381	51.54
259.597	57.68
259.814	45.4
260.03	84.31
260.246	18.77
260.463	33.11
260.679	-3.75
260.895	112.98
261.112	59.73
261.328	67.92
261.544	39.25
261.761	-1.71
261.977	-30.38
262.193	41.3
262.409	-13.99
262.626	92.5
262.842	59.73
263.058	-34.47
263.274	8.53
263.49	96.6
263.707	41.3
263.923	76.12
264.139	12.63
264.355	39.25
264.571	86.36
264.787	22.87
265.004	-18.09
265.22	47.44
265.436	26.96
265.652	33.11
265.868	92.5
266.084	26.96
266.3	2.39
266.516	-42.67
266.732	18.77
266.948	-30.38
267.164	33.11
267.38	41.3
267.596	78.16
267.812	69.97
268.028	31.06
268.244	26.96
268.46	61.78
268.676	65.88
268.892	59.73
269.108	39.25
269.324	-5.8
269.54	-13.99
269.756	37.2
269.972	39.25
270.188	24.92
270.403	-11.95
270.619	33.11
270.835	14.68
271.051	37.2
271.267	-13.99
271.483	78.16
271.698	12.63
271.914	39.25
272.13	33.11
272.346	-40.62
272.562	61.78
272.777	2.39
272.993	26.96
273.209	57.68
273.425	-18.09
273.64	84.31
273.856	-26.28
274.072	26.96
274.287	49.49
274.503	35.16
274.719	-11.95
274.934	-52.91
275.15	-3.75
275.366	24.92
275.581	-5.8
275.797	35.16
276.012	47.44
276.228	47.44
276.444	22.87
276.659	61.78
276.875	29.01
277.09	69.97
277.306	6.49
277.521	43.35
277.737	90.45
277.952	-22.19
278.168	-1.71
278.383	16.73
278.599	-20.14
278.814	104.79
279.03	18.77
279.245	39.25
279.461	-9.9
279.676	22.87
279.892	-57
280.107	-3.75
280.322	29.01
280.538	51.54
280.753	53.59
280.969	2.39
281.184	82.26
281.399	78.16
281.615	100.69
281.83	35.16
282.045	-18.09
282.26	121.17
282.476	76.12
282.691	10.58
282.906	-11.95
283.122	31.06
283.337	14.68
283.552	67.92
283.767	108.88
283.983	31.06
284.198	35.16
284.413	86.36
284.628	10.58
284.843	18.77
285.058	43.35
285.274	26.96
285.489	43.35
285.704	41.3
285.919	53.59
286.134	8.53
286.349	-32.43
286.564	59.73
286.779	31.06
286.995	18.77
287.21	72.02
287.425	24.92
287.64	14.68
287.855	90.45
288.07	24.92
288.285	92.5
288.5	47.44
288.715	2.39
288.93	86.36
289.145	-5.8
289.36	88.4
289.575	41.3
289.79	16.73
290.004	2.39
290.219	49.49
290.434	57.68
290.649	72.02
290.864	29.01
291.079	-5.8
291.294	61.78
291.509	86.36
291.724	-1.71
291.938	10.58
292.153	2.39
292.368	-20.14
292.583	104.79
292.798	10.58
293.012	53.59
293.227	63.83
293.442	-24.23
293.657	65.88
293.871	123.22
294.086	63.83
294.301	72.02
294.516	41.3
294.73	12.63
294.945	51.54
295.16	2.39
295.374	65.88
295.589	123.22
295.804	55.64
296.018	18.77
296.233	49.49
296.447	18.77
296.662	51.54
296.877	74.07
297.091	14.68
297.306	94.55
297.52	53.59
297.735	55.64
297.949	4.44
298.164	72.02
298.378	29.01
298.593	41.3
298.807	-16.04
299.022	100.69
299.236	29.01
299.451	43.35
299.665	76.12
299.88	-11.95
300.094	16.73
300.309	115.03
300.523	51.54
300.737	29.01
300.952	8.53
301.166	-11.95
301.381	14.68
301.595	82.26
301.809	43.35
302.024	76.12
302.238	-13.99
302.452	31.06
302.667	-40.62
302.881	94.55
303.095	121.17
303.309	-30.38
303.524	43.35
303.738	29.01
303.952	59.73
304.166	10.58
304.381	47.44
304.595	43.35
304.809	-42.67
305.023	31.06
305.237	20.82
305.452	76.12
305.666	-38.57
305.88	72.02
306.094	135.51
306.308	-5.8
306.522	20.82
306.736	69.97
306.95	43.35
307.164	24.92
307.379	16.73
307.593	59.73
307.807	59.73
308.021	45.4
308.235	0.34
308.449	18.77
308.663	57.68
308.877	63.83
309.091	-24.23
309.305	22.87
309.519	2.39
309.733	47.44
309.947	4.44
310.161	119.12
310.374	-3.75
310.588	61.78
310.802	16.73
311.016	96.6
311.23	139.6
311.444	6.49
311.658	-3.75
311.872	51.54
312.085	84.31
312.299	12.63
312.513	63.83
312.727	-24.23
312.941	-42.67
313.154	-42.67
313.368	4.44
313.582	55.64
313.796	-79.53
314.009	2.39
314.223	16.73
314.437	76.12
314.651	92.5
314.864	74.07
315.078	53.59
315.292	-22.19
315.505	26.96
315.719	72.02
315.933	49.49
316.146	2.39
316.36	-52.91
316.573	10.58
316.787	43.35
317.001	39.25
317.214	26.96
317.428	45.4
317.641	12.63
317.855	43.35
318.068	100.69
318.282	53.59
318.495	74.07
318.709	26.96
318.922	74.07
319.136	31.06
319.349	26.96
319.563	10.58
319.776	14.68
319.99	106.84
320.203	18.77
320.417	55.64
320.63	41.3
320.843	2.39
321.057	94.55
321.27	63.83
321.483	-18.09
321.697	33.11
321.91	63.83
322.124	72.02
322.337	12.63
322.55	63.83
322.763	94.55
322.977	-18.09
323.19	-7.85
323.403	80.21
323.617	2.39
323.83	151.89
324.043	92.5
324.256	37.2
324.469	43.35
324.683	65.88
324.896	-9.9
325.109	26.96
325.322	2.39
325.535	90.45
325.748	96.6
325.962	51.54
326.175	43.35
326.388	108.88
326.601	4.44
326.814	-22.19
327.027	72.02
327.24	63.83
327.453	43.35
327.666	31.06
327.879	26.96
328.092	-1.71
328.305	2.39
328.518	29.01
328.731	-5.8
328.944	115.03
329.157	96.6
329.37	43.35
329.583	102.74
329.796	43.35
330.009	92.5
330.222	51.54
330.435	55.64
330.648	100.69
330.861	0.34
331.073	135.51
331.286	45.4
331.499	63.83
331.712	14.68
331.925	45.4
332.138	4.44
332.35	98.64
332.563	20.82
332.776	74.07
332.989	37.2
333.202	26.96
333.414	86.36
333.627	24.92
333.84	2.39
334.053	53.59
334.265	-52.91
334.478	57.68
334.691	4.44
334.903	59.73
335.116	33.11
335.329	39.25
335.541	86.36
335.754	80.21
335.966	31.06
336.179	59.73
336.392	14.68
336.604	61.78
336.817	37.2
337.029	100.69
337.242	43.35
337.454	94.55
337.667	92.5
337.88	-1.71
338.092	121.17
338.305	-63.15
338.517	63.83
338.729	82.26
338.942	41.3
339.154	55.64
339.367	72.02
339.579	49.49
339.792	72.02
340.004	16.73
340.217	-1.71
340.429	53.59
340.641	16.73
340.854	76.12
341.066	10.58
341.278	-22.19
341.491	10.58
341.703	41.3
341.915	88.4
342.128	10.58
342.34	41.3
342.552	110.93
342.764	45.4
342.977	55.64
343.189	35.16
343.401	10.58
343.613	-42.67
343.826	33.11
344.038	43.35
344.25	29.01
344.462	74.07
344.674	24.92
344.886	100.69
345.099	55.64
345.311	12.63
345.523	80.21
345.735	39.25
345.947	96.6
346.159	37.2
346.371	45.4
346.583	33.11
346.795	51.54
347.007	37.2
347.219	35.16
347.431	-7.85
347.643	57.68
347.855	47.44
348.067	117.08
348.279	57.68
348.491	51.54
348.703	92.5
348.915	-9.9
349.127	16.73
349.339	78.16
349.551	4.44
349.763	18.77
349.975	90.45
350.187	69.97
350.399	35.16
350.61	129.36
350.822	31.06
351.034	63.83
351.246	39.25
351.458	88.4
351.669	94.55
351.881	112.98
352.093	29.01
352.305	29.01
352.517	110.93
352.728	43.35
352.94	47.44
353.152	41.3
353.363	37.2
353.575	33.11
353.787	55.64
353.999	33.11
354.21	8.53
354.422	22.87
354.633	8.53
354.845	0.34
355.057	76.12
355.268	31.06
355.48	14.68
355.692	18.77
355.903	80.21
356.115	20.82
356.326	43.35
356.538	26.96
356.749	55.64
356.961	63.83
357.172	112.98
357.384	65.88
357.595	8.53
357.807	20.82
358.018	31.06
358.23	20.82
358.441	26.96
358.653	123.22
358.864	61.78
359.075	16.73
359.287	59.73
359.498	10.58
359.709	106.84
359.921	45.4
360.132	20.82
360.344	47.44
360.555	18.77
360.766	20.82
360.977	76.12
361.189	49.49
361.4	24.92
361.611	43.35
361.823	43.35
362.034	24.92
362.245	-3.75
362.456	74.07
362.667	53.59
362.879	135.51
363.09	51.54
363.301	35.16
363.512	24.92
363.723	55.64
363.935	14.68
364.146	84.31
364.357	-9.9
364.568	67.92
364.779	24.92
364.99	14.68
365.201	57.68
365.412	88.4
365.623	61.78
365.834	74.07
366.045	74.07
366.256	35.16
366.467	20.82
366.678	84.31
366.889	53.59
367.1	115.03
367.311	65.88
367.522	18.77
367.733	6.49
367.944	61.78
368.155	10.58
368.366	96.6
368.577	8.53
368.788	78.16
368.999	-30.38
369.209	24.92
369.42	78.16
369.631	45.4
369.842	43.35
370.053	-18.09
370.264	26.96
370.474	61.78
370.685	39.25
370.896	76.12
371.107	67.92
371.317	33.11
371.528	35.16
371.739	49.49
371.95	78.16
372.16	143.7
372.371	31.06
372.582	84.31
372.792	14.68
373.003	80.21
373.214	8.53
373.424	43.35
373.635	65.88
373.846	39.25
374.056	4.44
374.267	29.01
374.477	72.02
374.688	53.59
374.898	90.45
375.109	43.35
375.319	59.73
375.53	90.45
375.74	33.11
375.951	24.92
376.161	43.35
376.372	63.83
376.582	51.54
376.793	69.97
377.003	72.02
377.214	-18.09
377.424	0.34
377.635	43.35
377.845	78.16
378.055	108.88
378.266	-7.85
378.476	35.16
378.686	12.63
378.897	47.44
379.107	29.01
379.317	104.79
379.528	12.63
379.738	37.2
379.948	61.78
380.158	67.92
380.369	-7.85
380.579	115.03
380.789	92.5
380.999	20.82
381.21	33.11
381.42	106.84
381.63	4.44
381.84	115.03
382.05	76.12
382.261	80.21
382.471	72.02
382.681	45.4
382.891	43.35
383.101	129.36
383.311	110.93
383.521	59.73
383.731	41.3
383.941	88.4
384.151	29.01
384.361	102.74
384.571	104.79
384.781	29.01
384.991	110.93
385.201	45.4
385.411	53.59
385.621	43.35
385.831	61.78
386.041	20.82
386.251	69.97
386.461	39.25
386.671	59.73
386.881	20.82
387.091	51.54
387.301	92.5
387.511	22.87
387.72	67.92
387.93	110.93
388.14	18.77
388.35	59.73
388.56	108.88
388.769	51.54
388.979	133.46
389.189	6.49
389.399	139.6
389.609	72.02
389.818	131.41
390.028	76.12
390.238	63.83
390.447	0.34
390.657	63.83
390.867	12.63
391.076	20.82
391.286	72.02
391.496	96.6
391.705	49.49
391.915	53.59
392.125	-1.71
392.334	110.93
392.544	74.07
392.753	69.97
392.963	18.77
393.172	51.54
393.382	133.46
393.591	100.69
393.801	31.06
394.01	61.78
394.22	67.92
394.429	117.08
394.639	37.2
394.848	69.97
395.058	63.83
395.267	82.26
395.477	22.87
395.686	119.12
395.895	80.21
396.105	61.78
396.314	84.31
396.524	88.4
396.733	41.3
396.942	53.59
397.152	123.22
397.361	117.08
397.57	184.66
397.78	72.02
397.989	59.73
398.198	92.5
398.407	129.36
398.617	112.98
398.826	108.88
399.035	59.73
399.244	80.21
399.453	151.89
399.663	94.55
399.872	164.18
400.081	43.35
400.29	129.36
400.499	110.93
400.708	119.12
400.917	127.32
401.127	209.23
401.336	168.27
401.545	117.08
401.754	155.99
401.963	80.21
402.172	84.31
402.381	67.92
402.59	53.59
402.799	35.16
403.008	102.74
403.217	141.65
403.426	155.99
403.635	96.6
403.844	131.41
404.053	108.88
404.262	108.88
404.471	194.9
404.68	117.08
404.888	174.42
405.097	76.12
405.306	125.27
405.515	174.42
405.724	110.93
405.933	272.72
406.142	166.23
406.35	170.32
406.559	139.6
406.768	168.27
406.977	194.9
407.185	217.43
407.394	155.99
407.603	215.38
407.812	184.66
408.02	237.91
408.229	215.38
408.438	194.9
408.646	184.66
408.855	213.33
409.064	289.1
409.272	282.96
409.481	252.24
409.69	203.09
409.898	186.71
410.107	315.73
410.315	231.76
410.524	276.82
410.733	336.21
410.941	325.97
411.15	334.16
411.358	340.3
411.567	383.31
411.775	301.39
411.984	313.68
412.192	428.37
412.401	397.65
412.609	475.47
412.818	387.41
413.026	422.22
413.234	469.33
413.443	442.7
413.651	448.85
413.86	463.18
414.068	643.4
414.276	627.02
414.485	545.1
414.693	547.15
414.901	563.53
415.11	573.77
415.318	604.49
415.526	610.64
415.734	661.84
415.943	698.7
416.151	809.29
416.359	704.84
416.567	776.52
416.776	758.09
416.984	815.43
417.192	960.84
417.4	821.58
417.608	878.92
417.817	989.51
418.025	823.62
418.233	958.79
418.441	911.69
418.649	1063.24
418.857	1042.76
419.065	1102.15
419.273	1061.19
419.481	1204.55
419.689	1315.14
419.897	1331.52
420.105	1270.08
420.313	1339.71
420.521	1356.1
420.729	1507.65
420.937	1493.31
421.145	1575.23
421.353	1583.42
421.561	1706.3
421.769	1700.16
421.977	1749.31
422.185	1739.07
422.393	1820.99
422.601	1937.72
422.809	2062.65
423.017	1968.44
423.224	2189.62
423.432	2117.94
423.64	2128.18
423.848	2283.83
424.056	2261.3
424.263	2509.1
424.471	2404.66
424.679	2541.87
424.887	2664.75
425.094	2752.81
425.302	2828.59
425.51	3057.96
425.718	2933.03
425.925	2920.74
426.133	3189.03
426.341	3320.1
426.548	3391.78
426.756	3320.1
426.964	3373.35
427.171	3584.29
427.379	3750.17
427.586	3733.79
427.794	3772.7
428.001	3991.83
428.209	4229.4
428.417	4114.71
428.624	4450.58
428.832	4401.43
429.039	4313.36
429.247	4409.62
429.454	4821.26
429.662	5087.5
429.869	4782.35
430.076	5093.64
430.284	4905.23
430.491	5165.32
430.699	5542.14
430.906	5466.37
431.114	5546.24
431.321	5837.05
431.528	6013.18
431.736	6289.65
431.943	6660.34
432.15	6273.27
432.358	6535.41
432.565	6867.18
432.772	6910.19
432.979	7313.64
433.187	7313.64
433.394	7196.9
433.601	7878.88
433.808	7846.11
434.016	7846.11
434.223	7979.23
434.43	8626.39
434.637	8411.35
434.844	8849.61
435.052	9265.35
435.259	8992.97
435.466	9169.1
435.673	9085.13
435.88	9752.77
436.087	10084.54
436.294	9980.09
436.501	9771.2
436.708	10053.82
436.915	10363.06
437.122	10815.66
437.329	10999.98
437.537	11206.83
437.743	11360.42
437.95	11446.44
438.157	11882.66
438.364	12460.18
438.571	12443.8
438.778	12546.2
438.985	13547.65
439.192	12978.32
439.399	13215.88
439.606	13074.57
439.813	13805.7
440.02	14418.04
440.227	14381.18
440.433	14223.48
440.64	14940.27
440.847	14575.73
441.054	15151.21
441.261	15906.91
441.467	15896.67
441.674	16130.14
441.881	16771.16
442.088	16762.97
442.294	16656.47
442.501	16996.43
442.708	17487.95
442.914	17631.3
443.121	18745.4
443.328	18231.36
443.534	19714.09
443.741	18909.24
443.948	18460.73
444.154	20006.95
444.361	19933.22
444.568	19941.41
444.774	20076.58
444.981	20437.02
445.187	20688.92
445.394	21628.94
445.6	21571.6
445.807	23465.97
446.013	22493.18
446.22	22611.96
446.426	24014.82
446.633	24061.93
446.839	25085.91
447.046	23769.07
447.252	25016.28
447.459	25141.21
447.665	24854.49
447.871	26116.04
448.078	26881.98
448.284	25933.77
448.491	26458.05
448.697	27578.29
448.903	28121
449.11	28041.13
449.316	27541.43
449.522	28487.59
449.728	29323.16
449.935	29196.18
450.141	29343.64
450.347	29880.21
450.553	28663.71
450.76	29243.29
450.966	29964.17
451.172	29652.88
451.378	30513.03
451.584	29677.46
451.791	30433.16
451.997	30535.56
452.203	30889.85
452.409	30932.86
452.615	30404.49
452.821	29489.04
453.027	29421.46
453.233	31168.38
453.44	29679.5
453.646	29882.25
453.852	29996.94
454.058	30277.51
454.264	29685.65
454.47	30396.29
454.676	29458.32
454.882	30443.4
455.088	27639.73
455.294	28426.15
455.5	28495.78
455.705	29022.11
455.911	27654.06
456.117	27279.29
456.323	26759.1
456.529	25346
456.735	26464.19
456.941	25708.49
457.147	25280.47
457.352	24606.69
457.558	24516.58
457.764	24573.92
457.97	23928.81
458.176	23295.99
458.381	23470.06
458.587	22145.03
458.793	22321.15
458.999	20936.73
459.204	22650.88
459.41	21954.57
459.616	20719.64
459.821	20600.86
460.027	20441.12
460.233	20314.14
460.438	19171.38
460.644	19290.16
460.85	18384.96
461.055	18122.82
461.261	18085.95
461.466	16750.68
461.672	16220.25
461.878	17473.61
462.083	16212.06
462.289	15812.71
462.494	15855.72
462.7	15327.34
462.905	14803.06
463.111	15231.08
463.316	15417.45
463.522	15095.92
463.727	14968.94
463.932	14780.53
464.138	14874.74
464.343	14741.62
464.549	14573.69
464.754	15186.03
464.959	14790.77
465.165	14856.31
465.37	14086.27
465.575	14047.36
465.781	14217.34
465.986	14383.23
466.191	13822.08
466.397	13480.07
466.602	12863.63
466.807	13461.64
467.012	13369.48
467.218	13351.05
467.423	13047.95
467.628	13287.56
467.833	13801.6
468.038	13287.56
468.244	13037.71
468.449	13430.92
468.654	13000.85
468.859	12724.37
469.064	12716.18
469.269	12339.35
469.474	12497.05
469.679	12871.82
469.885	12339.35
470.09	12507.29
470.295	12406.94
470.5	12091.55
470.705	12314.78
470.91	11903.14
471.115	11747.49
471.32	11980.96
471.525	11843.74
471.73	11765.92
471.935	11579.56
472.139	11163.82
472.344	11276.46
472.549	11284.65
472.754	11057.32
472.959	10989.74
473.164	10668.21
473.369	10500.28
473.574	11004.08
473.778	10782.9
473.983	10526.9
474.188	10676.4
474.393	10229.95
474.598	10289.34
474.802	10129.59
475.007	10176.7
475.212	10039.48
475.417	9527.49
475.621	9746.62
475.826	9787.58
476.031	9441.48
476.235	9423.05
476.44	9558.21
476.645	9263.3
476.849	9300.17
477.054	8999.12
477.259	9154.76
477.463	9103.56
477.668	8796.37
477.872	8917.2
478.077	8710.35
478.282	8677.58
478.486	8573.14
478.691	8431.83
478.895	8702.16
479.1	8263.9
479.304	8444.12
479.509	8204.5
479.713	8300.76
479.918	8093.91
480.122	7958.75
480.326	8196.31
480.531	8233.18
480.735	8055
480.94	7948.51
481.144	8143.07
481.348	7864.54
481.553	7870.69
481.757	7727.33
481.961	8005.85
482.166	8057.05
482.37	7973.08
482.574	7712.99
482.778	7891.16
482.983	7966.94
483.187	7856.35
483.391	7940.32
483.595	7817.44
483.8	7760.09
484.004	7753.95
484.208	7915.74
484.412	7743.71
484.616	7989.47
484.821	7801.05
485.025	7731.42
485.229	7784.67
485.433	7876.83
485.637	7762.14
485.841	7786.72
486.045	7801.05
486.249	7751.9
486.453	7559.39
486.657	7864.54
486.861	7854.3
487.065	7712.99
487.269	7870.69
487.473	7717.09
487.677	7803.1
487.881	7919.84
488.085	7692.51
488.289	7860.45
488.493	7764.19
488.697	7794.91
488.901	7770.33
489.105	7862.49
489.309	7950.56
489.512	8005.85
489.716	7715.04
489.92	7766.24
490.124	7766.24
490.328	8014.04
490.531	7966.94
490.735	7973.08
490.939	7981.28
491.143	7700.7
491.346	7975.13
491.55	7915.74
491.754	8220.89
491.958	8173.78
492.161	8196.31
492.365	8040.67
492.569	8251.61
492.772	8059.1
492.976	8411.35
493.18	8298.71
493.383	8472.79
493.587	8466.64
493.79	8571.09
493.994	8530.13
494.197	8601.81
494.401	8904.91
494.605	8603.86
494.808	8820.94
495.012	8798.42
495.215	8853.71
495.419	8847.57
495.622	9058.51
495.825	9154.76
496.029	8941.77
496.232	9160.91
496.436	9205.96
496.639	9599.17
496.843	9439.43
497.046	9433.29
497.249	9783.49
497.453	9642.18
497.656	9871.55
497.859	9818.3
498.063	10111.16
498.266	10221.75
498.469	10068.16
498.673	10115.26
498.876	10401.97
499.079	10512.56
499.282	10520.76
499.485	10903.73
499.689	10717.36
499.892	11034.8
500.095	10973.36
500.298	11284.65
500.501	11028.65
500.705	11587.75
500.908	11684
501.111	11901.09
501.314	11784.35
501.517	11944.1
501.72	12191.9
501.923	12241.05
502.126	12232.86
502.329	12451.99
502.532	12837.01
502.735	12712.08
502.938	12861.59
503.141	13275.27
503.344	13396.1
503.547	13299.85
503.75	13432.97
503.953	13746.31
504.156	13801.6
504.359	14045.31
504.562	14043.26
504.765	14479.48
504.968	14315.64
505.17	14616.69
505.373	14831.73
505.576	14977.14
505.779	14878.83
505.982	15104.11
506.185	15333.48
506.387	15448.17
506.59	15837.28
506.793	16197.73
506.996	16191.58
507.198	16633.94
507.401	16328.8
507.604	16998.48
507.807	17051.73
508.009	17111.12
508.212	17049.68
508.415	17676.36
508.617	17702.98
508.82	17961.03
509.022	17526.86
509.225	18292.8
509.428	18270.27
509.63	18546.75
509.833	18626.62
510.035	19083.31
510.238	19087.41
510.44	19259.44
510.643	19658.79
510.845	19671.08
511.048	19941.41
511.25	20070.44
511.453	19941.41
511.655	20828.18
511.858	20850.71
512.06	20918.29
512.262	21129.23
512.465	21319.7
512.667	21719.05
512.87	21993.48
513.072	22069.25
513.274	22616.06
513.477	22726.65
513.679	22671.36
513.881	22970.36
514.084	23199.73
514.286	23502.83
514.488	23437.3
514.69	24362.98
514.893	24381.41
515.095	24385.51
515.297	24616.93
515.499	25231.32
515.701	25126.87
515.904	25323.47
516.106	25456.59
516.308	25978.82
516.51	26187.72
516.712	26324.93
516.914	26585.02
517.116	27058.1
517.318	27150.26
517.52	27238.33
517.722	27377.59
517.925	27721.65
518.127	28258.21
518.329	28440.48
518.531	28487.59
518.733	28995.48
518.935	28944.28
519.136	29534.1
519.338	29507.48
519.54	29833.1
519.742	30463.88
519.944	30689.15
520.146	30826.37
520.348	30918.53
520.55	30898.05
520.752	31346.55
520.954	32034.67
521.155	31811.44
521.357	32049
521.559	32644.96
521.761	33118.04
521.963	33040.22
522.164	33380.18
522.366	33458.01
522.568	33687.38
522.77	33949.52
522.971	34522.95
523.173	34176.84
523.375	34369.35
523.576	34332.49
523.778	34682.69
523.98	35194.68
524.181	35374.91
524.383	35665.72
524.584	35991.34
524.786	35886.9
524.988	35878.71
525.189	36626.21
525.391	36237.1
525.592	36982.56
525.794	36945.7
525.995	36675.37
526.197	37179.17
526.398	37324.57
526.6	37306.14
526.801	37443.35
527.003	37689.11
527.204	37723.93
527.406	38197.01
527.607	37963.54
527.808	38369.04
528.01	38237.97
528.211	38555.4
528.412	39233.28
528.614	38940.42
528.815	38967.04
529.016	39188.22
529.218	39067.39
529.419	38844.16
529.62	39565.05
529.822	39165.7
530.023	39503.61
530.224	39311.1
530.425	39560.95
530.626	39401.21
530.828	39182.08
531.029	40064.75
531.23	39575.29
531.431	39927.54
531.632	39806.71
531.833	40011.51
532.035	39976.69
532.236	40072.95
532.437	40042.23
532.638	40136.43
532.839	40300.27
533.04	40249.07
533.241	39782.13
533.442	40552.17
533.643	39919.35
533.844	40046.32
534.045	40425.2
534.246	40263.41
534.447	40249.07
534.648	40279.79
534.849	40660.71
535.05	39991.03
535.251	40584.94
535.451	40371.95
535.652	40562.41
535.853	40232.69
536.054	40613.61
536.255	40853.22
536.456	40072.95
536.657	41043.68
536.857	40171.25
537.058	40449.77
537.259	40441.58
537.46	41150.18
537.66	40521.45
537.861	40574.7
538.062	40048.37
538.263	40400.62
538.463	40201.97
538.664	40242.93
538.865	40263.41
539.065	40746.73
539.266	40083.19
539.466	40779.5
539.667	39831.29
539.868	40795.88
540.068	40431.34
540.269	40275.69
540.469	40650.47
540.67	40443.63
540.87	40589.03
541.071	40173.3
541.271	40517.36
541.472	40591.08
541.672	40120.05
541.873	40363.76
542.073	39900.92
542.274	40728.3
542.474	40648.43
542.675	39995.12
542.875	40693.48
543.075	40392.43
543.276	40109.81
543.476	40994.53
543.676	40613.61
543.877	40316.65
544.077	40558.31
544.277	40285.93
544.478	40371.95
544.678	40251.12
544.878	40236.78
545.078	40046.32
545.279	40070.9
545.479	40034.03
545.679	40605.42
545.879	39966.45
546.079	40146.67
546.28	40400.62
546.48	40021.75
546.68	40398.57
546.88	39872.24
547.08	40455.92
547.28	40566.51
547.48	39884.53
547.68	40273.65
547.88	39868.15
548.081	40339.18
548.281	39835.38
548.481	40130.29
548.681	40312.56
548.881	39937.78
549.081	39980.79
549.28	39929.59
549.48	39958.26
549.68	39968.5
549.88	40386.29
550.08	39819
550.28	40138.48
550.48	39999.22
550.68	40187.63
550.88	39917.3
551.08	40072.95
551.279	40376.05
551.479	39780.09
551.679	39841.53
551.879	40005.36
552.079	40281.84
552.278	40122.1
552.478	40066.8
552.678	39663.35
552.878	40326.89
553.077	39573.24
553.277	39880.44
553.477	40230.64
553.676	39743.22
553.876	39997.17
554.076	39862.01
554.275	39646.97
554.475	39415.55
554.674	39902.96
554.874	39812.85
555.074	39440.12
555.273	39366.4
555.473	39687.93
555.672	39108.35
555.872	39235.33
556.071	39825.14
556.271	39448.32
556.47	39452.41
556.67	39034.63
556.869	39329.53
557.068	39372.54
557.268	38954.75
557.467	38995.71
557.667	38903.56
557.866	39110.4
558.065	39018.24
558.265	38905.6
558.464	38854.4
558.663	39427.84
558.863	38520.59
559.062	39483.13
559.261	38549.26
559.461	38872.84
559.66	38526.73
559.859	38414.09
560.058	38530.83
560.258	38614.79
560.457	38106.9
560.656	38770.44
560.855	37873.43
561.054	38063.89
561.253	37713.69
561.453	38180.62
561.652	38211.34
561.851	37920.53
562.05	38297.36
562.249	37648.15
562.448	38035.22
562.647	37973.78
562.846	37822.23
563.045	37906.19
563.244	37746.45
563.443	38139.66
563.642	37027.62
563.841	37744.41
564.04	37480.22
564.239	37535.51
564.438	36990.75
564.637	37267.23
564.836	37304.09
565.035	36738.85
565.234	37107.49
565.432	36484.9
565.631	37007.14
565.83	36906.79
566.029	36833.06
566.228	36669.22
566.427	36572.97
566.625	36316.97
566.824	36433.71
567.023	36998.94
567.222	36173.61
567.42	36642.6
567.619	36398.89
567.818	36077.36
568.016	36226.86
568.215	36306.73
568.414	35936.05
568.612	36333.35
568.811	35542.84
569.01	35798.84
569.208	35419.96
569.407	35721.01
569.605	35065.66
569.804	35567.41
570.002	35460.92
570.201	35381.05
570.4	35051.33
570.598	35051.33
570.797	35045.18
570.995	35010.37
571.193	34656.07
571.392	35032.89
571.59	34633.54
571.789	34764.61
571.987	34168.65
572.186	34514.76
572.384	34187.08
572.582	34561.86
572.781	34119.5
572.979	33697.62
573.177	34076.49
573.376	34072.4
573.574	33531.73
573.772	33910.61
573.971	33722.19
574.169	33406.81
574.367	33318.74
574.565	33685.33
574.763	33417.05
574.962	33185.63
575.16	33085.28
575.358	32903.01
575.556	32714.59
575.754	32907.1
575.952	32657.25
576.151	32984.93
576.349	32282.47
576.547	32399.21
576.745	32597.86
576.943	32677.73
577.141	32431.97
577.339	32294.76
577.537	31940.46
577.735	31758.19
577.933	31938.41
578.131	31979.37
578.329	31706.99
578.527	31631.22
578.725	31649.65
578.923	31594.36
579.121	31401.85
579.319	31620.98
579.516	31788.91
579.714	31129.47
579.912	31088.51
580.11	31133.56
580.308	30852.99
580.506	30955.39
580.704	30375.81
580.901	30699.39
581.099	30691.2
581.297	30429.06
581.495	30349.19
581.692	30308.23
581.89	30324.61
582.088	30283.66
582.285	30222.22
582.483	30277.51
582.681	30068.62
582.878	29704.08
583.076	29640.59
583.274	29892.49
583.471	29276.05
583.669	29556.63
583.866	29347.73
584.064	29710.22
584.262	29216.66
584.459	29419.41
584.657	29085.59
584.854	29157.27
585.052	28729.25
585.249	28932
585.447	29056.92
585.644	28381.09
585.841	28626.85
586.039	28966.81
586.236	28305.32
586.434	28198.82
586.631	28270.5
586.828	28307.37
587.026	28483.49
587.223	28198.82
587.42	28032.94
587.618	27789.23
587.815	27555.76
588.012	27660.21
588.21	27602.86
588.407	27879.34
588.604	27312.05
588.801	27215.8
588.999	27391.92
589.196	27344.82
589.393	27432.88
589.59	27060.15
589.787	27428.79
589.984	26931.13
590.182	27047.86
590.379	26712
590.576	26646.46
590.773	26828.73
590.97	26748.86
591.167	26560.45
591.364	26116.04
591.561	26398.66
591.758	25946.06
591.955	26062.79
592.152	26118.09
592.349	26144.71
592.546	26404.8
592.743	25917.39
592.94	25776.08
593.137	25806.8
593.334	25839.56
593.531	25511.89
593.727	25585.61
593.924	25669.58
594.121	25454.54
594.318	25397.2
594.515	25307.09
594.712	25573.33
594.908	25194.45
595.105	25307.09
595.302	24606.69
595.499	24762.33
595.696	24846.3
595.892	24870.87
596.089	24729.56
596.286	24899.55
596.482	24659.93
596.679	24543.2
596.876	24616.93
597.072	24299.49
597.269	24467.42
597.466	24301.54
597.662	24213.48
597.859	24039.4
598.055	24514.53
598.252	23580.65
598.448	24008.68
598.645	23703.53
598.841	23576.56
599.038	23531.5
599.234	23623.66
599.431	23496.69
599.627	23367.66
599.824	23545.84
600.02	22964.21
600.217	23197.68
600.413	23183.35
600.609	23189.49
600.806	22822.91
601.002	23035.89
601.198	22753.27
601.395	22773.75
601.591	22677.5
601.787	22601.72
601.984	22470.65
602.18	22685.69
602.376	22296.58
602.572	22599.68
602.769	22286.34
602.965	22282.24
603.161	22433.79
603.357	22054.92
603.553	21995.53
603.75	22331.39
603.946	21704.71
604.142	22018.05
604.338	21381.14
604.534	21678.09
604.73	21329.94
604.926	21628.94
605.122	21536.78
605.318	21325.84
605.514	21245.97
605.71	21284.88
605.906	21162
606.102	21102.61
606.298	21188.63
606.494	21049.36
606.69	21170.19
606.886	20983.83
607.082	20609.05
607.278	20813.85
607.474	20611.1
607.67	20615.19
607.866	20572.19
608.062	20750.36
608.257	20555.8
608.453	20668.44
608.649	20486.17
608.845	20504.6
609.041	20168.74
609.236	20238.37
609.432	20000.8
609.628	20164.64
609.824	20109.35
610.019	20324.38
610.215	20183.07
610.411	20058.15
610.606	19884.07
610.802	19939.37
610.998	19783.72
611.193	19888.17
611.389	19591.21
611.584	19718.18
611.78	19427.37
611.976	19632.17
612.171	19654.7
612.367	19621.93
612.562	19220.53
612.758	19204.14
612.953	19148.85
613.149	19114.03
613.344	18886.71
613.539	19392.56
613.735	19228.72
613.93	19226.67
614.126	18917.43
614.321	18890.81
614.517	18792.5
614.712	18866.23
614.907	18804.79
615.103	18853.94
615.298	18577.47
615.493	18960.44
615.688	18733.11
615.884	18980.92
616.079	18657.34
616.274	18556.99
616.47	18358.33
616.665	18579.51
616.86	18462.78
617.055	18434.11
617.25	18718.78
617.445	18210.88
617.641	18067.52
617.836	18159.68
618.031	17666.12
618.226	17829.96
618.421	17893.44
618.616	18073.67
618.811	17776.71
619.006	17965.12
619.201	17573.96
619.396	17645.64
619.591	17467.47
619.786	17614.92
619.981	17188.94
620.176	17229.9
620.371	17145.94
620.566	17145.94
620.761	17111.12
620.956	17240.14
621.151	16599.13
621.346	16998.48
621.541	16654.42
621.735	17055.83
621.93	16390.24
622.125	16332.89
622.32	16199.77
622.515	16238.69
622.709	16259.17
622.904	16392.28
623.099	15894.63
623.294	15931.49
623.488	15738.98
623.683	15900.77
623.878	15675.49
624.072	15761.51
624.267	15650.92
624.462	15640.68
624.656	15579.24
624.851	15310.96
625.046	15202.41
625.24	15155.31
625.435	15052.91
625.629	15249.52
625.824	14794.87
626.018	15001.71
626.213	14772.34
626.407	14784.63
626.602	14409.85
626.796	14645.37
626.991	14485.62
627.185	14205.05
627.38	14235.77
627.574	13963.39
627.768	13887.62
627.963	14176.38
628.157	13951.1
628.352	14223.48
628.546	13705.35
628.74	14094.46
628.935	13762.69
629.129	13713.54
629.323	13602.95
629.517	13619.33
629.712	13586.57
629.906	13402.25
630.1	13293.71
630.294	13516.94
630.489	12941.46
630.683	13308.04
630.877	13004.94
631.071	12765.33
631.265	12914.83
631.459	12796.05
631.653	12937.36
631.848	12689.56
632.042	12652.69
632.236	12671.12
632.43	12490.9
632.624	12478.61
632.818	12441.75
633.012	12171.42
633.206	12071.07
633.4	12368.02
633.594	12032.16
633.788	12128.41
633.982	12169.37
634.176	12038.3
634.369	11722.91
634.563	11880.61
634.757	11651.24
634.951	11567.27
635.145	11704.48
635.339	11452.58
635.533	11659.43
635.726	11690.15
635.92	11296.94
636.114	11315.37
636.308	11188.39
636.501	11372.71
636.695	11298.98
636.889	11143.34
637.083	10920.11
637.276	11032.75
637.47	10819.76
637.664	10854.58
637.857	10582.2
638.051	10694.83
638.244	10672.31
638.438	10586.29
638.632	10422.45
638.825	10487.99
639.019	10430.65
639.212	10320.06
639.406	10571.96
639.599	10336.44
639.793	10145.98
639.986	10039.48
640.18	10305.72
640.373	10051.77
640.567	10074.3
640.76	10131.64
640.954	9760.96
641.147	9812.16
641.34	9734.34
641.534	9892.03
641.727	9711.81
641.92	9756.86
642.114	9595.07
642.307	9734.34
642.5	9521.35
642.694	9498.82
642.887	9533.64
643.08	9318.6
643.273	9253.06
643.467	9341.13
643.66	9169.1
643.853	9074.89
644.046	8755.41
644.239	8896.72
644.432	8974.54
644.626	8954.06
644.819	8882.38
645.012	8855.76
645.205	8837.33
645.398	8890.57
645.591	8571.09
645.784	8552.66
645.977	8560.85
646.17	8442.07
646.363	8423.64
646.556	8263.9
646.749	8374.49
646.942	8466.64
647.135	8280.28
647.328	8239.32
647.521	8366.29
647.714	8169.69
647.907	8184.02
648.099	8065.24
648.292	8194.26
648.485	8087.77
648.678	7837.92
648.871	7975.13
649.064	7811.29
649.256	7801.05
649.449	7629.02
649.642	7747.81
649.835	7686.37
650.027	7588.07
650.22	7497.95
650.413	7373.03
650.605	7522.53
650.798	7377.12
650.991	7246.05
651.183	7301.35
651.376	7241.96
651.568	7225.58
651.761	7145.7
651.954	7059.69
652.146	7155.94
652.339	7022.83
652.531	7063.79
652.724	7074.03
652.916	6891.76
653.109	6957.29
653.301	6940.91
653.494	6910.19
653.686	6699.25
653.879	6875.37
654.071	6858.99
654.263	6801.65
654.456	6707.44
654.648	6555.89
654.84	6613.23
655.033	6406.39
655.225	6383.86
655.417	6293.75
655.61	6510.83
655.802	6238.45
655.994	6441.2
656.186	6201.59
656.379	6265.08
656.571	6238.45
656.763	6238.45
656.955	6228.21
657.148	6349.04
657.34	6113.53
657.532	6068.47
657.724	5976.31
657.916	6113.53
658.108	5982.46
658.3	5849.34
658.492	5822.72
658.684	5898.49
658.876	5814.52
659.068	5771.52
659.26	5646.59
659.452	5888.25
659.644	5652.74
659.836	5628.16
660.028	5671.17
660.22	5591.3
660.412	5497.09
660.604	5562.62
660.796	5478.66
660.988	5443.84
661.18	5431.55
661.372	5202.18
661.563	5441.79
661.755	5347.59
661.947	5384.45
662.139	5308.68
662.331	5261.57
662.522	5169.41
662.714	5173.51
662.906	5157.13
663.097	5097.74
663.289	5224.71
663.481	5204.23
663.673	4987.15
663.864	4993.29
664.056	5075.21
664.247	4958.47
664.439	4800.78
664.631	4806.92
664.822	4768.01
665.014	4981
665.205	4829.45
665.397	4761.87
665.588	4819.21
665.78	4645.13
665.971	4647.18
666.163	4712.72
666.354	4651.28
666.546	4671.76
666.737	4528.4
666.929	4671.76
667.12	4493.58
667.311	4512.02
667.503	4483.34
667.694	4542.74
667.885	4335.89
668.077	4499.73
668.268	4403.47
668.459	4426
668.651	4329.75
668.842	4305.17
669.033	4321.56
669.224	4331.8
669.416	4321.56
669.607	4344.08
669.798	4237.59
669.989	4268.31
670.18	4290.84
670.371	4133.14
670.563	4184.34
670.754	4198.68
670.945	4086.04
671.136	4151.57
671.327	4147.48
671.518	4061.46
671.709	4147.48
671.9	4165.91
672.091	3836.19
672.282	3961.11
672.473	4030.74
672.664	3950.87
672.855	4026.65
673.046	3887.39
673.237	3967.26
673.428	3983.64
673.619	3762.46
673.809	3932.44
674	3950.87
674.191	3936.54
674.382	3850.52
674.573	3883.29
674.764	3727.64
674.954	3848.47
675.145	3729.69
675.336	3823.9
675.527	3776.8
675.717	3672.35
675.908	3723.55
676.099	3698.97
676.289	3875.1
676.48	3600.67
676.671	3600.67
676.861	3643.68
677.052	3643.68
677.243	3606.81
677.433	3610.91
677.624	3664.16
677.814	3717.4
678.005	3496.22
678.195	3615.01
678.386	3502.37
678.576	3541.28
678.767	3485.98
678.957	3377.44
679.148	3612.96
679.338	3457.31
679.529	3352.87
679.719	3399.97
679.909	3408.16
680.1	3359.01
680.29	3383.59
680.481	3402.02
680.671	3385.63
680.861	3313.95
681.052	3301.67
681.242	3217.7
681.432	3336.48
681.622	3295.52
681.813	3283.24
682.003	3434.78
682.193	3240.23
682.383	3262.76
682.573	3268.9
682.764	3162.41
682.954	3324.19
683.144	3285.28
683.334	3318.05
683.524	3213.6
683.714	3180.84
683.904	3199.27
684.094	3195.17
684.284	3164.45
684.474	3121.45
684.664	3158.31
684.854	3273
685.044	3012.9
685.234	3180.84
685.424	3139.88
685.614	3154.21
685.804	3205.41
685.994	3023.14
686.184	3131.69
686.374	3121.45
686.564	3139.88
686.753	3090.73
686.943	2965.8
687.133	3049.77
687.323	3055.91
687.513	3002.66
687.702	2910.5
687.892	2967.85
688.082	3053.86
688.272	3019.05
688.461	3062.05
688.651	3133.73
688.841	2957.61
689.03	3037.48
689.22	3012.9
689.41	2943.27
689.599	3008.81
689.789	2877.74
689.979	2973.99
690.168	2918.7
690.358	2832.68
690.547	2885.93
690.737	2933.03
690.926	2904.36
691.116	2795.82
691.305	2961.7
691.495	2935.08
691.684	2896.17
691.874	2957.61
692.063	2943.27
692.252	2904.36
692.442	2881.83
692.631	2795.82
692.82	2824.49
693.01	2877.74
693.199	2875.69
693.388	2703.66
693.578	2877.74
693.767	2795.82
693.956	2855.21
694.146	2867.5
694.335	2748.72
694.524	2832.68
694.713	2836.78
694.902	2711.85
695.092	2804.01
695.281	2844.97
695.47	2699.56
695.659	2832.68
695.848	2758.96
696.037	2775.34
696.226	2672.94
696.415	2734.38
696.604	2674.99
696.793	2799.91
696.982	2789.67
697.171	2758.96
697.36	2738.48
697.549	2816.3
697.738	2674.99
697.927	2763.05
698.116	2701.61
698.305	2738.48
698.494	2799.91
698.683	2689.32
698.872	2890.03
699.061	2699.56
699.25	2640.17
699.438	2742.57
699.627	2570.54
699.816	2842.92
700.005	2750.76
700.193	2640.17
700.382	2644.27
700.571	2664.75
700.76	2781.48
700.948	2711.85
701.137	2529.58
701.326	2584.88
701.514	2562.35
701.703	2668.84
701.892	2552.11
702.08	2640.17
702.269	2672.94
702.457	2554.16
702.646	2654.51
702.834	2597.17
703.023	2654.51
703.212	2558.25
703.4	2558.25
703.589	2595.12
703.777	2631.98
703.965	2574.64
704.154	2584.88
704.342	2634.03
704.531	2570.54
704.719	2468.14
704.907	2603.31
705.096	2496.82
705.284	2570.54
705.472	2474.29
705.661	2455.86
705.849	2548.01
706.037	2541.87
706.226	2480.43
706.414	2494.77
706.602	2482.48
706.79	2488.62
706.979	2470.19
707.167	2466.1
707.355	2494.77
707.543	2455.86
707.731	2330.93
707.919	2439.47
708.107	2318.64
708.296	2310.45
708.484	2335.03
708.672	2292.02
708.86	2343.22
709.048	2445.62
709.236	2373.94
709.424	2443.57
709.612	2396.46
709.8	2345.27
709.988	2332.98
710.176	2320.69
710.364	2304.31
710.551	2273.59
710.739	2253.11
710.927	2410.8
711.115	2357.55
711.303	2341.17
711.491	2255.15
711.679	2265.39
711.866	2234.68
712.054	2298.16
712.242	2201.91
712.43	2373.94
712.617	2195.76
712.805	2197.81
712.993	2097.46
713.181	2091.32
713.368	2214.2
713.556	2224.44
713.744	2160.95
713.931	2230.58
714.119	2220.34
714.306	2070.84
714.494	2083.13
714.682	2236.72
714.869	2115.89
715.057	2109.75
715.244	2119.99
715.432	2081.08
715.619	2040.12
715.807	2119.99
715.994	2216.24
716.182	2103.61
716.369	2023.73
716.556	2103.61
716.744	2070.84
716.931	2044.21
717.119	1919.29
717.306	2029.88
717.493	2019.64
717.681	1988.92
717.868	2060.6
718.055	1868.09
718.242	1972.54
718.43	2017.59
718.617	2013.49
718.804	1919.29
718.991	1935.67
719.179	1917.24
719.366	1970.49
719.553	2005.3
719.74	2013.49
719.927	1890.62
720.114	1825.08
720.301	2013.49
720.488	1853.75
720.676	1900.86
720.863	1907
721.05	1935.67
721.237	1909.05
721.424	1837.37
721.611	1788.22
721.798	1902.9
721.985	1886.52
722.172	1841.47
722.358	1814.84
722.545	1714.49
722.732	1823.03
722.919	1749.31
723.106	1818.94
723.293	1726.78
723.48	1814.84
723.667	1788.22
723.853	1833.27
724.04	1786.17
724.227	1782.07
724.414	1722.68
724.6	1683.77
724.787	1749.31
724.974	1714.49
725.161	1755.45
725.347	1753.4
725.534	1626.43
725.72	1706.3
725.907	1636.67
726.094	1784.12
726.28	1562.94
726.467	1620.28
726.653	1675.58
726.84	1724.73
727.027	1726.78
727.213	1687.87
727.4	1683.77
727.586	1655.1
727.773	1642.81
727.959	1599.8
728.145	1573.18
728.332	1653.05
728.518	1665.34
728.705	1579.33
728.891	1587.52
729.077	1687.87
729.264	1581.37
729.45	1661.24
729.636	1612.09
729.823	1562.94
730.009	1483.07
730.195	1636.67
730.382	1548.61
730.568	1526.08
730.754	1546.56
730.94	1487.17
731.126	1612.09
731.313	1517.89
731.499	1591.61
731.685	1456.45
731.871	1497.41
732.057	1618.24
732.243	1509.69
732.429	1618.24
732.615	1540.41
732.801	1485.12
732.987	1483.07
733.173	1481.02
733.359	1550.65
733.545	1386.82
733.731	1440.06
733.917	1485.12
734.103	1421.63
734.289	1442.11
734.475	1491.26
734.661	1444.16
734.847	1315.14
735.033	1515.84
735.219	1380.67
735.404	1399.1
735.59	1421.63
735.776	1347.9
735.962	1452.35
736.148	1298.75
736.333	1454.4
736.519	1386.82
736.705	1417.54
736.89	1323.33
737.076	1372.48
737.262	1315.14
737.447	1362.24
737.633	1354.05
737.819	1382.72
738.004	1366.34
738.19	1399.1
738.375	1364.29
738.561	1339.71
738.747	1276.23
738.932	1290.56
739.118	1382.72
739.303	1376.58
739.489	1302.85
739.674	1249.6
739.859	1204.55
740.045	1298.75
740.23	1274.18
740.416	1210.69
740.601	1362.24
740.786	1349.95
740.972	1210.69
741.157	1245.51
741.342	1300.8
741.528	1222.98
741.713	1222.98
741.898	1169.73
742.084	1220.93
742.269	1257.79
742.454	1225.03
742.639	1251.65
742.824	1196.36
743.01	1149.25
743.195	1190.21
743.38	1202.5
743.565	1120.58
743.75	1231.17
743.935	1286.47
744.12	1177.92
744.305	1132.87
744.49	1204.55
744.675	1206.59
744.86	1134.92
745.045	1169.73
745.23	1100.1
745.415	1186.12
745.6	1165.64
745.785	1057.09
745.97	1132.87
746.155	1046.85
746.34	1110.34
746.525	1059.14
746.71	1102.15
746.895	1167.68
747.079	1089.86
747.264	946.5
747.449	1042.76
747.634	1122.63
747.819	1009.99
748.003	1046.85
748.188	1100.1
748.373	1079.62
748.557	1042.76
748.742	928.07
748.927	964.93
749.111	1032.52
749.296	1003.85
749.481	1075.52
749.665	1046.85
749.85	915.78
750.034	1059.14
750.219	1048.9
750.404	930.12
750.588	1001.8
750.773	903.5
750.957	919.88
751.141	946.5
751.326	958.79
751.51	837.96
751.695	944.45
751.879	874.82
752.064	897.35
752.248	907.59
752.432	889.16
752.617	825.67
752.801	885.06
752.985	801.1
753.17	866.63
753.354	809.29
753.538	889.16
753.722	862.54
753.907	864.58
754.091	844.1
754.275	862.54
754.459	842.06
754.643	905.54
754.828	864.58
755.012	780.62
755.196	815.43
755.38	813.38
755.564	813.38
755.748	928.07
755.932	770.38
756.116	831.82
756.3	772.43
756.484	813.38
756.668	784.71
756.852	745.8
757.036	829.77
757.22	702.79
757.404	745.8
757.588	680.27
757.772	756.04
757.956	667.98
758.14	751.95
758.323	717.13
758.507	743.75
758.691	694.6
758.875	751.95
759.059	710.99
759.242	665.93
759.426	702.79
759.61	717.13
759.794	782.67
759.977	731.47
760.161	674.12
760.345	710.99
760.528	710.99
760.712	684.36
760.895	723.27
761.079	665.93
761.263	700.75
761.446	635.21
761.63	643.4
761.813	643.4
761.997	614.73
762.18	672.08
762.364	678.22
762.547	608.59
762.731	579.92
762.914	586.06
763.098	567.63
763.281	573.77
763.464	573.77
763.648	594.25
763.831	543.05
764.015	667.98
764.198	645.45
764.381	567.63
764.564	602.44
764.748	665.93
764.931	579.92
765.114	504.14
765.297	592.2
765.481	610.64
765.664	616.78
765.847	600.4
766.03	534.86
766.213	610.64
766.397	618.83
766.58	553.29
766.763	541.01
766.946	551.24
767.129	622.92
767.312	598.35
767.495	575.82
767.678	559.44
767.861	627.02
768.044	534.86
768.227	647.5
768.41	579.92
768.593	579.92
768.776	510.29
768.959	526.67
769.142	551.24
769.324	563.53
769.507	604.49
769.69	512.33
769.873	581.96
770.056	543.05
770.239	446.8
770.421	508.24
770.604	579.92
770.787	586.06
770.97	547.15
771.152	508.24
771.335	520.53
771.518	563.53
771.7	579.92
771.883	504.14
772.066	581.96
772.248	461.13
772.431	502.09
772.613	516.43
772.796	561.48
772.978	526.67
773.161	502.09
773.343	526.67
773.526	518.48
773.708	469.33
773.891	457.04
774.073	528.72
774.256	452.94
774.438	436.56
774.621	395.6
774.803	452.94
774.985	461.13
775.168	520.53
775.35	524.62
775.532	520.53
775.715	393.55
775.897	401.74
776.079	471.37
776.261	461.13
776.444	432.46
776.626	420.17
776.808	403.79
776.99	584.01
777.173	368.98
777.355	407.89
777.537	489.81
777.719	397.65
777.901	371.02
778.083	368.98
778.265	362.83
778.447	461.13
778.629	483.66
778.811	403.79
778.993	352.59
779.175	477.52
779.357	432.46
779.539	340.3
779.721	289.1
779.903	416.08
780.085	338.26
780.267	334.16
780.449	407.89
780.631	354.64
780.812	330.06
780.994	399.7
781.176	338.26
781.358	387.41
781.54	366.93
781.721	373.07
781.903	346.45
782.085	405.84
782.267	323.92
782.448	350.54
782.63	393.55
782.812	346.45
782.993	371.02
783.175	309.58
783.357	319.82
783.538	387.41
783.72	334.16
783.901	287.06
784.083	274.77
784.264	342.35
784.446	231.76
784.627	381.26
784.809	246.1
784.99	313.68
785.172	305.49
785.353	346.45
785.535	362.83
785.716	299.34
785.897	215.38
786.079	338.26
786.26	291.15
786.441	336.21
786.623	305.49
786.804	248.15
786.985	242
787.167	231.76
787.348	270.67
787.529	266.58
787.71	360.78
787.891	282.96
788.073	227.67
788.254	268.63
788.435	293.2
788.616	258.39
788.797	192.85
788.978	309.58
789.159	264.53
789.34	242
789.522	256.34
789.703	250.19
789.884	250.19
790.065	264.53
790.246	289.1
790.427	254.29
790.607	242
790.788	264.53
790.969	256.34
791.15	221.52
791.331	235.86
791.512	215.38
791.693	192.85
791.874	250.19
792.054	248.15
792.235	305.49
792.416	289.1
792.597	155.99
792.778	248.15
792.958	301.39
793.139	229.71
793.32	229.71
793.5	227.67
793.681	231.76
793.862	258.39
794.042	264.53
794.223	231.76
794.404	160.08
794.584	211.28
794.765	225.62
794.945	198.99
795.126	180.56
795.306	190.8
795.487	198.99
795.667	194.9
795.848	207.19
796.028	151.89
796.209	198.99
796.389	219.47
796.57	201.04
796.75	231.76
796.93	108.88
797.111	158.03
797.291	155.99
797.471	121.17
797.652	231.76
797.832	198.99
798.012	172.37
798.192	203.09
798.373	141.65
798.553	215.38
798.733	192.85
798.913	153.94
799.093	242
799.274	180.56
799.454	203.09
799.634	170.32
799.814	172.37
799.994	125.27
800.174	174.42
800.354	190.8
800.534	63.83
800.714	201.04
800.894	153.94
801.074	250.19
801.254	117.08
801.434	166.23
801.614	149.84
801.794	137.56
801.974	381.26
802.154	188.75
802.334	153.94
802.514	174.42
802.693	219.47
802.873	162.13
803.053	158.03
803.233	117.08
803.413	209.23
803.592	153.94
803.772	78.16
803.952	192.85
804.131	123.22
804.311	108.88
804.491	153.94
804.67	121.17
804.85	172.37
805.03	207.19
805.209	172.37
805.389	119.12
805.568	84.31
805.748	141.65
805.928	104.79
806.107	141.65
806.287	158.03
806.466	88.4
806.646	125.27
806.825	82.26
807.004	135.51
807.184	43.35
807.363	104.79
807.543	164.18
807.722	115.03
807.901	221.52
808.081	129.36
808.26	121.17
808.439	158.03
808.619	106.84
808.798	112.98
808.977	186.71
809.156	104.79
809.336	125.27
809.515	117.08
809.694	119.12
809.873	235.86
810.052	67.92
810.231	158.03
810.411	166.23
810.59	215.38
810.769	37.2
810.948	141.65
811.127	117.08
811.306	129.36
811.485	86.36
811.664	141.65
811.843	76.12
812.022	151.89
812.201	121.17
812.38	139.6
812.559	112.98
812.737	90.45
812.916	158.03
813.095	149.84
813.274	102.74
813.453	108.88
813.632	117.08
813.811	72.02
813.989	166.23
814.168	88.4
814.347	-1.71
814.526	84.31
814.704	145.75
814.883	88.4
815.062	69.97
815.24	186.71
815.419	76.12
815.598	213.33
815.776	131.41
815.955	129.36
816.133	51.54
816.312	164.18
816.49	39.25
816.669	112.98
816.847	59.73
817.026	82.26
817.204	35.16
817.383	121.17
817.561	72.02
817.74	65.88
817.918	125.27
818.097	84.31
818.275	84.31
818.453	-22.19
818.632	84.31
818.81	168.27
818.988	149.84
819.167	37.2
819.345	112.98
819.523	92.5
819.701	117.08
819.879	59.73
820.058	117.08
820.236	104.79
820.414	102.74
820.592	108.88
820.77	72.02
820.948	88.4
821.127	29.01
821.305	94.55
821.483	72.02
821.661	160.08
821.839	43.35
822.017	108.88
822.195	80.21
822.373	37.2
822.551	65.88
822.729	59.73
822.907	55.64
823.085	112.98
823.262	84.31
823.44	117.08
823.618	82.26
823.796	57.68
823.974	43.35
824.152	67.92
824.329	29.01
824.507	125.27
824.685	123.22
824.863	104.79
825.04	74.07
825.218	76.12
825.396	53.59
825.574	-11.95
825.751	59.73
825.929	102.74
826.107	133.46
826.284	112.98
826.462	94.55
826.639	127.32
826.817	121.17
826.994	102.74
827.172	26.96
827.349	65.88
827.527	65.88
827.704	76.12
827.882	69.97
828.059	16.73
828.237	162.13
828.414	133.46
828.591	24.92
828.769	80.21
828.946	55.64
829.124	168.27
829.301	10.58
829.478	69.97
829.655	84.31
829.833	80.21
830.01	92.5
830.187	69.97
830.364	86.36
830.542	102.74
830.719	53.59
830.896	76.12
831.073	67.92
831.25	86.36
831.427	45.4
831.604	78.16
831.782	110.93
831.959	69.97
832.136	131.41
832.313	43.35
832.49	78.16
832.667	84.31
832.844	4.44
833.021	84.31
833.198	92.5
833.374	65.88
833.551	69.97
833.728	47.44
833.905	67.92
834.082	158.03
834.259	67.92
834.436	102.74
834.612	10.58
834.789	127.32
834.966	43.35
835.143	24.92
835.319	115.03
835.496	41.3
835.673	47.44
835.85	43.35
836.026	76.12
836.203	51.54
836.38	41.3
836.556	4.44
836.733	6.49
836.909	-16.04
837.086	67.92
837.262	61.78
837.439	24.92
837.616	72.02
837.792	119.12
837.968	43.35
838.145	20.82
838.321	147.8
838.498	57.68
838.674	108.88
838.851	51.54
839.027	35.16
839.203	55.64
839.38	18.77
839.556	94.55
839.732	39.25
839.909	86.36
840.085	51.54
840.261	-28.33
840.437	43.35
840.614	45.4
840.79	20.82
840.966	26.96
841.142	106.84
841.318	26.96
841.494	18.77
841.671	72.02
841.847	-26.28
842.023	6.49
842.199	22.87
842.375	26.96
842.551	82.26
842.727	76.12
842.903	74.07
843.079	-3.75
843.255	55.64
843.431	4.44
843.607	26.96
843.783	6.49
843.959	43.35
844.134	57.68
844.31	196.95
844.486	47.44
844.662	67.92
844.838	72.02
845.013	106.84
845.189	-30.38
845.365	39.25
845.541	72.02
845.716	43.35
845.892	69.97
846.068	12.63
846.244	26.96
846.419	67.92
846.595	2.39
846.77	20.82
846.946	26.96
847.122	110.93
847.297	59.73
847.473	26.96
847.648	59.73
847.824	33.11
847.999	10.58
848.175	53.59
848.35	29.01
848.526	82.26
848.701	-1.71
848.876	76.12
849.052	20.82
849.227	-20.14
849.403	10.58
849.578	86.36
849.753	55.64
849.929	45.4
850.104	8.53
850.279	76.12
850.454	67.92
850.63	37.2
850.805	84.31
850.98	-7.85
851.155	74.07
851.33	59.73
851.505	10.58
851.681	67.92
851.856	-7.85
852.031	6.49
852.206	57.68
852.381	90.45
852.556	20.82
852.731	78.16
852.906	43.35
853.081	53.59
853.256	39.25
853.431	31.06
853.606	76.12
853.781	24.92
853.956	26.96
854.131	59.73
854.305	-30.38
854.48	80.21
854.655	20.82
854.83	59.73
855.005	-1.71
855.18	51.54
855.354	-18.09
855.529	-1.71
855.704	-44.71
855.879	59.73
856.053	59.73
856.228	45.4
856.403	10.58
856.577	80.21
856.752	20.82
856.926	76.12
857.101	4.44
857.276	72.02
857.45	45.4
857.625	12.63
857.799	41.3
857.974	26.96
858.148	18.77
858.323	55.64
858.497	-3.75
858.672	45.4
858.846	39.25
859.02	96.6
859.195	45.4
859.369	12.63
859.543	67.92
859.718	12.63
859.892	22.87
860.066	16.73
860.241	61.78
860.415	22.87
860.589	55.64
860.763	-28.33
860.938	16.73
861.112	6.49
861.286	-16.04
861.46	63.83
861.634	86.36
861.808	-48.81
861.982	26.96
862.157	-38.57
862.331	33.11
862.505	-1.71
862.679	12.63
862.853	37.2
863.027	-50.86
863.201	53.59
863.375	14.68
863.549	4.44
863.722	67.92
863.896	18.77
864.07	22.87
864.244	12.63
864.418	110.93
864.592	43.35
864.766	29.01
864.939	12.63
865.113	37.2
865.287	35.16
865.461	67.92
865.634	-5.8
865.808	22.87
865.982	2.39
866.156	20.82
866.329	-46.76
866.503	26.96
866.676	14.68
866.85	18.77
867.024	35.16
867.197	-1.71
867.371	59.73
867.544	84.31
867.718	43.35
867.891	67.92
868.065	-5.8
868.238	33.11
868.412	102.74
868.585	29.01
868.759	18.77
868.932	51.54
869.105	-1.71
869.279	12.63
869.452	-59.05
869.625	53.59
869.799	37.2
869.972	-20.14
870.145	-5.8
870.319	-57
870.492	65.88
870.665	31.06
870.838	8.53
871.011	29.01
871.185	22.87
871.358	53.59
871.531	37.2
871.704	100.69
871.877	53.59
872.05	35.16
872.223	55.64
872.396	8.53
872.569	63.83
872.742	45.4
872.915	33.11
873.088	45.4
873.261	-3.75
873.434	67.92
873.607	110.93
873.78	0.34
873.953	-11.95
874.126	-52.91
874.299	2.39
874.471	4.44
874.644	8.53
874.817	43.35
874.99	59.73
875.163	59.73
875.335	41.3
875.508	-42.67
875.681	63.83
875.853	24.92
876.026	41.3
876.199	88.4
876.371	76.12
876.544	51.54
876.717	18.77
876.889	-30.38
877.062	82.26
877.234	26.96
877.407	29.01
877.579	4.44
877.752	20.82
877.924	10.58
878.097	65.88
878.269	78.16
878.442	-63.15
878.614	-5.8
878.786	47.44
878.959	33.11
879.131	-32.43
879.303	-11.95
879.476	45.4
879.648	12.63
879.82	6.49
879.993	29.01
880.165	37.2
880.337	4.44
880.509	-48.81
880.681	-30.38
880.854	90.45
881.026	55.64
881.198	51.54
881.37	-106.15
881.542	-65.19
881.714	47.44
881.886	53.59
882.058	45.4
882.23	-5.8
882.402	-3.75
882.574	43.35
882.746	141.65
882.918	-7.85
883.09	18.77
883.262	-28.33
883.434	14.68
883.606	14.68
883.778	51.54
883.95	26.96
884.122	14.68
884.293	47.44
884.465	98.64
884.637	10.58
884.809	2.39
884.98	43.35
885.152	-7.85
885.324	69.97
885.496	-13.99
885.667	-18.09
885.839	69.97
886.011	84.31
886.182	4.44
886.354	24.92
886.525	-1.71
886.697	14.68
886.869	47.44
887.04	69.97
887.212	41.3
887.383	-28.33
887.555	-11.95
887.726	16.73
887.897	26.96
888.069	26.96
888.24	22.87
888.412	20.82
888.583	-34.47
888.754	22.87
888.926	-1.71
889.097	-26.28
889.268	-75.43
889.44	10.58
889.611	72.02
889.782	18.77
889.953	-24.23
890.125	80.21
890.296	-3.75
890.467	72.02
890.638	18.77
890.809	-5.8
890.98	0.34
891.151	92.5
891.323	-32.43
891.494	29.01
891.665	-20.14
891.836	39.25
892.007	-3.75
892.178	24.92
892.349	12.63
892.52	43.35
892.691	16.73
892.862	26.96
893.032	26.96
893.203	51.54
893.374	-11.95
893.545	-16.04
893.716	8.53
893.887	29.01
894.057	33.11
894.228	31.06
894.399	14.68
894.57	112.98
894.74	-1.71
894.911	88.4
895.082	-100.01
895.253	20.82
895.423	-67.24
895.594	59.73
895.764	2.39
895.935	76.12
896.106	61.78
896.276	-18.09
896.447	59.73
896.617	12.63
896.788	-1.71
896.958	49.49
897.129	59.73
897.299	31.06
897.47	-26.28
897.64	10.58
897.81	31.06
897.981	-59.05
898.151	-16.04
898.322	43.35
898.492	39.25
898.662	84.31
898.832	10.58
899.003	59.73
899.173	-22.19
899.343	14.68
899.513	37.2
