Data from USB4F104151__127__13-57-58-217.txt Node

Date: Thu Mar 13 13:57:58 EDT 2025
User: louis
Spectrometer: USB4F10415
Trigger mode: 4
Integration Time (sec): 1.000000E-2
Scans to average: 1
Electric dark correction enabled: true
Nonlinearity correction enabled: false
Boxcar width: 0
XAxis mode: Wavelengths
Number of Pixels in Spectrum: 3648
>>>>>Begin Spectral Data<<<<<
178.204	-64.17
178.424	-64.17
178.644	-64.17
178.864	-74.41
179.084	-82.6
179.304	-6.83
179.524	-15.02
179.744	-6.83
179.964	1.37
180.184	-23.21
180.404	58.71
180.624	-39.59
180.844	-43.69
181.064	21.85
181.283	60.76
181.503	-53.93
181.723	46.42
181.943	38.23
182.163	-15.02
182.383	-21.16
182.602	13.65
182.822	-64.17
183.042	-15.02
183.262	-19.11
183.482	23.89
183.701	-10.92
183.921	64.85
184.141	-27.31
184.361	-45.74
184.58	-19.11
184.8	-45.74
185.02	-31.4
185.239	68.95
185.459	-31.4
185.679	17.75
185.898	-23.21
186.118	15.7
186.338	-15.02
186.557	1.37
186.777	-33.45
186.997	11.61
187.216	5.46
187.436	32.08
187.655	-4.78
187.875	25.94
188.095	-27.31
188.314	46.42
188.534	1.37
188.753	-21.16
188.973	-43.69
189.192	-4.78
189.412	-2.73
189.631	-37.55
189.851	-58.03
190.07	34.13
190.29	-88.75
190.509	56.66
190.729	-33.45
190.948	23.89
191.168	50.52
191.387	-19.11
191.607	-29.35
191.826	3.41
192.045	-41.64
192.265	25.94
192.484	17.75
192.704	-51.88
192.923	-72.36
193.142	11.61
193.362	25.94
193.581	73.04
193.8	-25.26
194.02	46.42
194.239	-49.83
194.458	-33.45
194.678	-84.65
194.897	5.46
195.116	1.37
195.335	36.18
195.555	-2.73
195.774	27.99
195.993	15.7
196.212	50.52
196.432	-27.31
196.651	-0.68
196.87	-70.31
197.089	36.18
197.308	-23.21
197.528	42.32
197.747	-66.22
197.966	34.13
198.185	1.37
198.404	21.85
198.623	-72.36
198.842	-51.88
199.062	11.61
199.281	-25.26
199.5	3.41
199.719	-19.11
199.938	-74.41
200.157	-72.36
200.376	-10.92
200.595	73.04
200.814	-27.31
201.033	30.04
201.252	-25.26
201.471	-27.31
201.69	-47.79
201.909	17.75
202.128	32.08
202.347	3.41
202.566	11.61
202.785	-17.07
203.004	-82.6
203.223	19.8
203.442	-37.55
203.661	5.46
203.879	64.85
204.098	38.23
204.317	15.7
204.536	27.99
204.755	23.89
204.974	73.04
205.193	-90.79
205.411	-64.17
205.63	-31.4
205.849	50.52
206.068	34.13
206.287	-29.35
206.505	-2.73
206.724	-0.68
206.943	44.37
207.162	5.46
207.381	32.08
207.599	40.28
207.818	-10.92
208.037	-55.98
208.255	-31.4
208.474	58.71
208.693	32.08
208.911	30.04
209.13	-43.69
209.349	-2.73
209.567	48.47
209.786	54.61
210.005	9.56
210.223	-19.11
210.442	-6.83
210.661	40.28
210.879	50.52
211.098	-19.11
211.316	11.61
211.535	19.8
211.753	-21.16
211.972	-27.31
212.191	-37.55
212.409	54.61
212.628	-15.02
212.846	-43.69
213.065	9.56
213.283	7.51
213.502	-58.03
213.72	-15.02
213.938	-21.16
214.157	-15.02
214.375	3.41
214.594	-6.83
214.812	-2.73
215.031	15.7
215.249	-12.97
215.467	-27.31
215.686	124.24
215.904	-25.26
216.122	-68.27
216.341	42.32
216.559	54.61
216.778	-15.02
216.996	77.14
217.214	15.7
217.432	-60.07
217.651	-10.92
217.869	19.8
218.087	-17.07
218.306	-70.31
218.524	-4.78
218.742	-8.87
218.96	7.51
219.179	-58.03
219.397	-19.11
219.615	30.04
219.833	25.94
220.051	11.61
220.27	9.56
220.488	-23.21
220.706	-58.03
220.924	-4.78
221.142	-45.74
221.36	38.23
221.578	-19.11
221.796	38.23
222.015	38.23
222.233	-19.11
222.451	-31.4
222.669	-2.73
222.887	3.41
223.105	23.89
223.323	-8.87
223.541	-2.73
223.759	1.37
223.977	38.23
224.195	-47.79
224.413	17.75
224.631	19.8
224.849	-2.73
225.067	62.8
225.285	-15.02
225.503	-15.02
225.721	-45.74
225.939	-19.11
226.157	44.37
226.375	23.89
226.592	-35.5
226.81	-0.68
227.028	40.28
227.246	1.37
227.464	-47.79
227.682	-31.4
227.9	-6.83
228.117	23.89
228.335	25.94
228.553	15.7
228.771	-64.17
228.989	62.8
229.206	34.13
229.424	46.42
229.642	23.89
229.86	58.71
230.077	-47.79
230.295	-49.83
230.513	54.61
230.731	17.75
230.948	-33.45
231.166	42.32
231.384	-37.55
231.601	-2.73
231.819	-43.69
232.037	71
232.254	-105.13
232.472	-49.83
232.689	-33.45
232.907	11.61
233.125	-49.83
233.342	-0.68
233.56	5.46
233.777	-21.16
233.995	-37.55
234.213	68.95
234.43	32.08
234.648	17.75
234.865	-29.35
235.083	-25.26
235.3	-84.65
235.518	17.75
235.735	46.42
235.953	56.66
236.17	-43.69
236.388	-43.69
236.605	-4.78
236.822	81.24
237.04	-35.5
237.257	52.56
237.475	-6.83
237.692	-39.59
237.909	40.28
238.127	15.7
238.344	-4.78
238.562	-55.98
238.779	-53.93
238.996	-37.55
239.214	-58.03
239.431	54.61
239.648	-92.84
239.865	-64.17
240.083	30.04
240.3	46.42
240.517	54.61
240.735	77.14
240.952	56.66
241.169	46.42
241.386	-49.83
241.603	-12.97
241.821	-12.97
242.038	81.24
242.255	15.7
242.472	58.71
242.689	-43.69
242.907	-2.73
243.124	-33.45
243.341	-37.55
243.558	52.56
243.775	-66.22
243.992	-25.26
244.209	-55.98
244.426	-60.07
244.643	7.51
244.86	34.13
245.078	13.65
245.295	-10.92
245.512	1.37
245.729	54.61
245.946	9.56
246.163	15.7
246.38	15.7
246.597	52.56
246.814	34.13
247.031	19.8
247.248	21.85
247.464	-10.92
247.681	64.85
247.898	-10.92
248.115	-62.12
248.332	-15.02
248.549	46.42
248.766	3.41
248.983	-0.68
249.2	-33.45
249.417	-23.21
249.633	-0.68
249.85	34.13
250.067	25.94
250.284	75.09
250.501	-4.78
250.717	1.37
250.934	40.28
251.151	15.7
251.368	-49.83
251.585	17.75
251.801	-33.45
252.018	-43.69
252.235	15.7
252.451	-88.75
252.668	-2.73
252.885	-33.45
253.102	46.42
253.318	-35.5
253.535	9.56
253.752	-2.73
253.968	21.85
254.185	44.37
254.401	15.7
254.618	7.51
254.835	-4.78
255.051	62.8
255.268	42.32
255.484	-35.5
255.701	9.56
255.917	50.52
256.134	-21.16
256.351	-58.03
256.567	-43.69
256.784	17.75
257	-25.26
257.217	-12.97
257.433	34.13
257.65	-10.92
257.866	-21.16
258.082	-31.4
258.299	21.85
258.515	21.85
258.732	13.65
258.948	64.85
259.165	-0.68
259.381	17.75
259.597	5.46
259.814	-21.16
260.03	-21.16
260.246	34.13
260.463	81.24
260.679	-25.26
260.895	7.51
261.112	19.8
261.328	-19.11
261.544	40.28
261.761	36.18
261.977	7.51
262.193	-29.35
262.409	23.89
262.626	79.19
262.842	15.7
263.058	-25.26
263.274	11.61
263.49	44.37
263.707	-15.02
263.923	-12.97
264.139	1.37
264.355	34.13
264.571	34.13
264.787	-15.02
265.004	-39.59
265.22	-15.02
265.436	-2.73
265.652	15.7
265.868	-2.73
266.084	-55.98
266.3	83.28
266.516	-15.02
266.732	56.66
266.948	44.37
267.164	40.28
267.38	5.46
267.596	58.71
267.812	1.37
268.028	54.61
268.244	50.52
268.46	21.85
268.676	32.08
268.892	32.08
269.108	-8.87
269.324	-31.4
269.54	-33.45
269.756	23.89
269.972	54.61
270.188	-41.64
270.403	7.51
270.619	-17.07
270.835	-2.73
271.051	5.46
271.267	-2.73
271.483	42.32
271.698	5.46
271.914	21.85
272.13	23.89
272.346	85.33
272.562	-68.27
272.777	3.41
272.993	17.75
273.209	13.65
273.425	3.41
273.64	23.89
273.856	-10.92
274.072	64.85
274.287	3.41
274.503	21.85
274.719	-0.68
274.934	-23.21
275.15	38.23
275.366	-64.17
275.581	-25.26
275.797	-8.87
276.012	5.46
276.228	1.37
276.444	23.89
276.659	71
276.875	68.95
277.09	-4.78
277.306	-4.78
277.521	-37.55
277.737	68.95
277.952	-27.31
278.168	1.37
278.383	1.37
278.599	-29.35
278.814	-19.11
279.03	48.47
279.245	42.32
279.461	-41.64
279.676	-35.5
279.892	-45.74
280.107	9.56
280.322	-70.31
280.538	23.89
280.753	-4.78
280.969	23.89
281.184	-10.92
281.399	27.99
281.615	3.41
281.83	54.61
282.045	-6.83
282.26	-8.87
282.476	-10.92
282.691	-51.88
282.906	32.08
283.122	23.89
283.337	46.42
283.552	21.85
283.767	71
283.983	13.65
284.198	81.24
284.413	17.75
284.628	-39.59
284.843	34.13
285.058	15.7
285.274	27.99
285.489	5.46
285.704	38.23
285.919	-15.02
286.134	42.32
286.349	-37.55
286.564	13.65
286.779	-31.4
286.995	-21.16
287.21	-19.11
287.425	42.32
287.64	-6.83
287.855	34.13
288.07	25.94
288.285	17.75
288.5	19.8
288.715	38.23
288.93	36.18
289.145	-72.36
289.36	21.85
289.575	-19.11
289.79	48.47
290.004	7.51
290.219	-8.87
290.434	-27.31
290.649	-12.97
290.864	-27.31
291.079	9.56
291.294	19.8
291.509	42.32
291.724	-41.64
291.938	-47.79
292.153	11.61
292.368	-21.16
292.583	34.13
292.798	50.52
293.012	1.37
293.227	-15.02
293.442	42.32
293.657	50.52
293.871	-8.87
294.086	-35.5
294.301	21.85
294.516	77.14
294.73	-17.07
294.945	-17.07
295.16	15.7
295.374	7.51
295.589	85.33
295.804	-21.16
296.018	30.04
296.233	13.65
296.447	-6.83
296.662	23.89
296.877	9.56
297.091	32.08
297.306	32.08
297.52	-17.07
297.735	71
297.949	-0.68
298.164	7.51
298.378	17.75
298.593	11.61
298.807	34.13
299.022	-74.41
299.236	5.46
299.451	3.41
299.665	-82.6
299.88	-35.5
300.094	-27.31
300.309	34.13
300.523	-27.31
300.737	17.75
300.952	-49.83
301.166	71
301.381	-37.55
301.595	-25.26
301.809	-68.27
302.024	-21.16
302.238	40.28
302.452	58.71
302.667	-51.88
302.881	40.28
303.095	-43.69
303.309	60.76
303.524	-25.26
303.738	54.61
303.952	23.89
304.166	15.7
304.381	46.42
304.595	-12.97
304.809	38.23
305.023	89.43
305.237	73.04
305.452	5.46
305.666	95.57
305.88	-21.16
306.094	-25.26
306.308	-2.73
306.522	-27.31
306.736	30.04
306.95	-2.73
307.164	50.52
307.379	-17.07
307.593	30.04
307.807	11.61
308.021	-15.02
308.235	-23.21
308.449	-4.78
308.663	-23.21
308.877	85.33
309.091	5.46
309.305	13.65
309.519	13.65
309.733	-15.02
309.947	-96.94
310.161	46.42
310.374	-4.78
310.588	-0.68
310.802	-33.45
311.016	-21.16
311.23	-33.45
311.444	-0.68
311.658	3.41
311.872	23.89
312.085	19.8
312.299	38.23
312.513	32.08
312.727	56.66
312.941	23.89
313.154	60.76
313.368	-17.07
313.582	-51.88
313.796	-17.07
314.009	-8.87
314.223	15.7
314.437	25.94
314.651	-12.97
314.864	75.09
315.078	-23.21
315.292	-6.83
315.505	38.23
315.719	101.72
315.933	21.85
316.146	-45.74
316.36	13.65
316.573	-2.73
316.787	9.56
317.001	5.46
317.214	7.51
317.428	30.04
317.641	25.94
317.855	34.13
318.068	-29.35
318.282	-2.73
318.495	17.75
318.709	5.46
318.922	9.56
319.136	42.32
319.349	-31.4
319.563	38.23
319.776	-78.51
319.99	15.7
320.203	-0.68
320.417	-17.07
320.63	-19.11
320.843	-2.73
321.057	-2.73
321.27	54.61
321.483	-8.87
321.697	7.51
321.91	7.51
322.124	36.18
322.337	21.85
322.55	1.37
322.763	-23.21
322.977	1.37
323.19	-0.68
323.403	-37.55
323.617	38.23
323.83	7.51
324.043	1.37
324.256	40.28
324.469	-10.92
324.683	95.57
324.896	56.66
325.109	-29.35
325.322	17.75
325.535	-31.4
325.748	30.04
325.962	-23.21
326.175	-0.68
326.388	120.15
326.601	-51.88
326.814	11.61
327.027	-6.83
327.24	73.04
327.453	25.94
327.666	54.61
327.879	48.47
328.092	34.13
328.305	-49.83
328.518	13.65
328.731	11.61
328.944	-2.73
329.157	32.08
329.37	-2.73
329.583	81.24
329.796	3.41
330.009	-19.11
330.222	11.61
330.435	5.46
330.648	25.94
330.861	83.28
331.073	-15.02
331.286	105.81
331.499	79.19
331.712	-21.16
331.925	15.7
332.138	34.13
332.35	-2.73
332.563	48.47
332.776	44.37
332.989	54.61
333.202	-35.5
333.414	-17.07
333.627	-8.87
333.84	19.8
334.053	38.23
334.265	15.7
334.478	54.61
334.691	-10.92
334.903	25.94
335.116	54.61
335.329	66.9
335.541	5.46
335.754	-31.4
335.966	19.8
336.179	1.37
336.392	-8.87
336.604	13.65
336.817	13.65
337.029	9.56
337.242	1.37
337.454	-35.5
337.667	-74.41
337.88	52.56
338.092	-84.65
338.305	-23.21
338.517	52.56
338.729	34.13
338.942	-35.5
339.154	3.41
339.367	-6.83
339.579	-23.21
339.792	23.89
340.004	73.04
340.217	7.51
340.429	30.04
340.641	-66.22
340.854	52.56
341.066	-27.31
341.278	25.94
341.491	68.95
341.703	56.66
341.915	5.46
342.128	17.75
342.34	-23.21
342.552	19.8
342.764	-0.68
342.977	-29.35
343.189	11.61
343.401	-10.92
343.613	7.51
343.826	21.85
344.038	-47.79
344.25	-23.21
344.462	-47.79
344.674	-12.97
344.886	-17.07
345.099	38.23
345.311	-33.45
345.523	-2.73
345.735	21.85
345.947	-72.36
346.159	-51.88
346.371	120.15
346.583	-0.68
346.795	23.89
347.007	-31.4
347.219	27.99
347.431	-60.07
347.643	-12.97
347.855	11.61
348.067	13.65
348.279	-2.73
348.491	58.71
348.703	-19.11
348.915	30.04
349.127	42.32
349.339	75.09
349.551	-70.31
349.763	-8.87
349.975	38.23
350.187	73.04
350.399	5.46
350.61	17.75
350.822	9.56
351.034	21.85
351.246	-25.26
351.458	87.38
351.669	36.18
351.881	91.48
352.093	36.18
352.305	17.75
352.517	-94.89
352.728	-2.73
352.94	81.24
353.152	-2.73
353.363	19.8
353.575	36.18
353.787	-2.73
353.999	21.85
354.21	-29.35
354.422	25.94
354.633	15.7
354.845	79.19
355.057	50.52
355.268	1.37
355.48	7.51
355.692	42.32
355.903	-33.45
356.115	36.18
356.326	-37.55
356.538	-0.68
356.749	5.46
356.961	83.28
357.172	27.99
357.384	44.37
357.595	19.8
357.807	-51.88
358.018	-27.31
358.23	40.28
358.441	7.51
358.653	13.65
358.864	11.61
359.075	-2.73
359.287	21.85
359.498	38.23
359.709	71
359.921	-25.26
360.132	-41.64
360.344	23.89
360.555	3.41
360.766	-0.68
360.977	-74.41
361.189	58.71
361.4	-29.35
361.611	42.32
361.823	128.34
362.034	30.04
362.245	79.19
362.456	23.89
362.667	79.19
362.879	25.94
363.09	1.37
363.301	7.51
363.512	32.08
363.723	7.51
363.935	11.61
364.146	83.28
364.357	-43.69
364.568	34.13
364.779	1.37
364.99	38.23
365.201	9.56
365.412	3.41
365.623	11.61
365.834	-47.79
366.045	-41.64
366.256	56.66
366.467	68.95
366.678	-58.03
366.889	68.95
367.1	-8.87
367.311	83.28
367.522	-33.45
367.733	7.51
367.944	-41.64
368.155	-35.5
368.366	-19.11
368.577	58.71
368.788	68.95
368.999	21.85
369.209	27.99
369.42	-6.83
369.631	-19.11
369.842	75.09
370.053	19.8
370.264	56.66
370.474	15.7
370.685	27.99
370.896	60.76
371.107	46.42
371.317	36.18
371.528	15.7
371.739	91.48
371.95	42.32
372.16	1.37
372.371	11.61
372.582	9.56
372.792	21.85
373.003	23.89
373.214	64.85
373.424	79.19
373.635	5.46
373.846	89.43
374.056	7.51
374.267	-25.26
374.477	15.7
374.688	21.85
374.898	58.71
375.109	19.8
375.319	19.8
375.53	17.75
375.74	71
375.951	23.89
376.161	27.99
376.372	5.46
376.582	58.71
376.793	44.37
377.003	27.99
377.214	17.75
377.424	-0.68
377.635	-4.78
377.845	-41.64
378.055	38.23
378.266	40.28
378.476	-8.87
378.686	9.56
378.897	-17.07
379.107	30.04
379.317	-6.83
379.528	54.61
379.738	-2.73
379.948	-47.79
380.158	56.66
380.369	81.24
380.579	5.46
380.789	60.76
380.999	23.89
381.21	34.13
381.42	71
381.63	30.04
381.84	23.89
382.05	46.42
382.261	7.51
382.471	56.66
382.681	9.56
382.891	42.32
383.101	66.9
383.311	87.38
383.521	5.46
383.731	83.28
383.941	54.61
384.151	23.89
384.361	21.85
384.571	54.61
384.781	9.56
384.991	32.08
385.201	-8.87
385.411	30.04
385.621	87.38
385.831	21.85
386.041	56.66
386.251	-21.16
386.461	44.37
386.671	62.8
386.881	5.46
387.091	66.9
387.301	-17.07
387.511	32.08
387.72	17.75
387.93	-2.73
388.14	42.32
388.35	25.94
388.56	75.09
388.769	62.8
388.979	-19.11
389.189	-31.4
389.399	93.52
389.609	44.37
389.818	-0.68
390.028	21.85
390.238	81.24
390.447	25.94
390.657	103.76
390.867	-6.83
391.076	122.2
391.286	71
391.496	58.71
391.705	1.37
391.915	9.56
392.125	132.44
392.334	-10.92
392.544	19.8
392.753	71
392.963	48.47
393.172	13.65
393.382	21.85
393.591	48.47
393.801	48.47
394.01	105.81
394.22	9.56
394.429	1.37
394.639	21.85
394.848	83.28
395.058	91.48
395.267	79.19
395.477	56.66
395.686	73.04
395.895	36.18
396.105	50.52
396.314	40.28
396.524	71
396.733	50.52
396.942	64.85
397.152	79.19
397.361	89.43
397.57	71
397.78	13.65
397.989	136.53
398.198	122.2
398.407	93.52
398.617	68.95
398.826	111.96
399.035	68.95
399.244	21.85
399.453	64.85
399.663	40.28
399.872	36.18
400.081	89.43
400.29	146.77
400.499	87.38
400.708	15.7
400.917	15.7
401.127	130.39
401.336	42.32
401.545	89.43
401.754	73.04
401.963	71
402.172	38.23
402.381	27.99
402.59	97.62
402.799	60.76
403.008	118.1
403.217	144.72
403.426	68.95
403.635	140.63
403.844	130.39
404.053	71
404.262	101.72
404.471	150.87
404.68	95.57
404.888	71
405.097	101.72
405.306	95.57
405.515	93.52
405.724	116.05
405.933	81.24
406.142	142.68
406.35	159.06
406.559	136.53
406.768	128.34
406.977	159.06
407.185	177.49
407.394	103.76
407.603	173.39
407.812	189.78
408.02	107.86
408.229	185.68
408.438	193.87
408.646	171.35
408.855	183.63
409.064	181.59
409.272	212.31
409.481	275.79
409.69	243.03
409.898	230.74
410.107	265.55
410.315	259.41
410.524	224.59
410.733	210.26
410.941	290.13
411.15	253.27
411.358	294.22
411.567	326.99
411.775	310.61
411.984	406.86
412.192	353.62
412.401	357.71
412.609	423.25
412.818	488.78
413.026	392.53
413.234	406.86
413.443	417.1
413.651	417.1
413.86	429.39
414.068	496.97
414.276	501.07
414.485	456.01
414.693	580.94
414.901	517.45
415.11	585.04
415.318	677.2
415.526	660.81
415.734	591.18
415.943	669
416.151	687.43
416.359	701.77
416.567	759.11
416.776	838.98
416.984	822.6
417.192	845.13
417.4	902.47
417.608	855.37
417.817	892.23
418.025	1000.77
418.233	1006.92
418.441	986.44
418.649	1021.25
418.857	1117.51
419.065	1058.12
419.273	1115.46
419.481	1293.63
419.689	1144.13
419.897	1297.73
420.105	1359.17
420.313	1332.55
420.521	1443.14
420.729	1447.23
420.937	1469.76
421.145	1596.73
421.353	1582.4
421.561	1713.47
421.769	1731.9
421.977	1830.2
422.185	1758.52
422.393	1850.68
422.601	2084.15
422.809	2002.23
423.017	2030.9
423.224	2100.53
423.432	2161.97
423.64	2200.88
423.848	2364.72
424.056	2260.27
424.263	2528.56
424.471	2463.02
424.679	2438.45
424.887	2751.79
425.094	2757.93
425.302	2741.55
425.51	2755.88
425.718	2975.02
425.925	2915.62
426.133	3052.84
426.341	3214.63
426.548	3470.62
426.756	3446.05
426.964	3595.55
427.171	3695.9
427.379	3792.16
427.586	3786.01
427.794	3966.23
428.001	4093.21
428.209	4207.89
428.417	4197.65
428.624	4576.53
428.832	4535.57
429.039	4594.96
429.247	4476.18
429.454	4781.32
429.662	5311.75
429.869	4826.38
430.076	5313.8
430.284	5188.87
430.491	5186.82
430.699	5485.83
430.906	5629.18
431.114	5692.67
431.321	5831.93
431.528	6157.56
431.736	6477.04
431.943	6706.41
432.15	6599.92
432.358	6579.44
432.565	6956.27
432.772	6986.99
432.979	7404.77
433.187	7476.45
433.394	7582.95
433.601	7879.9
433.808	7945.44
434.016	7849.18
434.223	8271.06
434.43	8791.25
434.637	8619.22
434.844	9247.94
435.052	9370.82
435.259	8994
435.466	9415.88
435.673	9331.91
435.88	9968.83
436.087	10482.87
436.294	10353.85
436.501	10042.56
436.708	10247.35
436.915	10622.13
437.122	10990.77
437.329	11197.61
437.537	11547.81
437.743	11644.07
437.95	11588.77
438.157	12127.39
438.364	12506.26
438.571	12520.6
438.778	12448.92
438.985	13712.52
439.192	13235.34
439.399	13587.59
439.606	13380.75
439.813	14435.45
440.02	15195.25
440.227	14687.35
440.433	14220.41
440.64	15195.25
440.847	14914.67
441.054	15404.14
441.261	16116.83
441.467	16034.91
441.674	16397.4
441.881	17218.64
442.088	16960.59
442.294	16768.09
442.501	17364.04
442.708	17564.75
442.914	18361.41
443.121	19035.19
443.328	18543.67
443.534	19694.63
443.741	19088.43
443.948	19084.34
444.154	20270.11
444.361	20288.54
444.568	20360.22
444.774	20309.02
444.981	20743.19
445.187	21199.89
445.394	21957.64
445.6	21783.56
445.807	24165.35
446.013	22838.26
446.22	23325.68
446.426	24099.81
446.633	24472.54
446.839	25248.72
447.046	24267.75
447.252	25488.34
447.459	25852.87
447.665	25519.06
447.871	26571.71
448.078	27937.71
448.284	26395.59
448.491	27126.71
448.697	28158.89
448.903	28705.7
449.11	28804
449.316	28281.77
449.522	28607.39
449.728	29596.56
449.935	29649.81
450.141	29930.38
450.347	30423.94
450.553	29506.45
450.76	29692.82
450.966	31073.15
451.172	30395.27
451.378	31241.08
451.584	30667.65
451.791	31269.75
451.997	31341.43
452.203	31845.23
452.409	31845.23
452.615	31579
452.821	30264.2
453.027	29971.34
453.233	31619.95
453.44	30307.21
453.646	30520.2
453.852	30892.93
454.058	31329.14
454.264	30165.9
454.47	30976.89
454.676	30399.37
454.882	31185.79
455.088	28593.06
455.294	29096.86
455.5	29492.12
455.705	29647.76
455.911	28865.44
456.117	27960.23
456.323	27612.08
456.529	26059.72
456.735	27646.9
456.941	26889.15
457.147	26356.68
457.352	25269.2
457.558	25035.74
457.764	25228.24
457.97	24794.07
458.176	23993.32
458.381	24249.32
458.587	22852.6
458.793	22744.06
458.999	21654.54
459.204	23114.74
459.41	22608.89
459.616	20947.99
459.821	21220.37
460.027	20943.89
460.233	20923.41
460.438	19274.8
460.644	20087.84
460.85	18644.02
461.055	18699.32
461.261	18740.28
461.466	17523.79
461.672	16741.46
461.878	17923.14
462.083	16933.97
462.289	16583.77
462.494	16227.42
462.7	15840.36
462.905	15029.36
463.111	15377.51
463.316	15701.09
463.522	15490.15
463.727	15488.1
463.932	15541.35
464.138	15230.06
464.343	15393.9
464.549	14763.12
464.754	15314.03
464.959	15309.93
465.165	15015.02
465.37	14261.37
465.575	14249.08
465.781	14693.49
465.986	14834.8
466.191	14326.91
466.397	13603.97
466.602	13116.56
466.807	13505.67
467.012	13603.97
467.218	13630.6
467.423	13501.58
467.628	13636.74
467.833	14285.95
468.038	13726.85
468.244	13292.68
468.449	13653.12
468.654	13321.35
468.859	13323.4
469.064	13147.28
469.269	12510.36
469.474	12469.4
469.679	13089.93
469.885	12600.47
470.09	12729.49
470.295	12709.01
470.5	12405.91
470.705	12485.78
470.91	12090.52
471.115	12137.63
471.32	12250.27
471.525	12416.15
471.73	11824.29
471.935	11572.39
472.139	11377.83
472.344	11515.05
472.549	11412.65
472.754	11431.08
472.959	11326.63
473.164	10929.33
473.369	10871.98
473.574	11097.26
473.778	11224.23
473.983	10853.55
474.188	10855.6
474.393	10550.45
474.598	10499.25
474.802	10400.95
475.007	10376.38
475.212	10202.3
475.417	10110.14
475.621	9901.25
475.826	9952.45
476.031	9639.11
476.235	9585.86
476.44	9841.86
476.645	9450.69
476.849	9651.39
477.054	9465.03
477.259	9180.36
477.463	9219.27
477.668	9155.79
477.872	9264.33
478.077	8899.79
478.282	8656.08
478.486	8707.28
478.691	8531.16
478.895	8662.23
479.1	8707.28
479.304	8639.7
479.509	8355.03
479.713	8582.35
479.918	8283.35
480.122	8287.45
480.326	8328.41
480.531	8250.58
480.735	8117.47
480.94	8223.96
481.144	8449.24
481.348	7996.64
481.553	8031.45
481.757	7902.43
481.961	8068.31
482.166	8266.97
482.37	8121.56
482.574	8094.94
482.778	8121.56
482.983	8045.79
483.187	8082.65
483.391	8096.99
483.595	7859.42
483.8	7822.56
484.004	7904.48
484.208	8029.4
484.412	7912.67
484.616	8019.16
484.821	7845.09
485.025	7947.48
485.229	8154.33
485.433	7949.53
485.637	8074.46
485.841	7808.22
486.045	8049.88
486.249	7949.53
486.453	7902.43
486.657	7943.39
486.861	8051.93
487.065	7711.97
487.269	7840.99
487.473	7824.61
487.677	8056.03
487.881	7886.05
488.085	7761.12
488.289	8062.17
488.493	7918.81
488.697	7976.16
488.901	8099.03
489.105	8234.2
489.309	8002.78
489.512	7912.67
489.716	8213.72
489.92	7924.96
490.124	7840.99
490.328	8226.01
490.531	7986.4
490.735	8068.31
490.939	8074.46
491.143	8103.13
491.346	8293.59
491.55	8221.91
491.754	8269.02
491.958	8346.84
492.161	8326.36
492.365	8434.9
492.569	8490.2
492.772	8361.17
492.976	8525.01
493.18	8498.39
493.383	8588.5
493.587	8678.61
493.79	8697.04
493.994	8654.03
494.197	8885.45
494.401	8875.21
494.605	8877.26
494.808	9133.26
495.012	8791.25
495.215	8768.72
495.419	9004.24
495.622	9168.07
495.825	9237.7
496.029	9139.4
496.232	9522.37
496.436	9551.04
496.639	9764.03
496.843	9622.72
497.046	9800.9
497.249	9891.01
497.453	10181.82
497.656	10128.57
497.859	9977.02
498.063	10187.96
498.266	10503.35
498.469	10343.61
498.673	10489.01
498.876	10824.88
499.079	10945.71
499.282	10837.17
499.485	11101.36
499.689	11148.46
499.892	11373.74
500.095	11326.63
500.298	11646.12
500.501	11513
500.705	11637.92
500.908	12197.02
501.111	12070.05
501.314	12266.65
501.517	12317.85
501.72	12643.48
501.923	12381.34
502.126	12633.24
502.329	12829.84
502.532	13008.01
502.735	13143.18
502.938	13089.93
503.141	13347.98
503.344	13687.94
503.547	13599.88
503.75	13753.48
503.953	13907.07
504.156	14199.93
504.359	14478.46
504.562	14599.29
504.765	14924.91
504.968	15012.98
505.17	15199.34
505.373	15039.6
505.576	15363.18
505.779	15467.63
505.982	15686.76
506.185	15952.99
506.387	16030.82
506.59	16518.23
506.793	16614.49
506.996	16716.89
507.198	16958.55
507.401	16993.36
507.604	17153.1
507.807	17464.39
508.009	17755.21
508.212	17884.23
508.415	18224.19
508.617	18244.67
508.82	18304.06
509.022	18246.72
509.225	19045.43
509.428	18957.36
509.63	19211.31
509.833	19381.29
510.035	19803.18
510.238	19803.18
510.44	20053.03
510.643	20241.44
510.845	20536.35
511.048	20548.64
511.25	20943.89
511.453	21001.24
511.655	21701.64
511.858	21478.41
512.06	21804.04
512.262	22027.27
512.465	21900.3
512.667	22467.58
512.87	23024.63
513.072	22690.81
513.274	23333.87
513.477	23479.28
513.679	23860.2
513.881	24007.65
514.084	24314.85
514.286	24460.26
514.488	24810.46
514.69	25564.11
514.893	25144.28
515.095	25269.2
515.297	25813.96
515.499	26010.57
515.701	25897.93
515.904	26534.85
516.106	26584
516.308	27007.93
516.51	27550.64
516.712	27538.35
516.914	27847.6
517.116	28369.83
517.318	28052.39
517.52	28836.77
517.722	28705.7
517.925	29311.89
518.127	29643.67
518.329	30124.94
518.531	29608.85
518.733	30555.01
518.935	30409.61
519.136	30493.57
519.338	31001.47
519.54	31345.53
519.742	31818.61
519.944	31617.91
520.146	32207.72
520.348	32215.91
520.55	32920.42
520.752	33061.72
520.954	33473.37
521.155	33157.98
521.357	33932.11
521.559	34136.91
521.761	34622.28
521.963	34388.81
522.164	34829.12
522.366	34911.04
522.568	34911.04
522.77	35294.01
522.971	35435.32
523.173	35785.52
523.375	36203.31
523.576	36250.41
523.778	36176.69
523.98	37006.11
524.181	36852.51
524.383	37503.77
524.584	38003.47
524.786	37626.65
524.988	37671.7
525.189	38177.55
525.391	38069.01
525.592	38517.51
525.794	39002.88
525.995	38595.34
526.197	38503.18
526.398	39021.31
526.6	39336.7
526.801	39703.29
527.003	39590.65
527.204	39627.51
527.406	39762.68
527.607	39873.27
527.808	40362.73
528.01	39746.29
528.211	40078.07
528.412	40960.74
528.614	41018.08
528.815	40676.07
529.016	41067.23
529.218	40788.71
529.419	41319.13
529.62	41394.91
529.822	41315.04
530.023	41126.63
530.224	41374.43
530.425	41388.77
530.626	40895.21
530.828	41335.52
531.029	42111.7
531.23	41614.04
531.431	41835.22
531.632	41753.3
531.833	42246.86
532.035	41935.57
532.236	42175.19
532.437	42152.66
532.638	42054.36
532.839	42498.76
533.04	42519.24
533.241	41792.22
533.442	42889.93
533.643	42484.43
533.844	42625.74
534.045	42502.86
534.246	42373.84
534.447	42900.17
534.648	42367.69
534.849	42341.07
535.05	42083.03
535.251	42818.25
535.451	42185.43
535.652	42922.69
535.853	42486.48
536.054	42547.92
536.255	42734.28
536.456	42406.61
536.657	43442.88
536.857	42406.61
537.058	42785.48
537.259	43014.85
537.46	42918.6
537.66	42748.62
537.861	42734.28
538.062	42846.92
538.263	43246.27
538.463	42547.92
538.664	42685.13
538.865	42795.72
539.065	43107.01
539.266	42343.12
539.466	43184.83
539.667	42533.58
539.868	42859.21
540.068	42750.67
540.269	42838.73
540.469	43008.71
540.67	42549.96
540.87	43102.92
541.071	42808.01
541.271	42711.75
541.472	42865.35
541.672	42371.79
541.873	42853.06
542.073	42334.93
542.274	43125.44
542.474	42633.93
542.675	42511.05
542.875	43047.62
543.075	42654.41
543.276	42386.13
543.476	43033.28
543.676	42306.26
543.877	42754.76
544.077	42691.27
544.277	42863.3
544.478	42556.11
544.678	43064
544.878	42713.8
545.078	42746.57
545.279	42506.96
545.479	42494.67
545.679	42711.75
545.879	42672.84
546.079	42537.68
546.28	42425.04
546.48	42443.47
546.68	42515.15
546.88	42805.96
547.08	42767.05
547.28	42613.45
547.48	42283.73
547.68	42394.32
547.88	41898.71
548.081	43039.43
548.281	42480.33
548.481	42509
548.681	42939.08
548.881	42586.83
549.081	42148.56
549.28	42226.39
549.48	42480.33
549.68	42185.43
549.88	42857.16
550.08	42015.44
550.28	42285.78
550.48	42214.1
550.68	42916.55
550.88	42173.14
551.08	42070.74
551.279	42218.19
551.479	42330.83
551.679	42570.44
551.879	41923.29
552.079	42164.95
552.278	42427.09
552.478	42466
552.678	42410.7
552.878	42701.51
553.077	42435.28
553.277	41960.15
553.477	42754.76
553.676	42332.88
553.876	42144.47
554.076	42062.55
554.275	41667.29
554.475	41741.02
554.674	41673.43
554.874	42244.82
555.074	41749.21
555.273	42255.06
555.473	42044.12
555.672	41327.33
555.872	41442.01
556.071	41800.41
556.271	42277.58
556.47	41652.95
556.67	41235.17
556.869	41356
557.068	41532.12
557.268	41216.74
557.467	41384.67
557.667	41583.32
557.866	41738.97
558.065	41480.92
558.265	41218.78
558.464	40899.3
558.663	41562.84
558.863	40837.86
559.062	41282.27
559.261	40504.04
559.461	41638.62
559.66	40588.01
559.859	40760.04
560.058	40809.19
560.258	40508.14
560.457	40407.79
560.656	41091.81
560.855	40385.26
561.054	40395.5
561.253	40256.24
561.453	40356.59
561.652	40456.94
561.851	40817.38
562.05	40370.93
562.249	40045.3
562.448	40391.4
562.647	40368.88
562.846	40422.12
563.045	39920.37
563.244	39858.93
563.443	40096.5
563.642	39336.7
563.841	39836.41
564.04	39918.32
564.239	40069.87
564.438	39615.22
564.637	39656.18
564.836	39328.51
565.035	38963.97
565.234	39549.69
565.432	39131.9
565.631	38701.83
565.83	38900.48
566.029	38966.02
566.228	38880
566.427	38968.07
566.625	39080.71
566.824	38603.53
567.023	39033.6
567.222	38476.55
567.42	38560.52
567.619	38378.25
567.818	38499.08
568.016	38628.1
568.215	38755.08
568.414	38157.07
568.612	38458.12
568.811	38251.28
569.01	38427.4
569.208	37966.61
569.407	38181.65
569.605	37229.34
569.804	37935.89
570.002	37045.02
570.201	37475.1
570.4	37088.03
570.598	37176.09
570.797	37155.61
570.995	37505.82
571.193	36576.04
571.392	37245.72
571.59	36633.38
571.789	36684.58
571.987	36846.37
572.186	36643.62
572.384	36377.39
572.582	36500.26
572.781	36145.97
572.979	35787.57
573.177	36346.67
573.376	35914.55
573.574	35631.93
573.772	36148.01
573.971	35818.29
574.169	35717.94
574.367	35463.99
574.565	35863.35
574.763	35382.07
574.962	35572.53
575.16	34585.41
575.358	34941.76
575.556	34816.83
575.754	35300.15
575.952	34769.73
576.151	35019.58
576.349	34237.26
576.547	34540.36
576.745	34745.16
576.943	34407.24
577.141	34394.95
577.339	34462.54
577.537	33796.95
577.735	34171.72
577.933	33540.95
578.131	33885.01
578.329	33600.34
578.527	33852.24
578.725	33618.77
578.923	33606.48
579.121	33356.63
579.319	33301.34
579.516	33346.39
579.714	33119.07
579.912	32828.26
580.11	32736.1
580.308	32658.28
580.506	32746.34
580.704	32291.69
580.901	32531.3
581.099	32695.14
581.297	32414.57
581.495	32273.26
581.692	32525.16
581.89	31986.54
582.088	32713.57
582.285	31898.48
582.483	32064.36
582.681	32029.55
582.878	31789.94
583.076	31046.52
583.274	31560.56
583.471	30913.41
583.669	31183.74
583.866	31511.41
584.064	31146.87
584.262	30958.46
584.459	31355.77
584.657	30894.97
584.854	30770.05
585.052	30370.69
585.249	30464.9
585.447	30307.21
585.644	30192.52
585.841	30559.11
586.039	30442.37
586.236	30118.79
586.434	29991.82
586.631	29717.39
586.828	29623.19
587.026	29569.94
587.223	29701.01
587.42	29864.85
587.618	29877.13
587.815	29279.13
588.012	29424.53
588.21	29414.29
588.407	29498.26
588.604	29035.42
588.801	28953.5
588.999	28816.29
589.196	29072.28
589.393	29096.86
589.59	28691.36
589.787	28558.24
589.984	28562.34
590.182	28392.36
590.379	28560.29
590.576	28302.25
590.773	28603.3
590.97	27835.31
591.167	28095.4
591.364	27636.66
591.561	27929.52
591.758	27915.18
591.955	27872.17
592.152	27997.1
592.349	27501.49
592.546	27749.29
592.743	27683.76
592.94	27290.55
593.137	27339.7
593.334	27558.83
593.531	27014.07
593.727	27235.25
593.924	27042.74
594.121	27079.61
594.318	27165.62
594.515	26409.92
594.712	26661.82
594.908	26807.23
595.105	26280.9
595.302	26196.93
595.499	26151.88
595.696	26411.97
595.892	26006.47
596.089	25965.51
596.286	26295.24
596.482	26094.54
596.679	26008.52
596.876	25842.64
597.072	25762.76
597.269	25861.07
597.466	25660.37
597.662	25654.22
597.859	25275.35
598.055	25506.77
598.252	25201.62
598.448	25480.14
598.645	25340.88
598.841	24603.61
599.038	24984.54
599.234	25228.24
599.431	24603.61
599.627	24812.51
599.824	24533.98
600.02	24638.43
600.217	24710.11
600.413	24507.36
600.609	24603.61
600.806	24552.41
601.002	24499.17
601.198	24175.59
601.395	24081.38
601.591	24247.27
601.787	24333.28
601.984	23872.49
602.18	24241.12
602.376	23798.76
602.572	23401.46
602.769	23522.29
602.965	23196.66
603.161	23385.07
603.357	23241.71
603.553	23290.87
603.75	23444.46
603.946	23286.77
604.142	23206.9
604.338	22830.07
604.534	23155.7
604.73	22854.65
604.926	22713.34
605.122	22567.93
605.318	22641.66
605.514	22205.44
605.71	22246.4
605.906	22459.39
606.102	22035.46
606.298	22410.24
606.494	22352.9
606.69	22320.13
606.886	22289.41
607.082	22094.85
607.278	22006.79
607.474	21638.16
607.67	21855.24
607.866	21392.4
608.062	21715.98
608.257	21472.27
608.453	21500.94
608.649	21763.08
608.845	21242.9
609.041	21187.6
609.236	21367.82
609.432	21509.13
609.628	21171.22
609.824	20730.9
610.019	20923.41
610.215	20773.91
610.411	20902.93
610.606	20694.04
610.802	20923.41
610.998	20614.17
611.193	20786.2
611.389	20632.6
611.584	20648.99
611.78	20448.29
611.976	20593.69
612.171	20571.16
612.367	20548.64
612.562	20073.51
612.758	20112.42
612.953	20233.25
613.149	20358.17
613.344	20087.84
613.539	20534.3
613.735	20165.67
613.93	20249.63
614.126	19758.12
614.321	19979.3
614.517	19909.67
614.712	19829.8
614.907	19708.97
615.103	19858.47
615.298	19356.72
615.493	19794.98
615.688	19362.86
615.884	19737.64
616.079	19360.81
616.274	19463.21
616.47	19461.16
616.665	19207.22
616.86	19256.37
617.055	19037.23
617.25	19158.07
617.445	19012.66
617.641	18914.36
617.836	19049.52
618.031	18584.63
618.226	18871.35
618.421	18664.5
618.616	18760.76
618.811	18457.66
619.006	18734.14
619.201	18211.9
619.396	18349.12
619.591	18074.69
619.786	18189.38
619.981	17964.1
620.176	18373.69
620.371	17708.1
620.566	18209.86
620.761	17816.65
620.956	18033.73
621.151	17761.35
621.346	17683.53
621.541	17275.98
621.735	17290.32
621.93	17099.86
622.125	17292.37
622.32	17028.18
622.515	17130.58
622.709	16972.88
622.904	17009.75
623.099	16915.54
623.294	16876.63
623.488	16536.67
623.683	16458.84
623.878	16317.53
624.072	16252
624.267	16219.23
624.462	16217.18
624.656	16204.89
624.851	15981.67
625.046	16014.43
625.24	15801.44
625.435	15660.13
625.629	15735.91
625.824	15627.37
626.018	15432.81
626.213	15158.38
626.407	15572.07
626.602	15094.89
626.796	15336.56
626.991	15248.49
627.185	15002.74
627.38	14931.06
627.574	14873.71
627.768	14699.64
627.963	14611.57
628.157	14605.43
628.352	14734.45
628.546	14515.32
628.74	14460.02
628.935	14367.87
629.129	14331
629.323	14257.28
629.517	14210.17
629.712	14036.1
629.906	14107.77
630.1	13759.62
630.294	14036.1
630.489	13778.05
630.683	13962.37
630.877	13606.02
631.071	13714.56
631.265	13538.44
631.459	13587.59
631.653	13274.25
631.848	13120.65
632.042	13134.99
632.236	13048.97
632.43	13139.08
632.624	13175.95
632.818	13212.81
633.012	12596.37
633.206	12721.3
633.4	12706.96
633.594	12631.19
633.788	12389.53
633.982	12625.04
634.176	12588.18
634.369	12528.79
634.563	12465.3
634.757	12203.16
634.951	12465.3
635.145	12133.53
635.339	12178.59
635.533	11891.87
635.726	12233.88
635.92	11803.81
636.114	11869.34
636.308	11721.89
636.501	11728.03
636.695	11699.36
636.889	11586.72
637.083	11467.94
637.276	11556
637.47	11230.38
637.664	11252.91
637.857	11392.17
638.051	11318.44
638.244	11175.08
638.438	11093.16
638.632	10994.86
638.825	11025.58
639.019	10788.02
639.212	10736.82
639.406	10794.16
639.599	10806.45
639.793	10800.3
639.986	10495.16
640.18	10542.26
640.373	10597.56
640.567	10298.55
640.76	10542.26
640.954	10462.39
641.147	10306.74
641.34	10097.85
641.534	10247.35
641.727	10081.47
641.92	9876.67
642.114	9999.55
642.307	10005.69
642.5	9874.62
642.694	9596.1
642.887	9665.73
643.08	9852.09
643.273	9700.55
643.467	9749.7
643.66	9632.96
643.853	9434.31
644.046	9270.47
644.239	9350.34
644.432	9344.2
644.626	9333.96
644.819	9114.83
645.012	9295.05
645.205	9084.11
645.398	9182.41
645.591	9045.2
645.784	8772.82
645.977	8748.24
646.17	8781.01
646.363	8697.04
646.556	8512.72
646.749	8654.03
646.942	8645.84
647.135	8531.16
647.328	8641.75
647.521	8279.25
647.714	8207.58
647.907	8488.15
648.099	8273.11
648.292	8475.86
648.485	8221.91
648.678	8023.26
648.871	8211.67
649.064	8183
649.256	8217.82
649.449	7875.81
649.642	8002.78
649.835	7972.06
650.027	7916.76
650.22	7662.82
650.413	7740.64
650.605	7777.5
650.798	7685.34
650.991	7541.99
651.183	7535.84
651.376	7388.39
651.568	7603.43
651.761	7449.83
651.954	7367.91
652.146	7329
652.339	7404.77
652.531	7398.63
652.724	7187.69
652.916	6956.27
653.109	7120.1
653.301	7134.44
653.494	7036.14
653.686	6954.22
653.879	7105.77
654.071	6980.84
654.263	6817.01
654.456	6767.85
654.648	6776.05
654.84	6659.31
655.033	6817.01
655.225	6722.8
655.417	6577.39
655.61	6481.14
655.802	6452.47
655.994	6530.29
656.186	6388.98
656.379	6563.06
656.571	6350.07
656.763	6276.34
656.955	6360.31
657.148	6368.5
657.34	6327.54
657.532	6221.05
657.724	6073.59
657.916	6073.59
658.108	6130.94
658.3	5969.15
658.492	5999.87
658.684	6006.01
658.876	5895.42
659.068	5995.77
659.26	5821.69
659.452	5868.8
659.644	5778.69
659.836	5829.88
660.028	5917.95
660.22	5629.18
660.412	5741.82
660.604	5539.07
660.796	5534.98
660.988	5537.02
661.18	5547.26
661.372	5659.9
661.563	5522.69
661.755	5455.11
661.947	5473.54
662.139	5299.46
662.331	5190.92
662.522	5242.12
662.714	5168.39
662.906	5180.68
663.097	5104.9
663.289	5166.34
663.481	5096.71
663.673	5213.45
663.864	5119.24
664.056	5029.13
664.247	5088.52
664.439	4830.48
664.631	5129.48
664.822	4900.11
665.014	4883.72
665.205	4791.56
665.397	4783.37
665.588	4795.66
665.78	4699.41
665.971	4783.37
666.163	4775.18
666.354	4777.23
666.546	4678.93
666.737	4527.38
666.929	4672.78
667.12	4607.25
667.311	4662.54
667.503	4490.51
667.694	4531.47
667.885	4486.42
668.077	4474.13
668.268	4513.04
668.459	4394.26
668.651	4457.75
668.842	4363.54
669.033	4420.88
669.224	4314.39
669.416	4287.76
669.607	4203.8
669.798	4216.09
669.989	4261.14
670.18	4121.88
670.371	4255
670.563	4177.17
670.754	4138.26
670.945	4091.16
671.136	4171.03
671.327	3984.66
671.518	4035.86
671.709	4035.86
671.9	4089.11
672.091	4111.64
672.282	4048.15
672.473	4025.62
672.664	3978.52
672.855	3874.07
673.046	3945.75
673.237	4037.91
673.428	3765.53
673.619	4001.05
673.809	3917.08
674	3794.2
674.191	3824.92
674.382	3792.16
674.573	3835.16
674.764	3700
674.954	3900.7
675.145	3656.99
675.336	3857.69
675.527	3855.64
675.717	3826.97
675.908	3767.58
676.099	3718.43
676.289	3542.3
676.48	3738.91
676.671	3613.98
676.861	3527.97
677.052	3691.81
677.243	3611.93
677.433	3550.5
677.624	3482.91
677.814	3314.98
678.005	3544.35
678.195	3489.06
678.386	3409.19
678.576	3423.52
678.767	3415.33
678.957	3536.16
679.148	3351.84
679.338	3398.95
679.529	3331.36
679.719	3405.09
679.909	3458.34
680.1	3343.65
680.29	3366.18
680.481	3423.52
680.671	3368.23
680.861	3335.46
681.052	3421.47
681.242	3286.31
681.432	3308.83
681.622	3306.79
681.813	3188
682.003	3323.17
682.193	3188
682.383	3290.4
682.573	3357.99
682.764	3245.35
682.954	3134.76
683.144	3237.16
683.334	3171.62
683.524	3228.96
683.714	3208.48
683.904	3200.29
684.094	3198.24
684.284	3132.71
684.474	3380.51
684.664	3120.42
684.854	2999.59
685.044	3183.91
685.234	3050.79
685.424	3153.19
685.614	3095.85
685.804	3120.42
685.994	2958.63
686.184	3040.55
686.374	3083.56
686.564	2968.87
686.753	3052.84
686.943	3005.74
687.133	3063.08
687.323	3104.04
687.513	3020.07
687.702	2940.2
687.892	3024.17
688.082	2835.75
688.272	3032.36
688.461	2989.35
688.651	2913.58
688.841	2905.39
689.03	2852.14
689.22	2880.81
689.41	2880.81
689.599	2895.15
689.789	2927.91
689.979	2870.57
690.168	2827.56
690.358	2880.81
690.547	3050.79
690.737	2874.67
690.926	2905.39
691.116	2927.91
691.305	2915.62
691.495	2829.61
691.684	2850.09
691.874	2774.31
692.063	2837.8
692.252	2780.46
692.442	2708.78
692.631	2710.83
692.82	2897.19
693.01	2708.78
693.199	2811.18
693.388	2723.12
693.578	2716.97
693.767	2786.6
693.956	2886.95
694.146	2741.55
694.335	2819.37
694.524	2751.79
694.713	2751.79
694.902	2858.28
695.092	2811.18
695.281	2698.54
695.47	2897.19
695.659	2753.84
695.848	2766.12
696.037	2727.21
696.226	2573.61
696.415	2737.45
696.604	2725.16
696.793	2729.26
696.982	2772.27
697.171	2616.62
697.36	2643.24
697.549	2739.5
697.738	2716.97
697.927	2751.79
698.116	2813.23
698.305	2716.97
698.494	2766.12
698.683	2735.4
698.872	2774.31
699.061	2590
699.25	2694.44
699.438	2880.81
699.627	2673.96
699.816	2686.25
700.005	2637.1
700.193	2686.25
700.382	2618.67
700.571	2665.77
700.76	2546.99
700.948	2553.13
701.137	2737.45
701.326	2624.81
701.514	2608.43
701.703	2686.25
701.892	2684.2
702.08	2706.73
702.269	2690.35
702.457	2606.38
702.646	2553.13
702.834	2551.09
703.023	2559.28
703.212	2577.71
703.4	2659.63
703.589	2692.4
703.777	2622.77
703.965	2442.54
704.154	2553.13
704.342	2587.95
704.531	2473.26
704.719	2503.98
704.907	2503.98
705.096	2465.07
705.284	2491.7
705.472	2473.26
705.661	2442.54
705.849	2438.45
706.037	2569.52
706.226	2452.78
706.414	2479.41
706.602	2495.79
706.79	2493.74
706.979	2473.26
707.167	2329.91
707.355	2397.49
707.543	2510.13
707.731	2372.91
707.919	2405.68
708.107	2295.09
708.296	2413.87
708.484	2467.12
708.672	2274.61
708.86	2241.84
709.048	2393.39
709.236	2415.92
709.424	2233.65
709.612	2237.75
709.8	2235.7
709.988	2266.42
710.176	2399.54
710.364	2284.85
710.551	2309.43
710.739	2239.8
710.927	2260.27
711.115	2258.23
711.303	2164.02
711.491	2172.21
711.679	2268.47
711.866	2260.27
712.054	2184.5
712.242	2258.23
712.43	2282.8
712.617	2164.02
712.805	2166.07
712.993	2118.97
713.181	2147.64
713.368	2219.32
713.556	2159.92
713.744	2100.53
713.931	2207.03
714.119	2231.6
714.306	2088.25
714.494	2004.28
714.682	2080.05
714.869	2000.18
715.057	2133.3
715.244	2016.57
715.432	2202.93
715.619	2020.66
715.807	2108.73
715.994	2090.29
716.182	2020.66
716.369	2073.91
716.556	2012.47
716.744	1893.69
716.931	2098.49
717.119	2108.73
717.306	2043.19
717.493	1965.37
717.681	1928.5
717.868	1938.74
718.055	1883.45
718.242	2016.57
718.43	1944.89
718.617	1991.99
718.804	1772.86
718.991	1795.39
719.179	1942.84
719.366	1895.74
719.553	1809.72
719.74	1809.72
719.927	1955.13
720.114	1746.23
720.301	1742.14
720.488	1940.79
720.676	1836.35
720.863	1869.11
721.05	1819.96
721.237	1733.95
721.424	1781.05
721.611	1733.95
721.798	1748.28
721.985	1764.67
722.172	1733.95
722.358	1688.89
722.545	1676.6
722.732	1783.1
722.919	1723.71
723.106	1676.6
723.293	1727.8
723.48	1826.11
723.667	1723.71
723.853	1688.89
724.04	1770.81
724.227	1809.72
724.414	1713.47
724.6	1609.02
724.787	1625.4
724.974	1699.13
725.161	1666.36
725.347	1729.85
725.534	1721.66
725.72	1516.86
725.907	1529.15
726.094	1611.07
726.28	1606.97
726.467	1572.16
726.653	1590.59
726.84	1664.32
727.027	1684.8
727.213	1596.73
727.4	1512.77
727.586	1566.01
727.773	1578.3
727.959	1496.38
728.145	1512.77
728.332	1484.09
728.518	1529.15
728.705	1508.67
728.891	1563.97
729.077	1480
729.264	1510.72
729.45	1541.44
729.636	1625.4
729.823	1504.57
730.009	1514.81
730.195	1520.96
730.382	1432.9
730.568	1574.21
730.754	1463.62
730.94	1441.09
731.126	1514.81
731.313	1459.52
731.499	1434.94
731.685	1412.42
731.871	1357.12
732.057	1467.71
732.243	1471.81
732.429	1432.9
732.615	1447.23
732.801	1422.66
732.987	1340.74
733.173	1336.64
733.359	1334.59
733.545	1461.57
733.731	1287.49
733.917	1342.78
734.103	1350.98
734.289	1375.55
734.475	1387.84
734.661	1422.66
734.847	1359.17
735.033	1418.56
735.219	1297.73
735.404	1244.48
735.59	1320.26
735.776	1350.98
735.962	1238.34
736.148	1322.31
736.333	1359.17
736.519	1299.78
736.705	1353.02
736.89	1293.63
737.076	1340.74
737.262	1307.97
737.447	1289.54
737.633	1213.76
737.819	1285.44
738.004	1258.82
738.19	1273.15
738.375	1275.2
738.561	1310.02
738.747	1219.91
738.932	1246.53
739.118	1248.58
739.303	1213.76
739.489	1336.64
739.674	1121.6
739.859	1201.47
740.045	1203.52
740.23	1260.87
740.416	1115.46
740.601	1133.89
740.786	1154.37
740.972	1064.26
741.157	1199.43
741.342	1162.56
741.528	1074.5
741.713	1137.99
741.898	1115.46
742.084	1152.32
742.269	1088.84
742.454	1111.36
742.639	1068.36
742.824	1097.03
743.01	1047.88
743.195	1105.22
743.38	1121.6
743.565	1084.74
743.75	1072.45
743.935	986.44
744.12	1008.97
744.305	1074.5
744.49	1113.41
744.675	1092.93
744.86	1076.55
745.045	965.96
745.23	939.34
745.415	1090.88
745.6	1035.59
745.785	1054.02
745.97	1084.74
746.155	1023.3
746.34	1064.26
746.525	1013.06
746.71	955.72
746.895	1029.45
747.079	1037.64
747.264	931.14
747.449	910.66
747.634	933.19
747.819	873.8
748.003	863.56
748.188	949.57
748.373	951.62
748.557	1008.97
748.742	968.01
748.927	943.43
749.111	884.04
749.296	898.38
749.481	935.24
749.665	933.19
749.85	998.73
750.034	896.33
750.219	998.73
750.404	892.23
750.588	910.66
750.773	798.03
750.957	881.99
751.141	802.12
751.326	873.8
751.51	759.11
751.695	861.51
751.879	851.27
752.064	787.79
752.248	855.37
752.432	769.35
752.617	793.93
752.801	810.31
752.985	908.62
753.17	920.9
753.354	744.78
753.538	802.12
753.722	795.98
753.907	808.26
754.091	798.03
754.275	716.11
754.459	763.21
754.643	740.68
754.828	761.16
755.012	736.59
755.196	699.72
755.38	679.24
755.564	701.77
755.748	652.62
755.932	787.79
756.116	757.07
756.3	705.87
756.484	660.81
756.668	707.91
756.852	693.58
757.036	570.7
757.22	644.43
757.404	681.29
757.588	705.87
757.772	656.72
757.956	679.24
758.14	605.52
758.323	685.39
758.507	580.94
758.691	658.76
758.875	597.32
759.059	691.53
759.242	613.71
759.426	617.8
759.61	593.23
759.794	664.91
759.977	585.04
760.161	671.05
760.345	621.9
760.528	689.48
760.712	574.8
760.895	623.95
761.079	634.19
761.263	619.85
761.446	578.89
761.63	578.89
761.813	562.51
761.997	580.94
762.18	619.85
762.364	566.6
762.547	539.98
762.731	628.04
762.914	550.22
763.098	646.48
763.281	537.93
763.464	623.95
763.648	595.28
763.831	546.12
764.015	517.45
764.198	603.47
764.381	558.41
764.564	603.47
764.748	546.12
764.931	564.56
765.114	503.12
765.297	480.59
765.481	589.13
765.664	525.65
765.847	517.45
766.03	599.37
766.213	423.25
766.397	539.98
766.58	499.02
766.763	521.55
766.946	501.07
767.129	517.45
767.312	564.56
767.495	472.4
767.678	433.49
767.861	562.51
768.044	550.22
768.227	423.25
768.41	400.72
768.593	472.4
768.776	507.21
768.959	464.21
769.142	511.31
769.324	466.25
769.507	427.34
769.69	580.94
769.873	533.84
770.056	535.89
770.239	482.64
770.421	599.37
770.604	505.17
770.787	372.05
770.97	488.78
771.152	507.21
771.335	490.83
771.518	402.77
771.7	417.1
771.883	443.73
772.066	546.12
772.248	468.3
772.431	453.97
772.613	447.82
772.796	431.44
772.978	542.03
773.161	458.06
773.343	482.64
773.526	427.34
773.708	507.21
773.891	515.41
774.073	431.44
774.256	408.91
774.438	263.51
774.621	400.72
774.803	464.21
774.985	433.49
775.168	380.24
775.35	357.71
775.532	503.12
775.715	439.63
775.897	367.95
776.079	292.18
776.261	453.97
776.444	439.63
776.626	374.1
776.808	464.21
776.99	396.62
777.173	386.38
777.355	361.81
777.537	372.05
777.719	394.58
777.901	380.24
778.083	292.18
778.265	341.33
778.447	394.58
778.629	331.09
778.811	326.99
778.993	324.94
779.175	367.95
779.357	345.42
779.539	329.04
779.721	349.52
779.903	370
780.085	388.43
780.267	300.37
780.449	372.05
780.631	335.18
780.812	341.33
780.994	349.52
781.176	286.03
781.358	335.18
781.54	357.71
781.721	290.13
781.903	275.79
782.085	286.03
782.267	324.94
782.448	333.14
782.63	253.27
782.812	351.57
782.993	240.98
783.175	353.62
783.357	333.14
783.538	302.42
783.72	302.42
783.901	361.81
784.083	279.89
784.264	169.3
784.446	269.65
784.627	271.7
784.809	226.64
784.99	312.66
785.172	300.37
785.353	292.18
785.535	277.84
785.716	240.98
785.897	353.62
786.079	304.46
786.26	273.75
786.441	292.18
786.623	197.97
786.804	228.69
786.985	228.69
787.167	273.75
787.348	234.83
787.529	279.89
787.71	240.98
787.891	253.27
788.073	216.4
788.254	290.13
788.435	226.64
788.616	220.5
788.797	236.88
788.978	140.63
789.159	208.21
789.34	279.89
789.522	171.35
789.703	210.26
789.884	271.7
790.065	234.83
790.246	214.35
790.427	175.44
790.607	177.49
790.788	214.35
790.969	191.83
791.15	167.25
791.331	187.73
791.512	142.68
791.693	171.35
791.874	197.97
792.054	157.01
792.235	152.92
792.416	101.72
792.597	83.28
792.778	245.07
792.958	206.16
793.139	220.5
793.32	210.26
793.5	126.29
793.681	183.63
793.862	144.72
794.042	226.64
794.223	154.96
794.404	177.49
794.584	165.2
794.765	128.34
794.945	214.35
795.126	114
795.306	181.59
795.487	136.53
795.667	154.96
795.848	103.76
796.028	161.11
796.209	181.59
796.389	171.35
796.57	173.39
796.75	130.39
796.93	132.44
797.111	142.68
797.291	154.96
797.471	222.55
797.652	138.58
797.832	159.06
798.012	144.72
798.192	185.68
798.373	99.67
798.553	208.21
798.733	183.63
798.913	159.06
799.093	181.59
799.274	173.39
799.454	193.87
799.634	107.86
799.814	130.39
799.994	140.63
800.174	103.76
800.354	152.92
800.534	66.9
800.714	161.11
800.894	52.56
801.074	95.57
801.254	95.57
801.434	132.44
801.614	187.73
801.794	195.92
801.974	408.91
802.154	89.43
802.334	85.33
802.514	71
802.693	109.91
802.873	85.33
803.053	183.63
803.233	136.53
803.413	161.11
803.592	118.1
803.772	126.29
803.952	132.44
804.131	193.87
804.311	140.63
804.491	134.48
804.67	32.08
804.85	111.96
805.03	93.52
805.209	171.35
805.389	126.29
805.568	44.37
805.748	48.47
805.928	154.96
806.107	87.38
806.287	89.43
806.466	97.62
806.646	89.43
806.825	46.42
807.004	25.94
807.184	73.04
807.363	136.53
807.543	42.32
807.722	165.2
807.901	114
808.081	148.82
808.26	68.95
808.439	93.52
808.619	118.1
808.798	56.66
808.977	34.13
809.156	120.15
809.336	130.39
809.515	54.61
809.694	32.08
809.873	109.91
810.052	99.67
810.231	157.01
810.411	111.96
810.59	99.67
810.769	50.52
810.948	85.33
811.127	111.96
811.306	34.13
811.485	103.76
811.664	93.52
811.843	99.67
812.022	56.66
812.201	46.42
812.38	40.28
812.559	23.89
812.737	81.24
812.916	89.43
813.095	9.56
813.274	87.38
813.453	46.42
813.632	60.76
813.811	130.39
813.989	111.96
814.168	46.42
814.347	46.42
814.526	105.81
814.704	64.85
814.883	111.96
815.062	-31.4
815.24	25.94
815.419	64.85
815.598	79.19
815.776	58.71
815.955	101.72
816.133	23.89
816.312	130.39
816.49	105.81
816.669	85.33
816.847	122.2
817.026	130.39
817.204	9.56
817.383	89.43
817.561	7.51
817.74	93.52
817.918	-2.73
818.097	71
818.275	27.99
818.453	-0.68
818.632	73.04
818.81	89.43
818.988	32.08
819.167	50.52
819.345	34.13
819.523	71
819.701	40.28
819.879	73.04
820.058	124.24
820.236	132.44
820.414	93.52
820.592	54.61
820.77	56.66
820.948	38.23
821.127	73.04
821.305	75.09
821.483	30.04
821.661	95.57
821.839	81.24
822.017	87.38
822.195	17.75
822.373	34.13
822.551	50.52
822.729	109.91
822.907	1.37
823.085	52.56
823.262	50.52
823.44	21.85
823.618	-19.11
823.796	71
823.974	48.47
824.152	58.71
824.329	62.8
824.507	91.48
824.685	25.94
824.863	52.56
825.04	132.44
825.218	30.04
825.396	73.04
825.574	5.46
825.751	30.04
825.929	95.57
826.107	17.75
826.284	109.91
826.462	42.32
826.639	71
826.817	15.7
826.994	58.71
827.172	-47.79
827.349	48.47
827.527	21.85
827.704	7.51
827.882	44.37
828.059	11.61
828.237	77.14
828.414	52.56
828.591	9.56
828.769	44.37
828.946	93.52
829.124	97.62
829.301	-19.11
829.478	46.42
829.655	40.28
829.833	42.32
830.01	56.66
830.187	52.56
830.364	54.61
830.542	7.51
830.719	48.47
830.896	-43.69
831.073	25.94
831.25	62.8
831.427	-8.87
831.604	42.32
831.782	48.47
831.959	50.52
832.136	77.14
832.313	48.47
832.49	1.37
832.667	23.89
832.844	-15.02
833.021	25.94
833.198	25.94
833.374	46.42
833.551	-51.88
833.728	83.28
833.905	79.19
834.082	-35.5
834.259	111.96
834.436	40.28
834.612	11.61
834.789	-25.26
834.966	17.75
835.143	-4.78
835.319	-6.83
835.496	13.65
835.673	25.94
835.85	42.32
836.026	-19.11
836.203	34.13
836.38	17.75
836.556	-35.5
836.733	81.24
836.909	38.23
837.086	-72.36
837.262	107.86
837.439	79.19
837.616	44.37
837.792	23.89
837.968	13.65
838.145	-49.83
838.321	17.75
838.498	36.18
838.674	116.05
838.851	-0.68
839.027	62.8
839.203	-19.11
839.38	15.7
839.556	11.61
839.732	27.99
839.909	-47.79
840.085	17.75
840.261	25.94
840.437	85.33
840.614	-4.78
840.79	-10.92
840.966	-6.83
841.142	21.85
841.318	-60.07
841.494	-25.26
841.671	34.13
841.847	-17.07
842.023	-55.98
842.199	56.66
842.375	-15.02
842.551	-8.87
842.727	-19.11
842.903	60.76
843.079	-21.16
843.255	-43.69
843.431	-35.5
843.607	71
843.783	-39.59
843.959	-41.64
844.134	1.37
844.31	50.52
844.486	79.19
844.662	-19.11
844.838	5.46
845.013	1.37
845.189	93.52
845.365	17.75
845.541	136.53
845.716	64.85
845.892	38.23
846.068	-66.22
846.244	30.04
846.419	93.52
846.595	-33.45
846.77	38.23
846.946	40.28
847.122	46.42
847.297	-76.46
847.473	46.42
847.648	21.85
847.824	75.09
847.999	62.8
848.175	13.65
848.35	21.85
848.526	-0.68
848.701	9.56
848.876	13.65
849.052	30.04
849.227	3.41
849.403	-49.83
849.578	-35.5
849.753	-47.79
849.929	-8.87
850.104	-80.55
850.279	-43.69
850.454	40.28
850.63	-21.16
850.805	-12.97
850.98	42.32
851.155	-8.87
851.33	-15.02
851.505	-39.59
851.681	79.19
851.856	13.65
852.031	-12.97
852.206	36.18
852.381	23.89
852.556	114
852.731	-19.11
852.906	-49.83
853.081	11.61
853.256	93.52
853.431	30.04
853.606	11.61
853.781	-8.87
853.956	23.89
854.131	38.23
854.305	-60.07
854.48	-92.84
854.655	-47.79
854.83	-6.83
855.005	36.18
855.18	60.76
855.354	-35.5
855.529	27.99
855.704	-33.45
855.879	-10.92
856.053	7.51
856.228	56.66
856.403	1.37
856.577	23.89
856.752	-2.73
856.926	-25.26
857.101	-8.87
857.276	48.47
857.45	-8.87
857.625	58.71
857.799	-27.31
857.974	-8.87
858.148	-62.12
858.323	54.61
858.497	-43.69
858.672	5.46
858.846	-25.26
859.02	62.8
859.195	-41.64
859.369	62.8
859.543	21.85
859.718	19.8
859.892	-55.98
860.066	13.65
860.241	-6.83
860.415	17.75
860.589	64.85
860.763	-15.02
860.938	-33.45
861.112	32.08
861.286	-19.11
861.46	-15.02
861.634	21.85
861.808	1.37
861.982	-51.88
862.157	-17.07
862.331	-23.21
862.505	-10.92
862.679	-21.16
862.853	3.41
863.027	-10.92
863.201	23.89
863.375	13.65
863.549	-17.07
863.722	44.37
863.896	58.71
864.07	-39.59
864.244	-17.07
864.418	-39.59
864.592	-8.87
864.766	-19.11
864.939	9.56
865.113	-62.12
865.287	21.85
865.461	-10.92
865.634	15.7
865.808	54.61
865.982	-33.45
866.156	-25.26
866.329	-15.02
866.503	36.18
866.676	9.56
866.85	27.99
867.024	1.37
867.197	-27.31
867.371	-43.69
867.544	-53.93
867.718	17.75
867.891	-66.22
868.065	-8.87
868.238	-25.26
868.412	5.46
868.585	-60.07
868.759	-25.26
868.932	9.56
869.105	-49.83
869.279	-17.07
869.452	-15.02
869.625	-49.83
869.799	-51.88
869.972	-8.87
870.145	-49.83
870.319	5.46
870.492	-15.02
870.665	1.37
870.838	-78.51
871.011	32.08
871.185	3.41
871.358	9.56
871.531	44.37
871.704	-19.11
871.877	23.89
872.05	-43.69
872.223	-31.4
872.396	-0.68
872.569	17.75
872.742	-35.5
872.915	-19.11
873.088	15.7
873.261	13.65
873.434	-2.73
873.607	38.23
873.78	9.56
873.953	-45.74
874.126	11.61
874.299	-27.31
874.471	-49.83
874.644	-53.93
874.817	-58.03
874.99	-31.4
875.163	-12.97
875.335	-0.68
875.508	-66.22
875.681	-45.74
875.853	5.46
876.026	1.37
876.199	-68.27
876.371	5.46
876.544	-82.6
876.717	-12.97
876.889	34.13
877.062	-27.31
877.234	-15.02
877.407	-2.73
877.579	-21.16
877.752	30.04
877.924	-12.97
878.097	62.8
878.269	15.7
878.442	11.61
878.614	-43.69
878.786	30.04
878.959	-45.74
879.131	-4.78
879.303	7.51
879.476	-98.99
879.648	3.41
879.82	-2.73
879.993	-76.46
880.165	118.1
880.337	-111.27
880.509	-49.83
880.681	-64.17
880.854	-45.74
881.026	-8.87
881.198	23.89
881.37	13.65
881.542	-8.87
881.714	30.04
881.886	79.19
882.058	32.08
882.23	-35.5
882.402	19.8
882.574	21.85
882.746	9.56
882.918	13.65
883.09	7.51
883.262	7.51
883.434	-21.16
883.606	-15.02
883.778	-25.26
883.95	-58.03
884.122	46.42
884.293	25.94
884.465	27.99
884.637	52.56
884.809	-49.83
884.98	25.94
885.152	-19.11
885.324	-64.17
885.496	-94.89
885.667	32.08
885.839	-10.92
886.011	-17.07
886.182	44.37
886.354	11.61
886.525	-111.27
886.697	66.9
886.869	-39.59
887.04	38.23
887.212	56.66
887.383	40.28
887.555	-41.64
887.726	-0.68
887.897	-45.74
888.069	36.18
888.24	-92.84
888.412	58.71
888.583	5.46
888.754	56.66
888.926	-103.08
889.097	-10.92
889.268	-10.92
889.44	19.8
889.611	-80.55
889.782	-58.03
889.953	-10.92
890.125	46.42
890.296	52.56
890.467	3.41
890.638	-35.5
890.809	46.42
890.98	-43.69
891.151	-15.02
891.323	-45.74
891.494	-51.88
891.665	-25.26
891.836	-27.31
892.007	73.04
892.178	-31.4
892.349	-10.92
892.52	-109.22
892.691	3.41
892.862	-25.26
893.032	-109.22
893.203	21.85
893.374	-53.93
893.545	-17.07
893.716	-6.83
893.887	40.28
894.057	11.61
894.228	-66.22
894.399	-0.68
894.57	3.41
894.74	-2.73
894.911	-33.45
895.082	-90.79
895.253	13.65
895.423	-25.26
895.594	68.95
895.764	-64.17
895.935	-72.36
896.106	-25.26
896.276	-31.4
896.447	-19.11
896.617	30.04
896.788	-29.35
896.958	-6.83
897.129	-58.03
897.299	-2.73
897.47	5.46
897.64	42.32
897.81	-23.21
897.981	7.51
898.151	-41.64
898.322	-2.73
898.492	3.41
898.662	-45.74
898.832	-27.31
899.003	-41.64
899.173	-8.87
899.343	-23.21
899.513	-4.78
