Data from USB4F104151__96__13-54-36-790.txt Node

Date: Thu Mar 13 13:54:36 EDT 2025
User: louis
Spectrometer: USB4F10415
Trigger mode: 4
Integration Time (sec): 1.000000E-2
Scans to average: 1
Electric dark correction enabled: true
Nonlinearity correction enabled: false
Boxcar width: 0
XAxis mode: Wavelengths
Number of Pixels in Spectrum: 3648
>>>>>Begin Spectral Data<<<<<
178.204	9.39
178.424	9.39
178.644	9.39
178.864	-54.1
179.084	-97.11
179.304	-45.91
179.524	-2.9
179.744	-2.9
179.964	5.29
180.184	15.53
180.404	-15.19
180.624	-2.9
180.844	42.15
181.064	11.43
181.283	-31.57
181.503	-19.29
181.723	46.25
181.943	-19.29
182.163	25.77
182.383	38.06
182.602	68.78
182.822	27.82
183.042	62.63
183.262	-0.85
183.482	5.29
183.701	42.15
183.921	5.29
184.141	56.49
184.361	33.96
184.58	-23.38
184.8	81.07
185.02	-29.52
185.239	27.82
185.459	27.82
185.679	33.96
185.898	46.25
186.118	-2.9
186.338	5.29
186.557	19.63
186.777	-78.68
186.997	1.19
187.216	38.06
187.436	93.35
187.655	15.53
187.875	15.53
188.095	-33.62
188.314	5.29
188.534	-13.14
188.753	25.77
188.973	17.58
189.192	48.3
189.412	-0.85
189.631	44.2
189.851	-2.9
190.07	38.06
190.29	36.01
190.509	15.53
190.729	33.96
190.948	25.77
191.168	27.82
191.387	-2.9
191.607	23.72
191.826	56.49
192.045	-21.33
192.265	31.91
192.484	-33.62
192.704	-4.95
192.923	46.25
193.142	15.53
193.362	3.24
193.581	56.49
193.8	-19.29
194.02	36.01
194.239	11.43
194.458	9.39
194.678	58.54
194.897	56.49
195.116	3.24
195.335	-17.24
195.555	48.3
195.774	23.72
195.993	91.31
196.212	19.63
196.432	-43.86
196.651	15.53
196.87	9.39
197.089	-43.86
197.308	17.58
197.528	-33.62
197.747	-64.34
197.966	-33.62
198.185	-29.52
198.404	46.25
198.623	58.54
198.842	-15.19
199.062	54.44
199.281	13.48
199.5	-23.38
199.719	-19.29
199.938	42.15
200.157	52.39
200.376	3.24
200.595	70.83
200.814	-80.72
201.033	-52.05
201.252	23.72
201.471	-43.86
201.69	128.17
201.909	29.87
202.128	-0.85
202.347	113.83
202.566	58.54
202.785	40.11
203.004	33.96
203.223	-15.19
203.442	21.67
203.661	42.15
203.879	-58.2
204.098	85.16
204.317	-0.85
204.536	25.77
204.755	52.39
204.974	-15.19
205.193	25.77
205.411	89.26
205.63	-7
205.849	3.24
206.068	-13.14
206.287	48.3
206.505	52.39
206.724	46.25
206.943	7.34
207.162	64.68
207.381	-56.15
207.599	27.82
207.818	42.15
208.037	27.82
208.255	15.53
208.474	52.39
208.693	-7
208.911	-2.9
209.13	62.63
209.349	36.01
209.567	-35.67
209.786	60.59
210.005	31.91
210.223	33.96
210.442	72.87
210.661	-52.05
210.879	17.58
211.098	-39.76
211.316	66.73
211.535	1.19
211.753	-29.52
211.972	-17.24
212.191	25.77
212.409	113.83
212.628	31.91
212.846	-2.9
213.065	3.24
213.283	25.77
213.502	23.72
213.72	27.82
213.938	1.19
214.157	7.34
214.375	48.3
214.594	17.58
214.812	13.48
215.031	-4.95
215.249	-31.57
215.467	42.15
215.686	15.53
215.904	74.92
216.122	31.91
216.341	27.82
216.559	85.16
216.778	-43.86
216.996	7.34
217.214	13.48
217.432	62.63
217.651	7.34
217.869	36.01
218.087	-17.24
218.306	-0.85
218.524	7.34
218.742	-27.48
218.96	60.59
219.179	-7
219.397	7.34
219.615	60.59
219.833	60.59
220.051	9.39
220.27	33.96
220.488	23.72
220.706	46.25
220.924	-43.86
221.142	19.63
221.36	15.53
221.578	60.59
221.796	-35.67
222.015	17.58
222.233	17.58
222.451	31.91
222.669	-13.14
222.887	-2.9
223.105	25.77
223.323	-29.52
223.541	-9.05
223.759	56.49
223.977	-9.05
224.195	-64.34
224.413	25.77
224.631	40.11
224.849	31.91
225.067	46.25
225.285	38.06
225.503	85.16
225.721	44.2
225.939	21.67
226.157	15.53
226.375	29.87
226.592	46.25
226.81	56.49
227.028	31.91
227.246	38.06
227.464	25.77
227.682	21.67
227.9	-25.43
228.117	-50
228.335	9.39
228.553	56.49
228.771	33.96
228.989	38.06
229.206	29.87
229.424	-27.48
229.642	9.39
229.86	-37.72
230.077	-19.29
230.295	15.53
230.513	48.3
230.731	46.25
230.948	46.25
231.166	54.44
231.384	9.39
231.601	-15.19
231.819	58.54
232.037	29.87
232.254	-54.1
232.472	38.06
232.689	-11.09
232.907	38.06
233.125	-33.62
233.342	-45.91
233.56	33.96
233.777	87.21
233.995	-9.05
234.213	21.67
234.43	107.69
234.648	33.96
234.865	7.34
235.083	19.63
235.3	64.68
235.518	50.35
235.735	-13.14
235.953	15.53
236.17	-84.82
236.388	29.87
236.605	13.48
236.822	-21.33
237.04	15.53
237.257	19.63
237.475	-23.38
237.692	-9.05
237.909	103.59
238.127	38.06
238.344	1.19
238.562	52.39
238.779	111.78
238.996	21.67
239.214	40.11
239.431	66.73
239.648	-35.67
239.865	36.01
240.083	54.44
240.3	74.92
240.517	87.21
240.735	15.53
240.952	93.35
241.169	60.59
241.386	-2.9
241.603	-41.81
241.821	11.43
242.038	23.72
242.255	15.53
242.472	40.11
242.689	-0.85
242.907	36.01
243.124	-11.09
243.341	13.48
243.558	31.91
243.775	-7
243.992	27.82
244.209	-0.85
244.426	13.48
244.643	91.31
244.86	-82.77
245.078	-0.85
245.295	23.72
245.512	15.53
245.729	-39.76
245.946	111.78
246.163	99.5
246.38	-0.85
246.597	-82.77
246.814	-0.85
247.031	91.31
247.248	64.68
247.464	79.02
247.681	-23.38
247.898	29.87
248.115	-7
248.332	50.35
248.549	23.72
248.766	21.67
248.983	23.72
249.2	13.48
249.417	15.53
249.633	36.01
249.85	-62.29
250.067	23.72
250.284	15.53
250.501	5.29
250.717	38.06
250.934	7.34
251.151	-11.09
251.368	40.11
251.585	-23.38
251.801	-17.24
252.018	-17.24
252.235	58.54
252.451	27.82
252.668	42.15
252.885	1.19
253.102	7.34
253.318	-25.43
253.535	50.35
253.752	-0.85
253.968	23.72
254.185	38.06
254.401	7.34
254.618	13.48
254.835	29.87
255.051	33.96
255.268	-13.14
255.484	48.3
255.701	1.19
255.917	33.96
256.134	5.29
256.351	64.68
256.567	-13.14
256.784	89.26
257	29.87
257.217	19.63
257.433	40.11
257.65	25.77
257.866	42.15
258.082	44.2
258.299	40.11
258.515	113.83
258.732	52.39
258.948	27.82
259.165	132.26
259.381	42.15
259.597	17.58
259.814	13.48
260.03	31.91
260.246	-33.62
260.463	38.06
260.679	48.3
260.895	-9.05
261.112	42.15
261.328	-4.95
261.544	5.29
261.761	25.77
261.977	5.29
262.193	9.39
262.409	72.87
262.626	-33.62
262.842	54.44
263.058	21.67
263.274	-7
263.49	40.11
263.707	99.5
263.923	56.49
264.139	31.91
264.355	62.63
264.571	99.5
264.787	-13.14
265.004	44.2
265.22	62.63
265.436	46.25
265.652	58.54
265.868	-47.96
266.084	25.77
266.3	42.15
266.516	-11.09
266.732	58.54
266.948	25.77
267.164	62.63
267.38	7.34
267.596	46.25
267.812	33.96
268.028	70.83
268.244	27.82
268.46	11.43
268.676	70.83
268.892	101.55
269.108	-23.38
269.324	1.19
269.54	-25.43
269.756	-41.81
269.972	44.2
270.188	46.25
270.403	56.49
270.619	5.29
270.835	50.35
271.051	-11.09
271.267	-2.9
271.483	-4.95
271.698	17.58
271.914	-2.9
272.13	-21.33
272.346	31.91
272.562	81.07
272.777	48.3
272.993	58.54
273.209	-56.15
273.425	38.06
273.64	1.19
273.856	40.11
274.072	70.83
274.287	-9.05
274.503	60.59
274.719	13.48
274.934	36.01
275.15	-17.24
275.366	62.63
275.581	36.01
275.797	-7
276.012	-4.95
276.228	-72.53
276.444	13.48
276.659	105.64
276.875	95.4
277.09	70.83
277.306	1.19
277.521	66.73
277.737	23.72
277.952	42.15
278.168	17.58
278.383	64.68
278.599	21.67
278.814	-13.14
279.03	27.82
279.245	48.3
279.461	132.26
279.676	38.06
279.892	-19.29
280.107	31.91
280.322	23.72
280.538	5.29
280.753	48.3
280.969	17.58
281.184	72.87
281.399	50.35
281.615	-15.19
281.83	27.82
282.045	74.92
282.26	66.73
282.476	33.96
282.691	56.49
282.906	-9.05
283.122	40.11
283.337	-4.95
283.552	5.29
283.767	99.5
283.983	72.87
284.198	11.43
284.413	50.35
284.628	7.34
284.843	46.25
285.058	36.01
285.274	9.39
285.489	-27.48
285.704	33.96
285.919	11.43
286.134	52.39
286.349	81.07
286.564	60.59
286.779	-2.9
286.995	17.58
287.21	-41.81
287.425	62.63
287.64	27.82
287.855	72.87
288.07	21.67
288.285	64.68
288.5	-23.38
288.715	38.06
288.93	5.29
289.145	58.54
289.36	99.5
289.575	31.91
289.79	25.77
290.004	9.39
290.219	50.35
290.434	33.96
290.649	-13.14
290.864	52.39
291.079	5.29
291.294	-25.43
291.509	1.19
291.724	21.67
291.938	1.19
292.153	25.77
292.368	52.39
292.583	-0.85
292.798	46.25
293.012	15.53
293.227	33.96
293.442	48.3
293.657	19.63
293.871	38.06
294.086	46.25
294.301	64.68
294.516	9.39
294.73	19.63
294.945	1.19
295.16	42.15
295.374	13.48
295.589	-17.24
295.804	27.82
296.018	91.31
296.233	36.01
296.447	-41.81
296.662	9.39
296.877	54.44
297.091	36.01
297.306	25.77
297.52	27.82
297.735	101.55
297.949	27.82
298.164	29.87
298.378	68.78
298.593	-9.05
298.807	13.48
299.022	13.48
299.236	52.39
299.451	48.3
299.665	-54.1
299.88	74.92
300.094	-4.95
300.309	-0.85
300.523	-19.29
300.737	48.3
300.952	27.82
301.166	3.24
301.381	-7
301.595	-15.19
301.809	-31.57
302.024	-0.85
302.238	17.58
302.452	21.67
302.667	48.3
302.881	89.26
303.095	42.15
303.309	27.82
303.524	31.91
303.738	15.53
303.952	42.15
304.166	-2.9
304.381	11.43
304.595	29.87
304.809	54.44
305.023	-23.38
305.237	85.16
305.452	56.49
305.666	-45.91
305.88	31.91
306.094	68.78
306.308	48.3
306.522	66.73
306.736	-17.24
306.95	33.96
307.164	-4.95
307.379	-7
307.593	31.91
307.807	42.15
308.021	5.29
308.235	23.72
308.449	60.59
308.663	52.39
308.877	52.39
309.091	17.58
309.305	40.11
309.519	-0.85
309.733	-0.85
309.947	40.11
310.161	-0.85
310.374	74.92
310.588	23.72
310.802	-7
311.016	97.45
311.23	29.87
311.444	52.39
311.658	-4.95
311.872	40.11
312.085	46.25
312.299	115.88
312.513	72.87
312.727	1.19
312.941	54.44
313.154	19.63
313.368	87.21
313.582	3.24
313.796	3.24
314.009	66.73
314.223	-2.9
314.437	13.48
314.651	21.67
314.864	23.72
315.078	-13.14
315.292	13.48
315.505	15.53
315.719	40.11
315.933	40.11
316.146	-64.34
316.36	60.59
316.573	58.54
316.787	25.77
317.001	-35.67
317.214	15.53
317.428	-15.19
317.641	31.91
317.855	85.16
318.068	-11.09
318.282	105.64
318.495	1.19
318.709	48.3
318.922	-78.68
319.136	5.29
319.349	42.15
319.563	70.83
319.776	97.45
319.99	58.54
320.203	-17.24
320.417	74.92
320.63	103.59
320.843	27.82
321.057	25.77
321.27	-37.72
321.483	68.78
321.697	68.78
321.91	60.59
322.124	36.01
322.337	38.06
322.55	13.48
322.763	111.78
322.977	9.39
323.19	19.63
323.403	-23.38
323.617	21.67
323.83	72.87
324.043	7.34
324.256	54.44
324.469	19.63
324.683	-31.57
324.896	15.53
325.109	79.02
325.322	-11.09
325.535	48.3
325.748	5.29
325.962	17.58
326.175	52.39
326.388	1.19
326.601	7.34
326.814	60.59
327.027	40.11
327.24	62.63
327.453	-15.19
327.666	36.01
327.879	76.97
328.092	66.73
328.305	31.91
328.518	36.01
328.731	-2.9
328.944	-15.19
329.157	76.97
329.37	15.53
329.583	50.35
329.796	72.87
330.009	54.44
330.222	44.2
330.435	46.25
330.648	-27.48
330.861	5.29
331.073	-0.85
331.286	31.91
331.499	19.63
331.712	7.34
331.925	60.59
332.138	54.44
332.35	97.45
332.563	46.25
332.776	40.11
332.989	17.58
333.202	-21.33
333.414	7.34
333.627	68.78
333.84	17.58
334.053	-31.57
334.265	21.67
334.478	64.68
334.691	19.63
334.903	29.87
335.116	42.15
335.329	5.29
335.541	15.53
335.754	50.35
335.966	25.77
336.179	15.53
336.392	52.39
336.604	70.83
336.817	13.48
337.029	5.29
337.242	-11.09
337.454	17.58
337.667	13.48
337.88	66.73
338.092	-41.81
338.305	60.59
338.517	3.24
338.729	93.35
338.942	165.03
339.154	109.74
339.367	-7
339.579	72.87
339.792	-15.19
340.004	138.41
340.217	38.06
340.429	25.77
340.641	36.01
340.854	46.25
341.066	1.19
341.278	-13.14
341.491	21.67
341.703	48.3
341.915	1.19
342.128	-45.91
342.34	17.58
342.552	27.82
342.764	-19.29
342.977	1.19
343.189	54.44
343.401	56.49
343.613	-60.24
343.826	7.34
344.038	1.19
344.25	76.97
344.462	38.06
344.674	60.59
344.886	13.48
345.099	29.87
345.311	40.11
345.523	-25.43
345.735	31.91
345.947	27.82
346.159	48.3
346.371	54.44
346.583	15.53
346.795	36.01
347.007	-4.95
347.219	7.34
347.431	48.3
347.643	21.67
347.855	60.59
348.067	46.25
348.279	-29.52
348.491	52.39
348.703	-15.19
348.915	83.11
349.127	-35.67
349.339	27.82
349.551	9.39
349.763	81.07
349.975	52.39
350.187	93.35
350.399	23.72
350.61	52.39
350.822	9.39
351.034	-17.24
351.246	62.63
351.458	66.73
351.669	79.02
351.881	11.43
352.093	33.96
352.305	31.91
352.517	-0.85
352.728	38.06
352.94	33.96
353.152	-13.14
353.363	79.02
353.575	19.63
353.787	66.73
353.999	48.3
354.21	64.68
354.422	7.34
354.633	40.11
354.845	38.06
355.057	27.82
355.268	50.35
355.48	52.39
355.692	27.82
355.903	36.01
356.115	17.58
356.326	-17.24
356.538	36.01
356.749	50.35
356.961	9.39
357.172	46.25
357.384	36.01
357.595	19.63
357.807	89.26
358.018	-11.09
358.23	33.96
358.441	38.06
358.653	97.45
358.864	13.48
359.075	79.02
359.287	-45.91
359.498	85.16
359.709	-27.48
359.921	15.53
360.132	9.39
360.344	-23.38
360.555	-13.14
360.766	-13.14
360.977	-13.14
361.189	15.53
361.4	40.11
361.611	17.58
361.823	91.31
362.034	9.39
362.245	76.97
362.456	50.35
362.667	-0.85
362.879	85.16
363.09	9.39
363.301	89.26
363.512	60.59
363.723	9.39
363.935	-60.24
364.146	29.87
364.357	44.2
364.568	70.83
364.779	52.39
364.99	136.36
365.201	-15.19
365.412	29.87
365.623	29.87
365.834	23.72
366.045	-27.48
366.256	15.53
366.467	9.39
366.678	101.55
366.889	7.34
367.1	79.02
367.311	29.87
367.522	68.78
367.733	44.2
367.944	72.87
368.155	81.07
368.366	-0.85
368.577	5.29
368.788	36.01
368.999	52.39
369.209	-9.05
369.42	19.63
369.631	-39.76
369.842	-2.9
370.053	-21.33
370.264	19.63
370.474	15.53
370.685	-11.09
370.896	60.59
371.107	54.44
371.317	-15.19
371.528	113.83
371.739	89.26
371.95	70.83
372.16	64.68
372.371	85.16
372.582	-29.52
372.792	56.49
373.003	54.44
373.214	93.35
373.424	58.54
373.635	56.49
373.846	50.35
374.056	-2.9
374.267	21.67
374.477	56.49
374.688	-11.09
374.898	113.83
375.109	23.72
375.319	-39.76
375.53	60.59
375.74	44.2
375.951	40.11
376.161	89.26
376.372	56.49
376.582	-4.95
376.793	29.87
377.003	70.83
377.214	58.54
377.424	15.53
377.635	56.49
377.845	68.78
378.055	52.39
378.266	38.06
378.476	-4.95
378.686	5.29
378.897	42.15
379.107	52.39
379.317	11.43
379.528	31.91
379.738	50.35
379.948	15.53
380.158	76.97
380.369	31.91
380.579	81.07
380.789	9.39
380.999	38.06
381.21	56.49
381.42	64.68
381.63	72.87
381.84	40.11
382.05	-7
382.261	48.3
382.471	95.4
382.681	11.43
382.891	-15.19
383.101	36.01
383.311	79.02
383.521	23.72
383.731	-19.29
383.941	7.34
384.151	83.11
384.361	72.87
384.571	64.68
384.781	54.44
384.991	40.11
385.201	83.11
385.411	38.06
385.621	76.97
385.831	52.39
386.041	15.53
386.251	44.2
386.461	54.44
386.671	58.54
386.881	64.68
387.091	17.58
387.301	52.39
387.511	-15.19
387.72	72.87
387.93	74.92
388.14	11.43
388.35	66.73
388.56	5.29
388.769	54.44
388.979	76.97
389.189	66.73
389.399	44.2
389.609	64.68
389.818	62.63
390.028	42.15
390.238	95.4
390.447	-17.24
390.657	11.43
390.867	29.87
391.076	56.49
391.286	40.11
391.496	83.11
391.705	-43.86
391.915	107.69
392.125	101.55
392.334	38.06
392.544	29.87
392.753	44.2
392.963	46.25
393.172	60.59
393.382	42.15
393.591	74.92
393.801	25.77
394.01	103.59
394.22	74.92
394.429	13.48
394.639	19.63
394.848	109.74
395.058	99.5
395.267	117.93
395.477	-43.86
395.686	95.4
395.895	173.22
396.105	36.01
396.314	29.87
396.524	76.97
396.733	97.45
396.942	23.72
397.152	128.17
397.361	52.39
397.57	66.73
397.78	95.4
397.989	89.26
398.198	76.97
398.407	101.55
398.617	152.74
398.826	56.49
399.035	113.83
399.244	85.16
399.453	83.11
399.663	52.39
399.872	83.11
400.081	87.21
400.29	158.89
400.499	5.29
400.708	156.84
400.917	89.26
401.127	68.78
401.336	56.49
401.545	76.97
401.754	142.5
401.963	66.73
402.172	150.7
402.381	95.4
402.59	42.15
402.799	119.98
403.008	42.15
403.217	124.07
403.426	23.72
403.635	17.58
403.844	119.98
404.053	54.44
404.262	87.21
404.471	167.08
404.68	38.06
404.888	109.74
405.097	72.87
405.306	124.07
405.515	136.36
405.724	87.21
405.933	126.12
406.142	148.65
406.35	124.07
406.559	173.22
406.768	134.31
406.977	199.85
407.185	222.38
407.394	107.69
407.603	134.31
407.812	193.7
408.02	214.18
408.229	126.12
408.438	201.9
408.646	175.27
408.855	228.52
409.064	113.83
409.272	148.65
409.481	273.57
409.69	249
409.898	222.38
410.107	265.38
410.315	218.28
410.524	249
410.733	228.52
410.941	310.44
411.15	275.62
411.358	277.67
411.567	320.68
411.775	289.96
411.984	386.21
412.192	312.49
412.401	287.91
412.609	375.97
412.818	369.83
413.026	292.01
413.234	416.93
413.443	384.16
413.651	402.6
413.86	455.84
414.068	431.27
414.276	480.42
414.485	490.66
414.693	451.75
414.901	498.85
415.11	500.9
415.318	550.05
415.526	625.83
415.734	537.76
415.943	591.01
416.151	601.25
416.359	613.54
416.567	623.78
416.776	613.54
416.984	748.7
417.192	734.37
417.4	720.03
417.608	720.03
417.817	799.9
418.025	799.9
418.233	785.57
418.441	916.64
418.649	896.16
418.857	879.77
419.065	973.98
419.273	935.07
419.481	902.3
419.689	1103
419.897	1152.15
420.105	1121.43
420.313	1172.63
420.521	1211.54
420.729	1258.65
420.937	1373.33
421.145	1305.75
421.353	1289.37
421.561	1348.76
421.769	1387.67
421.977	1508.5
422.185	1391.77
422.393	1596.56
422.601	1635.47
422.809	1686.67
423.017	1625.23
423.224	1715.34
423.432	1787.02
423.64	1897.61
423.848	1950.86
424.056	1922.19
424.263	1985.68
424.471	2147.47
424.679	2092.17
424.887	2174.09
425.094	2346.12
425.302	2391.17
425.51	2309.26
425.718	2507.91
425.925	2352.26
426.133	2583.68
426.341	2761.86
426.548	2890.88
426.756	2825.34
426.964	2942.08
427.171	3056.76
427.379	3091.58
427.586	3253.37
427.794	3384.44
428.001	3490.93
428.209	3484.79
428.417	3519.6
428.624	3701.87
428.832	3697.78
429.039	3705.97
429.247	3716.21
429.454	4076.65
429.662	4334.7
429.869	3990.64
430.076	4336.74
430.284	4150.38
430.491	4324.46
430.699	4830.3
430.906	4576.36
431.114	4643.94
431.321	5059.68
431.528	5069.92
431.736	5432.41
431.943	5622.87
432.15	5448.79
432.358	5375.06
432.565	5774.42
432.772	5731.41
432.979	6032.46
433.187	6102.09
433.394	6204.49
433.601	6497.35
433.808	6716.48
434.016	6546.5
434.223	6765.64
434.43	7349.31
434.637	7035.97
434.844	7593.01
435.052	7783.48
435.259	7633.97
435.466	7615.54
435.673	7463.99
435.88	8010.8
436.087	8641.57
436.294	8535.08
436.501	8367.15
436.708	8510.5
436.915	8852.52
437.122	9255.97
437.329	9169.95
437.537	9475.1
437.743	9683.99
437.95	9683.99
438.157	9987.09
438.364	10382.35
438.571	10492.94
438.778	10468.36
438.985	11389.95
439.192	11015.17
439.399	11308.03
439.606	10894.34
439.813	11643.9
440.02	12418.03
440.227	12246
440.433	12035.06
440.64	12590.06
440.847	12465.13
441.054	12680.17
441.261	13388.77
441.467	13380.57
441.674	13698.01
441.881	14218.19
442.088	14052.31
442.294	13982.68
442.501	14253.01
442.708	14769.1
442.914	15158.21
443.121	15743.93
443.328	15270.85
443.534	16319.41
443.741	16135.09
443.948	15797.18
444.154	16937.9
444.361	16645.04
444.568	16972.71
444.774	17068.97
444.981	17226.66
445.187	17656.73
445.394	18473.87
445.6	18373.52
445.807	20095.86
446.013	19374.98
446.22	19549.06
446.426	20153.21
446.633	20304.76
446.839	21013.35
447.046	19907.45
447.252	21179.24
447.459	21564.26
447.665	21359.46
447.871	22506.32
448.078	22883.15
448.284	22055.77
448.491	22520.66
448.697	23567.17
448.903	23817.02
449.11	23948.09
449.316	23386.95
449.522	24120.12
449.728	24654.64
449.935	24458.04
450.141	24722.23
450.347	24982.32
450.553	24587.06
450.76	24892.21
450.966	25750.31
451.172	25393.96
451.378	25795.36
451.584	25281.32
451.791	25908
451.997	26022.69
452.203	26411.8
452.409	26424.09
452.615	26381.08
452.821	25369.38
453.027	24752.94
453.233	26241.82
453.44	25256.75
453.646	25602.85
453.852	25637.67
454.058	26055.45
454.264	25338.66
454.47	25869.09
454.676	24939.31
454.882	25643.81
455.088	23765.82
455.294	24140.6
455.5	24093.5
455.705	24924.97
455.911	23647.04
456.117	23100.23
456.323	22807.37
456.529	21240.68
456.735	22854.48
456.941	21963.61
457.147	21615.46
457.352	21005.16
457.558	20849.52
457.764	20896.62
457.97	20634.48
458.176	19899.26
458.381	19987.32
458.587	18875.27
458.793	18725.77
458.999	17769.37
459.204	19151.75
459.41	18951.05
459.616	17460.13
459.821	17628.06
460.027	17458.08
460.233	17232.8
460.438	16282.55
460.644	16202.68
460.85	15643.58
461.055	15596.48
461.261	15500.22
461.466	14365.65
461.672	13855.7
461.878	14930.89
462.083	13986.77
462.289	13575.13
462.494	13315.04
462.7	12919.78
462.905	12534.76
463.111	13016.04
463.316	13165.54
463.522	12604.39
463.727	12745.7
463.932	12792.81
464.138	12667.88
464.343	12665.83
464.549	12252.14
464.754	13079.52
464.959	12585.96
465.165	12620.78
465.37	12037.11
465.575	11611.13
465.781	12035.06
465.986	12157.94
466.191	11678.71
466.397	11437.05
466.602	11031.55
466.807	11330.56
467.012	11199.49
467.218	11062.27
467.423	11303.93
467.628	11348.99
467.833	11893.75
468.038	11312.13
468.244	10996.74
468.449	11410.43
468.654	11049.99
468.859	11103.23
469.064	10667.02
469.269	10697.74
469.474	10626.06
469.679	10818.57
469.885	10306.57
470.09	10486.79
470.295	10490.89
470.5	10433.55
470.705	10419.21
470.91	10193.94
471.115	10107.92
471.32	10257.42
471.525	10249.23
471.73	9718.81
471.935	9870.36
472.139	9421.85
472.344	9546.78
472.549	9608.22
472.754	9475.1
472.959	9118.75
473.164	8782.88
473.369	9032.74
473.574	9307.16
473.778	9010.21
473.983	9004.07
474.188	8981.54
474.393	8557.61
474.598	8748.07
474.802	8647.72
475.007	8506.41
475.212	8553.51
475.417	8195.12
475.621	8266.8
475.826	8107.05
476.031	8180.78
476.235	8049.71
476.44	8131.63
476.645	7830.58
476.849	7849.01
477.054	7736.37
477.259	7781.43
477.463	7756.85
477.668	7644.21
477.872	7435.32
478.077	7507
478.282	7294.01
478.486	7216.19
478.691	7277.63
478.895	7205.95
479.1	7099.45
479.304	7103.55
479.509	7013.44
479.713	7121.98
479.918	6933.57
480.122	6958.14
480.326	6851.65
480.531	6941.76
480.735	6782.02
480.94	6978.62
481.144	7121.98
481.348	6581.32
481.553	6747.2
481.757	6480.97
481.961	6638.66
482.166	6773.83
482.37	6751.3
482.574	6653
482.778	6591.56
482.983	6884.42
483.187	6505.54
483.391	6796.35
483.595	6548.55
483.8	6655.05
484.004	6579.27
484.208	6632.52
484.412	6757.44
484.616	6636.61
484.821	6667.33
485.025	6341.71
485.229	6575.17
485.433	6659.14
485.637	6683.72
485.841	6476.87
486.045	6511.69
486.249	6429.77
486.453	6589.51
486.657	6743.11
486.861	6519.88
487.065	6536.26
487.269	6609.99
487.473	6526.02
487.677	6745.16
487.881	6620.23
488.085	6642.76
488.289	6634.57
488.493	6679.62
488.697	6730.82
488.901	6702.15
489.105	6767.68
489.309	6605.89
489.512	6718.53
489.716	6769.73
489.92	6677.57
490.124	6908.99
490.328	6716.48
490.531	6763.59
490.735	6728.77
490.939	6972.48
491.143	6747.2
491.346	6759.49
491.55	7017.54
491.754	6939.71
491.958	6956.1
492.161	7023.68
492.365	7046.21
492.569	7052.35
492.772	7099.45
492.976	7011.39
493.18	7185.47
493.383	7242.81
493.587	7343.16
493.79	7291.96
493.994	7339.07
494.197	7265.34
494.401	7451.7
494.605	7296.06
494.808	7539.77
495.012	7529.53
495.215	7527.48
495.419	7713.84
495.622	7648.31
495.825	7689.27
496.029	7846.96
496.232	8152.11
496.436	8000.56
496.639	8211.5
496.843	8152.11
497.046	8279.08
497.249	8512.55
497.453	8363.05
497.656	8465.45
497.859	8428.59
498.063	8610.86
498.266	8602.66
498.469	9016.35
498.673	8891.43
498.876	8885.28
499.079	9102.37
499.282	8907.81
499.485	9286.68
499.689	9292.83
499.892	9440.28
500.095	9651.22
500.298	9745.43
500.501	9755.67
500.705	10042.39
500.908	10112.02
501.111	10056.72
501.314	10202.13
501.517	10513.42
501.72	10537.99
501.923	10284.05
502.126	10740.74
502.329	10845.19
502.532	10992.64
502.735	11174.91
502.938	11330.56
503.141	11498.49
503.344	11435
503.547	11693.05
503.75	11848.69
503.953	12002.29
504.156	12198.9
504.359	12202.99
504.562	12100.59
504.765	12569.58
504.968	12446.7
505.17	12463.08
505.373	12895.21
505.576	13030.37
505.779	13194.21
505.982	13411.29
506.185	13673.43
506.387	13798.36
506.59	13718.49
506.793	13997.01
506.996	14033.88
507.198	14398.41
507.401	14513.1
507.604	14412.75
507.807	14955.46
508.009	15080.39
508.212	15133.64
508.415	15342.53
508.617	15721.4
508.82	15762.36
509.022	15672.25
509.225	15909.82
509.428	16194.48
509.63	16462.77
509.833	16438.19
510.035	16993.19
510.238	16759.72
510.44	17220.52
510.643	17562.53
510.845	17546.14
511.048	17353.63
511.25	17785.76
511.453	17750.94
511.655	18654.09
511.858	18326.42
512.06	18617.23
512.262	18740.11
512.465	18680.72
512.667	19131.27
512.87	19426.18
513.072	19477.38
513.274	19827.58
513.477	20112.25
513.679	20429.68
513.881	20503.41
514.084	20884.33
514.286	20669.3
514.488	21074.79
514.69	21660.51
514.893	21691.23
515.095	22055.77
515.297	22059.87
515.499	22190.94
515.701	22614.87
515.904	22930.25
516.106	22836.05
516.308	22731.6
516.51	23407.43
516.712	23331.65
516.914	23814.98
517.116	24189.75
517.318	24314.68
517.52	24396.6
517.722	24736.56
517.925	24959.79
518.127	25494.31
518.329	25512.74
518.531	25506.6
518.733	26202.91
518.935	26293.02
519.136	26059.55
519.338	26680.08
519.54	26716.95
519.742	26848.02
519.944	27144.97
520.146	27910.91
520.348	27872
520.55	28091.13
520.752	28386.04
520.954	28758.77
521.155	28658.42
521.357	28773.11
521.559	29151.98
521.761	29668.07
521.963	30040.8
522.164	29752.04
522.366	30368.48
522.568	30223.07
522.77	30690.01
522.971	30759.64
523.173	30968.53
523.375	31054.54
523.576	31283.92
523.778	31130.32
523.98	32078.53
524.181	31838.92
524.383	31951.56
524.584	32357.05
524.786	32623.29
524.988	32764.6
525.189	32854.71
525.391	33016.5
525.592	33307.31
525.794	33069.75
525.995	33479.34
526.197	33634.99
526.398	33995.43
526.6	33741.48
526.801	33970.85
527.003	34323.1
527.204	34228.9
527.406	34456.22
527.607	34579.1
527.808	34980.5
528.01	34595.48
528.211	34833.05
528.412	35248.78
528.614	35308.18
528.815	35435.15
529.016	35523.21
529.218	35187.35
529.419	35570.32
529.62	35836.55
529.822	35396.24
530.023	36076.16
530.224	35963.53
530.425	35912.33
530.626	35512.97
530.828	35744.39
531.029	36731.51
531.23	36108.93
531.431	36188.8
531.632	36293.25
531.833	36616.83
532.035	36561.53
532.236	36377.22
532.437	36207.23
532.638	36295.3
532.839	36887.16
533.04	36756.09
533.241	36156.03
533.442	37306.99
533.643	36901.5
533.844	36758.14
534.045	37292.66
534.246	36659.84
534.447	37057.14
534.648	36903.54
534.849	36919.93
535.05	36747.9
535.251	37001.85
535.451	37020.28
535.652	37280.37
535.853	36862.58
536.054	36844.15
536.255	37251.7
536.456	36854.39
536.657	37483.12
536.857	36706.94
537.058	36606.59
537.259	37415.54
537.46	37436.02
537.66	37147.25
537.861	36889.21
538.062	36887.16
538.263	37120.63
538.463	36811.38
538.664	36737.66
538.865	37190.26
539.065	37511.79
539.266	36883.06
539.466	37517.93
539.667	36565.63
539.868	37571.18
540.068	37393.01
540.269	37210.74
540.469	37673.58
540.67	36706.94
540.87	37251.7
541.071	37069.43
541.271	37116.53
541.472	36989.56
541.672	37067.38
541.873	36565.63
542.073	36827.77
542.274	37960.3
542.474	37306.99
542.675	36958.84
542.875	37403.25
543.075	37137.01
543.276	36649.6
543.476	36940.41
543.676	36897.4
543.877	37298.8
544.077	36868.73
544.277	37175.92
544.478	37022.33
544.678	37364.34
544.878	37223.03
545.078	37321.33
545.279	36833.91
545.479	37010.04
545.679	37233.27
545.879	37333.62
546.079	36799.1
546.28	37065.33
546.48	36541.05
546.68	37096.05
546.88	37360.24
547.08	36913.78
547.28	37118.58
547.48	36821.62
547.68	37173.88
547.88	36940.41
548.081	37010.04
548.281	36899.45
548.481	36952.69
548.681	36870.78
548.881	37077.62
549.081	36795
549.28	37059.19
549.48	36833.91
549.68	37085.81
549.88	37591.66
550.08	36915.83
550.28	36827.77
550.48	36891.26
550.68	37233.27
550.88	37120.63
551.08	36686.46
551.279	36950.65
551.479	36762.23
551.679	36934.26
551.879	36754.04
552.079	36975.22
552.278	36799.1
552.478	36833.91
552.678	36487.81
552.878	36903.54
553.077	36508.29
553.277	36612.73
553.477	37304.95
553.676	36668.03
553.876	36739.71
554.076	36684.41
554.275	36452.99
554.475	36594.3
554.674	36379.26
554.874	36792.95
555.074	36534.91
555.273	36606.59
555.473	36835.96
555.672	36203.14
555.872	36627.07
556.071	36772.47
556.271	36616.83
556.47	36500.09
556.67	35519.12
556.869	36205.19
557.068	36340.35
557.268	36029.06
557.467	36031.11
557.667	36027.01
557.866	36088.45
558.065	35854.98
558.265	35877.51
558.464	35400.33
558.663	36379.26
558.863	35801.74
559.062	36307.58
559.261	35547.79
559.461	35928.71
559.66	35463.82
559.859	35680.91
560.058	35543.69
560.258	35617.42
560.457	35345.04
560.656	35312.27
560.855	35076.76
561.054	35424.91
561.253	35369.61
561.453	35242.64
561.652	35408.53
561.851	35523.21
562.05	35369.61
562.249	35099.28
562.448	35009.17
562.647	35074.71
562.846	35330.7
563.045	35162.77
563.244	34327.2
563.443	35342.99
563.642	34413.21
563.841	34620.06
564.04	34474.65
564.239	35140.24
564.438	34351.77
564.637	34976.4
564.836	34605.72
565.035	34372.25
565.234	34384.54
565.432	33843.88
565.631	34417.31
565.83	34769.56
566.029	34171.55
566.228	33850.02
566.427	33974.95
566.625	33817.25
566.824	33690.28
567.023	34243.23
567.222	33383.09
567.42	34380.45
567.619	33696.42
567.818	33688.23
568.016	33512.11
568.215	33831.59
568.414	33518.25
568.612	33753.77
568.811	33456.81
569.01	33598.12
569.208	33272.49
569.407	33278.64
569.605	33020.59
569.804	33092.27
570.002	32680.63
570.201	33315.5
570.4	33045.17
570.598	32565.95
570.797	32838.33
570.995	32762.55
571.193	32244.41
571.392	32430.78
571.59	32197.31
571.789	32006.85
571.987	31865.54
572.186	32285.37
572.384	31777.48
572.582	32162.5
572.781	32244.41
572.979	31316.68
573.177	31644.36
573.376	31869.64
573.574	31361.74
573.772	31634.12
573.971	31564.49
574.169	31044.3
574.367	30925.52
574.565	31341.26
574.763	30931.67
574.962	31017.68
575.16	30640.86
575.358	30671.57
575.556	30298.84
575.754	30874.32
575.952	29950.69
576.151	30745.3
576.349	30247.65
576.547	30059.23
576.745	30092
576.943	30251.74
577.141	30046.94
577.339	30141.15
577.537	29799.14
577.735	29706.98
577.933	29821.67
578.131	29887.2
578.329	29502.18
578.527	29401.83
578.725	29721.32
578.923	29336.3
579.121	29238
579.319	29424.36
579.516	29342.44
579.714	29102.83
579.912	29061.87
580.11	29018.86
580.308	28867.31
580.506	28695.28
580.704	28283.64
580.901	28400.38
581.099	28474.1
581.297	28484.34
581.495	28349.18
581.692	28676.85
581.89	27990.78
582.088	28383.99
582.285	27994.88
582.483	28095.23
582.681	27955.97
582.878	27677.44
583.076	27368.2
583.274	27941.63
583.471	27323.15
583.669	27722.5
583.866	27431.69
584.064	27597.57
584.262	26995.47
584.459	27329.29
584.657	27153.16
584.854	27183.88
585.052	26696.47
585.249	27104.01
585.447	26915.6
585.644	26579.73
585.841	26419.99
586.039	26790.67
586.236	26667.8
586.434	26446.62
586.631	26499.86
586.828	26250.01
587.026	26092.32
587.223	26395.42
587.42	26286.87
587.618	26256.15
587.815	25676.58
588.012	25840.42
588.21	25590.56
588.407	25715.49
588.604	25731.87
588.801	25363.24
588.999	25402.15
589.196	25383.72
589.393	25656.1
589.59	25129.77
589.787	25035.56
589.984	25170.73
590.182	25064.24
590.379	24912.69
590.576	24654.64
590.773	24716.08
590.97	24726.32
591.167	24767.28
591.364	24511.28
591.561	24736.56
591.758	24552.24
591.955	24554.29
592.152	24433.46
592.349	24085.31
592.546	24306.49
592.743	24210.23
592.94	23911.23
593.137	24187.71
593.334	23821.12
593.531	23937.85
593.727	23933.76
593.924	23825.22
594.121	23432.01
594.318	24007.48
594.515	23302.98
594.712	23720.77
594.908	23284.55
595.105	23575.36
595.302	23231.3
595.499	23173.96
595.696	23133
595.892	22840.14
596.089	23137.1
596.286	23327.56
596.482	22883.15
596.679	22721.36
596.876	22911.82
597.072	22784.85
597.269	22575.95
597.466	22498.13
597.662	22092.63
597.859	22348.63
598.055	22319.96
598.252	22272.85
598.448	22119.26
598.645	21867.36
598.841	21980
599.038	22326.1
599.234	22068.06
599.431	21781.34
599.627	21947.23
599.824	21836.64
600.02	21570.4
600.217	21736.29
600.413	21588.83
600.609	21420.9
600.806	21304.17
601.002	21486.43
601.198	21336.93
601.395	21242.73
601.591	21046.12
601.787	21117.8
601.984	20798.32
602.18	21224.29
602.376	20624.24
602.572	20921.2
602.769	20980.59
602.965	20859.76
603.161	20650.86
603.357	20482.93
603.553	20599.66
603.75	20362.1
603.946	20405.11
604.142	20532.08
604.338	20233.08
604.534	20190.07
604.73	20341.62
604.926	20224.89
605.122	20011.9
605.318	19827.58
605.514	19821.44
605.71	19426.18
605.906	19612.54
606.102	19606.4
606.298	19628.93
606.494	19446.66
606.69	19540.86
606.886	19555.2
607.082	19317.64
607.278	19420.03
607.474	19143.56
607.67	19381.12
607.866	18918.28
608.062	19450.75
608.257	18811.79
608.453	18967.43
608.649	19008.39
608.845	18783.12
609.041	18813.84
609.236	18832.27
609.432	18998.15
609.628	18637.71
609.824	18525.07
610.019	18680.72
610.215	18707.34
610.411	18580.37
610.606	18404.24
610.802	18477.97
610.998	18103.19
611.193	18254.74
611.389	18191.25
611.584	18013.08
611.78	17843.1
611.976	18129.81
612.171	18029.46
612.367	18193.3
612.562	17929.11
612.758	17650.59
612.953	17834.91
613.149	18008.98
613.344	17494.94
613.539	17902.49
613.735	17732.51
613.93	17816.47
614.126	17490.85
614.321	17691.55
614.517	17507.23
614.712	17709.98
614.907	17277.86
615.103	17583.01
615.298	17357.73
615.493	17458.08
615.688	16980.9
615.884	17484.7
616.079	17030.05
616.274	17128.36
616.47	17038.25
616.665	17038.25
616.86	16743.34
617.055	16972.71
617.25	16755.63
617.445	16909.22
617.641	16462.77
617.836	16876.46
618.031	16423.86
618.226	16831.4
618.421	16575.41
618.616	16751.53
618.811	16249.78
619.006	16458.67
619.201	16075.7
619.396	16356.27
619.591	15944.63
619.786	16337.84
619.981	16032.69
620.176	16159.67
620.371	15764.41
620.566	15907.77
620.761	15684.54
620.956	15809.47
621.151	15313.86
621.346	15690.68
621.541	15174.6
621.735	15293.38
621.93	15195.07
622.125	15426.5
622.32	15143.88
622.515	15068.1
622.709	14894.02
622.904	14855.11
623.099	14857.16
623.294	14914.5
623.488	14687.18
623.683	14662.6
623.878	14533.58
624.072	14476.24
624.267	14416.85
624.462	14298.06
624.656	14099.41
624.851	14105.56
625.046	14093.27
625.24	13865.94
625.435	13994.97
625.629	13878.23
625.824	13784.02
626.018	13738.97
626.213	13538.27
626.407	13657.05
626.602	13487.07
626.796	13704.15
626.991	13280.22
627.185	13175.78
627.38	13202.4
627.574	13147.11
627.768	13093.86
627.963	12966.88
628.157	12796.9
628.352	13116.39
628.546	12522.48
628.74	12792.81
628.935	12739.56
629.129	12581.87
629.323	12307.44
629.517	12551.15
629.712	12317.68
629.906	12200.94
630.1	12164.08
630.294	12051.44
630.489	12219.38
630.683	12073.97
630.877	11852.79
631.071	11901.94
631.265	12207.09
631.459	11697.14
631.653	11826.17
631.848	11766.78
632.042	11631.61
632.236	11688.95
632.43	11107.33
632.624	11267.07
632.818	11496.44
633.012	11250.69
633.206	11340.8
633.4	11103.23
633.594	11045.89
633.788	11041.79
633.982	11099.14
634.176	10861.57
634.369	10816.52
634.563	10927.11
634.757	10837
634.951	10939.4
635.145	10740.74
635.339	10640.39
635.533	10712.07
635.726	10441.74
635.92	10499.08
636.114	10488.84
636.308	10447.88
636.501	10443.79
636.695	10488.84
636.889	10046.48
637.083	10288.14
637.276	10038.29
637.47	9921.56
637.664	10095.63
637.857	9964.56
638.051	9780.25
638.244	9722.9
638.438	9796.63
638.632	9731.09
638.825	9655.32
639.019	9706.52
639.212	9516.06
639.406	9526.3
639.599	9544.73
639.793	9493.53
639.986	9417.75
640.18	9462.81
640.373	9083.94
640.567	9104.42
640.76	9122.85
640.954	9059.36
641.147	8838.18
641.34	9165.85
641.534	8934.43
641.727	9026.59
641.92	9010.21
642.114	8741.93
642.307	8688.68
642.5	8895.52
642.694	8283.18
642.887	8567.85
643.08	8586.28
643.273	8401.96
643.467	8561.7
643.66	8416.3
643.853	8195.12
644.046	8397.87
644.239	8156.21
644.432	8164.4
644.626	8143.92
644.819	7916.59
645.012	8209.45
645.205	8094.77
645.398	7978.03
645.591	7742.52
645.784	7779.38
645.977	7793.72
646.17	7625.78
646.363	7593.01
646.556	7603.25
646.749	7752.76
646.942	7664.69
647.135	7504.95
647.328	7527.48
647.521	7447.61
647.714	7242.81
647.907	7523.38
648.099	7199.8
648.292	7308.35
648.485	7179.33
648.678	7033.92
648.871	7099.45
649.064	6976.58
649.256	7281.72
649.449	6937.66
649.642	6974.53
649.835	6898.75
650.027	6870.08
650.22	6761.54
650.413	6820.93
650.605	6702.15
650.798	6675.52
650.991	6515.78
651.183	6853.7
651.376	6347.85
651.568	6546.5
651.761	6534.21
651.954	6681.67
652.146	6466.63
652.339	6444.1
652.531	6280.27
652.724	6476.87
652.916	6167.63
653.109	6235.21
653.301	6341.71
653.494	6173.77
653.686	5995.6
653.879	6356.04
654.071	6077.52
654.263	6032.46
654.456	6022.22
654.648	6093.9
654.84	5923.92
655.033	5913.68
655.225	6003.79
655.417	5700.69
655.61	5899.34
655.802	5934.16
655.994	5798.99
656.186	5749.84
656.379	5686.36
656.571	5672.02
656.763	5690.45
656.955	5655.64
657.148	5663.83
657.34	5557.33
657.532	5403.74
657.724	5420.12
657.916	5250.14
658.108	5454.94
658.3	5274.71
658.492	5403.74
658.684	5229.66
658.876	5203.04
659.068	5315.67
659.26	5153.88
659.452	5127.26
659.644	5108.83
659.836	4940.9
660.028	5049.44
660.22	4889.7
660.412	4893.79
660.604	5088.35
660.796	4955.23
660.988	4899.94
661.18	4713.57
661.372	4766.82
661.563	4719.71
661.755	4715.62
661.947	4744.29
662.139	4725.86
662.331	4555.88
662.522	4668.52
662.714	4435.05
662.906	4473.96
663.097	4602.98
663.289	4398.18
663.481	4598.88
663.673	4570.21
663.864	4412.52
664.056	4330.6
664.247	4353.13
664.439	4203.63
664.631	4287.59
664.822	4379.75
665.014	4344.94
665.205	4205.67
665.397	4103.28
665.588	4295.79
665.78	4084.84
665.971	4039.79
666.163	4211.82
666.354	4131.95
666.546	4072.56
666.737	3992.69
666.929	4007.02
667.12	4062.32
667.311	3822.7
667.503	4007.02
667.694	4037.74
667.885	3853.42
668.077	3828.85
668.268	3746.93
668.459	3703.92
668.651	3636.34
668.842	3695.73
669.033	3857.52
669.224	3673.2
669.416	3683.44
669.607	3777.65
669.798	3617.91
669.989	3654.77
670.18	3699.83
670.371	3642.48
670.563	3611.76
670.754	3642.48
670.945	3556.47
671.136	3683.44
671.327	3550.32
671.518	3611.76
671.709	3411.06
671.9	3546.23
672.091	3398.77
672.282	3374.2
672.473	3390.58
672.664	3628.15
672.855	3433.59
673.046	3425.4
673.237	3413.11
673.428	3335.29
673.619	3294.33
673.809	3472.5
674	3212.41
674.191	3366.01
674.382	3314.81
674.573	3378.3
674.764	3277.94
674.954	3153.02
675.145	3263.61
675.336	3196.03
675.527	3327.1
675.717	3263.61
675.908	3071.1
676.099	3214.46
676.289	3204.22
676.48	3075.2
676.671	3056.76
676.861	3067
677.052	3013.76
677.243	2968.7
677.433	3028.09
677.624	3024
677.814	2907.26
678.005	3046.52
678.195	3069.05
678.386	3009.66
678.576	3001.47
678.767	3038.33
678.957	3046.52
679.148	3105.92
679.338	2983.04
679.529	2958.46
679.719	2983.04
679.909	3028.09
680.1	2978.94
680.29	2858.11
680.481	2931.84
680.671	2817.15
680.861	2899.07
681.052	2948.22
681.242	2901.12
681.432	2782.34
681.622	2823.3
681.813	2745.47
682.003	2866.3
682.193	2851.97
682.383	2813.06
682.573	2935.93
682.764	2917.5
682.954	2802.82
683.144	2704.51
683.334	2714.75
683.524	2768
683.714	2821.25
683.904	2757.76
684.094	2757.76
684.284	2763.9
684.474	2806.91
684.664	2763.9
684.854	2811.01
685.044	2645.12
685.234	2634.88
685.424	2751.62
685.614	2784.38
685.804	2786.43
685.994	2702.47
686.184	2829.44
686.374	2638.98
686.564	2653.31
686.753	2745.47
686.943	2690.18
687.133	2675.84
687.323	2636.93
687.513	2604.16
687.702	2610.31
687.892	2505.86
688.082	2620.55
688.272	2624.64
688.461	2598.02
688.651	2604.16
688.841	2595.97
689.03	2462.85
689.22	2595.97
689.41	2538.63
689.599	2641.03
689.789	2501.76
689.979	2483.33
690.168	2552.96
690.358	2452.61
690.547	2552.96
690.737	2528.39
690.926	2571.4
691.116	2591.88
691.305	2530.44
691.495	2606.21
691.684	2509.96
691.874	2555.01
692.063	2442.37
692.252	2469
692.442	2442.37
692.631	2534.53
692.82	2397.32
693.01	2423.94
693.199	2391.17
693.388	2536.58
693.578	2518.15
693.767	2440.33
693.956	2507.91
694.146	2471.04
694.335	2464.9
694.524	2469
694.713	2509.96
694.902	2466.95
695.092	2481.28
695.281	2503.81
695.47	2514.05
695.659	2524.29
695.848	2501.76
696.037	2462.85
696.226	2479.24
696.415	2507.91
696.604	2428.04
696.793	2417.8
696.982	2354.31
697.171	2387.08
697.36	2364.55
697.549	2411.65
697.738	2421.89
697.927	2423.94
698.116	2243.72
698.305	2401.41
698.494	2364.55
698.683	2411.65
698.872	2432.13
699.061	2387.08
699.25	2292.87
699.438	2428.04
699.627	2428.04
699.816	2479.24
700.005	2417.8
700.193	2419.85
700.382	2407.56
700.571	2399.37
700.76	2360.45
700.948	2356.36
701.137	2360.45
701.326	2344.07
701.514	2446.47
701.703	2266.25
701.892	2323.59
702.08	2352.26
702.269	2235.53
702.457	2339.97
702.646	2229.38
702.834	2346.12
703.023	2344.07
703.212	2319.5
703.4	2317.45
703.589	2315.4
703.777	2290.82
703.965	2278.54
704.154	2124.94
704.342	2272.39
704.531	2303.11
704.719	2151.56
704.907	2292.87
705.096	2178.19
705.284	2272.39
705.472	2286.73
705.661	2274.44
705.849	2210.95
706.037	2190.47
706.226	2153.61
706.414	2196.62
706.602	2145.42
706.79	2266.25
706.979	2102.41
707.167	2215.05
707.355	2145.42
707.543	2149.51
707.731	2227.34
707.919	2149.51
708.107	2139.27
708.296	2061.45
708.484	2090.12
708.672	2040.97
708.86	2075.79
709.048	2118.79
709.236	2139.27
709.424	2086.03
709.612	2008.2
709.8	1989.77
709.988	2094.22
710.176	2002.06
710.364	2092.17
710.551	1983.63
710.739	2026.64
710.927	2034.83
711.115	2100.36
711.303	2069.64
711.491	1971.34
711.679	1985.68
711.866	1891.47
712.054	1991.82
712.242	1987.72
712.43	1916.05
712.617	2016.4
712.805	1942.67
712.993	1946.76
713.181	1897.61
713.368	1928.33
713.556	1981.58
713.744	1811.6
713.931	1885.33
714.119	1885.33
714.306	1860.75
714.494	1834.13
714.682	1901.71
714.869	1715.34
715.057	1846.41
715.244	1838.22
715.432	1864.85
715.619	1903.76
715.807	1776.78
715.994	1778.83
716.182	1737.87
716.369	1905.81
716.556	1811.6
716.744	1766.54
716.931	1776.78
717.119	1748.11
717.306	1776.78
717.493	1692.82
717.681	1756.3
717.868	1789.07
718.055	1807.5
718.242	1688.72
718.43	1670.29
718.617	1653.91
718.804	1621.14
718.991	1735.82
719.179	1760.4
719.366	1735.82
719.553	1719.44
719.74	1612.95
719.927	1574.03
720.114	1664.15
720.301	1567.89
720.488	1715.34
720.676	1660.05
720.863	1635.47
721.05	1705.1
721.237	1614.99
721.424	1592.47
721.611	1651.86
721.798	1586.32
721.985	1612.95
722.172	1668.24
722.358	1416.34
722.545	1574.03
722.732	1518.74
722.919	1655.95
723.106	1420.44
723.293	1481.88
723.48	1547.41
723.667	1557.65
723.853	1559.7
724.04	1612.95
724.227	1528.98
724.414	1520.79
724.6	1555.6
724.787	1516.69
724.974	1510.55
725.161	1475.73
725.347	1438.87
725.534	1492.12
725.72	1473.68
725.907	1373.33
726.094	1416.34
726.28	1393.81
726.467	1428.63
726.653	1295.51
726.84	1494.16
727.027	1447.06
727.213	1359
727.4	1410.2
727.586	1354.9
727.773	1397.91
727.959	1363.09
728.145	1408.15
728.332	1275.03
728.518	1340.57
728.705	1391.77
728.891	1359
729.077	1293.46
729.264	1281.18
729.45	1346.71
729.636	1361.05
729.823	1315.99
730.009	1307.8
730.195	1275.03
730.382	1344.66
730.568	1385.62
730.754	1268.89
730.94	1264.79
731.126	1301.65
731.313	1320.09
731.499	1293.46
731.685	1285.27
731.871	1244.31
732.057	1281.18
732.243	1277.08
732.429	1238.17
732.615	1248.41
732.801	1291.41
732.987	1240.22
733.173	1238.17
733.359	1207.45
733.545	1260.7
733.731	1266.84
733.917	1180.82
734.103	1234.07
734.289	1189.02
734.475	1268.89
734.661	1234.07
734.847	1164.44
735.033	1141.91
735.219	1150.11
735.404	1146.01
735.59	1141.91
735.776	1109.15
735.962	1143.96
736.148	1229.98
736.333	1139.87
736.519	1213.59
736.705	1154.2
736.89	1164.44
737.076	1143.96
737.262	1164.44
737.447	1027.23
737.633	1225.88
737.819	1154.2
738.004	1121.43
738.19	1096.86
738.375	1127.58
738.561	1051.8
738.747	1086.62
738.932	1103
739.118	1100.95
739.303	1158.3
739.489	1074.33
739.674	1064.09
739.859	1094.81
740.045	1084.57
740.23	1039.51
740.416	1043.61
740.601	1090.71
740.786	1062.04
740.972	1000.6
741.157	982.17
741.342	1010.84
741.528	998.56
741.713	947.36
741.898	1002.65
742.084	1033.37
742.269	1035.42
742.454	967.84
742.639	986.27
742.824	976.03
743.01	922.78
743.195	900.25
743.38	988.32
743.565	996.51
743.75	1008.8
743.935	1012.89
744.12	947.36
744.305	879.77
744.49	867.49
744.675	1029.27
744.86	887.97
745.045	910.49
745.23	933.02
745.415	951.45
745.6	926.88
745.785	906.4
745.97	840.86
746.155	885.92
746.34	879.77
746.525	783.52
746.71	933.02
746.895	906.4
747.079	820.38
747.264	806.05
747.449	875.68
747.634	933.02
747.819	775.33
748.003	924.83
748.188	898.2
748.373	865.44
748.557	787.61
748.742	785.57
748.927	773.28
749.111	822.43
749.296	849.05
749.481	851.1
749.665	826.53
749.85	648.35
750.034	754.85
750.219	842.91
750.404	869.53
750.588	744.61
750.773	849.05
750.957	744.61
751.141	814.24
751.326	689.31
751.51	769.18
751.695	668.83
751.879	705.7
752.064	826.53
752.248	771.23
752.432	697.5
752.617	785.57
752.801	726.18
752.985	699.55
753.17	701.6
753.354	695.46
753.538	728.22
753.722	631.97
753.907	711.84
754.091	691.36
754.275	810.14
754.459	701.6
754.643	658.59
754.828	617.63
755.012	713.89
755.196	595.11
755.38	769.18
755.564	640.16
755.748	615.59
755.932	623.78
756.116	679.07
756.3	562.34
756.484	717.98
756.668	597.15
756.852	560.29
757.036	642.21
757.22	646.3
757.404	611.49
757.588	599.2
757.772	597.15
757.956	621.73
758.14	644.26
758.323	574.63
758.507	679.07
758.691	593.06
758.875	560.29
759.059	603.3
759.242	593.06
759.426	623.78
759.61	580.77
759.794	629.92
759.977	629.92
760.161	609.44
760.345	625.83
760.528	533.67
760.712	556.19
760.895	523.43
761.079	519.33
761.263	517.28
761.446	535.71
761.63	550.05
761.813	523.43
761.997	550.05
762.18	504.99
762.364	509.09
762.547	496.8
762.731	500.9
762.914	513.19
763.098	502.95
763.281	552.1
763.464	449.7
763.648	478.37
763.831	527.52
764.015	435.36
764.198	548
764.381	509.09
764.564	484.52
764.748	474.28
764.931	531.62
765.114	502.95
765.297	529.57
765.481	421.03
765.664	556.19
765.847	445.6
766.03	482.47
766.213	502.95
766.397	500.9
766.58	445.6
766.763	500.9
766.946	566.43
767.129	392.36
767.312	466.08
767.495	453.8
767.678	484.52
767.861	414.88
768.044	429.22
768.227	480.42
768.41	404.64
768.593	480.42
768.776	519.33
768.959	480.42
769.142	476.32
769.324	439.46
769.507	451.75
769.69	425.12
769.873	453.8
770.056	441.51
770.239	492.71
770.421	445.6
770.604	363.69
770.787	447.65
770.97	429.22
771.152	421.03
771.335	412.84
771.518	517.28
771.7	466.08
771.883	427.17
772.066	523.43
772.248	414.88
772.431	416.93
772.613	476.32
772.796	459.94
772.978	396.45
773.161	480.42
773.343	443.56
773.526	433.32
773.708	394.4
773.891	373.92
774.073	410.79
774.256	328.87
774.438	421.03
774.621	472.23
774.803	412.84
774.985	328.87
775.168	363.69
775.35	378.02
775.532	351.4
775.715	330.92
775.897	302.25
776.079	357.54
776.261	312.49
776.444	384.16
776.626	435.36
776.808	394.4
776.99	296.1
777.173	308.39
777.355	363.69
777.537	335.01
777.719	296.1
777.901	396.45
778.083	326.82
778.265	423.08
778.447	289.96
778.629	273.57
778.811	345.25
778.993	355.49
779.175	232.62
779.357	316.58
779.539	294.05
779.721	267.43
779.903	300.2
780.085	298.15
780.267	275.62
780.449	357.54
780.631	332.97
780.812	306.34
780.994	287.91
781.176	330.92
781.358	380.07
781.54	253.09
781.721	324.77
781.903	261.29
782.085	287.91
782.267	316.58
782.448	195.75
782.63	289.96
782.812	238.76
782.993	318.63
783.175	298.15
783.357	232.62
783.538	292.01
783.72	259.24
783.901	224.42
784.083	359.59
784.264	292.01
784.446	236.71
784.627	279.72
784.809	259.24
784.99	261.29
785.172	296.1
785.353	230.57
785.535	263.33
785.716	222.38
785.897	259.24
786.079	249
786.26	224.42
786.441	218.28
786.623	269.48
786.804	261.29
786.985	261.29
787.167	240.81
787.348	269.48
787.529	275.62
787.71	242.85
787.891	189.61
788.073	189.61
788.254	185.51
788.435	203.94
788.616	271.53
788.797	214.18
788.978	228.52
789.159	183.46
789.34	242.85
789.522	162.98
789.703	222.38
789.884	191.66
790.065	210.09
790.246	218.28
790.427	189.61
790.607	228.52
790.788	249
790.969	236.71
791.15	257.19
791.331	234.66
791.512	263.33
791.693	175.27
791.874	160.94
792.054	162.98
792.235	181.42
792.416	179.37
792.597	165.03
792.778	152.74
792.958	179.37
793.139	205.99
793.32	191.66
793.5	158.89
793.681	169.13
793.862	156.84
794.042	179.37
794.223	132.26
794.404	226.47
794.584	220.33
794.765	195.75
794.945	179.37
795.126	187.56
795.306	191.66
795.487	179.37
795.667	99.5
795.848	185.51
796.028	160.94
796.209	148.65
796.389	234.66
796.57	126.12
796.75	150.7
796.93	230.57
797.111	124.07
797.291	173.22
797.471	169.13
797.652	158.89
797.832	62.63
798.012	212.14
798.192	150.7
798.373	146.6
798.553	210.09
798.733	134.31
798.913	119.98
799.093	165.03
799.274	101.55
799.454	181.42
799.634	132.26
799.814	216.23
799.994	146.6
800.174	220.33
800.354	218.28
800.534	95.4
800.714	156.84
800.894	97.45
801.074	177.32
801.254	91.31
801.434	113.83
801.614	152.74
801.794	189.61
801.974	339.11
802.154	93.35
802.334	160.94
802.514	165.03
802.693	68.78
802.873	72.87
803.053	128.17
803.233	162.98
803.413	195.75
803.592	205.99
803.772	132.26
803.952	183.46
804.131	101.55
804.311	156.84
804.491	99.5
804.67	126.12
804.85	132.26
805.03	109.74
805.209	66.73
805.389	50.35
805.568	111.78
805.748	58.54
805.928	103.59
806.107	111.78
806.287	150.7
806.466	160.94
806.646	124.07
806.825	93.35
807.004	126.12
807.184	79.02
807.363	142.5
807.543	54.44
807.722	117.93
807.901	124.07
808.081	99.5
808.26	128.17
808.439	136.36
808.619	105.64
808.798	115.88
808.977	60.59
809.156	165.03
809.336	81.07
809.515	146.6
809.694	148.65
809.873	54.44
810.052	117.93
810.231	144.55
810.411	95.4
810.59	91.31
810.769	74.92
810.948	68.78
811.127	21.67
811.306	117.93
811.485	83.11
811.664	107.69
811.843	175.27
812.022	93.35
812.201	87.21
812.38	146.6
812.559	89.26
812.737	128.17
812.916	140.46
813.095	115.88
813.274	62.63
813.453	132.26
813.632	89.26
813.811	130.22
813.989	81.07
814.168	56.49
814.347	81.07
814.526	52.39
814.704	89.26
814.883	119.98
815.062	40.11
815.24	48.3
815.419	31.91
815.598	124.07
815.776	70.83
815.955	70.83
816.133	38.06
816.312	117.93
816.49	40.11
816.669	173.22
816.847	62.63
817.026	50.35
817.204	87.21
817.383	99.5
817.561	11.43
817.74	66.73
817.918	-9.05
818.097	128.17
818.275	97.45
818.453	79.02
818.632	136.36
818.81	101.55
818.988	27.82
819.167	74.92
819.345	56.49
819.523	54.44
819.701	7.34
819.879	79.02
820.058	70.83
820.236	76.97
820.414	36.01
820.592	38.06
820.77	93.35
820.948	58.54
821.127	122.02
821.305	85.16
821.483	48.3
821.661	46.25
821.839	62.63
822.017	31.91
822.195	87.21
822.373	58.54
822.551	40.11
822.729	56.49
822.907	7.34
823.085	60.59
823.262	23.72
823.44	113.83
823.618	109.74
823.796	66.73
823.974	64.68
824.152	105.64
824.329	56.49
824.507	9.39
824.685	44.2
824.863	64.68
825.04	11.43
825.218	91.31
825.396	138.41
825.574	87.21
825.751	44.2
825.929	103.59
826.107	101.55
826.284	58.54
826.462	66.73
826.639	103.59
826.817	11.43
826.994	42.15
827.172	52.39
827.349	25.77
827.527	27.82
827.704	76.97
827.882	93.35
828.059	31.91
828.237	-45.91
828.414	87.21
828.591	25.77
828.769	107.69
828.946	-33.62
829.124	15.53
829.301	81.07
829.478	83.11
829.655	23.72
829.833	79.02
830.01	25.77
830.187	83.11
830.364	23.72
830.542	58.54
830.719	44.2
830.896	99.5
831.073	52.39
831.25	95.4
831.427	66.73
831.604	81.07
831.782	17.58
831.959	52.39
832.136	15.53
832.313	101.55
832.49	25.77
832.667	15.53
832.844	54.44
833.021	97.45
833.198	54.44
833.374	66.73
833.551	68.78
833.728	27.82
833.905	124.07
834.082	58.54
834.259	81.07
834.436	25.77
834.612	23.72
834.789	62.63
834.966	9.39
835.143	50.35
835.319	74.92
835.496	70.83
835.673	64.68
835.85	13.48
836.026	1.19
836.203	21.67
836.38	-25.43
836.556	54.44
836.733	5.29
836.909	99.5
837.086	60.59
837.262	27.82
837.439	-4.95
837.616	81.07
837.792	52.39
837.968	81.07
838.145	3.24
838.321	36.01
838.498	46.25
838.674	119.98
838.851	72.87
839.027	68.78
839.203	31.91
839.38	11.43
839.556	17.58
839.732	89.26
839.909	36.01
840.085	-9.05
840.261	-19.29
840.437	95.4
840.614	9.39
840.79	29.87
840.966	107.69
841.142	11.43
841.318	58.54
841.494	72.87
841.671	23.72
841.847	40.11
842.023	27.82
842.199	38.06
842.375	60.59
842.551	79.02
842.727	-4.95
842.903	81.07
843.079	-29.52
843.255	89.26
843.431	5.29
843.607	11.43
843.783	-2.9
843.959	40.11
844.134	31.91
844.31	36.01
844.486	13.48
844.662	7.34
844.838	36.01
845.013	-2.9
845.189	33.96
845.365	72.87
845.541	17.58
845.716	40.11
845.892	48.3
846.068	50.35
846.244	-15.19
846.419	33.96
846.595	58.54
846.77	17.58
846.946	17.58
847.122	87.21
847.297	38.06
847.473	83.11
847.648	5.29
847.824	25.77
847.999	21.67
848.175	54.44
848.35	27.82
848.526	122.02
848.701	-37.72
848.876	31.91
849.052	62.63
849.227	3.24
849.403	-19.29
849.578	33.96
849.753	-33.62
849.929	58.54
850.104	99.5
850.279	48.3
850.454	72.87
850.63	52.39
850.805	40.11
850.98	58.54
851.155	-17.24
851.33	-19.29
851.505	-21.33
851.681	89.26
851.856	42.15
852.031	66.73
852.206	19.63
852.381	9.39
852.556	-31.57
852.731	36.01
852.906	-19.29
853.081	-7
853.256	33.96
853.431	50.35
853.606	64.68
853.781	27.82
853.956	-23.38
854.131	44.2
854.305	66.73
854.48	17.58
854.655	40.11
854.83	13.48
855.005	1.19
855.18	64.68
855.354	-21.33
855.529	13.48
855.704	-27.48
855.879	19.63
856.053	-35.67
856.228	23.72
856.403	-39.76
856.577	38.06
856.752	64.68
856.926	50.35
857.101	103.59
857.276	17.58
857.45	76.97
857.625	-0.85
857.799	13.48
857.974	-0.85
858.148	-27.48
858.323	27.82
858.497	9.39
858.672	38.06
858.846	-31.57
859.02	-25.43
859.195	-33.62
859.369	7.34
859.543	-33.62
859.718	107.69
859.892	-15.19
860.066	64.68
860.241	19.63
860.415	42.15
860.589	42.15
860.763	21.67
860.938	5.29
861.112	-2.9
861.286	21.67
861.46	46.25
861.634	3.24
861.808	5.29
861.982	76.97
862.157	44.2
862.331	-76.63
862.505	1.19
862.679	-0.85
862.853	27.82
863.027	9.39
863.201	-31.57
863.375	87.21
863.549	64.68
863.722	64.68
863.896	19.63
864.07	-43.86
864.244	-19.29
864.418	7.34
864.592	5.29
864.766	-35.67
864.939	-7
865.113	19.63
865.287	7.34
865.461	17.58
865.634	17.58
865.808	62.63
865.982	-7
866.156	5.29
866.329	-37.72
866.503	13.48
866.676	48.3
866.85	95.4
867.024	-54.1
867.197	-17.24
867.371	38.06
867.544	23.72
867.718	42.15
867.891	44.2
868.065	44.2
868.238	-13.14
868.412	25.77
868.585	-2.9
868.759	19.63
868.932	11.43
869.105	66.73
869.279	91.31
869.452	33.96
869.625	-31.57
869.799	124.07
869.972	54.44
870.145	17.58
870.319	-13.14
870.492	1.19
870.665	7.34
870.838	-0.85
871.011	7.34
871.185	38.06
871.358	52.39
871.531	48.3
871.704	9.39
871.877	-43.86
872.05	11.43
872.223	72.87
872.396	19.63
872.569	40.11
872.742	-105.3
872.915	-27.48
873.088	17.58
873.261	25.77
873.434	85.16
873.607	72.87
873.78	58.54
873.953	-37.72
874.126	31.91
874.299	60.59
874.471	3.24
874.644	5.29
874.817	11.43
874.99	66.73
875.163	29.87
875.335	38.06
875.508	-82.77
875.681	44.2
875.853	48.3
876.026	42.15
876.199	-7
876.371	-9.05
876.544	31.91
876.717	17.58
876.889	-7
877.062	21.67
877.234	15.53
877.407	31.91
877.579	-27.48
877.752	11.43
877.924	19.63
878.097	74.92
878.269	38.06
878.442	40.11
878.614	66.73
878.786	27.82
878.959	36.01
879.131	21.67
879.303	68.78
879.476	25.77
879.648	-23.38
879.82	44.2
879.993	-66.39
880.165	-17.24
880.337	1.19
880.509	36.01
880.681	52.39
880.854	-17.24
881.026	1.19
881.198	50.35
881.37	44.2
881.542	5.29
881.714	27.82
881.886	-45.91
882.058	36.01
882.23	76.97
882.402	64.68
882.574	-15.19
882.746	-27.48
882.918	111.78
883.09	68.78
883.262	58.54
883.434	44.2
883.606	3.24
883.778	-23.38
883.95	40.11
884.122	-7
884.293	33.96
884.465	-17.24
884.637	36.01
884.809	-25.43
884.98	11.43
885.152	-33.62
885.324	33.96
885.496	42.15
885.667	33.96
885.839	-78.68
886.011	48.3
886.182	64.68
886.354	-2.9
886.525	44.2
886.697	66.73
886.869	7.34
887.04	52.39
887.212	79.02
887.383	36.01
887.555	-4.95
887.726	44.2
887.897	27.82
888.069	40.11
888.24	9.39
888.412	-66.39
888.583	29.87
888.754	79.02
888.926	48.3
889.097	-15.19
889.268	-29.52
889.44	5.29
889.611	-21.33
889.782	-11.09
889.953	-39.76
890.125	42.15
890.296	-0.85
890.467	46.25
890.638	-31.57
890.809	-25.43
890.98	42.15
891.151	95.4
891.323	-25.43
891.494	27.82
891.665	25.77
891.836	7.34
892.007	-11.09
892.178	-7
892.349	44.2
892.52	-11.09
892.691	-11.09
892.862	13.48
893.032	-9.05
893.203	48.3
893.374	-11.09
893.545	44.2
893.716	-11.09
893.887	-17.24
894.057	27.82
894.228	42.15
894.399	-15.19
894.57	21.67
894.74	-17.24
894.911	-9.05
895.082	-35.67
895.253	38.06
895.423	-23.38
895.594	-43.86
895.764	103.59
895.935	-0.85
896.106	31.91
896.276	42.15
896.447	68.78
896.617	15.53
896.788	13.48
896.958	54.44
897.129	-25.43
897.299	36.01
897.47	-7
897.64	-4.95
897.81	-2.9
897.981	1.19
898.151	-9.05
898.322	7.34
898.492	-37.72
898.662	-56.15
898.832	36.01
899.003	-23.38
899.173	21.67
899.343	64.68
899.513	-2.9
