Data from USB4F104151__214__14-00-02-884.txt Node

Date: Thu Mar 13 14:00:02 EDT 2025
User: louis
Spectrometer: USB4F10415
Trigger mode: 4
Integration Time (sec): 1.000000E-2
Scans to average: 1
Electric dark correction enabled: true
Nonlinearity correction enabled: false
Boxcar width: 0
XAxis mode: Wavelengths
Number of Pixels in Spectrum: 3648
>>>>>Begin Spectral Data<<<<<
178.204	-58.54
178.424	-58.54
178.644	-58.54
178.864	-44.2
179.084	19.29
179.304	-29.87
179.524	41.81
179.744	-40.11
179.964	21.33
180.184	-5.29
180.404	27.48
180.624	21.33
180.844	23.38
181.064	-25.77
181.283	-27.82
181.503	29.52
181.723	-36.01
181.943	-11.43
182.163	23.38
182.383	15.19
182.602	-9.39
182.822	52.05
183.042	31.57
183.262	17.24
183.482	15.19
183.701	-5.29
183.921	-17.58
184.141	7
184.361	19.29
184.58	2.9
184.8	9.05
185.02	33.62
185.239	58.2
185.459	43.86
185.679	11.09
185.898	33.62
186.118	68.44
186.338	43.86
186.557	47.96
186.777	19.29
186.997	39.76
187.216	-17.58
187.436	50
187.655	27.48
187.875	76.63
188.095	4.95
188.314	23.38
188.534	-56.49
188.753	15.19
188.973	-27.82
189.192	23.38
189.412	41.81
189.631	11.09
189.851	-60.59
190.07	-7.34
190.29	52.05
190.509	7
190.729	-76.97
190.948	115.54
191.168	15.19
191.387	121.68
191.607	27.48
191.826	0.85
192.045	82.77
192.265	-50.35
192.484	47.96
192.704	-19.63
192.923	29.52
193.142	45.91
193.362	-36.01
193.581	17.24
193.8	15.19
194.02	88.92
194.239	15.19
194.458	64.34
194.678	17.24
194.897	15.19
195.116	-38.06
195.335	56.15
195.555	-7.34
195.774	17.24
195.993	70.48
196.212	27.48
196.432	-25.77
196.651	13.14
196.87	-36.01
197.089	64.34
197.308	115.54
197.528	58.2
197.747	86.87
197.966	74.58
198.185	66.39
198.404	7
198.623	9.05
198.842	-52.39
199.062	15.19
199.281	64.34
199.5	52.05
199.719	43.86
199.938	45.91
200.157	35.67
200.376	-29.87
200.595	99.16
200.814	78.68
201.033	23.38
201.252	41.81
201.471	29.52
201.69	74.58
201.909	-1.19
202.128	27.48
202.347	45.91
202.566	33.62
202.785	33.62
203.004	62.29
203.223	-25.77
203.442	19.29
203.661	97.11
203.879	-15.53
204.098	23.38
204.317	15.19
204.536	58.2
204.755	58.2
204.974	64.34
205.193	-19.63
205.411	45.91
205.63	88.92
205.849	93.01
206.068	0.85
206.287	21.33
206.505	117.59
206.724	-21.67
206.943	41.81
207.162	23.38
207.381	23.38
207.599	39.76
207.818	60.24
208.037	76.63
208.255	31.57
208.474	-7.34
208.693	52.05
208.911	62.29
209.13	-42.15
209.349	74.58
209.567	31.57
209.786	56.15
210.005	19.29
210.223	111.44
210.442	37.72
210.661	4.95
210.879	-15.53
211.098	47.96
211.316	-3.24
211.535	29.52
211.753	58.2
211.972	58.2
212.191	29.52
212.409	58.2
212.628	56.15
212.846	4.95
213.065	25.43
213.283	56.15
213.502	0.85
213.72	-9.39
213.938	13.14
214.157	27.48
214.375	21.33
214.594	-1.19
214.812	11.09
215.031	-5.29
215.249	-9.39
215.467	88.92
215.686	58.2
215.904	11.09
216.122	88.92
216.341	52.05
216.559	50
216.778	76.63
216.996	17.24
217.214	43.86
217.432	-5.29
217.651	-38.06
217.869	-1.19
218.087	-17.58
218.306	-5.29
218.524	23.38
218.742	17.24
218.96	43.86
219.179	13.14
219.397	9.05
219.615	58.2
219.833	0.85
220.051	113.49
220.27	23.38
220.488	64.34
220.706	72.53
220.924	60.24
221.142	54.1
221.36	47.96
221.578	-29.87
221.796	64.34
222.015	4.95
222.233	17.24
222.451	113.49
222.669	66.39
222.887	68.44
223.105	7
223.323	-19.63
223.541	-27.82
223.759	93.01
223.977	66.39
224.195	47.96
224.413	50
224.631	-11.43
224.849	47.96
225.067	4.95
225.285	33.62
225.503	33.62
225.721	107.35
225.939	4.95
226.157	17.24
226.375	105.3
226.592	70.48
226.81	-1.19
227.028	60.24
227.246	88.92
227.464	33.62
227.682	56.15
227.9	33.62
228.117	80.72
228.335	95.06
228.553	19.29
228.771	103.25
228.989	-40.11
229.206	97.11
229.424	23.38
229.642	37.72
229.86	60.24
230.077	68.44
230.295	-52.39
230.513	21.33
230.731	76.63
230.948	19.29
231.166	99.16
231.384	47.96
231.601	138.07
231.819	101.2
232.037	9.05
232.254	15.19
232.472	60.24
232.689	-7.34
232.907	52.05
233.125	-7.34
233.342	37.72
233.56	-48.3
233.777	88.92
233.995	33.62
234.213	45.91
234.43	64.34
234.648	88.92
234.865	50
235.083	33.62
235.3	4.95
235.518	-5.29
235.735	52.05
235.953	0.85
236.17	11.09
236.388	-7.34
236.605	31.57
236.822	76.63
237.04	52.05
237.257	7
237.475	66.39
237.692	31.57
237.909	17.24
238.127	47.96
238.344	-52.39
238.562	60.24
238.779	-9.39
238.996	64.34
239.214	9.05
239.431	9.05
239.648	27.48
239.865	-11.43
240.083	39.76
240.3	82.77
240.517	74.58
240.735	9.05
240.952	121.68
241.169	66.39
241.386	41.81
241.603	31.57
241.821	-27.82
242.038	45.91
242.255	66.39
242.472	39.76
242.689	19.29
242.907	90.96
243.124	103.25
243.341	7
243.558	66.39
243.775	9.05
243.992	31.57
244.209	-21.67
244.426	80.72
244.643	27.48
244.86	-21.67
245.078	0.85
245.295	70.48
245.512	80.72
245.729	-46.25
245.946	29.52
246.163	-27.82
246.38	-50.35
246.597	41.81
246.814	31.57
247.031	47.96
247.248	64.34
247.464	23.38
247.681	4.95
247.898	-40.11
248.115	29.52
248.332	39.76
248.549	66.39
248.766	-5.29
248.983	58.2
249.2	-15.53
249.417	105.3
249.633	56.15
249.85	64.34
250.067	88.92
250.284	11.09
250.501	11.09
250.717	21.33
250.934	80.72
251.151	43.86
251.368	7
251.585	72.53
251.801	31.57
252.018	7
252.235	66.39
252.451	45.91
252.668	37.72
252.885	25.43
253.102	-13.48
253.318	23.38
253.535	31.57
253.752	31.57
253.968	13.14
254.185	25.43
254.401	7
254.618	31.57
254.835	-5.29
255.051	74.58
255.268	56.15
255.484	31.57
255.701	21.33
255.917	17.24
256.134	-27.82
256.351	82.77
256.567	19.29
256.784	109.4
257	-38.06
257.217	105.3
257.433	66.39
257.65	50
257.866	-17.58
258.082	2.9
258.299	-23.72
258.515	27.48
258.732	52.05
258.948	56.15
259.165	-19.63
259.381	70.48
259.597	11.09
259.814	9.05
260.03	33.62
260.246	19.29
260.463	2.9
260.679	-21.67
260.895	23.38
261.112	72.53
261.328	64.34
261.544	99.16
261.761	66.39
261.977	-48.3
262.193	-33.96
262.409	74.58
262.626	64.34
262.842	35.67
263.058	15.19
263.274	117.59
263.49	80.72
263.707	60.24
263.923	19.29
264.139	-31.91
264.355	29.52
264.571	2.9
264.787	33.62
265.004	-25.77
265.22	23.38
265.436	7
265.652	-21.67
265.868	17.24
266.084	39.76
266.3	50
266.516	50
266.732	37.72
266.948	50
267.164	-21.67
267.38	33.62
267.596	52.05
267.812	56.15
268.028	45.91
268.244	80.72
268.46	68.44
268.676	60.24
268.892	80.72
269.108	-3.24
269.324	62.29
269.54	27.48
269.756	72.53
269.972	74.58
270.188	45.91
270.403	25.43
270.619	123.73
270.835	-50.35
271.051	66.39
271.267	33.62
271.483	129.88
271.698	0.85
271.914	64.34
272.13	-23.72
272.346	56.15
272.562	-9.39
272.777	111.44
272.993	-3.24
273.209	9.05
273.425	54.1
273.64	11.09
273.856	15.19
274.072	68.44
274.287	-1.19
274.503	29.52
274.719	27.48
274.934	105.3
275.15	33.62
275.366	64.34
275.581	15.19
275.797	68.44
276.012	45.91
276.228	7
276.444	15.19
276.659	95.06
276.875	33.62
277.09	33.62
277.306	37.72
277.521	29.52
277.737	15.19
277.952	70.48
278.168	76.63
278.383	66.39
278.599	-50.35
278.814	2.9
279.03	-29.87
279.245	17.24
279.461	33.62
279.676	29.52
279.892	0.85
280.107	72.53
280.322	-11.43
280.538	80.72
280.753	31.57
280.969	17.24
281.184	74.58
281.399	56.15
281.615	-23.72
281.83	-5.29
282.045	-25.77
282.26	19.29
282.476	33.62
282.691	45.91
282.906	52.05
283.122	39.76
283.337	41.81
283.552	74.58
283.767	105.3
283.983	31.57
284.198	-1.19
284.413	52.05
284.628	29.52
284.843	72.53
285.058	25.43
285.274	-3.24
285.489	29.52
285.704	80.72
285.919	-19.63
286.134	33.62
286.349	2.9
286.564	27.48
286.779	62.29
286.995	-29.87
287.21	9.05
287.425	50
287.64	23.38
287.855	56.15
288.07	47.96
288.285	62.29
288.5	-33.96
288.715	11.09
288.93	60.24
289.145	88.92
289.36	35.67
289.575	-5.29
289.79	72.53
290.004	11.09
290.219	41.81
290.434	54.1
290.649	23.38
290.864	11.09
291.079	4.95
291.294	74.58
291.509	64.34
291.724	39.76
291.938	82.77
292.153	58.2
292.368	-25.77
292.583	54.1
292.798	-3.24
293.012	103.25
293.227	13.14
293.442	105.3
293.657	64.34
293.871	27.48
294.086	66.39
294.301	11.09
294.516	43.86
294.73	101.2
294.945	70.48
295.16	86.87
295.374	47.96
295.589	172.88
295.804	88.92
296.018	64.34
296.233	54.1
296.447	-5.29
296.662	23.38
296.877	90.96
297.091	25.43
297.306	23.38
297.52	-15.53
297.735	7
297.949	21.33
298.164	-11.43
298.378	62.29
298.593	111.44
298.807	64.34
299.022	60.24
299.236	41.81
299.451	39.76
299.665	7
299.88	68.44
300.094	93.01
300.309	43.86
300.523	7
300.737	21.33
300.952	39.76
301.166	60.24
301.381	88.92
301.595	152.4
301.809	66.39
302.024	90.96
302.238	31.57
302.452	54.1
302.667	93.01
302.881	27.48
303.095	52.05
303.309	109.4
303.524	21.33
303.738	2.9
303.952	39.76
304.166	56.15
304.381	0.85
304.595	7
304.809	50
305.023	25.43
305.237	41.81
305.452	21.33
305.666	43.86
305.88	50
306.094	31.57
306.308	60.24
306.522	82.77
306.736	-9.39
306.95	-1.19
307.164	23.38
307.379	15.19
307.593	64.34
307.807	80.72
308.021	80.72
308.235	123.73
308.449	56.15
308.663	95.06
308.877	70.48
309.091	-13.48
309.305	25.43
309.519	50
309.733	68.44
309.947	-3.24
310.161	-5.29
310.374	105.3
310.588	29.52
310.802	68.44
311.016	90.96
311.23	58.2
311.444	27.48
311.658	37.72
311.872	2.9
312.085	-13.48
312.299	58.2
312.513	39.76
312.727	76.63
312.941	25.43
313.154	39.76
313.368	39.76
313.582	52.05
313.796	125.78
314.009	-21.67
314.223	88.92
314.437	62.29
314.651	125.78
314.864	66.39
315.078	90.96
315.292	93.01
315.505	-38.06
315.719	-9.39
315.933	64.34
316.146	29.52
316.36	70.48
316.573	68.44
316.787	45.91
317.001	93.01
317.214	-9.39
317.428	43.86
317.641	29.52
317.855	50
318.068	56.15
318.282	43.86
318.495	88.92
318.709	97.11
318.922	-50.35
319.136	17.24
319.349	43.86
319.563	-1.19
319.776	107.35
319.99	-15.53
320.203	21.33
320.417	41.81
320.63	43.86
320.843	50
321.057	54.1
321.27	54.1
321.483	4.95
321.697	66.39
321.91	41.81
322.124	76.63
322.337	58.2
322.55	50
322.763	47.96
322.977	-54.44
323.19	23.38
323.403	-9.39
323.617	33.62
323.83	47.96
324.043	113.49
324.256	50
324.469	82.77
324.683	27.48
324.896	76.63
325.109	78.68
325.322	9.05
325.535	17.24
325.748	27.48
325.962	93.01
326.175	4.95
326.388	47.96
326.601	21.33
326.814	19.29
327.027	27.48
327.24	47.96
327.453	21.33
327.666	-1.19
327.879	23.38
328.092	93.01
328.305	109.4
328.518	7
328.731	31.57
328.944	88.92
329.157	41.81
329.37	54.1
329.583	35.67
329.796	45.91
330.009	88.92
330.222	76.63
330.435	17.24
330.648	7
330.861	-9.39
331.073	66.39
331.286	80.72
331.499	133.97
331.712	31.57
331.925	39.76
332.138	74.58
332.35	7
332.563	29.52
332.776	64.34
332.989	84.82
333.202	154.45
333.414	7
333.627	66.39
333.84	43.86
334.053	43.86
334.265	60.24
334.478	-9.39
334.691	95.06
334.903	47.96
335.116	43.86
335.329	0.85
335.541	19.29
335.754	-23.72
335.966	39.76
336.179	50
336.392	-15.53
336.604	31.57
336.817	82.77
337.029	9.05
337.242	29.52
337.454	84.82
337.667	99.16
337.88	39.76
338.092	64.34
338.305	113.49
338.517	-42.15
338.729	47.96
338.942	43.86
339.154	64.34
339.367	86.87
339.579	56.15
339.792	68.44
340.004	123.73
340.217	88.92
340.429	13.14
340.641	74.58
340.854	115.54
341.066	41.81
341.278	-21.67
341.491	23.38
341.703	37.72
341.915	56.15
342.128	60.24
342.34	-38.06
342.552	41.81
342.764	-7.34
342.977	88.92
343.189	72.53
343.401	33.62
343.613	39.76
343.826	21.33
344.038	-5.29
344.25	33.62
344.462	25.43
344.674	27.48
344.886	19.29
345.099	74.58
345.311	84.82
345.523	45.91
345.735	-21.67
345.947	0.85
346.159	62.29
346.371	76.63
346.583	56.15
346.795	-36.01
347.007	95.06
347.219	99.16
347.431	41.81
347.643	72.53
347.855	50
348.067	125.78
348.279	29.52
348.491	99.16
348.703	-3.24
348.915	78.68
349.127	43.86
349.339	82.77
349.551	50
349.763	146.26
349.975	9.05
350.187	70.48
350.399	-9.39
350.61	72.53
350.822	68.44
351.034	9.05
351.246	138.07
351.458	66.39
351.669	-21.67
351.881	31.57
352.093	9.05
352.305	127.83
352.517	54.1
352.728	17.24
352.94	74.58
353.152	47.96
353.363	-1.19
353.575	82.77
353.787	45.91
353.999	15.19
354.21	41.81
354.422	50
354.633	2.9
354.845	-27.82
355.057	54.1
355.268	86.87
355.48	43.86
355.692	64.34
355.903	99.16
356.115	45.91
356.326	37.72
356.538	105.3
356.749	80.72
356.961	97.11
357.172	50
357.384	80.72
357.595	86.87
357.807	43.86
358.018	21.33
358.23	64.34
358.441	66.39
358.653	7
358.864	29.52
359.075	58.2
359.287	39.76
359.498	29.52
359.709	15.19
359.921	25.43
360.132	-1.19
360.344	74.58
360.555	23.38
360.766	80.72
360.977	52.05
361.189	45.91
361.4	66.39
361.611	0.85
361.823	19.29
362.034	109.4
362.245	74.58
362.456	74.58
362.667	33.62
362.879	54.1
363.09	50
363.301	103.25
363.512	33.62
363.723	27.48
363.935	-13.48
364.146	72.53
364.357	113.49
364.568	97.11
364.779	23.38
364.99	72.53
365.201	97.11
365.412	95.06
365.623	11.09
365.834	64.34
366.045	60.24
366.256	58.2
366.467	84.82
366.678	39.76
366.889	95.06
367.1	-7.34
367.311	-1.19
367.522	50
367.733	62.29
367.944	117.59
368.155	58.2
368.366	66.39
368.577	64.34
368.788	47.96
368.999	21.33
369.209	90.96
369.42	72.53
369.631	35.67
369.842	21.33
370.053	13.14
370.264	88.92
370.474	23.38
370.685	-25.77
370.896	66.39
371.107	13.14
371.317	80.72
371.528	72.53
371.739	64.34
371.95	105.3
372.16	27.48
372.371	37.72
372.582	72.53
372.792	103.25
373.003	-1.19
373.214	72.53
373.424	76.63
373.635	60.24
373.846	88.92
374.056	97.11
374.267	-5.29
374.477	43.86
374.688	0.85
374.898	119.64
375.109	15.19
375.319	138.07
375.53	97.11
375.74	43.86
375.951	33.62
376.161	27.48
376.372	21.33
376.582	27.48
376.793	78.68
377.003	33.62
377.214	41.81
377.424	84.82
377.635	33.62
377.845	60.24
378.055	97.11
378.266	47.96
378.476	123.73
378.686	19.29
378.897	39.76
379.107	78.68
379.317	62.29
379.528	27.48
379.738	64.34
379.948	88.92
380.158	66.39
380.369	50
380.579	146.26
380.789	50
380.999	82.77
381.21	72.53
381.42	109.4
381.63	50
381.84	84.82
382.05	41.81
382.261	7
382.471	76.63
382.681	105.3
382.891	103.25
383.101	33.62
383.311	33.62
383.521	43.86
383.731	29.52
383.941	27.48
384.151	88.92
384.361	107.35
384.571	93.01
384.781	119.64
384.991	113.49
385.201	90.96
385.411	138.07
385.621	66.39
385.831	39.76
386.041	60.24
386.251	154.45
386.461	60.24
386.671	25.43
386.881	72.53
387.091	66.39
387.301	95.06
387.511	29.52
387.72	56.15
387.93	68.44
388.14	25.43
388.35	35.67
388.56	80.72
388.769	80.72
388.979	52.05
389.189	-5.29
389.399	111.44
389.609	39.76
389.818	41.81
390.028	82.77
390.238	50
390.447	4.95
390.657	109.4
390.867	88.92
391.076	33.62
391.286	99.16
391.496	21.33
391.705	50
391.915	76.63
392.125	74.58
392.334	68.44
392.544	54.1
392.753	101.2
392.963	125.78
393.172	29.52
393.382	45.91
393.591	50
393.801	162.64
394.01	131.92
394.22	41.81
394.429	43.86
394.639	64.34
394.848	107.35
395.058	88.92
395.267	99.16
395.477	107.35
395.686	25.43
395.895	64.34
396.105	195.41
396.314	90.96
396.524	99.16
396.733	17.24
396.942	58.2
397.152	54.1
397.361	66.39
397.57	95.06
397.78	109.4
397.989	45.91
398.198	99.16
398.407	115.54
398.617	123.73
398.826	148.31
399.035	107.35
399.244	50
399.453	9.05
399.663	47.96
399.872	109.4
400.081	84.82
400.29	156.5
400.499	88.92
400.708	113.49
400.917	154.45
401.127	133.97
401.336	160.59
401.545	187.22
401.754	97.11
401.963	97.11
402.172	129.88
402.381	166.74
402.59	109.4
402.799	140.12
403.008	148.31
403.217	121.68
403.426	90.96
403.635	133.97
403.844	142.16
404.053	93.01
404.262	90.96
404.471	150.36
404.68	154.45
404.888	185.17
405.097	103.25
405.306	142.16
405.515	144.21
405.724	105.3
405.933	172.88
406.142	162.64
406.35	119.64
406.559	138.07
406.768	252.75
406.977	199.51
407.185	158.55
407.394	219.99
407.603	230.23
407.812	277.33
408.02	219.99
408.229	236.37
408.438	226.13
408.646	197.46
408.855	232.27
409.064	232.27
409.272	254.8
409.481	316.24
409.69	248.66
409.898	303.95
410.107	254.8
410.315	299.86
410.524	195.41
410.733	293.71
410.941	297.81
411.15	338.77
411.358	291.66
411.567	295.76
411.775	334.67
411.984	385.87
412.192	349.01
412.401	346.96
412.609	422.73
412.818	426.83
413.026	420.69
413.234	439.12
413.443	375.63
413.651	500.56
413.86	467.79
414.068	527.18
414.276	506.7
414.485	514.89
414.693	578.38
414.901	492.37
415.11	629.58
415.318	576.33
415.526	592.72
415.734	660.3
415.943	691.02
416.151	785.23
416.359	799.56
416.567	731.98
416.776	744.27
416.984	805.71
417.192	934.73
417.4	850.76
417.608	817.99
417.817	867.14
418.025	861
418.233	1006.41
418.441	975.69
418.649	1035.08
418.857	947.01
419.065	1084.23
419.273	1057.61
419.481	1164.1
419.689	1215.3
419.897	1266.5
420.105	1289.03
420.313	1352.51
420.521	1375.04
420.729	1379.14
420.937	1448.77
421.145	1573.69
421.353	1444.67
421.561	1698.62
421.769	1542.97
421.977	1735.48
422.185	1727.29
422.393	1801.02
422.601	1860.41
422.809	1944.38
423.017	1913.66
423.224	1973.05
423.432	2108.21
423.64	1997.62
423.848	2276.15
424.056	2132.79
424.263	2353.97
424.471	2411.31
424.679	2382.64
424.887	2581.29
425.094	2671.4
425.302	2622.25
425.51	2693.93
425.718	2890.54
425.925	2669.36
426.133	2880.3
426.341	3081
426.548	3224.36
426.756	3146.53
426.964	3316.51
427.171	3441.44
427.379	3611.42
427.586	3599.13
427.794	3752.73
428.001	3810.08
428.209	4090.65
428.417	3947.29
428.624	4283.16
428.832	4240.15
429.039	4236.05
429.247	4209.43
429.454	4672.27
429.662	4893.45
429.869	4655.89
430.076	5004.04
430.284	4705.04
430.491	4963.08
430.699	5182.21
430.906	5274.37
431.114	5423.87
431.321	5468.93
431.528	5823.23
431.736	6060.79
431.943	6236.92
432.15	6140.66
432.358	6259.45
432.565	6599.41
432.772	6527.73
432.979	6841.07
433.187	6855.4
433.394	7095.02
433.601	7602.91
433.808	7574.24
434.016	7308.01
434.223	7768.8
434.43	8424.15
434.637	8133.34
434.844	8549.07
435.052	8592.08
435.259	8667.86
435.466	8788.69
435.673	8674
435.88	9288.39
436.087	9810.62
436.294	9812.67
436.501	9417.41
436.708	9616.07
436.915	10314.42
437.122	10468.02
437.329	10422.97
437.537	10726.07
437.743	10955.44
437.95	10648.24
438.157	11389.61
438.364	11748
438.571	11641.51
438.778	11825.82
438.985	12921.49
439.192	12362.39
439.399	12710.55
439.606	12745.36
439.813	13251.21
440.02	13892.23
440.227	13896.32
440.433	13709.96
440.64	13988.48
440.847	14301.82
441.054	14572.15
441.261	15043.18
441.467	15327.85
441.674	15485.55
441.881	16075.36
442.088	16138.85
442.294	15864.42
442.501	16171.61
442.708	16743
442.914	17359.44
443.121	17709.64
443.328	17564.23
443.534	18633.27
443.741	18070.08
443.948	17922.63
444.154	18930.23
444.361	18977.33
444.568	19128.88
444.774	19171.89
444.981	19362.35
445.187	19925.54
445.394	20888.09
445.6	20527.64
445.807	22315.52
446.013	21549.58
446.22	22227.46
446.426	22751.74
446.633	22999.54
446.839	23966.18
447.046	22766.07
447.252	24127.97
447.459	24140.26
447.665	23986.66
447.871	25102.81
448.078	26034.63
448.284	24984.02
448.491	25530.83
448.697	26794.43
448.903	27265.46
449.11	27201.97
449.316	26495.43
449.522	27220.41
449.728	27922.86
449.935	28066.22
450.141	28203.43
450.347	28598.69
450.553	27691.44
450.76	28191.14
450.966	29155.74
451.172	28811.68
451.378	29411.73
451.584	28639.65
451.791	29735.31
451.997	29559.19
452.203	30013.84
452.409	30050.7
452.615	29718.93
452.821	28463.52
453.027	28389.8
453.233	29987.21
453.44	28707.23
453.646	29215.13
453.852	29288.85
454.058	29665.68
454.264	28656.03
454.47	29407.64
454.676	28871.07
454.882	29655.44
455.088	26659.26
455.294	27527.6
455.5	27867.56
455.705	27771.31
455.911	26937.79
456.117	26192.33
456.323	26042.82
456.529	24869.34
456.735	25878.99
456.941	25420.24
457.147	24811.99
457.352	23878.12
457.558	23583.21
457.764	23489.01
457.97	23280.11
458.176	22641.15
458.381	22804.99
458.587	21611.02
458.793	21811.72
458.999	20883.99
459.204	22407.68
459.41	21447.18
459.616	19913.25
459.821	20419.1
460.027	20374.05
460.233	19329.58
460.438	18645.56
460.644	19016.24
460.85	17936.96
461.055	17988.16
461.261	17750.6
461.466	16265.82
461.672	15884.9
461.878	16869.97
462.083	15891.04
462.289	15647.33
462.494	15493.74
462.7	14760.56
462.905	14523
463.111	15100.53
463.316	15047.28
463.522	14828.15
463.727	14959.22
463.932	14568.06
464.138	14840.43
464.343	14813.81
464.549	14199.42
464.754	14580.34
464.959	14598.77
465.165	14271.1
465.37	14031.49
465.575	13701.76
465.781	14017.15
465.986	14080.64
466.191	13658.76
466.397	13333.13
466.602	12872.34
466.807	13474.44
467.012	13249.16
467.218	13144.72
467.423	12995.22
467.628	12980.88
467.833	13677.19
468.038	13095.57
468.244	12853.91
468.449	13189.77
468.654	12698.26
468.859	12710.55
469.064	12720.79
469.269	12057.25
469.474	12335.77
469.679	12505.75
469.885	12341.91
470.09	12380.82
470.295	12114.59
470.5	11958.94
470.705	11940.51
470.91	11887.26
471.115	11596.45
471.32	11821.73
471.525	11748
471.73	11487.91
471.935	11518.63
472.139	11020.97
472.344	11141.8
472.549	11276.97
472.754	11053.74
472.959	10709.68
473.164	10492.6
473.369	10498.74
473.574	10824.37
473.778	10756.79
473.983	10664.63
474.188	10347.19
474.393	9990.84
474.598	9898.69
474.802	10060.48
475.007	9853.63
475.212	9884.35
475.417	9753.28
475.621	9466.56
475.826	9616.07
476.031	9732.8
476.235	9214.66
476.44	9521.86
476.645	9339.59
476.849	9181.9
477.054	9190.09
477.259	9095.88
477.463	8950.48
477.668	8839.89
477.872	8833.74
478.077	8766.16
478.282	8458.96
478.486	8483.54
478.691	8370.9
478.895	8432.34
479.1	8315.61
479.304	8250.07
479.509	8075.99
479.713	8262.36
479.918	8088.28
480.122	8073.95
480.326	8184.54
480.531	8116.95
480.735	8002.27
480.94	8026.84
481.144	8116.95
481.348	7813.85
481.553	7901.92
481.757	7793.37
481.961	7932.64
482.166	7914.2
482.37	7860.96
482.574	7682.78
482.778	7658.21
482.983	7955.16
483.187	7891.68
483.391	7721.7
483.595	7670.5
483.8	7621.35
484.004	7746.27
484.208	7832.29
484.412	7598.82
484.616	7858.91
484.821	7781.09
485.025	7750.37
485.229	7742.18
485.433	7807.71
485.637	7566.05
485.841	7822.05
486.045	7609.06
486.249	7684.83
486.453	7568.1
486.657	7662.3
486.861	7916.25
487.065	7594.72
487.269	7822.05
487.473	7662.3
487.677	7736.03
487.881	7926.49
488.085	7633.63
488.289	7840.48
488.493	7795.42
488.697	7887.58
488.901	7873.25
489.105	7738.08
489.309	7879.39
489.512	7881.44
489.716	7983.84
489.92	7865.05
490.124	7846.62
490.328	7942.88
490.531	7944.92
490.735	7946.97
490.939	8116.95
491.143	8188.63
491.346	8004.32
491.55	8182.49
491.754	8153.82
491.958	8278.74
492.161	8295.13
492.365	8331.99
492.569	8209.11
492.772	8413.91
492.976	8420.05
493.18	8536.79
493.383	8448.72
493.587	8747.73
493.79	8612.56
493.994	8698.58
494.197	8772.3
494.401	8712.91
494.605	8577.75
494.808	8721.1
495.012	9161.42
495.215	9226.95
495.419	9116.36
495.622	9128.65
495.825	9061.07
496.029	9495.24
496.232	9560.77
496.436	9323.21
496.639	9986.75
496.843	9513.67
497.046	10052.28
497.249	9908.93
497.453	10132.15
497.656	10216.12
497.859	9980.61
498.063	10308.28
498.266	10527.41
498.469	10474.17
498.673	10676.91
498.876	10709.68
499.079	10894
499.282	10877.62
499.485	11307.69
499.689	11367.08
499.892	11465.38
500.095	11561.64
500.298	11819.68
500.501	11672.23
500.705	11977.37
500.908	12098.2
501.111	12120.73
501.314	12515.99
501.517	12444.31
501.72	12509.85
501.923	12640.92
502.126	12911.25
502.329	13177.48
502.532	13077.13
502.735	13290.12
502.938	13757.06
503.141	13822.59
503.344	13877.89
503.547	14011.01
503.75	14455.42
503.953	14432.89
504.156	14869.11
504.359	14735.99
504.562	14951.03
504.765	15221.36
504.968	15678.05
505.17	15538.79
505.373	15596.14
505.576	16048.74
505.779	16278.11
505.982	16298.59
506.185	16534.11
506.387	16462.43
506.59	16921.17
506.793	17248.85
506.996	17572.43
507.198	17836.61
507.401	17887.81
507.604	18008.64
507.807	18401.85
508.009	18512.44
508.212	18745.91
508.415	18895.41
508.617	19343.92
508.82	19245.62
509.022	19386.93
509.225	19853.86
509.428	20265.5
509.63	20552.22
509.833	20482.59
510.035	21043.73
510.238	20847.13
510.44	21449.23
510.643	21631.5
510.845	21854.73
511.048	21760.52
511.25	22317.57
511.453	22534.65
511.655	23269.87
511.858	23370.22
512.06	23218.68
512.262	23519.73
512.465	23771.63
512.667	24130.02
512.87	24474.08
513.072	24637.92
513.274	25119.19
513.477	25418.19
513.679	25559.5
513.881	26065.35
514.084	26040.78
514.286	26253.76
514.488	26536.38
514.69	27539.89
514.893	27554.22
515.095	27500.98
515.297	28070.31
515.499	28127.66
515.701	28531.11
515.904	28813.73
516.106	29178.26
516.308	29542.8
516.51	30042.51
516.712	30122.38
516.914	30484.87
517.116	30949.76
517.318	30912.89
517.52	31443.32
517.722	31490.42
517.925	32131.44
518.127	32258.41
518.329	32657.76
518.531	32751.97
518.733	33016.16
518.935	33689.94
519.136	33532.25
519.338	34339.15
519.54	34216.27
519.742	34943.3
519.944	35080.51
520.146	35561.78
520.348	36137.26
520.55	35932.47
520.752	36186.41
520.954	36688.17
521.155	36634.92
521.357	37196.06
521.559	37476.63
521.761	37982.48
521.963	38007.06
522.164	38240.53
522.366	38590.73
522.568	38746.37
522.77	38988.03
522.971	39913.72
523.173	39436.54
523.375	40001.78
523.576	40077.55
523.778	40214.77
523.98	40921.32
524.181	41083.11
524.383	41226.46
524.584	41853.14
524.786	41918.68
524.988	41507.04
525.189	42293.46
525.391	42275.02
525.592	42674.38
525.794	42684.62
525.995	42885.32
526.197	42991.81
526.398	43126.98
526.6	43274.43
526.801	43909.3
527.003	44423.34
527.204	44370.1
527.406	44314.8
527.607	44396.72
527.808	44875.94
528.01	44019.89
528.211	44605.61
528.412	45351.07
528.614	45103.27
528.815	45158.56
529.016	45457.57
529.218	45408.42
529.419	45871.26
529.62	45820.06
529.822	45662.36
530.023	45795.48
530.224	45848.73
530.425	46149.78
530.626	45566.11
530.828	45830.3
531.029	46751.88
531.23	45930.65
531.431	46114.97
531.632	46377.11
531.833	46784.65
532.035	46495.89
532.236	46694.54
532.437	46862.47
532.638	46354.58
532.839	46903.43
533.04	47331.46
533.241	46864.52
533.442	47267.97
533.643	47310.98
533.844	47138.95
534.045	46971.02
534.246	46803.08
534.447	47868.03
534.648	47018.12
534.849	47343.75
535.05	46823.56
535.251	47149.19
535.451	46977.16
535.652	47063.18
535.853	46827.66
536.054	47491.2
536.255	47294.6
536.456	46962.82
536.657	47800.44
536.857	47288.45
537.058	47222.92
537.259	47775.87
537.46	47550.59
537.66	47376.51
537.861	47493.25
538.062	47313.03
538.263	47882.36
538.463	47310.98
538.664	47609.98
538.865	47614.08
539.065	47732.86
539.266	47372.42
539.466	47599.74
539.667	47034.5
539.868	47822.97
540.068	47575.17
540.269	47380.61
540.469	47724.67
540.67	47384.71
540.87	47712.38
541.071	47300.74
541.271	47638.65
541.472	47263.88
541.672	47552.64
541.873	47095.94
542.073	46850.19
542.274	47743.1
542.474	47489.15
542.675	47052.94
542.875	47296.64
543.075	47241.35
543.276	46712.97
543.476	47765.63
543.676	47190.15
543.877	47470.72
544.077	47052.94
544.277	47386.75
544.478	47132.81
544.678	47376.51
544.878	46975.11
545.078	47599.74
545.279	46977.16
545.479	47065.22
545.679	47460.48
545.879	47650.94
546.079	47454.34
546.28	46956.68
546.48	47124.61
546.68	47257.73
546.88	47130.76
547.08	47202.44
547.28	47038.6
547.48	46950.54
547.68	47386.75
547.88	46950.54
548.081	47696
548.281	47431.81
548.481	46919.82
548.681	47313.03
548.881	47566.98
549.081	47073.42
549.28	46940.3
549.48	47276.16
549.68	47147.14
549.88	47440
550.08	47067.27
550.28	47386.75
550.48	46958.73
550.68	47536.26
550.88	47081.61
551.08	47052.94
551.279	47319.17
551.479	46915.72
551.679	47091.85
551.879	46848.14
552.079	47263.88
552.278	46579.85
552.478	46989.45
552.678	47120.52
552.878	47472.77
553.077	47005.83
553.277	46418.07
553.477	47509.63
553.676	46923.91
553.876	47169.67
554.076	46880.91
554.275	46413.97
554.475	46262.42
554.674	46708.88
554.874	46729.36
555.074	46956.68
555.273	46737.55
555.473	46915.72
555.672	46262.42
555.872	46735.5
556.071	46422.16
556.271	46411.92
556.47	46596.24
556.67	45949.08
556.869	46305.43
557.068	46569.61
557.268	46110.87
557.467	46231.7
557.667	46295.19
557.866	46246.04
558.065	45959.32
558.265	45703.32
558.464	45807.77
558.663	46200.98
558.863	45723.8
559.062	46528.66
559.261	45789.34
559.461	46332.05
559.66	45093.03
559.859	45760.67
560.058	45598.88
560.258	45664.41
560.457	45162.66
560.656	45545.63
560.855	45199.52
561.054	45637.79
561.253	44783.79
561.453	45398.18
561.652	45553.82
561.851	45224.1
562.05	44976.3
562.249	44779.69
562.448	45336.74
562.647	45170.85
562.846	45207.72
563.045	45097.13
563.244	44452.02
563.443	45123.75
563.642	44333.23
563.841	44857.51
564.04	44314.8
564.239	45138.08
564.438	44187.83
564.637	44239.03
564.836	44314.8
565.035	43651.26
565.234	44400.82
565.432	43778.23
565.631	44030.13
565.83	44005.56
566.029	43845.82
566.228	43565.24
566.427	43665.6
566.625	43657.4
566.824	43282.62
567.023	43811
567.222	43264.19
567.42	43417.79
567.619	43335.87
567.818	43524.29
568.016	43180.23
568.215	43542.72
568.414	42846.41
568.612	43337.92
568.811	43110.6
569.01	43444.41
569.208	42166.48
569.407	42639.56
569.605	42143.95
569.804	42924.23
570.002	42045.65
570.201	42559.69
570.4	41812.18
570.598	41709.78
570.797	42133.71
570.995	41820.38
571.193	41572.57
571.392	41955.54
571.59	41627.87
571.789	41765.08
571.987	41943.25
572.186	41302.24
572.384	41330.91
572.582	41416.93
572.781	41312.48
572.979	40489.2
573.177	40980.71
573.376	41248.99
573.574	40495.34
573.772	40853.73
573.971	40448.24
574.169	40438
574.367	40061.17
574.565	40401.13
574.763	40132.85
574.962	40138.99
575.16	39588.09
575.358	39909.62
575.556	39221.5
575.754	40214.77
575.952	39616.76
576.151	39971.06
576.349	39006.47
576.547	39295.23
576.745	38942.98
576.943	38844.68
577.141	38703.37
577.339	39319.81
577.537	38762.76
577.735	38760.71
577.933	38768.9
578.131	38666.5
578.329	38465.8
578.527	38023.44
578.725	38390.03
578.923	38261.01
579.121	38338.83
579.319	38148.37
579.516	37771.54
579.714	37736.73
579.912	37431.58
580.11	37540.12
580.308	37511.45
580.506	37323.04
580.704	36862.24
580.901	37196.06
581.099	37271.84
581.297	36610.34
581.495	36583.72
581.692	37173.53
581.89	36397.35
582.088	36944.16
582.285	36294.96
582.483	36813.09
582.681	36297
582.878	35957.04
583.076	35752.24
583.274	36636.97
583.471	35490.1
583.669	36034.86
583.866	35496.25
584.064	35510.58
584.262	35533.11
584.459	35649.85
584.657	35506.49
584.854	35254.59
585.052	34681.16
585.249	34961.73
585.447	34888
585.644	34652.48
585.841	34937.15
586.039	34617.67
586.236	34275.66
586.434	34019.66
586.631	34502.98
586.828	34228.56
587.026	34255.18
587.223	33749.33
587.42	34146.64
587.618	33853.78
587.815	33466.71
588.012	33452.37
588.21	33556.82
588.407	33562.97
588.604	33462.61
588.801	33223
588.999	33126.75
589.196	33399.13
589.393	33175.9
589.59	32698.72
589.787	32889.18
589.984	32598.37
590.182	32483.69
590.379	32756.07
590.576	32373.1
590.773	32272.74
590.97	32225.64
591.167	32491.88
591.364	31953.26
591.561	31992.17
591.758	31689.07
591.955	31631.73
592.152	32170.35
592.349	31986.03
592.546	31453.56
592.743	31701.36
592.94	31418.74
593.137	31512.95
593.334	31527.28
593.531	30808.45
593.727	31185.27
593.924	31402.36
594.121	30890.37
594.318	31146.36
594.515	30574.98
594.712	30980.48
594.908	30611.84
595.105	30595.46
595.302	30153.1
595.499	30638.47
595.696	30271.88
595.892	30042.51
596.089	30450.05
596.286	30091.66
596.482	30124.43
596.679	29958.54
596.876	29917.58
597.072	29673.87
597.269	29706.64
597.466	29518.23
597.662	29559.19
597.859	29489.56
598.055	29372.82
598.252	28979.61
598.448	29491.6
598.645	29135.26
598.841	29063.58
599.038	28584.35
599.234	28823.97
599.431	28795.29
599.627	28694.94
599.824	28596.64
600.02	28438.95
600.217	28418.47
600.413	28357.03
600.609	28058.03
600.806	28092.84
601.002	27959.72
601.198	28096.94
601.395	27894.19
601.591	27851.18
601.787	27568.56
601.984	27433.39
602.18	27904.43
602.376	27537.84
602.572	27238.84
602.769	27001.27
602.965	26980.79
603.161	27285.94
603.357	26935.74
603.553	26831.29
603.75	26640.83
603.946	26722.75
604.142	26683.84
604.338	26104.26
604.534	26513.86
604.73	26249.67
604.926	26063.3
605.122	26048.97
605.318	26106.31
605.514	25835.98
605.71	25856.46
605.906	25682.38
606.102	25690.57
606.298	25649.61
606.494	25442.77
606.69	25743.82
606.886	25776.59
607.082	25113.05
607.278	25356.75
607.474	24975.83
607.67	25526.74
607.866	24908.25
608.062	25221.59
608.257	24795.61
608.453	24947.16
608.649	25020.89
608.845	24779.23
609.041	24148.45
609.236	24670.68
609.432	24814.04
609.628	24216.04
609.824	24351.2
610.019	24211.94
610.215	24338.91
610.411	24312.29
610.606	24367.59
610.802	24195.56
610.998	24017.38
611.193	24091.11
611.389	24066.53
611.584	23722.48
611.78	23667.18
611.976	23572.97
612.171	23501.29
612.367	23595.5
612.562	23163.38
612.758	23112.18
612.953	23091.7
613.149	23591.41
613.344	22993.4
613.539	23575.02
613.735	23015.93
613.93	23179.76
614.126	22991.35
614.321	23065.08
614.517	22825.47
614.712	22790.65
614.907	22610.43
615.103	22718.97
615.298	22905.34
615.493	22827.51
615.688	22186.5
615.884	22872.57
616.079	21993.99
616.274	22247.94
616.47	22104.58
616.665	22192.64
616.86	22145.54
617.055	22102.53
617.25	21895.69
617.445	22002.18
617.641	21793.29
617.836	21914.12
618.031	21295.63
618.226	21563.92
618.421	21793.29
618.616	21522.96
618.811	21404.17
619.006	21690.89
619.201	20775.45
619.396	21221.91
619.591	21025.3
619.786	21002.77
619.981	20761.11
620.176	21101.08
620.371	20851.22
620.566	20646.43
620.761	20605.47
620.956	20658.71
621.151	20255.26
621.346	20597.28
621.541	19730.98
621.735	20095.52
621.93	19749.42
622.125	20003.36
622.32	19356.21
622.515	19773.99
622.709	19569.19
622.904	19495.47
623.099	19325.49
623.294	19255.86
623.488	18864.69
623.683	19075.63
623.878	18774.58
624.072	18825.78
624.267	19071.54
624.462	18541.11
624.656	18303.55
624.851	18364.99
625.046	18311.74
625.24	18125.38
625.435	18262.59
625.629	17769.03
625.824	17521.23
626.018	17898.05
626.213	17627.72
626.407	17750.6
626.602	17443.4
626.796	17613.38
626.991	17429.07
627.185	17381.96
627.38	17146.45
627.574	16933.46
627.768	17078.86
627.963	17007.19
628.157	16857.68
628.352	16941.65
628.546	16654.94
628.74	16917.08
628.935	16466.52
629.129	16276.06
629.323	16151.13
629.517	16314.97
629.712	16351.84
629.906	16061.02
630.1	15719.01
630.294	15886.95
630.489	15927.91
630.683	15788.64
630.877	15673.96
631.071	15526.5
631.265	15512.17
631.459	15663.72
631.653	15180.4
631.848	15508.07
632.042	15135.34
632.236	15010.42
632.43	14975.6
632.624	15268.46
632.818	15082.1
633.012	14729.84
633.206	14885.49
633.4	14707.32
633.594	14445.18
633.788	14523
633.982	14482.04
634.176	14535.29
634.369	14310.01
634.563	14101.12
634.757	14359.16
634.951	14336.63
635.145	14008.96
635.339	14099.07
635.533	14072.45
635.726	14090.88
635.92	13746.82
636.114	13820.55
636.308	13548.17
636.501	13609.61
636.695	13357.71
636.889	13568.65
637.083	13292.17
637.276	13384.33
637.47	13183.63
637.664	13044.37
637.857	13157
638.051	12970.64
638.244	13017.74
638.438	12755.6
638.632	12866.19
638.825	12647.06
639.019	12645.01
639.212	12546.71
639.406	12634.77
639.599	12462.74
639.793	12405.4
639.986	12419.74
640.18	12282.52
640.373	12190.36
640.567	12028.57
640.76	12141.21
640.954	12083.87
641.147	11795.11
641.34	11770.53
641.534	11715.23
641.727	11938.46
641.92	11739.81
642.114	11829.92
642.307	11604.64
642.5	11393.7
642.694	11279.02
642.887	11383.46
643.08	11416.23
643.273	11453.09
643.467	11201.19
643.66	10945.2
643.853	11053.74
644.046	10877.62
644.239	11096.75
644.432	10932.91
644.626	10812.08
644.819	10816.18
645.012	10642.1
645.205	10672.82
645.398	10461.88
645.591	10607.28
645.784	10586.8
645.977	10158.78
646.17	10275.51
646.363	10199.74
646.556	10072.76
646.749	10058.43
646.942	9999.04
647.135	9712.32
647.328	10009.28
647.521	9908.93
647.714	9687.75
647.907	9808.58
648.099	9599.68
648.292	9697.99
648.485	9677.51
648.678	9403.08
648.871	9511.62
649.064	9306.82
649.256	9372.36
649.449	9265.86
649.642	9372.36
649.835	9026.25
650.027	9263.82
650.22	9052.88
650.413	8921.81
650.605	8805.07
650.798	8788.69
650.991	8788.69
651.183	8897.23
651.376	8585.94
651.568	8782.54
651.761	8510.16
651.954	8397.53
652.146	8481.49
652.339	8284.89
652.531	8549.07
652.724	8360.66
652.916	8323.8
653.109	8268.5
653.301	8151.77
653.494	8110.81
653.686	7973.6
653.879	8084.19
654.071	8086.23
654.263	7998.17
654.456	7846.62
654.648	7795.42
654.84	7607.01
655.033	7727.84
655.225	7693.02
655.417	7748.32
655.61	7682.78
655.802	7580.39
655.994	7486.18
656.186	7527.14
656.379	7453.41
656.571	7494.37
656.763	7187.18
656.955	7234.28
657.148	7330.53
657.34	7125.74
657.532	6982.38
657.724	6986.47
657.916	7072.49
658.108	6882.03
658.3	6890.22
658.492	7052.01
658.684	6929.13
658.876	6669.04
659.068	6763.25
659.26	6609.65
659.452	6730.48
659.644	6568.69
659.836	6482.67
660.028	6546.16
660.22	6370.04
660.412	6439.67
660.604	6363.89
660.796	6167.29
660.988	6263.54
661.18	6136.57
661.372	6175.48
661.563	6234.87
661.755	6060.79
661.947	6077.18
662.139	5954.3
662.331	5960.44
662.522	5899
662.714	5874.43
662.906	5812.99
663.097	5890.81
663.289	5618.43
663.481	5686.01
663.673	5753.6
663.864	5483.27
664.056	5561.09
664.247	5651.2
664.439	5331.72
664.631	5430.02
664.822	5546.75
665.014	5464.83
665.205	5243.65
665.397	5307.14
665.588	5284.61
665.78	5126.92
665.971	5032.71
666.163	5307.14
666.354	5083.91
666.546	5180.17
666.737	5028.62
666.929	5249.8
667.12	5034.76
667.311	4905.74
667.503	4852.49
667.694	4971.27
667.885	4989.71
668.077	4926.22
668.268	4682.51
668.459	4662.03
668.651	4778.76
668.842	4725.52
669.033	4782.86
669.224	4614.93
669.416	4672.27
669.607	4702.99
669.798	4592.4
669.989	4672.27
670.18	4639.5
670.371	4645.65
670.563	4459.28
670.754	4553.49
670.945	4397.84
671.136	4408.08
671.327	4471.57
671.518	4451.09
671.709	4356.88
671.9	4383.51
672.091	4277.01
672.282	4383.51
672.473	4227.86
672.664	4252.44
672.855	4252.44
673.046	4217.62
673.237	4266.77
673.428	4135.7
673.619	4188.95
673.809	4164.37
674	4199.19
674.191	4029.21
674.382	4227.86
674.573	4250.39
674.764	4033.3
674.954	3930.91
675.145	3887.9
675.336	4061.98
675.527	3971.86
675.717	4033.3
675.908	4059.93
676.099	3758.88
676.289	3998.49
676.48	3771.16
676.671	3758.88
676.861	3992.34
677.052	3771.16
677.243	3724.06
677.433	3861.27
677.624	3848.99
677.814	3779.36
678.005	3896.09
678.195	3730.2
678.386	3840.79
678.576	3752.73
678.767	3625.76
678.957	3793.69
679.148	3652.38
679.338	3801.88
679.529	3787.55
679.719	3566.37
679.909	3756.83
680.1	3652.38
680.29	3697.44
680.481	3603.23
680.671	3560.22
680.861	3570.46
681.052	3580.7
681.242	3597.09
681.432	3676.96
681.622	3525.41
681.813	3590.94
682.003	3633.95
682.193	3574.56
682.383	3623.71
682.573	3521.31
682.764	3402.53
682.954	3416.87
683.144	3459.87
683.334	3468.06
683.524	3431.2
683.714	3509.02
683.904	3435.3
684.094	3492.64
684.284	3554.08
684.474	3361.57
684.664	3521.31
684.854	3558.18
685.044	3423.01
685.234	3513.12
685.424	3425.06
685.614	3275.56
685.804	3382.05
685.994	3447.58
686.184	3537.7
686.374	3425.06
686.564	3324.71
686.753	3300.13
686.943	3386.15
687.133	3382.05
687.323	3285.8
687.513	3269.41
687.702	3324.71
687.892	3267.36
688.082	3326.75
688.272	3359.52
688.461	3177.25
688.651	3377.95
688.841	3304.23
689.03	3412.77
689.22	3203.88
689.41	3355.43
689.599	3218.21
689.789	3345.19
689.979	3302.18
690.168	3341.09
690.358	3326.75
690.547	3265.32
690.737	3392.29
690.926	3238.69
691.116	3154.73
691.305	3371.81
691.495	3183.4
691.684	3382.05
691.874	3365.67
692.063	3332.9
692.252	3250.98
692.442	3253.03
692.631	3253.03
692.82	3263.27
693.01	3160.87
693.199	3314.47
693.388	3201.83
693.578	3218.21
693.767	3103.53
693.956	3257.12
694.146	3228.45
694.335	3134.25
694.524	3253.03
694.713	3212.07
694.902	3396.39
695.092	3312.42
695.281	3220.26
695.47	3185.44
695.659	3269.41
695.848	3222.31
696.037	3365.67
696.226	3293.99
696.415	3244.84
696.604	3296.04
696.793	3027.75
696.982	3238.69
697.171	3130.15
697.36	3226.4
697.549	3169.06
697.738	3007.27
697.927	3083.05
698.116	3293.99
698.305	3169.06
698.494	3124.01
698.683	3187.49
698.872	3179.3
699.061	3232.55
699.25	3093.29
699.438	3212.07
699.627	3083.05
699.816	3013.42
700.005	3160.87
700.193	3033.9
700.382	3187.49
700.571	3095.33
700.76	3107.62
700.948	3056.42
701.137	3101.48
701.326	3025.7
701.514	3015.46
701.703	3052.33
701.892	2982.7
702.08	3037.99
702.269	3134.25
702.457	2988.84
702.646	2947.88
702.834	3021.61
703.023	3087.14
703.212	2954.02
703.4	2923.3
703.589	2927.4
703.777	2949.93
703.965	2798.38
704.154	2923.3
704.342	2949.93
704.531	2915.11
704.719	2781.99
704.907	2841.39
705.096	2890.54
705.284	2728.75
705.472	2890.54
705.661	2788.14
705.849	2865.96
706.037	2759.47
706.226	2720.56
706.414	2659.12
706.602	2765.61
706.79	2753.32
706.979	2673.45
707.167	2800.43
707.355	2761.52
707.543	2677.55
707.731	2626.35
707.919	2648.88
708.107	2618.16
708.296	2681.64
708.484	2583.34
708.672	2552.62
708.86	2657.07
709.048	2669.36
709.236	2661.16
709.424	2589.49
709.612	2507.57
709.8	2503.47
709.988	2671.4
710.176	2534.19
710.364	2523.95
710.551	2546.48
710.739	2423.6
710.927	2581.29
711.115	2497.33
711.303	2495.28
711.491	2415.41
711.679	2458.42
711.866	2435.89
712.054	2407.22
712.242	2390.83
712.43	2454.32
712.617	2421.55
712.805	2310.96
712.993	2308.91
713.181	2419.5
713.368	2327.35
713.556	2360.11
713.744	2319.15
713.931	2407.22
714.119	2296.63
714.306	2409.26
714.494	2251.57
714.682	2251.57
714.869	2222.9
715.057	2186.04
715.244	2208.56
715.432	2179.89
715.619	2257.71
715.807	2280.24
715.994	2192.18
716.182	2095.93
716.369	2216.76
716.556	2278.19
716.744	2177.84
716.931	2169.65
717.119	2140.98
717.306	2140.98
717.493	2128.69
717.681	2091.83
717.868	2071.35
718.055	2132.79
718.242	2073.4
718.43	2038.58
718.617	2108.21
718.804	2042.68
718.991	2061.11
719.179	2001.72
719.366	1895.22
719.553	1936.18
719.74	2018.1
719.927	1991.48
720.114	2028.34
720.301	1872.7
720.488	1852.22
720.676	1899.32
720.863	1934.14
721.05	1919.8
721.237	1891.13
721.424	1919.8
721.611	1827.64
721.798	1911.61
721.985	1792.83
722.172	1794.87
722.358	1844.03
722.545	1868.6
722.732	1819.45
722.919	1813.31
723.106	1897.27
723.293	1813.31
723.48	1895.22
723.667	1854.27
723.853	1870.65
724.04	1686.33
724.227	1766.2
724.414	1731.39
724.6	1768.25
724.787	1801.02
724.974	1735.48
725.161	1694.52
725.347	1778.49
725.534	1645.37
725.72	1702.72
725.907	1739.58
726.094	1643.32
726.28	1643.32
726.467	1659.71
726.653	1565.5
726.84	1678.14
727.027	1637.18
727.213	1598.27
727.4	1637.18
727.586	1588.03
727.773	1602.36
727.959	1567.55
728.145	1659.71
728.332	1542.97
728.518	1608.51
728.705	1639.23
728.891	1694.52
729.077	1547.07
729.264	1567.55
729.45	1448.77
729.636	1639.23
729.823	1518.4
730.009	1542.97
730.195	1422.14
730.382	1522.49
730.568	1432.38
730.754	1495.87
730.94	1489.73
731.126	1452.86
731.313	1426.24
731.499	1391.42
731.685	1409.86
731.871	1469.25
732.057	1434.43
732.243	1424.19
732.429	1358.66
732.615	1424.19
732.801	1520.45
732.987	1309.51
733.173	1391.42
733.359	1391.42
733.545	1416
733.731	1282.88
733.917	1342.27
734.103	1307.46
734.289	1360.7
734.475	1276.74
734.661	1370.94
734.847	1286.98
735.033	1366.85
735.219	1327.94
735.404	1227.59
735.59	1346.37
735.776	1325.89
735.962	1286.98
736.148	1385.28
736.333	1309.51
736.519	1350.46
736.705	1342.27
736.89	1248.07
737.076	1315.65
737.262	1284.93
737.447	1260.35
737.633	1291.07
737.819	1313.6
738.004	1264.45
738.19	1180.48
738.375	1237.83
738.561	1264.45
738.747	1270.59
738.932	1194.82
739.118	1229.63
739.303	1246.02
739.489	1196.87
739.674	1205.06
739.859	1168.2
740.045	1223.49
740.23	1117
740.416	1192.77
740.601	1155.91
740.786	1147.72
740.972	1172.29
741.157	1117
741.342	1016.65
741.528	1127.24
741.713	1198.92
741.898	1010.5
742.084	1166.15
742.269	1114.95
742.454	1053.51
742.639	1049.41
742.824	1073.99
743.01	1090.37
743.195	1121.09
743.38	1067.85
743.565	1061.7
743.75	981.83
743.935	1057.61
744.12	1033.03
744.305	1035.08
744.49	1000.26
744.675	975.69
744.86	1008.45
745.045	1010.5
745.23	1004.36
745.415	1063.75
745.6	1016.65
745.785	1010.5
745.97	920.39
746.155	979.78
746.34	965.45
746.525	951.11
746.71	990.02
746.895	918.34
747.079	977.73
747.264	979.78
747.449	906.06
747.634	973.64
747.819	912.2
748.003	936.78
748.188	910.15
748.373	916.3
748.557	899.91
748.742	883.53
748.927	912.2
749.111	889.67
749.296	813.9
749.481	977.73
749.665	842.57
749.85	893.77
750.034	840.52
750.219	795.47
750.404	850.76
750.588	758.6
750.773	817.99
750.957	926.54
751.141	768.84
751.326	781.13
751.51	809.8
751.695	764.75
751.879	842.57
752.064	828.23
752.248	854.86
752.432	772.94
752.617	715.59
752.801	809.8
752.985	809.8
753.17	785.23
753.354	754.51
753.538	795.47
753.722	803.66
753.907	770.89
754.091	611.15
754.275	721.74
754.459	770.89
754.643	668.49
754.828	734.03
755.012	713.55
755.196	684.87
755.38	699.21
755.564	756.55
755.748	645.96
755.932	623.44
756.116	668.49
756.3	588.62
756.484	631.63
756.668	670.54
756.852	568.14
757.036	731.98
757.22	719.69
757.404	664.4
757.588	686.92
757.772	588.62
757.956	674.64
758.14	609.1
758.323	656.2
758.507	621.39
758.691	639.82
758.875	592.72
759.059	602.96
759.242	650.06
759.426	600.91
759.61	615.24
759.794	637.77
759.977	596.81
760.161	576.33
760.345	578.38
760.528	617.29
760.712	572.24
760.895	537.42
761.079	516.94
761.263	596.81
761.446	582.48
761.63	523.09
761.813	559.95
761.997	643.92
762.18	564.04
762.364	633.68
762.547	609.1
762.731	627.53
762.914	508.75
763.098	570.19
763.281	582.48
763.464	594.76
763.648	531.28
763.831	508.75
764.015	533.33
764.198	496.46
764.381	576.33
764.564	502.61
764.748	469.84
764.931	516.94
765.114	502.61
765.297	566.09
765.481	551.76
765.664	559.95
765.847	570.19
766.03	475.98
766.213	555.85
766.397	660.3
766.58	508.75
766.763	555.85
766.946	486.22
767.129	492.37
767.312	523.09
767.495	535.37
767.678	498.51
767.861	486.22
768.044	516.94
768.227	494.41
768.41	568.14
768.593	518.99
768.776	502.61
768.959	467.79
769.142	580.43
769.324	451.41
769.507	443.21
769.69	449.36
769.873	510.8
770.056	539.47
770.239	447.31
770.421	449.36
770.604	494.41
770.787	551.76
770.97	453.45
771.152	443.21
771.335	453.45
771.518	437.07
771.7	506.7
771.883	445.26
772.066	437.07
772.248	453.45
772.431	484.17
772.613	467.79
772.796	475.98
772.978	467.79
773.161	535.37
773.343	463.69
773.526	482.13
773.708	490.32
773.891	400.21
774.073	418.64
774.256	443.21
774.438	455.5
774.621	389.97
774.803	414.54
774.985	387.92
775.168	486.22
775.35	338.77
775.532	426.83
775.715	381.78
775.897	457.55
776.079	412.5
776.261	498.51
776.444	404.3
776.626	449.36
776.808	418.64
776.99	400.21
777.173	443.21
777.355	455.5
777.537	392.02
777.719	392.02
777.901	392.02
778.083	465.74
778.265	420.69
778.447	408.4
778.629	426.83
778.811	404.3
778.993	363.34
779.175	516.94
779.357	314.19
779.539	334.67
779.721	275.28
779.903	371.54
780.085	328.53
780.267	236.37
780.449	404.3
780.631	285.52
780.812	457.55
780.994	324.43
781.176	369.49
781.358	346.96
781.54	285.52
781.721	234.32
781.903	363.34
782.085	396.11
782.267	361.3
782.448	314.19
782.63	361.3
782.812	293.71
782.993	289.62
783.175	369.49
783.357	371.54
783.538	351.06
783.72	228.18
783.901	228.18
784.083	258.9
784.264	361.3
784.446	205.65
784.627	265.04
784.809	297.81
784.99	291.66
785.172	320.34
785.353	310.1
785.535	260.95
785.716	275.28
785.897	306
786.079	303.95
786.26	226.13
786.441	211.79
786.623	226.13
786.804	269.14
786.985	254.8
787.167	238.42
787.348	254.8
787.529	226.13
787.71	314.19
787.891	269.14
788.073	287.57
788.254	301.9
788.435	197.46
788.616	244.56
788.797	244.56
788.978	240.47
789.159	303.95
789.34	252.75
789.522	240.47
789.703	312.14
789.884	303.95
790.065	181.07
790.246	248.66
790.427	252.75
790.607	219.99
790.788	273.23
790.969	252.75
791.15	252.75
791.331	222.03
791.512	164.69
791.693	228.18
791.874	248.66
792.054	201.55
792.235	166.74
792.416	205.65
792.597	205.65
792.778	207.7
792.958	215.89
793.139	152.4
793.32	244.56
793.5	222.03
793.681	199.51
793.862	195.41
794.042	205.65
794.223	203.6
794.404	246.61
794.584	201.55
794.765	129.88
794.945	142.16
795.126	219.99
795.306	236.37
795.487	215.89
795.667	179.03
795.848	222.03
796.028	174.93
796.209	162.64
796.389	205.65
796.57	156.5
796.75	189.27
796.93	205.65
797.111	174.93
797.291	131.92
797.471	187.22
797.652	154.45
797.832	174.93
798.012	133.97
798.192	187.22
798.373	199.51
798.553	179.03
798.733	138.07
798.913	90.96
799.093	158.55
799.274	164.69
799.454	232.27
799.634	131.92
799.814	187.22
799.994	119.64
800.174	105.3
800.354	209.75
800.534	224.08
800.714	174.93
800.894	148.31
801.074	97.11
801.254	199.51
801.434	146.26
801.614	179.03
801.794	60.24
801.974	367.44
802.154	158.55
802.334	181.07
802.514	131.92
802.693	146.26
802.873	113.49
803.053	148.31
803.233	105.3
803.413	142.16
803.592	131.92
803.772	80.72
803.952	119.64
804.131	113.49
804.311	131.92
804.491	131.92
804.67	115.54
804.85	84.82
805.03	101.2
805.209	156.5
805.389	183.12
805.568	142.16
805.748	168.79
805.928	187.22
806.107	156.5
806.287	88.92
806.466	82.77
806.646	176.98
806.825	117.59
807.004	113.49
807.184	144.21
807.363	179.03
807.543	115.54
807.722	148.31
807.901	107.35
808.081	150.36
808.26	140.12
808.439	103.25
808.619	158.55
808.798	111.44
808.977	217.94
809.156	107.35
809.336	93.01
809.515	211.79
809.694	113.49
809.873	148.31
810.052	127.83
810.231	162.64
810.411	113.49
810.59	154.45
810.769	123.73
810.948	113.49
811.127	97.11
811.306	97.11
811.485	31.57
811.664	144.21
811.843	123.73
812.022	99.16
812.201	107.35
812.38	103.25
812.559	41.81
812.737	103.25
812.916	72.53
813.095	140.12
813.274	164.69
813.453	162.64
813.632	138.07
813.811	150.36
813.989	158.55
814.168	174.93
814.347	131.92
814.526	158.55
814.704	90.96
814.883	164.69
815.062	113.49
815.24	115.54
815.419	60.24
815.598	129.88
815.776	103.25
815.955	60.24
816.133	148.31
816.312	90.96
816.49	197.46
816.669	107.35
816.847	37.72
817.026	95.06
817.204	64.34
817.383	105.3
817.561	84.82
817.74	181.07
817.918	72.53
818.097	152.4
818.275	47.96
818.453	62.29
818.632	70.48
818.81	115.54
818.988	41.81
819.167	129.88
819.345	72.53
819.523	90.96
819.701	60.24
819.879	86.87
820.058	25.43
820.236	68.44
820.414	60.24
820.592	125.78
820.77	19.29
820.948	39.76
821.127	138.07
821.305	90.96
821.483	88.92
821.661	70.48
821.839	119.64
822.017	123.73
822.195	62.29
822.373	109.4
822.551	74.58
822.729	64.34
822.907	97.11
823.085	60.24
823.262	64.34
823.44	76.63
823.618	97.11
823.796	68.44
823.974	80.72
824.152	66.39
824.329	47.96
824.507	64.34
824.685	138.07
824.863	56.15
825.04	88.92
825.218	19.29
825.396	64.34
825.574	90.96
825.751	64.34
825.929	31.57
826.107	140.12
826.284	66.39
826.462	64.34
826.639	84.82
826.817	7
826.994	121.68
827.172	11.09
827.349	74.58
827.527	78.68
827.704	0.85
827.882	88.92
828.059	82.77
828.237	39.76
828.414	97.11
828.591	47.96
828.769	105.3
828.946	-1.19
829.124	70.48
829.301	113.49
829.478	29.52
829.655	90.96
829.833	113.49
830.01	82.77
830.187	72.53
830.364	68.44
830.542	121.68
830.719	74.58
830.896	33.62
831.073	64.34
831.25	60.24
831.427	86.87
831.604	41.81
831.782	56.15
831.959	17.24
832.136	64.34
832.313	33.62
832.49	31.57
832.667	97.11
832.844	107.35
833.021	84.82
833.198	62.29
833.374	60.24
833.551	23.38
833.728	29.52
833.905	23.38
834.082	52.05
834.259	29.52
834.436	105.3
834.612	93.01
834.789	47.96
834.966	101.2
835.143	-11.43
835.319	31.57
835.496	64.34
835.673	88.92
835.85	41.81
836.026	62.29
836.203	142.16
836.38	60.24
836.556	66.39
836.733	109.4
836.909	95.06
837.086	31.57
837.262	7
837.439	11.09
837.616	23.38
837.792	31.57
837.968	37.72
838.145	11.09
838.321	37.72
838.498	33.62
838.674	72.53
838.851	21.33
839.027	105.3
839.203	90.96
839.38	64.34
839.556	50
839.732	23.38
839.909	31.57
840.085	88.92
840.261	99.16
840.437	31.57
840.614	68.44
840.79	31.57
840.966	25.43
841.142	72.53
841.318	60.24
841.494	-15.53
841.671	0.85
841.847	11.09
842.023	56.15
842.199	47.96
842.375	84.82
842.551	80.72
842.727	23.38
842.903	47.96
843.079	78.68
843.255	31.57
843.431	84.82
843.607	66.39
843.783	2.9
843.959	13.14
844.134	33.62
844.31	39.76
844.486	21.33
844.662	62.29
844.838	9.05
845.013	60.24
845.189	101.2
845.365	-31.91
845.541	0.85
845.716	66.39
845.892	39.76
846.068	80.72
846.244	21.33
846.419	66.39
846.595	41.81
846.77	43.86
846.946	52.05
847.122	76.63
847.297	17.24
847.473	66.39
847.648	13.14
847.824	105.3
847.999	-1.19
848.175	41.81
848.35	4.95
848.526	-1.19
848.701	23.38
848.876	29.52
849.052	47.96
849.227	45.91
849.403	64.34
849.578	13.14
849.753	47.96
849.929	99.16
850.104	4.95
850.279	113.49
850.454	9.05
850.63	121.68
850.805	50
850.98	-13.48
851.155	43.86
851.33	29.52
851.505	72.53
851.681	84.82
851.856	2.9
852.031	35.67
852.206	-38.06
852.381	-17.58
852.556	103.25
852.731	-19.63
852.906	-9.39
853.081	50
853.256	138.07
853.431	11.09
853.606	13.14
853.781	2.9
853.956	17.24
854.131	50
854.305	-36.01
854.48	-21.67
854.655	35.67
854.83	7
855.005	84.82
855.18	88.92
855.354	70.48
855.529	7
855.704	52.05
855.879	80.72
856.053	33.62
856.228	7
856.403	-21.67
856.577	129.88
856.752	31.57
856.926	86.87
857.101	47.96
857.276	25.43
857.45	0.85
857.625	58.2
857.799	47.96
857.974	15.19
858.148	13.14
858.323	7
858.497	0.85
858.672	43.86
858.846	27.48
859.02	-9.39
859.195	47.96
859.369	66.39
859.543	11.09
859.718	-9.39
859.892	7
860.066	25.43
860.241	13.14
860.415	60.24
860.589	41.81
860.763	19.29
860.938	80.72
861.112	90.96
861.286	-13.48
861.46	66.39
861.634	31.57
861.808	88.92
861.982	39.76
862.157	29.52
862.331	-56.49
862.505	52.05
862.679	27.48
862.853	-23.72
863.027	25.43
863.201	-1.19
863.375	11.09
863.549	50
863.722	-23.72
863.896	90.96
864.07	-13.48
864.244	41.81
864.418	7
864.592	17.24
864.766	41.81
864.939	64.34
865.113	-27.82
865.287	-1.19
865.461	70.48
865.634	27.48
865.808	27.48
865.982	58.2
866.156	66.39
866.329	39.76
866.503	39.76
866.676	86.87
866.85	33.62
867.024	23.38
867.197	19.29
867.371	99.16
867.544	60.24
867.718	-42.15
867.891	19.29
868.065	0.85
868.238	-17.58
868.412	50
868.585	-7.34
868.759	27.48
868.932	88.92
869.105	52.05
869.279	9.05
869.452	43.86
869.625	37.72
869.799	70.48
869.972	76.63
870.145	62.29
870.319	4.95
870.492	-50.35
870.665	82.77
870.838	19.29
871.011	17.24
871.185	33.62
871.358	64.34
871.531	15.19
871.704	60.24
871.877	33.62
872.05	78.68
872.223	76.63
872.396	31.57
872.569	52.05
872.742	-21.67
872.915	88.92
873.088	-17.58
873.261	58.2
873.434	27.48
873.607	13.14
873.78	50
873.953	43.86
874.126	74.58
874.299	-36.01
874.471	103.25
874.644	-1.19
874.817	35.67
874.99	60.24
875.163	9.05
875.335	60.24
875.508	23.38
875.681	54.1
875.853	68.44
876.026	35.67
876.199	29.52
876.371	58.2
876.544	17.24
876.717	64.34
876.889	-29.87
877.062	76.63
877.234	19.29
877.407	-46.25
877.579	29.52
877.752	68.44
877.924	11.09
878.097	-25.77
878.269	93.01
878.442	86.87
878.614	11.09
878.786	68.44
878.959	-5.29
879.131	-1.19
879.303	31.57
879.476	37.72
879.648	58.2
879.82	37.72
879.993	31.57
880.165	39.76
880.337	52.05
880.509	23.38
880.681	27.48
880.854	33.62
881.026	31.57
881.198	9.05
881.37	4.95
881.542	35.67
881.714	27.48
881.886	50
882.058	31.57
882.23	39.76
882.402	19.29
882.574	47.96
882.746	2.9
882.918	41.81
883.09	9.05
883.262	27.48
883.434	105.3
883.606	17.24
883.778	-42.15
883.95	-9.39
884.122	-7.34
884.293	35.67
884.465	-11.43
884.637	15.19
884.809	7
884.98	45.91
885.152	11.09
885.324	56.15
885.496	4.95
885.667	58.2
885.839	62.29
886.011	80.72
886.182	27.48
886.354	64.34
886.525	-27.82
886.697	29.52
886.869	-13.48
887.04	-1.19
887.212	23.38
887.383	41.81
887.555	-13.48
887.726	-54.44
887.897	0.85
888.069	0.85
888.24	56.15
888.412	52.05
888.583	56.15
888.754	25.43
888.926	29.52
889.097	21.33
889.268	31.57
889.44	-21.67
889.611	7
889.782	13.14
889.953	70.48
890.125	58.2
890.296	11.09
890.467	-1.19
890.638	15.19
890.809	17.24
890.98	0.85
891.151	7
891.323	17.24
891.494	11.09
891.665	-23.72
891.836	50
892.007	86.87
892.178	11.09
892.349	-42.15
892.52	-50.35
892.691	54.1
892.862	-13.48
893.032	-13.48
893.203	-1.19
893.374	-13.48
893.545	23.38
893.716	29.52
893.887	33.62
894.057	17.24
894.228	74.58
894.399	60.24
894.57	74.58
894.74	-79.02
894.911	2.9
895.082	23.38
895.253	4.95
895.423	62.29
895.594	78.68
895.764	27.48
895.935	31.57
896.106	41.81
896.276	17.24
896.447	50
896.617	-7.34
896.788	-62.63
896.958	-25.77
897.129	-38.06
897.299	72.53
897.47	2.9
897.64	9.05
897.81	70.48
897.981	29.52
898.151	-25.77
898.322	-54.44
898.492	93.01
898.662	-25.77
898.832	-44.2
899.003	33.62
899.173	0.85
899.343	-3.24
899.513	15.19
