Data from USB4F104151__264__14-01-58-241.txt Node

Date: Thu Mar 13 14:01:58 EDT 2025
User: louis
Spectrometer: USB4F10415
Trigger mode: 4
Integration Time (sec): 1.000000E-2
Scans to average: 1
Electric dark correction enabled: true
Nonlinearity correction enabled: false
Boxcar width: 0
XAxis mode: Wavelengths
Number of Pixels in Spectrum: 3648
>>>>>Begin Spectral Data<<<<<
178.204	-18.94
178.424	-18.94
178.644	-18.94
178.864	-57.86
179.084	17.92
179.304	-68.09
179.524	-2.56
179.744	-25.09
179.964	-84.48
180.184	40.45
180.404	7.68
180.624	7.68
180.844	34.3
181.064	22.02
181.283	17.92
181.503	-0.51
181.723	50.69
181.943	11.78
182.163	77.31
182.383	69.12
182.602	-6.66
182.822	36.35
183.042	-10.75
183.262	62.98
183.482	-10.75
183.701	46.59
183.921	-37.38
184.141	40.45
184.361	11.78
184.58	46.59
184.8	24.06
185.02	-12.8
185.239	40.45
185.459	56.83
185.679	48.64
185.898	-18.94
186.118	46.59
186.338	79.36
186.557	-20.99
186.777	46.59
186.997	52.74
187.216	-0.51
187.436	15.87
187.655	101.89
187.875	28.16
188.095	-51.71
188.314	44.54
188.534	91.65
188.753	46.59
188.973	-31.23
189.192	-23.04
189.412	62.98
189.631	36.35
189.851	83.45
190.07	52.74
190.29	75.26
190.509	36.35
190.729	54.78
190.948	159.23
191.168	60.93
191.387	-4.61
191.607	42.5
191.826	62.98
192.045	3.58
192.265	1.54
192.484	44.54
192.704	9.73
192.923	32.26
193.142	50.69
193.362	30.21
193.581	67.07
193.8	30.21
194.02	11.78
194.239	30.21
194.458	46.59
194.678	11.78
194.897	13.82
195.116	5.63
195.335	22.02
195.555	19.97
195.774	-55.81
195.993	58.88
196.212	28.16
196.432	-33.28
196.651	77.31
196.87	32.26
197.089	28.16
197.308	-68.09
197.528	40.45
197.747	-4.61
197.966	9.73
198.185	54.78
198.404	28.16
198.623	-8.7
198.842	69.12
199.062	-47.62
199.281	52.74
199.5	32.26
199.719	3.58
199.938	-4.61
200.157	3.58
200.376	36.35
200.595	-12.8
200.814	15.87
201.033	13.82
201.252	7.68
201.471	30.21
201.69	30.21
201.909	26.11
202.128	-0.51
202.347	26.11
202.566	30.21
202.785	73.21
203.004	9.73
203.223	42.5
203.442	-20.99
203.661	48.64
203.879	54.78
204.098	67.07
204.317	9.73
204.536	34.3
204.755	30.21
204.974	79.36
205.193	48.64
205.411	67.07
205.63	28.16
205.849	9.73
206.068	101.89
206.287	85.5
206.505	36.35
206.724	-41.47
206.943	5.63
207.162	-4.61
207.381	-29.18
207.599	15.87
207.818	62.98
208.037	36.35
208.255	11.78
208.474	69.12
208.693	-25.09
208.911	60.93
209.13	15.87
209.349	52.74
209.567	52.74
209.786	28.16
210.005	-4.61
210.223	15.87
210.442	40.45
210.661	40.45
210.879	-25.09
211.098	-0.51
211.316	13.82
211.535	40.45
211.753	-10.75
211.972	36.35
212.191	5.63
212.409	73.21
212.628	44.54
212.846	5.63
213.065	-27.14
213.283	28.16
213.502	24.06
213.72	17.92
213.938	54.78
214.157	-33.28
214.375	38.4
214.594	28.16
214.812	44.54
215.031	50.69
215.249	30.21
215.467	24.06
215.686	85.5
215.904	11.78
216.122	-37.38
216.341	93.69
216.559	-0.51
216.778	38.4
216.996	3.58
217.214	32.26
217.432	22.02
217.651	-18.94
217.869	58.88
218.087	-2.56
218.306	3.58
218.524	40.45
218.742	36.35
218.96	75.26
219.179	5.63
219.397	22.02
219.615	36.35
219.833	-68.09
220.051	13.82
220.27	48.64
220.488	34.3
220.706	11.78
220.924	-16.9
221.142	-33.28
221.36	-53.76
221.578	40.45
221.796	7.68
222.015	-2.56
222.233	22.02
222.451	60.93
222.669	11.78
222.887	52.74
223.105	-25.09
223.323	56.83
223.541	-51.71
223.759	-8.7
223.977	-2.56
224.195	108.03
224.413	3.58
224.631	-4.61
224.849	11.78
225.067	44.54
225.285	69.12
225.503	5.63
225.721	46.59
225.939	30.21
226.157	-20.99
226.375	62.98
226.592	-4.61
226.81	-45.57
227.028	26.11
227.246	56.83
227.464	-4.61
227.682	-4.61
227.9	7.68
228.117	95.74
228.335	-2.56
228.553	24.06
228.771	34.3
228.989	85.5
229.206	54.78
229.424	19.97
229.642	67.07
229.86	9.73
230.077	11.78
230.295	9.73
230.513	19.97
230.731	60.93
230.948	69.12
231.166	32.26
231.384	79.36
231.601	-0.51
231.819	40.45
232.037	38.4
232.254	36.35
232.472	60.93
232.689	-14.85
232.907	62.98
233.125	77.31
233.342	110.08
233.56	44.54
233.777	42.5
233.995	28.16
234.213	-2.56
234.43	56.83
234.648	46.59
234.865	62.98
235.083	26.11
235.3	32.26
235.518	38.4
235.735	13.82
235.953	34.3
236.17	75.26
236.388	81.41
236.605	-43.52
236.822	30.21
237.04	32.26
237.257	44.54
237.475	-14.85
237.692	48.64
237.909	-0.51
238.127	-18.94
238.344	19.97
238.562	9.73
238.779	105.98
238.996	62.98
239.214	-18.94
239.431	44.54
239.648	42.5
239.865	69.12
240.083	28.16
240.3	77.31
240.517	1.54
240.735	93.69
240.952	110.08
241.169	28.16
241.386	-0.51
241.603	19.97
241.821	30.21
242.038	38.4
242.255	28.16
242.472	28.16
242.689	11.78
242.907	62.98
243.124	24.06
243.341	52.74
243.558	13.82
243.775	-12.8
243.992	62.98
244.209	62.98
244.426	69.12
244.643	11.78
244.86	58.88
245.078	13.82
245.295	36.35
245.512	-14.85
245.729	11.78
245.946	56.83
246.163	-0.51
246.38	-4.61
246.597	19.97
246.814	54.78
247.031	58.88
247.248	-20.99
247.464	62.98
247.681	3.58
247.898	5.63
248.115	17.92
248.332	-37.38
248.549	48.64
248.766	38.4
248.983	-4.61
249.2	-6.66
249.417	85.5
249.633	15.87
249.85	9.73
250.067	46.59
250.284	91.65
250.501	19.97
250.717	46.59
250.934	56.83
251.151	40.45
251.368	103.93
251.585	69.12
251.801	52.74
252.018	-31.23
252.235	3.58
252.451	81.41
252.668	-0.51
252.885	83.45
253.102	-8.7
253.318	71.17
253.535	26.11
253.752	44.54
253.968	138.75
254.185	50.69
254.401	62.98
254.618	30.21
254.835	-0.51
255.051	38.4
255.268	79.36
255.484	-29.18
255.701	73.21
255.917	30.21
256.134	-0.51
256.351	-0.51
256.567	44.54
256.784	69.12
257	40.45
257.217	26.11
257.433	65.02
257.65	54.78
257.866	42.5
258.082	22.02
258.299	38.4
258.515	50.69
258.732	15.87
258.948	30.21
259.165	-10.75
259.381	67.07
259.597	40.45
259.814	19.97
260.03	15.87
260.246	22.02
260.463	34.3
260.679	46.59
260.895	30.21
261.112	34.3
261.328	40.45
261.544	56.83
261.761	38.4
261.977	67.07
262.193	-14.85
262.409	-0.51
262.626	7.68
262.842	73.21
263.058	-0.51
263.274	42.5
263.49	-10.75
263.707	-2.56
263.923	108.03
264.139	42.5
264.355	48.64
264.571	79.36
264.787	3.58
265.004	11.78
265.22	36.35
265.436	13.82
265.652	5.63
265.868	19.97
266.084	-51.71
266.3	19.97
266.516	36.35
266.732	42.5
266.948	13.82
267.164	19.97
267.38	-14.85
267.596	52.74
267.812	62.98
268.028	52.74
268.244	161.28
268.46	40.45
268.676	62.98
268.892	19.97
269.108	44.54
269.324	71.17
269.54	-2.56
269.756	99.84
269.972	-16.9
270.188	56.83
270.403	-14.85
270.619	69.12
270.835	-0.51
271.051	81.41
271.267	26.11
271.483	5.63
271.698	3.58
271.914	22.02
272.13	-2.56
272.346	73.21
272.562	44.54
272.777	-18.94
272.993	-8.7
273.209	-27.14
273.425	19.97
273.64	50.69
273.856	54.78
274.072	46.59
274.287	26.11
274.503	-57.86
274.719	52.74
274.934	24.06
275.15	60.93
275.366	19.97
275.581	-33.28
275.797	128.51
276.012	54.78
276.228	-0.51
276.444	101.89
276.659	38.4
276.875	40.45
277.09	5.63
277.306	19.97
277.521	-2.56
277.737	46.59
277.952	48.64
278.168	26.11
278.383	81.41
278.599	-47.62
278.814	114.17
279.03	24.06
279.245	69.12
279.461	-23.04
279.676	69.12
279.892	26.11
280.107	93.69
280.322	-8.7
280.538	-33.28
280.753	54.78
280.969	52.74
281.184	54.78
281.399	-4.61
281.615	3.58
281.83	46.59
282.045	56.83
282.26	58.88
282.476	-29.18
282.691	24.06
282.906	73.21
283.122	13.82
283.337	-20.99
283.552	13.82
283.767	67.07
283.983	44.54
284.198	30.21
284.413	1.54
284.628	112.13
284.843	34.3
285.058	77.31
285.274	54.78
285.489	7.68
285.704	56.83
285.919	13.82
286.134	54.78
286.349	48.64
286.564	38.4
286.779	32.26
286.995	-4.61
287.21	122.37
287.425	60.93
287.64	-35.33
287.855	52.74
288.07	58.88
288.285	44.54
288.5	38.4
288.715	-35.33
288.93	-8.7
289.145	3.58
289.36	48.64
289.575	32.26
289.79	40.45
290.004	30.21
290.219	52.74
290.434	-29.18
290.649	26.11
290.864	26.11
291.079	67.07
291.294	36.35
291.509	7.68
291.724	62.98
291.938	-8.7
292.153	71.17
292.368	13.82
292.583	36.35
292.798	42.5
293.012	-16.9
293.227	3.58
293.442	40.45
293.657	62.98
293.871	105.98
294.086	40.45
294.301	97.79
294.516	-2.56
294.73	-2.56
294.945	26.11
295.16	-37.38
295.374	71.17
295.589	30.21
295.804	-6.66
296.018	46.59
296.233	60.93
296.447	110.08
296.662	-20.99
296.877	75.26
297.091	38.4
297.306	65.02
297.52	28.16
297.735	52.74
297.949	60.93
298.164	28.16
298.378	48.64
298.593	38.4
298.807	-20.99
299.022	42.5
299.236	142.85
299.451	38.4
299.665	36.35
299.88	11.78
300.094	-10.75
300.309	34.3
300.523	38.4
300.737	3.58
300.952	69.12
301.166	56.83
301.381	85.5
301.595	62.98
301.809	67.07
302.024	36.35
302.238	13.82
302.452	136.7
302.667	30.21
302.881	46.59
303.095	19.97
303.309	46.59
303.524	-53.76
303.738	38.4
303.952	19.97
304.166	17.92
304.381	13.82
304.595	38.4
304.809	13.82
305.023	5.63
305.237	52.74
305.452	142.85
305.666	42.5
305.88	46.59
306.094	75.26
306.308	46.59
306.522	89.6
306.736	114.17
306.95	46.59
307.164	-16.9
307.379	26.11
307.593	3.58
307.807	54.78
308.021	44.54
308.235	3.58
308.449	89.6
308.663	71.17
308.877	58.88
309.091	-27.14
309.305	103.93
309.519	7.68
309.733	44.54
309.947	11.78
310.161	19.97
310.374	40.45
310.588	5.63
310.802	44.54
311.016	-37.38
311.23	105.98
311.444	30.21
311.658	40.45
311.872	101.89
312.085	19.97
312.299	103.93
312.513	34.3
312.727	103.93
312.941	-59.9
313.154	30.21
313.368	73.21
313.582	62.98
313.796	30.21
314.009	89.6
314.223	60.93
314.437	58.88
314.651	-2.56
314.864	40.45
315.078	40.45
315.292	75.26
315.505	85.5
315.719	40.45
315.933	126.46
316.146	30.21
316.36	40.45
316.573	19.97
316.787	15.87
317.001	44.54
317.214	38.4
317.428	148.99
317.641	50.69
317.855	38.4
318.068	26.11
318.282	34.3
318.495	52.74
318.709	44.54
318.922	-0.51
319.136	3.58
319.349	40.45
319.563	118.27
319.776	24.06
319.99	11.78
320.203	48.64
320.417	62.98
320.63	83.45
320.843	103.93
321.057	34.3
321.27	81.41
321.483	1.54
321.697	77.31
321.91	-20.99
322.124	28.16
322.337	142.85
322.55	60.93
322.763	-18.94
322.977	87.55
323.19	-0.51
323.403	28.16
323.617	-68.09
323.83	65.02
324.043	62.98
324.256	15.87
324.469	-29.18
324.683	22.02
324.896	19.97
325.109	42.5
325.322	7.68
325.535	118.27
325.748	116.22
325.962	19.97
326.175	73.21
326.388	81.41
326.601	-41.47
326.814	-10.75
327.027	26.11
327.24	71.17
327.453	-0.51
327.666	60.93
327.879	60.93
328.092	56.83
328.305	40.45
328.518	81.41
328.731	-43.52
328.944	81.41
329.157	28.16
329.37	75.26
329.583	69.12
329.796	97.79
330.009	-70.14
330.222	38.4
330.435	62.98
330.648	95.74
330.861	36.35
331.073	48.64
331.286	-0.51
331.499	32.26
331.712	24.06
331.925	44.54
332.138	73.21
332.35	69.12
332.563	50.69
332.776	48.64
332.989	17.92
333.202	7.68
333.414	-14.85
333.627	52.74
333.84	50.69
334.053	71.17
334.265	3.58
334.478	13.82
334.691	79.36
334.903	34.3
335.116	-49.66
335.329	52.74
335.541	50.69
335.754	79.36
335.966	-10.75
336.179	40.45
336.392	56.83
336.604	44.54
336.817	83.45
337.029	44.54
337.242	40.45
337.454	26.11
337.667	101.89
337.88	13.82
338.092	81.41
338.305	-20.99
338.517	-18.94
338.729	83.45
338.942	81.41
339.154	46.59
339.367	36.35
339.579	3.58
339.792	60.93
340.004	36.35
340.217	3.58
340.429	52.74
340.641	36.35
340.854	28.16
341.066	103.93
341.278	54.78
341.491	48.64
341.703	-10.75
341.915	-8.7
342.128	9.73
342.34	105.98
342.552	97.79
342.764	60.93
342.977	52.74
343.189	77.31
343.401	93.69
343.613	42.5
343.826	22.02
344.038	5.63
344.25	56.83
344.462	60.93
344.674	38.4
344.886	60.93
345.099	32.26
345.311	46.59
345.523	40.45
345.735	1.54
345.947	34.3
346.159	-10.75
346.371	26.11
346.583	40.45
346.795	85.5
347.007	40.45
347.219	46.59
347.431	28.16
347.643	52.74
347.855	40.45
348.067	99.84
348.279	81.41
348.491	9.73
348.703	122.37
348.915	114.17
349.127	-23.04
349.339	52.74
349.551	42.5
349.763	85.5
349.975	79.36
350.187	142.85
350.399	42.5
350.61	67.07
350.822	15.87
351.034	28.16
351.246	-20.99
351.458	93.69
351.669	71.17
351.881	60.93
352.093	9.73
352.305	89.6
352.517	-0.51
352.728	144.89
352.94	108.03
353.152	24.06
353.363	-6.66
353.575	67.07
353.787	34.3
353.999	101.89
354.21	34.3
354.422	22.02
354.633	-33.28
354.845	38.4
355.057	46.59
355.268	40.45
355.48	-8.7
355.692	-2.56
355.903	28.16
356.115	108.03
356.326	5.63
356.538	112.13
356.749	-14.85
356.961	42.5
357.172	71.17
357.384	93.69
357.595	69.12
357.807	62.98
358.018	40.45
358.23	42.5
358.441	85.5
358.653	38.4
358.864	40.45
359.075	28.16
359.287	34.3
359.498	93.69
359.709	7.68
359.921	24.06
360.132	91.65
360.344	11.78
360.555	99.84
360.766	19.97
360.977	28.16
361.189	36.35
361.4	30.21
361.611	140.8
361.823	-25.09
362.034	-12.8
362.245	42.5
362.456	105.98
362.667	17.92
362.879	7.68
363.09	71.17
363.301	97.79
363.512	62.98
363.723	-6.66
363.935	1.54
364.146	87.55
364.357	40.45
364.568	105.98
364.779	15.87
364.99	60.93
365.201	105.98
365.412	151.04
365.623	-12.8
365.834	52.74
366.045	28.16
366.256	71.17
366.467	1.54
366.678	13.82
366.889	28.16
367.1	93.69
367.311	58.88
367.522	85.5
367.733	19.97
367.944	-18.94
368.155	13.82
368.366	48.64
368.577	42.5
368.788	38.4
368.999	28.16
369.209	3.58
369.42	110.08
369.631	97.79
369.842	110.08
370.053	83.45
370.264	67.07
370.474	79.36
370.685	50.69
370.896	36.35
371.107	46.59
371.317	50.69
371.528	-20.99
371.739	93.69
371.95	52.74
372.16	36.35
372.371	48.64
372.582	36.35
372.792	97.79
373.003	5.63
373.214	69.12
373.424	79.36
373.635	1.54
373.846	73.21
374.056	-45.57
374.267	89.6
374.477	44.54
374.688	52.74
374.898	65.02
375.109	101.89
375.319	81.41
375.53	24.06
375.74	128.51
375.951	60.93
376.161	77.31
376.372	28.16
376.582	46.59
376.793	44.54
377.003	77.31
377.214	97.79
377.424	28.16
377.635	60.93
377.845	46.59
378.055	69.12
378.266	40.45
378.476	46.59
378.686	89.6
378.897	15.87
379.107	83.45
379.317	138.75
379.528	52.74
379.738	116.22
379.948	77.31
380.158	77.31
380.369	77.31
380.579	71.17
380.789	1.54
380.999	46.59
381.21	46.59
381.42	69.12
381.63	114.17
381.84	42.5
382.05	138.75
382.261	148.99
382.471	83.45
382.681	77.31
382.891	69.12
383.101	32.26
383.311	44.54
383.521	15.87
383.731	79.36
383.941	3.58
384.151	48.64
384.361	-6.66
384.571	24.06
384.781	40.45
384.991	85.5
385.201	110.08
385.411	91.65
385.621	101.89
385.831	91.65
386.041	38.4
386.251	28.16
386.461	144.89
386.671	58.88
386.881	30.21
387.091	38.4
387.301	19.97
387.511	40.45
387.72	54.78
387.93	69.12
388.14	38.4
388.35	22.02
388.56	-0.51
388.769	46.59
388.979	24.06
389.189	15.87
389.399	69.12
389.609	42.5
389.818	103.93
390.028	67.07
390.238	77.31
390.447	134.65
390.657	108.03
390.867	93.69
391.076	83.45
391.286	50.69
391.496	28.16
391.705	24.06
391.915	7.68
392.125	58.88
392.334	-64
392.544	40.45
392.753	124.41
392.963	75.26
393.172	36.35
393.382	48.64
393.591	36.35
393.801	19.97
394.01	81.41
394.22	40.45
394.429	34.3
394.639	30.21
394.848	196.09
395.058	26.11
395.267	126.46
395.477	79.36
395.686	93.69
395.895	81.41
396.105	112.13
396.314	79.36
396.524	120.32
396.733	136.7
396.942	126.46
397.152	105.98
397.361	114.17
397.57	85.5
397.78	85.5
397.989	87.55
398.198	36.35
398.407	60.93
398.617	101.89
398.826	138.75
399.035	112.13
399.244	114.17
399.453	118.27
399.663	138.75
399.872	148.99
400.081	87.55
400.29	144.89
400.499	105.98
400.708	120.32
400.917	89.6
401.127	105.98
401.336	79.36
401.545	175.61
401.754	87.55
401.963	153.09
402.172	65.02
402.381	77.31
402.59	126.46
402.799	187.9
403.008	85.5
403.217	85.5
403.426	132.61
403.635	134.65
403.844	171.52
404.053	114.17
404.262	101.89
404.471	167.42
404.68	210.43
404.888	114.17
405.097	91.65
405.306	122.37
405.515	38.4
405.724	93.69
405.933	146.94
406.142	181.76
406.35	120.32
406.559	171.52
406.768	151.04
406.977	239.1
407.185	249.34
407.394	243.2
407.603	200.19
407.812	232.96
408.02	220.67
408.229	237.05
408.438	142.85
408.646	183.81
408.855	181.76
409.064	126.46
409.272	298.49
409.481	222.72
409.69	232.96
409.898	278.01
410.107	318.97
410.315	306.68
410.524	337.4
410.733	343.55
410.941	368.12
411.15	359.93
411.358	318.97
411.567	431.61
411.775	249.34
411.984	364.03
412.192	388.6
412.401	382.46
412.609	427.51
412.818	398.84
413.026	423.42
413.234	396.79
413.443	355.83
413.651	474.62
413.86	536.06
414.068	443.9
414.276	603.64
414.485	542.2
414.693	511.48
414.901	593.4
415.11	572.92
415.318	599.54
415.526	605.69
415.734	634.36
415.943	654.84
416.151	703.99
416.359	716.28
416.567	697.85
416.776	751.09
416.984	835.06
417.192	798.2
417.4	830.96
417.608	859.63
417.817	894.45
418.025	986.61
418.233	968.18
418.441	955.89
418.649	1015.28
418.857	1058.29
419.065	1064.43
419.273	1105.39
419.481	1054.19
419.689	1185.26
419.897	1199.6
420.105	1355.24
420.313	1371.63
420.521	1449.45
420.729	1306.09
420.937	1396.2
421.145	1453.55
421.353	1498.6
421.561	1742.31
421.769	1652.2
421.977	1779.17
422.185	1670.63
422.393	1863.14
422.601	1934.82
422.809	1949.15
423.017	1914.34
423.224	2010.59
423.432	2121.18
423.64	2117.09
423.848	2381.28
424.056	2217.44
424.263	2430.43
424.471	2387.42
424.679	2436.57
424.887	2684.38
425.094	2532.83
425.302	2663.9
425.51	2837.97
425.718	2815.45
425.925	2690.52
426.133	3014.1
426.341	3096.02
426.548	3255.76
426.756	3196.37
426.964	3411.4
427.171	3407.31
427.379	3696.07
427.586	3640.78
427.794	3755.46
428.001	4126.15
428.209	4111.81
428.417	3993.03
428.624	4257.22
428.832	4234.69
429.039	4410.81
429.247	4251.07
429.454	4687.29
429.662	5006.77
429.869	4754.87
430.076	5080.5
430.284	4967.86
430.491	5191.09
430.699	5524.91
430.906	5236.14
431.114	5471.66
431.321	5733.8
431.528	5715.37
431.736	6036.9
431.943	6548.89
432.15	6227.36
432.358	6325.66
432.565	6643.1
432.772	6604.19
432.979	6991.25
433.187	7179.67
433.394	7136.66
433.601	7626.12
433.808	7830.92
434.016	7538.06
434.223	7851.4
434.43	8408.45
434.637	8064.39
434.844	8699.26
435.052	8897.91
435.259	8883.58
435.466	8942.97
435.673	8826.23
435.88	9538.93
436.087	9882.99
436.294	9815.4
436.501	9850.22
436.708	9821.55
436.915	10288.48
437.122	10878.3
437.329	10505.57
437.537	11105.62
437.743	11191.64
437.95	11208.02
438.157	11707.73
438.364	12338.5
438.571	12010.82
438.778	12170.57
438.985	13442.35
439.192	12676.41
439.399	13110.58
439.606	12629.31
439.813	13440.31
440.02	14574.88
440.227	13815.09
440.433	13954.35
440.64	14398.76
440.847	14341.41
441.054	14550.31
441.261	15713.55
441.467	15396.12
441.674	15867.15
441.881	16256.26
442.088	16379.14
442.294	16272.65
442.501	16725.25
442.708	17034.49
442.914	17581.3
443.121	18132.2
443.328	17800.43
443.534	19107.04
443.741	18576.61
443.948	18363.62
444.154	19713.24
444.361	19311.83
444.568	19471.57
444.774	19236.06
444.981	19889.36
445.187	20405.45
445.394	21376.19
445.6	20946.11
445.807	23000.23
446.013	22164.65
446.22	22412.46
446.426	22989.99
446.633	23643.29
446.839	24192.14
447.046	23211.17
447.252	24683.66
447.459	24499.34
447.665	24196.24
447.871	25605.24
448.078	26475.63
448.284	25570.43
448.491	25891.96
448.697	26969.19
448.903	27714.65
449.11	27470.94
449.316	26977.38
449.522	27425.89
449.728	28468.3
449.935	28429.39
450.141	28587.08
450.347	29049.92
450.553	28322.9
450.76	28429.39
450.966	29406.27
451.172	29045.83
451.378	29690.94
451.584	29230.15
451.791	30016.57
451.997	29781.05
452.203	30518.32
452.409	30465.07
452.615	30037.05
452.821	28763.21
453.027	28761.16
453.233	30233.65
453.44	28888.14
453.646	29101.12
453.852	29334.59
454.058	29697.08
454.264	28525.64
454.47	29885.5
454.676	28865.61
454.882	29967.41
455.088	27241.57
455.294	27696.22
455.5	28114
455.705	28488.78
455.911	27130.98
456.117	26844.26
456.323	26199.15
456.529	24874.12
456.735	26014.84
456.941	25488.51
457.147	24806.53
457.352	24231.05
457.558	23696.53
457.764	23960.72
457.97	23209.12
458.176	23000.23
458.381	23096.48
458.587	21736.63
458.793	21966
458.999	20686.02
459.204	22193.33
459.41	21507.26
459.616	20186.32
459.821	20071.63
460.027	20321.48
460.233	19766.48
460.438	18752.74
460.644	18959.58
460.85	18148.59
461.055	17908.97
461.261	17902.83
461.466	16583.94
461.672	15881.49
461.878	17071.36
462.083	16043.28
462.289	15834.38
462.494	15582.48
462.7	14675.23
462.905	14562.59
463.111	14908.7
463.316	15142.17
463.522	14634.27
463.727	14865.69
463.932	14765.34
464.138	14474.53
464.343	14609.7
464.549	14308.65
464.754	14830.88
464.959	14488.87
465.165	14566.69
465.37	13815.09
465.575	13346.1
465.781	14177.58
465.986	14169.38
466.191	13606.19
466.397	13331.76
466.602	12670.27
466.807	13106.49
467.012	13382.96
467.218	13059.38
467.423	12899.64
467.628	12967.23
467.833	13456.69
468.038	13028.67
468.244	12682.56
468.449	13292.85
468.654	12766.53
468.859	12866.88
469.064	12541.25
469.269	12045.64
469.474	12283.2
469.679	12578.11
469.885	12268.87
470.09	12258.63
470.295	12291.4
470.5	11744.59
470.705	11947.34
470.91	11631.95
471.115	11799.88
471.32	11648.33
471.525	11564.37
471.73	11470.16
471.935	11347.28
472.139	10874.2
472.344	11222.36
472.549	11013.46
472.754	10794.33
472.959	10833.24
473.164	10544.48
473.369	10302.82
473.574	10655.07
473.778	10593.63
473.983	10575.2
474.188	10460.51
474.393	9997.67
474.598	10075.49
474.802	9936.23
475.007	9719.15
475.212	9903.46
475.417	9495.92
475.621	9659.76
475.826	9440.62
476.031	9446.77
476.235	9364.85
476.44	9235.83
476.645	9067.89
476.849	9182.58
477.054	9153.91
477.259	9004.41
477.463	9069.94
477.668	8631.68
477.872	8942.97
478.077	8707.45
478.282	8379.78
478.486	8502.65
478.691	8289.67
478.895	8549.76
479.1	8297.86
479.304	8375.68
479.509	8088.96
479.713	8308.1
479.918	8123.78
480.122	7853.45
480.326	8154.5
480.531	8074.63
480.735	8021.38
480.94	7976.33
481.144	8105.35
481.348	7718.28
481.553	7888.26
481.757	7751.05
481.961	7761.29
482.166	7892.36
482.37	7574.92
482.574	7789.96
482.778	7697.8
482.983	7851.4
483.187	7736.71
483.391	7896.46
483.595	7763.34
483.8	7450
484.004	7615.88
484.208	7918.98
484.412	7845.26
484.616	7787.91
484.821	7835.02
485.025	7619.98
485.229	7765.39
485.433	7726.47
485.637	7624.08
485.841	7671.18
486.045	7695.75
486.249	7789.96
486.453	7675.27
486.657	8007.05
486.861	8031.62
487.065	7615.88
487.269	7746.95
487.473	7398.8
487.677	7894.41
487.881	7648.65
488.085	7675.27
488.289	7705.99
488.493	7783.82
488.697	7789.96
488.901	7937.41
489.105	7970.18
489.309	7761.29
489.512	7724.43
489.716	8091.01
489.92	7925.13
490.124	8009.09
490.328	7785.87
490.531	7959.94
490.735	7961.99
490.939	7937.41
491.143	7908.74
491.346	7980.42
491.55	7957.89
491.754	8031.62
491.958	8224.13
492.161	8203.65
492.365	8146.31
492.569	8082.82
492.772	8113.54
492.976	8183.17
493.18	8263.04
493.383	8402.3
493.587	8437.12
493.79	8426.88
493.994	8457.6
494.197	8568.19
494.401	8756.6
494.605	8643.96
494.808	8926.58
495.012	8588.67
495.215	8795.51
495.419	8953.21
495.622	8852.86
495.825	8998.26
496.029	9260.4
496.232	9190.77
496.436	9313.65
496.639	9424.24
496.843	9536.88
497.046	9528.69
497.249	9604.46
497.453	9682.28
497.656	9803.11
497.859	9702.76
498.063	10038.63
498.266	10220.9
498.469	10106.21
498.673	10315.11
498.876	10313.06
499.079	10401.12
499.282	10501.47
499.485	10820.95
499.689	10685.79
499.892	11031.9
500.095	11171.16
500.298	11232.6
500.501	11162.97
500.705	11466.07
500.908	11537.74
501.111	11590.99
501.314	11898.19
501.517	11791.69
501.72	11926.86
501.923	12170.57
502.126	12426.56
502.329	12623.17
502.532	12774.72
502.735	12719.42
502.938	12780.86
503.141	13444.4
503.344	13118.78
503.547	13241.65
503.75	13272.37
503.953	13538.61
504.156	13858.09
504.359	13927.72
504.562	13815.09
504.765	14433.57
504.968	14392.61
505.17	14566.69
505.373	14634.27
505.576	14996.76
505.779	15041.82
505.982	15052.06
506.185	15385.88
506.387	15324.44
506.59	15838.48
506.793	16164.11
506.996	16110.86
507.198	16418.05
507.401	16186.63
507.604	16411.91
507.807	16874.75
508.009	16760.06
508.212	17022.2
508.415	17435.89
508.617	17460.47
508.82	17714.42
509.022	17439.99
509.225	18042.09
509.428	18179.31
509.63	18476.26
509.833	18588.9
510.035	18713.83
510.238	18885.86
510.44	19324.12
510.643	19311.83
510.845	19358.94
511.048	19516.63
511.25	20196.56
511.453	20108.49
511.655	20761.8
511.858	20454.6
512.06	20788.42
512.262	20937.92
512.465	21048.51
512.667	21212.35
512.87	21710
513.072	21546.17
513.274	21863.6
513.477	22475.95
513.679	22275.24
513.881	22779.04
514.084	23082.14
514.286	22852.77
514.488	23340.19
514.69	23671.96
514.893	24126.61
515.095	23887
515.297	24499.34
515.499	24362.12
515.701	24796.29
515.904	24962.18
516.106	24951.94
516.308	25537.66
516.51	25844.85
516.712	26043.51
516.914	26238.06
517.116	26735.72
517.318	26623.08
517.52	26932.33
517.722	27118.69
517.925	27462.75
518.127	27485.28
518.329	27915.35
518.531	27790.42
518.733	28310.61
518.935	28380.24
519.136	28697.67
519.338	29060.16
519.54	28757.07
519.742	29312.06
519.944	29713.47
520.146	30045.24
520.348	30403.63
520.55	30422.06
520.752	30856.23
520.954	31169.57
521.155	30561.33
521.357	31509.54
521.559	31925.27
521.761	32185.36
521.963	32103.45
522.164	32482.32
522.366	32562.19
522.568	32465.94
522.77	32975.88
522.971	33092.62
523.173	32853
523.375	33457.15
523.576	33715.2
523.778	33434.63
523.98	34085.88
524.181	34286.58
524.383	34790.38
524.584	34755.57
524.786	34903.02
524.988	34728.94
525.189	35484.64
525.391	35462.11
525.592	35216.36
525.794	35525.6
525.995	35974.11
526.197	35869.66
526.398	35769.31
526.6	35994.59
526.801	36291.54
527.003	36684.75
527.204	36533.2
527.406	37022.67
527.607	36668.37
527.808	37204.94
528.01	36643.79
528.211	36836.3
528.412	37716.93
528.614	37610.43
528.815	37249.99
529.016	37952.44
529.218	37477.32
529.419	37891.01
529.62	37915.58
529.822	37809.09
530.023	38017.98
530.224	37964.73
530.425	37813.18
530.626	37692.35
530.828	37434.31
531.029	38435.77
531.23	38142.91
531.431	38357.94
531.632	38372.28
531.833	38702
532.035	38126.52
532.236	38282.17
532.437	38718.39
532.638	38280.12
532.839	38802.35
533.04	38624.18
533.241	38448.05
533.442	39070.64
533.643	38435.77
533.844	38517.68
534.045	39093.16
534.246	38218.68
534.447	38618.03
534.648	38538.16
534.849	38597.56
535.05	38611.89
535.251	38949.81
535.451	38937.52
535.652	38933.42
535.853	38763.44
536.054	39054.25
536.255	39193.51
536.456	38495.16
536.657	39248.81
536.857	38632.37
537.058	38751.15
537.259	38931.37
537.46	38888.37
537.66	38906.8
537.861	38624.18
538.062	38521.78
538.263	38933.42
538.463	38491.06
538.664	38751.15
538.865	38859.7
539.065	38996.91
539.266	38624.18
539.466	39005.1
539.667	38986.67
539.868	38914.99
540.068	38839.22
540.269	38677.43
540.469	39150.51
540.67	38892.46
540.87	38808.5
541.071	38507.44
541.271	38992.81
541.472	38906.8
541.672	38642.61
541.873	38790.06
542.073	38570.93
542.274	39318.44
542.474	38706.1
542.675	38417.33
542.875	39144.36
543.075	38683.57
543.276	38415.29
543.476	39066.54
543.676	38319.03
543.877	38855.6
544.077	38691.76
544.277	38822.83
544.478	38671.28
544.678	39041.96
544.878	38509.49
545.078	38790.06
545.279	38489.01
545.479	38730.67
545.679	38874.03
545.879	38837.17
546.079	38835.12
546.28	38527.92
546.48	38374.33
546.68	38906.8
546.88	38665.14
547.08	38661.04
547.28	38224.82
547.48	38411.19
547.68	38554.55
547.88	38251.45
548.081	38734.77
548.281	38378.42
548.481	38724.53
548.681	38435.77
548.881	38347.7
549.081	38759.34
549.28	38290.36
549.48	39084.97
549.68	38560.69
549.88	39076.78
550.08	38210.49
550.28	38519.73
550.48	38427.57
550.68	38824.88
550.88	38259.64
551.08	38497.2
551.279	38833.07
551.479	38177.72
551.679	38644.66
551.879	38378.42
552.079	38896.56
552.278	37907.39
552.478	38677.43
552.678	38185.91
552.878	38450.1
553.077	38450.1
553.277	37950.4
553.477	38658.99
553.676	38020.03
553.876	38298.55
554.076	38403
554.275	38103.99
554.475	37852.09
554.674	37819.33
554.874	38276.02
555.074	37985.21
555.273	38271.93
555.473	38329.27
555.672	37598.15
555.872	37794.75
556.071	37743.55
556.271	37888.96
556.47	37813.18
556.67	37596.1
556.869	37704.64
557.068	38214.58
557.268	37583.81
557.467	37792.7
557.667	37934.01
557.866	37739.46
558.065	37675.97
558.265	37624.77
558.464	37729.22
558.663	37612.48
558.863	37272.52
559.062	37663.68
559.261	36848.59
559.461	37848
559.66	36824.01
559.859	37360.58
560.058	36922.32
560.258	37286.86
560.457	36715.47
560.656	37168.07
560.855	36719.57
561.054	37053.39
561.253	36633.55
561.453	37116.87
561.652	37116.87
561.851	37051.34
562.05	36762.58
562.249	36297.69
562.448	36844.49
562.647	36795.34
562.846	36172.76
563.045	36893.65
563.244	36303.83
563.443	36760.53
563.642	36203.48
563.841	36289.49
564.04	36058.07
564.239	36406.23
564.438	35890.14
564.637	36371.41
564.836	36332.5
565.035	35695.58
565.234	36164.57
565.432	36121.56
565.631	35857.37
565.83	35873.76
566.029	35578.85
566.228	35226.6
566.427	35730.4
566.625	35329
566.824	35038.19
567.023	35632.1
567.222	34800.62
567.42	35537.89
567.619	35769.31
567.818	35320.81
568.016	35148.78
568.215	35320.81
568.414	34774
568.612	35298.28
568.811	35140.58
569.01	34726.89
569.208	34483.19
569.407	34804.72
569.605	34536.43
569.804	34907.12
570.002	34434.03
570.201	34628.59
570.4	34237.43
570.598	33924.09
570.797	33819.64
570.995	34391.03
571.193	33723.39
571.392	34065.4
571.59	33541.12
571.789	33696.77
571.987	33709.05
572.186	33586.18
572.384	33444.87
572.582	33549.31
572.781	33784.83
572.979	33022.98
573.177	33655.81
573.376	33258.5
573.574	32947.21
573.772	32799.76
573.971	33096.71
574.169	32803.85
574.367	32447.5
574.565	32934.92
574.763	32480.27
574.962	32488.46
575.16	32101.4
575.358	32859.15
575.556	31601.69
575.754	32455.7
575.952	31753.24
576.151	32199.7
576.349	31693.85
576.547	31923.22
576.745	32205.84
576.943	32103.45
577.141	31536.16
577.339	31624.22
577.537	31204.39
577.735	31822.87
577.933	31241.25
578.131	31364.13
578.329	31278.11
578.527	30755.88
578.725	31194.15
578.923	30907.43
579.121	30678.06
579.319	30598.19
579.516	30940.2
579.714	30639.15
579.912	30551.09
580.11	30129.2
580.308	30575.66
580.506	30250.03
580.704	29748.28
580.901	30180.4
581.099	30467.12
581.297	29752.38
581.495	29824.06
581.692	30071.86
581.89	29637.69
582.088	29850.68
582.285	29600.83
582.483	29588.54
582.681	29815.87
582.878	29242.43
583.076	29084.74
583.274	29539.39
583.471	28900.42
583.669	29205.57
583.866	28994.63
584.064	29013.06
584.262	28677.19
584.459	29183.04
584.657	28775.5
584.854	29291.59
585.052	28236.88
585.249	28771.4
585.447	28492.88
585.644	28302.42
585.841	28415.05
586.039	28544.08
586.236	28118.1
586.434	28097.62
586.631	27815
586.828	27948.12
587.026	27833.43
587.223	27653.21
587.42	27597.91
587.618	27708.51
587.815	27397.21
588.012	27595.87
588.21	27192.42
588.407	27761.75
588.604	27155.55
588.801	27176.03
588.999	27059.3
589.196	27208.8
589.393	27280.48
589.59	26825.83
589.787	26944.61
589.984	26563.69
590.182	26682.47
590.379	26455.15
590.576	26444.91
590.773	26440.81
590.97	26281.07
591.167	26219.63
591.364	25709.69
591.561	26510.44
591.758	25830.52
591.955	26045.55
592.152	25879.67
592.349	26027.12
592.546	25932.92
592.743	25668.73
592.94	25250.94
593.137	25635.96
593.334	25771.13
593.531	24996.99
593.727	25273.47
593.924	25148.54
594.121	25216.13
594.318	25379.96
594.515	24718.47
594.712	24968.32
594.908	24685.7
595.105	24927.36
595.302	24665.22
595.499	24771.72
595.696	24595.59
595.892	24259.73
596.089	24536.2
596.286	24542.35
596.482	24575.11
596.679	24237.2
596.876	24579.21
597.072	23940.24
597.269	24038.55
597.466	23882.9
597.662	23882.9
597.859	23727.25
598.055	23831.7
598.252	23858.32
598.448	23704.73
598.645	23475.35
598.841	23479.45
599.038	23587.99
599.234	23530.65
599.431	23399.58
599.627	23407.77
599.824	23313.56
600.02	23178.4
600.217	23256.22
600.413	23086.24
600.609	23008.42
600.806	22797.48
601.002	22834.34
601.198	22989.99
601.395	22754.47
601.591	22537.38
601.787	22678.69
601.984	22373.55
602.18	22762.66
602.376	22340.78
602.572	22516.9
602.769	22189.23
602.965	21738.68
603.161	22074.54
603.357	21941.43
603.553	21726.39
603.75	21832.88
603.946	21941.43
604.142	21570.74
604.338	21548.22
604.534	21345.47
604.73	21535.93
604.926	21515.45
605.122	21525.69
605.318	21411
605.514	21107.9
605.71	20935.87
605.906	21210.3
606.102	21062.85
606.298	20993.22
606.494	21222.59
606.69	21081.28
606.886	20911.3
607.082	20548.81
607.278	20792.51
607.474	20464.84
607.67	20591.81
607.866	20491.46
608.062	20649.16
608.257	20489.42
608.453	20477.13
608.649	20786.37
608.845	20096.21
609.041	20376.78
609.236	20321.48
609.432	19924.18
609.628	20083.92
609.824	19999.95
610.019	19887.31
610.215	20139.21
610.411	19717.33
610.606	19768.53
610.802	19739.86
610.998	19760.34
611.193	19862.74
611.389	19592.41
611.584	19516.63
611.78	19477.72
611.976	19578.07
612.171	19547.35
612.367	19528.92
612.562	19469.53
612.758	19211.48
612.953	18760.93
613.149	19168.48
613.344	18904.29
613.539	19346.65
613.735	19088.6
613.93	18965.73
614.126	19068.13
614.321	19205.34
614.517	19076.32
614.712	18986.21
614.907	18670.82
615.103	19080.41
615.298	18697.44
615.493	18937.06
615.688	18334.95
615.884	18961.63
616.079	18644.2
616.274	18658.53
616.47	18502.89
616.665	18711.78
616.86	18402.54
617.055	18365.67
617.25	18312.42
617.445	18334.95
617.641	18109.68
617.836	18308.33
618.031	18433.25
618.226	18500.84
618.421	18156.78
618.616	18230.51
618.811	17722.61
619.006	18021.61
619.201	17724.66
619.396	17609.97
619.591	17448.18
619.786	17714.42
619.981	17399.03
620.176	17493.24
620.371	17106.17
620.566	17356.02
620.761	17423.61
620.956	17505.52
621.151	17014.01
621.346	17106.17
621.541	16829.7
621.735	16938.24
621.93	16606.47
622.125	16856.32
622.32	16512.26
622.515	16678.15
622.709	16471.3
622.904	16233.74
623.099	16223.5
623.294	16334.09
623.488	16090.38
623.683	16321.8
623.878	15803.66
624.072	15688.98
624.267	15818
624.462	15660.31
624.656	15562
624.851	15617.3
625.046	15627.54
625.24	15492.37
625.435	15201.56
625.629	15228.18
625.824	15281.43
626.018	14978.33
626.213	14800.16
626.407	14814.49
626.602	14849.31
626.796	14949.66
626.991	14523.68
627.185	14439.72
627.38	14423.33
627.574	14333.22
627.768	14290.21
627.963	14423.33
628.157	14030.12
628.352	14122.28
628.546	13804.85
628.74	13983.02
628.935	13845.8
629.129	13882.67
629.323	13264.18
629.517	13905.2
629.712	13561.14
629.906	13708.59
630.1	13206.84
630.294	13303.09
630.489	12909.88
630.683	13350.2
630.877	13139.26
631.071	13147.45
631.265	12973.37
631.459	12995.9
631.653	12733.76
631.848	12922.17
632.042	12717.37
632.236	12997.95
632.43	12563.78
632.624	12608.83
632.818	12479.81
633.012	12676.41
633.206	12578.11
633.4	12397.89
633.594	12277.06
633.788	12463.43
633.982	12311.88
634.176	12154.18
634.369	11939.15
634.563	12164.42
634.757	11844.94
634.951	12064.07
635.145	11818.32
635.339	11853.13
635.533	11240.79
635.726	11521.36
635.92	11537.74
636.114	11664.72
636.308	11402.58
636.501	11142.49
636.695	11437.39
636.889	11128.15
637.083	10935.64
637.276	11101.53
637.47	11130.2
637.664	10818.91
637.857	10962.26
638.051	10943.83
638.244	10870.11
638.438	10833.24
638.632	10722.65
638.825	10773.85
639.019	10691.93
639.212	10589.53
639.406	10272.1
639.599	10470.75
639.793	10446.18
639.986	10077.54
640.18	10259.81
640.373	10196.32
640.567	10112.36
640.76	10169.7
640.954	9971.05
641.147	9870.7
641.34	9833.83
641.534	9993.58
641.727	9833.83
641.92	9700.72
642.114	9676.14
642.307	9868.65
642.5	9676.14
642.694	9532.78
642.887	9518.45
643.08	9563.5
643.273	9516.4
643.467	9215.35
643.66	9125.24
643.853	9051.51
644.046	9035.13
644.239	9094.52
644.432	9033.08
644.626	9274.74
644.819	8803.71
645.012	8867.19
645.205	9049.46
645.398	8893.82
645.591	8703.36
645.784	8826.23
645.977	8580.48
646.17	8625.53
646.363	8643.96
646.556	8478.08
646.749	8306.05
646.942	8529.28
647.135	8369.54
647.328	8316.29
647.521	8179.08
647.714	8263.04
647.907	8166.79
648.099	8072.58
648.292	8183.17
648.485	8080.77
648.678	8117.64
648.871	7972.23
649.064	7935.37
649.256	7931.27
649.449	7820.68
649.642	7726.47
649.835	7673.23
650.027	7865.74
650.22	7617.93
650.413	7736.71
650.605	7718.28
650.798	7581.07
650.991	7300.5
651.183	7484.81
651.376	7447.95
651.568	7523.73
651.761	7230.87
651.954	7306.64
652.146	7212.43
652.339	7320.98
652.531	7148.95
652.724	7196.05
652.916	6919.57
653.109	6956.44
653.301	6999.45
653.494	6993.3
653.686	6864.28
653.879	7046.55
654.071	6870.42
654.263	6831.51
654.456	6663.58
654.648	6815.13
654.84	6708.63
655.033	6663.58
655.225	6712.73
655.417	6671.77
655.61	6628.76
655.802	6462.88
655.994	6571.42
656.186	6520.22
656.379	6309.28
656.571	6405.53
656.763	6282.66
656.955	6360.48
657.148	6280.61
657.34	6258.08
657.532	6182.31
657.724	6188.45
657.916	6182.31
658.108	6077.86
658.3	5995.94
658.492	5985.7
658.684	5887.4
658.876	5871.01
659.068	6014.37
659.26	5979.56
659.452	5772.71
659.644	5823.91
659.836	5789.1
660.028	5950.89
660.22	5559.72
660.412	5737.9
660.604	5672.36
660.796	5625.26
660.988	5533.1
661.18	5477.8
661.372	5385.65
661.563	5666.22
661.755	5393.84
661.947	5410.22
662.139	5397.93
662.331	5295.54
662.522	5410.22
662.714	5238.19
662.906	5303.73
663.097	5100.98
663.289	5191.09
663.481	5197.23
663.673	5084.59
663.864	5096.88
664.056	5037.49
664.247	5100.98
664.439	5053.87
664.631	4935.09
664.822	4986.29
665.014	4849.08
665.205	4902.33
665.397	4955.57
665.588	4754.87
665.78	4828.6
665.971	4658.62
666.163	4861.37
666.354	4703.67
666.546	4730.3
666.737	4683.19
666.929	4787.64
667.12	4677.05
667.311	4654.52
667.503	4582.84
667.694	4591.03
667.885	4394.43
668.077	4566.46
668.268	4486.59
668.459	4595.13
668.651	4527.55
668.842	4378.05
669.033	4384.19
669.224	4255.17
669.416	4443.58
669.607	4400.57
669.798	4394.43
669.989	4509.12
670.18	4208.06
670.371	4265.41
670.563	4345.28
670.754	4222.4
670.945	4220.35
671.136	4281.79
671.327	4124.1
671.518	4165.06
671.709	4089.28
671.9	4095.43
672.091	4156.86
672.282	4068.8
672.473	4040.13
672.664	3917.25
672.855	4048.32
673.046	3954.12
673.237	4072.9
673.428	4089.28
673.619	3929.54
673.809	3827.14
674	4038.08
674.191	3927.49
674.382	3849.67
674.573	3786.18
674.764	3753.41
674.954	3923.4
675.145	3847.62
675.336	3780.04
675.527	3804.61
675.717	3765.7
675.908	3864.01
676.099	3698.12
676.289	3726.79
676.48	3696.07
676.671	3657.16
676.861	3655.11
677.052	3667.4
677.243	3804.61
677.433	3642.82
677.624	3681.74
677.814	3698.12
678.005	3464.65
678.195	3530.19
678.386	3476.94
678.576	3476.94
678.767	3466.7
678.957	3544.52
679.148	3397.07
679.338	3452.36
679.529	3481.03
679.719	3407.31
679.909	3372.49
680.1	3378.64
680.29	3362.25
680.481	3386.83
680.671	3317.2
680.861	3296.72
681.052	3327.44
681.242	3311.05
681.432	3352.01
681.622	3198.42
681.813	3345.87
682.003	3155.41
682.193	3298.77
682.383	3192.27
682.573	3202.51
682.764	3083.73
682.954	3175.89
683.144	3231.18
683.334	3255.76
683.524	3182.03
683.714	3231.18
683.904	3175.89
684.094	3145.17
684.284	3032.53
684.474	3145.17
684.664	3210.7
684.854	3214.8
685.044	3145.17
685.234	2999.76
685.424	3079.63
685.614	2966.99
685.804	2969.04
685.994	3042.77
686.184	2985.43
686.374	3010
686.564	2921.94
686.753	3149.26
686.943	2880.98
687.133	2932.18
687.323	2899.41
687.513	2932.18
687.702	2954.71
687.892	2969.04
688.082	2975.19
688.272	2850.26
688.461	3024.34
688.651	2829.78
688.841	2932.18
689.03	2866.64
689.22	2973.14
689.41	2878.93
689.599	2926.04
689.789	2880.98
689.979	2989.52
690.168	2825.68
690.358	2878.93
690.547	2819.54
690.737	2872.79
690.926	2747.86
691.116	2911.7
691.305	2864.6
691.495	2805.21
691.684	2643.42
691.874	2889.17
692.063	2866.64
692.252	2848.21
692.442	2733.53
692.631	2698.71
692.82	2672.09
693.01	2717.14
693.199	2770.39
693.388	2680.28
693.578	2741.72
693.767	2772.44
693.956	2749.91
694.146	2756.05
694.335	2745.81
694.524	2639.32
694.713	2670.04
694.902	2641.37
695.092	2686.42
695.281	2690.52
695.47	2792.92
695.659	2739.67
695.848	2661.85
696.037	2772.44
696.226	2674.14
696.415	2641.37
696.604	2641.37
696.793	2522.59
696.982	2684.38
697.171	2541.02
697.36	2647.51
697.549	2633.18
697.738	2645.46
697.927	2639.32
698.116	2684.38
698.305	2557.4
698.494	2645.46
698.683	2614.74
698.872	2545.11
699.061	2592.22
699.25	2545.11
699.438	2465.24
699.627	2518.49
699.816	2604.5
700.005	2579.93
700.193	2514.39
700.382	2461.15
700.571	2543.07
700.76	2500.06
700.948	2448.86
701.137	2561.5
701.326	2520.54
701.514	2510.3
701.703	2426.33
701.892	2547.16
702.08	2514.39
702.269	2504.15
702.457	2420.19
702.646	2440.67
702.834	2409.95
703.023	2446.81
703.212	2473.43
703.4	2412
703.589	2403.8
703.777	2391.52
703.965	2438.62
704.154	2473.43
704.342	2493.91
704.531	2477.53
704.719	2244.06
704.907	2391.52
705.096	2199.01
705.284	2338.27
705.472	2342.36
705.661	2463.19
705.849	2323.93
706.037	2280.93
706.226	2285.02
706.414	2287.07
706.602	2338.27
706.79	2364.89
706.979	2315.74
707.167	2317.79
707.355	2194.91
707.543	2190.81
707.731	2280.93
707.919	2239.97
708.107	2178.53
708.296	2227.68
708.484	2231.77
708.672	2227.68
708.86	2258.4
709.048	2268.64
709.236	2149.86
709.424	2280.93
709.612	2164.19
709.8	2145.76
709.988	2176.48
710.176	2133.47
710.364	2100.7
710.551	2123.23
710.739	2129.38
710.927	2141.66
711.115	2133.47
711.303	2078.18
711.491	2117.09
711.679	2067.94
711.866	2076.13
712.054	2014.69
712.242	2055.65
712.43	2004.45
712.617	2012.64
712.805	1975.78
712.993	2067.94
713.181	2010.59
713.368	2078.18
713.556	2035.17
713.744	1949.15
713.931	2115.04
714.119	2031.07
714.306	1977.83
714.494	1947.11
714.682	1975.78
714.869	2018.79
715.057	1934.82
715.244	1904.1
715.432	1998.31
715.619	1945.06
715.807	1924.58
715.994	1859.04
716.182	1865.19
716.369	1881.57
716.556	1877.48
716.744	1844.71
716.931	1887.72
717.119	1834.47
717.306	1881.57
717.493	1840.61
717.681	1836.52
717.868	1867.24
718.055	1922.53
718.242	1879.52
718.43	1756.65
718.617	1797.6
718.804	1789.41
718.991	1897.96
719.179	1715.69
719.366	1840.61
719.553	1746.41
719.74	1840.61
719.927	1785.32
720.114	1791.46
720.301	1799.65
720.488	1703.4
720.676	1682.92
720.863	1758.69
721.05	1701.35
721.237	1684.97
721.424	1674.73
721.611	1676.77
721.798	1635.82
721.985	1758.69
722.172	1662.44
722.358	1584.62
722.545	1625.58
722.732	1580.52
722.919	1613.29
723.106	1578.47
723.293	1744.36
723.48	1621.48
723.667	1629.67
723.853	1490.41
724.04	1639.91
724.227	1613.29
724.414	1553.9
724.6	1543.66
724.787	1639.91
724.974	1551.85
725.161	1633.77
725.347	1539.56
725.534	1525.22
725.72	1453.55
725.907	1459.69
726.094	1500.65
726.28	1463.79
726.467	1457.64
726.653	1445.35
726.84	1480.17
727.027	1500.65
727.213	1422.83
727.4	1490.41
727.586	1373.68
727.773	1455.59
727.959	1457.64
728.145	1377.77
728.332	1474.03
728.518	1451.5
728.705	1449.45
728.891	1400.3
729.077	1416.68
729.264	1465.83
729.45	1379.82
729.636	1406.44
729.823	1400.3
730.009	1388.01
730.195	1377.77
730.382	1416.68
730.568	1449.45
730.754	1478.12
730.94	1400.3
731.126	1396.2
731.313	1324.52
731.499	1306.09
731.685	1371.63
731.871	1314.28
732.057	1330.67
732.243	1267.18
732.429	1349.1
732.615	1342.96
732.801	1332.72
732.987	1242.61
733.173	1269.23
733.359	1369.58
733.545	1281.52
733.731	1289.71
733.917	1310.19
734.103	1248.75
734.289	1261.04
734.475	1236.46
734.661	1336.81
734.847	1252.84
735.033	1306.09
735.219	1281.52
735.404	1258.99
735.59	1193.45
735.776	1197.55
735.962	1265.13
736.148	1193.45
736.333	1175.02
736.519	1224.17
736.705	1158.64
736.89	1183.21
737.076	1252.84
737.262	1244.65
737.447	1220.08
737.633	1191.41
737.819	1095.15
738.004	1209.84
738.19	1250.8
738.375	1160.69
738.561	1252.84
738.747	1091.06
738.932	1082.86
739.118	1134.06
739.303	1123.82
739.489	1109.49
739.674	1136.11
739.859	1191.41
740.045	1189.36
740.23	1111.54
740.416	1109.49
740.601	1138.16
740.786	1021.42
740.972	1076.72
741.157	1021.42
741.342	1078.77
741.528	1107.44
741.713	1062.38
741.898	1002.99
742.084	1076.72
742.269	1041.9
742.454	1099.25
742.639	1025.52
742.824	1064.43
743.01	980.47
743.195	1052.14
743.38	1046
743.565	1111.54
743.75	1013.23
743.935	1060.34
744.12	970.23
744.305	951.79
744.49	994.8
744.675	947.7
744.86	957.94
745.045	1011.18
745.23	978.42
745.415	1011.18
745.6	964.08
745.785	921.07
745.97	980.47
746.155	1007.09
746.34	906.74
746.525	1005.04
746.71	953.84
746.895	892.4
747.079	894.45
747.264	910.83
747.449	964.08
747.634	888.31
747.819	830.96
748.003	925.17
748.188	898.55
748.373	867.83
748.557	957.94
748.742	935.41
748.927	804.34
749.111	859.63
749.296	849.4
749.481	912.88
749.665	865.78
749.85	767.48
750.034	810.48
750.219	876.02
750.404	916.98
750.588	857.59
750.773	806.39
750.957	892.4
751.141	822.77
751.326	820.72
751.51	833.01
751.695	806.39
751.879	765.43
752.064	757.24
752.248	835.06
752.432	765.43
752.617	824.82
752.801	826.87
752.985	710.13
753.17	808.44
753.354	708.09
753.538	851.44
753.722	734.71
753.907	673.27
754.091	769.52
754.275	716.28
754.459	660.98
754.643	730.61
754.828	706.04
755.012	644.6
755.196	671.22
755.38	687.61
755.564	703.99
755.748	669.17
755.932	777.72
756.116	654.84
756.3	654.84
756.484	663.03
756.668	699.89
756.852	685.56
757.036	747
757.22	677.37
757.404	673.27
757.588	679.41
757.772	601.59
757.956	634.36
758.14	656.89
758.323	658.93
758.507	732.66
758.691	663.03
758.875	644.6
759.059	615.93
759.242	634.36
759.426	597.49
759.61	652.79
759.794	597.49
759.977	646.65
760.161	579.06
760.345	620.02
760.528	648.69
760.712	574.97
760.895	642.55
761.079	622.07
761.263	515.58
761.446	634.36
761.63	574.97
761.813	564.73
761.997	519.67
762.18	568.82
762.364	552.44
762.547	525.82
762.731	615.93
762.914	552.44
763.098	486.9
763.281	560.63
763.464	497.14
763.648	480.76
763.831	519.67
764.015	495.1
764.198	546.3
764.381	572.92
764.564	503.29
764.748	585.21
764.931	548.34
765.114	491
765.297	472.57
765.481	574.97
765.664	441.85
765.847	452.09
766.03	523.77
766.213	525.82
766.397	568.82
766.58	505.34
766.763	568.82
766.946	462.33
767.129	562.68
767.312	462.33
767.495	497.14
767.678	523.77
767.861	544.25
768.044	534.01
768.227	540.15
768.41	486.9
768.593	499.19
768.776	560.63
768.959	486.9
769.142	513.53
769.324	478.71
769.507	538.1
769.69	470.52
769.873	454.14
770.056	521.72
770.239	478.71
770.421	462.33
770.604	491
770.787	476.66
770.97	450.04
771.152	474.62
771.335	421.37
771.518	355.83
771.7	388.6
771.883	411.13
772.066	478.71
772.248	466.42
772.431	431.61
772.613	470.52
772.796	480.76
772.978	462.33
773.161	452.09
773.343	558.58
773.526	417.27
773.708	464.38
773.891	339.45
774.073	443.9
774.256	450.04
774.438	447.99
774.621	450.04
774.803	384.51
774.985	353.79
775.168	525.82
775.35	425.47
775.532	447.99
775.715	417.27
775.897	503.29
776.079	413.18
776.261	454.14
776.444	429.56
776.626	417.27
776.808	374.27
776.99	298.49
777.173	368.12
777.355	472.57
777.537	390.65
777.719	439.8
777.901	466.42
778.083	359.93
778.265	323.07
778.447	376.31
778.629	343.55
778.811	407.03
778.993	298.49
779.175	447.99
779.357	325.12
779.539	325.12
779.721	327.16
779.903	345.59
780.085	361.98
780.267	347.64
780.449	368.12
780.631	398.84
780.812	398.84
780.994	382.46
781.176	271.87
781.358	310.78
781.54	333.31
781.721	341.5
781.903	282.11
782.085	265.72
782.267	337.4
782.448	314.88
782.63	310.78
782.812	337.4
782.993	318.97
783.175	325.12
783.357	286.2
783.538	228.86
783.72	357.88
783.901	286.2
784.083	372.22
784.264	251.39
784.446	364.03
784.627	284.16
784.809	243.2
784.99	300.54
785.172	316.92
785.353	247.29
785.535	253.44
785.716	249.34
785.897	282.11
786.079	325.12
786.26	237.05
786.441	255.48
786.623	290.3
786.804	282.11
786.985	245.24
787.167	257.53
787.348	245.24
787.529	308.73
787.71	226.81
787.891	271.87
788.073	251.39
788.254	284.16
788.435	275.96
788.616	306.68
788.797	228.86
788.978	232.96
789.159	261.63
789.34	200.19
789.522	183.81
789.703	237.05
789.884	312.83
790.065	241.15
790.246	294.4
790.427	239.1
790.607	151.04
790.788	275.96
790.969	210.43
791.15	196.09
791.331	257.53
791.512	198.14
791.693	179.71
791.874	253.44
792.054	187.9
792.235	273.92
792.416	218.62
792.597	130.56
792.778	187.9
792.958	192
793.139	216.57
793.32	235
793.5	87.55
793.681	251.39
793.862	280.06
794.042	159.23
794.223	187.9
794.404	202.24
794.584	144.89
794.765	218.62
794.945	194.05
795.126	220.67
795.306	185.85
795.487	228.86
795.667	165.37
795.848	216.57
796.028	179.71
796.209	175.61
796.389	120.32
796.57	134.65
796.75	118.27
796.93	230.91
797.111	163.33
797.291	110.08
797.471	208.38
797.652	183.81
797.832	161.28
798.012	259.58
798.192	153.09
798.373	247.29
798.553	146.94
798.733	192
798.913	157.18
799.093	167.42
799.274	128.51
799.454	67.07
799.634	153.09
799.814	142.85
799.994	173.57
800.174	204.28
800.354	126.46
800.534	77.31
800.714	153.09
800.894	128.51
801.074	118.27
801.254	148.99
801.434	202.24
801.614	134.65
801.794	183.81
801.974	327.16
802.154	151.04
802.334	183.81
802.514	175.61
802.693	187.9
802.873	146.94
803.053	120.32
803.233	173.57
803.413	120.32
803.592	146.94
803.772	202.24
803.952	161.28
804.131	67.07
804.311	120.32
804.491	155.13
804.67	220.67
804.85	130.56
805.03	183.81
805.209	134.65
805.389	171.52
805.568	91.65
805.748	69.12
805.928	151.04
806.107	52.74
806.287	142.85
806.466	69.12
806.646	165.37
806.825	81.41
807.004	126.46
807.184	91.65
807.363	235
807.543	194.05
807.722	142.85
807.901	161.28
808.081	185.85
808.26	110.08
808.439	85.5
808.619	179.71
808.798	126.46
808.977	75.26
809.156	181.76
809.336	83.45
809.515	110.08
809.694	155.13
809.873	175.61
810.052	128.51
810.231	105.98
810.411	124.41
810.59	69.12
810.769	110.08
810.948	126.46
811.127	81.41
811.306	112.13
811.485	71.17
811.664	183.81
811.843	38.4
812.022	110.08
812.201	26.11
812.38	50.69
812.559	103.93
812.737	140.8
812.916	85.5
813.095	148.99
813.274	91.65
813.453	81.41
813.632	105.98
813.811	126.46
813.989	118.27
814.168	48.64
814.347	83.45
814.526	103.93
814.704	159.23
814.883	30.21
815.062	83.45
815.24	69.12
815.419	15.87
815.598	128.51
815.776	42.5
815.955	177.66
816.133	19.97
816.312	73.21
816.49	67.07
816.669	22.02
816.847	151.04
817.026	83.45
817.204	30.21
817.383	38.4
817.561	28.16
817.74	71.17
817.918	83.45
818.097	118.27
818.275	114.17
818.453	132.61
818.632	110.08
818.81	120.32
818.988	62.98
819.167	69.12
819.345	97.79
819.523	101.89
819.701	126.46
819.879	136.7
820.058	7.68
820.236	130.56
820.414	69.12
820.592	108.03
820.77	69.12
820.948	46.59
821.127	118.27
821.305	99.84
821.483	60.93
821.661	110.08
821.839	93.69
822.017	19.97
822.195	30.21
822.373	52.74
822.551	52.74
822.729	79.36
822.907	48.64
823.085	132.61
823.262	62.98
823.44	-8.7
823.618	128.51
823.796	77.31
823.974	40.45
824.152	5.63
824.329	67.07
824.507	97.79
824.685	30.21
824.863	103.93
825.04	89.6
825.218	159.23
825.396	52.74
825.574	93.69
825.751	48.64
825.929	112.13
826.107	13.82
826.284	103.93
826.462	34.3
826.639	132.61
826.817	134.65
826.994	34.3
827.172	73.21
827.349	54.78
827.527	155.13
827.704	99.84
827.882	73.21
828.059	85.5
828.237	30.21
828.414	1.54
828.591	67.07
828.769	40.45
828.946	28.16
829.124	42.5
829.301	81.41
829.478	-4.61
829.655	62.98
829.833	34.3
830.01	15.87
830.187	58.88
830.364	19.97
830.542	54.78
830.719	34.3
830.896	46.59
831.073	62.98
831.25	46.59
831.427	65.02
831.604	79.36
831.782	67.07
831.959	22.02
832.136	79.36
832.313	34.3
832.49	3.58
832.667	91.65
832.844	60.93
833.021	75.26
833.198	-0.51
833.374	122.37
833.551	108.03
833.728	38.4
833.905	118.27
834.082	48.64
834.259	-20.99
834.436	97.79
834.612	44.54
834.789	48.64
834.966	60.93
835.143	73.21
835.319	73.21
835.496	95.74
835.673	30.21
835.85	19.97
836.026	65.02
836.203	85.5
836.38	46.59
836.556	60.93
836.733	11.78
836.909	11.78
837.086	30.21
837.262	71.17
837.439	56.83
837.616	13.82
837.792	22.02
837.968	36.35
838.145	22.02
838.321	42.5
838.498	34.3
838.674	79.36
838.851	52.74
839.027	-29.18
839.203	-2.56
839.38	50.69
839.556	46.59
839.732	71.17
839.909	52.74
840.085	56.83
840.261	44.54
840.437	69.12
840.614	118.27
840.79	13.82
840.966	42.5
841.142	46.59
841.318	34.3
841.494	-12.8
841.671	71.17
841.847	44.54
842.023	17.92
842.199	22.02
842.375	-2.56
842.551	62.98
842.727	71.17
842.903	62.98
843.079	40.45
843.255	-4.61
843.431	15.87
843.607	73.21
843.783	28.16
843.959	79.36
844.134	81.41
844.31	81.41
844.486	97.79
844.662	-10.75
844.838	-20.99
845.013	112.13
845.189	36.35
845.365	-29.18
845.541	9.73
845.716	60.93
845.892	52.74
846.068	13.82
846.244	85.5
846.419	40.45
846.595	-10.75
846.77	46.59
846.946	-14.85
847.122	50.69
847.297	28.16
847.473	22.02
847.648	99.84
847.824	46.59
847.999	62.98
848.175	-12.8
848.35	67.07
848.526	38.4
848.701	71.17
848.876	7.68
849.052	85.5
849.227	15.87
849.403	-8.7
849.578	34.3
849.753	-37.38
849.929	58.88
850.104	-57.86
850.279	30.21
850.454	-10.75
850.63	134.65
850.805	-45.57
850.98	134.65
851.155	9.73
851.33	32.26
851.505	-29.18
851.681	-2.56
851.856	44.54
852.031	65.02
852.206	-39.42
852.381	32.26
852.556	97.79
852.731	-70.14
852.906	7.68
853.081	19.97
853.256	-31.23
853.431	101.89
853.606	60.93
853.781	36.35
853.956	-18.94
854.131	22.02
854.305	1.54
854.48	-20.99
854.655	3.58
854.83	32.26
855.005	11.78
855.18	-10.75
855.354	-6.66
855.529	3.58
855.704	48.64
855.879	93.69
856.053	19.97
856.228	52.74
856.403	28.16
856.577	-0.51
856.752	19.97
856.926	1.54
857.101	77.31
857.276	69.12
857.45	42.5
857.625	38.4
857.799	58.88
857.974	52.74
858.148	34.3
858.323	52.74
858.497	-14.85
858.672	62.98
858.846	52.74
859.02	71.17
859.195	60.93
859.369	-10.75
859.543	36.35
859.718	38.4
859.892	28.16
860.066	19.97
860.241	11.78
860.415	62.98
860.589	30.21
860.763	44.54
860.938	30.21
861.112	36.35
861.286	60.93
861.46	7.68
861.634	17.92
861.808	48.64
861.982	-0.51
862.157	13.82
862.331	87.55
862.505	-20.99
862.679	77.31
862.853	-18.94
863.027	40.45
863.201	-37.38
863.375	26.11
863.549	11.78
863.722	40.45
863.896	65.02
864.07	26.11
864.244	5.63
864.418	46.59
864.592	87.55
864.766	-16.9
864.939	48.64
865.113	36.35
865.287	19.97
865.461	-14.85
865.634	42.5
865.808	48.64
865.982	-37.38
866.156	-8.7
866.329	-18.94
866.503	-25.09
866.676	3.58
866.85	-10.75
867.024	-61.95
867.197	-12.8
867.371	85.5
867.544	-4.61
867.718	32.26
867.891	3.58
868.065	22.02
868.238	11.78
868.412	22.02
868.585	17.92
868.759	22.02
868.932	46.59
869.105	3.58
869.279	17.92
869.452	44.54
869.625	34.3
869.799	36.35
869.972	-29.18
870.145	19.97
870.319	46.59
870.492	11.78
870.665	3.58
870.838	36.35
871.011	-2.56
871.185	58.88
871.358	52.74
871.531	62.98
871.704	15.87
871.877	28.16
872.05	11.78
872.223	3.58
872.396	-33.28
872.569	60.93
872.742	79.36
872.915	-25.09
873.088	48.64
873.261	24.06
873.434	52.74
873.607	54.78
873.78	24.06
873.953	24.06
874.126	-20.99
874.299	42.5
874.471	7.68
874.644	40.45
874.817	-12.8
874.99	44.54
875.163	13.82
875.335	93.69
875.508	17.92
875.681	13.82
875.853	44.54
876.026	114.17
876.199	-18.94
876.371	3.58
876.544	-31.23
876.717	52.74
876.889	30.21
877.062	60.93
877.234	54.78
877.407	-10.75
877.579	11.78
877.752	-6.66
877.924	-8.7
878.097	19.97
878.269	60.93
878.442	-4.61
878.614	17.92
878.786	105.98
878.959	40.45
879.131	-10.75
879.303	36.35
879.476	-8.7
879.648	52.74
879.82	36.35
879.993	-74.24
880.165	77.31
880.337	-45.57
880.509	30.21
880.681	-25.09
880.854	56.83
881.026	71.17
881.198	93.69
881.37	-2.56
881.542	105.98
881.714	11.78
881.886	-102.91
882.058	24.06
882.23	36.35
882.402	-14.85
882.574	-37.38
882.746	-8.7
882.918	28.16
883.09	46.59
883.262	44.54
883.434	-0.51
883.606	75.26
883.778	24.06
883.95	5.63
884.122	-8.7
884.293	13.82
884.465	-25.09
884.637	56.83
884.809	-31.23
884.98	22.02
885.152	28.16
885.324	-29.18
885.496	-4.61
885.667	60.93
885.839	7.68
886.011	-37.38
886.182	60.93
886.354	-4.61
886.525	1.54
886.697	48.64
886.869	19.97
887.04	54.78
887.212	28.16
887.383	93.69
887.555	44.54
887.726	24.06
887.897	83.45
888.069	95.74
888.24	95.74
888.412	44.54
888.583	48.64
888.754	38.4
888.926	13.82
889.097	46.59
889.268	-10.75
889.44	-86.53
889.611	22.02
889.782	24.06
889.953	-6.66
890.125	-4.61
890.296	15.87
890.467	9.73
890.638	28.16
890.809	40.45
890.98	3.58
891.151	-20.99
891.323	26.11
891.494	-10.75
891.665	32.26
891.836	-12.8
892.007	13.82
892.178	15.87
892.349	28.16
892.52	9.73
892.691	-6.66
892.862	-4.61
893.032	11.78
893.203	-41.47
893.374	-18.94
893.545	34.3
893.716	-16.9
893.887	36.35
894.057	13.82
894.228	32.26
894.399	44.54
894.57	3.58
894.74	50.69
894.911	-4.61
895.082	1.54
895.253	24.06
895.423	69.12
895.594	13.82
895.764	52.74
895.935	44.54
896.106	48.64
896.276	-12.8
896.447	32.26
896.617	28.16
896.788	15.87
896.958	-51.71
897.129	-2.56
897.299	71.17
897.47	87.55
897.64	28.16
897.81	62.98
897.981	46.59
898.151	-4.61
898.322	3.58
898.492	48.64
898.662	65.02
898.832	-29.18
899.003	3.58
899.173	38.4
899.343	3.58
899.513	26.11
