Data from USB4F104151__284__14-02-30-399.txt Node

Date: Thu Mar 13 14:02:30 EDT 2025
User: louis
Spectrometer: USB4F10415
Trigger mode: 4
Integration Time (sec): 1.000000E-2
Scans to average: 1
Electric dark correction enabled: true
Nonlinearity correction enabled: false
Boxcar width: 0
XAxis mode: Wavelengths
Number of Pixels in Spectrum: 3648
>>>>>Begin Spectral Data<<<<<
178.204	-69.63
178.424	-69.63
178.644	-69.63
178.864	-45.06
179.084	-49.15
179.304	-16.38
179.524	8.19
179.744	-24.58
179.964	16.38
180.184	-45.06
180.404	-20.48
180.624	22.53
180.844	18.43
181.064	24.58
181.283	-43.01
181.503	22.53
181.723	36.86
181.943	-6.14
182.163	40.96
182.383	-28.67
182.602	-38.91
182.822	4.1
183.042	28.67
183.262	-59.39
183.482	-69.63
183.701	-32.77
183.921	-45.06
184.141	-12.29
184.361	47.1
184.58	-4.1
184.8	-4.1
185.02	-26.62
185.239	-24.58
185.459	69.63
185.679	49.15
185.898	-38.91
186.118	55.3
186.338	-18.43
186.557	8.19
186.777	4.1
186.997	26.62
187.216	14.34
187.436	28.67
187.655	-12.29
187.875	61.44
188.095	28.67
188.314	-4.1
188.534	10.24
188.753	14.34
188.973	53.25
189.192	36.86
189.412	22.53
189.631	6.14
189.851	-16.38
190.07	-20.48
190.29	-18.43
190.509	-34.82
190.729	12.29
190.948	14.34
191.168	94.21
191.387	8.19
191.607	-53.25
191.826	-47.1
192.045	14.34
192.265	-81.92
192.484	-26.62
192.704	83.97
192.923	67.58
193.142	49.15
193.362	-10.24
193.581	18.43
193.8	102.4
194.02	-69.63
194.239	-40.96
194.458	-34.82
194.678	4.1
194.897	-10.24
195.116	2.05
195.335	67.58
195.555	-45.06
195.774	-10.24
195.993	-12.29
196.212	36.86
196.432	61.44
196.651	-57.34
196.87	-53.25
197.089	69.63
197.308	30.72
197.528	61.44
197.747	-59.39
197.966	-8.19
198.185	-8.19
198.404	6.14
198.623	-40.96
198.842	12.29
199.062	126.97
199.281	38.91
199.5	-2.05
199.719	43.01
199.938	-43.01
200.157	24.58
200.376	18.43
200.595	61.44
200.814	-2.05
201.033	2.05
201.252	30.72
201.471	-4.1
201.69	14.34
201.909	-36.86
202.128	32.77
202.347	-45.06
202.566	4.1
202.785	-12.29
203.004	-92.16
203.223	22.53
203.442	-14.34
203.661	20.48
203.879	-10.24
204.098	40.96
204.317	51.2
204.536	18.43
204.755	-26.62
204.974	45.06
205.193	-4.1
205.411	51.2
205.63	24.58
205.849	38.91
206.068	-43.01
206.287	-10.24
206.505	53.25
206.724	55.3
206.943	-22.53
207.162	-8.19
207.381	30.72
207.599	57.34
207.818	-34.82
208.037	40.96
208.255	-34.82
208.474	67.58
208.693	32.77
208.911	69.63
209.13	22.53
209.349	8.19
209.567	69.63
209.786	12.29
210.005	-59.39
210.223	18.43
210.442	14.34
210.661	-53.25
210.879	2.05
211.098	-65.53
211.316	28.67
211.535	47.1
211.753	-14.34
211.972	47.1
212.191	8.19
212.409	6.14
212.628	67.58
212.846	36.86
213.065	6.14
213.283	57.34
213.502	6.14
213.72	-8.19
213.938	8.19
214.157	-24.58
214.375	16.38
214.594	34.82
214.812	38.91
215.031	4.1
215.249	28.67
215.467	0
215.686	-22.53
215.904	75.77
216.122	73.73
216.341	69.63
216.559	-38.91
216.778	57.34
216.996	65.54
217.214	-43.01
217.432	61.44
217.651	-16.38
217.869	16.38
218.087	-6.14
218.306	-90.11
218.524	4.1
218.742	4.1
218.96	-69.63
219.179	14.34
219.397	47.1
219.615	-10.24
219.833	53.25
220.051	45.06
220.27	69.63
220.488	4.1
220.706	4.1
220.924	-71.68
221.142	6.14
221.36	4.1
221.578	-24.58
221.796	88.06
222.015	51.2
222.233	-53.25
222.451	36.86
222.669	30.72
222.887	-18.43
223.105	-20.48
223.323	4.1
223.541	-6.14
223.759	-2.05
223.977	-40.96
224.195	12.29
224.413	-8.19
224.631	20.48
224.849	36.86
225.067	14.34
225.285	-12.29
225.503	-28.67
225.721	-4.1
225.939	-28.67
226.157	-40.96
226.375	38.91
226.592	38.91
226.81	57.34
227.028	8.19
227.246	-18.43
227.464	-45.06
227.682	-4.1
227.9	2.05
228.117	43.01
228.335	0
228.553	12.29
228.771	-20.48
228.989	-28.67
229.206	-4.1
229.424	-32.77
229.642	30.72
229.86	12.29
230.077	24.58
230.295	12.29
230.513	55.3
230.731	92.16
230.948	-8.19
231.166	47.1
231.384	-14.34
231.601	-40.96
231.819	-14.34
232.037	-12.29
232.254	-4.1
232.472	40.96
232.689	53.25
232.907	53.25
233.125	0
233.342	65.54
233.56	30.72
233.777	0
233.995	-75.77
234.213	32.77
234.43	6.14
234.648	-24.58
234.865	47.1
235.083	55.3
235.3	-12.29
235.518	-24.58
235.735	16.38
235.953	-18.43
236.17	26.62
236.388	36.86
236.605	22.53
236.822	40.96
237.04	63.49
237.257	38.91
237.475	26.62
237.692	14.34
237.909	28.67
238.127	-40.96
238.344	-12.29
238.562	24.58
238.779	8.19
238.996	4.1
239.214	16.38
239.431	28.67
239.648	61.44
239.865	59.39
240.083	65.54
240.3	-36.86
240.517	24.58
240.735	-28.67
240.952	40.96
241.169	22.53
241.386	40.96
241.603	16.38
241.821	-26.62
242.038	67.58
242.255	-26.62
242.472	-36.86
242.689	22.53
242.907	63.49
243.124	30.72
243.341	18.43
243.558	18.43
243.775	8.19
243.992	-10.24
244.209	-61.44
244.426	22.53
244.643	14.34
244.86	-20.48
245.078	34.82
245.295	-51.2
245.512	-26.62
245.729	-86.01
245.946	-36.86
246.163	16.38
246.38	16.38
246.597	-43.01
246.814	36.86
247.031	-4.1
247.248	-43.01
247.464	-43.01
247.681	6.14
247.898	-45.06
248.115	36.86
248.332	28.67
248.549	-28.67
248.766	16.38
248.983	30.72
249.2	45.06
249.417	4.1
249.633	-4.1
249.85	-10.24
250.067	28.67
250.284	14.34
250.501	92.16
250.717	-63.49
250.934	-14.34
251.151	-32.77
251.368	-8.19
251.585	-16.38
251.801	14.34
252.018	4.1
252.235	-20.48
252.451	16.38
252.668	45.06
252.885	30.72
253.102	28.67
253.318	26.62
253.535	88.06
253.752	32.77
253.968	-43.01
254.185	20.48
254.401	24.58
254.618	51.2
254.835	-26.62
255.051	0
255.268	32.77
255.484	-53.25
255.701	-16.38
255.917	4.1
256.134	59.39
256.351	-4.1
256.567	40.96
256.784	-28.67
257	24.58
257.217	-12.29
257.433	20.48
257.65	36.86
257.866	-49.15
258.082	28.67
258.299	-38.91
258.515	-12.29
258.732	-14.34
258.948	16.38
259.165	53.25
259.381	-12.29
259.597	-20.48
259.814	26.62
260.03	30.72
260.246	4.1
260.463	51.2
260.679	53.25
260.895	14.34
261.112	38.91
261.328	-14.34
261.544	-4.1
261.761	61.44
261.977	47.1
262.193	-59.39
262.409	36.86
262.626	-2.05
262.842	61.44
263.058	20.48
263.274	28.67
263.49	-34.82
263.707	-2.05
263.923	26.62
264.139	-59.39
264.355	75.77
264.571	47.1
264.787	14.34
265.004	-12.29
265.22	104.45
265.436	-14.34
265.652	24.58
265.868	6.14
266.084	10.24
266.3	-6.14
266.516	-10.24
266.732	4.1
266.948	20.48
267.164	47.1
267.38	57.34
267.596	-18.43
267.812	-12.29
268.028	69.63
268.244	55.3
268.46	28.67
268.676	53.25
268.892	16.38
269.108	-10.24
269.324	38.91
269.54	-38.91
269.756	55.3
269.972	-12.29
270.188	14.34
270.403	-20.48
270.619	34.82
270.835	40.96
271.051	30.72
271.267	16.38
271.483	-88.06
271.698	6.14
271.914	53.25
272.13	-14.34
272.346	-12.29
272.562	-43.01
272.777	43.01
272.993	36.86
273.209	-2.05
273.425	-8.19
273.64	38.91
273.856	4.1
274.072	-2.05
274.287	-10.24
274.503	-10.24
274.719	22.53
274.934	45.06
275.15	49.15
275.366	-10.24
275.581	22.53
275.797	81.92
276.012	6.14
276.228	40.96
276.444	0
276.659	-24.58
276.875	63.49
277.09	55.3
277.306	30.72
277.521	8.19
277.737	20.48
277.952	20.48
278.168	-16.38
278.383	24.58
278.599	-4.1
278.814	45.06
279.03	16.38
279.245	-55.3
279.461	71.68
279.676	36.86
279.892	88.06
280.107	6.14
280.322	73.73
280.538	-34.82
280.753	61.44
280.969	2.05
281.184	-8.19
281.399	6.14
281.615	-4.1
281.83	-10.24
282.045	-24.58
282.26	81.92
282.476	-8.19
282.691	24.58
282.906	-10.24
283.122	57.34
283.337	22.53
283.552	20.48
283.767	36.86
283.983	77.82
284.198	71.68
284.413	71.68
284.628	10.24
284.843	43.01
285.058	26.62
285.274	61.44
285.489	-36.86
285.704	53.25
285.919	12.29
286.134	8.19
286.349	8.19
286.564	-73.73
286.779	45.06
286.995	88.06
287.21	-40.96
287.425	38.91
287.64	32.77
287.855	24.58
288.07	-49.15
288.285	8.19
288.5	-28.67
288.715	45.06
288.93	61.44
289.145	26.62
289.36	0
289.575	-24.58
289.79	6.14
290.004	-2.05
290.219	26.62
290.434	28.67
290.649	20.48
290.864	45.06
291.079	-20.48
291.294	-6.14
291.509	26.62
291.724	49.15
291.938	0
292.153	90.11
292.368	24.58
292.583	-12.29
292.798	-20.48
293.012	40.96
293.227	36.86
293.442	24.58
293.657	-34.82
293.871	14.34
294.086	61.44
294.301	-4.1
294.516	32.77
294.73	-18.43
294.945	16.38
295.16	55.3
295.374	4.1
295.589	51.2
295.804	65.54
296.018	-24.58
296.233	51.2
296.447	-30.72
296.662	-12.29
296.877	69.63
297.091	63.49
297.306	63.49
297.52	4.1
297.735	30.72
297.949	-12.29
298.164	-4.1
298.378	45.06
298.593	20.48
298.807	-20.48
299.022	2.05
299.236	38.91
299.451	32.77
299.665	65.54
299.88	22.53
300.094	12.29
300.309	88.06
300.523	45.06
300.737	-4.1
300.952	34.82
301.166	71.68
301.381	-49.15
301.595	16.38
301.809	22.53
302.024	55.3
302.238	-30.72
302.452	55.3
302.667	-34.82
302.881	-30.72
303.095	20.48
303.309	65.54
303.524	-10.24
303.738	30.72
303.952	-24.58
304.166	40.96
304.381	4.1
304.595	55.3
304.809	20.48
305.023	14.34
305.237	20.48
305.452	28.67
305.666	8.19
305.88	6.14
306.094	47.1
306.308	34.82
306.522	47.1
306.736	28.67
306.95	0
307.164	94.21
307.379	-55.3
307.593	28.67
307.807	49.15
308.021	-2.05
308.235	8.19
308.449	24.58
308.663	-40.96
308.877	32.77
309.091	57.34
309.305	8.19
309.519	16.38
309.733	30.72
309.947	6.14
310.161	2.05
310.374	12.29
310.588	22.53
310.802	-10.24
311.016	28.67
311.23	2.05
311.444	28.67
311.658	20.48
311.872	18.43
312.085	14.34
312.299	32.77
312.513	14.34
312.727	69.63
312.941	-8.19
313.154	-86.01
313.368	126.97
313.582	30.72
313.796	69.63
314.009	10.24
314.223	22.53
314.437	-26.62
314.651	-24.58
314.864	45.06
315.078	86.01
315.292	-4.1
315.505	-16.38
315.719	73.73
315.933	36.86
316.146	92.16
316.36	14.34
316.573	-32.77
316.787	-10.24
317.001	38.91
317.214	6.14
317.428	-26.62
317.641	16.38
317.855	30.72
318.068	0
318.282	4.1
318.495	120.83
318.709	0
318.922	-6.14
319.136	8.19
319.349	120.83
319.563	20.48
319.776	-10.24
319.99	43.01
320.203	4.1
320.417	69.63
320.63	-2.05
320.843	77.82
321.057	67.58
321.27	10.24
321.483	4.1
321.697	81.92
321.91	20.48
322.124	32.77
322.337	-4.1
322.55	36.86
322.763	20.48
322.977	-4.1
323.19	-22.53
323.403	53.25
323.617	65.54
323.83	86.01
324.043	34.82
324.256	24.58
324.469	-10.24
324.683	26.62
324.896	36.86
325.109	10.24
325.322	-20.48
325.535	22.53
325.748	22.53
325.962	-12.29
326.175	49.15
326.388	-4.1
326.601	73.73
326.814	2.05
327.027	-8.19
327.24	65.54
327.453	38.91
327.666	135.17
327.879	-8.19
328.092	53.25
328.305	22.53
328.518	26.62
328.731	22.53
328.944	63.49
329.157	90.11
329.37	-2.05
329.583	2.05
329.796	118.78
330.009	71.68
330.222	63.49
330.435	0
330.648	90.11
330.861	55.3
331.073	12.29
331.286	-43.01
331.499	26.62
331.712	14.34
331.925	22.53
332.138	-6.14
332.35	45.06
332.563	36.86
332.776	-16.38
332.989	-16.38
333.202	47.1
333.414	6.14
333.627	28.67
333.84	36.86
334.053	-14.34
334.265	40.96
334.478	36.86
334.691	26.62
334.903	43.01
335.116	-24.58
335.329	12.29
335.541	102.4
335.754	75.77
335.966	61.44
336.179	47.1
336.392	30.72
336.604	16.38
336.817	-16.38
337.029	61.44
337.242	61.44
337.454	18.43
337.667	20.48
337.88	-2.05
338.092	65.54
338.305	28.67
338.517	65.54
338.729	86.01
338.942	83.97
339.154	34.82
339.367	-4.1
339.579	-24.58
339.792	28.67
340.004	-67.58
340.217	61.44
340.429	-32.77
340.641	6.14
340.854	-20.48
341.066	-12.29
341.278	-20.48
341.491	2.05
341.703	24.58
341.915	18.43
342.128	-36.86
342.34	8.19
342.552	14.34
342.764	0
342.977	94.21
343.189	-32.77
343.401	73.73
343.613	-34.82
343.826	10.24
344.038	55.3
344.25	63.49
344.462	-100.35
344.674	47.1
344.886	49.15
345.099	69.63
345.311	40.96
345.523	71.68
345.735	36.86
345.947	32.77
346.159	40.96
346.371	26.62
346.583	40.96
346.795	34.82
347.007	71.68
347.219	49.15
347.431	-38.91
347.643	0
347.855	63.49
348.067	10.24
348.279	65.54
348.491	14.34
348.703	2.05
348.915	22.53
349.127	16.38
349.339	38.91
349.551	24.58
349.763	49.15
349.975	-40.96
350.187	-26.62
350.399	59.39
350.61	18.43
350.822	63.49
351.034	32.77
351.246	45.06
351.458	20.48
351.669	-4.1
351.881	-30.72
352.093	26.62
352.305	94.21
352.517	16.38
352.728	36.86
352.94	49.15
353.152	55.3
353.363	4.1
353.575	47.1
353.787	36.86
353.999	-2.05
354.21	45.06
354.422	8.19
354.633	-10.24
354.845	22.53
355.057	6.14
355.268	-10.24
355.48	-20.48
355.692	53.25
355.903	-40.96
356.115	106.49
356.326	28.67
356.538	61.44
356.749	-10.24
356.961	88.06
357.172	12.29
357.384	86.01
357.595	55.3
357.807	-2.05
358.018	20.48
358.23	-30.72
358.441	18.43
358.653	71.68
358.864	22.53
359.075	86.01
359.287	55.3
359.498	83.97
359.709	4.1
359.921	-45.06
360.132	8.19
360.344	98.3
360.555	22.53
360.766	94.21
360.977	-61.44
361.189	65.54
361.4	36.86
361.611	36.86
361.823	40.96
362.034	53.25
362.245	36.86
362.456	14.34
362.667	-14.34
362.879	118.78
363.09	14.34
363.301	47.1
363.512	18.43
363.723	59.39
363.935	10.24
364.146	24.58
364.357	4.1
364.568	90.11
364.779	8.19
364.99	-20.48
365.201	51.2
365.412	32.77
365.623	77.82
365.834	45.06
366.045	61.44
366.256	26.62
366.467	55.3
366.678	-47.1
366.889	71.68
367.1	4.1
367.311	8.19
367.522	36.86
367.733	86.01
367.944	-45.06
368.155	6.14
368.366	79.87
368.577	96.25
368.788	61.44
368.999	16.38
369.209	75.77
369.42	22.53
369.631	28.67
369.842	65.54
370.053	38.91
370.264	-8.19
370.474	94.21
370.685	6.14
370.896	38.91
371.107	53.25
371.317	86.01
371.528	-4.1
371.739	88.06
371.95	30.72
372.16	38.91
372.371	-43.01
372.582	47.1
372.792	-12.29
373.003	-10.24
373.214	22.53
373.424	61.44
373.635	51.2
373.846	96.25
374.056	69.63
374.267	59.39
374.477	8.19
374.688	-10.24
374.898	36.86
375.109	28.67
375.319	137.21
375.53	12.29
375.74	67.58
375.951	69.63
376.161	45.06
376.372	12.29
376.582	47.1
376.793	88.06
377.003	2.05
377.214	24.58
377.424	73.73
377.635	-12.29
377.845	24.58
378.055	135.17
378.266	43.01
378.476	28.67
378.686	43.01
378.897	129.02
379.107	45.06
379.317	59.39
379.528	30.72
379.738	65.54
379.948	67.58
380.158	24.58
380.369	28.67
380.579	75.77
380.789	34.82
380.999	28.67
381.21	73.73
381.42	108.54
381.63	69.63
381.84	18.43
382.05	47.1
382.261	73.73
382.471	65.54
382.681	73.73
382.891	-10.24
383.101	88.06
383.311	16.38
383.521	59.39
383.731	92.16
383.941	86.01
384.151	22.53
384.361	71.68
384.571	-47.1
384.781	32.77
384.991	47.1
385.201	92.16
385.411	-2.05
385.621	-24.58
385.831	110.59
386.041	79.87
386.251	110.59
386.461	90.11
386.671	108.54
386.881	118.78
387.091	22.53
387.301	65.54
387.511	28.67
387.72	30.72
387.93	81.92
388.14	61.44
388.35	55.3
388.56	32.77
388.769	38.91
388.979	-4.1
389.189	-12.29
389.399	36.86
389.609	-18.43
389.818	12.29
390.028	18.43
390.238	73.73
390.447	96.25
390.657	75.77
390.867	34.82
391.076	49.15
391.286	61.44
391.496	163.84
391.705	104.45
391.915	63.49
392.125	30.72
392.334	24.58
392.544	16.38
392.753	-12.29
392.963	43.01
393.172	53.25
393.382	71.68
393.591	28.67
393.801	61.44
394.01	86.01
394.22	49.15
394.429	75.77
394.639	43.01
394.848	61.44
395.058	73.73
395.267	69.63
395.477	88.06
395.686	71.68
395.895	120.83
396.105	122.88
396.314	4.1
396.524	61.44
396.733	69.63
396.942	102.4
397.152	51.2
397.361	180.22
397.57	118.78
397.78	98.3
397.989	90.11
398.198	165.89
398.407	59.39
398.617	102.4
398.826	108.54
399.035	110.59
399.244	20.48
399.453	86.01
399.663	88.06
399.872	90.11
400.081	96.25
400.29	88.06
400.499	61.44
400.708	161.79
400.917	120.83
401.127	79.87
401.336	104.45
401.545	129.02
401.754	126.97
401.963	108.54
402.172	122.88
402.381	192.51
402.59	163.84
402.799	90.11
403.008	98.3
403.217	100.35
403.426	137.21
403.635	120.83
403.844	135.17
404.053	151.55
404.262	81.92
404.471	147.45
404.68	75.77
404.888	79.87
405.097	86.01
405.306	110.59
405.515	208.89
405.724	172.03
405.933	245.76
406.142	147.45
406.35	102.4
406.559	165.89
406.768	258.04
406.977	235.52
407.185	147.45
407.394	219.13
407.603	198.65
407.812	251.9
408.02	262.14
408.229	219.13
408.438	227.32
408.646	253.95
408.855	286.72
409.064	266.24
409.272	280.57
409.481	239.61
409.69	407.55
409.898	237.56
410.107	280.57
410.315	335.87
410.524	333.82
410.733	342.01
410.941	364.54
411.15	333.82
411.358	337.91
411.567	438.27
411.775	446.46
411.984	430.07
412.192	421.88
412.401	454.65
412.609	452.6
412.818	468.98
413.026	495.61
413.234	526.33
413.443	542.71
413.651	600.05
413.86	571.38
414.068	585.72
414.276	569.34
414.485	616.44
414.693	749.56
414.901	675.83
415.11	739.32
415.318	733.17
415.526	757.75
415.734	741.36
415.943	817.14
416.151	784.37
416.359	821.24
416.567	933.87
416.776	1017.84
416.984	872.43
417.192	1056.75
417.4	1038.32
417.608	1028.08
417.817	1069.04
418.025	1126.38
418.233	1159.15
418.441	1230.83
418.649	1261.55
418.857	1265.64
419.065	1361.9
419.273	1333.23
419.481	1415.15
419.689	1607.66
419.897	1523.69
420.105	1542.12
420.313	1660.9
420.521	1693.67
420.729	1814.5
420.937	1722.34
421.145	1863.65
421.353	1945.57
421.561	1961.95
421.769	2050.02
421.977	2193.37
422.185	2072.54
422.393	2273.25
422.601	2443.23
422.809	2473.95
423.017	2422.75
423.224	2631.64
423.432	2695.13
423.64	2697.17
423.848	2848.72
424.056	2803.67
424.263	3000.27
424.471	3069.91
424.679	3063.76
424.887	3166.16
425.094	3170.26
425.302	3325.9
425.51	3481.55
425.718	3538.89
425.925	3588.04
426.133	3700.68
426.341	3936.2
426.548	4122.56
426.756	4179.9
426.964	4243.39
427.171	4495.29
427.379	4530.11
427.586	4587.45
427.794	4755.38
428.001	4980.66
428.209	5130.16
428.417	5011.38
428.624	5533.61
428.832	5357.49
429.039	5445.55
429.247	5470.12
429.454	6053.8
429.662	6479.77
429.869	5885.86
430.076	6221.73
430.284	6156.19
430.491	6381.47
430.699	6983.57
430.906	6766.49
431.114	6801.3
431.321	7329.68
431.528	7350.16
431.736	7866.25
431.943	8206.21
432.15	7681.93
432.358	7880.58
432.565	8376.19
432.772	8368
432.979	8714.11
433.187	8839.03
433.394	9080.69
433.601	9568.11
433.808	9686.89
434.016	9566.06
434.223	9860.97
434.43	10327.91
434.637	10344.29
434.844	10983.26
435.052	11272.02
435.259	11022.17
435.466	11249.49
435.673	11147.09
435.88	11652.94
436.087	12300.1
436.294	12431.17
436.501	12222.28
436.708	12339.01
436.915	12928.83
437.122	13446.96
437.329	13598.51
437.537	13629.23
437.743	14053.16
437.95	13811.5
438.157	14704.42
438.364	15118.11
438.571	14872.35
438.778	15273.75
438.985	16518.92
439.192	15861.52
439.399	16795.39
439.606	15978.25
439.813	17092.35
440.02	18099.95
440.227	17706.74
440.433	17391.35
440.64	17999.6
440.847	17966.83
441.054	18489.06
441.261	19752.66
441.467	19347.16
441.674	19998.41
441.881	20504.26
442.088	20336.33
442.294	20491.98
442.501	20618.95
442.708	21083.84
442.914	22042.29
443.121	22828.71
443.328	22517.42
443.534	23723.67
443.741	23465.63
443.948	22607.53
444.154	24641.16
444.361	24460.94
444.568	24383.12
444.774	24563.34
444.981	24706.69
445.187	25759.35
445.394	26703.46
445.6	26316.4
445.807	28956.23
446.013	27338.33
446.22	27682.39
446.426	29224.51
446.633	29216.32
446.839	30455.34
447.046	28915.27
447.252	30842.41
447.459	30643.76
447.665	30404.14
447.871	32013.85
448.078	33383.94
448.284	31626.78
448.491	32376.34
448.697	33891.83
448.903	34702.83
449.11	34807.28
449.316	33779.2
449.522	34713.07
449.728	35501.54
449.935	35847.64
450.141	35671.52
450.347	36509.14
450.553	35577.31
450.76	35685.86
450.966	37017.04
451.172	36416.98
451.378	37678.53
451.584	36744.66
451.791	37428.68
451.997	37668.29
452.203	37858.75
452.409	38139.32
452.615	37623.23
452.821	36335.06
453.027	36314.58
453.233	38184.38
453.44	36259.29
453.646	36535.76
453.852	36804.05
454.058	38047.16
454.264	36863.44
454.47	36971.98
454.676	36376.02
454.882	37483.97
455.088	34514.42
455.294	34887.15
455.5	35284.45
455.705	35624.42
455.911	34176.5
456.117	33805.82
456.323	32951.82
456.529	31495.71
456.735	32767.5
456.941	32030.23
457.147	31460.9
457.352	30486.06
457.558	30170.68
457.764	30193.2
457.97	29693.5
458.176	29085.25
458.381	28894.79
458.587	27547.23
458.793	27694.68
458.999	26220.14
459.204	28182.1
459.41	27070.05
459.616	25386.62
459.821	25513.59
460.027	25503.35
460.233	24802.95
460.438	23371.42
460.644	24059.54
460.85	22892.19
461.055	22060.72
461.261	22482.6
461.466	20676.29
461.672	20078.29
461.878	21493.43
462.083	20135.63
462.289	19699.41
462.494	19883.73
462.7	18749.15
462.905	18306.79
463.111	18974.43
463.316	19156.7
463.522	18560.74
463.727	18779.87
463.932	18355.94
464.138	18175.72
464.343	18360.04
464.549	17749.75
464.754	18534.12
464.959	18366.18
465.165	18120.43
465.37	17460.98
465.575	16912.13
465.781	17762.03
465.986	17833.71
466.191	16789.25
466.397	16658.18
466.602	15898.38
466.807	16502.53
467.012	16598.79
467.218	16461.57
467.423	16148.23
467.628	16367.37
467.833	17032.96
468.038	16477.96
468.244	16146.19
468.449	16514.82
468.654	16082.7
468.859	15705.87
469.064	15871.76
469.269	15339.29
469.474	15132.44
469.679	15566.61
469.885	15109.91
470.09	15456.02
470.295	15095.58
470.5	14829.34
470.705	15003.42
470.91	14450.47
471.115	14602.02
471.32	14640.93
471.525	14741.28
471.73	14323.49
471.935	14268.2
472.139	13829.93
472.344	13676.34
472.549	13643.57
472.754	13485.87
472.959	13297.46
473.164	13031.23
473.369	12926.78
473.574	13389.62
473.778	13201.21
473.983	12953.4
474.188	12980.03
474.393	12521.28
474.598	12437.31
474.802	12490.56
475.007	12306.24
475.212	12216.13
475.417	11962.19
475.621	11867.98
475.826	11943.75
476.031	11669.33
476.235	11491.15
476.44	11669.33
476.645	11521.87
476.849	11341.65
477.054	11186.01
477.259	10874.71
477.463	11075.41
477.668	10743.64
477.872	10981.21
478.077	10786.65
478.282	10540.9
478.486	10348.39
478.691	10145.64
478.895	10448.74
479.1	10139.49
479.304	10217.32
479.509	10039.14
479.713	10260.32
479.918	9934.7
480.122	9736.04
480.326	10112.87
480.531	9983.85
480.735	9822.06
480.94	9803.63
481.144	9989.99
481.348	9432.94
481.553	9809.77
481.757	9375.6
481.961	9678.7
482.166	9852.78
482.37	9641.84
482.574	9424.75
482.778	9596.78
482.983	9426.8
483.187	9514.86
483.391	9611.12
483.595	9428.85
483.8	9482.1
484.004	9451.38
484.208	9682.8
484.412	9361.27
484.616	9588.59
484.821	9594.73
485.025	9283.44
485.229	9748.33
485.433	9449.33
485.637	9228.15
485.841	9289.59
486.045	9516.91
486.249	9613.17
486.453	9277.3
486.657	9459.57
486.861	9465.71
487.065	9244.53
487.269	9580.4
487.473	9353.07
487.677	9576.3
487.881	9498.48
488.085	9619.31
488.289	9486.19
488.493	9623.41
488.697	9537.39
488.901	9414.51
489.105	9475.95
489.309	9609.07
489.512	9678.7
489.716	9451.38
489.92	9697.13
490.124	9398.13
490.328	9777
490.531	9760.62
490.735	9443.18
490.939	9850.73
491.143	9656.17
491.346	10000.23
491.55	9766.76
491.754	9903.98
491.958	9875.31
492.161	9967.46
492.365	9944.94
492.569	10004.33
492.772	9621.36
492.976	10198.88
493.18	10252.13
493.383	10346.34
493.587	10366.82
493.79	10510.18
493.994	10448.74
494.197	10377.06
494.401	10440.54
494.605	10436.45
494.808	10794.84
495.012	10706.78
495.215	10633.05
495.419	10696.54
495.622	11071.32
495.825	10987.35
496.029	11220.82
496.232	11290.45
496.436	11136.85
496.639	11562.83
496.843	11341.65
497.046	11865.93
497.249	12017.48
497.453	11894.6
497.656	11933.51
497.859	11994.95
498.063	12091.21
498.266	12457.79
498.469	12359.49
498.673	12402.5
498.876	12953.4
499.079	13020.99
499.282	12779.32
499.485	13219.64
499.689	13102.9
499.892	13369.14
500.095	13377.33
500.298	13702.96
500.501	13522.74
500.705	14358.31
500.908	14298.92
501.111	14366.5
501.314	14331.69
501.517	14728.99
501.72	14606.11
501.923	14921.5
502.126	15128.35
502.329	15322.9
502.532	15292.18
502.735	15771.41
502.938	15957.77
503.141	16006.92
503.344	16240.39
503.547	16350.98
503.75	16332.55
503.953	16721.66
504.156	16754.43
504.359	17176.31
504.562	17155.83
504.765	17499.89
504.968	17807.09
505.17	18044.65
505.373	18093.8
505.576	18388.71
505.779	18544.36
505.982	18435.81
506.185	19037.92
506.387	19349.21
506.59	19322.59
506.793	19752.66
506.996	19590.87
507.198	20090.57
507.401	19844.82
507.604	20498.12
507.807	20780.74
508.009	20670.15
508.212	21282.49
508.415	21321.4
508.617	21821.11
508.82	22097.58
509.022	21804.72
509.225	22458.03
509.428	22466.22
509.63	22943.39
509.833	22611.62
510.035	23350.94
510.238	23221.92
510.44	23727.77
510.643	23830.16
510.845	24227.47
511.048	23977.62
511.25	24807.05
511.453	24546.95
511.655	26021.49
511.858	25400.96
512.06	25781.88
512.262	26160.75
512.465	25818.74
512.667	26332.78
512.87	26900.07
513.072	26934.89
513.274	27188.83
513.477	27919.96
513.679	28182.1
513.881	28317.26
514.084	28491.34
514.286	28671.56
514.488	28837.45
514.69	29720.12
514.893	29752.89
515.095	29797.95
515.297	30514.73
515.499	30219.83
515.701	30780.97
515.904	31151.65
516.106	31129.12
516.308	31870.49
516.51	31958.55
516.712	32394.77
516.914	32562.7
517.116	33416.71
517.318	33330.69
517.52	33820.16
517.722	33840.64
517.925	33811.96
518.127	34762.22
518.329	34819.56
518.531	34864.62
518.733	35644.9
518.935	35745.25
519.136	35954.14
519.338	36294.1
519.54	36675.02
519.742	36672.98
519.944	37031.37
520.146	37524.93
520.348	37514.69
520.55	37950.91
520.752	38262.2
520.954	39255.46
521.155	38419.89
521.357	39454.12
521.559	39738.79
521.761	40357.27
521.963	40191.39
522.164	40496.53
522.366	40445.33
522.568	41096.59
522.77	40957.33
522.971	41729.41
523.173	41491.85
523.375	42052.99
523.576	41952.64
523.778	42458.49
523.98	43013.49
524.181	42708.34
524.383	43056.5
524.584	43402.6
524.786	43502.95
524.988	43933.03
525.189	44180.83
525.391	44121.44
525.592	44598.62
525.794	44658.01
525.995	45073.74
526.197	44526.94
526.398	45161.81
526.6	45446.47
526.801	45497.67
527.003	45647.18
527.204	46091.58
527.406	46167.36
527.607	46374.2
527.808	46988.6
528.01	46021.95
528.211	46550.33
528.412	47652.14
528.614	47105.33
528.815	47232.3
529.016	47959.33
529.218	47285.55
529.419	47402.28
529.62	47488.3
529.822	47392.04
530.023	47762.73
530.224	48096.55
530.425	47791.4
530.626	47480.11
530.828	47531.31
531.029	48571.67
531.23	48018.72
531.431	47983.91
531.632	48143.65
531.833	48074.02
532.035	48168.22
532.236	48348.45
532.437	48921.88
532.638	48514.33
532.839	48774.42
533.04	48680.22
533.241	48409.89
533.442	49429.77
533.643	48399.65
533.844	48938.26
534.045	49079.57
534.246	48497.95
534.447	48956.69
534.648	48700.7
534.849	48622.87
535.05	48557.34
535.251	49065.24
535.451	48938.26
535.652	49075.48
535.853	48844.05
536.054	49204.5
536.255	48956.69
536.456	48776.47
536.657	49857.8
536.857	48907.54
537.058	48942.36
537.259	49034.52
537.46	49540.36
537.66	48946.45
537.861	48936.21
538.062	48829.72
538.263	49263.89
538.463	48778.52
538.664	49249.55
538.865	49177.87
539.065	49095.95
539.266	48733.46
539.466	49202.45
539.667	48934.17
539.868	49005.84
540.068	49032.47
540.269	49272.08
540.469	49485.07
540.67	48844.05
540.87	48739.61
541.071	49308.94
541.271	49143.06
541.472	48825.62
541.672	48594.2
541.873	48459.04
542.073	48389.41
542.274	49011.99
542.474	48770.33
542.675	48555.29
542.875	49280.27
543.075	48880.92
543.276	48282.91
543.476	49042.71
543.676	48774.42
543.877	49315.09
544.077	49302.8
544.277	48862.49
544.478	48817.43
544.678	48739.61
544.878	48790.81
545.078	48649.5
545.279	48688.41
545.479	48397.6
545.679	49014.04
545.879	48807.19
546.079	48624.92
546.28	48764.18
546.48	48196.9
546.68	49048.85
546.88	48413.98
547.08	48694.55
547.28	48954.64
547.48	48114.98
547.68	48557.34
547.88	48436.51
548.081	48725.27
548.281	48383.26
548.481	48213.28
548.681	48893.21
548.881	48405.79
549.081	48678.17
549.28	48514.33
549.48	48962.84
549.68	48454.94
549.88	48753.94
550.08	47994.15
550.28	48803.1
550.48	48504.09
550.68	48442.65
550.88	48194.85
551.08	48399.65
551.279	48622.87
551.479	48213.28
551.679	48620.83
551.879	48270.62
552.079	48254.24
552.278	48008.48
552.478	48426.27
552.678	48360.73
552.878	48727.32
553.077	48074.02
553.277	48112.93
553.477	48659.74
553.676	47985.96
553.876	48620.83
554.076	47738.15
554.275	47975.72
554.475	47963.43
554.674	48379.17
554.874	48221.47
555.074	47742.25
555.273	47961.38
555.473	47856.93
555.672	47656.23
555.872	48176.42
556.071	47576.36
556.271	48096.55
556.47	47592.75
556.67	47115.57
556.869	47398.19
557.068	47605.03
557.268	47187.25
557.467	47562.03
557.667	47199.54
557.866	47510.83
558.065	46984.5
558.265	46951.73
558.464	46964.02
558.663	47445.29
558.863	46654.78
559.062	47521.07
559.261	46658.87
559.461	47648.04
559.66	46626.1
559.859	46609.72
560.058	46644.54
560.258	46392.64
560.457	46216.51
560.656	46503.23
560.855	46374.2
561.054	46630.2
561.253	45849.92
561.453	46423.36
561.652	46449.98
561.851	46169.41
562.05	45876.55
562.249	45755.72
562.448	46331.2
562.647	45933.89
562.846	45452.62
563.045	45950.27
563.244	45286.73
563.443	46011.71
563.642	45352.27
563.841	45563.21
564.04	45088.08
564.239	45686.09
564.438	44981.59
564.637	45204.81
564.836	45122.9
565.035	45053.26
565.234	45528.39
565.432	45067.6
565.631	45034.83
565.83	45243.73
566.029	44893.52
566.228	44971.35
566.427	44543.32
566.625	44141.92
566.824	44035.42
567.023	44279.13
567.222	43636.07
567.42	44768.6
567.619	44442.97
567.818	44238.17
568.016	43662.69
568.215	44033.38
568.414	43820.39
568.612	44098.91
568.811	43443.56
569.01	43490.66
569.208	43124.08
569.407	43138.41
569.605	42593.65
569.804	43296.11
570.002	42544.5
570.201	42988.91
570.4	43009.39
570.598	42739.06
570.797	42282.36
570.995	42319.23
571.193	41817.47
571.392	42628.47
571.59	42005.89
571.789	42569.08
571.987	42005.89
572.186	42016.13
572.384	41954.69
572.582	41887.1
572.781	41725.32
572.979	41414.02
573.177	41475.46
573.376	41758.08
573.574	40711.57
573.772	41680.26
573.971	40730
574.169	40791.44
574.367	41010.57
574.565	40707.47
574.763	40492.44
574.962	40328.6
575.16	39816.61
575.358	40105.37
575.556	40048.03
575.754	40453.53
575.952	39882.14
576.151	39802.27
576.349	39421.35
576.547	39220.65
576.745	39349.67
576.943	39556.52
577.141	39415.21
577.339	39404.97
577.537	38845.87
577.735	38630.83
577.933	38643.12
578.131	38921.65
578.329	38428.09
578.527	38163.9
578.725	38696.37
578.923	38442.42
579.121	38342.07
579.319	38321.59
579.516	38256.06
579.714	38108.6
579.912	37635.52
580.11	37864.89
580.308	37928.38
580.506	37791.17
580.704	37125.58
580.901	37612.99
581.099	37293.51
581.297	36890.06
581.495	36806.09
581.692	37135.82
581.89	36900.3
582.088	36890.06
582.285	36251.09
582.483	36746.7
582.681	37031.37
582.878	36769.23
583.076	36177.37
583.274	36756.94
583.471	35663.33
583.669	36077.02
583.866	35524.07
584.064	35968.48
584.262	35175.91
584.459	36007.39
584.657	35345.89
584.854	36150.74
585.052	34985.45
585.249	35163.62
585.447	35524.07
585.644	35280.36
585.841	35204.58
586.039	35552.74
586.236	34307.57
586.434	34590.19
586.631	34672.11
586.828	34637.3
587.026	34668.01
587.223	34295.28
587.42	34108.92
587.618	34272.76
587.815	33811.96
588.012	33783.29
588.21	33828.35
588.407	34053.62
588.604	33789.44
588.801	33412.61
588.999	33629.69
589.196	33472
589.393	33474.05
589.59	33263.11
589.787	32697.87
589.984	33267.2
590.182	32933.39
590.379	32914.95
590.576	32507.41
590.773	32910.86
590.97	32372.24
591.167	32114.2
591.364	32019.99
591.561	32214.55
591.758	31872.54
591.955	31780.38
592.152	32097.81
592.349	31819.29
592.546	31839.77
592.743	31227.43
592.94	31338.02
593.137	31491.62
593.334	31862.3
593.531	30901.8
593.727	31155.75
593.924	30850.6
594.121	30580.27
594.318	31133.22
594.515	30303.79
594.712	30873.13
594.908	30701.1
595.105	30799.4
595.302	30289.46
595.499	30410.29
595.696	30217.78
595.892	30228.02
596.089	30277.17
596.286	30256.69
596.482	29832.76
596.679	30289.46
596.876	29904.44
597.072	29769.27
597.269	29281.86
597.466	29603.39
597.662	29199.94
597.859	29533.76
598.055	29533.76
598.252	29068.87
598.448	29228.61
598.645	28902.98
598.841	28730.95
599.038	29005.38
599.234	28911.17
599.431	28753.48
599.627	28591.69
599.824	28786.25
600.02	28362.32
600.217	28372.56
600.413	28372.56
600.609	28151.38
600.806	27838.04
601.002	28053.08
601.198	28108.37
601.395	27743.83
601.591	27809.37
601.787	27647.58
601.984	27825.75
602.18	27909.72
602.376	27463.26
602.572	27258.46
602.769	27485.79
602.965	26984.04
603.161	27102.82
603.357	27098.72
603.553	26965.6
603.75	26676.84
603.946	26799.72
604.142	26435.18
604.338	26703.46
604.534	26281.58
604.73	26031.73
604.926	26295.92
605.122	26338.93
605.318	25998.96
605.514	26060.4
605.71	25634.42
605.906	26072.69
606.102	26041.97
606.298	26044.02
606.494	25771.64
606.69	25650.81
606.886	25552.51
607.082	25050.75
607.278	25732.73
607.474	24921.73
607.67	25527.93
607.866	24764.04
608.062	25208.45
608.257	24901.25
608.453	24948.36
608.649	25214.59
608.845	24829.57
609.041	24448.65
609.236	24825.48
609.432	24733.32
609.628	24610.44
609.824	24571.53
610.019	24188.56
610.215	24452.75
610.411	24444.56
610.606	23826.07
610.802	24358.54
610.998	23799.44
611.193	24133.26
611.389	23813.78
611.584	23936.66
611.78	24014.48
611.976	24223.37
612.171	23658.14
612.367	23774.87
612.562	23416.47
612.758	23328.41
612.953	23385.76
613.149	23512.73
613.344	23328.41
613.539	23740.05
613.735	23131.81
613.93	23217.82
614.126	23307.93
614.321	23330.46
614.517	23248.54
614.712	22732.45
614.907	22912.67
615.103	23090.85
615.298	22781.6
615.493	23072.42
615.688	22527.66
615.884	23172.77
616.079	22236.84
616.274	22591.14
616.47	22826.66
616.665	22501.03
616.86	22351.53
617.055	22314.67
617.25	22380.2
617.445	22386.35
617.641	21898.93
617.836	22533.8
618.031	21726.9
618.226	22062.77
618.421	21921.46
618.616	22089.39
618.811	21593.78
619.006	22087.34
619.201	21405.37
619.396	21759.67
619.591	21114.56
619.786	21403.32
619.981	21038.78
620.176	21149.37
620.371	20745.92
620.566	20891.33
620.761	20766.4
620.956	21194.43
621.151	20485.83
621.346	20747.97
621.541	20229.84
621.735	20483.78
621.93	20152.01
622.125	20301.51
622.32	19945.17
622.515	20201.16
622.709	19967.7
622.904	19801.81
623.099	19830.48
623.294	19939.02
623.488	19474.13
623.683	19662.55
623.878	19181.28
624.072	19394.26
624.267	19148.51
624.462	19214.04
624.656	18910.94
624.851	19027.68
625.046	18663.14
625.24	18542.31
625.435	18560.74
625.629	18321.13
625.824	18296.55
626.018	17997.55
626.213	18067.18
626.407	18056.94
626.602	17909.49
626.796	17891.06
626.991	17604.34
627.185	17766.13
627.38	17450.74
627.574	17635.06
627.768	17182.46
627.963	17174.27
628.157	16903.93
628.352	17223.42
628.546	16815.87
628.74	16975.61
628.935	16856.83
629.129	16856.83
629.323	16414.47
629.517	16576.26
629.712	16586.5
629.906	16381.7
630.1	15935.24
630.294	16211.72
630.489	16140.04
630.683	16283.4
630.877	15902.48
631.071	15603.47
631.265	16023.31
631.459	15605.52
631.653	15482.64
631.848	15576.85
632.042	15447.83
632.236	15638.29
632.43	15124.25
632.624	15087.39
632.818	15064.86
633.012	14952.22
633.206	15099.67
633.4	15120.15
633.594	14853.92
633.788	14724.9
633.982	14606.11
634.176	14694.18
634.369	14374.69
634.563	14473
634.757	14446.37
634.951	14407.46
635.145	14458.66
635.339	14559.01
635.533	14075.69
635.726	13770.54
635.92	13848.36
636.114	14128.94
636.308	13928.24
636.501	13762.35
636.695	13578.03
636.889	13512.5
637.083	13422.39
637.276	13514.55
637.47	13244.21
637.664	13176.63
637.857	13387.57
638.051	13266.74
638.244	12953.4
638.438	12945.21
638.632	13080.38
638.825	12926.78
639.019	12709.69
639.212	12699.45
639.406	12525.38
639.599	12812.09
639.793	12502.85
639.986	12224.33
640.18	12398.4
640.373	12420.93
640.567	12320.58
640.76	12160.84
640.954	12193.61
641.147	12031.82
641.34	11886.41
641.534	12062.54
641.727	11792.2
641.92	11978.57
642.114	11644.75
642.307	11523.92
642.5	11368.27
642.694	11456.34
642.887	11353.94
643.08	11431.76
643.273	11302.74
643.467	11358.03
643.66	11247.44
643.853	11079.51
644.046	10958.68
644.239	10899.29
644.432	10907.48
644.626	10831.71
644.819	10747.74
645.012	10690.4
645.205	10768.22
645.398	10674.01
645.591	10534.75
645.784	10631.01
645.977	9981.8
646.17	10399.59
646.363	10262.37
646.556	10532.7
646.749	10069.86
646.942	10237.8
647.135	9936.74
647.328	10033
647.521	9989.99
647.714	9729.9
647.907	9879.4
648.099	9826.15
648.292	9885.55
648.485	9690.99
648.678	9482.1
648.871	9439.09
649.064	9363.31
649.256	9746.28
649.449	9508.72
649.642	9348.98
649.835	9144.18
650.027	9146.23
650.22	8970.1
650.413	9066.36
650.605	9058.17
650.798	8673.15
650.991	9052.02
651.183	8832.89
651.376	8804.22
651.568	8587.13
651.761	8695.68
651.954	8597.37
652.146	8589.18
652.339	8656.76
652.531	8497.02
652.724	8589.18
652.916	8329.09
653.109	8537.98
653.301	8408.96
653.494	8378.24
653.686	8247.17
653.879	8306.56
654.071	8077.19
654.263	8130.44
654.456	8081.28
654.648	7976.84
654.84	7792.52
655.033	8066.95
655.225	7839.62
655.417	7802.76
655.61	7774.09
655.802	7810.95
655.994	7602.06
656.186	7761.8
656.379	7671.69
656.571	7557
656.763	7569.29
656.955	7425.93
657.148	7401.36
657.34	7337.87
657.532	7186.32
657.724	7296.91
657.916	7088.02
658.108	7372.69
658.3	7223.19
658.492	7223.19
658.684	7083.92
658.876	6963.09
659.068	7030.68
659.26	6926.23
659.452	6993.81
659.644	6852.5
659.836	6852.5
660.028	6909.85
660.22	6694.81
660.412	6590.36
660.604	6580.12
660.796	6690.71
660.988	6635.42
661.18	6582.17
661.372	6422.43
661.563	6494.11
661.755	6395.81
661.947	6371.23
662.139	6393.76
662.331	6258.59
662.522	6270.88
662.714	6215.59
662.906	6061.99
663.097	6141.86
663.289	6209.44
663.481	5994.4
663.673	6139.81
663.864	5900.2
664.056	5855.14
664.247	5892.01
664.439	5814.18
664.631	5791.66
664.822	5883.81
665.014	5861.29
665.205	5902.25
665.397	5707.69
665.588	5781.42
665.78	5646.25
665.971	5683.11
666.163	5607.34
666.354	5463.98
666.546	5615.53
666.737	5533.61
666.929	5562.28
667.12	5476.27
667.311	5480.36
667.503	5375.92
667.694	5463.98
667.885	5263.28
668.077	5289.9
668.268	5097.39
668.459	5228.46
668.651	5197.74
668.842	5216.18
669.033	5128.11
669.224	5167.03
669.416	5156.79
669.607	5066.67
669.798	5177.26
669.989	5035.96
670.18	5085.11
670.371	4960.18
670.563	5007.28
670.754	4915.12
670.945	4894.65
671.136	4896.69
671.327	4900.79
671.518	4827.06
671.709	4861.88
671.9	4818.87
672.091	4827.06
672.282	4865.97
672.473	4728.76
672.664	4655.03
672.855	4642.75
673.046	4634.55
673.237	4644.79
673.428	4681.66
673.619	4626.36
673.809	4804.53
674	4521.91
674.191	4575.16
674.382	4523.96
674.573	4495.29
674.764	4466.62
674.954	4648.89
675.145	4425.66
675.336	4386.75
675.527	4603.83
675.717	4396.99
675.908	4353.98
676.099	4329.41
676.289	4339.65
676.48	4476.86
676.671	4210.62
676.861	4325.31
677.052	4179.9
677.243	4163.52
677.433	4231.1
677.624	4114.37
677.814	4257.73
678.005	4198.34
678.195	4222.91
678.386	4005.83
678.576	4147.14
678.767	4089.79
678.957	4040.64
679.148	4173.76
679.338	3973.06
679.529	4042.69
679.719	3997.64
679.909	4059.07
680.1	3919.81
680.29	4030.4
680.481	4003.78
680.671	3858.37
680.861	3930.05
681.052	3946.44
681.242	3987.4
681.432	4102.08
681.622	3923.91
681.813	3987.4
682.003	3868.61
682.193	3932.1
682.383	3837.89
682.573	3784.65
682.764	3928
682.954	3786.69
683.144	3862.47
683.334	3790.79
683.524	3755.97
683.714	3758.02
683.904	3708.87
684.094	3696.58
684.284	3737.54
684.474	3762.12
684.664	3825.61
684.854	3610.57
685.044	3706.82
685.234	3710.92
685.424	3721.16
685.614	3600.33
685.804	3555.27
685.994	3643.34
686.184	3557.32
686.374	3629
686.564	3471.31
686.753	3610.57
686.943	3676.1
687.133	3653.58
687.323	3672.01
687.513	3459.02
687.702	3487.69
687.892	3512.27
688.082	3475.4
688.272	3436.49
688.461	3534.79
688.651	3538.89
688.841	3508.17
689.03	3469.26
689.22	3579.85
689.41	3475.4
689.599	3469.26
689.789	3434.44
689.979	3467.21
690.168	3411.92
690.358	3463.12
690.547	3432.4
690.737	3450.83
690.926	3366.86
691.116	3346.38
691.305	3327.95
691.495	3430.35
691.684	3286.99
691.874	3286.99
692.063	3373
692.252	3229.65
692.442	3340.24
692.631	3219.41
692.82	3205.07
693.01	3379.15
693.199	3289.04
693.388	3233.74
693.578	3256.27
693.767	3299.28
693.956	3203.02
694.146	3239.89
694.335	3225.55
694.524	3174.35
694.713	3303.37
694.902	3381.2
695.092	3180.5
695.281	3162.06
695.47	3268.56
695.659	3272.65
695.848	3127.25
696.037	3178.45
696.226	3282.89
696.415	3162.06
696.604	3248.08
696.793	3330
696.982	3211.22
697.171	3301.33
697.36	3182.54
697.549	3188.69
697.738	3254.22
697.927	3243.98
698.116	3145.68
698.305	3196.88
698.494	3137.49
698.683	3096.53
698.872	3350.48
699.061	3102.67
699.25	3135.44
699.438	3084.24
699.627	3194.83
699.816	3256.27
700.005	3215.31
700.193	3123.15
700.382	3276.75
700.571	3061.71
700.76	3198.93
700.948	3104.72
701.137	3110.86
701.326	3088.34
701.514	3178.45
701.703	3125.2
701.892	3127.25
702.08	3119.06
702.269	3080.14
702.457	3057.62
702.646	3067.86
702.834	3026.9
703.023	3006.42
703.212	3145.68
703.4	2965.46
703.589	3018.71
703.777	3194.83
703.965	2983.89
704.154	3053.52
704.342	2998.23
704.531	3000.27
704.719	2877.4
704.907	2977.75
705.096	2967.51
705.284	2856.92
705.472	3028.95
705.661	2955.22
705.849	2883.54
706.037	2842.58
706.226	2912.21
706.414	2942.93
706.602	2985.94
706.79	2906.07
706.979	2736.09
707.167	2781.14
707.355	2924.5
707.543	2871.25
707.731	2895.83
707.919	2834.39
708.107	2756.57
708.296	2795.48
708.484	2779.09
708.672	2852.82
708.86	2701.27
709.048	2766.81
709.236	2807.77
709.424	2770.9
709.612	2838.48
709.8	2566.1
709.988	2731.99
710.176	2559.96
710.364	2695.13
710.551	2594.78
710.739	2715.61
710.927	2799.57
711.115	2551.77
711.303	2551.77
711.491	2719.7
711.679	2596.82
711.866	2641.88
712.054	2568.15
712.242	2461.66
712.43	2559.96
712.617	2629.59
712.805	2557.91
712.993	2521.05
713.181	2490.33
713.368	2617.3
713.556	2553.82
713.744	2473.95
713.931	2437.08
714.119	2379.74
714.306	2437.08
714.494	2416.6
714.682	2643.93
714.869	2480.09
715.057	2586.58
715.244	2467.8
715.432	2363.36
715.619	2420.7
715.807	2346.97
715.994	2426.84
716.182	2400.22
716.369	2357.21
716.556	2379.74
716.744	2336.73
716.931	2346.97
717.119	2349.02
717.306	2334.68
717.493	2338.78
717.681	2340.83
717.868	2209.76
718.055	2381.79
718.242	2322.4
718.43	2373.6
718.617	2224.09
718.804	2263.01
718.991	2332.64
719.179	2256.86
719.366	2256.86
719.553	2234.33
719.74	2297.82
719.927	2125.79
720.114	2222.05
720.301	2127.84
720.488	2099.17
720.676	2047.97
720.863	2007.01
721.05	2076.64
721.237	2191.33
721.424	2162.66
721.611	2080.74
721.798	2088.93
721.985	2076.64
722.172	2185.18
722.358	2125.79
722.545	2125.79
722.732	2076.64
722.919	2076.64
723.106	2109.41
723.293	2050.02
723.48	2039.78
723.667	1998.82
723.853	2058.21
724.04	2019.3
724.227	2017.25
724.414	2033.63
724.6	1904.61
724.787	2007.01
724.974	1880.04
725.161	1978.34
725.347	1918.95
725.534	2000.87
725.72	1974.24
725.907	1916.9
726.094	1931.23
726.28	1867.75
726.467	1888.23
726.653	1996.77
726.84	1910.75
727.027	1828.84
727.213	1847.27
727.4	1843.17
727.586	1808.36
727.773	1886.18
727.959	1884.13
728.145	1865.7
728.332	1822.69
728.518	1834.98
728.705	1824.74
728.891	1624.04
729.077	1824.74
729.264	1722.34
729.45	1789.92
729.636	1830.88
729.823	1794.02
730.009	1710.05
730.195	1822.69
730.382	1753.06
730.568	1798.12
730.754	1796.07
730.94	1628.14
731.126	1789.92
731.313	1822.69
731.499	1644.52
731.685	1724.39
731.871	1662.95
732.057	1621.99
732.243	1675.24
732.429	1675.24
732.615	1685.48
732.801	1675.24
732.987	1693.67
733.173	1652.71
733.359	1683.43
733.545	1660.9
733.731	1648.61
733.917	1685.48
734.103	1679.33
734.289	1617.9
734.475	1630.18
734.661	1601.51
734.847	1662.95
735.033	1634.28
735.219	1519.59
735.404	1595.37
735.59	1490.92
735.776	1632.23
735.962	1613.8
736.148	1624.04
736.333	1585.13
736.519	1576.94
736.705	1564.65
736.89	1621.99
737.076	1609.7
737.262	1538.02
737.447	1497.07
737.633	1476.59
737.819	1515.5
738.004	1492.97
738.19	1480.68
738.375	1554.41
738.561	1558.5
738.747	1431.53
738.932	1527.78
739.118	1396.71
739.303	1556.46
739.489	1445.87
739.674	1429.48
739.859	1523.69
740.045	1413.1
740.23	1378.28
740.416	1476.59
740.601	1419.24
740.786	1482.73
740.972	1398.76
741.157	1402.86
741.342	1339.37
741.528	1380.33
741.713	1429.48
741.898	1325.04
742.084	1306.6
742.269	1378.28
742.454	1333.23
742.639	1372.14
742.824	1327.08
743.01	1363.95
743.195	1357.8
743.38	1318.89
743.565	1308.65
743.75	1349.61
743.935	1245.16
744.12	1296.36
744.305	1265.64
744.49	1163.25
744.675	1304.56
744.86	1232.88
745.045	1314.8
745.23	1300.46
745.415	1204.21
745.6	1279.98
745.785	1200.11
745.97	1208.3
746.155	1234.93
746.34	1210.35
746.525	1210.35
746.71	1290.22
746.895	1212.4
747.079	1216.49
747.264	1265.64
747.449	1218.54
747.634	1153.01
747.819	1267.69
748.003	1161.2
748.188	1118.19
748.373	1167.34
748.557	1157.1
748.742	1089.52
748.927	1153.01
749.111	1118.19
749.296	1150.96
749.481	1150.96
749.665	1116.14
749.85	1091.57
750.034	1153.01
750.219	935.92
750.404	1091.57
750.588	1050.61
750.773	933.87
750.957	1085.42
751.141	1003.5
751.326	997.36
751.51	1097.71
751.695	1021.94
751.879	987.12
752.064	1058.8
752.248	1044.46
752.432	1011.7
752.617	942.07
752.801	1048.56
752.985	964.59
753.17	997.36
753.354	944.11
753.538	1013.74
753.722	940.02
753.907	942.07
754.091	880.63
754.275	884.72
754.459	911.35
754.643	849.91
754.828	923.63
755.012	888.82
755.196	907.25
755.38	880.63
755.564	897.01
755.748	839.67
755.932	880.63
756.116	868.34
756.3	929.78
756.484	868.34
756.668	839.67
756.852	804.85
757.036	856.05
757.22	870.39
757.404	839.67
757.588	884.72
757.772	847.86
757.956	794.61
758.14	833.52
758.323	794.61
758.507	823.28
758.691	876.53
758.875	833.52
759.059	856.05
759.242	794.61
759.426	720.89
759.61	839.67
759.794	753.65
759.977	776.18
760.161	745.46
760.345	757.75
760.528	841.72
760.712	708.6
760.895	706.55
761.079	688.12
761.263	694.26
761.446	790.52
761.63	669.69
761.813	763.89
761.997	675.83
762.18	704.5
762.364	636.92
762.547	690.17
762.731	667.64
762.914	770.04
763.098	700.41
763.281	739.32
763.464	626.68
763.648	743.41
763.831	684.02
764.015	653.3
764.198	618.49
764.381	659.45
764.564	645.11
764.748	669.69
764.931	645.11
765.114	614.39
765.297	622.58
765.481	661.49
765.664	688.12
765.847	618.49
766.03	675.83
766.213	634.87
766.397	620.53
766.58	608.25
766.763	595.96
766.946	692.21
767.129	614.39
767.312	714.74
767.495	661.49
767.678	555
767.861	581.62
768.044	645.11
768.227	655.35
768.41	585.72
768.593	593.91
768.776	608.25
768.959	659.45
769.142	608.25
769.324	569.34
769.507	614.39
769.69	571.38
769.873	612.34
770.056	614.39
770.239	595.96
770.421	661.49
770.604	571.38
770.787	528.38
770.97	585.72
771.152	540.66
771.335	624.63
771.518	522.23
771.7	600.05
771.883	610.29
772.066	589.82
772.248	569.34
772.431	628.73
772.613	542.71
772.796	507.9
772.978	571.38
773.161	628.73
773.343	618.49
773.526	528.38
773.708	491.51
773.891	493.56
774.073	489.46
774.256	495.61
774.438	454.65
774.621	577.53
774.803	626.68
774.985	454.65
775.168	468.98
775.35	503.8
775.532	509.94
775.715	483.32
775.897	446.46
776.079	563.19
776.261	471.03
776.444	471.03
776.626	550.9
776.808	511.99
776.99	489.46
777.173	544.76
777.355	462.84
777.537	438.27
777.719	489.46
777.901	438.27
778.083	454.65
778.265	466.94
778.447	462.84
778.629	440.31
778.811	458.75
778.993	511.99
779.175	389.11
779.357	473.08
779.539	403.45
779.721	423.93
779.903	393.21
780.085	348.15
780.267	440.31
780.449	489.46
780.631	473.08
780.812	450.55
780.994	432.12
781.176	415.74
781.358	364.54
781.54	368.63
781.721	368.63
781.903	364.54
782.085	315.39
782.267	348.15
782.448	360.44
782.63	331.77
782.812	391.16
782.993	360.44
783.175	354.3
783.357	366.59
783.538	380.92
783.72	358.39
783.901	376.83
784.083	350.2
784.264	348.15
784.446	372.73
784.627	282.62
784.809	364.54
784.99	331.77
785.172	327.68
785.353	372.73
785.535	268.28
785.716	397.31
785.897	327.68
786.079	350.2
786.26	305.15
786.441	290.81
786.623	282.62
786.804	208.89
786.985	299
787.167	288.76
787.348	270.33
787.529	309.24
787.71	282.62
787.891	350.2
788.073	290.81
788.254	251.9
788.435	346.11
788.616	288.76
788.797	301.05
788.978	366.59
789.159	221.18
789.34	280.57
789.522	325.63
789.703	225.28
789.884	323.58
790.065	233.47
790.246	321.53
790.427	253.95
790.607	266.24
790.788	176.13
790.969	217.08
791.15	315.39
791.331	294.91
791.512	251.9
791.693	212.99
791.874	251.9
792.054	262.14
792.235	241.66
792.416	241.66
792.597	225.28
792.778	307.2
792.958	231.42
793.139	159.74
793.32	217.08
793.5	208.89
793.681	225.28
793.862	143.36
794.042	192.51
794.223	153.6
794.404	157.69
794.584	184.32
794.765	151.55
794.945	215.04
795.126	260.09
795.306	229.37
795.487	235.52
795.667	186.37
795.848	180.22
796.028	129.02
796.209	249.85
796.389	202.75
796.57	282.62
796.75	241.66
796.93	184.32
797.111	204.8
797.291	233.47
797.471	202.75
797.652	153.6
797.832	210.94
798.012	241.66
798.192	161.79
798.373	223.23
798.553	169.98
798.733	196.61
798.913	178.17
799.093	235.52
799.274	200.7
799.454	186.37
799.634	184.32
799.814	167.93
799.994	202.75
800.174	206.84
800.354	221.18
800.534	210.94
800.714	192.51
800.894	120.83
801.074	165.89
801.254	194.56
801.434	167.93
801.614	145.41
801.794	221.18
801.974	438.27
802.154	176.13
802.334	90.11
802.514	145.41
802.693	139.26
802.873	124.93
803.053	165.89
803.233	120.83
803.413	186.37
803.592	88.06
803.772	98.3
803.952	98.3
804.131	188.41
804.311	77.82
804.491	151.55
804.67	126.97
804.85	188.41
805.03	159.74
805.209	167.93
805.389	77.82
805.568	34.82
805.748	69.63
805.928	143.36
806.107	151.55
806.287	147.45
806.466	167.93
806.646	137.21
806.825	116.73
807.004	98.3
807.184	110.59
807.363	106.49
807.543	120.83
807.722	94.21
807.901	176.13
808.081	176.13
808.26	153.6
808.439	143.36
808.619	77.82
808.798	141.31
808.977	100.35
809.156	159.74
809.336	172.03
809.515	86.01
809.694	20.48
809.873	143.36
810.052	120.83
810.231	161.79
810.411	163.84
810.59	94.21
810.769	108.54
810.948	83.97
811.127	118.78
811.306	102.4
811.485	61.44
811.664	94.21
811.843	94.21
812.022	157.69
812.201	106.49
812.38	75.77
812.559	124.93
812.737	71.68
812.916	116.73
813.095	61.44
813.274	180.22
813.453	167.93
813.632	69.63
813.811	86.01
813.989	116.73
814.168	53.25
814.347	88.06
814.526	65.54
814.704	90.11
814.883	110.59
815.062	100.35
815.24	61.44
815.419	61.44
815.598	86.01
815.776	67.58
815.955	71.68
816.133	135.17
816.312	153.6
816.49	108.54
816.669	88.06
816.847	59.39
817.026	69.63
817.204	4.1
817.383	124.93
817.561	102.4
817.74	116.73
817.918	63.49
818.097	100.35
818.275	40.96
818.453	102.4
818.632	61.44
818.81	143.36
818.988	47.1
819.167	81.92
819.345	65.54
819.523	94.21
819.701	114.69
819.879	120.83
820.058	77.82
820.236	122.88
820.414	34.82
820.592	30.72
820.77	20.48
820.948	83.97
821.127	102.4
821.305	38.91
821.483	94.21
821.661	102.4
821.839	0
822.017	79.87
822.195	88.06
822.373	88.06
822.551	67.58
822.729	69.63
822.907	40.96
823.085	69.63
823.262	88.06
823.44	102.4
823.618	139.26
823.796	28.67
823.974	94.21
824.152	96.25
824.329	14.34
824.507	88.06
824.685	96.25
824.863	92.16
825.04	53.25
825.218	53.25
825.396	6.14
825.574	94.21
825.751	43.01
825.929	110.59
826.107	79.87
826.284	43.01
826.462	79.87
826.639	49.15
826.817	129.02
826.994	45.06
827.172	129.02
827.349	102.4
827.527	65.54
827.704	86.01
827.882	96.25
828.059	18.43
828.237	12.29
828.414	106.49
828.591	22.53
828.769	22.53
828.946	63.49
829.124	49.15
829.301	8.19
829.478	4.1
829.655	38.91
829.833	88.06
830.01	2.05
830.187	61.44
830.364	38.91
830.542	28.67
830.719	-22.53
830.896	61.44
831.073	65.54
831.25	26.62
831.427	102.4
831.604	32.77
831.782	86.01
831.959	73.73
832.136	67.58
832.313	38.91
832.49	55.3
832.667	0
832.844	24.58
833.021	22.53
833.198	122.88
833.374	10.24
833.551	28.67
833.728	28.67
833.905	26.62
834.082	106.49
834.259	-18.43
834.436	112.64
834.612	8.19
834.789	16.38
834.966	8.19
835.143	12.29
835.319	4.1
835.496	6.14
835.673	16.38
835.85	22.53
836.026	38.91
836.203	22.53
836.38	30.72
836.556	65.54
836.733	20.48
836.909	28.67
837.086	106.49
837.262	4.1
837.439	-32.77
837.616	18.43
837.792	36.86
837.968	-18.43
838.145	59.39
838.321	-55.3
838.498	18.43
838.674	38.91
838.851	53.25
839.027	102.4
839.203	69.63
839.38	63.49
839.556	34.82
839.732	67.58
839.909	-30.72
840.085	53.25
840.261	38.91
840.437	38.91
840.614	-6.14
840.79	55.3
840.966	12.29
841.142	-4.1
841.318	28.67
841.494	86.01
841.671	79.87
841.847	45.06
842.023	28.67
842.199	81.92
842.375	51.2
842.551	81.92
842.727	51.2
842.903	49.15
843.079	45.06
843.255	49.15
843.431	-12.29
843.607	-4.1
843.783	38.91
843.959	16.38
844.134	-12.29
844.31	-20.48
844.486	-6.14
844.662	4.1
844.838	86.01
845.013	53.25
845.189	75.77
845.365	-8.19
845.541	-28.67
845.716	20.48
845.892	20.48
846.068	18.43
846.244	-28.67
846.419	38.91
846.595	-4.1
846.77	-83.97
846.946	55.3
847.122	12.29
847.297	18.43
847.473	69.63
847.648	51.2
847.824	0
847.999	24.58
848.175	122.88
848.35	-26.62
848.526	16.38
848.701	53.25
848.876	28.67
849.052	18.43
849.227	55.3
849.403	30.72
849.578	-43.01
849.753	-63.49
849.929	59.39
850.104	8.19
850.279	94.21
850.454	38.91
850.63	26.62
850.805	40.96
850.98	26.62
851.155	36.86
851.33	61.44
851.505	-32.77
851.681	49.15
851.856	28.67
852.031	-12.29
852.206	-10.24
852.381	14.34
852.556	12.29
852.731	57.34
852.906	14.34
853.081	24.58
853.256	-10.24
853.431	-28.67
853.606	24.58
853.781	4.1
853.956	-6.14
854.131	57.34
854.305	18.43
854.48	0
854.655	-28.67
854.83	32.77
855.005	-81.92
855.18	-12.29
855.354	20.48
855.529	-20.48
855.704	10.24
855.879	139.26
856.053	18.43
856.228	20.48
856.403	-45.06
856.577	47.1
856.752	-57.34
856.926	-6.14
857.101	67.58
857.276	51.2
857.45	18.43
857.625	6.14
857.799	12.29
857.974	-51.2
858.148	24.58
858.323	45.06
858.497	-4.1
858.672	-34.82
858.846	-47.1
859.02	40.96
859.195	28.67
859.369	-36.86
859.543	30.72
859.718	6.14
859.892	57.34
860.066	12.29
860.241	18.43
860.415	75.77
860.589	45.06
860.763	-22.53
860.938	98.3
861.112	67.58
861.286	40.96
861.46	2.05
861.634	2.05
861.808	32.77
861.982	-32.77
862.157	2.05
862.331	-40.96
862.505	-16.38
862.679	71.68
862.853	-28.67
863.027	-2.05
863.201	22.53
863.375	-8.19
863.549	18.43
863.722	-14.34
863.896	-2.05
864.07	24.58
864.244	-16.38
864.418	-2.05
864.592	6.14
864.766	12.29
864.939	49.15
865.113	32.77
865.287	45.06
865.461	-53.25
865.634	14.34
865.808	28.67
865.982	-2.05
866.156	14.34
866.329	63.49
866.503	-36.86
866.676	45.06
866.85	26.62
867.024	24.58
867.197	63.49
867.371	20.48
867.544	-10.24
867.718	71.68
867.891	55.3
868.065	-22.53
868.238	14.34
868.412	6.14
868.585	6.14
868.759	-30.72
868.932	-24.58
869.105	-12.29
869.279	49.15
869.452	2.05
869.625	57.34
869.799	-14.34
869.972	4.1
870.145	32.77
870.319	-14.34
870.492	-12.29
870.665	-40.96
870.838	12.29
871.011	49.15
871.185	38.91
871.358	30.72
871.531	-4.1
871.704	-12.29
871.877	-26.62
872.05	12.29
872.223	-26.62
872.396	18.43
872.569	-20.48
872.742	-12.29
872.915	38.91
873.088	10.24
873.261	-8.19
873.434	12.29
873.607	34.82
873.78	34.82
873.953	18.43
874.126	22.53
874.299	16.38
874.471	-90.11
874.644	-26.62
874.817	-10.24
874.99	59.39
875.163	-30.72
875.335	-4.1
875.508	-36.86
875.681	83.97
875.853	20.48
876.026	-10.24
876.199	45.06
876.371	12.29
876.544	-8.19
876.717	-18.43
876.889	-53.25
877.062	-18.43
877.234	43.01
877.407	-36.86
877.579	0
877.752	30.72
877.924	28.67
878.097	24.58
878.269	4.1
878.442	24.58
878.614	-28.67
878.786	12.29
878.959	63.49
879.131	-30.72
879.303	28.67
879.476	-16.38
879.648	-6.14
879.82	0
879.993	51.2
880.165	-40.96
880.337	-36.86
880.509	4.1
880.681	-51.2
880.854	61.44
881.026	16.38
881.198	12.29
881.37	-30.72
881.542	-30.72
881.714	-53.25
881.886	-10.24
882.058	8.19
882.23	51.2
882.402	-49.15
882.574	28.67
882.746	-8.19
882.918	-6.14
883.09	36.86
883.262	61.44
883.434	-53.25
883.606	10.24
883.778	-67.58
883.95	36.86
884.122	40.96
884.293	22.53
884.465	-12.29
884.637	-14.34
884.809	-20.48
884.98	28.67
885.152	16.38
885.324	-36.86
885.496	4.1
885.667	-2.05
885.839	-6.14
886.011	-6.14
886.182	-20.48
886.354	-2.05
886.525	57.34
886.697	-20.48
886.869	-38.91
887.04	-38.91
887.212	30.72
887.383	-12.29
887.555	-6.14
887.726	24.58
887.897	-32.77
888.069	22.53
888.24	-22.53
888.412	43.01
888.583	22.53
888.754	22.53
888.926	12.29
889.097	-51.2
889.268	-26.62
889.44	47.1
889.611	-45.06
889.782	30.72
889.953	14.34
890.125	16.38
890.296	-53.25
890.467	4.1
890.638	-22.53
890.809	8.19
890.98	61.44
891.151	16.38
891.323	-34.82
891.494	28.67
891.665	-28.67
891.836	-6.14
892.007	-2.05
892.178	18.43
892.349	-88.06
892.52	-51.2
892.691	-63.49
892.862	22.53
893.032	-10.24
893.203	28.67
893.374	18.43
893.545	20.48
893.716	-10.24
893.887	-28.67
894.057	28.67
894.228	-26.62
894.399	8.19
894.57	-38.91
894.74	18.43
894.911	20.48
895.082	-61.44
895.253	-14.34
895.423	-26.62
895.594	-18.43
895.764	38.91
895.935	-18.43
896.106	10.24
896.276	-53.25
896.447	-53.25
896.617	-20.48
896.788	16.38
896.958	22.53
897.129	47.1
897.299	-14.34
897.47	32.77
897.64	-36.86
897.81	90.11
897.981	12.29
898.151	4.1
898.322	-53.25
898.492	-69.63
898.662	-10.24
898.832	-32.77
899.003	34.82
899.173	65.54
899.343	0
899.513	-12.29
