Data from USB4F104151__74__13-54-07-133.txt Node

Date: Thu Mar 13 13:54:07 EDT 2025
User: louis
Spectrometer: USB4F10415
Trigger mode: 4
Integration Time (sec): 1.000000E-2
Scans to average: 1
Electric dark correction enabled: true
Nonlinearity correction enabled: false
Boxcar width: 0
XAxis mode: Wavelengths
Number of Pixels in Spectrum: 3648
>>>>>Begin Spectral Data<<<<<
178.204	18.26
178.424	18.26
178.644	18.26
178.864	-30.89
179.084	-73.9
179.304	-37.03
179.524	42.84
179.744	8.02
179.964	57.17
180.184	-94.38
180.404	30.55
180.624	20.31
180.844	-2.22
181.064	-49.32
181.283	-14.51
181.503	5.97
181.723	32.6
181.943	-28.84
182.163	22.36
182.383	46.93
182.602	20.31
182.822	3.93
183.042	32.6
183.262	20.31
183.482	-28.84
183.701	3.93
183.921	32.6
184.141	-94.38
184.361	53.08
184.58	-10.41
184.8	-2.22
185.02	16.21
185.239	18.26
185.459	42.84
185.679	3.93
185.898	-10.41
186.118	26.45
186.338	55.12
186.557	59.22
186.777	-12.46
186.997	5.97
187.216	-18.6
187.436	-8.36
187.655	-24.75
187.875	-30.89
188.095	-18.6
188.314	10.07
188.534	96.08
188.753	1.88
188.973	55.12
189.192	-2.22
189.412	12.12
189.631	-2.22
189.851	-37.03
190.07	22.36
190.29	38.74
190.509	38.74
190.729	53.08
190.948	-16.55
191.168	10.07
191.387	16.21
191.607	-41.13
191.826	87.89
192.045	24.4
192.265	-6.31
192.484	53.08
192.704	-6.31
192.923	3.93
193.142	42.84
193.362	28.5
193.581	38.74
193.8	48.98
194.02	-41.13
194.239	-47.27
194.458	-47.27
194.678	-10.41
194.897	14.17
195.116	-59.56
195.335	28.5
195.555	57.17
195.774	-39.08
195.993	8.02
196.212	-34.99
196.432	30.55
196.651	34.64
196.87	34.64
197.089	65.36
197.308	34.64
197.528	-10.41
197.747	40.79
197.966	57.17
198.185	18.26
198.404	-57.51
198.623	-4.27
198.842	24.4
199.062	12.12
199.281	-30.89
199.5	51.03
199.719	20.31
199.938	-0.17
200.157	59.22
200.376	-41.13
200.595	79.7
200.814	-49.32
201.033	-14.51
201.252	-77.99
201.471	46.93
201.69	24.4
201.909	46.93
202.128	38.74
202.347	42.84
202.566	-30.89
202.785	20.31
203.004	1.88
203.223	59.22
203.442	12.12
203.661	77.65
203.879	38.74
204.098	-20.65
204.317	40.79
204.536	46.93
204.755	-59.56
204.974	38.74
205.193	46.93
205.411	40.79
205.63	22.36
205.849	24.4
206.068	16.21
206.287	3.93
206.505	3.93
206.724	67.41
206.943	3.93
207.162	16.21
207.381	12.12
207.599	22.36
207.818	-37.03
208.037	3.93
208.255	71.51
208.474	-28.84
208.693	-55.47
208.911	30.55
209.13	28.5
209.349	44.88
209.567	67.41
209.786	44.88
210.005	20.31
210.223	-0.17
210.442	20.31
210.661	-32.94
210.879	-34.99
211.098	57.17
211.316	38.74
211.535	-10.41
211.753	24.4
211.972	8.02
212.191	5.97
212.409	8.02
212.628	8.02
212.846	22.36
213.065	-8.36
213.283	73.56
213.502	-8.36
213.72	-8.36
213.938	22.36
214.157	28.5
214.375	-4.27
214.594	34.64
214.812	63.32
215.031	28.5
215.249	-16.55
215.467	100.18
215.686	51.03
215.904	53.08
216.122	40.79
216.341	1.88
216.559	28.5
216.778	40.79
216.996	59.22
217.214	-14.51
217.432	-32.94
217.651	63.32
217.869	8.02
218.087	106.32
218.306	-18.6
218.524	81.75
218.742	51.03
218.96	-2.22
219.179	10.07
219.397	-0.17
219.615	77.65
219.833	96.08
220.051	-43.18
220.27	51.03
220.488	-8.36
220.706	-41.13
220.924	-4.27
221.142	57.17
221.36	110.42
221.578	12.12
221.796	-32.94
222.015	22.36
222.233	73.56
222.451	38.74
222.669	51.03
222.887	30.55
223.105	61.27
223.323	18.26
223.541	22.36
223.759	-8.36
223.977	-6.31
224.195	-51.37
224.413	69.46
224.631	22.36
224.849	81.75
225.067	51.03
225.285	-12.46
225.503	24.4
225.721	-41.13
225.939	-18.6
226.157	26.45
226.375	26.45
226.592	-22.7
226.81	120.66
227.028	-2.22
227.246	59.22
227.464	36.69
227.682	38.74
227.9	-4.27
228.117	55.12
228.335	22.36
228.553	46.93
228.771	-30.89
228.989	42.84
229.206	38.74
229.424	-20.65
229.642	34.64
229.86	85.84
230.077	71.51
230.295	-2.22
230.513	-2.22
230.731	22.36
230.948	46.93
231.166	3.93
231.384	-16.55
231.601	34.64
231.819	24.4
232.037	59.22
232.254	1.88
232.472	-47.27
232.689	57.17
232.907	32.6
233.125	8.02
233.342	38.74
233.56	8.02
233.777	16.21
233.995	8.02
234.213	42.84
234.43	34.64
234.648	65.36
234.865	53.08
235.083	-53.42
235.3	10.07
235.518	10.07
235.735	69.46
235.953	67.41
236.17	34.64
236.388	32.6
236.605	16.21
236.822	5.97
237.04	12.12
237.257	75.6
237.475	-0.17
237.692	5.97
237.909	18.26
238.127	40.79
238.344	-24.75
238.562	83.8
238.779	-2.22
238.996	20.31
239.214	51.03
239.431	-47.27
239.648	1.88
239.865	-34.99
240.083	63.32
240.3	44.88
240.517	-10.41
240.735	98.13
240.952	10.07
241.169	30.55
241.386	16.21
241.603	71.51
241.821	36.69
242.038	14.17
242.255	30.55
242.472	38.74
242.689	94.04
242.907	10.07
243.124	28.5
243.341	-30.89
243.558	30.55
243.775	-20.65
243.992	-16.55
244.209	38.74
244.426	26.45
244.643	83.8
244.86	65.36
245.078	-39.08
245.295	-0.17
245.512	12.12
245.729	-4.27
245.946	71.51
246.163	102.23
246.38	22.36
246.597	48.98
246.814	-2.22
247.031	16.21
247.248	63.32
247.464	-14.51
247.681	18.26
247.898	-24.75
248.115	26.45
248.332	32.6
248.549	16.21
248.766	28.5
248.983	81.75
249.2	1.88
249.417	-28.84
249.633	14.17
249.85	53.08
250.067	85.84
250.284	26.45
250.501	28.5
250.717	85.84
250.934	-39.08
251.151	-8.36
251.368	102.23
251.585	44.88
251.801	-2.22
252.018	-12.46
252.235	14.17
252.451	22.36
252.668	-30.89
252.885	-41.13
253.102	34.64
253.318	-16.55
253.535	-16.55
253.752	53.08
253.968	16.21
254.185	34.64
254.401	32.6
254.618	61.27
254.835	34.64
255.051	69.46
255.268	75.6
255.484	53.08
255.701	44.88
255.917	112.47
256.134	79.7
256.351	38.74
256.567	42.84
256.784	3.93
257	-43.18
257.217	12.12
257.433	38.74
257.65	30.55
257.866	3.93
258.082	10.07
258.299	57.17
258.515	48.98
258.732	-65.71
258.948	53.08
259.165	71.51
259.381	-16.55
259.597	34.64
259.814	98.13
260.03	16.21
260.246	-2.22
260.463	51.03
260.679	61.27
260.895	96.08
261.112	14.17
261.328	1.88
261.544	30.55
261.761	114.52
261.977	-0.17
262.193	-28.84
262.409	26.45
262.626	87.89
262.842	48.98
263.058	-61.61
263.274	26.45
263.49	44.88
263.707	30.55
263.923	-49.32
264.139	3.93
264.355	-37.03
264.571	-18.6
264.787	59.22
265.004	28.5
265.22	16.21
265.436	36.69
265.652	24.4
265.868	59.22
266.084	40.79
266.3	-41.13
266.516	55.12
266.732	44.88
266.948	-47.27
267.164	-12.46
267.38	34.64
267.596	26.45
267.812	36.69
268.028	48.98
268.244	-28.84
268.46	20.31
268.676	-20.65
268.892	10.07
269.108	71.51
269.324	-37.03
269.54	-18.6
269.756	55.12
269.972	30.55
270.188	22.36
270.403	-30.89
270.619	38.74
270.835	8.02
271.051	-0.17
271.267	79.7
271.483	-12.46
271.698	53.08
271.914	65.36
272.13	-49.32
272.346	18.26
272.562	10.07
272.777	34.64
272.993	-32.94
273.209	81.75
273.425	3.93
273.64	38.74
273.856	-30.89
274.072	26.45
274.287	42.84
274.503	-43.18
274.719	61.27
274.934	34.64
275.15	-45.23
275.366	-6.31
275.581	18.26
275.797	55.12
276.012	-12.46
276.228	16.21
276.444	46.93
276.659	40.79
276.875	85.84
277.09	38.74
277.306	-14.51
277.521	8.02
277.737	-18.6
277.952	14.17
278.168	-49.32
278.383	8.02
278.599	-16.55
278.814	71.51
279.03	-43.18
279.245	81.75
279.461	-32.94
279.676	32.6
279.892	26.45
280.107	32.6
280.322	5.97
280.538	81.75
280.753	-49.32
280.969	24.4
281.184	-4.27
281.399	30.55
281.615	-14.51
281.83	38.74
282.045	-14.51
282.26	-18.6
282.476	3.93
282.691	73.56
282.906	-34.99
283.122	3.93
283.337	18.26
283.552	71.51
283.767	-6.31
283.983	-6.31
284.198	22.36
284.413	42.84
284.628	55.12
284.843	-30.89
285.058	-8.36
285.274	-0.17
285.489	46.93
285.704	-32.94
285.919	-14.51
286.134	57.17
286.349	14.17
286.564	-2.22
286.779	102.23
286.995	16.21
287.21	57.17
287.425	38.74
287.64	-45.23
287.855	28.5
288.07	-26.79
288.285	32.6
288.5	79.7
288.715	-10.41
288.93	-41.13
289.145	-18.6
289.36	-39.08
289.575	53.08
289.79	65.36
290.004	-4.27
290.219	-10.41
290.434	44.88
290.649	-18.6
290.864	8.02
291.079	5.97
291.294	46.93
291.509	63.32
291.724	83.8
291.938	87.89
292.153	57.17
292.368	32.6
292.583	22.36
292.798	73.56
293.012	61.27
293.227	-55.47
293.442	24.4
293.657	94.04
293.871	32.6
294.086	-18.6
294.301	118.61
294.516	14.17
294.73	-26.79
294.945	63.32
295.16	71.51
295.374	-14.51
295.589	61.27
295.804	-34.99
296.018	40.79
296.233	-24.75
296.447	-0.17
296.662	-55.47
296.877	14.17
297.091	46.93
297.306	32.6
297.52	91.99
297.735	-47.27
297.949	22.36
298.164	10.07
298.378	85.84
298.593	-28.84
298.807	67.41
299.022	75.6
299.236	3.93
299.451	12.12
299.665	30.55
299.88	48.98
300.094	100.18
300.309	-2.22
300.523	69.46
300.737	-4.27
300.952	38.74
301.166	69.46
301.381	-28.84
301.595	30.55
301.809	14.17
302.024	-26.79
302.238	3.93
302.452	26.45
302.667	-20.65
302.881	69.46
303.095	-24.75
303.309	3.93
303.524	44.88
303.738	-10.41
303.952	26.45
304.166	32.6
304.381	-28.84
304.595	63.32
304.809	-0.17
305.023	5.97
305.237	53.08
305.452	57.17
305.666	83.8
305.88	10.07
306.094	24.4
306.308	38.74
306.522	-8.36
306.736	-45.23
306.95	-14.51
307.164	-2.22
307.379	-26.79
307.593	5.97
307.807	69.46
308.021	69.46
308.235	73.56
308.449	10.07
308.663	26.45
308.877	126.8
309.091	83.8
309.305	18.26
309.519	-37.03
309.733	120.66
309.947	16.21
310.161	24.4
310.374	22.36
310.588	57.17
310.802	79.7
311.016	40.79
311.23	18.26
311.444	40.79
311.658	34.64
311.872	71.51
312.085	63.32
312.299	10.07
312.513	38.74
312.727	32.6
312.941	10.07
313.154	34.64
313.368	32.6
313.582	55.12
313.796	-20.65
314.009	63.32
314.223	51.03
314.437	22.36
314.651	-47.27
314.864	24.4
315.078	-20.65
315.292	46.93
315.505	-41.13
315.719	16.21
315.933	-8.36
316.146	-0.17
316.36	28.5
316.573	10.07
316.787	26.45
317.001	-20.65
317.214	-16.55
317.428	46.93
317.641	20.31
317.855	26.45
318.068	-22.7
318.282	-49.32
318.495	110.42
318.709	108.37
318.922	16.21
319.136	159.57
319.349	61.27
319.563	79.7
319.776	87.89
319.99	55.12
320.203	-10.41
320.417	34.64
320.63	14.17
320.843	8.02
321.057	-4.27
321.27	22.36
321.483	40.79
321.697	67.41
321.91	-22.7
322.124	18.26
322.337	22.36
322.55	-10.41
322.763	5.97
322.977	22.36
323.19	-26.79
323.403	10.07
323.617	63.32
323.83	12.12
324.043	-30.89
324.256	20.31
324.469	14.17
324.683	85.84
324.896	-28.84
325.109	24.4
325.322	40.79
325.535	-16.55
325.748	-4.27
325.962	36.69
326.175	-16.55
326.388	-22.7
326.601	-6.31
326.814	89.94
327.027	32.6
327.24	83.8
327.453	20.31
327.666	5.97
327.879	36.69
328.092	-0.17
328.305	55.12
328.518	36.69
328.731	24.4
328.944	55.12
329.157	59.22
329.37	30.55
329.583	94.04
329.796	46.93
330.009	-73.9
330.222	-18.6
330.435	-0.17
330.648	-18.6
330.861	51.03
331.073	24.4
331.286	-45.23
331.499	34.64
331.712	-0.17
331.925	79.7
332.138	22.36
332.35	42.84
332.563	24.4
332.776	89.94
332.989	-10.41
333.202	-47.27
333.414	-8.36
333.627	55.12
333.84	-0.17
334.053	-6.31
334.265	20.31
334.478	81.75
334.691	48.98
334.903	14.17
335.116	16.21
335.329	-4.27
335.541	-8.36
335.754	46.93
335.966	-61.61
336.179	38.74
336.392	3.93
336.604	42.84
336.817	44.88
337.029	46.93
337.242	30.55
337.454	-20.65
337.667	12.12
337.88	22.36
338.092	40.79
338.305	46.93
338.517	30.55
338.729	-4.27
338.942	48.98
339.154	5.97
339.367	55.12
339.579	91.99
339.792	22.36
340.004	53.08
340.217	18.26
340.429	65.36
340.641	-45.23
340.854	14.17
341.066	-2.22
341.278	51.03
341.491	-14.51
341.703	-2.22
341.915	75.6
342.128	16.21
342.34	65.36
342.552	14.17
342.764	3.93
342.977	1.88
343.189	59.22
343.401	-10.41
343.613	30.55
343.826	-55.47
344.038	32.6
344.25	44.88
344.462	12.12
344.674	5.97
344.886	-43.18
345.099	26.45
345.311	-22.7
345.523	46.93
345.735	55.12
345.947	1.88
346.159	53.08
346.371	-34.99
346.583	118.61
346.795	42.84
347.007	1.88
347.219	40.79
347.431	-12.46
347.643	-12.46
347.855	16.21
348.067	48.98
348.279	-18.6
348.491	12.12
348.703	55.12
348.915	-10.41
349.127	55.12
349.339	-0.17
349.551	-53.42
349.763	40.79
349.975	57.17
350.187	30.55
350.399	5.97
350.61	55.12
350.822	-55.47
351.034	77.65
351.246	40.79
351.458	30.55
351.669	-0.17
351.881	85.84
352.093	65.36
352.305	34.64
352.517	-59.56
352.728	65.36
352.94	-26.79
353.152	89.94
353.363	24.4
353.575	-6.31
353.787	83.8
353.999	20.31
354.21	44.88
354.422	18.26
354.633	48.98
354.845	22.36
355.057	57.17
355.268	85.84
355.48	81.75
355.692	5.97
355.903	48.98
356.115	40.79
356.326	10.07
356.538	30.55
356.749	-16.55
356.961	83.8
357.172	-8.36
357.384	26.45
357.595	14.17
357.807	65.36
358.018	-14.51
358.23	46.93
358.441	34.64
358.653	73.56
358.864	51.03
359.075	5.97
359.287	12.12
359.498	63.32
359.709	10.07
359.921	5.97
360.132	83.8
360.344	46.93
360.555	75.6
360.766	89.94
360.977	-37.03
361.189	32.6
361.4	3.93
361.611	102.23
361.823	110.42
362.034	8.02
362.245	-2.22
362.456	-61.61
362.667	51.03
362.879	-22.7
363.09	-22.7
363.301	151.38
363.512	22.36
363.723	22.36
363.935	14.17
364.146	100.18
364.357	89.94
364.568	75.6
364.779	44.88
364.99	57.17
365.201	30.55
365.412	18.26
365.623	-39.08
365.834	18.26
366.045	-22.7
366.256	120.66
366.467	44.88
366.678	28.5
366.889	28.5
367.1	57.17
367.311	-2.22
367.522	-67.75
367.733	1.88
367.944	8.02
368.155	42.84
368.366	48.98
368.577	87.89
368.788	24.4
368.999	59.22
369.209	22.36
369.42	61.27
369.631	77.65
369.842	14.17
370.053	32.6
370.264	-14.51
370.474	-2.22
370.685	-6.31
370.896	96.08
371.107	-6.31
371.317	18.26
371.528	38.74
371.739	67.41
371.95	53.08
372.16	71.51
372.371	10.07
372.582	-6.31
372.792	22.36
373.003	98.13
373.214	30.55
373.424	34.64
373.635	65.36
373.846	-75.95
374.056	59.22
374.267	194.39
374.477	-10.41
374.688	46.93
374.898	42.84
375.109	46.93
375.319	-14.51
375.53	28.5
375.74	48.98
375.951	-28.84
376.161	38.74
376.372	87.89
376.582	12.12
376.793	63.32
377.003	46.93
377.214	1.88
377.424	-6.31
377.635	-20.65
377.845	51.03
378.055	67.41
378.266	10.07
378.476	75.6
378.686	16.21
378.897	73.56
379.107	42.84
379.317	53.08
379.528	69.46
379.738	30.55
379.948	28.5
380.158	-26.79
380.369	24.4
380.579	14.17
380.789	46.93
380.999	28.5
381.21	28.5
381.42	18.26
381.63	-30.89
381.84	26.45
382.05	38.74
382.261	69.46
382.471	36.69
382.681	42.84
382.891	24.4
383.101	42.84
383.311	-10.41
383.521	18.26
383.731	3.93
383.941	8.02
384.151	48.98
384.361	38.74
384.571	51.03
384.781	48.98
384.991	73.56
385.201	122.71
385.411	-41.13
385.621	61.27
385.831	53.08
386.041	51.03
386.251	-8.36
386.461	8.02
386.671	42.84
386.881	16.21
387.091	83.8
387.301	63.32
387.511	14.17
387.72	32.6
387.93	42.84
388.14	-12.46
388.35	139.09
388.56	55.12
388.769	81.75
388.979	20.31
389.189	44.88
389.399	102.23
389.609	-4.27
389.818	-20.65
390.028	-0.17
390.238	14.17
390.447	-20.65
390.657	-45.23
390.867	36.69
391.076	51.03
391.286	-0.17
391.496	57.17
391.705	53.08
391.915	126.8
392.125	147.28
392.334	42.84
392.544	53.08
392.753	40.79
392.963	48.98
393.172	53.08
393.382	57.17
393.591	22.36
393.801	81.75
394.01	59.22
394.22	48.98
394.429	38.74
394.639	44.88
394.848	38.74
395.058	59.22
395.267	40.79
395.477	-47.27
395.686	46.93
395.895	79.7
396.105	114.52
396.314	-12.46
396.524	30.55
396.733	-10.41
396.942	98.13
397.152	67.41
397.361	12.12
397.57	98.13
397.78	65.36
397.989	42.84
398.198	71.51
398.407	85.84
398.617	108.37
398.826	18.26
399.035	87.89
399.244	44.88
399.453	143.19
399.663	81.75
399.872	63.32
400.081	40.79
400.29	63.32
400.499	87.89
400.708	75.6
400.917	28.5
401.127	40.79
401.336	18.26
401.545	75.6
401.754	94.04
401.963	-22.7
402.172	132.95
402.381	46.93
402.59	38.74
402.799	28.5
403.008	100.18
403.217	87.89
403.426	89.94
403.635	14.17
403.844	55.12
404.053	55.12
404.262	85.84
404.471	77.65
404.68	137.04
404.888	175.95
405.097	94.04
405.306	26.45
405.515	124.76
405.724	188.24
405.933	96.08
406.142	77.65
406.35	44.88
406.559	106.32
406.768	110.42
406.977	118.61
407.185	169.81
407.394	175.95
407.603	171.86
407.812	114.52
408.02	171.86
408.229	108.37
408.438	110.42
408.646	153.43
408.855	83.8
409.064	202.58
409.272	159.57
409.481	167.76
409.69	165.71
409.898	223.06
410.107	247.63
410.315	218.96
410.524	251.73
410.733	235.35
410.941	223.06
411.15	218.96
411.358	268.11
411.567	241.49
411.775	233.3
411.984	288.59
412.192	231.25
412.401	280.4
412.609	249.68
412.818	382.8
413.026	341.84
413.234	347.98
413.443	347.98
413.651	261.97
413.86	368.46
414.068	317.26
414.276	419.66
414.485	415.57
414.693	393.04
414.901	386.9
415.11	431.95
415.318	458.57
415.526	472.91
415.734	569.16
415.943	534.35
416.151	468.81
416.359	479.05
416.567	571.21
416.776	550.73
416.984	560.97
417.192	571.21
417.4	601.93
417.608	653.13
417.817	579.4
418.025	655.18
418.233	689.99
418.441	773.96
418.649	741.19
418.857	806.73
419.065	819.02
419.273	806.73
419.481	917.32
419.689	933.7
419.897	911.18
420.105	966.47
420.313	982.85
420.521	999.24
420.729	1052.49
420.937	1046.34
421.145	1050.44
421.353	1140.55
421.561	1244.99
421.769	1240.9
421.977	1298.24
422.185	1277.76
422.393	1337.15
422.601	1460.03
422.809	1414.98
423.017	1419.07
423.224	1472.32
423.432	1494.85
423.64	1656.64
423.848	1599.29
424.056	1691.45
424.263	1812.28
424.471	1771.32
424.679	1838.91
424.887	1845.05
425.094	1900.34
425.302	1877.82
425.51	2111.29
425.718	2131.76
425.925	2043.7
426.133	2197.3
426.341	2338.61
426.548	2438.96
426.756	2629.42
426.964	2494.26
427.171	2688.81
427.379	2660.14
427.586	2717.48
427.794	2807.59
428.001	2883.37
428.209	3219.24
428.417	2936.62
428.624	3165.99
428.832	3274.53
429.039	3127.08
429.247	3280.68
429.454	3534.62
429.662	3647.26
429.869	3385.12
430.076	3702.56
430.284	3735.32
430.491	3770.14
430.699	4069.14
430.906	4011.8
431.114	4056.86
431.321	4163.35
431.528	4400.91
431.736	4552.46
431.943	4810.51
432.15	4749.07
432.358	4810.51
432.565	4873.99
432.772	5041.93
432.979	5162.76
433.187	5252.87
433.394	5330.69
433.601	5797.63
433.808	5494.53
434.016	5730.05
434.223	5914.36
434.43	6174.46
434.637	5908.22
434.844	6512.37
435.052	6708.97
435.259	6653.68
435.466	6622.96
435.673	6627.06
435.88	6878.96
436.087	7331.56
436.294	7290.6
436.501	7198.44
436.708	7417.57
436.915	7618.27
437.122	7913.18
437.329	7958.24
437.537	7986.91
437.743	8275.67
437.95	8222.42
438.157	8646.35
438.364	8779.47
438.571	8818.38
438.778	8961.74
438.985	9766.59
439.192	9397.96
439.399	9713.35
439.606	9377.48
439.813	10045.12
440.02	10536.63
440.227	10436.28
440.433	10251.96
440.64	10757.81
440.847	10712.75
441.054	11009.71
441.261	11327.14
441.467	11427.49
441.674	11632.29
441.881	12175
442.088	12170.91
442.294	12099.23
442.501	12275.35
442.708	12783.25
442.914	12934.8
443.121	13448.84
443.328	13139.6
443.534	14212.73
443.741	13631.11
443.948	13702.79
444.154	14470.78
444.361	14534.26
444.568	14458.49
444.774	14530.17
444.981	14786.16
445.187	15289.96
445.394	15740.52
445.6	15650.41
445.807	17051.22
446.013	16428.63
446.22	16727.64
446.426	17145.42
446.633	17458.76
446.839	17946.18
447.046	17405.52
447.252	18269.76
447.459	18099.78
447.665	17995.33
447.871	18943.54
448.078	19607.08
448.284	18808.37
448.491	19559.98
448.697	20248.1
448.903	20428.32
449.11	20809.24
449.316	20211.23
449.522	20545.05
449.728	20909.59
449.935	21229.07
450.141	21569.04
450.347	21861.9
450.553	20792.86
450.76	21272.08
450.966	22273.54
451.172	21698.06
451.378	22515.2
451.584	21610
451.791	22478.33
451.997	22007.3
452.203	22607.36
452.409	22187.52
452.615	22418.94
452.821	21796.36
453.027	21274.13
453.233	22543.87
453.44	21638.67
453.646	21880.33
453.852	21982.73
454.058	22607.36
454.264	21583.37
454.47	22107.65
454.676	21405.2
454.882	22099.46
455.088	20373.02
455.294	20583.96
455.5	20889.11
455.705	21083.67
455.911	20108.83
456.117	19590.7
456.323	19572.27
456.529	18439.74
456.735	19207.73
456.941	18738.74
457.147	18300.48
457.352	17884.74
457.558	17710.66
457.764	17563.21
457.97	17372.75
458.176	16918.1
458.381	16907.86
458.587	16195.17
458.793	16277.08
458.999	15421.03
459.204	16352.86
459.41	15781.48
459.616	14587.51
459.821	14816.88
460.027	15011.44
460.233	14409.34
460.438	13692.55
460.644	13848.19
460.85	13301.39
461.055	13061.77
461.261	13225.61
461.466	12033.69
461.672	11691.68
461.878	12578.45
462.083	11853.47
462.289	11431.59
462.494	11484.84
462.7	10892.98
462.905	10821.3
463.111	11005.61
463.316	11060.91
463.522	10958.51
463.727	10800.82
463.932	10813.1
464.138	10733.23
464.343	10858.16
464.549	10360.5
464.754	10759.86
464.959	10776.24
465.165	10661.55
465.37	10288.82
465.575	9819.84
465.781	10350.26
465.986	10479.29
466.191	10288.82
466.397	9891.52
466.602	9490.12
466.807	9764.54
467.012	9668.29
467.218	9803.46
467.423	9404.1
467.628	9725.63
467.833	9942.72
468.038	9817.79
468.244	9385.67
468.449	9666.24
468.654	9516.74
468.859	9146.06
469.064	9320.14
469.269	9010.89
469.474	9084.62
469.679	9197.26
469.885	8920.78
470.09	9053.9
470.295	9113.29
470.5	8679.12
470.705	8695.5
470.91	8578.77
471.115	8613.59
471.32	8556.24
471.525	8634.07
471.73	8408.79
471.935	8441.56
472.139	8001.24
472.344	8203.99
472.549	8183.51
472.754	8058.59
472.959	7749.34
473.164	7710.43
473.369	7683.81
473.574	7888.6
473.778	7892.7
473.983	7800.54
474.188	7778.01
474.393	7337.7
474.598	7479.01
474.802	7397.09
475.007	7239.4
475.212	7192.3
475.417	6934.25
475.621	6967.02
475.826	6981.35
476.031	6868.72
476.235	6751.98
476.44	6811.37
476.645	6538.99
476.849	6813.42
477.054	6584.05
477.259	6418.16
477.463	6506.23
477.668	6315.76
477.872	6457.07
478.077	6250.23
478.282	6266.61
478.486	6164.22
478.691	6102.78
478.895	6291.19
479.1	6168.31
479.304	5961.47
479.509	6002.43
479.713	6037.24
479.918	5795.58
480.122	5660.41
480.326	5916.41
480.531	5840.64
480.735	5932.79
480.94	5607.17
481.144	5900.03
481.348	5576.45
481.553	5570.3
481.757	5656.32
481.961	5799.68
482.166	5779.2
482.37	5762.81
482.574	5740.29
482.778	5670.65
482.983	5783.29
483.187	5633.79
483.391	5789.44
483.595	5570.3
483.8	5500.67
484.004	5586.69
484.208	5615.36
484.412	5639.94
484.616	5809.92
484.821	5654.27
485.025	5623.55
485.229	5750.53
485.433	5584.64
485.637	5676.8
485.841	5705.47
486.045	5615.36
486.249	5510.91
486.453	5582.59
486.657	5682.94
486.861	5598.98
487.065	5408.51
487.269	5472
487.473	5515.01
487.677	5623.55
487.881	5537.54
488.085	5428.99
488.289	5687.04
488.493	5646.08
488.697	5627.65
488.901	5897.98
489.105	5867.26
489.309	5666.56
489.512	5721.85
489.716	5689.09
489.92	5508.87
490.124	5662.46
490.328	5820.16
490.531	5771.01
490.735	5814.01
490.939	5961.47
491.143	5848.83
491.346	5830.4
491.55	5918.46
491.754	5963.51
491.958	5836.54
492.161	5818.11
492.365	5875.45
492.569	5857.02
492.772	5902.08
492.976	6053.62
493.18	6086.39
493.383	6162.17
493.587	6178.55
493.79	6364.92
493.994	6211.32
494.197	6262.52
494.401	6387.44
494.605	6235.89
494.808	6321.91
495.012	6475.51
495.215	6512.37
495.419	6631.15
495.622	6502.13
495.825	6680.3
496.029	6729.45
496.232	6913.77
496.436	6684.4
496.639	7016.17
496.843	6969.07
497.046	6876.91
497.249	7145.19
497.453	7114.47
497.656	7153.38
497.859	7349.99
498.063	7259.88
498.266	7333.61
498.469	7515.87
498.673	7517.92
498.876	7515.87
499.079	7634.66
499.282	7866.08
499.485	7890.65
499.689	7997.15
499.892	8005.34
500.095	8163.03
500.298	8416.98
500.501	8419.03
500.705	8556.24
500.908	8459.99
501.111	8644.31
501.314	8859.34
501.517	8824.53
501.72	9055.95
501.923	8937.16
502.126	9340.61
502.329	9455.3
502.532	9408.2
502.735	9477.83
502.938	9735.87
503.141	9752.26
503.344	9830.08
503.547	9987.77
503.75	9946.81
503.953	10315.45
504.156	10208.95
504.359	10391.22
504.562	10344.12
504.765	10839.73
504.968	10776.24
505.17	11007.66
505.373	11003.57
505.576	11212.46
505.779	11341.48
505.982	11509.41
506.185	11581.09
506.387	11660.96
506.59	11771.55
506.793	12103.32
506.996	11935.39
507.198	12504.73
507.401	12353.18
507.604	12637.84
507.807	12664.47
508.009	12859.03
508.212	12949.14
508.415	13168.27
508.617	13268.62
508.82	13553.29
509.022	13401.74
509.225	13936.26
509.428	14034.56
509.63	14063.23
509.833	14085.76
510.035	14583.41
510.238	14345.85
510.44	14683.77
510.643	15036.02
510.845	15074.93
511.048	15036.02
511.25	15375.98
511.453	15421.03
511.655	16055.9
511.858	15701.61
512.06	15851.11
512.262	16143.97
512.465	16176.73
512.667	16592.47
512.87	16852.56
513.072	16725.59
513.274	17196.62
513.477	17311.31
513.679	17530.44
513.881	18007.62
514.084	17952.32
514.286	18071.11
514.488	18355.77
514.69	18634.3
514.893	18757.18
515.095	18767.41
515.297	19090.99
515.499	19131.95
515.701	19684.9
515.904	19658.28
516.106	19750.44
516.308	19957.28
516.51	20502.04
516.712	20508.19
516.914	20669.98
517.116	21100.05
517.318	21323.28
517.52	21317.14
517.722	21532.17
517.925	22066.69
518.127	22083.08
518.329	22128.13
518.531	22103.56
518.733	22865.4
518.935	22945.27
519.136	22732.28
519.338	23729.64
519.54	23274.99
519.742	23850.47
519.944	24040.93
520.146	24348.13
520.348	24569.31
520.55	24430.05
520.752	24704.48
520.954	25245.14
521.155	25023.96
521.357	25249.24
521.559	25578.96
521.761	25877.96
521.963	25988.55
522.164	26289.6
522.366	26424.77
522.568	26828.22
522.77	27039.16
522.971	27520.43
523.173	27123.13
523.375	27315.64
523.576	27557.3
523.778	27874.73
523.98	28128.68
524.181	28356
524.383	28351.91
524.584	29210.01
524.786	28632.48
524.988	28321.19
525.189	29195.67
525.391	29451.67
525.592	29224.34
525.794	29459.86
525.995	29472.15
526.197	29715.86
526.398	29674.9
526.6	30096.78
526.801	30315.91
527.003	30248.33
527.204	30436.74
527.406	30502.28
527.607	30772.61
527.808	31303.03
528.01	30709.12
528.211	30813.57
528.412	31264.12
528.614	31427.96
528.815	31395.19
529.016	31587.7
529.218	31198.59
529.419	31579.51
529.62	31657.33
529.822	31483.25
530.023	31618.42
530.224	31745.39
530.425	31712.63
530.626	31808.88
530.828	31645.04
531.029	32623.97
531.23	32036.2
531.431	31903.09
531.632	32419.17
531.833	32513.38
532.035	32238.95
532.236	32439.65
532.437	32683.36
532.638	32804.19
532.839	32615.78
533.04	32929.12
533.241	32677.22
533.442	32834.91
533.643	32830.82
533.844	32853.34
534.045	32703.84
534.246	32568.68
534.447	32980.32
534.648	32619.88
534.849	32765.28
535.05	33084.76
535.251	33019.23
535.451	32853.34
535.652	32970.08
535.853	32939.36
536.054	33013.09
536.255	32886.11
536.456	32632.16
536.657	33686.87
536.857	32689.51
537.058	32830.82
537.259	33363.29
537.46	32990.56
537.66	32904.54
537.861	32828.77
538.062	32965.98
538.263	32998.75
538.463	33023.33
538.664	33084.76
538.865	32787.81
539.065	33092.96
539.266	32763.23
539.466	33305.95
539.667	32752.99
539.868	33082.72
540.068	32810.34
540.269	33043.81
540.469	33627.48
540.67	33074.52
540.87	33095
541.071	33152.35
541.271	33144.16
541.472	33359.19
541.672	33068.38
541.873	33084.76
542.073	32564.58
542.274	33297.75
542.474	32822.62
542.675	32796
542.875	33049.95
543.075	33060.19
543.276	32632.16
543.476	33000.8
543.676	33297.75
543.877	33023.33
544.077	33074.52
544.277	32888.16
544.478	32515.43
544.678	33150.3
544.878	32671.07
545.078	33064.28
545.279	32603.49
545.479	32990.56
545.679	33379.67
545.879	32585.06
546.079	33154.4
546.28	32736.61
546.48	32810.34
546.68	32984.41
546.88	32808.29
547.08	32949.6
547.28	32585.06
547.48	32458.09
547.68	32925.02
547.88	32531.81
548.081	33070.43
548.281	32849.25
548.481	32730.47
548.681	33047.9
548.881	32849.25
549.081	33232.22
549.28	32963.93
549.48	33330.52
549.68	32718.18
549.88	33305.95
550.08	32695.65
550.28	32679.27
550.48	32701.79
550.68	33332.57
550.88	32570.72
551.08	32472.42
551.279	32972.13
551.479	32845.15
551.679	32990.56
551.879	32576.87
552.079	33060.19
552.278	32843.1
552.478	32556.39
552.678	32728.42
552.878	32986.46
553.077	32621.92
553.277	32152.94
553.477	33285.47
553.676	32845.15
553.876	32869.73
554.076	32597.35
554.275	32593.25
554.475	32185.71
554.674	32744.8
554.874	32490.85
555.074	32396.65
555.273	32347.5
555.473	32687.46
555.672	32273.77
555.872	32247.15
556.071	32218.47
556.271	32540
556.47	32138.6
556.67	32040.3
556.869	32206.19
557.068	32179.56
557.268	32191.85
557.467	32056.68
557.667	31933.81
557.866	31767.92
558.065	31995.25
558.265	31491.44
558.464	31915.37
558.663	31733.11
558.863	31597.94
559.062	31987.05
559.261	31882.61
559.461	31974.77
559.66	31036.8
559.859	31475.06
560.058	31303.03
560.258	31593.84
560.457	31348.09
560.656	31384.95
560.855	31106.43
561.054	31505.78
561.253	30930.3
561.453	31243.64
561.652	31313.27
561.851	31468.92
562.05	31034.75
562.249	31030.65
562.448	31075.71
562.647	31077.76
562.846	30809.47
563.045	31030.65
563.244	30651.78
563.443	30850.43
563.642	30434.69
563.841	30453.12
564.04	30328.2
564.239	30627.2
564.438	30270.86
564.637	30850.43
564.836	30514.56
565.035	30004.62
565.234	30324.1
565.432	30135.69
565.631	29760.91
565.83	30266.76
566.029	29754.77
566.228	29932.94
566.427	29955.47
566.625	29818.25
566.824	29476.24
567.023	29681.04
567.222	29228.44
567.42	29848.97
567.619	29552.02
567.818	29515.15
568.016	29093.27
568.215	29384.08
568.414	29019.55
568.612	29320.6
568.811	29007.26
569.01	29130.14
569.208	28538.27
569.407	28929.44
569.605	28612
569.804	29031.83
570.002	28857.76
570.201	28878.24
570.4	28042.67
570.598	28310.95
570.797	28392.87
570.995	28204.45
571.193	27809.2
571.392	28333.48
571.59	27991.47
571.789	28083.62
571.987	27866.54
572.186	27979.18
572.384	27487.67
572.582	27723.18
572.781	27768.24
572.979	27463.09
573.177	27319.73
573.376	27391.41
573.574	27327.92
573.772	27225.53
573.971	27121.08
574.169	27033.02
574.367	26938.81
574.565	27080.12
574.763	26885.56
574.962	26678.72
575.16	26459.59
575.358	26572.22
575.556	26439.11
575.754	26760.64
575.952	26017.22
576.151	26152.39
576.349	25814.48
576.547	26426.82
576.745	26140.1
576.943	25900.49
577.141	25949.64
577.339	25785.8
577.537	25669.07
577.735	25740.75
577.933	25558.48
578.131	25626.06
578.329	25413.07
578.527	25157.08
578.725	25462.22
578.923	25335.25
579.121	25019.86
579.319	25054.68
579.516	25189.84
579.714	25001.43
579.912	24800.73
580.11	24864.22
580.308	24767.96
580.506	24960.47
580.704	24198.63
580.901	24610.27
581.099	24518.11
581.297	23944.68
581.495	24321.51
581.692	24276.45
581.89	24090.09
582.088	24102.37
582.285	24040.93
582.483	24147.43
582.681	23754.22
582.878	23813.61
583.076	23305.71
583.274	23498.22
583.471	23500.27
583.669	23311.86
583.866	23442.93
584.064	23731.69
584.262	23193.08
584.459	23188.98
584.657	23246.32
584.854	22955.51
585.052	23086.58
585.249	23246.32
585.447	22873.59
585.644	22842.87
585.841	23031.29
586.039	22715.9
586.236	22513.15
586.434	22482.43
586.631	22394.37
586.828	22353.41
587.026	22380.03
587.223	22271.49
587.42	22285.83
587.618	22195.71
587.815	21693.96
588.012	21952.01
588.21	21761.55
588.407	22109.7
588.604	21775.88
588.801	21759.5
588.999	21558.8
589.196	21528.08
589.393	21421.58
589.59	21384.72
589.787	21614.09
589.984	21194.26
590.182	21362.19
590.379	21181.97
590.576	20829.72
590.773	21198.35
590.97	20880.92
591.167	20979.22
591.364	20876.82
591.561	20872.73
591.758	20504.09
591.955	20612.63
592.152	20878.87
592.349	20954.65
592.546	20653.59
592.743	20543
592.94	20440.61
593.137	20387.36
593.334	20520.48
593.531	20041.25
593.727	20217.38
593.924	20090.4
594.121	19840.55
594.318	20141.6
594.515	20143.65
594.712	20145.7
594.908	19830.31
595.105	20096.55
595.302	19660.33
595.499	19947.04
595.696	19615.27
595.892	19484.2
596.089	19523.12
596.286	19582.51
596.482	19566.12
596.679	19273.26
596.876	19428.91
597.072	18984.5
597.269	19349.04
597.466	19152.43
597.662	19281.46
597.859	19064.37
598.055	19027.51
598.252	18812.47
598.448	18581.05
598.645	18902.58
598.841	18701.88
599.038	18798.13
599.234	18695.74
599.431	18529.85
599.627	18449.98
599.824	18470.46
600.02	18110.02
600.217	18413.12
600.413	18165.31
600.609	18175.55
600.806	18073.15
601.002	18318.91
601.198	18038.34
601.395	17958.47
601.591	17950.28
601.787	17862.21
601.984	17632.84
602.18	17890.88
602.376	17667.66
602.572	17632.84
602.769	17679.94
602.965	17546.83
603.161	17419.85
603.357	17454.67
603.553	17374.8
603.75	17389.13
603.946	17198.67
604.142	17333.84
604.338	17075.79
604.534	17233.49
604.73	17155.66
604.926	16903.76
605.122	17110.61
605.318	16873.04
605.514	16862.8
605.71	16721.49
605.906	16469.59
606.102	16502.36
606.298	16248.41
606.494	16754.26
606.69	16332.38
606.886	16524.89
607.082	16021.09
607.278	16445.02
607.474	16328.28
607.67	16215.65
607.866	16096.86
608.062	16055.9
608.257	16213.6
608.453	16252.51
608.649	15961.7
608.845	15785.57
609.041	16047.71
609.236	16209.5
609.432	16006.75
609.628	15783.52
609.824	15631.97
610.019	15642.21
610.215	15601.26
610.411	15595.11
610.606	15521.38
610.802	15470.19
610.998	15445.61
611.193	15421.03
611.389	15396.46
611.584	15191.66
611.78	15232.62
611.976	15332.97
612.171	15103.6
612.367	15339.12
612.562	15232.62
612.758	14995.06
612.953	14950
613.149	14904.95
613.344	15027.82
613.539	15365.74
613.735	15156.85
613.93	14999.15
614.126	14886.51
614.321	14960.24
614.517	14796.4
614.712	14741.11
614.907	14571.13
615.103	14669.43
615.298	14605.94
615.493	14802.55
615.688	14607.99
615.884	14745.2
616.079	14268.03
616.274	14702.2
616.47	14562.94
616.665	14304.89
616.86	14313.08
617.055	14294.65
617.25	14444.15
617.445	14216.83
617.641	14118.53
617.836	14292.6
618.031	14036.61
618.226	14093.95
618.421	13971.07
618.616	14028.42
618.811	13899.39
619.006	14014.08
619.201	13555.33
619.396	13713.03
619.591	13590.15
619.786	13633.16
619.981	13463.18
620.176	13411.98
620.371	13502.09
620.566	13485.7
620.761	13514.38
620.956	13330.06
621.151	12936.85
621.346	13215.37
621.541	12977.81
621.735	13242
621.93	12828.31
622.125	13067.92
622.32	12570.26
622.515	12852.88
622.709	12539.54
622.904	12672.66
623.099	12474.01
623.294	12420.76
623.488	12361.37
623.683	12396.18
623.878	12031.65
624.072	12379.8
624.267	12086.94
624.462	12252.83
624.656	12109.47
624.851	11976.35
625.046	11681.44
625.24	11945.63
625.435	11724.45
625.629	11529.89
625.824	11720.35
626.018	11585.19
626.213	11523.75
626.407	11435.69
626.602	11333.29
626.796	11630.24
626.991	11034.28
627.185	11181.74
627.38	11005.61
627.574	10858.16
627.768	11220.65
627.963	10925.74
628.157	10862.26
628.352	10892.98
628.546	10575.54
628.74	10829.49
628.935	10706.61
629.129	10675.89
629.323	10370.74
629.517	10460.85
629.712	10550.96
629.906	10286.78
630.1	10237.63
630.294	10206.91
630.489	10260.15
630.683	10378.93
630.877	10065.6
631.071	9932.48
631.265	10024.64
631.459	10065.6
631.653	9789.12
631.848	9924.29
632.042	9785.02
632.236	9774.78
632.43	9723.58
632.624	9752.26
632.818	9680.58
633.012	9715.39
633.206	9402.05
633.4	9526.98
633.594	9569.99
633.788	9430.73
633.982	9518.79
634.176	9281.22
634.369	9172.68
634.563	9103.05
634.757	9275.08
634.951	8896.21
635.145	9207.5
635.339	8892.11
635.533	8967.88
635.726	8888.01
635.92	8752.85
636.114	8978.12
636.308	8834.77
636.501	8847.05
636.695	8748.75
636.889	8566.48
637.083	8625.87
637.276	8511.19
637.47	8453.84
637.664	8470.23
637.857	8474.32
638.051	8269.53
638.244	8318.68
638.438	8058.59
638.632	8060.63
638.825	8134.36
639.019	7970.52
639.212	8191.7
639.406	8050.39
639.599	7956.19
639.793	7931.61
639.986	7821.02
640.18	7892.7
640.373	7825.12
640.567	7739.1
640.76	7653.09
640.954	7575.27
641.147	7542.5
641.34	7577.31
641.534	7573.22
641.727	7556.83
641.92	7489.25
642.114	7366.37
642.307	7560.93
642.5	7122.66
642.694	7149.29
642.887	7165.67
643.08	7202.54
643.273	7155.43
643.467	7139.05
643.66	6913.77
643.853	6797.04
644.046	6784.75
644.239	6885.1
644.432	6680.3
644.626	6942.44
644.819	6807.28
645.012	6565.62
645.205	6674.16
645.398	6635.25
645.591	6616.82
645.784	6602.48
645.977	6487.79
646.17	6489.84
646.363	6315.76
646.556	6520.56
646.749	6366.96
646.942	6379.25
647.135	6452.98
647.328	6311.67
647.521	6336.24
647.714	6274.81
647.907	6086.39
648.099	6137.59
648.292	6209.27
648.485	6149.88
648.678	5938.94
648.871	6012.67
649.064	6059.77
649.256	6096.63
649.449	5756.67
649.642	5703.42
649.835	5826.3
650.027	5820.16
650.22	5672.7
650.413	5615.36
650.605	5560.06
650.798	5695.23
650.991	5515.01
651.183	5615.36
651.376	5373.7
651.568	5474.05
651.761	5355.27
651.954	5334.79
652.146	5500.67
652.339	5283.59
652.531	5367.56
652.724	5394.18
652.916	5265.16
653.109	5234.44
653.301	5310.21
653.494	5349.12
653.686	5121.8
653.879	5238.53
654.071	5095.18
654.263	5013.26
654.456	5146.37
654.648	5156.61
654.84	5029.64
655.033	5013.26
655.225	4955.91
655.417	4947.72
655.61	4884.23
655.802	4820.75
655.994	4900.62
656.186	4759.31
656.379	4663.05
656.571	4787.98
656.763	4751.12
656.955	4595.47
657.148	4736.78
657.34	4480.78
657.532	4603.66
657.724	4536.08
657.916	4548.37
658.108	4425.49
658.3	4488.98
658.492	4409.11
658.684	4366.1
658.876	4513.55
659.068	4407.06
659.26	4402.96
659.452	4249.36
659.644	4362
659.836	4388.63
660.028	4208.41
660.22	4087.57
660.412	4294.42
660.604	4228.88
660.796	4132.63
660.988	4220.69
661.18	4210.45
661.372	3995.42
661.563	4228.88
661.755	3981.08
661.947	4093.72
662.139	3919.64
662.331	4046.62
662.522	3950.36
662.714	3966.74
662.906	3940.12
663.097	3862.3
663.289	3819.29
663.481	3774.24
663.673	3909.4
663.864	3749.66
664.056	3819.29
664.247	3694.36
664.439	3598.11
664.631	3784.48
664.822	3708.7
665.014	3737.37
665.205	3647.26
665.397	3671.84
665.588	3684.13
665.78	3587.87
665.971	3548.96
666.163	3594.01
666.354	3516.19
666.546	3364.64
666.737	3456.8
666.929	3581.73
667.12	3522.34
667.311	3434.27
667.503	3499.81
667.694	3374.88
667.885	3438.37
668.077	3389.22
668.268	3411.75
668.459	3499.81
668.651	3247.91
668.842	3374.88
669.033	3170.08
669.224	3239.72
669.416	3225.38
669.607	3348.26
669.798	3202.85
669.989	3309.35
670.18	3145.51
670.371	3174.18
670.563	3184.42
670.754	3215.14
670.945	3165.99
671.136	3088.17
671.327	3239.72
671.518	3077.93
671.709	3112.74
671.9	3170.08
672.091	3086.12
672.282	3000.1
672.473	3112.74
672.664	3026.73
672.855	3063.59
673.046	3020.58
673.237	3000.1
673.428	3028.78
673.619	2936.62
673.809	2944.81
674	2969.38
674.191	2971.43
674.382	2897.71
674.573	2905.9
674.764	2918.18
674.954	3012.39
675.145	2903.85
675.336	2821.93
675.527	2922.28
675.717	2828.07
675.908	2813.74
676.099	2887.47
676.289	2946.86
676.48	2778.92
676.671	2756.4
676.861	2770.73
677.052	2803.5
677.243	2842.41
677.433	2768.68
677.624	2735.92
677.814	2879.27
678.005	2783.02
678.195	2832.17
678.386	2748.2
678.576	2758.44
678.767	2774.83
678.957	2629.42
679.148	2842.41
679.338	2705.2
679.529	2740.01
679.719	2627.37
679.909	2834.22
680.1	2633.52
680.29	2625.33
680.481	2666.28
680.671	2725.68
680.861	2600.75
681.052	2715.44
681.242	2713.39
681.432	2668.33
681.622	2635.57
681.813	2643.76
682.003	2492.21
682.193	2594.61
682.383	2721.58
682.573	2553.65
682.764	2555.69
682.954	2516.78
683.144	2633.52
683.334	2465.58
683.524	2645.8
683.714	2651.95
683.904	2629.42
684.094	2588.46
684.284	2443.06
684.474	2635.57
684.664	2586.41
684.854	2490.16
685.044	2565.93
685.234	2619.18
685.424	2500.4
685.614	2557.74
685.804	2455.34
685.994	2504.5
686.184	2529.07
686.374	2518.83
686.564	2547.5
686.753	2486.06
686.943	2496.3
687.133	2463.54
687.323	2488.11
687.513	2514.73
687.702	2434.86
687.892	2559.79
688.082	2373.43
688.272	2469.68
688.461	2420.53
688.651	2549.55
688.841	2449.2
689.03	2469.68
689.22	2404.14
689.41	2457.39
689.599	2391.86
689.789	2457.39
689.979	2443.06
690.168	2500.4
690.358	2381.62
690.547	2461.49
690.737	2424.62
690.926	2391.86
691.116	2398
691.305	2299.7
691.495	2273.07
691.684	2273.07
691.874	2373.43
692.063	2273.07
692.252	2416.43
692.442	2469.68
692.631	2326.32
692.82	2305.84
693.01	2385.71
693.199	2381.62
693.388	2369.33
693.578	2291.51
693.767	2271.03
693.956	2250.55
694.146	2275.12
694.335	2299.7
694.524	2225.97
694.713	2303.79
694.902	2369.33
695.092	2359.09
695.281	2332.47
695.47	2299.7
695.659	2295.6
695.848	2326.32
696.037	2277.17
696.226	2185.01
696.415	2217.78
696.604	2223.92
696.793	2383.66
696.982	2354.99
697.171	2314.03
697.36	2246.45
697.549	2361.14
697.738	2299.7
697.927	2352.95
698.116	2254.64
698.305	2416.43
698.494	2354.99
698.683	2242.36
698.872	2283.31
699.061	2314.03
699.25	2379.57
699.438	2266.93
699.627	2264.88
699.816	2283.31
700.005	2266.93
700.193	2350.9
700.382	2211.64
700.571	2260.79
700.76	2266.93
700.948	2346.8
701.137	2264.88
701.326	2318.13
701.514	2295.6
701.703	2305.84
701.892	2338.61
702.08	2326.32
702.269	2180.92
702.457	2209.59
702.646	2287.41
702.834	2291.51
703.023	2256.69
703.212	2150.2
703.4	2205.49
703.589	2250.55
703.777	2109.24
703.965	2254.64
704.154	2201.4
704.342	2142
704.531	2168.63
704.719	2174.77
704.907	2254.64
705.096	2152.24
705.284	2254.64
705.472	2201.4
705.661	2328.37
705.849	2150.2
706.037	2211.64
706.226	2150.2
706.414	2176.82
706.602	2129.72
706.79	2301.75
706.979	2080.57
707.167	2268.98
707.355	2172.72
707.543	2072.37
707.731	2185.01
707.919	2158.39
708.107	2074.42
708.296	2107.19
708.484	2162.48
708.672	2094.9
708.86	2090.81
709.048	2156.34
709.236	2082.61
709.424	2084.66
709.612	2031.41
709.8	1969.98
709.988	2064.18
710.176	2086.71
710.364	1949.5
710.551	2021.17
710.739	1990.45
710.927	2043.7
711.115	1976.12
711.303	2006.84
711.491	2068.28
711.679	1941.3
711.866	1965.88
712.054	1943.35
712.242	1926.97
712.43	2021.17
712.617	2008.89
712.805	1994.55
712.993	2008.89
713.181	1873.72
713.368	1972.02
713.556	1949.5
713.744	1922.87
713.931	2025.27
714.119	1898.3
714.306	1918.78
714.494	2006.84
714.682	1933.11
714.869	1894.2
715.057	1890.1
715.244	1820.47
715.432	1840.95
715.619	1974.07
715.807	1785.66
715.994	1806.14
716.182	1838.91
716.369	1881.91
716.556	1840.95
716.744	1787.71
716.931	1771.32
717.119	1838.91
717.306	1826.62
717.493	1763.13
717.681	1867.58
717.868	1728.31
718.055	1773.37
718.242	1795.9
718.43	1914.68
718.617	1646.4
718.804	1756.99
718.991	1799.99
719.179	1716.03
719.366	1781.56
719.553	1740.6
719.74	1697.6
719.927	1701.69
720.114	1707.84
720.301	1683.26
720.488	1707.84
720.676	1533.76
720.863	1578.81
721.05	1670.97
721.237	1709.88
721.424	1652.54
721.611	1537.85
721.798	1582.91
721.985	1701.69
722.172	1644.35
722.358	1644.35
722.545	1644.35
722.732	1640.25
722.919	1703.74
723.106	1681.21
723.293	1623.87
723.48	1693.5
723.667	1599.29
723.853	1529.66
724.04	1523.52
724.227	1681.21
724.414	1607.48
724.6	1552.19
724.787	1574.72
724.974	1621.82
725.161	1552.19
725.347	1607.48
725.534	1576.77
725.72	1636.16
725.907	1554.24
726.094	1525.57
726.28	1431.36
726.467	1507.13
726.653	1476.41
726.84	1537.85
727.027	1541.95
727.213	1537.85
727.4	1548.09
727.586	1552.19
727.773	1429.31
727.959	1503.04
728.145	1498.94
728.332	1447.74
728.518	1435.46
728.705	1554.24
728.891	1519.42
729.077	1462.08
729.264	1421.12
729.45	1478.46
729.636	1482.56
729.823	1492.8
730.009	1437.5
730.195	1353.54
730.382	1511.23
730.568	1435.46
730.754	1359.68
730.94	1462.08
731.126	1427.26
731.313	1482.56
731.499	1341.25
731.685	1355.58
731.871	1402.69
732.057	1367.87
732.243	1400.64
732.429	1408.83
732.615	1376.06
732.801	1521.47
732.987	1337.15
733.173	1503.04
733.359	1423.17
733.545	1386.3
733.731	1331.01
733.917	1355.58
734.103	1298.24
734.289	1386.3
734.475	1382.21
734.661	1335.1
734.847	1443.65
735.033	1374.02
735.219	1361.73
735.404	1230.66
735.59	1318.72
735.776	1277.76
735.962	1193.8
736.148	1455.94
736.333	1343.3
736.519	1333.06
736.705	1326.91
736.89	1476.41
737.076	1353.54
737.262	1292.1
737.447	1365.82
737.633	1267.52
737.819	1240.9
738.004	1300.29
738.19	1216.32
738.375	1222.47
738.561	1290.05
738.747	1277.76
738.932	1232.71
739.118	1320.77
739.303	1146.69
739.489	1228.61
739.674	1148.74
739.859	1169.22
740.045	1128.26
740.23	1232.71
740.416	1183.56
740.601	1300.29
740.786	1216.32
740.972	1210.18
741.157	1216.32
741.342	1187.65
741.528	1232.71
741.713	1232.71
741.898	1158.98
742.084	1113.92
742.269	1154.88
742.454	1206.08
742.639	1218.37
742.824	1158.98
743.01	1070.92
743.195	1171.27
743.38	1083.2
743.565	1050.44
743.75	1095.49
743.935	1097.54
744.12	1165.12
744.305	1152.84
744.49	1165.12
744.675	1154.88
744.86	1064.77
745.045	1054.53
745.23	1099.59
745.415	1136.45
745.6	1120.07
745.785	1034.05
745.97	1052.49
746.155	1126.21
746.34	1075.01
746.525	1038.15
746.71	1068.87
746.895	1107.78
747.079	1070.92
747.264	978.76
747.449	1009.48
747.634	974.66
747.819	993.09
748.003	966.47
748.188	900.94
748.373	945.99
748.557	933.7
748.742	970.57
748.927	991.05
749.111	810.82
749.296	888.65
749.481	997.19
749.665	894.79
749.85	890.7
750.034	915.27
750.219	857.93
750.404	872.26
750.588	915.27
750.773	929.61
750.957	890.7
751.141	880.46
751.326	882.5
751.51	864.07
751.695	882.5
751.879	968.52
752.064	923.46
752.248	945.99
752.432	868.17
752.617	888.65
752.801	831.3
752.985	845.64
753.17	808.78
753.354	831.3
753.538	866.12
753.722	741.19
753.907	792.39
754.091	706.38
754.275	843.59
754.459	749.39
754.643	757.58
754.828	784.2
755.012	722.76
755.196	673.61
755.38	776.01
755.564	694.09
755.748	823.11
755.932	683.85
756.116	759.63
756.3	702.28
756.484	849.74
756.668	702.28
756.852	735.05
757.036	728.91
757.22	651.08
757.404	704.33
757.588	710.47
757.772	728.91
757.956	714.57
758.14	675.66
758.323	743.24
758.507	665.42
758.691	726.86
758.875	620.36
759.059	644.94
759.242	628.56
759.426	694.09
759.61	653.13
759.794	646.99
759.977	642.89
760.161	692.04
760.345	577.36
760.528	753.48
760.712	642.89
760.895	632.65
761.079	642.89
761.263	659.28
761.446	618.32
761.63	579.4
761.813	630.6
761.997	522.06
762.18	671.56
762.364	669.52
762.547	628.56
762.731	628.56
762.914	589.64
763.098	601.93
763.281	532.3
763.464	663.37
763.648	560.97
763.831	567.12
764.015	599.88
764.198	538.45
764.381	610.12
764.564	628.56
764.748	575.31
764.931	550.73
765.114	565.07
765.297	546.64
765.481	530.25
765.664	616.27
765.847	534.35
766.03	526.16
766.213	499.53
766.397	526.16
766.58	554.83
766.763	438.09
766.946	487.25
767.129	558.92
767.312	444.24
767.495	505.68
767.678	563.02
767.861	565.07
768.044	532.3
768.227	415.57
768.41	585.55
768.593	526.16
768.776	507.73
768.959	526.16
769.142	534.35
769.324	569.16
769.507	528.21
769.69	493.39
769.873	509.77
770.056	538.45
770.239	511.82
770.421	509.77
770.604	497.49
770.787	520.01
770.97	563.02
771.152	493.39
771.335	499.53
771.518	503.63
771.7	462.67
771.883	485.2
772.066	434
772.248	501.58
772.431	487.25
772.613	452.43
772.796	470.86
772.978	534.35
773.161	499.53
773.343	470.86
773.526	440.14
773.708	421.71
773.891	450.38
774.073	431.95
774.256	395.09
774.438	479.05
774.621	458.57
774.803	421.71
774.985	358.22
775.168	407.38
775.35	440.14
775.532	446.29
775.715	399.18
775.897	413.52
776.079	329.55
776.261	427.85
776.444	364.37
776.626	397.14
776.808	417.61
776.99	423.76
777.173	405.33
777.355	411.47
777.537	372.56
777.719	364.37
777.901	370.51
778.083	362.32
778.265	360.27
778.447	341.84
778.629	397.14
778.811	413.52
778.993	370.51
779.175	358.22
779.357	364.37
779.539	395.09
779.721	380.75
779.903	335.7
780.085	397.14
780.267	360.27
780.449	311.12
780.631	360.27
780.812	321.36
780.994	339.79
781.176	350.03
781.358	407.38
781.54	307.02
781.721	358.22
781.903	329.55
782.085	282.45
782.267	321.36
782.448	276.31
782.63	284.5
782.812	319.31
782.993	315.22
783.175	264.02
783.357	315.22
783.538	288.59
783.72	352.08
783.901	259.92
784.083	296.78
784.264	268.11
784.446	331.6
784.627	300.88
784.809	333.65
784.99	255.83
785.172	311.12
785.353	274.26
785.535	313.17
785.716	233.3
785.897	317.26
786.079	208.72
786.26	280.4
786.441	341.84
786.623	188.24
786.804	227.15
786.985	337.74
787.167	200.53
787.348	290.64
787.529	286.54
787.71	225.11
787.891	257.87
788.073	229.2
788.254	270.16
788.435	268.11
788.616	290.64
788.797	257.87
788.978	266.07
789.159	190.29
789.34	257.87
789.522	243.54
789.703	259.92
789.884	214.87
790.065	218.96
790.246	180.05
790.427	214.87
790.607	223.06
790.788	208.72
790.969	139.09
791.15	223.06
791.331	229.2
791.512	270.16
791.693	202.58
791.874	178
792.054	149.33
792.235	208.72
792.416	175.95
792.597	227.15
792.778	188.24
792.958	243.54
793.139	235.35
793.32	212.82
793.5	175.95
793.681	218.96
793.862	192.34
794.042	188.24
794.223	194.39
794.404	169.81
794.584	208.72
794.765	188.24
794.945	171.86
795.126	194.39
795.306	161.62
795.487	235.35
795.667	210.77
795.848	139.09
796.028	161.62
796.209	161.62
796.389	182.1
796.57	198.48
796.75	135
796.93	130.9
797.111	159.57
797.291	202.58
797.471	221.01
797.652	204.63
797.832	130.9
798.012	182.1
798.192	85.84
798.373	159.57
798.553	126.8
798.733	186.19
798.913	118.61
799.093	151.38
799.274	186.19
799.454	182.1
799.634	143.19
799.814	147.28
799.994	135
800.174	163.67
800.354	79.7
800.534	157.52
800.714	163.67
800.894	96.08
801.074	94.04
801.254	87.89
801.434	155.47
801.614	137.04
801.794	91.99
801.974	343.89
802.154	169.81
802.334	81.75
802.514	108.37
802.693	155.47
802.873	139.09
803.053	159.57
803.233	143.19
803.413	96.08
803.592	110.42
803.772	194.39
803.952	106.32
804.131	122.71
804.311	118.61
804.491	116.56
804.67	163.67
804.85	135
805.03	139.09
805.209	120.66
805.389	114.52
805.568	104.28
805.748	118.61
805.928	167.76
806.107	151.38
806.287	141.14
806.466	126.8
806.646	186.19
806.825	114.52
807.004	139.09
807.184	53.08
807.363	147.28
807.543	135
807.722	98.13
807.901	194.39
808.081	106.32
808.26	132.95
808.439	130.9
808.619	77.65
808.798	171.86
808.977	102.23
809.156	130.9
809.336	91.99
809.515	40.79
809.694	151.38
809.873	94.04
810.052	53.08
810.231	65.36
810.411	79.7
810.59	42.84
810.769	89.94
810.948	175.95
811.127	98.13
811.306	147.28
811.485	85.84
811.664	106.32
811.843	28.5
812.022	132.95
812.201	114.52
812.38	120.66
812.559	98.13
812.737	120.66
812.916	63.32
813.095	75.6
813.274	163.67
813.453	71.51
813.632	59.22
813.811	81.75
813.989	75.6
814.168	42.84
814.347	98.13
814.526	55.12
814.704	59.22
814.883	81.75
815.062	46.93
815.24	61.27
815.419	96.08
815.598	40.79
815.776	61.27
815.955	94.04
816.133	59.22
816.312	114.52
816.49	55.12
816.669	65.36
816.847	69.46
817.026	116.56
817.204	112.47
817.383	38.74
817.561	30.55
817.74	108.37
817.918	91.99
818.097	114.52
818.275	65.36
818.453	126.8
818.632	124.76
818.81	65.36
818.988	75.6
819.167	98.13
819.345	126.8
819.523	67.41
819.701	89.94
819.879	69.46
820.058	89.94
820.236	153.43
820.414	34.64
820.592	8.02
820.77	38.74
820.948	59.22
821.127	73.56
821.305	65.36
821.483	69.46
821.661	108.37
821.839	44.88
822.017	32.6
822.195	71.51
822.373	48.98
822.551	63.32
822.729	46.93
822.907	65.36
823.085	120.66
823.262	108.37
823.44	149.33
823.618	42.84
823.796	67.41
823.974	114.52
824.152	65.36
824.329	5.97
824.507	36.69
824.685	102.23
824.863	83.8
825.04	102.23
825.218	65.36
825.396	40.79
825.574	46.93
825.751	38.74
825.929	112.47
826.107	42.84
826.284	83.8
826.462	61.27
826.639	73.56
826.817	40.79
826.994	46.93
827.172	96.08
827.349	16.21
827.527	100.18
827.704	100.18
827.882	32.6
828.059	73.56
828.237	75.6
828.414	116.56
828.591	42.84
828.769	57.17
828.946	53.08
829.124	-41.13
829.301	63.32
829.478	73.56
829.655	81.75
829.833	65.36
830.01	46.93
830.187	77.65
830.364	-8.36
830.542	137.04
830.719	87.89
830.896	48.98
831.073	110.42
831.25	69.46
831.427	-26.79
831.604	94.04
831.782	14.17
831.959	42.84
832.136	30.55
832.313	73.56
832.49	16.21
832.667	71.51
832.844	28.5
833.021	130.9
833.198	63.32
833.374	42.84
833.551	32.6
833.728	44.88
833.905	-26.79
834.082	14.17
834.259	100.18
834.436	67.41
834.612	34.64
834.789	32.6
834.966	26.45
835.143	75.6
835.319	28.5
835.496	104.28
835.673	34.64
835.85	48.98
836.026	114.52
836.203	16.21
836.38	51.03
836.556	81.75
836.733	-28.84
836.909	143.19
837.086	24.4
837.262	116.56
837.439	81.75
837.616	22.36
837.792	81.75
837.968	8.02
838.145	36.69
838.321	-12.46
838.498	8.02
838.674	36.69
838.851	63.32
839.027	8.02
839.203	12.12
839.38	65.36
839.556	22.36
839.732	-49.32
839.909	75.6
840.085	157.52
840.261	51.03
840.437	40.79
840.614	75.6
840.79	61.27
840.966	34.64
841.142	128.85
841.318	77.65
841.494	38.74
841.671	10.07
841.847	24.4
842.023	32.6
842.199	40.79
842.375	14.17
842.551	98.13
842.727	-16.55
842.903	61.27
843.079	-30.89
843.255	24.4
843.431	75.6
843.607	55.12
843.783	3.93
843.959	65.36
844.134	38.74
844.31	48.98
844.486	20.31
844.662	57.17
844.838	24.4
845.013	61.27
845.189	20.31
845.365	46.93
845.541	-12.46
845.716	42.84
845.892	3.93
846.068	83.8
846.244	55.12
846.419	87.89
846.595	51.03
846.77	69.46
846.946	36.69
847.122	14.17
847.297	34.64
847.473	91.99
847.648	-8.36
847.824	8.02
847.999	-2.22
848.175	94.04
848.35	71.51
848.526	16.21
848.701	98.13
848.876	48.98
849.052	73.56
849.227	63.32
849.403	-6.31
849.578	75.6
849.753	34.64
849.929	-14.51
850.104	-4.27
850.279	12.12
850.454	53.08
850.63	18.26
850.805	102.23
850.98	22.36
851.155	-39.08
851.33	55.12
851.505	14.17
851.681	61.27
851.856	24.4
852.031	22.36
852.206	71.51
852.381	16.21
852.556	24.4
852.731	32.6
852.906	-51.37
853.081	79.7
853.256	114.52
853.431	1.88
853.606	-10.41
853.781	-2.22
853.956	-37.03
854.131	30.55
854.305	32.6
854.48	12.12
854.655	-55.47
854.83	46.93
855.005	-45.23
855.18	30.55
855.354	34.64
855.529	34.64
855.704	40.79
855.879	24.4
856.053	28.5
856.228	28.5
856.403	18.26
856.577	32.6
856.752	38.74
856.926	59.22
857.101	63.32
857.276	38.74
857.45	16.21
857.625	-32.94
857.799	24.4
857.974	26.45
858.148	14.17
858.323	-12.46
858.497	53.08
858.672	-6.31
858.846	12.12
859.02	61.27
859.195	38.74
859.369	34.64
859.543	-16.55
859.718	67.41
859.892	116.56
860.066	-18.6
860.241	32.6
860.415	48.98
860.589	38.74
860.763	22.36
860.938	1.88
861.112	-16.55
861.286	20.31
861.46	89.94
861.634	42.84
861.808	28.5
861.982	83.8
862.157	61.27
862.331	5.97
862.505	-43.18
862.679	-30.89
862.853	-47.27
863.027	18.26
863.201	71.51
863.375	28.5
863.549	-30.89
863.722	46.93
863.896	24.4
864.07	51.03
864.244	16.21
864.418	59.22
864.592	-12.46
864.766	-53.42
864.939	-4.27
865.113	-34.99
865.287	8.02
865.461	-32.94
865.634	69.46
865.808	-0.17
865.982	30.55
866.156	-51.37
866.329	-8.36
866.503	53.08
866.676	-0.17
866.85	-69.8
867.024	55.12
867.197	12.12
867.371	-61.61
867.544	-24.75
867.718	24.4
867.891	-57.51
868.065	26.45
868.238	3.93
868.412	83.8
868.585	24.4
868.759	69.46
868.932	28.5
869.105	18.26
869.279	-43.18
869.452	22.36
869.625	34.64
869.799	55.12
869.972	-10.41
870.145	-2.22
870.319	63.32
870.492	22.36
870.665	1.88
870.838	-12.46
871.011	-8.36
871.185	38.74
871.358	22.36
871.531	28.5
871.704	14.17
871.877	53.08
872.05	-6.31
872.223	-24.75
872.396	10.07
872.569	48.98
872.742	-45.23
872.915	-30.89
873.088	32.6
873.261	-18.6
873.434	16.21
873.607	-22.7
873.78	12.12
873.953	-26.79
874.126	81.75
874.299	32.6
874.471	16.21
874.644	40.79
874.817	-6.31
874.99	1.88
875.163	5.97
875.335	67.41
875.508	30.55
875.681	-26.79
875.853	18.26
876.026	-10.41
876.199	73.56
876.371	-34.99
876.544	28.5
876.717	-49.32
876.889	-30.89
877.062	5.97
877.234	28.5
877.407	-28.84
877.579	18.26
877.752	63.32
877.924	3.93
878.097	55.12
878.269	28.5
878.442	3.93
878.614	-0.17
878.786	-45.23
878.959	75.6
879.131	20.31
879.303	-37.03
879.476	108.37
879.648	-26.79
879.82	-32.94
879.993	-6.31
880.165	48.98
880.337	-28.84
880.509	71.51
880.681	22.36
880.854	14.17
881.026	30.55
881.198	32.6
881.37	34.64
881.542	-18.6
881.714	67.41
881.886	40.79
882.058	40.79
882.23	28.5
882.402	81.75
882.574	48.98
882.746	59.22
882.918	12.12
883.09	-32.94
883.262	36.69
883.434	-10.41
883.606	85.84
883.778	-0.17
883.95	22.36
884.122	3.93
884.293	34.64
884.465	-18.6
884.637	30.55
884.809	63.32
884.98	12.12
885.152	94.04
885.324	-4.27
885.496	14.17
885.667	-22.7
885.839	24.4
886.011	8.02
886.182	3.93
886.354	3.93
886.525	34.64
886.697	-26.79
886.869	-49.32
887.04	22.36
887.212	83.8
887.383	36.69
887.555	42.84
887.726	55.12
887.897	10.07
888.069	-22.7
888.24	-4.27
888.412	5.97
888.583	-34.99
888.754	-6.31
888.926	-26.79
889.097	10.07
889.268	-12.46
889.44	-10.41
889.611	-41.13
889.782	-16.55
889.953	61.27
890.125	-34.99
890.296	40.79
890.467	-4.27
890.638	-61.61
890.809	61.27
890.98	-49.32
891.151	-16.55
891.323	-8.36
891.494	73.56
891.665	5.97
891.836	-18.6
892.007	-10.41
892.178	75.6
892.349	28.5
892.52	87.89
892.691	-16.55
892.862	67.41
893.032	83.8
893.203	26.45
893.374	-18.6
893.545	-6.31
893.716	8.02
893.887	-6.31
894.057	-14.51
894.228	-45.23
894.399	-6.31
894.57	26.45
894.74	-16.55
894.911	63.32
895.082	-0.17
895.253	-2.22
895.423	-18.6
895.594	48.98
895.764	-59.56
895.935	42.84
896.106	14.17
896.276	20.31
896.447	-4.27
896.617	-8.36
896.788	26.45
896.958	-20.65
897.129	40.79
897.299	34.64
897.47	-18.6
897.64	30.55
897.81	-16.55
897.981	24.4
898.151	-57.51
898.322	36.69
898.492	20.31
898.662	1.88
898.832	26.45
899.003	42.84
899.173	40.79
899.343	-65.71
899.513	26.45
