Data from USB4F104151__107__13-54-50-308.txt Node

Date: Thu Mar 13 13:54:50 EDT 2025
User: louis
Spectrometer: USB4F10415
Trigger mode: 4
Integration Time (sec): 1.000000E-2
Scans to average: 1
Electric dark correction enabled: true
Nonlinearity correction enabled: false
Boxcar width: 0
XAxis mode: Wavelengths
Number of Pixels in Spectrum: 3648
>>>>>Begin Spectral Data<<<<<
178.204	-50.18
178.424	-50.18
178.644	-50.18
178.864	-31.74
179.084	-11.26
179.304	-46.08
179.524	-31.74
179.744	-21.5
179.964	-29.7
180.184	29.7
180.404	11.26
180.624	29.7
180.844	-21.5
181.064	27.65
181.283	72.7
181.503	19.46
181.723	-39.94
181.943	1.02
182.163	-15.36
182.383	29.7
182.602	70.65
182.822	-25.6
183.042	21.5
183.262	1.02
183.482	-103.42
183.701	-21.5
183.921	3.07
184.141	54.27
184.361	-31.74
184.58	-37.89
184.8	25.6
185.02	-3.07
185.239	-52.22
185.459	41.98
185.679	41.98
185.898	-99.33
186.118	21.5
186.338	41.98
186.557	9.22
186.777	41.98
186.997	17.41
187.216	7.17
187.436	13.31
187.655	-19.46
187.875	80.89
188.095	31.74
188.314	37.89
188.534	-11.26
188.753	70.65
188.973	1.02
189.192	-23.55
189.412	84.99
189.631	9.22
189.851	15.36
190.07	76.8
190.29	31.74
190.509	15.36
190.729	37.89
190.948	76.8
191.168	21.5
191.387	84.99
191.607	-17.41
191.826	70.65
192.045	-7.17
192.265	1.02
192.484	21.5
192.704	-29.7
192.923	1.02
193.142	27.65
193.362	21.5
193.581	50.18
193.8	72.7
194.02	3.07
194.239	-19.46
194.458	27.65
194.678	11.26
194.897	50.18
195.116	70.65
195.335	-23.55
195.555	-17.41
195.774	-1.02
195.993	21.5
196.212	50.18
196.432	-1.02
196.651	-21.5
196.87	-27.65
197.089	29.7
197.308	-50.18
197.528	-7.17
197.747	-70.65
197.966	-3.07
198.185	21.5
198.404	-9.22
198.623	56.32
198.842	33.79
199.062	33.79
199.281	54.27
199.5	-13.31
199.719	3.07
199.938	82.94
200.157	105.47
200.376	-35.84
200.595	158.72
200.814	-13.31
201.033	25.6
201.252	35.84
201.471	-1.02
201.69	72.7
201.909	-35.84
202.128	21.5
202.347	82.94
202.566	50.18
202.785	-48.13
203.004	27.65
203.223	50.18
203.442	62.46
203.661	68.61
203.879	23.55
204.098	41.98
204.317	5.12
204.536	-3.07
204.755	27.65
204.974	-19.46
205.193	76.8
205.411	17.41
205.63	33.79
205.849	62.46
206.068	-9.22
206.287	44.03
206.505	21.5
206.724	87.04
206.943	41.98
207.162	-11.26
207.381	7.17
207.599	25.6
207.818	17.41
208.037	19.46
208.255	-13.31
208.474	29.7
208.693	-46.08
208.911	56.32
209.13	-21.5
209.349	5.12
209.567	-25.6
209.786	-46.08
210.005	3.07
210.223	-27.65
210.442	9.22
210.661	13.31
210.879	44.03
211.098	25.6
211.316	21.5
211.535	-19.46
211.753	-48.13
211.972	44.03
212.191	-70.65
212.409	21.5
212.628	97.28
212.846	-15.36
213.065	33.79
213.283	33.79
213.502	35.84
213.72	52.22
213.938	13.31
214.157	25.6
214.375	-17.41
214.594	19.46
214.812	44.03
215.031	70.65
215.249	-62.46
215.467	-3.07
215.686	25.6
215.904	62.46
216.122	-41.98
216.341	50.18
216.559	-21.5
216.778	25.6
216.996	17.41
217.214	19.46
217.432	17.41
217.651	5.12
217.869	5.12
218.087	54.27
218.306	-1.02
218.524	3.07
218.742	11.26
218.96	52.22
219.179	62.46
219.397	60.42
219.615	-13.31
219.833	-7.17
220.051	-3.07
220.27	52.22
220.488	-35.84
220.706	21.5
220.924	35.84
221.142	-19.46
221.36	-27.65
221.578	19.46
221.796	31.74
222.015	29.7
222.233	-11.26
222.451	-9.22
222.669	-62.46
222.887	39.94
223.105	11.26
223.323	-44.03
223.541	-21.5
223.759	64.51
223.977	-64.51
224.195	29.7
224.413	-15.36
224.631	11.26
224.849	39.94
225.067	52.22
225.285	27.65
225.503	13.31
225.721	-1.02
225.939	-39.94
226.157	3.07
226.375	1.02
226.592	56.32
226.81	5.12
227.028	35.84
227.246	7.17
227.464	60.42
227.682	9.22
227.9	29.7
228.117	-39.94
228.335	-13.31
228.553	-13.31
228.771	-1.02
228.989	17.41
229.206	9.22
229.424	44.03
229.642	9.22
229.86	44.03
230.077	84.99
230.295	31.74
230.513	29.7
230.731	13.31
230.948	84.99
231.166	72.7
231.384	23.55
231.601	19.46
231.819	-23.55
232.037	11.26
232.254	33.79
232.472	-25.6
232.689	7.17
232.907	-50.18
233.125	13.31
233.342	1.02
233.56	-19.46
233.777	101.37
233.995	25.6
234.213	-15.36
234.43	13.31
234.648	11.26
234.865	-7.17
235.083	95.23
235.3	56.32
235.518	39.94
235.735	15.36
235.953	72.7
236.17	-29.7
236.388	68.61
236.605	56.32
236.822	23.55
237.04	70.65
237.257	-31.74
237.475	-44.03
237.692	50.18
237.909	-48.13
238.127	17.41
238.344	46.08
238.562	-7.17
238.779	-46.08
238.996	-1.02
239.214	58.37
239.431	89.09
239.648	-23.55
239.865	-1.02
240.083	50.18
240.3	-35.84
240.517	-58.37
240.735	3.07
240.952	25.6
241.169	7.17
241.386	-5.12
241.603	62.46
241.821	72.7
242.038	82.94
242.255	89.09
242.472	-3.07
242.689	9.22
242.907	-15.36
243.124	54.27
243.341	68.61
243.558	27.65
243.775	-21.5
243.992	54.27
244.209	39.94
244.426	107.52
244.643	25.6
244.86	-11.26
245.078	-5.12
245.295	29.7
245.512	52.22
245.729	15.36
245.946	5.12
246.163	21.5
246.38	33.79
246.597	62.46
246.814	46.08
247.031	-1.02
247.248	-7.17
247.464	33.79
247.681	46.08
247.898	46.08
248.115	48.13
248.332	21.5
248.549	17.41
248.766	-5.12
248.983	46.08
249.2	-62.46
249.417	35.84
249.633	31.74
249.85	-25.6
250.067	-46.08
250.284	-23.55
250.501	-54.27
250.717	44.03
250.934	-23.55
251.151	-25.6
251.368	11.26
251.585	52.22
251.801	19.46
252.018	-13.31
252.235	11.26
252.451	9.22
252.668	56.32
252.885	15.36
253.102	13.31
253.318	-76.8
253.535	58.37
253.752	-21.5
253.968	-1.02
254.185	39.94
254.401	66.56
254.618	15.36
254.835	-7.17
255.051	13.31
255.268	46.08
255.484	60.42
255.701	-39.94
255.917	29.7
256.134	5.12
256.351	-31.74
256.567	101.37
256.784	-58.37
257	-62.46
257.217	70.65
257.433	7.17
257.65	64.51
257.866	-9.22
258.082	13.31
258.299	46.08
258.515	31.74
258.732	44.03
258.948	76.8
259.165	-27.65
259.381	52.22
259.597	-52.22
259.814	13.31
260.03	-27.65
260.246	21.5
260.463	29.7
260.679	54.27
260.895	70.65
261.112	7.17
261.328	-7.17
261.544	5.12
261.761	39.94
261.977	-33.79
262.193	-72.7
262.409	15.36
262.626	33.79
262.842	25.6
263.058	-7.17
263.274	-15.36
263.49	87.04
263.707	39.94
263.923	-17.41
264.139	46.08
264.355	-105.47
264.571	-44.03
264.787	1.02
265.004	15.36
265.22	-25.6
265.436	27.65
265.652	-3.07
265.868	19.46
266.084	39.94
266.3	-3.07
266.516	-29.7
266.732	117.76
266.948	-39.94
267.164	-29.7
267.38	25.6
267.596	25.6
267.812	15.36
268.028	9.22
268.244	66.56
268.46	35.84
268.676	17.41
268.892	25.6
269.108	17.41
269.324	66.56
269.54	-1.02
269.756	87.04
269.972	41.98
270.188	23.55
270.403	-3.07
270.619	-11.26
270.835	27.65
271.051	74.75
271.267	11.26
271.483	23.55
271.698	62.46
271.914	-64.51
272.13	-13.31
272.346	1.02
272.562	48.13
272.777	7.17
272.993	-1.02
273.209	13.31
273.425	54.27
273.64	21.5
273.856	-27.65
274.072	68.61
274.287	11.26
274.503	-3.07
274.719	-66.56
274.934	1.02
275.15	-41.98
275.366	39.94
275.581	39.94
275.797	-3.07
276.012	27.65
276.228	41.98
276.444	5.12
276.659	9.22
276.875	33.79
277.09	-56.32
277.306	7.17
277.521	21.5
277.737	78.85
277.952	64.51
278.168	15.36
278.383	50.18
278.599	-17.41
278.814	29.7
279.03	17.41
279.245	48.13
279.461	3.07
279.676	74.75
279.892	-23.55
280.107	41.98
280.322	3.07
280.538	-44.03
280.753	3.07
280.969	-3.07
281.184	95.23
281.399	25.6
281.615	13.31
281.83	62.46
282.045	-58.37
282.26	48.13
282.476	-58.37
282.691	-62.46
282.906	3.07
283.122	-1.02
283.337	-29.7
283.552	21.5
283.767	17.41
283.983	5.12
284.198	68.61
284.413	46.08
284.628	-1.02
284.843	-41.98
285.058	1.02
285.274	23.55
285.489	21.5
285.704	13.31
285.919	41.98
286.134	41.98
286.349	25.6
286.564	78.85
286.779	70.65
286.995	17.41
287.21	11.26
287.425	39.94
287.64	-17.41
287.855	-23.55
288.07	17.41
288.285	52.22
288.5	-11.26
288.715	33.79
288.93	23.55
289.145	-64.51
289.36	23.55
289.575	-5.12
289.79	70.65
290.004	-5.12
290.219	-25.6
290.434	46.08
290.649	-5.12
290.864	21.5
291.079	-29.7
291.294	27.65
291.509	-5.12
291.724	52.22
291.938	-13.31
292.153	-39.94
292.368	-27.65
292.583	25.6
292.798	29.7
293.012	-13.31
293.227	-21.5
293.442	19.46
293.657	-54.27
293.871	15.36
294.086	25.6
294.301	-1.02
294.516	19.46
294.73	-19.46
294.945	62.46
295.16	46.08
295.374	-13.31
295.589	-23.55
295.804	44.03
296.018	21.5
296.233	74.75
296.447	80.89
296.662	29.7
296.877	13.31
297.091	-25.6
297.306	15.36
297.52	17.41
297.735	37.89
297.949	17.41
298.164	60.42
298.378	-9.22
298.593	54.27
298.807	15.36
299.022	29.7
299.236	15.36
299.451	101.37
299.665	82.94
299.88	50.18
300.094	-3.07
300.309	50.18
300.523	33.79
300.737	21.5
300.952	-7.17
301.166	48.13
301.381	-5.12
301.595	31.74
301.809	-7.17
302.024	-1.02
302.238	25.6
302.452	91.13
302.667	15.36
302.881	29.7
303.095	-3.07
303.309	-31.74
303.524	-19.46
303.738	9.22
303.952	-33.79
304.166	74.75
304.381	50.18
304.595	27.65
304.809	-3.07
305.023	7.17
305.237	46.08
305.452	41.98
305.666	89.09
305.88	41.98
306.094	27.65
306.308	17.41
306.522	46.08
306.736	23.55
306.95	5.12
307.164	21.5
307.379	-46.08
307.593	35.84
307.807	35.84
308.021	19.46
308.235	56.32
308.449	-13.31
308.663	-25.6
308.877	48.13
309.091	1.02
309.305	29.7
309.519	-1.02
309.733	95.23
309.947	29.7
310.161	-35.84
310.374	-19.46
310.588	111.61
310.802	-21.5
311.016	56.32
311.23	33.79
311.444	-37.89
311.658	19.46
311.872	27.65
312.085	-7.17
312.299	19.46
312.513	33.79
312.727	25.6
312.941	-9.22
313.154	84.99
313.368	35.84
313.582	9.22
313.796	76.8
314.009	101.37
314.223	80.89
314.437	1.02
314.651	-5.12
314.864	54.27
315.078	50.18
315.292	-62.46
315.505	-13.31
315.719	7.17
315.933	21.5
316.146	58.37
316.36	21.5
316.573	-41.98
316.787	44.03
317.001	21.5
317.214	11.26
317.428	-3.07
317.641	-33.79
317.855	68.61
318.068	25.6
318.282	60.42
318.495	58.37
318.709	62.46
318.922	-1.02
319.136	17.41
319.349	11.26
319.563	56.32
319.776	-44.03
319.99	37.89
320.203	7.17
320.417	60.42
320.63	58.37
320.843	62.46
321.057	15.36
321.27	17.41
321.483	44.03
321.697	15.36
321.91	72.7
322.124	7.17
322.337	3.07
322.55	27.65
322.763	-1.02
322.977	97.28
323.19	1.02
323.403	13.31
323.617	11.26
323.83	70.65
324.043	-5.12
324.256	37.89
324.469	1.02
324.683	1.02
324.896	-11.26
325.109	41.98
325.322	46.08
325.535	-1.02
325.748	29.7
325.962	-7.17
326.175	-23.55
326.388	50.18
326.601	60.42
326.814	3.07
327.027	15.36
327.24	58.37
327.453	-17.41
327.666	37.89
327.879	68.61
328.092	-17.41
328.305	70.65
328.518	-13.31
328.731	29.7
328.944	25.6
329.157	101.37
329.37	-44.03
329.583	17.41
329.796	64.51
330.009	21.5
330.222	84.99
330.435	99.33
330.648	27.65
330.861	87.04
331.073	-27.65
331.286	54.27
331.499	84.99
331.712	84.99
331.925	82.94
332.138	27.65
332.35	9.22
332.563	23.55
332.776	58.37
332.989	31.74
333.202	-29.7
333.414	29.7
333.627	11.26
333.84	78.85
334.053	46.08
334.265	62.46
334.478	68.61
334.691	37.89
334.903	33.79
335.116	11.26
335.329	-31.74
335.541	13.31
335.754	50.18
335.966	-13.31
336.179	62.46
336.392	11.26
336.604	44.03
336.817	58.37
337.029	5.12
337.242	15.36
337.454	52.22
337.667	68.61
337.88	-21.5
338.092	-56.32
338.305	25.6
338.517	39.94
338.729	52.22
338.942	1.02
339.154	17.41
339.367	66.56
339.579	-7.17
339.792	-5.12
340.004	19.46
340.217	-13.31
340.429	62.46
340.641	33.79
340.854	-15.36
341.066	62.46
341.278	41.98
341.491	48.13
341.703	64.51
341.915	13.31
342.128	89.09
342.34	-27.65
342.552	-39.94
342.764	-5.12
342.977	-15.36
343.189	-39.94
343.401	52.22
343.613	52.22
343.826	-27.65
344.038	7.17
344.25	33.79
344.462	-21.5
344.674	39.94
344.886	7.17
345.099	41.98
345.311	25.6
345.523	62.46
345.735	5.12
345.947	58.37
346.159	56.32
346.371	35.84
346.583	-3.07
346.795	25.6
347.007	33.79
347.219	107.52
347.431	5.12
347.643	46.08
347.855	48.13
348.067	13.31
348.279	-13.31
348.491	23.55
348.703	48.13
348.915	-50.18
349.127	17.41
349.339	-15.36
349.551	-17.41
349.763	95.23
349.975	64.51
350.187	48.13
350.399	87.04
350.61	-25.6
350.822	-27.65
351.034	72.7
351.246	17.41
351.458	54.27
351.669	5.12
351.881	31.74
352.093	-1.02
352.305	99.33
352.517	39.94
352.728	91.13
352.94	37.89
353.152	1.02
353.363	44.03
353.575	31.74
353.787	-35.84
353.999	46.08
354.21	21.5
354.422	-21.5
354.633	5.12
354.845	41.98
355.057	-56.32
355.268	-15.36
355.48	-37.89
355.692	74.75
355.903	33.79
356.115	9.22
356.326	35.84
356.538	-25.6
356.749	84.99
356.961	31.74
357.172	19.46
357.384	-41.98
357.595	9.22
357.807	17.41
358.018	21.5
358.23	7.17
358.441	48.13
358.653	41.98
358.864	-19.46
359.075	19.46
359.287	66.56
359.498	70.65
359.709	50.18
359.921	70.65
360.132	17.41
360.344	7.17
360.555	-11.26
360.766	39.94
360.977	-13.31
361.189	50.18
361.4	-19.46
361.611	111.61
361.823	5.12
362.034	-17.41
362.245	25.6
362.456	46.08
362.667	5.12
362.879	29.7
363.09	25.6
363.301	-11.26
363.512	-9.22
363.723	-7.17
363.935	68.61
364.146	13.31
364.357	58.37
364.568	35.84
364.779	-7.17
364.99	39.94
365.201	44.03
365.412	58.37
365.623	74.75
365.834	-31.74
366.045	37.89
366.256	56.32
366.467	9.22
366.678	33.79
366.889	13.31
367.1	19.46
367.311	56.32
367.522	17.41
367.733	19.46
367.944	33.79
368.155	80.89
368.366	46.08
368.577	-84.99
368.788	72.7
368.999	-39.94
369.209	87.04
369.42	64.51
369.631	-13.31
369.842	33.79
370.053	19.46
370.264	25.6
370.474	25.6
370.685	64.51
370.896	74.75
371.107	15.36
371.317	60.42
371.528	46.08
371.739	50.18
371.95	119.81
372.16	46.08
372.371	11.26
372.582	31.74
372.792	-25.6
373.003	46.08
373.214	13.31
373.424	1.02
373.635	-3.07
373.846	91.13
374.056	9.22
374.267	19.46
374.477	17.41
374.688	41.98
374.898	48.13
375.109	29.7
375.319	62.46
375.53	29.7
375.74	58.37
375.951	39.94
376.161	31.74
376.372	-1.02
376.582	35.84
376.793	50.18
377.003	-23.55
377.214	-21.5
377.424	64.51
377.635	132.09
377.845	23.55
378.055	21.5
378.266	68.61
378.476	-27.65
378.686	78.85
378.897	101.37
379.107	3.07
379.317	89.09
379.528	21.5
379.738	54.27
379.948	3.07
380.158	29.7
380.369	39.94
380.579	21.5
380.789	13.31
380.999	17.41
381.21	115.71
381.42	62.46
381.63	-7.17
381.84	82.94
382.05	11.26
382.261	25.6
382.471	80.89
382.681	11.26
382.891	35.84
383.101	78.85
383.311	84.99
383.521	68.61
383.731	15.36
383.941	35.84
384.151	52.22
384.361	-15.36
384.571	54.27
384.781	-19.46
384.991	33.79
385.201	41.98
385.411	5.12
385.621	41.98
385.831	91.13
386.041	7.17
386.251	97.28
386.461	66.56
386.671	19.46
386.881	29.7
387.091	-7.17
387.301	93.18
387.511	-23.55
387.72	31.74
387.93	56.32
388.14	66.56
388.35	39.94
388.56	74.75
388.769	7.17
388.979	117.76
389.189	13.31
389.399	29.7
389.609	-3.07
389.818	15.36
390.028	41.98
390.238	31.74
390.447	68.61
390.657	74.75
390.867	1.02
391.076	27.65
391.286	76.8
391.496	9.22
391.705	50.18
391.915	5.12
392.125	1.02
392.334	-25.6
392.544	46.08
392.753	35.84
392.963	7.17
393.172	99.33
393.382	50.18
393.591	66.56
393.801	13.31
394.01	64.51
394.22	17.41
394.429	52.22
394.639	-27.65
394.848	84.99
395.058	66.56
395.267	1.02
395.477	82.94
395.686	3.07
395.895	37.89
396.105	89.09
396.314	76.8
396.524	-13.31
396.733	48.13
396.942	-23.55
397.152	58.37
397.361	117.76
397.57	27.65
397.78	-1.02
397.989	70.65
398.198	74.75
398.407	44.03
398.617	33.79
398.826	15.36
399.035	68.61
399.244	56.32
399.453	46.08
399.663	84.99
399.872	76.8
400.081	15.36
400.29	7.17
400.499	-5.12
400.708	48.13
400.917	15.36
401.127	105.47
401.336	19.46
401.545	35.84
401.754	35.84
401.963	93.18
402.172	27.65
402.381	123.9
402.59	60.42
402.799	82.94
403.008	95.23
403.217	64.51
403.426	15.36
403.635	84.99
403.844	50.18
404.053	99.33
404.262	111.61
404.471	95.23
404.68	87.04
404.888	27.65
405.097	52.22
405.306	134.14
405.515	17.41
405.724	62.46
405.933	70.65
406.142	134.14
406.35	130.05
406.559	80.89
406.768	97.28
406.977	150.53
407.185	121.85
407.394	97.28
407.603	136.19
407.812	168.96
408.02	107.52
408.229	80.89
408.438	101.37
408.646	166.91
408.855	205.82
409.064	171.01
409.272	183.29
409.481	261.12
409.69	148.48
409.898	191.49
410.107	134.14
410.315	179.2
410.524	244.73
410.733	246.78
410.941	199.68
411.15	181.25
411.358	246.78
411.567	175.1
411.775	287.74
411.984	259.07
412.192	281.6
412.401	183.29
412.609	343.03
412.818	289.79
413.026	297.98
413.234	328.7
413.443	211.96
413.651	318.46
413.86	306.17
414.068	361.47
414.276	396.28
414.485	343.03
414.693	338.94
414.901	422.91
415.11	443.39
415.318	410.62
415.526	363.51
415.734	365.56
415.943	404.47
416.151	508.92
416.359	449.53
416.567	422.91
416.776	525.3
416.984	496.63
417.192	603.13
417.4	560.12
417.608	586.74
417.817	607.22
418.025	564.22
418.233	629.75
418.441	633.85
418.649	603.13
418.857	717.81
419.065	709.62
419.273	680.95
419.481	777.2
419.689	793.59
419.897	814.07
420.105	844.79
420.313	910.32
420.521	871.41
420.729	957.43
420.937	865.27
421.145	965.62
421.353	932.85
421.561	975.86
421.769	1082.35
421.977	1008.62
422.185	1041.39
422.393	1160.17
422.601	1254.38
422.809	1285.1
423.017	1225.71
423.224	1332.2
423.432	1385.45
423.64	1274.86
423.848	1373.16
424.056	1371.12
424.263	1565.67
424.471	1532.9
424.679	1575.91
424.887	1623.02
425.094	1737.7
425.302	1723.37
425.51	1823.72
425.718	1876.96
425.925	1913.83
426.133	1913.83
426.341	2092
426.548	2096.1
426.756	2149.34
426.964	2194.4
427.171	2255.84
427.379	2384.86
427.586	2302.94
427.794	2421.72
428.001	2417.63
428.209	2599.9
428.417	2565.08
428.624	2784.21
428.832	2804.69
429.039	2735.06
429.247	2837.46
429.454	3085.26
429.662	3202
429.869	3005.39
430.076	3226.57
430.284	3193.81
430.491	3216.33
430.699	3384.27
430.906	3468.24
431.114	3503.05
431.321	3767.24
431.528	3773.38
431.736	3908.55
431.943	4139.97
432.15	3972.04
432.358	4092.87
432.565	4383.68
432.772	4324.29
432.979	4537.27
433.187	4621.24
433.394	4602.81
433.601	4887.48
433.808	4838.33
434.016	4877.24
434.223	5092.27
434.43	5462.96
434.637	5110.71
434.844	5639.08
435.052	5643.18
435.259	5862.31
435.466	5833.64
435.673	5677.99
435.88	6151.07
436.087	6386.59
436.294	6421.41
436.501	6130.59
436.708	6423.45
436.915	6560.67
437.122	6771.61
437.329	6929.3
437.537	7168.91
437.743	7125.91
437.95	7132.05
438.157	7592.84
438.364	7754.63
438.571	7908.23
438.778	7785.35
438.985	8637.31
439.192	7965.57
439.399	8520.57
439.606	8076.16
439.813	8778.62
440.02	9110.39
440.227	8964.98
440.433	9010.04
440.64	9220.98
440.847	9309.04
441.054	9593.71
441.261	9968.49
441.467	9825.13
441.674	10146.66
441.881	10486.62
442.088	10333.03
442.294	10443.62
442.501	10806.11
442.708	10730.33
442.914	11211.6
443.121	11754.32
443.328	11621.2
443.534	12147.53
443.741	11987.79
443.948	11656.01
444.154	12772.16
444.361	12358.47
444.568	12522.3
444.774	12626.75
444.981	12612.42
445.187	13173.56
445.394	13802.29
445.6	13632.3
445.807	14617.38
446.013	14074.67
446.22	14463.78
446.426	14908.19
446.633	15309.59
446.839	15717.14
447.046	14805.79
447.252	15764.24
447.459	16036.62
447.665	16022.28
447.871	16464.64
448.078	17091.32
448.284	16296.71
448.491	16796.42
448.697	17558.26
448.903	17582.84
449.11	17707.76
449.316	17505.01
449.522	17761.01
449.728	18432.74
449.935	18365.16
450.141	18537.19
450.347	18815.71
450.553	18229.99
450.76	18617.06
450.966	19143.39
451.172	18954.97
451.378	19387.1
451.584	18830.05
451.791	19170.01
451.997	19477.21
452.203	19696.34
452.409	19460.82
452.615	19686.1
452.821	18979.55
453.027	18694.88
453.233	19538.65
453.44	18969.31
453.646	19225.31
453.852	18916.06
454.058	19380.95
454.264	18979.55
454.47	19178.2
454.676	18764.51
454.882	19593.94
455.088	17670.9
455.294	18062.06
455.5	18051.82
455.705	18361.06
455.911	17726.19
456.117	17388.28
456.323	17050.36
456.529	16352.01
456.735	16870.14
456.941	16294.66
457.147	16261.9
457.352	15776.53
457.558	15549.2
457.764	15479.57
457.97	15158.04
458.176	14576.42
458.381	14926.62
458.587	14195.5
458.793	14134.06
458.999	13462.32
459.204	14488.35
459.41	13972.27
459.616	13099.83
459.821	13191.99
460.027	13097.78
460.233	12829.5
460.438	12286.79
460.644	12280.64
460.85	11725.65
461.055	11518.8
461.261	11467.6
461.466	10742.62
461.672	10515.3
461.878	11150.17
462.083	10398.56
462.289	10341.22
462.494	10253.16
462.7	9632.62
462.905	9468.78
463.111	9714.54
463.316	9759.6
463.522	9603.95
463.727	9612.14
463.932	9454.45
464.138	9440.11
464.343	9630.57
464.549	9323.38
464.754	9388.91
464.959	9704.3
465.165	9341.81
465.37	8899.45
465.575	8825.72
465.781	9188.21
465.986	9159.54
466.191	8698.75
466.397	8651.64
466.602	8162.18
466.807	8608.64
467.012	8405.89
467.218	8424.32
467.423	8471.42
467.628	8487.81
467.833	8809.34
468.038	8508.29
468.244	8258.43
468.449	8686.46
468.654	8168.32
468.859	8229.76
469.064	8108.93
469.269	7932.81
469.474	8006.53
469.679	8151.94
469.885	7826.31
470.09	8020.87
470.295	8002.44
470.5	7918.47
470.705	7752.59
470.91	7568.27
471.115	7760.78
471.32	7615.37
471.525	7590.8
471.73	7537.55
471.935	7422.86
472.139	7222.16
472.344	7185.3
472.549	7033.75
472.754	7021.46
472.959	6984.6
473.164	6884.25
473.369	6673.31
473.574	7025.56
473.778	6908.82
473.983	6845.34
474.188	6808.47
474.393	6488.99
474.598	6452.13
474.802	6587.29
475.007	6558.62
475.212	6312.86
475.417	6173.6
475.621	6126.5
475.826	6153.12
476.031	6073.25
476.235	5985.19
476.44	5962.66
476.645	5915.56
476.849	6007.72
477.054	5907.37
477.259	5847.97
477.463	5735.34
477.668	5759.91
477.872	5626.79
478.077	5587.88
478.282	5616.55
478.486	5456.81
478.691	5436.33
478.895	5434.29
479.1	5475.24
479.304	5196.72
479.509	5170.1
479.713	5411.76
479.918	5116.85
480.122	5067.7
480.326	5215.15
480.531	5245.87
480.735	5100.47
480.94	5166
481.144	5346.22
481.348	5145.52
481.553	4944.82
481.757	5036.98
481.961	5067.7
482.166	5176.24
482.37	4981.68
482.574	4864.95
482.778	5075.89
482.983	5127.09
483.187	4991.92
483.391	5084.08
483.595	5000.12
483.8	4920.24
484.004	4961.2
484.208	5045.17
484.412	5098.42
484.616	5133.23
484.821	5034.93
485.025	4926.39
485.229	5241.78
485.433	4961.2
485.637	5168.05
485.841	5104.56
486.045	5147.57
486.249	4946.87
486.453	5039.03
486.657	5022.64
486.861	5016.5
487.065	4871.09
487.269	4914.1
487.473	4844.47
487.677	5114.8
487.881	5079.99
488.085	4807.61
488.289	5063.6
488.493	5114.8
488.697	5125.04
488.901	5000.12
489.105	5045.17
489.309	5163.95
489.512	5168.05
489.716	5069.75
489.92	5239.73
490.124	5211.06
490.328	5194.67
490.531	5161.91
490.735	5069.75
490.939	5284.78
491.143	5133.23
491.346	5282.74
491.55	5249.97
491.754	5264.3
491.958	5364.65
492.161	5209.01
492.365	5292.98
492.569	5419.95
492.772	5411.76
492.976	5389.23
493.18	5542.83
493.383	5462.96
493.587	5471.15
493.79	5620.65
493.994	5503.92
494.197	5473.2
494.401	5598.12
494.605	5708.71
494.808	5718.95
495.012	5835.69
495.215	5764.01
495.419	5915.56
495.622	5989.28
495.825	5852.07
496.029	5915.56
496.232	5991.33
496.436	6017.96
496.639	6294.43
496.843	6183.84
497.046	6323.1
497.249	6337.44
497.453	6374.3
497.656	6445.98
497.859	6388.64
498.063	6720.41
498.266	6714.27
498.469	6890.39
498.673	6796.18
498.876	6968.21
499.079	7056.28
499.282	6968.21
499.485	7230.35
499.689	7342.99
499.892	7273.36
500.095	7355.28
500.298	7574.41
500.501	7465.87
500.705	7902.09
500.908	7803.78
501.111	7859.08
501.314	7891.85
501.517	7869.32
501.72	8192.9
501.923	8139.65
502.126	8170.37
502.329	8381.31
502.532	8610.68
502.735	8612.73
502.938	8833.91
503.141	8878.97
503.344	9083.77
503.547	8784.76
503.75	9124.72
503.953	9354.1
504.156	9339.76
504.359	9421.68
504.562	9569.13
504.765	9872.23
504.968	10027.88
505.17	9851.75
505.373	10068.84
505.576	10216.29
505.779	10396.51
505.982	10345.31
506.185	10791.77
506.387	10791.77
506.59	10750.81
506.793	11103.06
506.996	11021.14
507.198	11459.41
507.401	11242.32
507.604	11518.8
507.807	11696.97
508.009	11797.32
508.212	12241.73
508.415	12112.71
508.617	12264.26
508.82	12571.46
509.022	12180.29
509.225	12835.64
509.428	12884.8
509.63	12956.47
509.833	13271.86
510.035	13411.12
510.238	13521.71
510.44	13501.23
510.643	13781.81
510.845	14117.67
511.048	13843.24
511.25	14189.35
511.453	14256.93
511.655	14838.56
511.858	14701.34
512.06	15129.37
512.262	15100.7
512.465	15176.47
512.667	15436.56
512.87	15549.2
513.072	15866.64
513.274	16227.08
513.477	16306.95
513.679	16284.42
513.881	16870.14
514.084	16655.11
514.286	16941.82
514.488	17136.38
514.69	17548.02
514.893	17619.7
515.095	17801.97
515.297	18084.59
515.499	18017.01
515.701	18275.05
515.904	18606.82
516.106	18907.87
516.308	18887.39
516.51	19237.59
516.712	19174.11
516.914	19729.11
517.116	19991.25
517.318	20064.97
517.52	20189.9
517.722	20331.21
517.925	20617.93
518.127	20992.7
518.329	21136.06
518.531	21095.1
518.733	21480.12
518.935	21787.32
519.136	21877.43
519.338	22002.35
519.54	22274.73
519.742	22602.41
519.944	22244.01
520.146	23292.57
520.348	23220.89
520.55	23388.83
520.752	23437.98
520.954	24142.48
521.155	24132.24
521.357	24337.04
521.559	24429.2
521.761	24896.13
521.963	24793.73
522.164	25102.98
522.366	25375.36
522.568	25594.49
522.77	25434.75
522.971	26430.06
523.173	26126.96
523.375	26155.63
523.576	26554.99
523.778	26516.08
523.98	26950.24
524.181	26882.66
524.383	27165.28
524.584	27572.83
524.786	27306.59
524.988	27601.5
525.189	27624.03
525.391	27746.9
525.592	28185.17
525.794	28547.66
525.995	28672.59
526.197	28609.1
526.398	28676.68
526.6	28926.53
526.801	29080.13
527.003	29313.6
527.204	29483.58
527.406	29409.86
527.607	29561.4
527.808	30161.46
528.01	29444.67
528.211	29628.99
528.412	30399.02
528.614	30104.12
528.815	30044.73
529.016	30558.77
529.218	30136.88
529.419	30493.23
529.62	30781.99
529.822	30421.55
530.023	30689.84
530.224	30779.95
530.425	30521.9
530.626	30792.23
530.828	30450.22
531.029	31142.44
531.23	30716.46
531.431	31257.12
531.632	31298.08
531.833	31164.96
532.035	31552.03
532.236	31365.67
532.437	31588.89
532.638	31300.13
532.839	31771.16
533.04	31568.41
533.241	31234.6
533.442	31857.18
533.643	31666.72
533.844	31478.3
534.045	31855.13
534.246	31216.16
534.447	31826.46
534.648	31271.46
534.849	31916.57
535.05	31814.17
535.251	31650.33
535.451	31736.35
535.652	32313.87
535.853	31955.48
536.054	32068.12
536.255	31965.72
536.456	31654.43
536.657	32463.38
536.857	31926.81
537.058	32072.21
537.259	32320.02
537.46	32182.8
537.66	32080.41
537.861	32262.68
538.062	31875.61
538.263	32158.23
538.463	31814.17
538.664	31855.13
538.865	31980.06
539.065	32313.87
539.266	31875.61
539.466	32307.73
539.667	31556.13
539.868	32369.17
540.068	32373.27
540.269	32047.64
540.469	32266.77
540.67	31881.75
540.87	31797.79
541.071	31760.92
541.271	32016.92
541.472	31951.38
541.672	32098.84
541.873	32277.01
542.073	31513.12
542.274	32352.79
542.474	31662.62
542.675	31955.48
542.875	32061.97
543.075	31855.13
543.276	31629.85
543.476	32092.69
543.676	32166.42
543.877	31967.77
544.077	31996.44
544.277	31951.38
544.478	31898.14
544.678	32180.76
544.878	32334.35
545.078	32023.06
545.279	31535.65
545.479	31775.26
545.679	32211.48
545.879	32244.24
546.079	32061.97
546.28	32188.95
546.48	31556.13
546.68	32152.09
546.88	31924.76
547.08	31799.83
547.28	31740.44
547.48	31607.33
547.68	31957.53
547.88	32004.63
548.081	32047.64
548.281	31863.32
548.481	32182.8
548.681	32199.19
548.881	31783.45
549.081	32262.68
549.28	31859.23
549.48	32530.96
549.68	31949.34
549.88	32420.37
550.08	31769.12
550.28	32197.14
550.48	31851.03
550.68	32035.35
550.88	31558.17
551.08	31943.19
551.279	31953.43
551.479	31679
551.679	31576.61
551.879	32027.16
552.079	31910.43
552.278	31871.51
552.478	31769.12
552.678	31572.51
552.878	32100.89
553.077	31672.86
553.277	31369.76
553.477	31799.83
553.676	31734.3
553.876	31736.35
554.076	31498.78
554.275	31541.79
554.475	31355.43
554.674	31595.04
554.874	31470.11
555.074	31517.22
555.273	31552.03
555.473	31517.22
555.672	31371.81
555.872	31463.97
556.071	31777.31
556.271	31240.74
556.47	31283.75
556.67	30929.45
556.869	31261.22
557.068	31322.66
557.268	31341.09
557.467	31486.5
557.667	31095.33
557.866	30773.8
558.065	30999.08
558.265	30491.18
558.464	30757.42
558.663	31162.92
558.863	30845.48
559.062	31253.03
559.261	30683.69
559.461	30718.51
559.66	30589.49
559.859	30638.64
560.058	30526
560.258	30431.79
560.457	30286.39
560.656	30679.6
560.855	30790.19
561.054	30194.23
561.253	30114.36
561.453	30226.99
561.652	30466.61
561.851	30521.9
562.05	30183.99
562.249	30173.75
562.448	30026.29
562.647	30106.16
562.846	29958.71
563.045	29880.89
563.244	29588.03
563.443	29798.97
563.642	29413.95
563.841	29862.46
564.04	29303.36
564.239	29717.05
564.438	29571.64
564.637	29502.01
564.836	29256.26
565.035	29375.04
565.234	29477.44
565.432	29377.09
565.631	29205.06
565.83	29387.33
566.029	28891.72
566.228	29119.04
566.427	28994.12
566.625	28586.57
566.824	28566.09
567.023	28795.46
567.222	28809.8
567.42	28996.17
567.619	28695.11
567.818	28222.03
568.016	27984.47
568.215	28334.67
568.414	28250.7
568.612	28899.91
568.811	28164.69
569.01	28369.49
569.208	27748.95
569.407	28246.61
569.605	27406.94
569.804	28215.89
570.002	27376.22
570.201	27998.8
570.4	27445.85
570.598	27216.48
570.797	27431.52
570.995	27425.37
571.193	27114.08
571.392	27214.43
571.59	26858.09
571.789	27056.74
571.987	26999.4
572.186	27009.64
572.384	26911.33
572.582	27030.12
572.781	26933.86
572.979	26296.94
573.177	26548.84
573.376	26374.77
573.574	26067.57
573.772	26468.97
573.971	26040.95
574.169	26073.71
574.367	25952.88
574.565	26434.16
574.763	26002.04
574.962	25782.9
575.16	25500.28
575.358	25506.43
575.556	25199.23
575.754	25674.36
575.952	25397.88
576.151	25367.16
576.349	25172.61
576.547	25115.26
576.745	25350.78
576.943	25227.9
577.141	24863.36
577.339	24939.14
577.537	24865.41
577.735	24957.57
577.933	24611.46
578.131	24887.94
578.329	24447.63
578.527	24169.1
578.725	24439.44
578.923	24111.76
579.121	24269.45
579.319	24232.59
579.516	23962.26
579.714	23902.87
579.912	23755.41
580.11	23788.18
580.308	23915.16
580.506	23493.27
580.704	23335.58
580.901	23618.2
581.099	23433.88
581.297	23095.97
581.495	23272.09
581.692	23198.37
581.89	23036.58
582.088	23304.86
582.285	23055.01
582.483	23120.54
582.681	23020.19
582.878	22856.36
583.076	22747.81
583.274	22907.55
583.471	22428.33
583.669	22626.98
583.866	22477.48
584.064	22686.37
584.262	22196.91
584.459	22520.49
584.657	22350.51
584.854	22305.45
585.052	22033.07
585.249	22407.85
585.447	22012.59
585.644	21746.36
585.841	21666.49
586.039	21893.81
586.236	21465.78
586.434	21830.32
586.631	21301.95
586.828	21410.49
587.026	21496.5
587.223	21250.75
587.42	21308.09
587.618	21586.61
587.815	20982.46
588.012	21136.06
588.21	21064.38
588.407	21185.21
588.604	20816.58
588.801	20873.92
588.999	20996.8
589.196	20767.43
589.393	20562.63
589.59	20421.32
589.787	20394.7
589.984	20163.28
590.182	20380.36
590.379	20699.84
590.576	20128.46
590.773	20245.2
590.97	20079.31
591.167	19946.19
591.364	20249.29
591.561	20142.8
591.758	19735.25
591.955	19593.94
592.152	19997.39
592.349	20009.68
592.546	19505.88
592.743	19872.46
592.94	19286.75
593.137	19563.22
593.334	19677.91
593.531	19362.52
593.727	19454.68
593.924	19112.67
594.121	19256.03
594.318	19331.8
594.515	18893.54
594.712	19440.34
594.908	19038.94
595.105	18967.26
595.302	18756.32
595.499	18905.82
595.696	18590.44
595.892	18514.66
596.089	18756.32
596.286	18703.07
596.482	18881.25
596.679	18610.92
596.876	18608.87
597.072	18553.57
597.269	18615.01
597.466	18248.43
597.662	18391.78
597.859	18182.89
598.055	18367.21
598.252	18207.47
598.448	18127.6
598.645	18115.31
598.841	18027.24
599.038	17801.97
599.234	17967.85
599.431	17801.97
599.627	17685.23
599.824	17683.19
600.02	17634.03
600.217	17855.22
600.413	17658.61
600.609	17472.25
600.806	17449.72
601.002	17642.23
601.198	17353.46
601.395	17261.3
601.591	17171.19
601.787	17099.52
601.984	17210.11
602.18	17281.78
602.376	17036.03
602.572	16583.43
602.769	16798.46
602.965	16859.9
603.161	16706.31
603.357	16694.02
603.553	16651.01
603.75	16655.11
603.946	16333.57
604.142	16423.69
604.338	16284.42
604.534	16417.54
604.73	16053
604.926	16186.12
605.122	16132.87
605.318	16071.43
605.514	15962.89
605.71	15934.22
605.906	16253.7
606.102	15581.97
606.298	15694.61
606.494	15715.09
606.69	15733.52
606.886	15739.66
607.082	15342.36
607.278	15782.67
607.474	15299.35
607.67	15774.48
607.866	15164.18
608.062	15436.56
608.257	15256.34
608.453	15440.66
608.649	15266.58
608.845	14977.82
609.041	15016.73
609.236	15145.75
609.432	15037.21
609.628	15020.83
609.824	14988.06
610.019	14637.86
610.215	14885.66
610.411	14770.97
610.606	14664.48
610.802	14770.97
610.998	14758.69
611.193	14541.6
611.389	14474.02
611.584	14332.71
611.78	14390.05
611.976	14439.2
612.171	14502.69
612.367	14334.76
612.562	14285.61
612.758	14228.26
612.953	13990.7
613.149	14074.67
613.344	14027.56
613.539	13988.65
613.735	14000.94
613.93	14029.61
614.126	13845.29
614.321	14295.85
614.517	13916.97
614.712	13802.29
614.907	13595.44
615.103	13712.17
615.298	13687.6
615.493	13697.84
615.688	13568.82
615.884	13669.17
616.079	13427.51
616.274	13540.15
616.47	13499.19
616.665	13540.15
616.86	13396.79
617.055	13407.03
617.25	13443.89
617.445	13464.37
617.641	13173.56
617.836	13019.96
618.031	13171.51
618.226	13198.13
618.421	13091.64
618.616	13185.85
618.811	12772.16
619.006	12798.78
619.201	12680
619.396	12948.28
619.591	12559.17
619.786	12581.7
619.981	12516.16
620.176	12780.35
620.371	12278.6
620.566	12426.05
620.761	12264.26
620.956	12446.53
621.151	12071.75
621.346	12245.83
621.541	12139.33
621.735	12075.85
621.93	11772.75
622.125	11887.43
622.32	11791.18
622.515	11909.96
622.709	11598.67
622.904	11723.6
623.099	11694.93
623.294	11760.46
623.488	11367.25
623.683	11563.86
623.878	11354.96
624.072	11248.47
624.267	11277.14
624.462	11150.17
624.656	11074.39
624.851	11008.86
625.046	10963.8
625.24	11144.02
625.435	10906.46
625.629	11025.24
625.824	10855.26
626.018	10687.32
626.213	10507.1
626.407	10765.15
626.602	10537.82
626.796	10666.85
626.991	10527.58
627.185	10343.27
627.38	10373.99
627.574	10216.29
627.768	10101.61
627.963	10101.61
628.157	10003.3
628.352	10085.22
628.546	9956.2
628.74	10046.31
628.935	9712.49
629.129	9730.92
629.323	9692.01
629.517	9642.86
629.712	9608.05
629.906	9669.48
630.1	9468.78
630.294	9343.86
630.489	9540.46
630.683	9491.31
630.877	9429.87
631.071	9243.51
631.265	9427.82
631.459	9239.41
631.653	9139.06
631.848	9143.16
632.042	8876.92
632.236	8999.8
632.43	8846.2
632.624	9046.9
632.818	8952.7
633.012	8801.15
633.206	8938.36
633.4	8848.25
633.594	8665.98
633.788	8629.12
633.982	8790.91
634.176	8577.92
634.369	8663.93
634.563	8430.46
634.757	8358.78
634.951	8233.86
635.145	8493.95
635.339	8416.13
635.533	8244.1
635.726	8287.11
635.92	8174.47
636.114	8131.46
636.308	8240
636.501	8104.84
636.695	8090.5
636.889	7994.25
637.083	7908.23
637.276	7869.32
637.47	7846.79
637.664	7930.76
637.857	7773.07
638.051	7799.69
638.244	7697.29
638.438	7588.75
638.632	7766.92
638.825	7510.93
639.019	7412.62
639.212	7478.16
639.406	7461.77
639.599	7418.77
639.793	7338.9
639.986	7265.17
640.18	7244.69
640.373	7455.63
640.567	7216.02
640.76	7216.02
640.954	7177.11
641.147	6884.25
641.34	6960.02
641.534	7097.24
641.727	6902.68
641.92	6996.89
642.114	6783.9
642.307	6714.27
642.5	6878.1
642.694	6607.77
642.887	6695.83
643.08	6831
643.273	6722.46
643.467	6464.41
643.66	6540.19
643.853	6566.81
644.046	6425.5
644.239	6497.18
644.432	6495.13
644.626	6335.39
644.819	6220.71
645.012	6405.02
645.205	6171.55
645.398	6220.71
645.591	6171.55
645.784	6144.93
645.977	5913.51
646.17	6038.44
646.363	5862.31
646.556	5938.09
646.749	5897.13
646.942	5913.51
647.135	5946.28
647.328	5665.71
647.521	5845.93
647.714	5753.77
647.907	5841.83
648.099	5651.37
648.292	5637.03
648.485	5503.92
648.678	5553.07
648.871	5348.27
649.064	5483.44
649.256	5508.01
649.449	5356.46
649.642	5411.76
649.835	5098.42
650.027	5278.64
650.22	5354.41
650.413	5200.82
650.605	5186.48
650.798	5163.95
650.991	5061.55
651.183	5116.85
651.376	5034.93
651.568	5102.51
651.761	5075.89
651.954	4955.06
652.146	4981.68
652.339	4918.2
652.531	4899.77
652.724	4862.9
652.916	4869.05
653.109	4744.12
653.301	4828.09
653.494	4670.39
653.686	4768.7
653.879	4733.88
654.071	4572.09
654.263	4588.47
654.456	4584.38
654.648	4600.76
654.84	4516.8
655.033	4463.55
655.225	4473.79
655.417	4303.81
655.61	4559.8
655.802	4391.87
655.994	4469.69
656.186	4393.92
656.379	4312
656.571	4236.22
656.763	4334.53
656.955	4303.81
657.148	4328.38
657.34	4049.86
657.532	4045.76
657.724	4086.72
657.916	4139.97
658.108	4006.85
658.3	4033.47
658.492	4021.19
658.684	4031.43
658.876	3869.64
659.068	3859.4
659.26	3810.25
659.452	3857.35
659.644	3775.43
659.836	3894.21
660.028	3824.58
660.22	3711.94
660.412	3701.7
660.604	3703.75
660.796	3570.63
660.988	3812.29
661.18	3636.17
661.372	3693.51
661.563	3431.37
661.755	3562.44
661.947	3656.65
662.139	3425.23
662.331	3476.43
662.522	3425.23
662.714	3429.32
662.906	3509.19
663.097	3412.94
663.289	3296.21
663.481	3343.31
663.673	3302.35
663.864	3410.89
664.056	3214.29
664.247	3242.96
664.439	3167.18
664.631	3146.7
664.822	3167.18
665.014	3273.68
665.205	3165.14
665.397	3296.21
665.588	3224.53
665.78	3128.27
665.971	3140.56
666.163	3216.33
666.354	3068.88
666.546	2952.15
666.737	3128.27
666.929	3075.03
667.12	2888.66
667.311	2927.57
667.503	3027.92
667.694	2927.57
667.885	3013.59
668.077	2956.24
668.268	2782.17
668.459	2841.56
668.651	2810.84
668.842	2866.13
669.033	2831.32
669.224	2833.36
669.416	2960.34
669.607	2825.17
669.798	2847.7
669.989	2685.91
670.18	2773.97
670.371	2833.36
670.563	2767.83
670.754	2870.23
670.945	2769.88
671.136	2745.3
671.327	2780.12
671.518	2769.88
671.709	2683.86
671.9	2671.58
672.091	2683.86
672.282	2599.9
672.473	2622.42
672.664	2776.02
672.855	2704.34
673.046	2556.89
673.237	2524.12
673.428	2638.81
673.619	2481.11
673.809	2477.02
674	2409.44
674.191	2513.88
674.382	2595.8
674.573	2554.84
674.764	2470.87
674.954	2597.85
675.145	2477.02
675.336	2442.2
675.527	2569.18
675.717	2466.78
675.908	2493.4
676.099	2399.2
676.289	2374.62
676.48	2431.96
676.671	2364.38
676.861	2397.15
677.052	2382.81
677.243	2362.33
677.433	2388.96
677.624	2313.18
677.814	2384.86
678.005	2378.72
678.195	2333.66
678.386	2376.67
678.576	2421.72
678.767	2296.8
678.957	2421.72
679.148	2401.24
679.338	2364.38
679.529	2327.52
679.719	2276.32
679.909	2327.52
680.1	2302.94
680.29	2294.75
680.481	2280.41
680.671	2360.28
680.861	2384.86
681.052	2261.98
681.242	2257.89
681.432	2257.89
681.622	2327.52
681.813	2307.04
682.003	2233.31
682.193	2286.56
682.383	2364.38
682.573	2229.21
682.764	2284.51
682.954	2284.51
683.144	2348
683.334	2286.56
683.524	2237.41
683.714	2190.3
683.904	2223.07
684.094	2194.4
684.284	2210.78
684.474	2286.56
684.664	2315.23
684.854	2212.83
685.044	2313.18
685.234	2223.07
685.424	2202.59
685.614	2261.98
685.804	2202.59
685.994	2307.04
686.184	2202.59
686.374	2159.58
686.564	2192.35
686.753	2255.84
686.943	2132.96
687.133	2274.27
687.323	2280.41
687.513	2323.42
687.702	2114.53
687.892	2128.86
688.082	2139.1
688.272	2130.91
688.461	2212.83
688.651	2098.14
688.841	2147.3
689.03	2100.19
689.22	2079.71
689.41	2151.39
689.599	2143.2
689.789	2223.07
689.979	2100.19
690.168	2077.66
690.358	2180.06
690.547	2161.63
690.737	2106.34
690.926	2196.45
691.116	2083.81
691.305	2169.82
691.495	2208.73
691.684	2223.07
691.874	2214.88
692.063	2087.9
692.252	2135.01
692.442	2096.1
692.631	2116.58
692.82	2251.74
693.01	2204.64
693.199	2227.17
693.388	2145.25
693.578	2102.24
693.767	2182.11
693.956	2130.91
694.146	2198.49
694.335	2112.48
694.524	2114.53
694.713	2173.92
694.902	2167.77
695.092	2128.86
695.281	2145.25
695.47	2167.77
695.659	2124.77
695.848	2251.74
696.037	2118.62
696.226	2208.73
696.415	2038.75
696.604	2159.58
696.793	2122.72
696.982	2317.28
697.171	2110.43
697.36	2145.25
697.549	2124.77
697.738	2079.71
697.927	2100.19
698.116	2169.82
698.305	2040.8
698.494	2038.75
698.683	2173.92
698.872	2126.82
699.061	2030.56
699.25	2094.05
699.438	2171.87
699.627	2143.2
699.816	2145.25
700.005	2188.25
700.193	2221.02
700.382	2251.74
700.571	2188.25
700.76	2079.71
700.948	2159.58
701.137	2040.8
701.326	2159.58
701.514	2167.77
701.703	2094.05
701.892	2175.97
702.08	2212.83
702.269	2106.34
702.457	2065.38
702.646	2175.97
702.834	2157.54
703.023	2081.76
703.212	2073.57
703.4	2132.96
703.589	1983.46
703.777	2024.42
703.965	1991.65
704.154	2048.99
704.342	2098.14
704.531	2120.67
704.719	1991.65
704.907	2114.53
705.096	2012.13
705.284	1999.84
705.472	1956.83
705.661	2020.32
705.849	2087.9
706.037	2169.82
706.226	1991.65
706.414	2024.42
706.602	2055.14
706.79	2048.99
706.979	2094.05
707.167	2073.57
707.355	1956.83
707.543	1983.46
707.731	2010.08
707.919	2028.51
708.107	1960.93
708.296	1901.54
708.484	1981.41
708.672	1934.31
708.86	2034.66
709.048	1993.7
709.236	1907.68
709.424	1954.79
709.612	1860.58
709.8	1885.16
709.988	1913.83
710.176	1776.61
710.364	1903.59
710.551	1973.22
710.739	1846.24
710.927	1879.01
711.115	1879.01
711.303	1930.21
711.491	1827.81
711.679	1817.57
711.866	1788.9
712.054	1739.75
712.242	1846.24
712.43	1852.39
712.617	1829.86
712.805	1778.66
712.993	1864.68
713.181	1735.65
713.368	1838.05
713.556	1823.72
713.744	1803.24
713.931	1704.93
714.119	1702.89
714.306	1733.61
714.494	1680.36
714.682	1717.22
714.869	1770.47
715.057	1778.66
715.244	1782.76
715.432	1698.79
715.619	1700.84
715.807	1606.63
715.994	1651.69
716.182	1666.02
716.369	1668.07
716.556	1639.4
716.744	1672.17
716.931	1741.8
717.119	1647.59
717.306	1682.41
717.493	1670.12
717.681	1633.26
717.868	1596.39
718.055	1608.68
718.242	1567.72
718.43	1641.45
718.617	1512.42
718.804	1524.71
718.991	1631.21
719.179	1549.29
719.366	1657.83
719.553	1577.96
719.74	1543.14
719.927	1602.54
720.114	1475.56
720.301	1516.52
720.488	1510.38
720.676	1575.91
720.863	1559.53
721.05	1565.67
721.237	1565.67
721.424	1489.9
721.611	1481.71
721.798	1557.48
721.985	1407.98
722.172	1442.79
722.358	1598.44
722.545	1592.3
722.732	1481.71
722.919	1528.81
723.106	1463.27
723.293	1461.23
723.48	1448.94
723.667	1434.6
723.853	1393.64
724.04	1410.03
724.227	1465.32
724.414	1354.73
724.6	1281
724.787	1373.16
724.974	1463.27
725.161	1420.27
725.347	1315.82
725.534	1379.31
725.72	1500.14
725.907	1340.4
726.094	1422.31
726.28	1403.88
726.467	1418.22
726.653	1328.11
726.84	1358.83
727.027	1362.92
727.213	1379.31
727.4	1358.83
727.586	1301.48
727.773	1328.11
727.959	1270.76
728.145	1354.73
728.332	1412.07
728.518	1342.44
728.705	1311.72
728.891	1248.24
729.077	1287.15
729.264	1332.2
729.45	1281
729.636	1297.39
729.823	1209.33
730.009	1264.62
730.195	1272.81
730.382	1240.05
730.568	1252.33
730.754	1319.92
730.94	1315.82
731.126	1352.68
731.313	1295.34
731.499	1242.09
731.685	1197.04
731.871	1225.71
732.057	1291.24
732.243	1233.9
732.429	1317.87
732.615	1221.61
732.801	1213.42
732.987	1213.42
733.173	1143.79
733.359	1235.95
733.545	1160.17
733.731	1154.03
733.917	1147.89
734.103	1205.23
734.289	1197.04
734.475	1178.61
734.661	1246.19
734.847	1199.09
735.033	1186.8
735.219	1127.41
735.404	1154.03
735.59	1184.75
735.776	1108.98
735.962	1197.04
736.148	1172.46
736.333	1111.02
736.519	1100.78
736.705	1151.98
736.89	1045.49
737.076	1041.39
737.262	1166.32
737.447	1100.78
737.633	1063.92
737.819	1139.69
738.004	1135.6
738.19	1041.39
738.375	1119.21
738.561	1137.65
738.747	1043.44
738.932	1057.78
739.118	1082.35
739.303	1113.07
739.489	1106.93
739.674	1096.69
739.859	1022.96
740.045	1047.54
740.23	1018.86
740.416	1039.34
740.601	1129.45
740.786	1020.91
740.972	1033.2
741.157	1090.54
741.342	1008.62
741.528	934.9
741.713	1068.02
741.898	1039.34
742.084	967.67
742.269	998.38
742.454	1106.93
742.639	979.95
742.824	1010.67
743.01	1018.86
743.195	914.42
743.38	998.38
743.565	926.71
743.75	1014.77
743.935	947.19
744.12	914.42
744.305	967.67
744.49	965.62
744.675	990.19
744.86	941.04
745.045	1018.86
745.23	887.79
745.415	844.79
745.6	998.38
745.785	924.66
745.97	961.52
746.155	867.31
746.34	904.18
746.525	887.79
746.71	887.79
746.895	928.75
747.079	924.66
747.264	871.41
747.449	816.12
747.634	820.21
747.819	873.46
748.003	924.66
748.188	785.4
748.373	779.25
748.557	832.5
748.742	848.88
748.927	900.08
749.111	844.79
749.296	812.02
749.481	812.02
749.665	752.63
749.85	764.92
750.034	838.64
750.219	803.83
750.404	814.07
750.588	730.1
750.773	762.87
750.957	791.54
751.141	742.39
751.326	752.63
751.51	683
751.695	717.81
751.879	713.72
752.064	732.15
752.248	734.2
752.432	711.67
752.617	742.39
752.801	678.9
752.985	672.76
753.17	664.57
753.354	680.95
753.538	685.05
753.722	656.37
753.907	609.27
754.091	631.8
754.275	697.33
754.459	713.72
754.643	707.57
754.828	697.33
755.012	619.51
755.196	639.99
755.38	639.99
755.564	617.46
755.748	660.47
755.932	596.98
756.116	621.56
756.3	596.98
756.484	666.61
756.668	613.37
756.852	609.27
757.036	617.46
757.22	611.32
757.404	609.27
757.588	574.46
757.772	531.45
757.956	574.46
758.14	668.66
758.323	603.13
758.507	599.03
758.691	541.69
758.875	506.87
759.059	621.56
759.242	553.98
759.426	533.5
759.61	529.4
759.794	510.97
759.977	566.26
760.161	508.92
760.345	566.26
760.528	543.74
760.712	594.93
760.895	551.93
761.079	553.98
761.263	551.93
761.446	615.41
761.63	519.16
761.813	584.7
761.997	513.02
762.18	508.92
762.364	449.53
762.547	543.74
762.731	627.7
762.914	605.17
763.098	508.92
763.281	558.07
763.464	545.78
763.648	453.63
763.831	498.68
764.015	533.5
764.198	433.15
764.381	445.43
764.564	435.19
764.748	517.11
764.931	504.82
765.114	429.05
765.297	498.68
765.481	435.19
765.664	381.95
765.847	367.61
766.03	402.43
766.213	394.23
766.397	439.29
766.58	386.04
766.763	510.97
766.946	451.58
767.129	410.62
767.312	416.76
767.495	478.2
767.678	455.67
767.861	422.91
768.044	441.34
768.227	404.47
768.41	467.96
768.593	386.04
768.776	355.32
768.959	476.15
769.142	459.77
769.324	498.68
769.507	386.04
769.69	465.91
769.873	478.2
770.056	494.58
770.239	416.76
770.421	467.96
770.604	463.86
770.787	392.19
770.97	402.43
771.152	435.19
771.335	472.06
771.518	435.19
771.7	478.2
771.883	427
772.066	386.04
772.248	402.43
772.431	439.29
772.613	414.71
772.796	324.6
772.978	414.71
773.161	383.99
773.343	338.94
773.526	388.09
773.708	435.19
773.891	343.03
774.073	383.99
774.256	414.71
774.438	330.75
774.621	353.27
774.803	427
774.985	349.18
775.168	349.18
775.35	424.95
775.532	392.19
775.715	408.57
775.897	328.7
776.079	320.51
776.261	367.61
776.444	347.13
776.626	304.12
776.808	312.32
776.99	312.32
777.173	359.42
777.355	410.62
777.537	338.94
777.719	314.36
777.901	361.47
778.083	246.78
778.265	357.37
778.447	357.37
778.629	300.03
778.811	420.86
778.993	318.46
779.175	353.27
779.357	347.13
779.539	238.59
779.721	340.99
779.903	306.17
780.085	236.54
780.267	379.9
780.449	388.09
780.631	287.74
780.812	306.17
780.994	326.65
781.176	240.64
781.358	320.51
781.54	248.83
781.721	300.03
781.903	197.63
782.085	295.93
782.267	291.84
782.448	275.45
782.63	173.05
782.812	295.93
782.993	203.77
783.175	218.11
783.357	203.77
783.538	306.17
783.72	259.07
783.901	283.64
784.083	287.74
784.264	252.92
784.446	273.4
784.627	240.64
784.809	214.01
784.99	216.06
785.172	242.68
785.353	216.06
785.535	324.6
785.716	214.01
785.897	218.11
786.079	265.21
786.26	236.54
786.441	291.84
786.623	218.11
786.804	271.36
786.985	228.35
787.167	207.87
787.348	238.59
787.529	273.4
787.71	261.12
787.891	162.81
788.073	230.4
788.254	222.2
788.435	199.68
788.616	232.44
788.797	203.77
788.978	105.47
789.159	226.3
789.34	209.92
789.522	171.01
789.703	189.44
789.884	171.01
790.065	168.96
790.246	191.49
790.427	177.15
790.607	250.88
790.788	238.59
790.969	191.49
791.15	238.59
791.331	179.2
791.512	138.24
791.693	111.61
791.874	220.16
792.054	150.53
792.235	248.83
792.416	160.77
792.597	185.34
792.778	123.9
792.958	246.78
793.139	201.72
793.32	117.76
793.5	109.57
793.681	222.2
793.862	158.72
794.042	195.58
794.223	154.62
794.404	128
794.584	148.48
794.765	152.57
794.945	101.37
795.126	150.53
795.306	218.11
795.487	158.72
795.667	117.76
795.848	144.38
796.028	158.72
796.209	166.91
796.389	154.62
796.57	134.14
796.75	128
796.93	238.59
797.111	66.56
797.291	154.62
797.471	119.81
797.652	146.43
797.832	187.39
798.012	156.67
798.192	91.13
798.373	175.1
798.553	162.81
798.733	152.57
798.913	152.57
799.093	138.24
799.274	101.37
799.454	125.95
799.634	123.9
799.814	152.57
799.994	107.52
800.174	154.62
800.354	140.29
800.534	91.13
800.714	193.53
800.894	142.33
801.074	187.39
801.254	164.86
801.434	199.68
801.614	144.38
801.794	119.81
801.974	332.79
802.154	218.11
802.334	99.33
802.514	58.37
802.693	105.47
802.873	93.18
803.053	97.28
803.233	60.42
803.413	117.76
803.592	54.27
803.772	97.28
803.952	74.75
804.131	173.05
804.311	115.71
804.491	82.94
804.67	144.38
804.85	95.23
805.03	107.52
805.209	166.91
805.389	95.23
805.568	132.09
805.748	142.33
805.928	87.04
806.107	109.57
806.287	48.13
806.466	93.18
806.646	68.61
806.825	62.46
807.004	132.09
807.184	107.52
807.363	76.8
807.543	82.94
807.722	82.94
807.901	146.43
808.081	121.85
808.26	76.8
808.439	27.65
808.619	76.8
808.798	150.53
808.977	154.62
809.156	62.46
809.336	119.81
809.515	103.42
809.694	101.37
809.873	56.32
810.052	115.71
810.231	68.61
810.411	58.37
810.59	140.29
810.769	66.56
810.948	97.28
811.127	99.33
811.306	97.28
811.485	82.94
811.664	111.61
811.843	21.5
812.022	173.05
812.201	101.37
812.38	66.56
812.559	35.84
812.737	74.75
812.916	76.8
813.095	107.52
813.274	97.28
813.453	82.94
813.632	91.13
813.811	-5.12
813.989	87.04
814.168	66.56
814.347	82.94
814.526	121.85
814.704	82.94
814.883	29.7
815.062	48.13
815.24	35.84
815.419	56.32
815.598	144.38
815.776	17.41
815.955	107.52
816.133	78.85
816.312	80.89
816.49	87.04
816.669	89.09
816.847	56.32
817.026	82.94
817.204	33.79
817.383	115.71
817.561	37.89
817.74	68.61
817.918	89.09
818.097	62.46
818.275	13.31
818.453	74.75
818.632	41.98
818.81	58.37
818.988	48.13
819.167	21.5
819.345	60.42
819.523	3.07
819.701	80.89
819.879	93.18
820.058	7.17
820.236	82.94
820.414	123.9
820.592	66.56
820.77	62.46
820.948	78.85
821.127	97.28
821.305	93.18
821.483	91.13
821.661	115.71
821.839	27.65
822.017	54.27
822.195	31.74
822.373	27.65
822.551	41.98
822.729	15.36
822.907	9.22
823.085	56.32
823.262	123.9
823.44	44.03
823.618	44.03
823.796	48.13
823.974	7.17
824.152	101.37
824.329	-1.02
824.507	80.89
824.685	-1.02
824.863	68.61
825.04	29.7
825.218	52.22
825.396	-1.02
825.574	72.7
825.751	15.36
825.929	70.65
826.107	-46.08
826.284	56.32
826.462	27.65
826.639	76.8
826.817	64.51
826.994	66.56
827.172	35.84
827.349	66.56
827.527	44.03
827.704	91.13
827.882	117.76
828.059	9.22
828.237	25.6
828.414	76.8
828.591	29.7
828.769	91.13
828.946	60.42
829.124	7.17
829.301	89.09
829.478	31.74
829.655	27.65
829.833	48.13
830.01	1.02
830.187	17.41
830.364	25.6
830.542	21.5
830.719	103.42
830.896	35.84
831.073	-1.02
831.25	11.26
831.427	99.33
831.604	13.31
831.782	23.55
831.959	35.84
832.136	70.65
832.313	99.33
832.49	-9.22
832.667	97.28
832.844	74.75
833.021	7.17
833.198	74.75
833.374	111.61
833.551	52.22
833.728	58.37
833.905	33.79
834.082	58.37
834.259	33.79
834.436	41.98
834.612	21.5
834.789	66.56
834.966	-3.07
835.143	44.03
835.319	101.37
835.496	68.61
835.673	39.94
835.85	93.18
836.026	70.65
836.203	15.36
836.38	29.7
836.556	9.22
836.733	11.26
836.909	13.31
837.086	39.94
837.262	68.61
837.439	68.61
837.616	52.22
837.792	52.22
837.968	70.65
838.145	5.12
838.321	58.37
838.498	41.98
838.674	58.37
838.851	33.79
839.027	58.37
839.203	74.75
839.38	13.31
839.556	-44.03
839.732	113.66
839.909	21.5
840.085	-7.17
840.261	80.89
840.437	1.02
840.614	-27.65
840.79	33.79
840.966	87.04
841.142	27.65
841.318	-58.37
841.494	62.46
841.671	21.5
841.847	91.13
842.023	68.61
842.199	-27.65
842.375	99.33
842.551	64.51
842.727	-13.31
842.903	21.5
843.079	27.65
843.255	39.94
843.431	62.46
843.607	21.5
843.783	-31.74
843.959	62.46
844.134	13.31
844.31	19.46
844.486	78.85
844.662	68.61
844.838	-50.18
845.013	5.12
845.189	23.55
845.365	117.76
845.541	-27.65
845.716	-54.27
845.892	50.18
846.068	80.89
846.244	-41.98
846.419	-1.02
846.595	62.46
846.77	-9.22
846.946	25.6
847.122	-27.65
847.297	9.22
847.473	9.22
847.648	19.46
847.824	82.94
847.999	41.98
848.175	-5.12
848.35	35.84
848.526	48.13
848.701	-35.84
848.876	52.22
849.052	35.84
849.227	13.31
849.403	3.07
849.578	89.09
849.753	27.65
849.929	-17.41
850.104	-9.22
850.279	48.13
850.454	5.12
850.63	70.65
850.805	17.41
850.98	-17.41
851.155	68.61
851.33	121.85
851.505	97.28
851.681	-50.18
851.856	-39.94
852.031	-5.12
852.206	3.07
852.381	21.5
852.556	-13.31
852.731	27.65
852.906	25.6
853.081	-1.02
853.256	54.27
853.431	41.98
853.606	56.32
853.781	19.46
853.956	11.26
854.131	37.89
854.305	-7.17
854.48	82.94
854.655	11.26
854.83	-39.94
855.005	27.65
855.18	64.51
855.354	5.12
855.529	17.41
855.704	37.89
855.879	-17.41
856.053	35.84
856.228	25.6
856.403	101.37
856.577	15.36
856.752	-25.6
856.926	15.36
857.101	37.89
857.276	-23.55
857.45	-62.46
857.625	117.76
857.799	56.32
857.974	19.46
858.148	64.51
858.323	23.55
858.497	-54.27
858.672	35.84
858.846	11.26
859.02	11.26
859.195	-11.26
859.369	-25.6
859.543	-11.26
859.718	-46.08
859.892	29.7
860.066	-91.13
860.241	-54.27
860.415	-5.12
860.589	-27.65
860.763	25.6
860.938	35.84
861.112	9.22
861.286	13.31
861.46	74.75
861.634	46.08
861.808	58.37
861.982	-13.31
862.157	29.7
862.331	64.51
862.505	72.7
862.679	-1.02
862.853	15.36
863.027	-29.7
863.201	-17.41
863.375	-62.46
863.549	52.22
863.722	-9.22
863.896	60.42
864.07	-50.18
864.244	-9.22
864.418	-33.79
864.592	-62.46
864.766	11.26
864.939	13.31
865.113	-46.08
865.287	19.46
865.461	-31.74
865.634	-29.7
865.808	-15.36
865.982	21.5
866.156	-9.22
866.329	17.41
866.503	39.94
866.676	-50.18
866.85	15.36
867.024	25.6
867.197	107.52
867.371	31.74
867.544	-29.7
867.718	39.94
867.891	44.03
868.065	-5.12
868.238	-50.18
868.412	93.18
868.585	-33.79
868.759	-35.84
868.932	19.46
869.105	23.55
869.279	52.22
869.452	48.13
869.625	-39.94
869.799	-7.17
869.972	-25.6
870.145	-15.36
870.319	-37.89
870.492	-21.5
870.665	5.12
870.838	-19.46
871.011	-54.27
871.185	-23.55
871.358	-19.46
871.531	33.79
871.704	-44.03
871.877	-3.07
872.05	-1.02
872.223	44.03
872.396	3.07
872.569	58.37
872.742	-41.98
872.915	29.7
873.088	5.12
873.261	60.42
873.434	91.13
873.607	39.94
873.78	-7.17
873.953	3.07
874.126	35.84
874.299	3.07
874.471	48.13
874.644	9.22
874.817	56.32
874.99	-39.94
875.163	-31.74
875.335	19.46
875.508	23.55
875.681	68.61
875.853	1.02
876.026	11.26
876.199	113.66
876.371	-15.36
876.544	-41.98
876.717	-46.08
876.889	17.41
877.062	82.94
877.234	-1.02
877.407	-11.26
877.579	52.22
877.752	50.18
877.924	-39.94
878.097	-35.84
878.269	35.84
878.442	21.5
878.614	27.65
878.786	-7.17
878.959	-35.84
879.131	44.03
879.303	58.37
879.476	-19.46
879.648	103.42
879.82	31.74
879.993	19.46
880.165	52.22
880.337	-1.02
880.509	-5.12
880.681	15.36
880.854	41.98
881.026	-54.27
881.198	52.22
881.37	-23.55
881.542	-7.17
881.714	44.03
881.886	78.85
882.058	-27.65
882.23	35.84
882.402	82.94
882.574	-39.94
882.746	52.22
882.918	44.03
883.09	-25.6
883.262	-3.07
883.434	-3.07
883.606	-29.7
883.778	-19.46
883.95	87.04
884.122	48.13
884.293	52.22
884.465	-56.32
884.637	-56.32
884.809	-56.32
884.98	9.22
885.152	29.7
885.324	41.98
885.496	37.89
885.667	-44.03
885.839	25.6
886.011	44.03
886.182	-48.13
886.354	15.36
886.525	-5.12
886.697	-23.55
886.869	62.46
887.04	5.12
887.212	-19.46
887.383	82.94
887.555	-113.66
887.726	62.46
887.897	-29.7
888.069	11.26
888.24	25.6
888.412	11.26
888.583	-68.61
888.754	66.56
888.926	-66.56
889.097	-13.31
889.268	-62.46
889.44	44.03
889.611	29.7
889.782	-23.55
889.953	-41.98
890.125	41.98
890.296	41.98
890.467	48.13
890.638	15.36
890.809	35.84
890.98	-7.17
891.151	-5.12
891.323	17.41
891.494	-13.31
891.665	35.84
891.836	-7.17
892.007	-13.31
892.178	-15.36
892.349	19.46
892.52	5.12
892.691	58.37
892.862	25.6
893.032	-1.02
893.203	-21.5
893.374	23.55
893.545	37.89
893.716	-39.94
893.887	23.55
894.057	1.02
894.228	21.5
894.399	84.99
894.57	31.74
894.74	-25.6
894.911	48.13
895.082	64.51
895.253	-1.02
895.423	13.31
895.594	54.27
895.764	3.07
895.935	-27.65
896.106	17.41
896.276	35.84
896.447	-3.07
896.617	17.41
896.788	52.22
896.958	15.36
897.129	-3.07
897.299	-52.22
897.47	11.26
897.64	-70.65
897.81	60.42
897.981	-9.22
898.151	-19.46
898.322	25.6
898.492	-15.36
898.662	21.5
898.832	48.13
899.003	3.07
899.173	19.46
899.343	-15.36
899.513	7.17
