Data from USB4F104151__238__14-00-56-098.txt Node

Date: Thu Mar 13 14:00:56 EDT 2025
User: louis
Spectrometer: USB4F10415
Trigger mode: 4
Integration Time (sec): 1.000000E-2
Scans to average: 1
Electric dark correction enabled: true
Nonlinearity correction enabled: false
Boxcar width: 0
XAxis mode: Wavelengths
Number of Pixels in Spectrum: 3648
>>>>>Begin Spectral Data<<<<<
178.204	-44.71
178.424	-44.71
178.644	-44.71
178.864	-18.09
179.084	-32.43
179.304	-75.43
179.524	31.06
179.744	-24.23
179.964	-7.85
180.184	53.59
180.404	-38.57
180.624	2.39
180.844	6.49
181.064	10.58
181.283	43.35
181.503	-24.23
181.723	22.87
181.943	8.53
182.163	22.87
182.383	12.63
182.602	6.49
182.822	100.69
183.042	-34.47
183.262	33.11
183.482	20.82
183.701	-18.09
183.921	26.96
184.141	20.82
184.361	39.25
184.58	-7.85
184.8	84.31
185.02	6.49
185.239	41.3
185.459	-48.81
185.679	6.49
185.898	49.49
186.118	18.77
186.338	-20.14
186.557	51.54
186.777	37.2
186.997	24.92
187.216	31.06
187.436	31.06
187.655	117.08
187.875	18.77
188.095	18.77
188.314	-40.62
188.534	104.79
188.753	59.73
188.973	20.82
189.192	0.34
189.412	4.44
189.631	57.68
189.851	6.49
190.07	-1.71
190.29	-26.28
190.509	2.39
190.729	49.49
190.948	18.77
191.168	55.64
191.387	35.16
191.607	-24.23
191.826	-65.19
192.045	-26.28
192.265	-16.04
192.484	-13.99
192.704	35.16
192.923	37.2
193.142	-44.71
193.362	20.82
193.581	33.11
193.8	14.68
194.02	10.58
194.239	-50.86
194.458	72.02
194.678	-26.28
194.897	-34.47
195.116	115.03
195.335	6.49
195.555	10.58
195.774	82.26
195.993	4.44
196.212	76.12
196.432	26.96
196.651	88.4
196.87	41.3
197.089	33.11
197.308	65.88
197.528	4.44
197.747	35.16
197.966	35.16
198.185	24.92
198.404	6.49
198.623	72.02
198.842	31.06
199.062	90.45
199.281	51.54
199.5	-9.9
199.719	43.35
199.938	18.77
200.157	59.73
200.376	12.63
200.595	33.11
200.814	20.82
201.033	26.96
201.252	67.92
201.471	115.03
201.69	76.12
201.909	49.49
202.128	39.25
202.347	12.63
202.566	-18.09
202.785	98.64
203.004	-42.67
203.223	10.58
203.442	14.68
203.661	33.11
203.879	-16.04
204.098	51.54
204.317	43.35
204.536	88.4
204.755	8.53
204.974	55.64
205.193	39.25
205.411	39.25
205.63	-40.62
205.849	26.96
206.068	55.64
206.287	6.49
206.505	-18.09
206.724	57.68
206.943	33.11
207.162	35.16
207.381	37.2
207.599	-7.85
207.818	78.16
208.037	47.44
208.255	33.11
208.474	2.39
208.693	110.93
208.911	10.58
209.13	47.44
209.349	-3.75
209.567	49.49
209.786	88.4
210.005	80.21
210.223	33.11
210.442	-24.23
210.661	39.25
210.879	33.11
211.098	14.68
211.316	31.06
211.535	20.82
211.753	4.44
211.972	33.11
212.191	24.92
212.409	-5.8
212.628	24.92
212.846	8.53
213.065	-5.8
213.283	8.53
213.502	-9.9
213.72	86.36
213.938	-16.04
214.157	18.77
214.375	41.3
214.594	-18.09
214.812	-16.04
215.031	8.53
215.249	-30.38
215.467	65.88
215.686	-18.09
215.904	51.54
216.122	-16.04
216.341	49.49
216.559	8.53
216.778	88.4
216.996	45.4
217.214	0.34
217.432	-1.71
217.651	108.88
217.869	57.68
218.087	41.3
218.306	43.35
218.524	57.68
218.742	96.6
218.96	-59.05
219.179	39.25
219.397	78.16
219.615	-20.14
219.833	57.68
220.051	26.96
220.27	59.73
220.488	16.73
220.706	43.35
220.924	100.69
221.142	55.64
221.36	0.34
221.578	51.54
221.796	67.92
222.015	39.25
222.233	63.83
222.451	-5.8
222.669	-24.23
222.887	6.49
223.105	-26.28
223.323	-16.04
223.541	18.77
223.759	14.68
223.977	8.53
224.195	43.35
224.413	104.79
224.631	57.68
224.849	-5.8
225.067	86.36
225.285	-3.75
225.503	49.49
225.721	-38.57
225.939	133.46
226.157	2.39
226.375	55.64
226.592	6.49
226.81	-18.09
227.028	72.02
227.246	4.44
227.464	6.49
227.682	14.68
227.9	88.4
228.117	65.88
228.335	-32.43
228.553	59.73
228.771	108.88
228.989	96.6
229.206	16.73
229.424	2.39
229.642	-13.99
229.86	47.44
230.077	37.2
230.295	57.68
230.513	-67.24
230.731	35.16
230.948	6.49
231.166	-7.85
231.384	39.25
231.601	14.68
231.819	24.92
232.037	-13.99
232.254	-34.47
232.472	-16.04
232.689	-18.09
232.907	72.02
233.125	-16.04
233.342	55.64
233.56	47.44
233.777	24.92
233.995	-26.28
234.213	-11.95
234.43	6.49
234.648	59.73
234.865	-26.28
235.083	57.68
235.3	51.54
235.518	80.21
235.735	55.64
235.953	16.73
236.17	43.35
236.388	47.44
236.605	69.97
236.822	26.96
237.04	6.49
237.257	10.58
237.475	12.63
237.692	29.01
237.909	63.83
238.127	65.88
238.344	26.96
238.562	-1.71
238.779	-54.95
238.996	-48.81
239.214	-34.47
239.431	47.44
239.648	-54.95
239.865	80.21
240.083	-7.85
240.3	53.59
240.517	-1.71
240.735	22.87
240.952	-3.75
241.169	82.26
241.386	45.4
241.603	47.44
241.821	6.49
242.038	26.96
242.255	51.54
242.472	37.2
242.689	49.49
242.907	22.87
243.124	92.5
243.341	12.63
243.558	35.16
243.775	41.3
243.992	72.02
244.209	31.06
244.426	-1.71
244.643	-26.28
244.86	18.77
245.078	61.78
245.295	-57
245.512	55.64
245.729	31.06
245.946	-5.8
246.163	72.02
246.38	57.68
246.597	31.06
246.814	67.92
247.031	59.73
247.248	6.49
247.464	-28.33
247.681	22.87
247.898	-11.95
248.115	63.83
248.332	8.53
248.549	86.36
248.766	26.96
248.983	22.87
249.2	-7.85
249.417	-16.04
249.633	80.21
249.85	35.16
250.067	59.73
250.284	63.83
250.501	51.54
250.717	108.88
250.934	-30.38
251.151	6.49
251.368	31.06
251.585	10.58
251.801	10.58
252.018	78.16
252.235	35.16
252.451	-38.57
252.668	-20.14
252.885	67.92
253.102	45.4
253.318	-13.99
253.535	-3.75
253.752	-34.47
253.968	24.92
254.185	24.92
254.401	-11.95
254.618	16.73
254.835	-20.14
255.051	45.4
255.268	104.79
255.484	14.68
255.701	51.54
255.917	37.2
256.134	2.39
256.351	2.39
256.567	2.39
256.784	6.49
257	-40.62
257.217	59.73
257.433	10.58
257.65	10.58
257.866	74.07
258.082	14.68
258.299	-59.05
258.515	18.77
258.732	-28.33
258.948	33.11
259.165	65.88
259.381	-16.04
259.597	53.59
259.814	31.06
260.03	-9.9
260.246	-28.33
260.463	-26.28
260.679	57.68
260.895	-11.95
261.112	6.49
261.328	-24.23
261.544	53.59
261.761	74.07
261.977	112.98
262.193	-9.9
262.409	4.44
262.626	8.53
262.842	74.07
263.058	4.44
263.274	37.2
263.49	47.44
263.707	158.03
263.923	16.73
264.139	-1.71
264.355	55.64
264.571	24.92
264.787	67.92
265.004	102.74
265.22	-42.67
265.436	10.58
265.652	0.34
265.868	-24.23
266.084	4.44
266.3	57.68
266.516	67.92
266.732	88.4
266.948	-52.91
267.164	88.4
267.38	67.92
267.596	-34.47
267.812	-9.9
268.028	59.73
268.244	-44.71
268.46	-7.85
268.676	-46.76
268.892	78.16
269.108	49.49
269.324	-34.47
269.54	20.82
269.756	80.21
269.972	69.97
270.188	43.35
270.403	31.06
270.619	45.4
270.835	86.36
271.051	4.44
271.267	43.35
271.483	26.96
271.698	55.64
271.914	59.73
272.13	6.49
272.346	39.25
272.562	47.44
272.777	-9.9
272.993	74.07
273.209	20.82
273.425	37.2
273.64	24.92
273.856	55.64
274.072	-40.62
274.287	31.06
274.503	78.16
274.719	43.35
274.934	82.26
275.15	-18.09
275.366	24.92
275.581	63.83
275.797	22.87
276.012	35.16
276.228	2.39
276.444	26.96
276.659	0.34
276.875	49.49
277.09	8.53
277.306	22.87
277.521	82.26
277.737	-57
277.952	41.3
278.168	6.49
278.383	63.83
278.599	-1.71
278.814	-11.95
279.03	-73.39
279.245	65.88
279.461	22.87
279.676	80.21
279.892	24.92
280.107	-22.19
280.322	-34.47
280.538	49.49
280.753	39.25
280.969	45.4
281.184	-1.71
281.399	29.01
281.615	4.44
281.83	155.99
282.045	14.68
282.26	26.96
282.476	-34.47
282.691	55.64
282.906	51.54
283.122	14.68
283.337	-11.95
283.552	74.07
283.767	47.44
283.983	14.68
284.198	37.2
284.413	26.96
284.628	-1.71
284.843	-42.67
285.058	10.58
285.274	8.53
285.489	10.58
285.704	16.73
285.919	43.35
286.134	51.54
286.349	22.87
286.564	-7.85
286.779	20.82
286.995	67.92
287.21	-20.14
287.425	20.82
287.64	41.3
287.855	31.06
288.07	51.54
288.285	24.92
288.5	-3.75
288.715	4.44
288.93	26.96
289.145	51.54
289.36	55.64
289.575	65.88
289.79	14.68
290.004	39.25
290.219	-32.43
290.434	88.4
290.649	10.58
290.864	-9.9
291.079	78.16
291.294	0.34
291.509	14.68
291.724	67.92
291.938	6.49
292.153	72.02
292.368	43.35
292.583	6.49
292.798	67.92
293.012	39.25
293.227	24.92
293.442	43.35
293.657	-30.38
293.871	47.44
294.086	-34.47
294.301	41.3
294.516	39.25
294.73	74.07
294.945	-5.8
295.16	80.21
295.374	47.44
295.589	80.21
295.804	4.44
296.018	94.55
296.233	129.36
296.447	47.44
296.662	59.73
296.877	153.94
297.091	-13.99
297.306	22.87
297.52	65.88
297.735	69.97
297.949	63.83
298.164	57.68
298.378	43.35
298.593	63.83
298.807	67.92
299.022	20.82
299.236	31.06
299.451	55.64
299.665	53.59
299.88	33.11
300.094	106.84
300.309	-3.75
300.523	-9.9
300.737	72.02
300.952	24.92
301.166	-11.95
301.381	43.35
301.595	22.87
301.809	74.07
302.024	14.68
302.238	47.44
302.452	47.44
302.667	63.83
302.881	16.73
303.095	33.11
303.309	-1.71
303.524	-30.38
303.738	8.53
303.952	-32.43
304.166	22.87
304.381	-71.34
304.595	82.26
304.809	22.87
305.023	49.49
305.237	63.83
305.452	57.68
305.666	137.56
305.88	26.96
306.094	37.2
306.308	67.92
306.522	-24.23
306.736	2.39
306.95	65.88
307.164	86.36
307.379	14.68
307.593	35.16
307.807	-16.04
308.021	86.36
308.235	72.02
308.449	2.39
308.663	-3.75
308.877	20.82
309.091	37.2
309.305	47.44
309.519	-20.14
309.733	12.63
309.947	-9.9
310.161	57.68
310.374	12.63
310.588	67.92
310.802	43.35
311.016	2.39
311.23	-30.38
311.444	55.64
311.658	18.77
311.872	35.16
312.085	59.73
312.299	31.06
312.513	2.39
312.727	0.34
312.941	16.73
313.154	-13.99
313.368	49.49
313.582	72.02
313.796	12.63
314.009	63.83
314.223	35.16
314.437	39.25
314.651	55.64
314.864	26.96
315.078	16.73
315.292	47.44
315.505	2.39
315.719	63.83
315.933	14.68
316.146	96.6
316.36	39.25
316.573	121.17
316.787	12.63
317.001	22.87
317.214	2.39
317.428	20.82
317.641	10.58
317.855	49.49
318.068	14.68
318.282	20.82
318.495	4.44
318.709	35.16
318.922	86.36
319.136	96.6
319.349	94.55
319.563	26.96
319.776	61.78
319.99	6.49
320.203	33.11
320.417	-7.85
320.63	16.73
320.843	45.4
321.057	112.98
321.27	31.06
321.483	29.01
321.697	74.07
321.91	-13.99
322.124	10.58
322.337	-9.9
322.55	51.54
322.763	-32.43
322.977	55.64
323.19	2.39
323.403	82.26
323.617	45.4
323.83	115.03
324.043	22.87
324.256	26.96
324.469	2.39
324.683	121.17
324.896	43.35
325.109	90.45
325.322	4.44
325.535	-7.85
325.748	10.58
325.962	6.49
326.175	47.44
326.388	49.49
326.601	10.58
326.814	88.4
327.027	-46.76
327.24	29.01
327.453	-3.75
327.666	69.97
327.879	22.87
328.092	-36.52
328.305	78.16
328.518	39.25
328.731	92.5
328.944	55.64
329.157	119.12
329.37	-5.8
329.583	112.98
329.796	63.83
330.009	8.53
330.222	145.75
330.435	88.4
330.648	-11.95
330.861	20.82
331.073	-9.9
331.286	82.26
331.499	55.64
331.712	-13.99
331.925	69.97
332.138	22.87
332.35	16.73
332.563	57.68
332.776	90.45
332.989	88.4
333.202	67.92
333.414	43.35
333.627	129.36
333.84	39.25
334.053	41.3
334.265	14.68
334.478	31.06
334.691	33.11
334.903	80.21
335.116	47.44
335.329	18.77
335.541	115.03
335.754	80.21
335.966	-26.28
336.179	57.68
336.392	4.44
336.604	47.44
336.817	133.46
337.029	102.74
337.242	35.16
337.454	76.12
337.667	22.87
337.88	-20.14
338.092	24.92
338.305	41.3
338.517	-11.95
338.729	63.83
338.942	24.92
339.154	37.2
339.367	-32.43
339.579	53.59
339.792	45.4
340.004	-18.09
340.217	-13.99
340.429	33.11
340.641	2.39
340.854	-3.75
341.066	84.31
341.278	106.84
341.491	18.77
341.703	49.49
341.915	26.96
342.128	22.87
342.34	4.44
342.552	24.92
342.764	-9.9
342.977	31.06
343.189	37.2
343.401	82.26
343.613	10.58
343.826	100.69
344.038	-54.95
344.25	84.31
344.462	-24.23
344.674	94.55
344.886	39.25
345.099	16.73
345.311	57.68
345.523	31.06
345.735	-1.71
345.947	61.78
346.159	-24.23
346.371	-30.38
346.583	37.2
346.795	31.06
347.007	35.16
347.219	98.64
347.431	51.54
347.643	4.44
347.855	18.77
348.067	35.16
348.279	-13.99
348.491	65.88
348.703	41.3
348.915	20.82
349.127	35.16
349.339	117.08
349.551	18.77
349.763	98.64
349.975	-11.95
350.187	-1.71
350.399	31.06
350.61	67.92
350.822	-61.1
351.034	26.96
351.246	94.55
351.458	82.26
351.669	2.39
351.881	88.4
352.093	90.45
352.305	55.64
352.517	33.11
352.728	69.97
352.94	59.73
353.152	78.16
353.363	26.96
353.575	26.96
353.787	0.34
353.999	26.96
354.21	82.26
354.422	145.75
354.633	10.58
354.845	59.73
355.057	49.49
355.268	100.69
355.48	67.92
355.692	92.5
355.903	102.74
356.115	55.64
356.326	-9.9
356.538	57.68
356.749	90.45
356.961	35.16
357.172	20.82
357.384	119.12
357.595	33.11
357.807	-26.28
358.018	84.31
358.23	-5.8
358.441	12.63
358.653	18.77
358.864	63.83
359.075	24.92
359.287	72.02
359.498	10.58
359.709	57.68
359.921	90.45
360.132	67.92
360.344	55.64
360.555	2.39
360.766	98.64
360.977	72.02
361.189	43.35
361.4	51.54
361.611	24.92
361.823	94.55
362.034	37.2
362.245	-63.15
362.456	18.77
362.667	6.49
362.879	31.06
363.09	26.96
363.301	84.31
363.512	-28.33
363.723	53.59
363.935	31.06
364.146	24.92
364.357	6.49
364.568	39.25
364.779	18.77
364.99	88.4
365.201	2.39
365.412	80.21
365.623	0.34
365.834	47.44
366.045	26.96
366.256	22.87
366.467	16.73
366.678	63.83
366.889	0.34
367.1	49.49
367.311	29.01
367.522	51.54
367.733	37.2
367.944	76.12
368.155	31.06
368.366	63.83
368.577	108.88
368.788	61.78
368.999	35.16
369.209	67.92
369.42	51.54
369.631	57.68
369.842	45.4
370.053	-16.04
370.264	-52.91
370.474	-18.09
370.685	16.73
370.896	6.49
371.107	72.02
371.317	6.49
371.528	39.25
371.739	10.58
371.95	112.98
372.16	39.25
372.371	49.49
372.582	51.54
372.792	90.45
373.003	-26.28
373.214	6.49
373.424	63.83
373.635	59.73
373.846	51.54
374.056	-20.14
374.267	43.35
374.477	22.87
374.688	24.92
374.898	35.16
375.109	39.25
375.319	-50.86
375.53	-22.19
375.74	98.64
375.951	6.49
376.161	14.68
376.372	37.2
376.582	67.92
376.793	26.96
377.003	-63.15
377.214	22.87
377.424	22.87
377.635	69.97
377.845	82.26
378.055	125.27
378.266	-13.99
378.476	26.96
378.686	67.92
378.897	22.87
379.107	135.51
379.317	6.49
379.528	41.3
379.738	78.16
379.948	29.01
380.158	51.54
380.369	16.73
380.579	86.36
380.789	-13.99
380.999	47.44
381.21	100.69
381.42	-24.23
381.63	-50.86
381.84	51.54
382.05	63.83
382.261	39.25
382.471	55.64
382.681	-3.75
382.891	131.41
383.101	35.16
383.311	12.63
383.521	24.92
383.731	55.64
383.941	72.02
384.151	2.39
384.361	20.82
384.571	6.49
384.781	53.59
384.991	98.64
385.201	98.64
385.411	76.12
385.621	55.64
385.831	-9.9
386.041	117.08
386.251	82.26
386.461	53.59
386.671	88.4
386.881	24.92
387.091	55.64
387.301	65.88
387.511	33.11
387.72	119.12
387.93	31.06
388.14	-7.85
388.35	26.96
388.56	14.68
388.769	-22.19
388.979	39.25
389.189	51.54
389.399	63.83
389.609	39.25
389.818	-32.43
390.028	55.64
390.238	49.49
390.447	47.44
390.657	112.98
390.867	47.44
391.076	92.5
391.286	57.68
391.496	88.4
391.705	76.12
391.915	45.4
392.125	43.35
392.334	86.36
392.544	51.54
392.753	35.16
392.963	119.12
393.172	90.45
393.382	45.4
393.591	135.51
393.801	-9.9
394.01	106.84
394.22	78.16
394.429	69.97
394.639	86.36
394.848	24.92
395.058	29.01
395.267	65.88
395.477	53.59
395.686	88.4
395.895	24.92
396.105	110.93
396.314	145.75
396.524	55.64
396.733	96.6
396.942	137.56
397.152	22.87
397.361	112.98
397.57	10.58
397.78	47.44
397.989	121.17
398.198	102.74
398.407	22.87
398.617	88.4
398.826	100.69
399.035	84.31
399.244	92.5
399.453	110.93
399.663	35.16
399.872	82.26
400.081	63.83
400.29	90.45
400.499	84.31
400.708	121.17
400.917	35.16
401.127	86.36
401.336	127.32
401.545	86.36
401.754	135.51
401.963	72.02
402.172	84.31
402.381	59.73
402.59	2.39
402.799	98.64
403.008	151.89
403.217	112.98
403.426	145.75
403.635	88.4
403.844	92.5
404.053	59.73
404.262	158.03
404.471	49.49
404.68	78.16
404.888	129.36
405.097	51.54
405.306	139.6
405.515	78.16
405.724	129.36
405.933	155.99
406.142	94.55
406.35	164.18
406.559	145.75
406.768	151.89
406.977	219.47
407.185	125.27
407.394	162.13
407.603	168.27
407.812	153.94
408.02	176.47
408.229	145.75
408.438	166.23
408.646	155.99
408.855	180.56
409.064	211.28
409.272	151.89
409.481	145.75
409.69	170.32
409.898	260.43
410.107	227.67
410.315	190.8
410.524	213.33
410.733	237.91
410.941	196.95
411.15	287.06
411.358	307.54
411.567	235.86
411.775	272.72
411.984	352.59
412.192	246.1
412.401	321.87
412.609	317.78
412.818	358.74
413.026	325.97
413.234	285.01
413.443	332.11
413.651	371.02
413.86	368.98
414.068	362.83
414.276	418.13
414.485	440.65
414.693	446.8
414.901	500.05
415.11	506.19
415.318	438.61
415.526	506.19
415.734	498
415.943	491.85
416.151	538.96
416.359	543.05
416.567	653.64
416.776	665.93
416.984	672.08
417.192	649.55
417.4	604.49
417.608	670.03
417.817	655.69
418.025	786.76
418.233	813.38
418.441	692.55
418.649	856.39
418.857	885.06
419.065	854.34
419.273	831.82
419.481	895.3
419.689	997.7
419.897	1059.14
420.105	987.46
420.313	893.26
420.521	1096
420.729	1171.78
420.937	1153.35
421.145	1229.12
421.353	1120.58
421.561	1329.47
421.769	1331.52
421.977	1431.87
422.185	1304.9
422.393	1448.26
422.601	1569.09
422.809	1519.93
423.017	1554.75
423.224	1562.94
423.432	1689.92
423.64	1724.73
423.848	1741.11
424.056	1710.4
424.263	1810.75
424.471	1915.19
424.679	1790.27
424.887	1931.58
425.094	1980.73
425.302	1909.05
425.51	2169.14
425.718	2218.29
425.925	2212.15
426.133	2402.61
426.341	2550.06
426.548	2660.65
426.756	2568.49
426.964	2595.12
427.171	2625.84
427.379	2797.87
427.586	2906.41
427.794	3053.86
428.001	3060.01
428.209	3178.79
428.417	3055.91
428.624	3442.98
428.832	3359.01
429.039	3340.58
429.247	3430.69
429.454	3649.82
429.662	3842.33
429.869	3713.31
430.076	3975.45
430.284	3840.28
430.491	3954.97
430.699	4309.27
430.906	4104.47
431.114	4094.23
431.321	4489.49
431.528	4475.15
431.736	4692.24
431.943	5005.58
432.15	4806.92
432.358	4907.27
432.565	5212.42
432.772	5054.73
432.979	5417.22
433.187	5591.3
433.394	5478.66
433.601	5964.03
433.808	5859.58
434.016	5835
434.223	6093.05
434.43	6439.16
434.637	6453.49
434.844	6664.43
435.052	6873.32
435.259	6815.98
435.466	6840.56
435.673	6830.32
435.88	7358.69
436.087	7577.83
436.294	7622.88
436.501	7403.75
436.708	7561.44
436.915	7923.93
437.122	8384.73
437.329	8243.42
437.537	8900.81
437.743	8827.09
437.95	8442.07
438.157	9111.75
438.364	9357.51
438.571	9115.85
438.778	9312.46
438.985	10166.46
439.192	9885.89
439.399	10041.53
439.606	9820.35
439.813	10567.86
440.02	11188.39
440.227	10819.76
440.433	10844.34
440.64	11223.21
440.847	11036.84
441.054	11278.51
441.261	12081.31
441.467	12044.45
441.674	12384.41
441.881	12570.77
442.088	12808.34
442.294	12384.41
442.501	12679.32
442.708	13082.77
442.914	13336.71
443.121	14084.22
443.328	13502.6
443.534	14682.23
443.741	14309.5
443.948	14033.02
444.154	14934.13
444.361	15110.25
444.568	15128.69
444.774	15061.1
444.981	15210.61
445.187	15489.13
445.394	16408.67
445.6	16248.93
445.807	17832.01
446.013	17035.35
446.22	17277.01
446.426	17965.12
446.633	17774.66
446.839	18722.87
447.046	17735.75
447.252	18833.46
447.459	18726.97
447.665	18585.66
447.871	19832.87
448.078	20770.84
448.284	19406.89
448.491	20201.51
448.697	20604.95
448.903	21196.82
449.11	21235.73
449.316	20875.29
449.522	21495.82
449.728	21633.04
449.935	21694.47
450.141	21915.65
450.347	22284.29
450.553	22085.64
450.76	22097.92
450.966	22798.33
451.172	22482.94
451.378	23156.72
451.584	22761.47
451.791	23267.31
451.997	23183.35
452.203	23519.21
452.409	23562.22
452.615	23308.27
452.821	22333.44
453.027	22063.11
453.233	23365.62
453.44	22525.95
453.646	22853.62
453.852	22611.96
454.058	23214.07
454.264	22421.5
454.47	22921.21
454.676	22167.56
454.882	23261.17
455.088	21243.92
455.294	21403.66
455.5	21665.8
455.705	21827.59
455.911	20721.69
456.117	20846.62
456.323	20455.45
456.529	19220.53
456.735	19843.11
456.941	19535.92
457.147	19118.13
457.352	18735.16
457.558	18466.88
457.764	18462.78
457.97	17983.55
458.176	17856.58
458.381	17776.71
458.587	16820.31
458.793	16838.74
458.999	16158.81
459.204	17152.08
459.41	16744.53
459.616	15689.83
459.821	15683.69
460.027	15714.41
460.233	15079.54
460.438	14540.92
460.644	14706.8
460.85	13844.61
461.055	13813.89
461.261	13904
461.466	12722.32
461.672	12533.91
461.878	13283.47
462.083	12226.71
462.289	12200.09
462.494	12089.5
462.7	11176.11
462.905	11110.57
463.111	11554.98
463.316	11618.47
463.522	11423.91
463.727	11608.23
463.932	11497.64
464.138	11063.47
464.343	11276.46
464.549	11223.21
464.754	11327.66
464.959	11133.1
465.165	11049.13
465.37	10670.26
465.575	10449.08
465.781	10887.34
465.986	11024.56
466.191	10684.59
466.397	10469.56
466.602	9828.54
466.807	10281.14
467.012	10246.33
467.218	10023.1
467.423	10143.93
467.628	10234.04
467.833	10541.24
468.038	9922.75
468.244	9867.45
468.449	10145.98
468.654	9894.08
468.859	9939.13
469.064	9879.74
469.269	9349.32
469.474	9599.17
469.679	9763.01
469.885	9230.54
470.09	9582.79
470.295	9550.02
470.5	9167.05
470.705	9394.37
470.91	9027.79
471.115	8970.44
471.32	9033.93
471.525	9060.56
471.73	8933.58
471.935	8755.41
472.139	8505.56
472.344	8575.19
472.549	8530.13
472.754	8540.37
472.959	8390.87
473.164	8020.19
473.369	7907.55
473.574	8343.77
473.778	8151.26
473.983	8022.23
474.188	8003.8
474.393	7704.8
474.598	7829.73
474.802	7600.35
475.007	7624.93
475.212	7561.44
475.417	7377.12
475.621	7366.88
475.826	7317.73
476.031	7262.44
476.235	7053.55
476.44	7342.31
476.645	7119.08
476.849	7147.75
477.054	6936.81
477.259	6918.38
477.463	6781.17
477.668	6695.15
477.872	6865.13
478.077	6772.97
478.282	6496.5
478.486	6482.16
478.691	6549.75
478.895	6476.02
479.1	6498.55
479.304	6371.57
479.509	6232.31
479.713	6357.24
479.918	6269.17
480.122	6240.5
480.326	6109.43
480.531	6369.52
480.735	6078.71
480.94	6080.76
481.144	6172.92
481.348	5953.79
481.553	6088.95
481.757	5923.07
481.961	5843.2
482.166	6052.09
482.37	5994.75
482.574	5957.88
482.778	6068.47
482.983	6125.82
483.187	5900.54
483.391	5974.27
483.595	5855.48
483.8	5904.64
484.004	6056.18
484.208	6035.71
484.412	5912.83
484.616	6086.9
484.821	6181.11
485.025	5847.29
485.229	5945.59
485.433	5966.07
485.637	5918.97
485.841	6023.42
486.045	5990.65
486.249	5996.79
486.453	5949.69
486.657	6002.94
486.861	5947.64
487.065	5878.01
487.269	6088.95
487.473	5814.52
487.677	6162.68
487.881	5982.46
488.085	5853.44
488.289	6174.97
488.493	5939.45
488.697	5974.27
488.901	5939.45
489.105	5996.79
489.309	5875.96
489.512	6043.9
489.716	6078.71
489.92	5996.79
490.124	6168.82
490.328	6183.16
490.531	6177.02
490.735	6201.59
490.939	6162.68
491.143	6129.91
491.346	6209.78
491.55	6430.96
491.754	6316.28
491.958	6293.75
492.161	6418.68
492.365	6349.04
492.569	6387.96
492.772	6332.66
492.976	6361.33
493.18	6461.68
493.383	6529.27
493.587	6574.32
493.79	6498.55
493.994	6576.37
494.197	6521.07
494.401	6514.93
494.605	6674.67
494.808	6729.97
495.012	6836.46
495.215	6959.34
495.419	6994.15
495.622	6752.49
495.825	7162.09
496.029	6799.6
496.232	7233.77
496.436	7166.18
496.639	7168.23
496.843	7358.69
497.046	7405.8
497.249	7373.03
497.453	7457
497.656	7629.02
497.859	7753.95
498.063	7796.96
498.266	7903.45
498.469	7784.67
498.673	7942.36
498.876	8143.07
499.079	8171.74
499.282	8026.33
499.485	8442.07
499.689	8392.92
499.892	8480.98
500.095	8730.83
500.298	8667.35
500.501	8558.8
500.705	8945.87
500.908	8968.4
501.111	9173.19
501.314	9373.89
501.517	9377.99
501.72	9384.13
501.923	9429.19
502.126	9642.18
502.329	9705.67
502.532	10010.81
502.735	9967.81
502.938	10262.71
503.141	10221.75
503.344	10289.34
503.547	10420.41
503.75	10578.1
503.953	10774.7
504.156	10877.1
504.359	10918.06
504.562	11102.38
504.765	11172.01
504.968	11397.29
505.17	11800.74
505.373	11485.35
505.576	11888.8
505.779	11700.39
505.982	12138.65
506.185	12447.9
506.387	12392.6
506.59	12449.94
506.793	12689.56
506.996	12689.56
507.198	13109.39
507.401	13006.99
507.604	13150.35
507.807	13633.67
508.009	13273.23
508.212	13549.7
508.415	13785.22
508.617	13957.25
508.82	14164.09
509.022	13977.73
509.225	14377.08
509.428	14819.44
509.63	14852.21
509.833	14901.36
510.035	15327.34
510.238	15134.83
510.44	15593.58
510.643	15700.07
510.845	15896.67
511.048	15984.74
511.25	16048.22
511.453	16277.6
511.655	16912.47
511.858	16916.56
512.06	17045.59
512.262	16859.22
512.465	17018.96
512.667	17592.39
512.87	17782.85
513.072	17672.26
513.274	18036.8
513.477	18106.43
513.679	18520.12
513.881	18569.27
514.084	18753.59
514.286	19073.07
514.488	19083.31
514.69	19742.76
514.893	19685.42
515.095	19888.17
515.297	20197.41
515.499	20092.96
515.701	20494.36
515.904	20842.52
516.106	21086.23
516.308	21075.99
516.51	21524.49
516.712	21454.86
516.914	21780.49
517.116	22183.94
517.318	22358.02
517.52	22462.46
517.722	22710.27
517.925	22964.21
518.127	23191.54
518.329	23386.1
518.531	23234.55
518.733	24023.01
518.935	24063.97
519.136	23934.95
519.338	24635.36
519.54	24823.77
519.742	24696.8
519.944	25212.88
520.146	25552.85
520.348	25589.71
520.55	25653.2
520.752	25745.36
520.954	26226.63
521.155	26257.35
521.357	26742.72
521.559	27129.78
521.761	27228.09
521.963	27365.3
522.164	27680.69
522.366	27842.48
522.568	27985.83
522.77	27781.04
522.971	28637.09
523.173	28551.07
523.375	28690.34
523.576	28551.07
523.778	29280.15
523.98	29538.19
524.181	29501.33
524.383	29532.05
524.584	30037.9
524.786	30056.33
524.988	29962.12
525.189	30267.27
525.391	30416.77
525.592	31125.37
525.794	30930.81
525.995	31035.26
526.197	31059.84
526.398	31041.4
526.6	31385.46
526.801	31512.44
527.003	31790.96
527.204	31569.78
527.406	32249.71
527.607	32331.62
527.808	32116.59
528.01	32079.72
528.211	32012.14
528.412	32753.51
528.614	32780.13
528.815	32544.61
529.016	33214.3
529.218	32728.93
529.419	32909.15
529.62	33197.91
529.822	32894.82
530.023	33193.82
530.224	33486.68
530.425	33267.55
530.626	33101.66
530.828	33437.53
531.029	33695.57
531.23	33529.69
531.431	33412.95
531.632	33615.7
531.833	34031.44
532.035	33943.38
532.236	33709.91
532.437	34031.44
532.638	33519.45
532.839	33939.28
533.04	34367.3
533.241	33906.51
533.442	34072.4
533.643	34193.23
533.844	34056.01
534.045	33994.57
534.246	33630.04
534.447	34561.86
534.648	34142.03
534.849	34219.85
535.05	33943.38
535.251	34082.64
535.451	34223.95
535.652	34066.25
535.853	34316.11
536.054	34352.97
536.255	34408.26
536.456	34338.63
536.657	34891.58
536.857	34228.04
537.058	33933.14
537.259	34664.26
537.46	34369.35
537.66	34275.15
537.861	34287.43
538.062	34455.37
538.263	34588.49
538.463	34455.37
538.664	34510.66
538.865	34301.77
539.065	34619.21
539.266	34303.82
539.466	34549.57
539.667	34363.21
539.868	34887.49
540.068	34414.41
540.269	34551.62
540.469	34932.54
540.67	34096.97
540.87	34334.54
541.071	34201.42
541.271	34451.27
541.472	34314.06
541.672	34006.86
541.873	34232.14
542.073	33994.57
542.274	34387.78
542.474	34328.39
542.675	34158.41
542.875	34387.78
543.075	34090.83
543.276	33722.19
543.476	34443.08
543.676	34135.88
543.877	34387.78
544.077	34301.77
544.277	34221.9
544.478	34600.77
544.678	34307.91
544.878	34443.08
545.078	34875.2
545.279	34342.73
545.479	34105.16
545.679	34365.26
545.879	34535.24
546.079	34021.2
546.28	34445.13
546.48	33992.53
546.68	34328.39
546.88	34221.9
547.08	34187.08
547.28	34201.42
547.48	34058.06
547.68	34301.77
547.88	34244.43
548.081	34672.45
548.281	34303.82
548.481	34246.47
548.681	34678.6
548.881	34428.74
549.081	34412.36
549.28	34137.93
549.48	34426.7
549.68	34320.2
549.88	34596.68
550.08	34006.86
550.28	34400.07
550.48	33963.86
550.68	34400.07
550.88	34006.86
551.08	34039.63
551.279	34049.87
551.479	33607.51
551.679	34166.6
551.879	33904.46
552.079	34359.11
552.278	34074.45
552.478	33818.45
552.678	33881.94
552.878	34234.19
553.077	34094.93
553.277	33707.86
553.477	34389.83
553.676	33740.63
553.876	33978.19
554.076	34242.38
554.275	34021.2
554.475	33234.78
554.674	34334.54
554.874	33814.35
555.074	33619.8
555.273	34015.05
555.473	33668.95
555.672	33685.33
555.872	33582.93
556.071	33558.36
556.271	33941.33
556.47	33556.31
556.67	33671
556.869	33650.52
557.068	33933.14
557.268	33185.63
557.467	33492.82
557.667	33210.2
557.866	33185.63
558.065	33515.35
558.265	32851.81
558.464	33087.32
558.663	33423.19
558.863	32759.65
559.062	33212.25
559.261	32792.42
559.461	33310.55
559.66	32929.63
559.859	33005.41
560.058	32716.64
560.258	33077.08
560.457	32466.79
560.656	33052.51
560.855	32315.24
561.054	32823.14
561.253	32569.19
561.453	32542.56
561.652	32618.34
561.851	32567.14
562.05	32311.14
562.249	32339.82
562.448	32479.08
562.647	32294.76
562.846	32087.92
563.045	32464.74
563.244	31598.45
563.443	32268.14
563.642	31770.48
563.841	31811.44
564.04	31897.45
564.239	32218.99
564.438	31833.97
564.637	31879.02
564.836	31993.71
565.035	31319.93
565.234	31545.2
565.432	31543.16
565.631	31405.94
565.83	31813.49
566.029	31188.86
566.228	30975.87
566.427	31051.64
566.625	30947.2
566.824	30599.04
567.023	30994.3
567.222	30564.23
567.42	31328.12
567.619	30580.61
567.818	30498.69
568.016	30670.72
568.215	30689.15
568.414	30218.12
568.612	30787.46
568.811	30439.3
569.01	30582.66
569.208	30261.13
569.407	30515.08
569.605	30062.47
569.804	30459.78
570.002	29626.26
570.201	30447.49
570.4	29702.03
570.598	29517.71
570.797	29634.45
570.995	29454.23
571.193	29171.61
571.392	29466.52
571.59	29128.6
571.789	29335.45
571.987	29161.37
572.186	29075.35
572.384	28692.38
572.582	29274.01
572.781	29052.83
572.979	28467.11
573.177	28725.15
573.376	28864.41
573.574	28637.09
573.772	28399.52
573.971	28319.65
574.169	28254.12
574.367	28116.9
574.565	28139.43
574.763	28084.14
574.962	28098.47
575.16	27584.43
575.358	28073.9
575.556	27451.31
575.754	28004.27
575.952	27295.67
576.151	27477.94
576.349	27406.26
576.547	27117.5
576.745	27115.45
576.943	27070.39
577.141	26900.41
577.339	27058.1
577.537	26890.17
577.735	26967.99
577.933	26877.88
578.131	26861.5
578.329	26712
578.527	26300.36
578.725	26308.55
578.923	26804.16
579.121	26384.32
579.319	26259.4
579.516	26513.34
579.714	26003.4
579.912	26220.49
580.11	25733.07
580.308	25872.33
580.506	25989.06
580.704	25692.11
580.901	25610.19
581.099	25870.28
581.297	25696.21
581.495	25612.24
581.692	25235.41
581.89	25370.58
582.088	25368.53
582.285	25069.53
582.483	25270.23
582.681	25108.44
582.878	25114.58
583.076	24475.62
583.274	24991.7
583.471	24360.93
583.669	24674.27
583.866	24496.1
584.064	24643.55
584.262	24352.74
584.459	24549.34
584.657	24227.81
584.854	24815.58
585.052	24250.34
585.249	24006.63
585.447	24068.07
585.644	23893.99
585.841	23658.48
586.039	24027.11
586.236	23885.8
586.434	23420.91
586.631	23590.89
586.828	23574.51
587.026	23846.89
587.223	23521.26
587.42	23445.49
587.618	23785.45
587.815	23314.42
588.012	22890.49
588.21	23087.09
588.407	23406.58
588.604	22734.84
588.801	23017.46
588.999	22861.82
589.196	22822.91
589.393	22759.42
589.59	22788.09
589.787	22734.84
589.984	22378.5
590.182	22202.37
590.379	22460.41
590.576	22353.92
590.773	22274.05
590.97	22247.43
591.167	22079.49
591.364	21768.2
591.561	22167.56
591.758	21688.33
591.955	21782.54
592.152	21721.1
592.349	21461.01
592.546	21620.75
592.743	21659.66
592.94	21456.91
593.137	21544.97
593.334	21669.9
593.531	21073.94
593.727	21342.22
593.924	21192.72
594.121	20965.4
594.318	21256.21
594.515	20680.73
594.712	21164.05
594.908	20953.11
595.105	20969.49
595.302	20539.42
595.499	20934.68
595.696	20410.4
595.892	20678.68
596.089	20738.07
596.286	20817.94
596.482	20662.3
596.679	20287.52
596.876	20418.59
597.072	20314.14
597.269	20293.66
597.466	20209.7
597.662	20224.03
597.859	19879.97
598.055	20002.85
598.252	19996.71
598.448	20013.09
598.645	19755.05
598.841	19859.49
599.038	19550.25
599.234	19623.98
599.431	19593.26
599.627	19505.2
599.824	19693.61
600.02	19300.4
600.217	19472.43
600.413	19370.03
600.609	19241.01
600.806	19152.95
601.002	19232.82
601.198	18743.35
601.395	18847.8
601.591	18851.89
601.787	18657.34
601.984	18780.21
602.18	18657.34
602.376	18694.2
602.572	18769.97
602.769	18430.01
602.965	18468.92
603.161	18765.88
603.357	18116.67
603.553	18309.18
603.75	18411.58
603.946	18239.55
604.142	18163.78
604.338	17946.69
604.534	18188.35
604.73	17823.81
604.926	17713.22
605.122	17971.27
605.318	17561.67
605.514	17557.58
605.71	17651.78
605.906	17408.08
606.102	17455.18
606.298	17473.61
606.494	17399.88
606.69	17371.21
606.886	17207.37
607.082	17000.53
607.278	17291.34
607.474	16955.47
607.67	17154.13
607.866	16941.14
608.062	17289.29
608.257	17049.68
608.453	16912.47
608.649	16978
608.845	16607.32
609.041	16912.47
609.236	16881.75
609.432	16519.26
609.628	16736.34
609.824	16689.24
610.019	16447.58
610.215	16463.96
610.411	16349.28
610.606	16466.01
610.802	16150.62
610.998	16416.86
611.193	16316.51
611.389	16119.9
611.584	16119.9
611.78	15976.55
611.976	16101.47
612.171	16046.18
612.367	15974.5
612.562	15906.91
612.758	15816.8
612.953	15802.47
613.149	15970.4
613.344	15433.83
613.539	16134.24
613.735	16017.5
613.93	15847.52
614.126	15767.65
614.321	15499.37
614.517	15685.73
614.712	15683.69
614.907	15315.05
615.103	15620.2
615.298	15270
615.493	15376.49
615.688	15407.21
615.884	15523.94
616.079	15224.94
616.274	15325.29
616.47	15011.95
616.665	15380.59
616.86	15040.62
617.055	15112.3
617.25	15063.15
617.445	15149.17
617.641	14815.35
617.836	14993.52
618.031	14682.23
618.226	14876.79
618.421	14647.41
618.616	14893.17
618.811	14471.29
619.006	14784.63
619.201	14229.63
619.396	14588.02
619.591	14536.82
619.786	14203
619.981	14329.98
620.176	14200.96
620.371	14223.48
620.566	14033.02
620.761	14022.78
620.956	14080.13
621.151	13842.56
621.346	13744.26
621.541	13631.62
621.735	13744.26
621.93	13678.72
622.125	13785.22
622.32	13449.35
622.515	13668.48
622.709	13299.85
622.904	13408.39
623.099	13209.74
623.294	13312.14
623.488	12984.46
623.683	12953.74
623.878	12734.61
624.072	12978.32
624.267	12630.16
624.462	12705.94
624.656	12527.77
624.851	12695.7
625.046	12675.22
625.24	12490.9
625.435	12357.78
625.629	12312.73
625.824	12239
626.018	12187.8
626.213	11845.79
626.407	12189.85
626.602	11817.12
626.796	11962.53
626.991	11868.32
627.185	11944.1
627.38	11819.17
627.574	11534.5
627.768	11552.93
627.963	11614.37
628.157	11589.8
628.352	11587.75
628.546	11419.82
628.74	11339.94
628.935	11126.96
629.129	11292.84
629.323	10965.17
629.517	10860.72
629.712	10909.87
629.906	11100.33
630.1	11012.27
630.294	10846.38
630.489	10862.77
630.683	10700.98
630.877	10723.51
631.071	10639.54
631.265	10670.26
631.459	10418.36
631.653	10258.62
631.848	10184.89
632.042	10457.27
632.236	10414.26
632.43	10154.17
632.624	10377.4
632.818	10162.36
633.012	10191.03
633.206	9951.42
633.4	10195.13
633.594	9953.47
633.788	9914.56
633.982	9705.67
634.176	9779.39
634.369	9715.91
634.563	9789.63
634.757	9648.32
634.951	9697.47
635.145	9590.98
635.339	9595.07
635.533	9306.31
635.726	9478.34
635.92	9439.43
636.114	9128.14
636.308	9165
636.501	9439.43
636.695	9175.24
636.889	9136.33
637.083	8952.01
637.276	8870.09
637.47	9005.26
637.664	8808.65
637.857	8868.05
638.051	8866
638.244	8763.6
638.438	8777.94
638.632	8751.31
638.825	8566.99
639.019	8509.65
639.212	8487.12
639.406	8343.77
639.599	8397.01
639.793	8276.18
639.986	8186.07
640.18	8302.81
640.373	8413.4
640.567	8120.54
640.76	8247.51
640.954	8034.52
641.147	8067.29
641.34	8061.15
641.534	7977.18
641.727	7825.63
641.92	7780.57
642.114	7807.2
642.307	7794.91
642.5	7659.74
642.694	7727.33
642.887	7682.27
643.08	7753.95
643.273	7422.18
643.467	7485.67
643.66	7385.32
643.853	7330.02
644.046	7379.17
644.239	7364.84
644.432	7276.77
644.626	7188.71
644.819	7127.27
645.012	7145.7
645.205	7297.25
645.398	7053.55
645.591	7002.35
645.784	7051.5
645.977	6813.93
646.17	6813.93
646.363	6938.86
646.556	6779.12
646.749	6770.93
646.942	6834.41
647.135	6846.7
647.328	6674.67
647.521	6584.56
647.714	6510.83
647.907	6703.34
648.099	6412.53
648.292	6594.8
648.485	6396.15
648.678	6457.59
648.871	6179.06
649.064	6334.71
649.256	6435.06
649.449	6183.16
649.642	6269.17
649.835	6240.5
650.027	6215.93
650.22	6009.08
650.413	6060.28
650.605	5961.98
650.798	5984.51
650.991	6074.62
651.183	5835
651.376	5751.04
651.568	5841.15
651.761	5685.5
651.954	5714.17
652.146	5783.81
652.339	5587.2
652.531	5869.82
652.724	5572.86
652.916	5609.73
653.109	5695.74
653.301	5452.03
653.494	5441.79
653.686	5404.93
653.879	5472.51
654.071	5378.31
654.263	5353.73
654.456	5310.72
654.648	5357.83
654.84	5200.13
655.033	5304.58
655.225	5284.1
655.417	5159.17
655.61	5087.5
655.802	5241.09
655.994	5013.77
656.186	5099.78
656.379	5011.72
656.571	5030.15
656.763	4995.34
656.955	4913.42
657.148	5103.88
657.34	4866.32
657.532	4954.38
657.724	4800.78
657.916	4749.58
658.108	4839.69
658.3	4768.01
658.492	4702.48
658.684	4620.56
658.876	4774.16
659.068	4616.46
659.26	4544.78
659.452	4677.9
659.644	4526.35
659.836	4389.14
660.028	4493.58
660.22	4454.67
660.412	4442.39
660.604	4374.8
660.796	4399.38
660.988	4401.43
661.18	4274.45
661.372	4299.03
661.563	4241.68
661.755	4239.64
661.947	4159.77
662.139	4178.2
662.331	4235.54
662.522	4200.73
662.714	4006.17
662.906	3975.45
663.097	4129.05
663.289	4065.56
663.481	4045.08
663.673	3907.87
663.864	3997.98
664.056	4018.46
664.247	3881.24
664.439	3746.08
664.631	3930.39
664.822	3803.42
665.014	3741.98
665.205	3885.34
665.397	3825.95
665.588	3840.28
665.78	3758.36
665.971	4034.84
666.163	3631.39
666.354	3592.48
666.546	3651.87
666.737	3633.44
666.929	3621.15
667.12	3729.69
667.311	3615.01
667.503	3539.23
667.694	3434.78
667.885	3559.71
668.077	3488.03
668.268	3457.31
668.459	3574.05
668.651	3496.22
668.842	3383.59
669.033	3422.5
669.224	3533.09
669.416	3451.17
669.607	3395.87
669.798	3287.33
669.989	3373.35
670.18	3316
670.371	3242.28
670.563	3332.39
670.754	3301.67
670.945	3197.22
671.136	3258.66
671.327	3227.94
671.518	3178.79
671.709	3406.11
671.9	3252.52
672.091	3184.93
672.282	3139.88
672.473	3139.88
672.664	3291.43
672.855	3174.69
673.046	3012.9
673.237	3264.8
673.428	3135.78
673.619	3021.1
673.809	3121.45
674	3064.1
674.191	3055.91
674.382	3021.1
674.573	2976.04
674.764	2996.52
674.954	3014.95
675.145	2869.55
675.336	2988.33
675.527	2951.46
675.717	3047.72
675.908	2851.11
676.099	2930.98
676.289	2928.94
676.48	2996.52
676.671	2933.03
676.861	2980.14
677.052	2761
677.243	2894.12
677.433	2849.07
677.624	2914.6
677.814	2890.03
678.005	2808.11
678.195	2810.15
678.386	2881.83
678.576	2777.39
678.767	2801.96
678.957	2771.24
679.148	2865.45
679.338	2873.64
679.529	2720.04
679.719	2769.2
679.909	2816.3
680.1	2662.7
680.29	2836.78
680.481	2777.39
680.671	2734.38
680.861	2730.28
681.052	2588.97
681.242	2654.51
681.432	2722.09
681.622	2691.37
681.813	2615.6
682.003	2674.99
682.193	2634.03
682.383	2699.56
682.573	2631.98
682.764	2599.21
682.954	2601.26
683.144	2679.08
683.334	2531.63
683.524	2529.58
683.714	2701.61
683.904	2656.56
684.094	2640.17
684.284	2486.58
684.474	2588.97
684.664	2474.29
684.854	2580.78
685.044	2554.16
685.234	2464.05
685.424	2595.12
685.614	2586.93
685.804	2586.93
685.994	2521.39
686.184	2603.31
686.374	2443.57
686.564	2578.73
686.753	2519.34
686.943	2478.38
687.133	2533.68
687.323	2500.91
687.513	2433.33
687.702	2554.16
687.892	2574.64
688.082	2550.06
688.272	2507.06
688.461	2492.72
688.651	2490.67
688.841	2519.34
689.03	2451.76
689.22	2414.9
689.41	2484.53
689.599	2431.28
689.789	2505.01
689.979	2431.28
690.168	2468.14
690.358	2439.47
690.547	2369.84
690.737	2400.56
690.926	2578.73
691.116	2353.46
691.305	2496.82
691.495	2416.94
691.684	2421.04
691.874	2388.27
692.063	2439.47
692.252	2537.77
692.442	2408.75
692.631	2324.79
692.82	2326.83
693.01	2373.94
693.199	2388.27
693.388	2453.81
693.578	2406.7
693.767	2335.03
693.956	2375.99
694.146	2332.98
694.335	2253.11
694.524	2472.24
694.713	2392.37
694.902	2416.94
695.092	2402.61
695.281	2441.52
695.47	2361.65
695.659	2324.79
695.848	2277.68
696.037	2455.86
696.226	2408.75
696.415	2294.07
696.604	2472.24
696.793	2480.43
696.982	2449.71
697.171	2312.5
697.36	2378.03
697.549	2349.36
697.738	2316.59
697.927	2320.69
698.116	2470.19
698.305	2386.22
698.494	2345.27
698.683	2443.57
698.872	2394.42
699.061	2418.99
699.25	2410.8
699.438	2318.64
699.627	2441.52
699.816	2316.59
700.005	2253.11
700.193	2408.75
700.382	2349.36
700.571	2398.51
700.76	2275.63
700.948	2273.59
701.137	2326.83
701.326	2285.87
701.514	2195.76
701.703	2357.55
701.892	2324.79
702.08	2326.83
702.269	2414.9
702.457	2349.36
702.646	2234.68
702.834	2226.48
703.023	2335.03
703.212	2337.07
703.4	2353.46
703.589	2255.15
703.777	2339.12
703.965	2238.77
704.154	2193.72
704.342	2353.46
704.531	2267.44
704.719	2201.91
704.907	2249.01
705.096	2230.58
705.284	2201.91
705.472	2238.77
705.661	2128.18
705.849	2203.96
706.037	2238.77
706.226	2224.44
706.414	2203.96
706.602	2251.06
706.79	2222.39
706.979	2119.99
707.167	2154.8
707.355	2062.65
707.543	2232.63
707.731	2167.09
707.919	2255.15
708.107	2189.62
708.296	2052.41
708.484	2048.31
708.672	2017.59
708.86	2128.18
709.048	2001.21
709.236	1974.58
709.424	2134.32
709.612	2085.17
709.8	2083.13
709.988	2095.41
710.176	2017.59
710.364	2142.52
710.551	1986.87
710.739	2038.07
710.927	2054.45
711.115	1956.15
711.303	1939.77
711.491	1929.53
711.679	2048.31
711.866	1909.05
712.054	2083.13
712.242	2046.26
712.43	1980.73
712.617	1863.99
712.805	2056.5
712.993	1964.34
713.181	2040.12
713.368	1823.03
713.556	2019.64
713.744	1853.75
713.931	1995.06
714.119	1976.63
714.306	1900.86
714.494	1915.19
714.682	1894.71
714.869	1825.08
715.057	1945.91
715.244	1870.14
715.432	1792.31
715.619	1823.03
715.807	1792.31
715.994	1810.75
716.182	1751.35
716.369	1913.14
716.556	1892.66
716.744	1694.01
716.931	1780.03
717.119	1851.71
717.306	1782.07
717.493	1679.68
717.681	1704.25
717.868	1767.74
718.055	1788.22
718.242	1685.82
718.43	1630.52
718.617	1841.47
718.804	1638.72
718.991	1702.2
719.179	1710.4
719.366	1739.07
719.553	1775.93
719.74	1669.44
719.927	1777.98
720.114	1589.57
720.301	1644.86
720.488	1622.33
720.676	1700.16
720.863	1642.81
721.05	1696.06
721.237	1653.05
721.424	1628.48
721.611	1534.27
721.798	1612.09
721.985	1595.71
722.172	1612.09
722.358	1556.8
722.545	1513.79
722.732	1579.33
722.919	1691.96
723.106	1558.85
723.293	1538.37
723.48	1554.75
723.667	1575.23
723.853	1587.52
724.04	1618.24
724.227	1562.94
724.414	1513.79
724.6	1618.24
724.787	1517.89
724.974	1605.95
725.161	1493.31
725.347	1513.79
725.534	1530.17
725.72	1321.28
725.907	1569.09
726.094	1423.68
726.28	1485.12
726.467	1450.3
726.653	1491.26
726.84	1460.54
727.027	1511.74
727.213	1427.78
727.4	1517.89
727.586	1462.59
727.773	1462.59
727.959	1476.93
728.145	1440.06
728.332	1456.45
728.518	1245.51
728.705	1411.39
728.891	1448.26
729.077	1423.68
729.264	1435.97
729.45	1358.14
729.636	1431.87
729.823	1360.19
730.009	1409.34
730.195	1395.01
730.382	1345.86
730.568	1401.15
730.754	1378.62
730.94	1366.34
731.126	1374.53
731.313	1360.19
731.499	1298.75
731.685	1440.06
731.871	1374.53
732.057	1354.05
732.243	1401.15
732.429	1343.81
732.615	1343.81
732.801	1458.5
732.987	1335.62
733.173	1306.95
733.359	1294.66
733.545	1358.14
733.731	1280.32
733.917	1386.82
734.103	1382.72
734.289	1290.56
734.475	1245.51
734.661	1259.84
734.847	1347.9
735.033	1286.47
735.219	1405.25
735.404	1296.71
735.59	1304.9
735.776	1220.93
735.962	1284.42
736.148	1188.16
736.333	1235.27
736.519	1255.75
736.705	1188.16
736.89	1308.99
737.076	1270.08
737.262	1233.22
737.447	1243.46
737.633	1204.55
737.819	1218.88
738.004	1106.24
738.19	1241.41
738.375	1253.7
738.561	1173.83
738.747	1190.21
738.932	1136.96
739.118	1155.4
739.303	1237.31
739.489	1157.44
739.674	1179.97
739.859	1149.25
740.045	1179.97
740.23	1134.92
740.416	1136.96
740.601	1157.44
740.786	1122.63
740.972	1134.92
741.157	1065.29
741.342	1089.86
741.528	1089.86
741.713	1118.53
741.898	1030.47
742.084	1079.62
742.269	1077.57
742.454	1089.86
742.639	1075.52
742.824	1065.29
743.01	1089.86
743.195	1034.57
743.38	1069.38
743.565	1206.59
743.75	1046.85
743.935	1022.28
744.12	1055.05
744.305	1012.04
744.49	1040.71
744.675	1024.33
744.86	1012.04
745.045	1005.89
745.23	1005.89
745.415	901.45
745.6	991.56
745.785	1014.09
745.97	971.08
746.155	1057.09
746.34	956.74
746.525	932.17
746.71	1026.37
746.895	909.64
747.079	989.51
747.264	1001.8
747.449	948.55
747.634	936.26
747.819	897.35
748.003	936.26
748.188	926.02
748.373	952.65
748.557	981.32
748.742	907.59
748.927	850.25
749.111	827.72
749.296	866.63
749.481	911.69
749.665	862.54
749.85	923.98
750.034	815.43
750.219	803.15
750.404	870.73
750.588	866.63
750.773	893.26
750.957	842.06
751.141	840.01
751.326	825.67
751.51	819.53
751.695	770.38
751.879	846.15
752.064	825.67
752.248	788.81
752.432	909.64
752.617	788.81
752.801	893.26
752.985	797
753.17	723.27
753.354	862.54
753.538	788.81
753.722	710.99
753.907	713.03
754.091	717.13
754.275	792.91
754.459	657.74
754.643	696.65
754.828	686.41
755.012	743.75
755.196	756.04
755.38	809.29
755.564	702.79
755.748	674.12
755.932	678.22
756.116	735.56
756.3	715.08
756.484	739.66
756.668	678.22
756.852	670.03
757.036	678.22
757.22	663.88
757.404	719.18
757.588	688.46
757.772	692.55
757.956	805.19
758.14	694.6
758.323	719.18
758.507	661.84
758.691	657.74
758.875	614.73
759.059	715.08
759.242	776.52
759.426	608.59
759.61	530.77
759.794	624.97
759.977	592.2
760.161	598.35
760.345	571.72
760.528	631.12
760.712	571.72
760.895	602.44
761.079	596.3
761.263	598.35
761.446	567.63
761.63	549.2
761.813	602.44
761.997	608.59
762.18	516.43
762.364	557.39
762.547	538.96
762.731	618.83
762.914	553.29
763.098	563.53
763.281	604.49
763.464	538.96
763.648	543.05
763.831	581.96
764.015	604.49
764.198	555.34
764.381	534.86
764.564	604.49
764.748	444.75
764.931	532.81
765.114	551.24
765.297	565.58
765.481	440.65
765.664	596.3
765.847	584.01
766.03	534.86
766.213	538.96
766.397	502.09
766.58	473.42
766.763	446.8
766.946	452.94
767.129	559.44
767.312	577.87
767.495	461.13
767.678	469.33
767.861	524.62
768.044	479.57
768.227	631.12
768.41	463.18
768.593	514.38
768.776	491.85
768.959	510.29
769.142	506.19
769.324	590.16
769.507	450.89
769.69	510.29
769.873	457.04
770.056	571.72
770.239	483.66
770.421	547.15
770.604	457.04
770.787	448.85
770.97	397.65
771.152	465.23
771.335	457.04
771.518	457.04
771.7	430.41
771.883	444.75
772.066	432.46
772.248	493.9
772.431	481.61
772.613	411.98
772.796	436.56
772.978	481.61
773.161	530.77
773.343	377.17
773.526	354.64
773.708	424.27
773.891	422.22
774.073	450.89
774.256	481.61
774.438	454.99
774.621	426.32
774.803	362.83
774.985	424.27
775.168	381.26
775.35	446.8
775.532	426.32
775.715	432.46
775.897	411.98
776.079	368.98
776.261	352.59
776.444	418.13
776.626	452.94
776.808	387.41
776.99	366.93
777.173	360.78
777.355	368.98
777.537	393.55
777.719	424.27
777.901	397.65
778.083	416.08
778.265	340.3
778.447	340.3
778.629	350.54
778.811	295.25
778.993	338.26
779.175	332.11
779.357	416.08
779.539	303.44
779.721	385.36
779.903	350.54
780.085	362.83
780.267	395.6
780.449	373.07
780.631	379.22
780.812	375.12
780.994	325.97
781.176	309.58
781.358	278.87
781.54	362.83
781.721	268.63
781.903	375.12
782.085	293.2
782.267	285.01
782.448	289.1
782.63	229.71
782.812	297.3
782.993	332.11
783.175	334.16
783.357	274.77
783.538	194.9
783.72	285.01
783.901	377.17
784.083	325.97
784.264	262.48
784.446	258.39
784.627	223.57
784.809	317.78
784.99	266.58
785.172	223.57
785.353	203.09
785.535	287.06
785.716	213.33
785.897	307.54
786.079	268.63
786.26	344.4
786.441	250.19
786.623	239.95
786.804	213.33
786.985	272.72
787.167	188.75
787.348	235.86
787.529	225.62
787.71	295.25
787.891	237.91
788.073	250.19
788.254	278.87
788.435	268.63
788.616	285.01
788.797	276.82
788.978	117.08
789.159	211.28
789.34	217.43
789.522	198.99
789.703	198.99
789.884	172.37
790.065	268.63
790.246	178.51
790.427	201.04
790.607	285.01
790.788	239.95
790.969	135.51
791.15	293.2
791.331	227.67
791.512	303.44
791.693	182.61
791.874	231.76
792.054	160.08
792.235	227.67
792.416	137.56
792.597	203.09
792.778	153.94
792.958	153.94
793.139	237.91
793.32	201.04
793.5	162.13
793.681	160.08
793.862	213.33
794.042	192.85
794.223	194.9
794.404	104.79
794.584	127.32
794.765	180.56
794.945	158.03
795.126	166.23
795.306	172.37
795.487	151.89
795.667	84.31
795.848	194.9
796.028	172.37
796.209	219.47
796.389	209.23
796.57	178.51
796.75	239.95
796.93	237.91
797.111	278.87
797.291	205.14
797.471	182.61
797.652	186.71
797.832	151.89
798.012	203.09
798.192	166.23
798.373	96.6
798.553	125.27
798.733	117.08
798.913	115.03
799.093	121.17
799.274	182.61
799.454	227.67
799.634	172.37
799.814	92.5
799.994	139.6
800.174	186.71
800.354	123.22
800.534	86.36
800.714	131.41
800.894	121.17
801.074	149.84
801.254	168.27
801.434	98.64
801.614	96.6
801.794	205.14
801.974	383.31
802.154	129.36
802.334	106.84
802.514	72.02
802.693	170.32
802.873	18.77
803.053	153.94
803.233	127.32
803.413	74.07
803.592	125.27
803.772	162.13
803.952	186.71
804.131	121.17
804.311	180.56
804.491	186.71
804.67	176.47
804.85	92.5
805.03	55.64
805.209	170.32
805.389	123.22
805.568	133.46
805.748	108.88
805.928	166.23
806.107	84.31
806.287	112.98
806.466	98.64
806.646	225.62
806.825	57.68
807.004	100.69
807.184	94.55
807.363	112.98
807.543	129.36
807.722	125.27
807.901	90.45
808.081	162.13
808.26	76.12
808.439	96.6
808.619	104.79
808.798	106.84
808.977	80.21
809.156	100.69
809.336	65.88
809.515	145.75
809.694	207.19
809.873	94.55
810.052	139.6
810.231	149.84
810.411	137.56
810.59	115.03
810.769	135.51
810.948	145.75
811.127	137.56
811.306	80.21
811.485	121.17
811.664	39.25
811.843	82.26
812.022	63.83
812.201	82.26
812.38	45.4
812.559	96.6
812.737	129.36
812.916	112.98
813.095	108.88
813.274	123.22
813.453	0.34
813.632	112.98
813.811	170.32
813.989	31.06
814.168	170.32
814.347	106.84
814.526	149.84
814.704	84.31
814.883	129.36
815.062	149.84
815.24	80.21
815.419	100.69
815.598	47.44
815.776	51.54
815.955	119.12
816.133	29.01
816.312	137.56
816.49	88.4
816.669	31.06
816.847	108.88
817.026	82.26
817.204	16.73
817.383	65.88
817.561	106.84
817.74	96.6
817.918	104.79
818.097	88.4
818.275	94.55
818.453	82.26
818.632	108.88
818.81	121.17
818.988	45.4
819.167	123.22
819.345	76.12
819.523	92.5
819.701	88.4
819.879	59.73
820.058	143.7
820.236	84.31
820.414	37.2
820.592	129.36
820.77	65.88
820.948	80.21
821.127	72.02
821.305	6.49
821.483	14.68
821.661	35.16
821.839	98.64
822.017	24.92
822.195	151.89
822.373	106.84
822.551	20.82
822.729	121.17
822.907	55.64
823.085	88.4
823.262	104.79
823.44	78.16
823.618	55.64
823.796	47.44
823.974	88.4
824.152	67.92
824.329	86.36
824.507	78.16
824.685	108.88
824.863	49.49
825.04	22.87
825.218	112.98
825.396	121.17
825.574	-16.04
825.751	133.46
825.929	110.93
826.107	67.92
826.284	43.35
826.462	88.4
826.639	55.64
826.817	59.73
826.994	106.84
827.172	127.32
827.349	47.44
827.527	88.4
827.704	14.68
827.882	65.88
828.059	53.59
828.237	53.59
828.414	31.06
828.591	26.96
828.769	86.36
828.946	53.59
829.124	69.97
829.301	72.02
829.478	74.07
829.655	80.21
829.833	69.97
830.01	37.2
830.187	4.44
830.364	18.77
830.542	80.21
830.719	51.54
830.896	76.12
831.073	102.74
831.25	104.79
831.427	80.21
831.604	63.83
831.782	6.49
831.959	145.75
832.136	41.3
832.313	119.12
832.49	57.68
832.667	76.12
832.844	47.44
833.021	47.44
833.198	72.02
833.374	47.44
833.551	24.92
833.728	65.88
833.905	117.08
834.082	51.54
834.259	57.68
834.436	55.64
834.612	86.36
834.789	135.51
834.966	41.3
835.143	72.02
835.319	84.31
835.496	37.2
835.673	14.68
835.85	59.73
836.026	10.58
836.203	57.68
836.38	24.92
836.556	14.68
836.733	18.77
836.909	59.73
837.086	-28.33
837.262	59.73
837.439	2.39
837.616	31.06
837.792	47.44
837.968	63.83
838.145	55.64
838.321	35.16
838.498	18.77
838.674	16.73
838.851	80.21
839.027	61.78
839.203	18.77
839.38	55.64
839.556	76.12
839.732	39.25
839.909	14.68
840.085	110.93
840.261	43.35
840.437	43.35
840.614	35.16
840.79	31.06
840.966	33.11
841.142	67.92
841.318	-3.75
841.494	59.73
841.671	61.78
841.847	-83.63
842.023	47.44
842.199	6.49
842.375	131.41
842.551	41.3
842.727	39.25
842.903	47.44
843.079	63.83
843.255	49.49
843.431	-13.99
843.607	51.54
843.783	0.34
843.959	55.64
844.134	39.25
844.31	96.6
844.486	55.64
844.662	-9.9
844.838	82.26
845.013	26.96
845.189	49.49
845.365	104.79
845.541	86.36
845.716	26.96
845.892	51.54
846.068	53.59
846.244	78.16
846.419	88.4
846.595	6.49
846.77	121.17
846.946	14.68
847.122	37.2
847.297	-18.09
847.473	63.83
847.648	26.96
847.824	123.22
847.999	45.4
848.175	20.82
848.35	0.34
848.526	49.49
848.701	20.82
848.876	82.26
849.052	33.11
849.227	33.11
849.403	78.16
849.578	35.16
849.753	106.84
849.929	31.06
850.104	14.68
850.279	51.54
850.454	65.88
850.63	47.44
850.805	43.35
850.98	22.87
851.155	72.02
851.33	-26.28
851.505	26.96
851.681	16.73
851.856	69.97
852.031	-16.04
852.206	-30.38
852.381	31.06
852.556	53.59
852.731	41.3
852.906	-18.09
853.081	88.4
853.256	57.68
853.431	47.44
853.606	-11.95
853.781	26.96
853.956	47.44
854.131	16.73
854.305	100.69
854.48	59.73
854.655	26.96
854.83	2.39
855.005	55.64
855.18	29.01
855.354	45.4
855.529	84.31
855.704	47.44
855.879	57.68
856.053	26.96
856.228	-3.75
856.403	0.34
856.577	96.6
856.752	37.2
856.926	43.35
857.101	49.49
857.276	-18.09
857.45	-5.8
857.625	80.21
857.799	82.26
857.974	57.68
858.148	8.53
858.323	14.68
858.497	2.39
858.672	4.44
858.846	31.06
859.02	86.36
859.195	119.12
859.369	49.49
859.543	61.78
859.718	65.88
859.892	72.02
860.066	80.21
860.241	86.36
860.415	35.16
860.589	-26.28
860.763	20.82
860.938	-7.85
861.112	43.35
861.286	76.12
861.46	16.73
861.634	6.49
861.808	-1.71
861.982	14.68
862.157	80.21
862.331	31.06
862.505	63.83
862.679	-3.75
862.853	53.59
863.027	-59.05
863.201	-1.71
863.375	35.16
863.549	-11.95
863.722	-18.09
863.896	63.83
864.07	-18.09
864.244	65.88
864.418	65.88
864.592	33.11
864.766	-13.99
864.939	6.49
865.113	29.01
865.287	18.77
865.461	-22.19
865.634	-26.28
865.808	59.73
865.982	8.53
866.156	-7.85
866.329	16.73
866.503	16.73
866.676	-48.81
866.85	55.64
867.024	88.4
867.197	41.3
867.371	31.06
867.544	117.08
867.718	-61.1
867.891	57.68
868.065	45.4
868.238	-26.28
868.412	18.77
868.585	106.84
868.759	-1.71
868.932	49.49
869.105	-5.8
869.279	-5.8
869.452	63.83
869.625	26.96
869.799	8.53
869.972	-9.9
870.145	43.35
870.319	8.53
870.492	80.21
870.665	12.63
870.838	22.87
871.011	4.44
871.185	82.26
871.358	-3.75
871.531	63.83
871.704	22.87
871.877	69.97
872.05	-59.05
872.223	90.45
872.396	26.96
872.569	29.01
872.742	2.39
872.915	8.53
873.088	76.12
873.261	31.06
873.434	102.74
873.607	69.97
873.78	39.25
873.953	39.25
874.126	10.58
874.299	108.88
874.471	10.58
874.644	4.44
874.817	-52.91
874.99	39.25
875.163	-16.04
875.335	26.96
875.508	-5.8
875.681	-18.09
875.853	-1.71
876.026	6.49
876.199	45.4
876.371	67.92
876.544	20.82
876.717	33.11
876.889	39.25
877.062	41.3
877.234	-40.62
877.407	63.83
877.579	33.11
877.752	55.64
877.924	18.77
878.097	37.2
878.269	65.88
878.442	-42.67
878.614	41.3
878.786	-16.04
878.959	39.25
879.131	22.87
879.303	-46.76
879.476	51.54
879.648	41.3
879.82	47.44
879.993	41.3
880.165	20.82
880.337	31.06
880.509	-18.09
880.681	51.54
880.854	16.73
881.026	98.64
881.198	37.2
881.37	8.53
881.542	-34.47
881.714	-54.95
881.886	10.58
882.058	33.11
882.23	22.87
882.402	-26.28
882.574	45.4
882.746	-9.9
882.918	-24.23
883.09	51.54
883.262	6.49
883.434	57.68
883.606	51.54
883.778	6.49
883.95	-11.95
884.122	20.82
884.293	-11.95
884.465	61.78
884.637	61.78
884.809	14.68
884.98	20.82
885.152	-9.9
885.324	33.11
885.496	-13.99
885.667	24.92
885.839	31.06
886.011	8.53
886.182	33.11
886.354	2.39
886.525	16.73
886.697	57.68
886.869	24.92
887.04	6.49
887.212	96.6
887.383	-16.04
887.555	-20.14
887.726	72.02
887.897	-24.23
888.069	67.92
888.24	84.31
888.412	8.53
888.583	49.49
888.754	-7.85
888.926	26.96
889.097	-3.75
889.268	-20.14
889.44	22.87
889.611	37.2
889.782	6.49
889.953	-13.99
890.125	29.01
890.296	-44.71
890.467	-1.71
890.638	43.35
890.809	65.88
890.98	41.3
891.151	57.68
891.323	78.16
891.494	67.92
891.665	20.82
891.836	35.16
892.007	-3.75
892.178	-20.14
892.349	57.68
892.52	-18.09
892.691	-7.85
892.862	-54.95
893.032	-18.09
893.203	22.87
893.374	-52.91
893.545	-42.67
893.716	16.73
893.887	8.53
894.057	-30.38
894.228	84.31
894.399	22.87
894.57	41.3
894.74	16.73
894.911	102.74
895.082	-24.23
895.253	53.59
895.423	0.34
895.594	72.02
895.764	-5.8
895.935	33.11
896.106	47.44
896.276	80.21
896.447	59.73
896.617	16.73
896.788	24.92
896.958	16.73
897.129	63.83
897.299	10.58
897.47	45.4
897.64	-16.04
897.81	53.59
897.981	51.54
898.151	-9.9
898.322	53.59
898.492	-61.1
898.662	-13.99
898.832	-79.53
899.003	-24.23
899.173	55.64
899.343	-48.81
899.513	18.77
