Data from USB4F104151__3__13-52-05-866.txt Node

Date: Thu Mar 13 13:52:05 EDT 2025
User: louis
Spectrometer: USB4F10415
Trigger mode: 4
Integration Time (sec): 1.000000E-2
Scans to average: 1
Electric dark correction enabled: true
Nonlinearity correction enabled: false
Boxcar width: 0
XAxis mode: Wavelengths
Number of Pixels in Spectrum: 3648
>>>>>Begin Spectral Data<<<<<
178.204	50
178.424	50
178.644	50
178.864	-54.44
179.084	-27.82
179.304	-46.25
179.524	-21.67
179.744	-21.67
179.964	27.48
180.184	70.48
180.404	19.29
180.624	-56.49
180.844	31.57
181.064	-58.54
181.283	76.63
181.503	-54.44
181.723	33.62
181.943	-31.91
182.163	11.09
182.383	21.33
182.602	15.19
182.822	56.15
183.042	-52.39
183.262	-13.48
183.482	82.77
183.701	7
183.921	-13.48
184.141	-17.58
184.361	-9.39
184.58	-19.63
184.8	7
185.02	80.72
185.239	60.24
185.459	17.24
185.679	76.63
185.898	15.19
186.118	19.29
186.338	56.15
186.557	78.68
186.777	33.62
186.997	-9.39
187.216	2.9
187.436	41.81
187.655	-23.72
187.875	62.29
188.095	31.57
188.314	-25.77
188.534	-1.19
188.753	-3.24
188.973	-13.48
189.192	25.43
189.412	7
189.631	37.72
189.851	-3.24
190.07	-5.29
190.29	35.67
190.509	50
190.729	-40.11
190.948	39.76
191.168	52.05
191.387	13.14
191.607	21.33
191.826	45.91
192.045	0.85
192.265	19.29
192.484	52.05
192.704	17.24
192.923	35.67
193.142	70.48
193.362	68.44
193.581	-13.48
193.8	60.24
194.02	27.48
194.239	11.09
194.458	15.19
194.678	-9.39
194.897	-23.72
195.116	84.82
195.335	9.05
195.555	23.38
195.774	82.77
195.993	47.96
196.212	-44.2
196.432	27.48
196.651	21.33
196.87	70.48
197.089	7
197.308	35.67
197.528	-31.91
197.747	-19.63
197.966	39.76
198.185	27.48
198.404	-40.11
198.623	37.72
198.842	62.29
199.062	0.85
199.281	31.57
199.5	-25.77
199.719	101.2
199.938	58.2
200.157	-15.53
200.376	62.29
200.595	-1.19
200.814	17.24
201.033	7
201.252	-40.11
201.471	41.81
201.69	43.86
201.909	50
202.128	56.15
202.347	64.34
202.566	-25.77
202.785	90.96
203.004	25.43
203.223	56.15
203.442	-54.44
203.661	-46.25
203.879	105.3
204.098	11.09
204.317	2.9
204.536	39.76
204.755	11.09
204.974	101.2
205.193	11.09
205.411	25.43
205.63	66.39
205.849	62.29
206.068	9.05
206.287	23.38
206.505	7
206.724	-13.48
206.943	64.34
207.162	-3.24
207.381	60.24
207.599	29.52
207.818	58.2
208.037	29.52
208.255	2.9
208.474	-5.29
208.693	-38.06
208.911	66.39
209.13	-1.19
209.349	29.52
209.567	86.87
209.786	66.39
210.005	80.72
210.223	27.48
210.442	-72.87
210.661	31.57
210.879	-5.29
211.098	31.57
211.316	78.68
211.535	86.87
211.753	-66.73
211.972	19.29
212.191	54.1
212.409	105.3
212.628	9.05
212.846	-25.77
213.065	21.33
213.283	-9.39
213.502	56.15
213.72	95.06
213.938	23.38
214.157	2.9
214.375	62.29
214.594	76.63
214.812	33.62
215.031	58.2
215.249	-3.24
215.467	-52.39
215.686	54.1
215.904	0.85
216.122	-15.53
216.341	23.38
216.559	45.91
216.778	52.05
216.996	9.05
217.214	31.57
217.432	0.85
217.651	-40.11
217.869	-13.48
218.087	58.2
218.306	47.96
218.524	43.86
218.742	27.48
218.96	31.57
219.179	25.43
219.397	66.39
219.615	27.48
219.833	60.24
220.051	13.14
220.27	47.96
220.488	56.15
220.706	80.72
220.924	-29.87
221.142	0.85
221.36	31.57
221.578	13.14
221.796	72.53
222.015	76.63
222.233	11.09
222.451	33.62
222.669	17.24
222.887	50
223.105	13.14
223.323	82.77
223.541	-48.3
223.759	72.53
223.977	60.24
224.195	37.72
224.413	80.72
224.631	27.48
224.849	-7.34
225.067	33.62
225.285	-13.48
225.503	7
225.721	76.63
225.939	101.2
226.157	52.05
226.375	68.44
226.592	-17.58
226.81	-11.43
227.028	35.67
227.246	-38.06
227.464	29.52
227.682	68.44
227.9	7
228.117	54.1
228.335	-23.72
228.553	-13.48
228.771	23.38
228.989	99.16
229.206	103.25
229.424	43.86
229.642	43.86
229.86	43.86
230.077	31.57
230.295	-50.35
230.513	37.72
230.731	-31.91
230.948	58.2
231.166	39.76
231.384	43.86
231.601	31.57
231.819	74.58
232.037	54.1
232.254	15.19
232.472	0.85
232.689	-36.01
232.907	-9.39
233.125	13.14
233.342	23.38
233.56	4.95
233.777	-1.19
233.995	11.09
234.213	31.57
234.43	19.29
234.648	13.14
234.865	-19.63
235.083	74.58
235.3	0.85
235.518	4.95
235.735	31.57
235.953	95.06
236.17	21.33
236.388	58.2
236.605	43.86
236.822	23.38
237.04	2.9
237.257	27.48
237.475	-9.39
237.692	17.24
237.909	25.43
238.127	43.86
238.344	43.86
238.562	78.68
238.779	0.85
238.996	-7.34
239.214	23.38
239.431	-7.34
239.648	17.24
239.865	0.85
240.083	2.9
240.3	68.44
240.517	-48.3
240.735	43.86
240.952	37.72
241.169	54.1
241.386	-19.63
241.603	-33.96
241.821	27.48
242.038	-9.39
242.255	-1.19
242.472	60.24
242.689	-11.43
242.907	7
243.124	-17.58
243.341	47.96
243.558	29.52
243.775	90.96
243.992	45.91
244.209	62.29
244.426	45.91
244.643	29.52
244.86	37.72
245.078	43.86
245.295	68.44
245.512	76.63
245.729	37.72
245.946	4.95
246.163	119.64
246.38	121.68
246.597	-5.29
246.814	70.48
247.031	70.48
247.248	103.25
247.464	4.95
247.681	64.34
247.898	52.05
248.115	11.09
248.332	31.57
248.549	90.96
248.766	0.85
248.983	15.19
249.2	37.72
249.417	29.52
249.633	29.52
249.85	88.92
250.067	29.52
250.284	7
250.501	45.91
250.717	52.05
250.934	35.67
251.151	72.53
251.368	-74.92
251.585	78.68
251.801	25.43
252.018	-52.39
252.235	0.85
252.451	35.67
252.668	45.91
252.885	52.05
253.102	4.95
253.318	31.57
253.535	-11.43
253.752	78.68
253.968	2.9
254.185	72.53
254.401	19.29
254.618	17.24
254.835	66.39
255.051	33.62
255.268	74.58
255.484	58.2
255.701	56.15
255.917	50
256.134	52.05
256.351	111.44
256.567	7
256.784	64.34
257	-5.29
257.217	9.05
257.433	56.15
257.65	-19.63
257.866	60.24
258.082	27.48
258.299	-5.29
258.515	47.96
258.732	0.85
258.948	60.24
259.165	70.48
259.381	-11.43
259.597	4.95
259.814	17.24
260.03	41.81
260.246	17.24
260.463	19.29
260.679	103.25
260.895	33.62
261.112	66.39
261.328	7
261.544	-3.24
261.761	60.24
261.977	-46.25
262.193	21.33
262.409	56.15
262.626	56.15
262.842	119.64
263.058	0.85
263.274	-15.53
263.49	-3.24
263.707	-1.19
263.923	33.62
264.139	43.86
264.355	74.58
264.571	66.39
264.787	9.05
265.004	2.9
265.22	-21.67
265.436	64.34
265.652	64.34
265.868	80.72
266.084	29.52
266.3	45.91
266.516	41.81
266.732	33.62
266.948	60.24
267.164	-58.54
267.38	9.05
267.596	95.06
267.812	52.05
268.028	64.34
268.244	146.26
268.46	9.05
268.676	37.72
268.892	68.44
269.108	76.63
269.324	0.85
269.54	72.53
269.756	45.91
269.972	80.72
270.188	15.19
270.403	56.15
270.619	54.1
270.835	-17.58
271.051	-3.24
271.267	25.43
271.483	2.9
271.698	-27.82
271.914	47.96
272.13	-13.48
272.346	52.05
272.562	84.82
272.777	19.29
272.993	47.96
273.209	88.92
273.425	13.14
273.64	2.9
273.856	27.48
274.072	-3.24
274.287	76.63
274.503	7
274.719	80.72
274.934	-1.19
275.15	21.33
275.366	41.81
275.581	68.44
275.797	133.97
276.012	-40.11
276.228	43.86
276.444	-40.11
276.659	-23.72
276.875	72.53
277.09	-42.15
277.306	4.95
277.521	58.2
277.737	60.24
277.952	64.34
278.168	23.38
278.383	35.67
278.599	41.81
278.814	45.91
279.03	23.38
279.245	13.14
279.461	13.14
279.676	52.05
279.892	-38.06
280.107	-9.39
280.322	31.57
280.538	68.44
280.753	62.29
280.969	27.48
281.184	68.44
281.399	43.86
281.615	33.62
281.83	43.86
282.045	-3.24
282.26	60.24
282.476	41.81
282.691	56.15
282.906	84.82
283.122	31.57
283.337	15.19
283.552	50
283.767	2.9
283.983	29.52
284.198	52.05
284.413	50
284.628	-31.91
284.843	58.2
285.058	72.53
285.274	23.38
285.489	41.81
285.704	-1.19
285.919	70.48
286.134	9.05
286.349	47.96
286.564	64.34
286.779	58.2
286.995	0.85
287.21	39.76
287.425	37.72
287.64	-17.58
287.855	41.81
288.07	58.2
288.285	15.19
288.5	33.62
288.715	82.77
288.93	35.67
289.145	27.48
289.36	56.15
289.575	47.96
289.79	50
290.004	43.86
290.219	4.95
290.434	52.05
290.649	23.38
290.864	-11.43
291.079	103.25
291.294	60.24
291.509	-1.19
291.724	-19.63
291.938	29.52
292.153	33.62
292.368	64.34
292.583	23.38
292.798	15.19
293.012	58.2
293.227	68.44
293.442	54.1
293.657	-17.58
293.871	68.44
294.086	27.48
294.301	-3.24
294.516	93.01
294.73	54.1
294.945	62.29
295.16	37.72
295.374	-19.63
295.589	78.68
295.804	43.86
296.018	58.2
296.233	115.54
296.447	54.1
296.662	88.92
296.877	-21.67
297.091	101.2
297.306	62.29
297.52	-7.34
297.735	21.33
297.949	11.09
298.164	127.83
298.378	15.19
298.593	-11.43
298.807	-15.53
299.022	-25.77
299.236	52.05
299.451	70.48
299.665	-1.19
299.88	17.24
300.094	4.95
300.309	90.96
300.523	90.96
300.737	90.96
300.952	23.38
301.166	25.43
301.381	-25.77
301.595	43.86
301.809	-23.72
302.024	68.44
302.238	-5.29
302.452	9.05
302.667	70.48
302.881	39.76
303.095	19.29
303.309	27.48
303.524	95.06
303.738	19.29
303.952	21.33
304.166	76.63
304.381	68.44
304.595	35.67
304.809	13.14
305.023	50
305.237	68.44
305.452	9.05
305.666	9.05
305.88	60.24
306.094	9.05
306.308	90.96
306.522	43.86
306.736	39.76
306.95	11.09
307.164	58.2
307.379	29.52
307.593	-1.19
307.807	-15.53
308.021	52.05
308.235	31.57
308.449	13.14
308.663	70.48
308.877	144.21
309.091	84.82
309.305	17.24
309.519	19.29
309.733	72.53
309.947	111.44
310.161	4.95
310.374	54.1
310.588	4.95
310.802	101.2
311.016	37.72
311.23	56.15
311.444	80.72
311.658	31.57
311.872	17.24
312.085	-3.24
312.299	35.67
312.513	60.24
312.727	29.52
312.941	50
313.154	45.91
313.368	60.24
313.582	72.53
313.796	25.43
314.009	60.24
314.223	37.72
314.437	37.72
314.651	125.78
314.864	107.35
315.078	50
315.292	52.05
315.505	15.19
315.719	70.48
315.933	21.33
316.146	31.57
316.36	41.81
316.573	35.67
316.787	47.96
317.001	7
317.214	-27.82
317.428	19.29
317.641	58.2
317.855	66.39
318.068	9.05
318.282	33.62
318.495	7
318.709	-25.77
318.922	13.14
319.136	45.91
319.349	99.16
319.563	17.24
319.776	39.76
319.99	-44.2
320.203	56.15
320.417	23.38
320.63	52.05
320.843	7
321.057	-56.49
321.27	21.33
321.483	76.63
321.697	80.72
321.91	15.19
322.124	33.62
322.337	13.14
322.55	78.68
322.763	11.09
322.977	66.39
323.19	60.24
323.403	64.34
323.617	37.72
323.83	119.64
324.043	52.05
324.256	29.52
324.469	23.38
324.683	19.29
324.896	111.44
325.109	31.57
325.322	0.85
325.535	17.24
325.748	101.2
325.962	64.34
326.175	121.68
326.388	66.39
326.601	97.11
326.814	29.52
327.027	78.68
327.24	41.81
327.453	-15.53
327.666	64.34
327.879	15.19
328.092	111.44
328.305	-33.96
328.518	99.16
328.731	25.43
328.944	-3.24
329.157	0.85
329.37	19.29
329.583	25.43
329.796	70.48
330.009	0.85
330.222	7
330.435	-13.48
330.648	13.14
330.861	86.87
331.073	27.48
331.286	29.52
331.499	31.57
331.712	-38.06
331.925	52.05
332.138	35.67
332.35	35.67
332.563	13.14
332.776	78.68
332.989	-11.43
333.202	17.24
333.414	43.86
333.627	37.72
333.84	27.48
334.053	64.34
334.265	47.96
334.478	-1.19
334.691	56.15
334.903	47.96
335.116	-11.43
335.329	47.96
335.541	70.48
335.754	4.95
335.966	52.05
336.179	66.39
336.392	43.86
336.604	7
336.817	33.62
337.029	-9.39
337.242	76.63
337.454	-1.19
337.667	45.91
337.88	7
338.092	47.96
338.305	43.86
338.517	17.24
338.729	-3.24
338.942	111.44
339.154	35.67
339.367	47.96
339.579	95.06
339.792	39.76
340.004	64.34
340.217	19.29
340.429	93.01
340.641	27.48
340.854	27.48
341.066	45.91
341.278	80.72
341.491	54.1
341.703	90.96
341.915	-9.39
342.128	25.43
342.34	-11.43
342.552	39.76
342.764	-27.82
342.977	-1.19
343.189	4.95
343.401	-5.29
343.613	64.34
343.826	41.81
344.038	27.48
344.25	123.73
344.462	62.29
344.674	74.58
344.886	-5.29
345.099	17.24
345.311	78.68
345.523	41.81
345.735	105.3
345.947	66.39
346.159	25.43
346.371	64.34
346.583	68.44
346.795	11.09
347.007	82.77
347.219	29.52
347.431	76.63
347.643	64.34
347.855	4.95
348.067	68.44
348.279	-9.39
348.491	50
348.703	99.16
348.915	80.72
349.127	7
349.339	133.97
349.551	-42.15
349.763	60.24
349.975	60.24
350.187	41.81
350.399	50
350.61	68.44
350.822	62.29
351.034	35.67
351.246	13.14
351.458	52.05
351.669	68.44
351.881	-15.53
352.093	74.58
352.305	84.82
352.517	66.39
352.728	52.05
352.94	21.33
353.152	27.48
353.363	33.62
353.575	68.44
353.787	-25.77
353.999	11.09
354.21	-15.53
354.422	33.62
354.633	70.48
354.845	37.72
355.057	41.81
355.268	-13.48
355.48	76.63
355.692	43.86
355.903	56.15
356.115	43.86
356.326	52.05
356.538	64.34
356.749	54.1
356.961	82.77
357.172	68.44
357.384	-29.87
357.595	107.35
357.807	70.48
358.018	15.19
358.23	19.29
358.441	93.01
358.653	31.57
358.864	-1.19
359.075	84.82
359.287	25.43
359.498	80.72
359.709	97.11
359.921	11.09
360.132	-52.39
360.344	15.19
360.555	41.81
360.766	35.67
360.977	27.48
361.189	68.44
361.4	62.29
361.611	74.58
361.823	95.06
362.034	-19.63
362.245	-7.34
362.456	64.34
362.667	21.33
362.879	47.96
363.09	-21.67
363.301	15.19
363.512	84.82
363.723	-13.48
363.935	19.29
364.146	78.68
364.357	17.24
364.568	56.15
364.779	29.52
364.99	39.76
365.201	39.76
365.412	66.39
365.623	-9.39
365.834	23.38
366.045	52.05
366.256	54.1
366.467	43.86
366.678	37.72
366.889	4.95
367.1	105.3
367.311	-27.82
367.522	0.85
367.733	-3.24
367.944	70.48
368.155	7
368.366	15.19
368.577	9.05
368.788	27.48
368.999	105.3
369.209	113.49
369.42	33.62
369.631	123.73
369.842	58.2
370.053	31.57
370.264	43.86
370.474	43.86
370.685	64.34
370.896	76.63
371.107	15.19
371.317	39.76
371.528	11.09
371.739	84.82
371.95	43.86
372.16	66.39
372.371	11.09
372.582	62.29
372.792	97.11
373.003	-5.29
373.214	-21.67
373.424	74.58
373.635	95.06
373.846	31.57
374.056	47.96
374.267	23.38
374.477	117.59
374.688	70.48
374.898	90.96
375.109	-19.63
375.319	86.87
375.53	58.2
375.74	31.57
375.951	60.24
376.161	31.57
376.372	43.86
376.582	66.39
376.793	82.77
377.003	-23.72
377.214	99.16
377.424	21.33
377.635	131.92
377.845	0.85
378.055	109.4
378.266	80.72
378.476	64.34
378.686	31.57
378.897	58.2
379.107	52.05
379.317	11.09
379.528	99.16
379.738	7
379.948	72.53
380.158	11.09
380.369	56.15
380.579	95.06
380.789	105.3
380.999	123.73
381.21	13.14
381.42	146.26
381.63	150.36
381.84	88.92
382.05	62.29
382.261	78.68
382.471	64.34
382.681	47.96
382.891	170.83
383.101	109.4
383.311	27.48
383.521	47.96
383.731	60.24
383.941	52.05
384.151	82.77
384.361	93.01
384.571	68.44
384.781	86.87
384.991	66.39
385.201	66.39
385.411	95.06
385.621	35.67
385.831	33.62
386.041	-21.67
386.251	93.01
386.461	23.38
386.671	76.63
386.881	144.21
387.091	105.3
387.301	80.72
387.511	99.16
387.72	25.43
387.93	99.16
388.14	117.59
388.35	72.53
388.56	152.4
388.769	45.91
388.979	9.05
389.189	23.38
389.399	33.62
389.609	-1.19
389.818	148.31
390.028	25.43
390.238	41.81
390.447	74.58
390.657	109.4
390.867	47.96
391.076	35.67
391.286	23.38
391.496	39.76
391.705	-17.58
391.915	43.86
392.125	50
392.334	-1.19
392.544	33.62
392.753	11.09
392.963	64.34
393.172	13.14
393.382	31.57
393.591	86.87
393.801	90.96
394.01	117.59
394.22	80.72
394.429	144.21
394.639	54.1
394.848	68.44
395.058	164.69
395.267	-13.48
395.477	-19.63
395.686	119.64
395.895	72.53
396.105	62.29
396.314	74.58
396.524	15.19
396.733	113.49
396.942	103.25
397.152	86.87
397.361	76.63
397.57	113.49
397.78	-11.43
397.989	93.01
398.198	105.3
398.407	76.63
398.617	160.59
398.826	60.24
399.035	84.82
399.244	84.82
399.453	125.78
399.663	127.83
399.872	27.48
400.081	148.31
400.29	105.3
400.499	97.11
400.708	121.68
400.917	138.07
401.127	88.92
401.336	66.39
401.545	146.26
401.754	142.16
401.963	136.02
402.172	21.33
402.381	170.83
402.59	172.88
402.799	119.64
403.008	189.27
403.217	123.73
403.426	125.78
403.635	125.78
403.844	93.01
404.053	47.96
404.262	80.72
404.471	156.5
404.68	107.35
404.888	72.53
405.097	176.98
405.306	168.79
405.515	111.44
405.724	170.83
405.933	197.46
406.142	197.46
406.35	150.36
406.559	154.45
406.768	146.26
406.977	201.55
407.185	162.64
407.394	152.4
407.603	117.59
407.812	138.07
408.02	146.26
408.229	142.16
408.438	193.36
408.646	148.31
408.855	174.93
409.064	207.7
409.272	150.36
409.481	254.8
409.69	260.95
409.898	271.19
410.107	240.47
410.315	224.08
410.524	246.61
410.733	279.38
410.941	342.86
411.15	394.06
411.358	328.53
411.567	392.02
411.775	299.86
411.984	381.78
412.192	361.3
412.401	314.19
412.609	394.06
412.818	475.98
413.026	473.93
413.234	435.02
413.443	371.54
413.651	463.69
413.86	463.69
414.068	500.56
414.276	445.26
414.485	547.66
414.693	467.79
414.901	607.05
415.11	529.23
415.318	658.25
415.526	705.35
415.734	613.2
415.943	658.25
416.151	672.59
416.359	699.21
416.567	742.22
416.776	721.74
416.984	760.65
417.192	867.14
417.4	848.71
417.608	856.9
417.817	926.54
418.025	881.48
418.233	924.49
418.441	936.78
418.649	1061.7
418.857	1057.61
419.065	1102.66
419.273	990.02
419.481	1166.15
419.689	1196.87
419.897	1160
420.105	1366.85
420.313	1207.11
420.521	1334.08
420.729	1344.32
420.937	1422.14
421.145	1512.25
421.353	1510.21
421.561	1454.91
421.769	1559.36
421.977	1661.76
422.185	1731.39
422.393	1708.86
422.601	1889.08
422.809	1835.83
423.017	1831.74
423.224	1983.29
423.432	2034.49
423.64	2118.45
423.848	2276.15
424.056	2192.18
424.263	2376.5
424.471	2306.87
424.679	2433.84
424.887	2569.01
425.094	2519.85
425.302	2661.16
425.51	2652.97
425.718	2802.47
425.925	2800.43
426.133	2927.4
426.341	3216.16
426.548	3328.8
426.756	3164.97
426.964	3220.26
427.171	3447.58
427.379	3390.24
427.586	3605.28
427.794	3654.43
428.001	3826.46
428.209	4051.74
428.417	3967.77
428.624	4242.2
428.832	4350.74
429.039	4295.44
429.247	4236.05
429.454	4750.09
429.662	4995.85
429.869	4619.02
430.076	4832.01
430.284	4868.88
430.491	4864.78
430.699	5384.96
430.906	5292.8
431.114	5311.24
431.321	5671.68
431.528	5712.64
431.736	5862.14
431.943	6275.83
432.15	6175.48
432.358	6195.96
432.565	6437.62
432.772	6437.62
432.979	6826.73
433.187	7086.83
433.394	6861.55
433.601	7400.16
433.808	7318.25
434.016	7559.91
434.223	7721.7
434.43	8319.7
434.637	8262.36
434.844	8587.99
435.052	8563.41
435.259	8667.86
435.466	8831.69
435.673	8710.86
435.88	9059.02
436.087	9665.22
436.294	9730.75
436.501	9525.96
436.708	9704.13
436.915	10007.23
437.122	10662.58
437.329	10468.02
437.537	10820.27
437.743	10850.99
437.95	10781.36
438.157	11395.75
438.364	11639.46
438.571	12004
438.778	11823.78
438.985	12786.32
439.192	12569.24
439.399	12808.85
439.606	12497.56
439.813	13353.61
440.02	13755.01
440.227	13726.34
440.433	13466.25
440.64	14156.41
440.847	14039.68
441.054	14432.89
441.261	15164.01
441.467	15112.81
441.674	15721.06
441.881	16075.36
442.088	16026.21
442.294	15704.68
442.501	15972.96
442.708	16523.87
442.914	17146.45
443.121	18176.58
443.328	17470.03
443.534	18580.03
443.741	17973.83
443.948	18094.66
444.154	19149.36
444.361	19102.26
444.568	19087.92
444.774	19356.21
444.981	19581.48
445.187	19915.3
445.394	20978.2
445.6	20707.87
445.807	22733.31
446.013	21617.16
446.22	22102.53
446.426	22741.5
446.633	23069.17
446.839	23742.96
447.046	22966.77
447.252	23871.98
447.459	23908.84
447.665	24162.79
447.871	25143.77
448.078	25924.04
448.284	24891.87
448.491	25477.58
448.697	26542.53
448.903	26825.15
449.11	27007.42
449.316	26843.58
449.522	26986.94
449.728	27689.39
449.935	27886
450.141	28025.26
450.347	28348.84
450.553	27593.14
450.76	27644.34
450.966	29030.81
451.172	28168.62
451.378	28961.18
451.584	28406.18
451.791	28936.6
451.997	28922.27
452.203	29630.87
452.409	29354.39
452.615	29364.63
452.821	28496.29
453.027	27849.13
453.233	29426.07
453.44	28207.53
453.646	28500.39
453.852	28422.56
454.058	28948.89
454.264	28240.29
454.47	28615.07
454.676	28000.68
454.882	28977.56
455.088	26450.37
455.294	26606.02
455.5	26882.49
455.705	27304.37
455.911	26196.42
456.117	25577.94
456.323	25450.96
456.529	24146.4
456.735	24596.96
456.941	24220.13
457.147	23943.66
457.352	23202.29
457.558	22917.62
457.764	22997.49
457.97	22614.52
458.176	21887.5
458.381	21840.39
458.587	20808.22
458.793	20836.89
458.999	19565.1
459.204	21039.64
459.41	20382.24
459.616	19151.41
459.821	19264.05
460.027	19106.35
460.233	18721.34
460.438	17885.76
460.644	18117.18
460.85	17125.97
461.055	16892.5
461.261	17220.17
461.466	15913.57
461.672	15325.8
461.878	16456.28
462.083	15327.85
462.289	14824.05
462.494	14957.17
462.7	14277.24
462.905	13838.98
463.111	14228.09
463.316	14271.1
463.522	13976.19
463.727	13994.62
463.932	13988.48
464.138	14084.73
464.343	13716.1
464.549	13456.01
464.754	13998.72
464.959	14080.64
465.165	13740.68
465.37	12896.91
465.575	12923.54
465.781	13322.89
465.986	13396.62
466.191	13044.37
466.397	12853.91
466.602	12169.88
466.807	12743.31
467.012	12771.99
467.218	12444.31
467.423	12329.63
467.628	12452.5
467.833	13114
468.038	12450.46
468.244	12206.75
468.449	12575.38
468.654	12253.85
468.859	12079.77
469.064	12042.91
469.269	11561.64
469.474	11379.37
469.679	11989.66
469.885	11422.38
470.09	11727.52
470.295	11553.45
470.5	11358.89
470.705	11426.47
470.91	10957.49
471.115	11078.32
471.32	10994.35
471.525	11141.8
471.73	10910.38
471.935	10771.12
472.139	10521.27
472.344	10726.07
472.549	10455.73
472.754	10183.35
472.959	10138.3
473.164	9925.31
473.369	9859.77
473.574	10134.2
473.778	10126.01
473.983	9929.41
474.188	9878.21
474.393	9513.67
474.598	9450.18
474.802	9370.31
475.007	9398.98
475.212	9474.76
475.417	9046.73
475.621	8968.91
475.826	8983.24
476.031	8907.47
476.235	8704.72
476.44	8921.81
476.645	8657.62
476.849	8645.33
477.054	8524.5
477.259	8309.46
477.463	8436.44
477.668	8211.16
477.872	8188.63
478.077	8065.75
478.282	8047.32
478.486	7895.77
478.691	7840.48
478.895	7820
479.1	7940.83
479.304	7801.57
479.509	7807.71
479.713	7793.37
479.918	7596.77
480.122	7469.8
480.326	7494.37
480.531	7619.3
480.735	7418.6
480.94	7514.85
481.144	7768.8
481.348	7353.06
481.553	7463.65
481.757	7375.59
481.961	7287.53
482.166	7482.08
482.37	7398.12
482.574	7342.82
482.778	7090.92
482.983	7463.65
483.187	7334.63
483.391	7437.03
483.595	7254.76
483.8	7092.97
484.004	7209.7
484.208	7199.46
484.412	7154.41
484.616	7262.95
484.821	7355.11
485.025	7080.68
485.229	7416.55
485.433	7265
485.637	7353.06
485.841	7115.5
486.045	7113.45
486.249	7422.69
486.453	7191.27
486.657	7162.6
486.861	7197.42
487.065	6951.66
487.269	7236.33
487.473	7168.74
487.677	7398.12
487.881	7377.64
488.085	7363.3
488.289	7324.39
488.493	7340.77
488.697	7328.49
488.901	7328.49
489.105	7305.96
489.309	7383.78
489.512	7303.91
489.716	7301.86
489.92	7445.22
490.124	7326.44
490.328	7520.99
490.531	7477.99
490.735	7568.1
490.939	7467.75
491.143	7322.34
491.346	7351.01
491.55	7609.06
491.754	7658.21
491.958	7736.03
492.161	7690.98
492.365	7750.37
492.569	7744.22
492.772	7719.65
492.976	7680.74
493.18	7836.38
493.383	7678.69
493.587	7865.05
493.79	8143.58
493.994	8026.84
494.197	7858.91
494.401	8127.19
494.605	8075.99
494.808	8413.91
495.012	8268.5
495.215	8362.71
495.419	8295.13
495.622	8385.24
495.825	8563.41
496.029	8575.7
496.232	8811.21
496.436	8698.58
496.639	8962.76
496.843	8751.82
497.046	9083.59
497.249	9059.02
497.453	9034.44
497.656	9310.92
497.859	9267.91
498.063	9446.09
498.266	9636.55
498.469	9591.49
498.673	9829.06
498.876	9718.47
499.079	10113.72
499.282	10046.14
499.485	10132.15
499.689	10142.39
499.892	10273.46
500.095	10310.33
500.298	10721.97
500.501	10633.91
500.705	10871.47
500.908	11002.54
501.111	11068.08
501.314	11205.29
501.517	11309.74
501.72	11569.83
501.923	11360.94
502.126	11686.56
502.329	11958.94
502.532	12018.33
502.735	11958.94
502.938	12216.99
503.141	12268.19
503.344	12487.32
503.547	12548.76
503.75	12898.96
503.953	13038.22
504.156	13062.8
504.359	13224.59
504.562	13435.53
504.765	13662.85
504.968	13957.76
505.17	13886.08
505.373	14045.82
505.576	14211.71
505.779	14467.7
505.982	14717.56
506.185	14848.63
506.387	14955.12
506.59	15063.66
506.793	15276.65
506.996	15075.95
507.198	15784.55
507.401	15682.15
507.604	15866.47
507.807	16317.02
508.009	16374.36
508.212	16335.45
508.415	16865.88
508.617	16699.99
508.82	17228.37
509.022	17017.43
509.225	17597
509.428	17723.97
509.63	18162.24
509.833	18004.55
510.035	18436.67
510.238	18141.76
510.44	18666.04
510.643	18897.46
510.845	19153.46
511.048	19006
511.25	19249.71
511.453	19610.15
511.655	19972.64
511.858	20095.52
512.06	20259.36
512.262	20148.77
512.465	20320.8
512.667	20939.29
512.87	21152.27
513.072	21357.07
513.274	21684.75
513.477	21912.07
513.679	22137.35
513.881	22219.27
514.084	22524.41
514.286	22942.2
514.488	22940.15
514.69	23509.49
514.893	23521.77
515.095	23587.31
515.297	24125.93
515.499	24019.43
515.701	24236.52
515.904	24891.87
516.106	24551.9
516.308	25270.74
516.51	25399.76
516.712	25721.29
516.914	26257.86
517.116	26241.48
517.318	26284.48
517.52	26644.93
517.722	27091.38
517.925	27007.42
518.127	27613.62
518.329	27914.67
518.531	27656.62
518.733	28457.38
518.935	28572.07
519.136	28613.02
519.338	28969.37
519.54	29280.66
519.742	29594
519.944	29669.78
520.146	30296.46
520.348	30566.79
520.55	30441.86
520.752	30679.43
520.954	31418.74
521.155	31211.9
521.357	31773.04
521.559	31838.58
521.761	32432.49
521.963	32141.67
522.164	32508.26
522.366	32899.42
522.568	32819.55
522.77	33304.92
522.971	33917.26
523.173	33794.39
523.375	33855.82
523.576	34181.45
523.778	34103.63
523.98	34830.66
524.181	34797.89
524.383	35002.69
524.584	35459.38
524.786	35455.29
524.988	35469.62
525.189	36006.19
525.391	35864.88
525.592	36006.19
525.794	36616.49
525.995	36495.66
526.197	36692.26
526.398	36561.19
526.6	36661.54
526.801	37308.7
527.003	37427.48
527.204	37482.78
527.406	37947.67
527.607	37669.14
527.808	37755.16
528.01	37587.22
528.211	37859.6
528.412	38547.72
528.614	38269.2
528.815	38424.84
529.016	38598.92
529.218	38476.04
529.419	38834.44
529.62	38387.98
529.822	38701.32
530.023	39065.86
530.224	38770.95
530.425	39426.3
530.626	38797.57
530.828	39080.19
531.029	39620.86
531.23	39377.15
531.431	39346.43
531.632	39467.26
531.833	39575.8
532.035	39500.03
532.236	39661.82
532.437	39952.63
532.638	39371
532.839	39633.14
533.04	40075.51
533.241	39586.04
533.442	40081.65
533.643	39887.09
533.844	40089.84
534.045	40225.01
534.246	39653.62
534.447	39880.95
534.648	40143.09
534.849	40143.09
535.05	40114.42
535.251	40159.47
535.451	39866.61
535.652	40171.76
535.853	40214.77
536.054	40118.51
536.255	40302.83
536.456	39559.42
536.657	40679.66
536.857	40042.74
537.058	40403.18
537.259	40454.38
537.46	40026.35
537.66	39819.51
537.861	40358.13
538.062	40020.21
538.263	40704.23
538.463	40151.28
538.664	39989.49
538.865	40206.58
539.065	40347.89
539.266	39973.11
539.466	40706.28
539.667	39911.67
539.868	40313.07
540.068	40235.25
540.269	40358.13
540.469	40530.15
540.67	39948.53
540.87	40147.18
541.071	40235.25
541.271	40265.97
541.472	40208.62
541.672	40120.56
541.873	39780.6
542.073	39317.76
542.274	40040.69
542.474	40136.94
542.675	39608.57
542.875	40356.08
543.075	39985.4
543.276	39637.24
543.476	40341.74
543.676	39688.44
543.877	40413.42
544.077	40370.41
544.277	40110.32
544.478	40214.77
544.678	40079.6
544.878	39874.8
545.078	40022.26
545.279	39694.58
545.479	40136.94
545.679	40077.55
545.879	39977.2
546.079	40235.25
546.28	39780.6
546.48	39678.2
546.68	40116.47
546.88	40257.78
547.08	39901.43
547.28	40001.78
547.48	39735.54
547.68	40208.62
547.88	39604.47
548.081	40052.98
548.281	39565.56
548.481	39588.09
548.681	40169.71
548.881	40257.78
549.081	39889.14
549.28	39813.37
549.48	40063.22
549.68	39848.18
549.88	40077.55
550.08	39741.69
550.28	39868.66
550.48	39674.1
550.68	40229.1
550.88	39563.51
551.08	40141.04
551.279	39850.23
551.479	39842.04
551.679	39639.29
551.879	39809.27
552.079	40118.51
552.278	39708.92
552.478	39737.59
552.678	39602.43
552.878	39807.22
553.077	39874.8
553.277	39414.01
553.477	39805.17
553.676	39725.3
553.876	39465.21
554.076	39547.13
554.275	39655.67
554.475	38797.57
554.674	39532.79
554.874	39643.38
555.074	39098.62
555.273	39502.07
555.473	39377.15
555.672	39100.67
555.872	39368.96
556.071	39291.13
556.271	39221.5
556.47	38820.1
556.67	38641.93
556.869	38940.93
557.068	39414.01
557.268	38600.97
557.467	38910.21
557.667	38742.28
557.866	38867.2
558.065	38859.01
558.265	38721.8
558.464	38777.09
558.663	38791.43
558.863	38652.17
559.062	39026.95
559.261	38277.39
559.461	38586.63
559.66	37984.53
559.859	38222.09
560.058	38039.82
560.258	38095.12
560.457	37769.49
560.656	38248.72
560.855	37808.4
561.054	38410.51
561.253	37933.33
561.453	38134.03
561.652	38072.59
561.851	38363.4
562.05	37798.16
562.249	37751.06
562.448	37884.18
562.647	37523.74
562.846	37562.65
563.045	37783.83
563.244	36970.79
563.443	37595.42
563.642	36890.91
563.841	37284.12
564.04	37263.64
564.239	37431.58
564.438	36946.21
564.637	37269.79
564.836	37294.36
565.035	36868.39
565.234	36589.86
565.432	36407.59
565.631	36587.82
565.83	36581.67
566.029	36794.66
566.228	36448.55
566.427	36438.31
566.625	36079.92
566.824	35742
567.023	36286.76
567.222	35721.52
567.42	36016.43
567.619	35748.15
567.818	35942.7
568.016	35950.9
568.215	35725.62
568.414	35926.32
568.612	35830.07
568.811	35463.48
569.01	35696.95
569.208	35027.26
569.407	35582.26
569.605	34554.18
569.804	35172.67
570.002	34744.64
570.201	34949.44
570.4	34873.67
570.598	34732.36
570.797	34455.88
570.995	34869.57
571.193	34388.3
571.392	34363.72
571.59	34054.48
571.789	34210.12
571.987	34240.84
572.186	33878.35
572.384	33933.65
572.582	34142.54
572.781	34271.56
572.979	33229.15
573.177	33769.81
573.376	33669.46
573.574	33337.69
573.772	33427.8
573.971	33157.47
574.169	33147.23
574.367	33251.67
574.565	33235.29
574.763	32930.14
574.962	32686.43
575.16	32282.98
575.358	32733.54
575.556	32227.69
575.754	32604.52
575.952	31920.49
576.151	32182.63
576.349	32078.19
576.547	32139.63
576.745	31820.14
576.943	31801.71
577.141	31721.84
577.339	31959.41
577.537	31717.75
577.735	31564.15
577.933	31576.44
578.131	31637.87
578.329	31150.46
578.527	31259
578.725	31095.16
578.923	31269.24
579.121	30785.92
579.319	30871.93
579.516	31310.2
579.714	30753.15
579.912	30839.17
580.11	30267.78
580.308	30302.6
580.506	30638.47
580.704	30044.55
580.901	30441.86
581.099	30400.9
581.297	29936.01
581.495	29827.47
581.692	29596.05
581.89	29942.16
582.088	29759.89
582.285	29460.88
582.483	29845.9
582.681	29430.16
582.878	29286.81
583.076	29008.28
583.274	29172.12
583.471	28731.81
583.669	28993.95
583.866	29239.7
584.064	28889.5
584.262	28449.19
584.459	28899.74
584.657	28901.79
584.854	28707.23
585.052	28201.38
585.249	28717.47
585.447	28168.62
585.644	28072.36
585.841	28451.24
586.039	28402.08
586.236	27666.86
586.434	27994.54
586.631	27658.67
586.828	27951.53
587.026	27683.25
587.223	27546.03
587.42	27224.5
587.618	27738.54
587.815	27181.49
588.012	27242.93
588.21	27216.31
588.407	27339.19
588.604	26835.39
588.801	26825.15
588.999	26749.37
589.196	26982.84
589.393	26825.15
589.59	26403.27
589.787	26321.35
589.984	26411.46
590.182	26221
590.379	26347.97
590.576	26202.57
590.773	25938.38
590.97	26063.3
591.167	26132.93
591.364	25702.86
591.561	25680.33
591.758	25551.31
591.955	25455.06
592.152	25752.01
592.349	25225.68
592.546	25670.09
592.743	25428.43
592.94	25096.66
593.137	25461.2
593.334	25121.24
593.531	24797.66
593.727	25031.13
593.924	25096.66
594.121	24869.34
594.318	24863.19
594.515	24347.11
594.712	24607.2
594.908	24615.39
595.105	24973.78
595.302	24525.28
595.499	24492.51
595.696	24254.95
595.892	24195.56
596.089	24306.15
596.286	24254.95
596.482	24289.76
596.679	24207.84
596.876	24064.49
597.072	23935.46
597.269	23693.8
597.466	23722.48
597.662	23677.42
597.859	23607.79
598.055	23607.79
598.252	23126.52
598.448	23302.64
598.645	23290.35
598.841	23036.41
599.038	23284.21
599.234	23046.65
599.431	23058.93
599.627	23185.91
599.824	23163.38
600.02	22804.99
600.217	22579.71
600.413	22628.86
600.609	22667.77
600.806	22254.08
601.002	22391.3
601.198	22594.04
601.395	22499.84
601.591	22411.78
601.787	22219.27
601.984	21910.02
602.18	22032.9
602.376	22080
602.572	21787.14
602.769	21959.17
602.965	21854.73
603.161	22143.49
603.357	21742.09
603.553	21412.37
603.75	21514.77
603.946	21287.44
604.142	21477.9
604.338	20937.24
604.534	21453.33
604.73	21023.25
604.926	21131.79
605.122	21240.34
605.318	20580.89
605.514	20591.13
605.71	20668.95
605.906	20519.45
606.102	20685.34
606.298	20552.22
606.494	20361.76
606.69	20677.15
606.886	20380.19
607.082	20122.15
607.278	20556.32
607.474	20109.86
607.67	20314.66
607.866	20138.53
608.062	20187.68
608.257	19982.88
608.453	20161.06
608.649	19962.4
608.845	19669.55
609.041	19649.07
609.236	19714.6
609.432	19630.63
609.628	19644.97
609.824	19515.95
610.019	19368.49
610.215	19513.9
610.411	19593.77
610.606	19137.07
610.802	19225.14
610.998	19321.39
611.193	19411.5
611.389	19145.27
611.584	19051.06
611.78	18924.08
611.976	19104.31
612.171	18946.61
612.367	18725.43
612.562	18965.04
612.758	18467.39
612.953	18702.9
613.149	18881.08
613.344	18590.27
613.539	18747.96
613.735	18446.91
613.93	18403.9
614.126	18483.77
614.321	18602.55
614.517	18459.2
614.712	18135.62
614.907	18219.58
615.103	18145.86
615.298	18340.41
615.493	18281.02
615.688	18084.42
615.884	18502.2
616.079	17957.44
616.274	18123.33
616.47	18108.99
616.665	17912.39
616.86	17687.11
617.055	18106.95
617.25	17687.11
617.445	17728.07
617.641	17486.41
617.836	17449.55
618.031	17637.96
618.226	17762.89
618.421	17308.24
618.616	17814.09
618.811	17302.09
619.006	17267.28
619.201	17080.91
619.396	17171.02
619.591	16667.22
619.786	17128.02
619.981	16550.49
620.176	17121.87
620.371	16667.22
620.566	16945.75
620.761	16724.57
620.956	16722.52
621.151	16265.82
621.346	16308.83
621.541	15995.49
621.735	16353.88
621.93	15878.76
622.125	16159.33
622.32	15876.71
622.515	15805.03
622.709	15719.01
622.904	15770.21
623.099	15587.94
623.294	15583.85
623.488	15176.3
623.683	15450.73
623.878	15151.73
624.072	15252.08
624.267	15086.19
624.462	15174.25
624.656	15086.19
624.851	14848.63
625.046	14793.33
625.24	14776.95
625.435	14774.9
625.629	14635.64
625.824	14647.93
626.018	14477.94
626.213	14123.65
626.407	14357.11
626.602	13929.09
626.796	13994.62
626.991	13943.42
627.185	14129.79
627.38	13843.07
627.574	13798.02
627.768	13638.28
627.963	13705.86
628.157	13435.53
628.352	13550.21
628.546	13226.64
628.74	13494.92
628.935	13175.44
629.129	13245.07
629.323	13351.56
629.517	13007.5
629.712	12901.01
629.906	13066.89
630.1	12583.57
630.294	12894.86
630.489	12692.12
630.683	12597.91
630.877	12425.88
631.071	12325.53
631.265	12407.45
631.459	12602.01
631.653	12313.24
631.848	12413.59
632.042	12249.75
632.236	12255.9
632.43	11954.85
632.624	12067.49
632.818	11846.3
633.012	11655.84
633.206	11745.95
633.4	11960.99
633.594	11637.41
633.788	11598.5
633.982	11541.16
634.176	11559.59
634.369	11430.57
634.563	11395.75
634.757	11332.26
634.951	11338.41
635.145	11217.58
635.339	11221.67
635.533	11166.38
635.726	11053.74
635.92	10947.25
636.114	10824.37
636.308	11045.55
636.501	10724.02
636.695	10648.24
636.889	10617.52
637.083	10592.95
637.276	10414.77
637.47	10402.49
637.664	10558.13
637.857	10517.17
638.051	10365.62
638.244	10199.74
638.438	10062.52
638.632	10230.46
638.825	9996.99
639.019	9980.61
639.212	10103.48
639.406	9980.61
639.599	9996.99
639.793	9984.7
639.986	9732.8
640.18	9761.47
640.373	9810.62
640.567	9540.29
640.76	9513.67
640.954	9458.37
641.147	9521.86
641.34	9446.09
641.534	9454.28
641.727	9384.65
641.92	9192.14
642.114	9169.61
642.307	9036.49
642.5	9085.64
642.694	9073.35
642.887	8856.27
643.08	8952.52
643.273	8886.99
643.467	8952.52
643.66	8721.1
643.853	8725.2
644.046	8702.67
644.239	8495.83
644.432	8544.98
644.626	8430.29
644.819	8479.44
645.012	8551.12
645.205	8411.86
645.398	8375
645.591	8401.62
645.784	8407.77
645.977	8106.71
646.17	8284.89
646.363	7813.85
646.556	7914.2
646.749	8162.01
646.942	7949.02
647.135	7820
647.328	7889.63
647.521	7693.02
647.714	7629.54
647.907	7723.74
648.099	7570.15
648.292	7615.2
648.485	7570.15
648.678	7547.62
648.871	7379.68
649.064	7447.27
649.256	7488.23
649.449	7246.57
649.642	7402.21
649.835	7301.86
650.027	7228.14
650.22	7299.81
650.413	7203.56
650.605	7103.21
650.798	7189.22
650.991	7029.48
651.183	7037.67
651.376	6904.56
651.568	6953.71
651.761	6890.22
651.954	6937.32
652.146	6732.53
652.339	6816.49
652.531	6775.53
652.724	6759.15
652.916	6437.62
653.109	6650.61
653.301	6644.46
653.494	6404.85
653.686	6435.57
653.879	6451.95
654.071	6380.28
654.263	6277.88
654.456	6316.79
654.648	6216.44
654.84	5991.16
655.033	6302.45
655.225	6030.07
655.417	6404.85
655.61	6107.9
655.802	5950.2
655.994	5968.63
656.186	6140.66
656.379	5894.91
656.571	5780.22
656.763	5933.82
656.955	5958.39
657.148	5815.04
657.34	5786.37
657.532	5667.58
657.724	5688.06
657.916	5694.21
658.108	5608.19
658.3	5630.72
658.492	5659.39
658.684	5528.32
658.876	5575.42
659.068	5475.07
659.26	5274.37
659.452	5401.35
659.644	5329.67
659.836	5233.41
660.028	5366.53
660.22	5190.41
660.412	5110.54
660.604	5167.88
660.796	5266.18
660.988	5200.65
661.18	5006.09
661.372	4997.9
661.563	5110.54
661.755	4954.89
661.947	5061.38
662.139	4922.12
662.331	4856.59
662.522	4899.59
662.714	4827.92
662.906	4897.55
663.097	4832.01
663.289	4776.72
663.481	4727.57
663.673	4766.48
663.864	4590.35
664.056	4670.22
664.247	4569.87
664.439	4565.78
664.631	4563.73
664.822	4557.58
665.014	4608.78
665.205	4451.09
665.397	4545.3
665.588	4547.34
665.78	4426.51
665.971	4492.05
666.163	4385.55
666.354	4354.83
666.546	4344.6
666.737	4442.9
666.929	4326.16
667.12	4152.09
667.311	4340.5
667.503	4242.2
667.694	4074.26
667.885	4379.41
668.077	4100.89
668.268	4121.37
668.459	4188.95
668.651	3955.48
668.842	4119.32
669.033	4002.58
669.224	4023.06
669.416	4119.32
669.607	3894.04
669.798	3808.03
669.989	3988.25
670.18	3986.2
670.371	3834.65
670.563	3957.53
670.754	3998.49
670.945	3803.93
671.136	3810.08
671.327	3767.07
671.518	3859.23
671.709	3762.97
671.9	3777.31
672.091	3687.2
672.282	3789.6
672.473	3713.82
672.664	3779.36
672.855	3597.09
673.046	3631.9
673.237	3621.66
673.428	3740.44
673.619	3515.17
673.809	3558.18
674	3625.76
674.191	3525.41
674.382	3560.22
674.573	3523.36
674.764	3570.46
674.954	3525.41
675.145	3425.06
675.336	3513.12
675.527	3603.23
675.717	3400.48
675.908	3423.01
676.099	3330.85
676.289	3308.32
676.48	3433.25
676.671	3412.77
676.861	3314.47
677.052	3375.91
677.243	3300.13
677.433	3324.71
677.624	3320.61
677.814	3377.95
678.005	3334.95
678.195	3310.37
678.386	3277.6
678.576	3300.13
678.767	3255.08
678.957	3353.38
679.148	3336.99
679.338	3275.56
679.529	3257.12
679.719	3130.15
679.909	3263.27
680.1	3177.25
680.29	3169.06
680.481	3285.8
680.671	3109.67
680.861	3240.74
681.052	3207.97
681.242	3124.01
681.432	3162.92
681.622	3124.01
681.813	3072.81
682.003	3152.68
682.193	2992.94
682.383	3054.37
682.573	3107.62
682.764	3087.14
682.954	2964.26
683.144	3019.56
683.334	3001.13
683.524	2990.89
683.714	2925.35
683.904	3027.75
684.094	3068.71
684.284	2937.64
684.474	3033.9
684.664	2974.5
684.854	2994.98
685.044	3003.18
685.234	2908.97
685.424	2865.96
685.614	2878.25
685.804	2874.15
685.994	2884.39
686.184	2964.26
686.374	3019.56
686.564	3013.42
686.753	3040.04
686.943	2888.49
687.133	2906.92
687.323	2831.15
687.513	2808.62
687.702	2992.94
687.892	2814.76
688.082	2913.06
688.272	2857.77
688.461	3013.42
688.651	2800.43
688.841	2863.91
689.03	2853.67
689.22	2825
689.41	2708.27
689.599	2788.14
689.789	2788.14
689.979	2663.21
690.168	2777.9
690.358	2710.32
690.547	2827.05
690.737	2659.12
690.926	2691.88
691.116	2677.55
691.305	2835.24
691.495	2792.23
691.684	2857.77
691.874	2589.49
692.063	2628.4
692.252	2816.81
692.442	2806.57
692.631	2714.41
692.82	2759.47
693.01	2667.31
693.199	2687.79
693.388	2722.6
693.578	2759.47
693.767	2718.51
693.956	2786.09
694.146	2687.79
694.335	2677.55
694.524	2702.12
694.713	2616.11
694.902	2675.5
695.092	2820.91
695.281	2663.21
695.47	2761.52
695.659	2767.66
695.848	2726.7
696.037	2800.43
696.226	2575.15
696.415	2636.59
696.604	2693.93
696.793	2753.32
696.982	2726.7
697.171	2595.63
697.36	2552.62
697.549	2749.23
697.738	2691.88
697.927	2601.77
698.116	2659.12
698.305	2614.06
698.494	2657.07
698.683	2612.01
698.872	2515.76
699.061	2667.31
699.25	2644.78
699.438	2683.69
699.627	2605.87
699.816	2757.42
700.005	2622.25
700.193	2655.02
700.382	2679.6
700.571	2603.82
700.76	2669.36
700.948	2538.29
701.137	2595.63
701.326	2683.69
701.514	2632.49
701.703	2550.57
701.892	2491.18
702.08	2612.01
702.269	2589.49
702.457	2587.44
702.646	2575.15
702.834	2511.66
703.023	2636.59
703.212	2569.01
703.4	2497.33
703.589	2636.59
703.777	2513.71
703.965	2493.23
704.154	2605.87
704.342	2552.62
704.531	2491.18
704.719	2407.22
704.907	2579.25
705.096	2423.6
705.284	2444.08
705.472	2485.04
705.661	2501.42
705.849	2517.81
706.037	2464.56
706.226	2448.18
706.414	2401.07
706.602	2353.97
706.79	2366.26
706.979	2536.24
707.167	2351.92
707.355	2347.83
707.543	2290.48
707.731	2388.78
707.919	2437.94
708.107	2356.02
708.296	2321.2
708.484	2366.26
708.672	2403.12
708.86	2296.63
709.048	2249.52
709.236	2339.63
709.424	2335.54
709.612	2257.71
709.8	2212.66
709.988	2194.23
710.176	2190.13
710.364	2206.52
710.551	2280.24
710.739	2239.28
710.927	2302.77
711.115	2138.93
711.303	2169.65
711.491	2249.52
711.679	2169.65
711.866	2183.99
712.054	2251.57
712.242	2128.69
712.43	2235.19
712.617	2138.93
712.805	2171.7
712.993	2194.23
713.181	2083.64
713.368	2048.82
713.556	2097.97
713.744	2069.3
713.931	2007.86
714.119	2095.93
714.306	2091.83
714.494	2136.88
714.682	2138.93
714.869	2145.08
715.057	2087.73
715.244	1973.05
715.432	1981.24
715.619	2050.87
715.807	2108.21
715.994	2038.58
716.182	1930.04
716.369	1956.66
716.556	1940.28
716.744	1966.9
716.931	2001.72
717.119	2014.01
717.306	1903.42
717.493	2030.39
717.681	1927.99
717.868	1936.18
718.055	1940.28
718.242	1907.51
718.43	1993.53
718.617	1835.83
718.804	1905.46
718.991	1944.38
719.179	1837.88
719.366	1874.74
719.553	1758.01
719.74	1903.42
719.927	1786.68
720.114	1829.69
720.301	1829.69
720.488	1809.21
720.676	1796.92
720.863	1792.83
721.05	1788.73
721.237	1782.59
721.424	1803.07
721.611	1905.46
721.798	1717.05
721.985	1839.93
722.172	1727.29
722.358	1657.66
722.545	1743.67
722.732	1796.92
722.919	1796.92
723.106	1747.77
723.293	1659.71
723.48	1772.35
723.667	1612.6
723.853	1641.28
724.04	1755.96
724.227	1645.37
724.414	1641.28
724.6	1493.82
724.787	1653.56
724.974	1674.04
725.161	1635.13
725.347	1676.09
725.534	1661.76
725.72	1633.08
725.907	1540.93
726.094	1614.65
726.28	1512.25
726.467	1549.12
726.653	1489.73
726.84	1633.08
727.027	1672
727.213	1485.63
727.4	1602.36
727.586	1508.16
727.773	1588.03
727.959	1596.22
728.145	1571.65
728.332	1571.65
728.518	1514.3
728.705	1628.99
728.891	1559.36
729.077	1495.87
729.264	1538.88
729.45	1499.97
729.636	1491.77
729.823	1536.83
730.009	1436.48
730.195	1528.64
730.382	1518.4
730.568	1518.4
730.754	1499.97
730.94	1485.63
731.126	1551.17
731.313	1463.1
731.499	1424.19
731.685	1377.09
731.871	1391.42
732.057	1477.44
732.243	1497.92
732.429	1411.9
732.615	1485.63
732.801	1469.25
732.987	1389.38
733.173	1377.09
733.359	1465.15
733.545	1405.76
733.731	1346.37
733.917	1499.97
734.103	1389.38
734.289	1340.22
734.475	1393.47
734.661	1405.76
734.847	1368.9
735.033	1358.66
735.219	1413.95
735.404	1391.42
735.59	1379.14
735.776	1321.79
735.962	1305.41
736.148	1424.19
736.333	1237.83
736.519	1313.6
736.705	1346.37
736.89	1383.23
737.076	1418.05
737.262	1352.51
737.447	1323.84
737.633	1344.32
737.819	1289.03
738.004	1213.25
738.19	1246.02
738.375	1344.32
738.561	1379.14
738.747	1188.68
738.932	1270.59
739.118	1286.98
739.303	1182.53
739.489	1225.54
739.674	1264.45
739.859	1219.39
740.045	1284.93
740.23	1268.55
740.416	1317.7
740.601	1286.98
740.786	1121.09
740.972	1080.13
741.157	1141.57
741.342	1221.44
741.528	1182.53
741.713	1217.35
741.898	1147.72
742.084	1096.52
742.269	1162.05
742.454	1143.62
742.639	1160
742.824	1211.2
743.01	1100.61
743.195	1147.72
743.38	1110.85
743.565	1043.27
743.75	1065.8
743.935	1127.24
744.12	1133.38
744.305	1094.47
744.49	1100.61
744.675	1035.08
744.86	1022.79
745.045	1096.52
745.23	1108.8
745.415	1098.56
745.6	1069.89
745.785	1000.26
745.97	1088.32
746.155	1037.13
746.34	1051.46
746.525	1059.65
746.71	1049.41
746.895	1061.7
747.079	1065.8
747.264	1010.5
747.449	1051.46
747.634	994.12
747.819	951.11
748.003	985.93
748.188	1051.46
748.373	1010.5
748.557	897.86
748.742	932.68
748.927	1033.03
749.111	932.68
749.296	910.15
749.481	975.69
749.665	889.67
749.85	891.72
750.034	932.68
750.219	992.07
750.404	918.34
750.588	947.01
750.773	867.14
750.957	912.2
751.141	846.66
751.326	869.19
751.51	865.1
751.695	889.67
751.879	852.81
752.064	817.99
752.248	904.01
752.432	865.1
752.617	809.8
752.801	838.47
752.985	828.23
753.17	807.75
753.354	895.82
753.538	721.74
753.722	789.32
753.907	856.9
754.091	834.38
754.275	783.18
754.459	795.47
754.643	875.34
754.828	817.99
755.012	752.46
755.196	729.93
755.38	748.36
755.564	748.36
755.748	777.03
755.932	752.46
756.116	701.26
756.3	637.77
756.484	803.66
756.668	772.94
756.852	727.88
757.036	713.55
757.22	723.79
757.404	672.59
757.588	635.72
757.772	697.16
757.956	789.32
758.14	625.48
758.323	693.07
758.507	629.58
758.691	744.27
758.875	721.74
759.059	615.24
759.242	594.76
759.426	674.64
759.61	725.83
759.794	693.07
759.977	625.48
760.161	738.12
760.345	711.5
760.528	641.87
760.712	639.82
760.895	617.29
761.079	674.64
761.263	662.35
761.446	592.72
761.63	605
761.813	541.52
761.997	574.28
762.18	639.82
762.364	588.62
762.547	602.96
762.731	586.57
762.914	547.66
763.098	588.62
763.281	592.72
763.464	566.09
763.648	596.81
763.831	531.28
764.015	518.99
764.198	596.81
764.381	609.1
764.564	641.87
764.748	545.61
764.931	629.58
765.114	564.04
765.297	578.38
765.481	508.75
765.664	541.52
765.847	508.75
766.03	551.76
766.213	525.13
766.397	564.04
766.58	529.23
766.763	559.95
766.946	533.33
767.129	508.75
767.312	600.91
767.495	471.89
767.678	551.76
767.861	535.37
768.044	537.42
768.227	557.9
768.41	541.52
768.593	504.65
768.776	506.7
768.959	455.5
769.142	486.22
769.324	594.76
769.507	529.23
769.69	484.17
769.873	568.14
770.056	541.52
770.239	551.76
770.421	539.47
770.604	478.03
770.787	613.2
770.97	562
771.152	557.9
771.335	547.66
771.518	557.9
771.7	531.28
771.883	525.13
772.066	508.75
772.248	537.42
772.431	473.93
772.613	514.89
772.796	502.61
772.978	455.5
773.161	596.81
773.343	508.75
773.526	451.41
773.708	514.89
773.891	459.6
774.073	424.78
774.256	482.13
774.438	480.08
774.621	482.13
774.803	545.61
774.985	400.21
775.168	469.84
775.35	439.12
775.532	482.13
775.715	467.79
775.897	435.02
776.079	504.65
776.261	367.44
776.444	494.41
776.626	459.6
776.808	387.92
776.99	430.93
777.173	488.27
777.355	449.36
777.537	512.85
777.719	314.19
777.901	377.68
778.083	359.25
778.265	394.06
778.447	404.3
778.629	418.64
778.811	410.45
778.993	338.77
779.175	392.02
779.357	383.82
779.539	394.06
779.721	402.26
779.903	363.34
780.085	398.16
780.267	420.69
780.449	340.82
780.631	379.73
780.812	340.82
780.994	320.34
781.176	375.63
781.358	349.01
781.54	344.91
781.721	420.69
781.903	306
782.085	312.14
782.267	355.15
782.448	281.43
782.63	328.53
782.812	326.48
782.993	303.95
783.175	334.67
783.357	351.06
783.538	258.9
783.72	330.58
783.901	361.3
784.083	297.81
784.264	351.06
784.446	281.43
784.627	306
784.809	406.35
784.99	379.73
785.172	273.23
785.353	301.9
785.535	224.08
785.716	205.65
785.897	295.76
786.079	287.57
786.26	293.71
786.441	201.55
786.623	342.86
786.804	322.38
786.985	234.32
787.167	279.38
787.348	291.66
787.529	303.95
787.71	228.18
787.891	301.9
788.073	207.7
788.254	240.47
788.435	279.38
788.616	246.61
788.797	260.95
788.978	297.81
789.159	265.04
789.34	201.55
789.522	260.95
789.703	254.8
789.884	213.84
790.065	197.46
790.246	232.27
790.427	285.52
790.607	240.47
790.788	185.17
790.969	156.5
791.15	222.03
791.331	224.08
791.512	279.38
791.693	230.23
791.874	242.51
792.054	195.41
792.235	275.28
792.416	301.9
792.597	250.71
792.778	256.85
792.958	260.95
793.139	244.56
793.32	219.99
793.5	162.64
793.681	224.08
793.862	260.95
794.042	203.6
794.223	191.31
794.404	185.17
794.584	199.51
794.765	166.74
794.945	219.99
795.126	240.47
795.306	273.23
795.487	199.51
795.667	133.97
795.848	209.75
796.028	211.79
796.209	256.85
796.389	168.79
796.57	244.56
796.75	199.51
796.93	211.79
797.111	148.31
797.291	158.55
797.471	205.65
797.652	238.42
797.832	156.5
798.012	129.88
798.192	150.36
798.373	170.83
798.553	195.41
798.733	158.55
798.913	170.83
799.093	168.79
799.274	199.51
799.454	199.51
799.634	185.17
799.814	117.59
799.994	201.55
800.174	181.07
800.354	191.31
800.534	164.69
800.714	154.45
800.894	195.41
801.074	197.46
801.254	199.51
801.434	164.69
801.614	217.94
801.794	101.2
801.974	320.34
802.154	150.36
802.334	119.64
802.514	164.69
802.693	121.68
802.873	152.4
803.053	199.51
803.233	150.36
803.413	105.3
803.592	127.83
803.772	148.31
803.952	80.72
804.131	176.98
804.311	97.11
804.491	129.88
804.67	209.75
804.85	121.68
805.03	168.79
805.209	117.59
805.389	140.12
805.568	136.02
805.748	115.54
805.928	160.59
806.107	125.78
806.287	150.36
806.466	90.96
806.646	113.49
806.825	197.46
807.004	119.64
807.184	136.02
807.363	183.12
807.543	133.97
807.722	117.59
807.901	107.35
808.081	158.55
808.26	88.92
808.439	158.55
808.619	115.54
808.798	142.16
808.977	142.16
809.156	146.26
809.336	125.78
809.515	129.88
809.694	111.44
809.873	176.98
810.052	78.68
810.231	183.12
810.411	74.58
810.59	133.97
810.769	117.59
810.948	117.59
811.127	88.92
811.306	86.87
811.485	90.96
811.664	88.92
811.843	66.39
812.022	105.3
812.201	154.45
812.38	136.02
812.559	187.22
812.737	170.83
812.916	150.36
813.095	117.59
813.274	23.38
813.453	127.83
813.632	115.54
813.811	140.12
813.989	72.53
814.168	131.92
814.347	68.44
814.526	125.78
814.704	93.01
814.883	84.82
815.062	84.82
815.24	52.05
815.419	52.05
815.598	109.4
815.776	138.07
815.955	123.73
816.133	56.15
816.312	99.16
816.49	66.39
816.669	117.59
816.847	17.24
817.026	174.93
817.204	113.49
817.383	150.36
817.561	88.92
817.74	148.31
817.918	93.01
818.097	64.34
818.275	84.82
818.453	68.44
818.632	127.83
818.81	21.33
818.988	29.52
819.167	88.92
819.345	109.4
819.523	117.59
819.701	80.72
819.879	74.58
820.058	105.3
820.236	84.82
820.414	76.63
820.592	121.68
820.77	76.63
820.948	146.26
821.127	99.16
821.305	88.92
821.483	146.26
821.661	115.54
821.839	99.16
822.017	43.86
822.195	23.38
822.373	29.52
822.551	76.63
822.729	19.29
822.907	136.02
823.085	72.53
823.262	33.62
823.44	101.2
823.618	43.86
823.796	109.4
823.974	35.67
824.152	90.96
824.329	113.49
824.507	19.29
824.685	99.16
824.863	119.64
825.04	154.45
825.218	105.3
825.396	64.34
825.574	78.68
825.751	121.68
825.929	80.72
826.107	95.06
826.284	66.39
826.462	66.39
826.639	70.48
826.817	29.52
826.994	41.81
827.172	127.83
827.349	101.2
827.527	27.48
827.704	105.3
827.882	86.87
828.059	88.92
828.237	60.24
828.414	154.45
828.591	76.63
828.769	47.96
828.946	2.9
829.124	129.88
829.301	107.35
829.478	33.62
829.655	99.16
829.833	39.76
830.01	64.34
830.187	99.16
830.364	37.72
830.542	47.96
830.719	105.3
830.896	84.82
831.073	39.76
831.25	56.15
831.427	-15.53
831.604	54.1
831.782	58.2
831.959	37.72
832.136	50
832.313	11.09
832.49	62.29
832.667	80.72
832.844	82.77
833.021	35.67
833.198	31.57
833.374	82.77
833.551	29.52
833.728	25.43
833.905	2.9
834.082	37.72
834.259	60.24
834.436	41.81
834.612	99.16
834.789	80.72
834.966	33.62
835.143	95.06
835.319	54.1
835.496	54.1
835.673	47.96
835.85	56.15
836.026	43.86
836.203	66.39
836.38	-9.39
836.556	27.48
836.733	70.48
836.909	90.96
837.086	41.81
837.262	72.53
837.439	-33.96
837.616	50
837.792	64.34
837.968	74.58
838.145	58.2
838.321	80.72
838.498	68.44
838.674	86.87
838.851	54.1
839.027	33.62
839.203	97.11
839.38	62.29
839.556	45.91
839.732	47.96
839.909	27.48
840.085	93.01
840.261	66.39
840.437	56.15
840.614	52.05
840.79	70.48
840.966	-1.19
841.142	-11.43
841.318	93.01
841.494	45.91
841.671	37.72
841.847	72.53
842.023	68.44
842.199	17.24
842.375	90.96
842.551	72.53
842.727	56.15
842.903	62.29
843.079	80.72
843.255	78.68
843.431	72.53
843.607	74.58
843.783	7
843.959	52.05
844.134	2.9
844.31	35.67
844.486	7
844.662	11.09
844.838	72.53
845.013	68.44
845.189	17.24
845.365	41.81
845.541	39.76
845.716	43.86
845.892	133.97
846.068	52.05
846.244	27.48
846.419	88.92
846.595	-29.87
846.77	84.82
846.946	-1.19
847.122	105.3
847.297	86.87
847.473	-7.34
847.648	99.16
847.824	13.14
847.999	-31.91
848.175	60.24
848.35	13.14
848.526	43.86
848.701	-17.58
848.876	88.92
849.052	-5.29
849.227	15.19
849.403	-42.15
849.578	45.91
849.753	45.91
849.929	86.87
850.104	82.77
850.279	62.29
850.454	64.34
850.63	23.38
850.805	9.05
850.98	66.39
851.155	-31.91
851.33	66.39
851.505	45.91
851.681	39.76
851.856	19.29
852.031	2.9
852.206	88.92
852.381	99.16
852.556	47.96
852.731	66.39
852.906	66.39
853.081	43.86
853.256	21.33
853.431	95.06
853.606	66.39
853.781	-7.34
853.956	2.9
854.131	-19.63
854.305	-64.68
854.48	105.3
854.655	19.29
854.83	64.34
855.005	-5.29
855.18	25.43
855.354	-27.82
855.529	17.24
855.704	41.81
855.879	47.96
856.053	43.86
856.228	127.83
856.403	-5.29
856.577	97.11
856.752	9.05
856.926	88.92
857.101	13.14
857.276	76.63
857.45	43.86
857.625	13.14
857.799	35.67
857.974	64.34
858.148	4.95
858.323	-19.63
858.497	23.38
858.672	37.72
858.846	68.44
859.02	-5.29
859.195	11.09
859.369	29.52
859.543	-46.25
859.718	41.81
859.892	11.09
860.066	52.05
860.241	-38.06
860.415	52.05
860.589	66.39
860.763	33.62
860.938	-11.43
861.112	-23.72
861.286	88.92
861.46	60.24
861.634	-9.39
861.808	35.67
861.982	17.24
862.157	-27.82
862.331	62.29
862.505	111.44
862.679	2.9
862.853	74.58
863.027	45.91
863.201	64.34
863.375	60.24
863.549	11.09
863.722	47.96
863.896	45.91
864.07	39.76
864.244	78.68
864.418	2.9
864.592	-48.3
864.766	33.62
864.939	23.38
865.113	15.19
865.287	54.1
865.461	109.4
865.634	27.48
865.808	13.14
865.982	72.53
866.156	-19.63
866.329	37.72
866.503	21.33
866.676	-1.19
866.85	19.29
867.024	54.1
867.197	29.52
867.371	4.95
867.544	11.09
867.718	17.24
867.891	-52.39
868.065	-15.53
868.238	76.63
868.412	33.62
868.585	11.09
868.759	29.52
868.932	15.19
869.105	21.33
869.279	37.72
869.452	52.05
869.625	29.52
869.799	11.09
869.972	41.81
870.145	60.24
870.319	66.39
870.492	56.15
870.665	64.34
870.838	0.85
871.011	52.05
871.185	29.52
871.358	2.9
871.531	21.33
871.704	43.86
871.877	-25.77
872.05	17.24
872.223	-52.39
872.396	47.96
872.569	0.85
872.742	-23.72
872.915	2.9
873.088	-54.44
873.261	50
873.434	56.15
873.607	27.48
873.78	86.87
873.953	-38.06
874.126	33.62
874.299	45.91
874.471	13.14
874.644	-9.39
874.817	9.05
874.99	50
875.163	-9.39
875.335	103.25
875.508	50
875.681	23.38
875.853	54.1
876.026	15.19
876.199	60.24
876.371	25.43
876.544	19.29
876.717	-3.24
876.889	66.39
877.062	-42.15
877.234	31.57
877.407	21.33
877.579	-9.39
877.752	-9.39
877.924	70.48
878.097	74.58
878.269	45.91
878.442	47.96
878.614	45.91
878.786	41.81
878.959	-3.24
879.131	13.14
879.303	86.87
879.476	-1.19
879.648	13.14
879.82	-21.67
879.993	29.52
880.165	11.09
880.337	17.24
880.509	35.67
880.681	31.57
880.854	66.39
881.026	-72.87
881.198	60.24
881.37	-48.3
881.542	52.05
881.714	-46.25
881.886	45.91
882.058	-9.39
882.23	29.52
882.402	-29.87
882.574	66.39
882.746	23.38
882.918	109.4
883.09	19.29
883.262	41.81
883.434	-29.87
883.606	-38.06
883.778	-27.82
883.95	70.48
884.122	-27.82
884.293	23.38
884.465	4.95
884.637	84.82
884.809	64.34
884.98	66.39
885.152	-25.77
885.324	39.76
885.496	70.48
885.667	13.14
885.839	-17.58
886.011	19.29
886.182	50
886.354	37.72
886.525	29.52
886.697	13.14
886.869	43.86
887.04	2.9
887.212	47.96
887.383	56.15
887.555	21.33
887.726	17.24
887.897	45.91
888.069	50
888.24	74.58
888.412	52.05
888.583	-62.63
888.754	-13.48
888.926	52.05
889.097	35.67
889.268	-3.24
889.44	11.09
889.611	-1.19
889.782	-46.25
889.953	13.14
890.125	66.39
890.296	-9.39
890.467	54.1
890.638	-11.43
890.809	25.43
890.98	15.19
891.151	-36.01
891.323	58.2
891.494	-40.11
891.665	35.67
891.836	7
892.007	37.72
892.178	0.85
892.349	45.91
892.52	-25.77
892.691	47.96
892.862	39.76
893.032	45.91
893.203	-23.72
893.374	50
893.545	45.91
893.716	41.81
893.887	0.85
894.057	23.38
894.228	17.24
894.399	-58.54
894.57	7
894.74	-25.77
894.911	11.09
895.082	52.05
895.253	-15.53
895.423	-1.19
895.594	-11.43
895.764	27.48
895.935	31.57
896.106	29.52
896.276	66.39
896.447	43.86
896.617	-3.24
896.788	72.53
896.958	31.57
897.129	68.44
897.299	23.38
897.47	19.29
897.64	62.29
897.81	66.39
897.981	62.29
898.151	11.09
898.322	7
898.492	0.85
898.662	-1.19
898.832	11.09
899.003	-33.96
899.173	-11.43
899.343	31.57
899.513	45.91
