Data from USB4F104151__129__13-57-59-117.txt Node

Date: Thu Mar 13 13:57:59 EDT 2025
User: louis
Spectrometer: USB4F10415
Trigger mode: 4
Integration Time (sec): 1.000000E-2
Scans to average: 1
Electric dark correction enabled: true
Nonlinearity correction enabled: false
Boxcar width: 0
XAxis mode: Wavelengths
Number of Pixels in Spectrum: 3648
>>>>>Begin Spectral Data<<<<<
178.204	-63.49
178.424	-63.49
178.644	-63.49
178.864	-36.86
179.084	-45.06
179.304	73.73
179.524	47.1
179.744	-38.91
179.964	-20.48
180.184	34.82
180.404	10.24
180.624	-36.86
180.844	-24.58
181.064	-12.29
181.283	20.48
181.503	-34.82
181.723	-18.43
181.943	51.2
182.163	-4.1
182.383	-4.1
182.602	83.97
182.822	51.2
183.042	12.29
183.262	-51.2
183.482	47.1
183.701	28.67
183.921	81.92
184.141	28.67
184.361	40.96
184.58	43.01
184.8	12.29
185.02	8.19
185.239	92.16
185.459	69.63
185.679	77.82
185.898	14.34
186.118	12.29
186.338	65.53
186.557	24.58
186.777	92.16
186.997	67.58
187.216	59.39
187.436	55.3
187.655	53.25
187.875	2.05
188.095	36.86
188.314	79.87
188.534	10.24
188.753	24.58
188.973	55.3
189.192	-49.15
189.412	77.82
189.631	126.97
189.851	38.91
190.07	75.77
190.29	4.1
190.509	81.92
190.729	6.14
190.948	30.72
191.168	88.06
191.387	32.77
191.607	16.38
191.826	45.06
192.045	-57.34
192.265	83.97
192.484	49.15
192.704	4.1
192.923	-22.53
193.142	73.73
193.362	38.91
193.581	40.96
193.8	10.24
194.02	49.15
194.239	2.05
194.458	38.91
194.678	14.34
194.897	26.62
195.116	18.43
195.335	61.44
195.555	-51.2
195.774	-10.24
195.993	-2.05
196.212	77.82
196.432	-40.96
196.651	-32.77
196.87	-26.62
197.089	38.91
197.308	59.39
197.528	26.62
197.747	10.24
197.966	45.06
198.185	86.01
198.404	59.39
198.623	-51.2
198.842	32.77
199.062	-2.05
199.281	79.87
199.5	20.48
199.719	-16.38
199.938	38.91
200.157	38.91
200.376	20.48
200.595	75.77
200.814	-49.15
201.033	81.92
201.252	10.24
201.471	-22.53
201.69	10.24
201.909	36.86
202.128	-10.24
202.347	88.06
202.566	28.67
202.785	-8.19
203.004	-47.1
203.223	96.25
203.442	26.62
203.661	2.05
203.879	16.38
204.098	75.77
204.317	-6.14
204.536	-32.77
204.755	81.92
204.974	-28.67
205.193	63.49
205.411	79.87
205.63	55.3
205.849	81.92
206.068	0
206.287	26.62
206.505	-18.43
206.724	8.19
206.943	-10.24
207.162	67.58
207.381	26.62
207.599	-4.1
207.818	61.44
208.037	-36.86
208.255	-30.72
208.474	-12.29
208.693	-8.19
208.911	28.67
209.13	59.39
209.349	22.53
209.567	-20.48
209.786	22.53
210.005	55.3
210.223	61.44
210.442	24.58
210.661	-4.1
210.879	18.43
211.098	10.24
211.316	4.1
211.535	30.72
211.753	-32.77
211.972	114.69
212.191	36.86
212.409	65.53
212.628	55.3
212.846	59.39
213.065	59.39
213.283	67.58
213.502	8.19
213.72	2.05
213.938	-51.2
214.157	77.82
214.375	0
214.594	75.77
214.812	38.91
215.031	-28.67
215.249	2.05
215.467	79.87
215.686	100.35
215.904	43.01
216.122	6.14
216.341	59.39
216.559	-12.29
216.778	34.82
216.996	-12.29
217.214	-51.2
217.432	57.34
217.651	71.68
217.869	-14.34
218.087	36.86
218.306	59.39
218.524	118.78
218.742	2.05
218.96	88.06
219.179	-16.38
219.397	77.82
219.615	26.62
219.833	0
220.051	81.92
220.27	-14.34
220.488	47.1
220.706	67.58
220.924	-32.77
221.142	28.67
221.36	-77.82
221.578	43.01
221.796	43.01
222.015	67.58
222.233	47.1
222.451	24.58
222.669	38.91
222.887	26.62
223.105	104.45
223.323	65.53
223.541	45.06
223.759	57.34
223.977	18.43
224.195	10.24
224.413	0
224.631	24.58
224.849	24.58
225.067	28.67
225.285	61.44
225.503	81.92
225.721	-12.29
225.939	28.67
226.157	30.72
226.375	59.39
226.592	43.01
226.81	71.68
227.028	55.3
227.246	126.97
227.464	12.29
227.682	-12.29
227.9	40.96
228.117	6.14
228.335	20.48
228.553	36.86
228.771	14.34
228.989	86.01
229.206	26.62
229.424	63.49
229.642	4.1
229.86	65.53
230.077	30.72
230.295	-22.53
230.513	4.1
230.731	57.34
230.948	-4.1
231.166	-6.14
231.384	24.58
231.601	79.87
231.819	0
232.037	71.68
232.254	-10.24
232.472	10.24
232.689	40.96
232.907	65.53
233.125	24.58
233.342	55.3
233.56	-6.14
233.777	45.06
233.995	28.67
234.213	51.2
234.43	26.62
234.648	36.86
234.865	59.39
235.083	-61.44
235.3	47.1
235.518	43.01
235.735	32.77
235.953	59.39
236.17	20.48
236.388	6.14
236.605	8.19
236.822	-14.34
237.04	-22.53
237.257	-20.48
237.475	14.34
237.692	26.62
237.909	-24.58
238.127	4.1
238.344	53.25
238.562	83.97
238.779	43.01
238.996	81.92
239.214	43.01
239.431	59.39
239.648	-12.29
239.865	92.16
240.083	57.34
240.3	36.86
240.517	34.82
240.735	61.44
240.952	63.49
241.169	-16.38
241.386	40.96
241.603	-18.43
241.821	8.19
242.038	71.68
242.255	26.62
242.472	-34.82
242.689	-4.1
242.907	24.58
243.124	26.62
243.341	26.62
243.558	-6.14
243.775	18.43
243.992	16.38
244.209	36.86
244.426	47.1
244.643	51.2
244.86	53.25
245.078	51.2
245.295	47.1
245.512	18.43
245.729	30.72
245.946	108.54
246.163	79.87
246.38	43.01
246.597	10.24
246.814	65.53
247.031	36.86
247.248	45.06
247.464	-18.43
247.681	34.82
247.898	20.48
248.115	14.34
248.332	-90.11
248.549	49.15
248.766	26.62
248.983	63.49
249.2	36.86
249.417	8.19
249.633	55.3
249.85	-16.38
250.067	34.82
250.284	49.15
250.501	-24.58
250.717	71.68
250.934	38.91
251.151	51.2
251.368	10.24
251.585	57.34
251.801	94.21
252.018	38.91
252.235	43.01
252.451	59.39
252.668	65.53
252.885	57.34
253.102	18.43
253.318	22.53
253.535	30.72
253.752	43.01
253.968	32.77
254.185	12.29
254.401	40.96
254.618	34.82
254.835	-16.38
255.051	55.3
255.268	77.82
255.484	81.92
255.701	30.72
255.917	92.16
256.134	98.3
256.351	79.87
256.567	14.34
256.784	49.15
257	12.29
257.217	55.3
257.433	59.39
257.65	53.25
257.866	55.3
258.082	-10.24
258.299	100.35
258.515	90.11
258.732	59.39
258.948	-20.48
259.165	8.19
259.381	-43.01
259.597	-14.34
259.814	4.1
260.03	100.35
260.246	-40.96
260.463	2.05
260.679	-26.62
260.895	-16.38
261.112	4.1
261.328	-2.05
261.544	43.01
261.761	14.34
261.977	-2.05
262.193	2.05
262.409	69.63
262.626	30.72
262.842	34.82
263.058	-20.48
263.274	59.39
263.49	-4.1
263.707	26.62
263.923	6.14
264.139	36.86
264.355	57.34
264.571	45.06
264.787	75.77
265.004	24.58
265.22	86.01
265.436	59.39
265.652	61.44
265.868	36.86
266.084	69.63
266.3	2.05
266.516	53.25
266.732	32.77
266.948	43.01
267.164	77.82
267.38	81.92
267.596	55.3
267.812	30.72
268.028	94.21
268.244	20.48
268.46	18.43
268.676	59.39
268.892	59.39
269.108	32.77
269.324	43.01
269.54	-18.43
269.756	-30.72
269.972	55.3
270.188	12.29
270.403	6.14
270.619	-30.72
270.835	79.87
271.051	59.39
271.267	-10.24
271.483	-2.05
271.698	18.43
271.914	47.1
272.13	77.82
272.346	98.3
272.562	-10.24
272.777	83.97
272.993	-6.14
273.209	43.01
273.425	47.1
273.64	88.06
273.856	51.2
274.072	28.67
274.287	34.82
274.503	-20.48
274.719	81.92
274.934	59.39
275.15	30.72
275.366	16.38
275.581	-26.62
275.797	69.63
276.012	-67.58
276.228	12.29
276.444	47.1
276.659	45.06
276.875	59.39
277.09	38.91
277.306	-6.14
277.521	-12.29
277.737	2.05
277.952	32.77
278.168	30.72
278.383	53.25
278.599	-20.48
278.814	-10.24
279.03	28.67
279.245	88.06
279.461	102.4
279.676	32.77
279.892	8.19
280.107	71.68
280.322	16.38
280.538	-20.48
280.753	-26.62
280.969	-38.91
281.184	8.19
281.399	38.91
281.615	34.82
281.83	94.21
282.045	28.67
282.26	28.67
282.476	24.58
282.691	96.25
282.906	20.48
283.122	10.24
283.337	-12.29
283.552	61.44
283.767	51.2
283.983	20.48
284.198	18.43
284.413	53.25
284.628	26.62
284.843	8.19
285.058	18.43
285.274	-10.24
285.489	-12.29
285.704	55.3
285.919	55.3
286.134	77.82
286.349	96.25
286.564	45.06
286.779	-10.24
286.995	-10.24
287.21	30.72
287.425	-4.1
287.64	-30.72
287.855	47.1
288.07	-26.62
288.285	43.01
288.5	110.59
288.715	110.59
288.93	-6.14
289.145	-8.19
289.36	69.63
289.575	43.01
289.79	34.82
290.004	22.53
290.219	55.3
290.434	20.48
290.649	-2.05
290.864	79.87
291.079	-4.1
291.294	43.01
291.509	20.48
291.724	81.92
291.938	108.54
292.153	67.58
292.368	57.34
292.583	53.25
292.798	53.25
293.012	94.21
293.227	83.97
293.442	43.01
293.657	36.86
293.871	-10.24
294.086	26.62
294.301	69.63
294.516	26.62
294.73	40.96
294.945	-14.34
295.16	86.01
295.374	16.38
295.589	75.77
295.804	-77.82
296.018	36.86
296.233	102.4
296.447	-6.14
296.662	61.44
296.877	71.68
297.091	-18.43
297.306	18.43
297.52	20.48
297.735	-20.48
297.949	92.16
298.164	53.25
298.378	61.44
298.593	-14.34
298.807	45.06
299.022	12.29
299.236	18.43
299.451	49.15
299.665	-38.91
299.88	-22.53
300.094	0
300.309	40.96
300.523	-2.05
300.737	38.91
300.952	-12.29
301.166	67.58
301.381	55.3
301.595	30.72
301.809	12.29
302.024	14.34
302.238	-4.1
302.452	10.24
302.667	77.82
302.881	12.29
303.095	4.1
303.309	30.72
303.524	51.2
303.738	73.73
303.952	28.67
304.166	22.53
304.381	6.14
304.595	59.39
304.809	36.86
305.023	20.48
305.237	10.24
305.452	-12.29
305.666	79.87
305.88	18.43
306.094	2.05
306.308	36.86
306.522	18.43
306.736	45.06
306.95	53.25
307.164	59.39
307.379	-100.35
307.593	34.82
307.807	73.73
308.021	24.58
308.235	28.67
308.449	12.29
308.663	40.96
308.877	-4.1
309.091	75.77
309.305	63.49
309.519	34.82
309.733	16.38
309.947	26.62
310.161	-6.14
310.374	65.53
310.588	34.82
310.802	-2.05
311.016	86.01
311.23	18.43
311.444	55.3
311.658	61.44
311.872	92.16
312.085	40.96
312.299	118.78
312.513	18.43
312.727	129.02
312.941	73.73
313.154	26.62
313.368	49.15
313.582	-6.14
313.796	53.25
314.009	51.2
314.223	12.29
314.437	16.38
314.651	-24.58
314.864	26.62
315.078	129.02
315.292	2.05
315.505	51.2
315.719	51.2
315.933	34.82
316.146	-8.19
316.36	59.39
316.573	43.01
316.787	26.62
317.001	10.24
317.214	28.67
317.428	6.14
317.641	12.29
317.855	4.1
318.068	30.72
318.282	90.11
318.495	94.21
318.709	92.16
318.922	8.19
319.136	59.39
319.349	71.68
319.563	69.63
319.776	24.58
319.99	79.87
320.203	131.07
320.417	51.2
320.63	36.86
320.843	98.3
321.057	24.58
321.27	10.24
321.483	-32.77
321.697	102.4
321.91	32.77
322.124	55.3
322.337	57.34
322.55	67.58
322.763	67.58
322.977	-10.24
323.19	28.67
323.403	100.35
323.617	14.34
323.83	-4.1
324.043	45.06
324.256	40.96
324.469	0
324.683	75.77
324.896	51.2
325.109	45.06
325.322	49.15
325.535	34.82
325.748	-4.1
325.962	32.77
326.175	2.05
326.388	-2.05
326.601	59.39
326.814	6.14
327.027	-67.58
327.24	67.58
327.453	20.48
327.666	-55.3
327.879	16.38
328.092	59.39
328.305	4.1
328.518	73.73
328.731	-8.19
328.944	47.1
329.157	118.78
329.37	22.53
329.583	106.49
329.796	26.62
330.009	-30.72
330.222	104.45
330.435	75.77
330.648	-22.53
330.861	20.48
331.073	-22.53
331.286	83.97
331.499	24.58
331.712	49.15
331.925	28.67
332.138	135.17
332.35	108.54
332.563	-30.72
332.776	45.06
332.989	-38.91
333.202	-4.1
333.414	16.38
333.627	69.63
333.84	34.82
334.053	106.49
334.265	14.34
334.478	59.39
334.691	67.58
334.903	26.62
335.116	16.38
335.329	47.1
335.541	-22.53
335.754	53.25
335.966	43.01
336.179	81.92
336.392	98.3
336.604	67.58
336.817	-59.39
337.029	139.26
337.242	63.49
337.454	20.48
337.667	-18.43
337.88	36.86
338.092	43.01
338.305	81.92
338.517	38.91
338.729	26.62
338.942	43.01
339.154	26.62
339.367	34.82
339.579	75.77
339.792	57.34
340.004	28.67
340.217	63.49
340.429	96.25
340.641	36.86
340.854	102.4
341.066	63.49
341.278	16.38
341.491	43.01
341.703	30.72
341.915	36.86
342.128	38.91
342.34	53.25
342.552	75.77
342.764	73.73
342.977	122.88
343.189	34.82
343.401	4.1
343.613	51.2
343.826	100.35
344.038	32.77
344.25	83.97
344.462	45.06
344.674	145.41
344.886	49.15
345.099	96.25
345.311	69.63
345.523	49.15
345.735	8.19
345.947	18.43
346.159	18.43
346.371	71.68
346.583	-45.06
346.795	51.2
347.007	108.54
347.219	38.91
347.431	38.91
347.643	59.39
347.855	20.48
348.067	61.44
348.279	96.25
348.491	133.12
348.703	65.53
348.915	12.29
349.127	49.15
349.339	30.72
349.551	36.86
349.763	6.14
349.975	18.43
350.187	38.91
350.399	67.58
350.61	92.16
350.822	10.24
351.034	36.86
351.246	100.35
351.458	55.3
351.669	20.48
351.881	36.86
352.093	-8.19
352.305	88.06
352.517	47.1
352.728	106.49
352.94	118.78
353.152	51.2
353.363	-6.14
353.575	69.63
353.787	0
353.999	20.48
354.21	126.97
354.422	67.58
354.633	59.39
354.845	-14.34
355.057	57.34
355.268	65.53
355.48	53.25
355.692	16.38
355.903	0
356.115	38.91
356.326	-10.24
356.538	4.1
356.749	22.53
356.961	-6.14
357.172	69.63
357.384	73.73
357.595	26.62
357.807	6.14
358.018	-22.53
358.23	-2.05
358.441	51.2
358.653	65.53
358.864	86.01
359.075	96.25
359.287	55.3
359.498	63.49
359.709	45.06
359.921	36.86
360.132	63.49
360.344	6.14
360.555	36.86
360.766	83.97
360.977	53.25
361.189	126.97
361.4	43.01
361.611	69.63
361.823	55.3
362.034	0
362.245	32.77
362.456	61.44
362.667	79.87
362.879	57.34
363.09	73.73
363.301	-8.19
363.512	14.34
363.723	67.58
363.935	-28.67
364.146	83.97
364.357	47.1
364.568	22.53
364.779	-8.19
364.99	59.39
365.201	49.15
365.412	43.01
365.623	55.3
365.834	38.91
366.045	45.06
366.256	43.01
366.467	112.64
366.678	30.72
366.889	18.43
367.1	67.58
367.311	20.48
367.522	102.4
367.733	86.01
367.944	-40.96
368.155	38.91
368.366	30.72
368.577	26.62
368.788	40.96
368.999	38.91
369.209	59.39
369.42	88.06
369.631	92.16
369.842	67.58
370.053	79.87
370.264	20.48
370.474	63.49
370.685	47.1
370.896	61.44
371.107	26.62
371.317	108.54
371.528	71.68
371.739	40.96
371.95	131.07
372.16	55.3
372.371	26.62
372.582	-4.1
372.792	86.01
373.003	61.44
373.214	-2.05
373.424	65.53
373.635	49.15
373.846	108.54
374.056	-40.96
374.267	38.91
374.477	116.73
374.688	59.39
374.898	28.67
375.109	57.34
375.319	47.1
375.53	83.97
375.74	22.53
375.951	67.58
376.161	12.29
376.372	24.58
376.582	-24.58
376.793	55.3
377.003	26.62
377.214	98.3
377.424	65.53
377.635	57.34
377.845	6.14
378.055	92.16
378.266	53.25
378.476	47.1
378.686	102.4
378.897	120.83
379.107	110.59
379.317	26.62
379.528	59.39
379.738	67.58
379.948	4.1
380.158	51.2
380.369	53.25
380.579	55.3
380.789	47.1
380.999	49.15
381.21	92.16
381.42	59.39
381.63	-4.1
381.84	53.25
382.05	71.68
382.261	22.53
382.471	94.21
382.681	51.2
382.891	79.87
383.101	118.78
383.311	14.34
383.521	57.34
383.731	47.1
383.941	55.3
384.151	4.1
384.361	34.82
384.571	63.49
384.781	53.25
384.991	43.01
385.201	43.01
385.411	102.4
385.621	75.77
385.831	2.05
386.041	53.25
386.251	118.78
386.461	79.87
386.671	36.86
386.881	28.67
387.091	75.77
387.301	124.93
387.511	45.06
387.72	98.3
387.93	28.67
388.14	38.91
388.35	61.44
388.56	6.14
388.769	-10.24
388.979	45.06
389.189	38.91
389.399	20.48
389.609	92.16
389.818	149.5
390.028	75.77
390.238	165.89
390.447	59.39
390.657	75.77
390.867	102.4
391.076	92.16
391.286	126.97
391.496	51.2
391.705	57.34
391.915	51.2
392.125	43.01
392.334	145.41
392.544	38.91
392.753	36.86
392.963	26.62
393.172	34.82
393.382	0
393.591	112.64
393.801	14.34
394.01	106.49
394.22	112.64
394.429	59.39
394.639	79.87
394.848	169.98
395.058	59.39
395.267	20.48
395.477	102.4
395.686	14.34
395.895	83.97
396.105	75.77
396.314	106.49
396.524	2.05
396.733	100.35
396.942	126.97
397.152	83.97
397.361	65.53
397.57	133.12
397.78	131.07
397.989	124.93
398.198	79.87
398.407	-30.72
398.617	155.65
398.826	51.2
399.035	102.4
399.244	71.68
399.453	71.68
399.663	153.6
399.872	151.55
400.081	71.68
400.29	135.17
400.499	86.01
400.708	65.53
400.917	106.49
401.127	92.16
401.336	102.4
401.545	137.21
401.754	137.21
401.963	129.02
402.172	98.3
402.381	178.17
402.59	96.25
402.799	157.69
403.008	137.21
403.217	133.12
403.426	129.02
403.635	165.89
403.844	141.31
404.053	65.53
404.262	155.65
404.471	114.69
404.68	176.13
404.888	69.63
405.097	96.25
405.306	129.02
405.515	96.25
405.724	135.17
405.933	100.35
406.142	210.94
406.35	165.89
406.559	174.08
406.768	135.17
406.977	204.8
407.185	182.27
407.394	172.03
407.603	186.37
407.812	260.09
408.02	206.84
408.229	186.37
408.438	276.48
408.646	231.42
408.855	235.52
409.064	305.15
409.272	262.14
409.481	247.8
409.69	227.32
409.898	196.6
410.107	249.85
410.315	329.72
410.524	346.11
410.733	311.29
410.941	311.29
411.15	370.68
411.358	411.64
411.567	417.79
411.775	329.72
411.984	372.73
412.192	397.31
412.401	475.13
412.609	464.89
412.818	399.35
413.026	399.35
413.234	485.37
413.443	473.08
413.651	501.75
413.86	485.37
414.068	522.23
414.276	534.52
414.485	544.76
414.693	571.38
414.901	600.05
415.11	659.45
415.318	632.82
415.526	729.08
415.734	669.69
415.943	692.21
416.151	786.42
416.359	745.46
416.567	813.04
416.776	839.67
416.984	829.43
417.192	886.77
417.4	964.59
417.608	829.43
417.817	876.53
418.025	980.98
418.233	995.31
418.441	962.55
418.649	997.36
418.857	1165.29
419.065	1144.81
419.273	1087.47
419.481	1265.64
419.689	1327.08
419.897	1288.17
420.105	1402.86
420.313	1380.33
420.521	1363.95
420.729	1419.24
420.937	1554.41
421.145	1525.74
421.353	1615.85
421.561	1609.7
421.769	1742.82
421.977	1800.16
422.185	1757.16
422.393	1855.46
422.601	2031.58
422.809	2039.78
423.017	2011.11
423.224	2136.03
423.432	2279.39
423.64	2183.13
423.848	2260.96
424.056	2271.2
424.263	2414.56
424.471	2523.1
424.679	2566.1
424.887	2752.47
425.094	2758.61
425.302	2750.42
425.51	2844.63
425.718	2965.46
425.925	2949.07
426.133	3100.62
426.341	3252.17
426.548	3420.11
426.756	3499.98
426.964	3489.74
427.171	3809.22
427.379	3811.27
427.586	3672.01
427.794	3907.52
428.001	4089.79
428.209	4331.45
428.417	4280.25
428.624	4607.93
428.832	4442.04
429.039	4454.33
429.247	4521.91
429.454	4808.63
429.662	5138.35
429.869	5007.28
430.076	5214.13
430.284	5156.79
430.491	5330.86
430.699	5640.11
430.906	5785.51
431.114	5713.83
431.321	6021.03
431.528	6107.04
431.736	6555.55
431.943	6563.74
432.15	6520.73
432.358	6447.01
432.565	6809.5
432.772	6977.43
432.979	7407.5
433.187	7358.35
433.394	7352.21
433.601	7915.4
433.808	8034.18
434.016	8021.89
434.223	8148.87
434.43	8640.38
434.637	8425.34
434.844	9170.8
435.052	9314.16
435.259	9080.69
435.466	9285.49
435.673	9144.18
435.88	9727.85
436.087	10522.46
436.294	10340.19
436.501	9934.7
436.708	10366.82
436.915	10751.84
437.122	10927.96
437.329	11120.47
437.537	11407.19
437.743	11601.74
437.95	11329.36
438.157	12248.9
438.364	12402.5
438.571	12572.48
438.778	12488.51
438.985	13600.56
439.192	13352.76
439.399	13512.5
439.606	13201.21
439.813	13911.85
440.02	15152.92
440.227	14550.82
440.433	14309.16
440.64	14860.06
440.847	14921.5
441.054	15081.24
441.261	16094.99
441.467	15939.34
441.674	16312.07
441.881	16981.76
442.088	16951.04
442.294	16713.47
442.501	17030.91
442.708	17610.48
442.914	18216.68
443.121	18964.19
443.328	18325.22
443.534	19644.12
443.741	19113.69
443.948	18853.6
444.154	20272.84
444.361	19971.79
444.568	20371.15
444.774	20365
444.981	20776.64
445.187	21157.57
445.394	22107.82
445.6	21712.56
445.807	23924.37
446.013	22732.45
446.22	23416.47
446.426	24125.07
446.633	24663.69
446.839	25147.01
447.046	23920.27
447.252	25730.68
447.459	25429.63
447.665	25388.67
447.871	26605.16
448.078	27692.63
448.284	26441.32
448.491	26773.1
448.697	28114.51
448.903	28300.88
449.11	28892.74
449.316	28137.04
449.522	28696.14
449.728	29433.41
449.935	29564.48
450.141	29546.05
450.347	30256.69
450.553	29048.39
450.76	29711.93
450.966	30545.45
451.172	30197.3
451.378	30811.69
451.584	30139.96
451.791	30832.17
451.997	30799.4
452.203	31233.57
452.409	31458.85
452.615	31161.89
452.821	30381.62
453.027	29832.76
453.233	31114.79
453.44	29959.73
453.646	30365.23
453.852	30619.18
454.058	31272.48
454.264	29990.45
454.47	30932.52
454.676	30047.8
454.882	30975.53
455.088	28755.53
455.294	28710.47
455.5	29062.72
455.705	29382.21
455.911	28364.37
456.117	28233.3
456.323	27197.02
456.529	25699.96
456.735	27127.39
456.941	26730.09
457.147	26103.41
457.352	25048.71
457.558	24741.51
457.764	24940.16
457.97	24585.86
458.176	23871.12
458.381	24118.93
458.587	22916.77
458.793	22847.14
458.999	21702.32
459.204	22904.48
459.41	22873.76
459.616	20950.72
459.821	21178.04
460.027	20983.49
460.233	20453.06
460.438	19568.34
460.644	19918.54
460.85	18816.74
461.055	18654.95
461.261	18605.8
461.466	17336.06
461.672	16760.58
461.878	17893.1
462.083	16852.73
462.289	16512.77
462.494	15935.24
462.7	15513.36
462.905	15062.81
463.111	15603.47
463.316	15898.38
463.522	15298.33
463.727	15249.18
463.932	15505.17
464.138	15216.41
464.343	15376.15
464.549	14651.17
464.754	15109.91
464.959	15161.11
465.165	15329.05
465.37	14497.57
465.575	14286.63
465.781	14425.89
465.986	14509.86
466.191	14221.09
466.397	13870.89
466.602	13233.97
466.807	13737.77
467.012	13762.35
467.218	13602.61
467.423	13496.11
467.628	13618.99
467.833	14235.43
468.038	13760.3
468.244	13199.16
468.449	13801.26
468.654	13217.59
468.859	13102.9
469.064	13002.55
469.269	12654.4
469.474	12549.95
469.679	13014.84
469.885	12504.9
470.09	12627.78
470.295	12603.2
470.5	12189.51
470.705	12422.98
470.91	12097.35
471.115	12121.93
471.32	12205.89
471.525	11898.7
471.73	11665.23
471.935	11870.03
472.139	11411.28
472.344	11460.43
472.549	11380.56
472.754	11259.73
472.959	11056.98
473.164	10772.32
473.369	10571.61
473.574	11138.9
473.778	10979.16
473.983	10987.35
474.188	10784.6
474.393	10372.96
474.598	10532.7
474.802	10381.15
475.007	10319.71
475.212	10092.39
475.417	9914.22
475.621	9987.94
475.826	9961.32
476.031	9889.64
476.235	9637.74
476.44	9613.17
476.645	9570.16
476.849	9357.17
477.054	9404.27
477.259	9162.61
477.463	9277.3
477.668	8916.86
477.872	9041.78
478.077	8976.25
478.282	8755.07
478.486	8793.98
478.691	8767.35
478.895	8683.39
479.1	8513.41
479.304	8548.22
479.509	8322.94
479.713	8382.34
479.918	8228.74
480.122	8163.2
480.326	8320.9
480.531	8341.38
480.735	8179.59
480.94	8183.68
481.144	8345.47
481.348	8032.13
481.553	7968.65
481.757	7925.64
481.961	7970.69
482.166	8126.34
482.37	7919.5
482.574	8040.33
482.778	7851.91
482.983	8107.91
483.187	8001.41
483.391	7989.13
483.595	7997.32
483.8	7700.36
484.004	7921.54
484.208	7966.6
484.412	7899.02
484.616	7960.45
484.821	7956.36
485.025	7823.24
485.229	7798.66
485.433	7743.37
485.637	7929.73
485.841	7833.48
486.045	7849.86
486.249	7958.41
486.453	7759.75
486.657	7876.49
486.861	7968.65
487.065	7624.59
487.269	7819.14
487.473	7698.31
487.677	7892.87
487.881	7911.3
488.085	7909.26
488.289	8034.18
488.493	7870.34
488.697	7939.97
488.901	7772.04
489.105	7942.02
489.309	7962.5
489.512	8097.67
489.716	7962.5
489.92	7987.08
490.124	7843.72
490.328	7921.54
490.531	8161.16
490.735	8167.3
490.939	8202.11
491.143	8128.39
491.346	8083.33
491.55	8234.88
491.754	8157.06
491.958	8458.11
492.161	8255.36
492.365	8419.2
492.569	8535.93
492.772	8433.54
492.976	8460.16
493.18	8583.04
493.383	8720.25
493.587	8679.29
493.79	8662.91
493.994	8435.58
494.197	8785.79
494.401	8841.08
494.605	8712.06
494.808	8834.94
495.012	8869.75
495.215	9011.06
495.419	9123.7
495.622	9054.07
495.825	9359.22
496.029	9181.04
496.232	9308.02
496.436	9359.22
496.639	9586.54
496.843	9547.63
497.046	9748.33
497.249	9838.44
497.453	9750.38
497.656	10149.73
497.859	10129.25
498.063	10078.05
498.266	10354.53
498.469	10170.21
498.673	10430.3
498.876	10618.72
499.079	10800.99
499.282	10780.51
499.485	10917.72
499.689	11167.57
499.892	11145.05
500.095	11229.01
500.298	11661.13
500.501	11259.73
500.705	11880.27
500.908	12023.62
501.111	11904.84
501.314	11925.32
501.517	12150.6
501.72	12451.65
501.923	12455.75
502.126	12642.11
502.329	12889.92
502.532	12967.74
502.735	13164.34
502.938	13270.84
503.141	13207.35
503.344	13612.85
503.547	13655.86
503.75	13760.3
503.953	14057.26
504.156	14266.15
504.359	14487.33
504.562	14481.19
504.765	14726.94
504.968	14724.9
505.17	15179.54
505.373	15023.9
505.576	15265.56
505.779	15505.17
505.982	15798.03
506.185	15951.63
506.387	15992.59
506.59	16244.49
506.793	16492.29
506.996	16531.2
507.198	17039.1
507.401	16842.49
507.604	17329.91
507.807	17247.99
508.009	17788.66
508.212	17559.28
508.415	17909.49
508.617	18079.47
508.82	18349.8
509.022	18446.05
509.225	18718.43
509.428	18829.02
509.63	19236.57
509.833	19140.32
510.035	19699.41
510.238	19568.34
510.44	19889.87
510.643	20217.55
510.845	20571.85
511.048	20616.9
511.25	20766.4
511.453	20833.99
511.655	21440.18
511.858	20928.19
512.06	21589.69
512.262	21968.56
512.465	22347.44
512.667	22240.94
512.87	22658.73
513.072	23148.19
513.274	23320.22
513.477	23578.26
513.679	23539.35
513.881	23983.76
514.084	24479.37
514.286	24213.13
514.488	24299.15
514.69	25273.98
514.893	25267.84
515.095	25288.32
515.297	25753.21
515.499	25783.93
515.701	26209.9
515.904	26664.55
516.106	26785.38
516.308	26975.84
516.51	27385.44
516.712	27678.3
516.914	27903.57
517.116	27999.83
517.318	28298.83
517.52	28761.67
517.722	28417.61
517.925	29089.35
518.127	29611.58
518.329	29298.24
518.531	29601.34
518.733	30246.45
518.935	30279.22
519.136	30256.69
519.338	31307.3
519.54	31252
519.742	31733.28
519.944	31653.4
520.146	32044.57
520.348	32024.09
520.55	32396.82
520.752	32921.1
520.954	33420.8
521.155	33011.21
521.357	33664.51
521.559	33879.55
521.761	34391.54
521.963	34567.66
522.164	34651.63
522.366	34495.99
522.568	35053.03
522.77	35436
522.971	35892.7
523.173	35524.07
523.375	35890.65
523.576	36017.63
523.778	36158.94
523.98	36511.19
524.181	37207.5
524.383	36470.23
524.584	37252.55
524.786	37637.57
524.988	37344.71
525.189	38026.68
525.391	37830.08
525.592	38352.31
525.794	38260.15
525.995	38385.08
526.197	38976.94
526.398	38901.17
526.6	38978.99
526.801	39058.86
527.003	39581.09
527.204	39257.51
527.406	40005.02
527.607	39800.22
527.808	39951.77
528.01	39531.94
528.211	40056.22
528.412	40746.39
528.614	40826.26
528.815	40693.14
529.016	41469.32
529.218	40885.65
529.419	40809.87
529.62	41000.33
529.822	40928.66
530.023	41006.48
530.224	41223.56
530.425	41053.58
530.626	41485.7
530.828	41121.16
531.029	41688.45
531.23	41315.72
531.431	41739.65
531.632	41813.38
531.833	41946.5
532.035	41827.71
532.236	42220.92
532.437	41629.06
532.638	41989.5
532.839	42163.58
533.04	42622.33
533.241	41817.47
533.442	42759.54
533.643	42452.34
533.844	42315.13
534.045	42438.01
534.246	42018.17
534.447	42528.12
534.648	42429.82
534.849	42333.56
535.05	42341.75
535.251	42679.67
535.451	42573.17
535.652	42603.89
535.853	42630.52
536.054	42599.8
536.255	42882.42
536.456	42683.76
536.657	42857.84
536.857	42448.25
537.058	42909.04
537.259	42722.68
537.46	42888.56
537.66	42679.67
537.861	42413.43
538.062	42812.79
538.263	43087.21
538.463	42222.97
538.664	42438.01
538.865	42247.55
539.065	42950
539.266	42114.43
539.466	43044.21
539.667	42038.65
539.868	42763.64
540.068	43005.3
540.269	42702.2
540.469	42861.94
540.67	42411.38
540.87	42603.89
541.071	42294.65
541.271	43079.02
541.472	42620.28
541.672	42501.5
541.873	42237.31
542.073	41915.78
542.274	42855.79
542.474	42483.06
542.675	42526.07
542.875	42927.47
543.075	42702.2
543.276	42370.43
543.476	42657.14
543.676	42327.42
543.877	42870.13
544.077	42546.55
544.277	42438.01
544.478	42567.03
544.678	42493.3
544.878	42747.25
545.078	42474.87
545.279	42253.69
545.479	42145.15
545.679	42829.17
545.879	42182.01
546.079	42270.07
546.28	42743.16
546.48	42190.2
546.68	42585.46
546.88	42313.08
547.08	42333.56
547.28	42597.75
547.48	42139
547.68	42366.33
547.88	42196.35
548.081	42337.66
548.281	42362.23
548.481	42192.25
548.681	42567.03
548.881	42311.03
549.081	42347.9
549.28	42069.37
549.48	42562.93
549.68	42325.37
549.88	42493.3
550.08	42120.57
550.28	42386.81
550.48	42313.08
550.68	42745.2
550.88	42356.09
551.08	42182.01
551.279	42071.42
551.479	41905.54
551.679	42472.82
551.879	41975.17
552.079	42382.71
552.278	42214.78
552.478	41932.16
552.678	41926.02
552.878	42024.32
553.077	41952.64
553.277	41641.35
553.477	42089.85
553.676	41887.1
553.876	42265.98
554.076	41739.65
554.275	41817.47
554.475	41788.8
554.674	41840
554.874	42034.56
555.074	41790.85
555.273	41854.34
555.473	42169.72
555.672	41178.51
555.872	41536.9
556.071	41706.88
556.271	42356.09
556.47	41520.52
556.67	41026.96
556.869	41547.14
557.068	41356.68
557.268	41221.51
557.467	41178.51
557.667	41217.42
557.866	41209.23
558.065	41112.97
558.265	41235.85
558.464	40594.84
558.663	41362.82
558.863	40596.88
559.062	41287.05
559.261	40803.73
559.461	41024.91
559.66	40377.75
559.859	40635.8
560.058	40584.6
560.258	40533.4
560.457	40144.28
560.656	40541.59
560.855	40224.15
561.054	40160.67
561.253	40105.37
561.453	40379.8
561.652	40428.95
561.851	40631.7
562.05	40091.04
562.249	40025.5
562.448	40248.73
562.647	39882.14
562.846	40091.04
563.045	39916.96
563.244	39632.29
563.443	40013.21
563.642	39402.92
563.841	39626.15
564.04	39468.45
564.239	39912.86
564.438	39349.67
564.637	39536.04
564.836	39503.27
565.035	38987.18
565.234	39339.43
565.432	38952.37
565.631	39050.67
565.83	38888.88
566.029	38897.07
566.228	38768.05
566.427	38528.44
566.625	38905.26
566.824	38333.88
567.023	38831.54
567.222	37987.77
567.42	38782.38
567.619	38243.77
567.818	37993.92
568.016	38335.93
568.215	38084.03
568.414	37961.15
568.612	38630.83
568.811	37852.61
569.01	38090.17
569.208	37432.77
569.407	37445.06
569.605	37029.32
569.804	37817.79
570.002	37459.4
570.201	37512.64
570.4	37332.42
570.598	36834.77
570.797	36699.6
570.995	37144.01
571.193	36830.67
571.392	36713.94
571.59	36537.81
571.789	36773.33
571.987	36468.18
572.186	36498.9
572.384	36175.32
572.582	36251.09
572.781	36562.39
572.979	36060.63
573.177	36101.59
573.376	35831.26
573.574	35474.91
573.772	36103.64
573.971	35784.16
574.169	35057.13
574.367	35515.87
574.565	35266.02
574.763	34913.77
574.962	35218.92
575.16	34764.27
575.358	34895.34
575.556	34129.4
575.754	35239.4
575.952	34577.9
576.151	34883.05
576.349	34344.44
576.547	34129.4
576.745	34153.97
576.943	33895.93
577.141	34323.96
577.339	33981.95
577.537	33744.38
577.735	34108.92
577.933	33590.78
578.131	33709.57
578.329	33504.77
578.527	33494.53
578.725	33588.74
578.923	33324.55
579.121	33302.02
579.319	32781.84
579.516	33279.49
579.714	32896.52
579.912	32742.92
580.11	32996.87
580.308	32675.34
580.506	32458.26
580.704	31936.02
580.901	32378.39
581.099	32914.95
581.297	32169.49
581.495	31987.22
581.692	32235.03
581.89	32032.28
582.088	32155.16
582.285	31958.55
582.483	31723.04
582.681	31594.01
582.878	31655.45
583.076	31634.97
583.274	31600.16
583.471	31090.21
583.669	31350.31
583.866	31022.63
584.064	31041.06
584.262	30682.67
584.459	31204.9
584.657	30619.18
584.854	31151.65
585.052	30240.31
585.249	30758.44
585.447	30514.73
585.644	30320.18
585.841	30166.58
586.039	30328.37
586.236	29625.92
586.434	30219.83
586.631	29926.97
586.828	29875.77
587.026	30209.59
587.223	29470.27
587.42	29380.16
587.618	29531.71
587.815	29136.45
588.012	28876.36
588.21	29079.11
588.407	29533.76
588.604	28966.47
588.801	28544.59
588.999	29226.56
589.196	28925.51
589.393	28984.9
589.59	29058.63
589.787	28599.88
589.984	28296.78
590.182	28440.14
590.379	28298.83
590.576	27786.84
590.773	27983.44
590.97	27561.56
591.167	27932.25
591.364	27905.62
591.561	27813.46
591.758	27545.18
591.955	27629.15
592.152	27827.8
592.349	27604.57
592.546	27614.81
592.743	27688.54
592.94	26912.36
593.137	27350.62
593.334	27262.56
593.531	27192.93
593.727	26990.18
593.924	27055.72
594.121	26908.26
594.318	27174.5
594.515	26433.13
594.712	26625.64
594.908	26281.58
595.105	26513
595.302	25921.14
595.499	26451.56
595.696	25802.36
595.892	26078.83
596.089	26136.18
596.286	26132.08
596.482	25568.89
596.679	25837.17
596.876	25613.95
597.072	25828.98
597.269	25779.83
597.466	25335.42
597.662	25464.44
597.859	25476.73
598.055	25630.33
598.252	24733.32
598.448	25265.79
598.645	24909.44
598.841	24815.24
599.038	25118.34
599.234	24741.51
599.431	24632.97
599.627	24532.62
599.824	24907.4
600.02	24608.39
600.217	24471.18
600.413	24387.21
600.609	24325.77
600.806	24290.96
601.002	24196.75
601.198	24315.53
601.395	23881.36
601.591	23776.92
601.787	23795.35
601.984	23621.27
602.18	23957.14
602.376	23731.86
602.572	23633.56
602.769	23535.26
602.965	23410.33
603.161	23086.75
603.357	23162.53
603.553	23260.83
603.75	23072.42
603.946	22951.59
604.142	22949.54
604.338	22595.24
604.534	23049.89
604.73	22748.84
604.926	22646.44
605.122	22681.25
605.318	22314.67
605.514	22523.56
605.71	22458.03
605.906	22271.66
606.102	22443.69
606.298	21819.06
606.494	22273.71
606.69	22191.79
606.886	22066.86
607.082	21837.49
607.278	21847.73
607.474	21501.62
607.67	21874.35
607.866	21534.39
608.062	21542.58
608.257	21812.92
608.453	21522.1
608.649	21655.22
608.845	21264.06
609.041	21456.57
609.236	21456.57
609.432	21055.17
609.628	21196.48
609.824	21038.78
610.019	20866.75
610.215	20936.38
610.411	21155.52
610.606	20645.57
610.802	21065.41
610.998	20897.47
611.193	20610.76
611.389	20465.35
611.584	20440.78
611.78	20278.99
611.976	20254.41
612.171	20434.63
612.367	20342.47
612.562	20338.38
612.758	20082.38
612.953	19877.58
613.149	20088.53
613.344	20096.72
613.539	20090.57
613.735	19982.03
613.93	19918.54
614.126	19834.58
614.321	20162.25
614.517	19959.5
614.712	19635.92
614.907	19699.41
615.103	19662.55
615.298	19558.1
615.493	19828.43
615.688	19455.7
615.884	19701.46
616.079	19345.11
616.274	19310.3
616.47	19338.97
616.665	19375.83
616.86	19115.74
617.055	19070.69
617.25	18884.32
617.445	19042.01
617.641	18902.75
617.836	18956
618.031	18829.02
618.226	18753.25
618.421	18634.47
618.616	18687.71
618.811	18464.49
619.006	18941.66
619.201	18163.43
619.396	18458.34
619.591	17843.95
619.786	18560.74
619.981	17886.96
620.176	18040.56
620.371	17868.53
620.566	18042.6
620.761	17682.16
620.956	17985.26
621.151	17729.27
621.346	17731.31
621.541	17368.82
621.735	17663.73
621.93	17073.92
622.125	17282.81
622.32	17098.49
622.515	16965.37
622.709	16606.98
622.904	16670.47
623.099	16987.9
623.294	16623.36
623.488	16461.57
623.683	16570.12
623.878	16248.58
624.072	16103.18
624.267	16248.58
624.462	16320.26
624.656	15845.13
624.851	15849.23
625.046	15888.14
625.24	15736.59
625.435	15599.38
625.629	15482.64
625.824	15578.9
626.018	15630.1
626.213	15083.29
626.407	15339.29
626.602	15208.22
626.796	15077.15
626.991	15456.02
627.185	14944.03
627.38	15058.71
627.574	14868.25
627.768	14755.61
627.963	14776.09
628.157	14372.64
628.352	14565.15
628.546	14143.27
628.74	14452.52
628.935	14200.62
629.129	14444.32
629.323	14178.09
629.517	14221.09
629.712	14024.49
629.906	13874.99
630.1	13627.18
630.294	13690.67
630.489	13684.53
630.683	13635.38
630.877	13606.7
631.071	13500.21
631.265	13281.08
631.459	13283.13
631.653	13238.07
631.848	13395.76
632.042	12832.57
632.236	13057.85
632.43	13037.37
632.624	13117.24
632.818	12857.15
633.012	12738.37
633.206	12674.88
633.4	12691.26
633.594	12678.97
633.788	12519.23
633.982	12562.24
634.176	12480.32
634.369	12132.17
634.563	12269.38
634.757	12101.45
634.951	12183.37
635.145	12132.17
635.339	12119.88
635.533	12021.58
635.726	12140.36
635.92	11626.32
636.114	11894.6
636.308	11534.16
636.501	11708.24
636.695	11532.11
636.889	11732.81
637.083	11437.91
637.276	11462.48
637.47	11421.52
637.664	11329.36
637.857	11175.77
638.051	11093.85
638.244	11108.18
638.438	11102.04
638.632	10977.11
638.825	10708.83
639.019	10975.06
639.212	10774.36
639.406	10829.66
639.599	10880.86
639.793	10803.04
639.986	10426.21
640.18	10637.15
640.373	10608.48
640.567	10127.21
640.76	10407.78
640.954	10063.72
641.147	10139.49
641.34	10264.42
641.534	10231.65
641.727	9951.08
641.92	9891.69
642.114	10202.98
642.307	9885.55
642.5	9850.73
642.694	9609.07
642.887	9858.92
643.08	9729.9
643.273	9602.93
643.467	9660.27
643.66	9348.98
643.853	9494.38
644.046	9480.05
644.239	9295.73
644.432	9242.48
644.626	9213.81
644.819	9265.01
645.012	9019.25
645.205	9140.08
645.398	8910.71
645.591	8884.09
645.784	8955.77
645.977	8863.61
646.17	8765.31
646.363	8744.83
646.556	8515.45
646.749	8607.61
646.942	8533.89
647.135	8544.13
647.328	8492.93
647.521	8337.28
647.714	8556.41
647.907	8488.83
648.099	8374.14
648.292	8187.78
648.485	8226.69
648.678	8288.13
648.871	8136.58
649.064	8052.61
649.256	8064.9
649.449	7913.35
649.642	7989.13
649.835	7888.78
650.027	7987.08
650.22	7991.17
650.413	7823.24
650.605	7737.23
650.798	7767.95
650.991	7632.78
651.183	7669.64
651.376	7448.46
651.568	7528.33
651.761	7481.23
651.954	7325.58
652.146	7319.44
652.339	7364.5
652.531	7231.38
652.724	7317.39
652.916	7008.15
653.109	7098.26
653.301	7178.13
653.494	7202.71
653.686	6973.33
653.879	6973.33
654.071	6862.74
654.263	6838.17
654.456	6942.61
654.648	6883.22
654.84	6754.2
655.033	6707.1
655.225	6731.67
655.417	6596.51
655.61	6674.33
655.802	6727.58
655.994	6422.43
656.186	6440.86
656.379	6582.17
656.571	6514.59
656.763	6330.27
656.955	6367.13
657.148	6383.52
657.34	6303.65
657.532	6262.69
657.724	6188.96
657.916	6135.71
658.108	6150.05
658.3	5996.45
658.492	6018.98
658.684	6193.06
658.876	5920.68
659.068	6055.84
659.26	5814.18
659.452	5756.84
659.644	5881.77
659.836	5674.92
660.028	5756.84
660.22	5670.83
660.412	5715.88
660.604	5629.87
660.796	5584.81
660.988	5527.47
661.18	5529.52
661.372	5369.77
661.563	5525.42
661.755	5324.72
661.947	5398.45
662.139	5441.45
662.331	5279.66
662.522	5253.04
662.714	5386.16
662.906	5113.78
663.097	5343.15
663.289	5130.16
663.481	5085.11
663.673	5126.07
663.864	5013.43
664.056	5058.48
664.247	4925.36
664.439	4911.03
664.631	4995
664.822	4999.09
665.014	4913.08
665.205	4804.53
665.397	4870.07
665.588	4767.67
665.78	4714.42
665.971	4626.36
666.163	4638.65
666.354	4681.66
666.546	4857.78
666.737	4642.75
666.929	4634.55
667.12	4779.96
667.311	4550.59
667.503	4609.98
667.694	4626.36
667.885	4458.43
668.077	4413.37
668.268	4444.09
668.459	4411.32
668.651	4442.04
668.842	4304.83
669.033	4337.6
669.224	4343.74
669.416	4315.07
669.607	4329.41
669.798	4255.68
669.989	4163.52
670.18	4351.93
670.371	4106.18
670.563	4149.18
670.754	4157.38
670.945	4085.7
671.136	4212.67
671.327	4038.59
671.518	4044.74
671.709	4071.36
671.9	4044.74
672.091	4063.17
672.282	4032.45
672.473	3901.38
672.664	3979.2
672.855	4057.03
673.046	3968.96
673.237	3897.28
673.428	3844.04
673.619	3934.15
673.809	3846.09
674	3790.79
674.191	3934.15
674.382	3729.35
674.573	3704.78
674.764	3749.83
674.954	3817.41
675.145	3747.78
675.336	3813.32
675.527	3745.73
675.717	3674.06
675.908	3641.29
676.099	3725.26
676.289	3606.47
676.48	3655.62
676.671	3469.26
676.861	3655.62
677.052	3690.44
677.243	3516.36
677.433	3524.55
677.624	3590.09
677.814	3473.35
678.005	3645.38
678.195	3426.25
678.386	3524.55
678.576	3336.14
678.767	3401.68
678.957	3471.31
679.148	3459.02
679.338	3403.72
679.529	3401.68
679.719	3454.92
679.909	3426.25
680.1	3444.68
680.29	3327.95
680.481	3393.48
680.671	3385.29
680.861	3469.26
681.052	3303.37
681.242	3340.24
681.432	3373
681.622	3311.57
681.813	3227.6
682.003	3180.5
682.193	3231.69
682.383	3241.93
682.573	3311.57
682.764	3243.98
682.954	3188.69
683.144	3297.23
683.334	3131.34
683.524	3266.51
683.714	3137.49
683.904	3239.89
684.094	3090.38
684.284	3162.06
684.474	3170.26
684.664	3026.9
684.854	3194.83
685.044	3164.11
685.234	3184.59
685.424	3123.15
685.614	3067.86
685.804	3078.1
685.994	3176.4
686.184	3155.92
686.374	3188.69
686.564	3059.67
686.753	3094.48
686.943	2979.79
687.133	3016.66
687.323	2973.65
687.513	2957.27
687.702	3098.58
687.892	3026.9
688.082	2899.92
688.272	2961.36
688.461	2987.99
688.651	2881.49
688.841	2936.79
689.03	2936.79
689.22	2871.25
689.41	2914.26
689.599	2963.41
689.789	2768.85
689.979	2969.55
690.168	2895.83
690.358	2846.68
690.547	2912.21
690.737	2873.3
690.926	2795.48
691.116	2805.72
691.305	2787.29
691.495	2783.19
691.684	2916.31
691.874	2836.44
692.063	2844.63
692.252	2906.07
692.442	2803.67
692.631	2813.91
692.82	2904.02
693.01	2813.91
693.199	2875.35
693.388	2820.05
693.578	2795.48
693.767	2746.33
693.956	2709.46
694.146	2838.48
694.335	2736.09
694.524	2719.7
694.713	2785.24
694.902	2760.66
695.092	2822.1
695.281	2715.61
695.47	2731.99
695.659	2729.94
695.848	2801.62
696.037	2789.33
696.226	2729.94
696.415	2637.78
696.604	2746.33
696.793	2627.54
696.982	2738.13
697.171	2668.5
697.36	2709.46
697.549	2781.14
697.738	2746.33
697.927	2701.27
698.116	2791.38
698.305	2559.96
698.494	2729.94
698.683	2639.83
698.872	2901.97
699.061	2731.99
699.25	2641.88
699.438	2801.62
699.627	2688.98
699.816	2775
700.005	2596.82
700.193	2693.08
700.382	2752.47
700.571	2740.18
700.76	2672.6
700.948	2762.71
701.137	2791.38
701.326	2783.19
701.514	2600.92
701.703	2691.03
701.892	2688.98
702.08	2691.03
702.269	2715.61
702.457	2598.87
702.646	2664.41
702.834	2607.06
703.023	2686.93
703.212	2592.73
703.4	2545.63
703.589	2621.4
703.777	2629.59
703.965	2533.34
704.154	2537.43
704.342	2586.58
704.531	2531.29
704.719	2539.48
704.907	2570.2
705.096	2557.91
705.284	2488.28
705.472	2684.89
705.661	2539.48
705.849	2559.96
706.037	2506.71
706.226	2461.66
706.414	2492.38
706.602	2430.94
706.79	2420.7
706.979	2435.03
707.167	2514.91
707.355	2514.91
707.543	2492.38
707.731	2344.92
707.919	2502.62
708.107	2471.9
708.296	2322.4
708.484	2277.34
708.672	2357.21
708.86	2361.31
709.048	2475.99
709.236	2402.27
709.424	2394.08
709.612	2338.78
709.8	2426.84
709.988	2265.05
710.176	2273.25
710.364	2308.06
710.551	2338.78
710.739	2203.61
710.927	2240.48
711.115	2271.2
711.303	2312.16
711.491	2197.47
711.679	2283.49
711.866	2230.24
712.054	2213.85
712.242	2199.52
712.43	2193.37
712.617	2281.44
712.805	2224.09
712.993	2191.33
713.181	2152.42
713.368	2093.02
713.556	2209.76
713.744	2183.13
713.931	2199.52
714.119	2084.83
714.306	2138.08
714.494	2168.8
714.682	2131.94
714.869	2084.83
715.057	2187.23
715.244	2052.06
715.432	2150.37
715.619	2103.26
715.807	2072.54
715.994	2050.02
716.182	2019.3
716.369	2039.78
716.556	2035.68
716.744	2017.25
716.931	1972.19
717.119	2093.02
717.306	1966.05
717.493	1937.38
717.681	1953.76
717.868	1890.28
718.055	1972.19
718.242	1953.76
718.43	1877.99
718.617	1982.43
718.804	1998.82
718.991	1861.6
719.179	1943.52
719.366	1892.32
719.553	1900.51
719.74	1966.05
719.927	1877.99
720.114	1830.88
720.301	1851.36
720.488	1820.64
720.676	1875.94
720.863	1843.17
721.05	1794.02
721.237	1824.74
721.424	1732.58
721.611	1775.59
721.798	1877.99
721.985	1875.94
722.172	1820.64
722.358	1621.99
722.545	1738.73
722.732	1710.05
722.919	1783.78
723.106	1744.87
723.293	1740.77
723.48	1738.73
723.667	1605.61
723.853	1705.96
724.04	1617.9
724.227	1701.86
724.414	1736.68
724.6	1644.52
724.787	1595.37
724.974	1650.66
725.161	1677.29
725.347	1583.08
725.534	1669.09
725.72	1681.38
725.907	1667.05
726.094	1568.74
726.28	1603.56
726.467	1689.57
726.653	1656.81
726.84	1562.6
727.027	1546.22
727.213	1730.53
727.4	1550.31
727.586	1603.56
727.773	1595.37
727.959	1556.46
728.145	1593.32
728.332	1628.14
728.518	1630.18
728.705	1552.36
728.891	1648.61
729.077	1607.66
729.264	1576.94
729.45	1595.37
729.636	1615.85
729.823	1525.74
730.009	1511.4
730.195	1445.87
730.382	1507.3
730.568	1521.64
730.754	1581.03
730.94	1476.59
731.126	1484.78
731.313	1488.87
731.499	1501.16
731.685	1538.02
731.871	1441.77
732.057	1441.77
732.243	1552.36
732.429	1394.67
732.615	1423.34
732.801	1445.87
732.987	1486.83
733.173	1478.63
733.359	1337.32
733.545	1509.35
733.731	1431.53
733.917	1433.58
734.103	1366
734.289	1392.62
734.475	1368.04
734.661	1363.95
734.847	1357.8
735.033	1452.01
735.219	1275.88
735.404	1380.33
735.59	1327.08
735.776	1279.98
735.962	1423.34
736.148	1372.14
736.333	1273.84
736.519	1357.8
736.705	1325.04
736.89	1368.04
737.076	1353.71
737.262	1234.93
737.447	1245.16
737.633	1298.41
737.819	1329.13
738.004	1314.8
738.19	1286.12
738.375	1284.08
738.561	1150.96
738.747	1320.94
738.932	1210.35
739.118	1298.41
739.303	1282.03
739.489	1220.59
739.674	1279.98
739.859	1230.83
740.045	1177.58
740.23	1224.69
740.416	1308.65
740.601	1224.69
740.786	1165.29
740.972	1134.57
741.157	1163.25
741.342	1288.17
741.528	1183.73
741.713	1257.45
741.898	1187.82
742.084	1128.43
742.269	1150.96
742.454	1210.35
742.639	1101.81
742.824	1097.71
743.01	1167.34
743.195	1075.18
743.38	1077.23
743.565	1105.9
743.75	1075.18
743.935	1093.62
744.12	1089.52
744.305	1097.71
744.49	1079.28
744.675	1087.47
744.86	1085.42
745.045	1007.6
745.23	1060.85
745.415	1153.01
745.6	1048.56
745.785	1054.7
745.97	1081.33
746.155	1163.25
746.34	993.26
746.525	1058.8
746.71	1075.18
746.895	1046.51
747.079	1017.84
747.264	960.5
747.449	1019.89
747.634	989.17
747.819	1048.56
748.003	964.59
748.188	894.96
748.373	1038.32
748.557	1013.74
748.742	1056.75
748.927	985.07
749.111	940.02
749.296	1003.5
749.481	907.25
749.665	1001.46
749.85	827.38
750.034	907.25
750.219	823.28
750.404	950.26
750.588	927.73
750.773	954.35
750.957	907.25
751.141	860.15
751.326	862.19
751.51	886.77
751.695	901.11
751.879	823.28
752.064	862.19
752.248	802.8
752.432	849.91
752.617	921.59
752.801	860.15
752.985	825.33
753.17	841.72
753.354	788.47
753.538	817.14
753.722	851.95
753.907	796.66
754.091	770.04
754.275	778.23
754.459	798.71
754.643	759.8
754.828	720.88
755.012	802.8
755.196	774.13
755.38	772.08
755.564	708.6
755.748	751.6
755.932	718.84
756.116	770.04
756.3	796.66
756.484	724.98
756.668	749.56
756.852	708.6
757.036	729.08
757.22	862.19
757.404	706.55
757.588	663.54
757.772	716.79
757.956	688.12
758.14	614.39
758.323	716.79
758.507	651.25
758.691	567.29
758.875	684.02
759.059	729.08
759.242	702.45
759.426	794.61
759.61	626.68
759.794	684.02
759.977	608.25
760.161	698.36
760.345	661.49
760.528	647.16
760.712	612.34
760.895	647.16
761.079	598.01
761.263	612.34
761.446	626.68
761.63	655.35
761.813	624.63
761.997	604.15
762.18	552.95
762.364	604.15
762.547	573.43
762.731	653.3
762.914	520.18
763.098	608.25
763.281	614.39
763.464	616.44
763.648	583.67
763.831	622.58
764.015	555
764.198	550.9
764.381	634.87
764.564	602.1
764.748	604.15
764.931	690.17
765.114	647.16
765.297	620.53
765.481	518.14
765.664	579.58
765.847	530.42
766.03	563.19
766.213	565.24
766.397	518.14
766.58	579.58
766.763	501.75
766.946	548.86
767.129	581.62
767.312	546.81
767.495	583.67
767.678	585.72
767.861	591.86
768.044	487.42
768.227	489.46
768.41	468.98
768.593	620.53
768.776	565.24
768.959	483.32
769.142	528.38
769.324	573.43
769.507	493.56
769.69	559.1
769.873	544.76
770.056	565.24
770.239	538.62
770.421	516.09
770.604	505.85
770.787	571.38
770.97	612.34
771.152	520.18
771.335	479.22
771.518	524.28
771.7	520.18
771.883	501.75
772.066	464.89
772.248	485.37
772.431	526.33
772.613	528.38
772.796	448.51
772.978	495.61
773.161	395.26
773.343	485.37
773.526	477.18
773.708	471.03
773.891	526.33
774.073	501.75
774.256	415.74
774.438	479.22
774.621	419.83
774.803	403.45
774.985	356.35
775.168	464.89
775.35	489.46
775.532	419.83
775.715	378.87
775.897	462.84
776.079	458.74
776.261	423.93
776.444	401.4
776.626	473.08
776.808	440.31
776.99	395.26
777.173	411.64
777.355	344.06
777.537	452.6
777.719	466.94
777.901	399.35
778.083	374.78
778.265	444.41
778.447	450.55
778.629	354.3
778.811	413.69
778.993	366.59
779.175	321.53
779.357	391.16
779.539	411.64
779.721	419.83
779.903	438.27
780.085	403.45
780.267	360.44
780.449	387.07
780.631	311.29
780.812	440.31
780.994	389.11
781.176	380.92
781.358	331.77
781.54	325.63
781.721	354.3
781.903	372.73
782.085	372.73
782.267	296.96
782.448	358.39
782.63	372.73
782.812	339.96
782.993	382.97
783.175	329.72
783.357	313.34
783.538	296.96
783.72	294.91
783.901	350.2
784.083	296.96
784.264	233.47
784.446	258.04
784.627	243.71
784.809	346.11
784.99	301.05
785.172	206.84
785.353	288.76
785.535	284.67
785.716	245.76
785.897	233.47
786.079	294.91
786.26	241.66
786.441	284.67
786.623	247.8
786.804	223.23
786.985	212.99
787.167	309.24
787.348	274.43
787.529	278.52
787.71	268.28
787.891	245.76
788.073	215.04
788.254	294.91
788.435	251.9
788.616	215.04
788.797	288.76
788.978	223.23
789.159	219.13
789.34	278.52
789.522	233.47
789.703	200.7
789.884	253.95
790.065	202.75
790.246	217.08
790.427	274.43
790.607	258.04
790.788	233.47
790.969	241.66
791.15	210.94
791.331	239.61
791.512	215.04
791.693	198.65
791.874	247.8
792.054	245.76
792.235	229.37
792.416	188.41
792.597	165.89
792.778	221.18
792.958	176.13
793.139	161.79
793.32	262.14
793.5	200.7
793.681	206.84
793.862	172.03
794.042	292.86
794.223	206.84
794.404	221.18
794.584	182.27
794.765	247.8
794.945	172.03
795.126	288.76
795.306	167.93
795.487	241.66
795.667	149.5
795.848	180.22
796.028	174.08
796.209	124.93
796.389	227.32
796.57	176.13
796.75	192.51
796.93	167.93
797.111	110.59
797.291	133.12
797.471	190.46
797.652	264.19
797.832	229.37
798.012	102.4
798.192	129.02
798.373	174.08
798.553	163.84
798.733	151.55
798.913	221.18
799.093	157.69
799.274	135.17
799.454	141.31
799.634	178.17
799.814	145.41
799.994	182.27
800.174	143.36
800.354	198.65
800.534	53.25
800.714	223.23
800.894	182.27
801.074	182.27
801.254	194.56
801.434	174.08
801.614	178.17
801.794	135.17
801.974	329.72
802.154	176.13
802.334	186.37
802.514	186.37
802.693	139.26
802.873	96.25
803.053	172.03
803.233	190.46
803.413	131.07
803.592	108.54
803.772	116.73
803.952	110.59
804.131	200.7
804.311	167.93
804.491	159.74
804.67	75.77
804.85	151.55
805.03	190.46
805.209	149.5
805.389	102.4
805.568	135.17
805.748	126.97
805.928	157.69
806.107	104.45
806.287	73.73
806.466	190.46
806.646	83.97
806.825	88.06
807.004	75.77
807.184	174.08
807.363	120.83
807.543	83.97
807.722	180.22
807.901	139.26
808.081	137.21
808.26	88.06
808.439	135.17
808.619	49.15
808.798	59.39
808.977	47.1
809.156	157.69
809.336	118.78
809.515	116.73
809.694	139.26
809.873	110.59
810.052	135.17
810.231	153.6
810.411	141.31
810.59	129.02
810.769	98.3
810.948	174.08
811.127	65.53
811.306	159.74
811.485	65.53
811.664	149.5
811.843	182.27
812.022	108.54
812.201	79.87
812.38	133.12
812.559	137.21
812.737	106.49
812.916	55.3
813.095	104.45
813.274	55.3
813.453	112.64
813.632	229.37
813.811	131.07
813.989	122.88
814.168	102.4
814.347	67.58
814.526	110.59
814.704	137.21
814.883	90.11
815.062	120.83
815.24	114.69
815.419	55.3
815.598	88.06
815.776	129.02
815.955	53.25
816.133	63.49
816.312	151.55
816.49	108.54
816.669	165.89
816.847	108.54
817.026	104.45
817.204	139.26
817.383	43.01
817.561	112.64
817.74	114.69
817.918	83.97
818.097	79.87
818.275	51.2
818.453	116.73
818.632	51.2
818.81	137.21
818.988	53.25
819.167	112.64
819.345	102.4
819.523	174.08
819.701	45.06
819.879	83.97
820.058	65.53
820.236	172.03
820.414	110.59
820.592	86.01
820.77	71.68
820.948	51.2
821.127	2.05
821.305	65.53
821.483	100.35
821.661	47.1
821.839	141.31
822.017	98.3
822.195	131.07
822.373	153.6
822.551	163.84
822.729	49.15
822.907	106.49
823.085	104.45
823.262	-34.82
823.44	-10.24
823.618	67.58
823.796	38.91
823.974	124.93
824.152	63.49
824.329	172.03
824.507	43.01
824.685	79.87
824.863	124.93
825.04	38.91
825.218	108.54
825.396	63.49
825.574	57.34
825.751	88.06
825.929	102.4
826.107	79.87
826.284	83.97
826.462	45.06
826.639	34.82
826.817	-6.14
826.994	106.49
827.172	34.82
827.349	100.35
827.527	36.86
827.704	86.01
827.882	57.34
828.059	141.31
828.237	63.49
828.414	45.06
828.591	53.25
828.769	75.77
828.946	26.62
829.124	38.91
829.301	51.2
829.478	86.01
829.655	24.58
829.833	92.16
830.01	69.63
830.187	59.39
830.364	18.43
830.542	75.77
830.719	69.63
830.896	4.1
831.073	6.14
831.25	36.86
831.427	88.06
831.604	59.39
831.782	94.21
831.959	71.68
832.136	88.06
832.313	20.48
832.49	83.97
832.667	110.59
832.844	77.82
833.021	30.72
833.198	75.77
833.374	65.53
833.551	65.53
833.728	79.87
833.905	71.68
834.082	153.6
834.259	178.17
834.436	75.77
834.612	49.15
834.789	57.34
834.966	59.39
835.143	180.22
835.319	69.63
835.496	88.06
835.673	47.1
835.85	45.06
836.026	47.1
836.203	40.96
836.38	118.78
836.556	51.2
836.733	77.82
836.909	36.86
837.086	26.62
837.262	67.58
837.439	43.01
837.616	96.25
837.792	118.78
837.968	71.68
838.145	55.3
838.321	-24.58
838.498	34.82
838.674	22.53
838.851	120.83
839.027	26.62
839.203	43.01
839.38	118.78
839.556	53.25
839.732	47.1
839.909	-6.14
840.085	98.3
840.261	83.97
840.437	-6.14
840.614	73.73
840.79	79.87
840.966	116.73
841.142	20.48
841.318	38.91
841.494	26.62
841.671	0
841.847	83.97
842.023	2.05
842.199	-10.24
842.375	38.91
842.551	131.07
842.727	63.49
842.903	90.11
843.079	63.49
843.255	43.01
843.431	38.91
843.607	22.53
843.783	43.01
843.959	98.3
844.134	51.2
844.31	49.15
844.486	55.3
844.662	38.91
844.838	-16.38
845.013	63.49
845.189	53.25
845.365	55.3
845.541	69.63
845.716	-18.43
845.892	28.67
846.068	69.63
846.244	28.67
846.419	81.92
846.595	-8.19
846.77	36.86
846.946	12.29
847.122	45.06
847.297	0
847.473	81.92
847.648	-6.14
847.824	59.39
847.999	34.82
848.175	8.19
848.35	59.39
848.526	57.34
848.701	43.01
848.876	147.45
849.052	2.05
849.227	51.2
849.403	38.91
849.578	12.29
849.753	18.43
849.929	53.25
850.104	-12.29
850.279	34.82
850.454	32.77
850.63	83.97
850.805	49.15
850.98	67.58
851.155	-22.53
851.33	38.91
851.505	90.11
851.681	51.2
851.856	-8.19
852.031	14.34
852.206	40.96
852.381	4.1
852.556	26.62
852.731	-12.29
852.906	67.58
853.081	34.82
853.256	30.72
853.431	47.1
853.606	-22.53
853.781	47.1
853.956	86.01
854.131	36.86
854.305	-71.68
854.48	67.58
854.655	16.38
854.83	38.91
855.005	67.58
855.18	28.67
855.354	-10.24
855.529	6.14
855.704	-38.91
855.879	24.58
856.053	81.92
856.228	92.16
856.403	26.62
856.577	20.48
856.752	45.06
856.926	71.68
857.101	73.73
857.276	59.39
857.45	-12.29
857.625	10.24
857.799	34.82
857.974	34.82
858.148	0
858.323	-2.05
858.497	8.19
858.672	86.01
858.846	73.73
859.02	26.62
859.195	18.43
859.369	-18.43
859.543	71.68
859.718	10.24
859.892	40.96
860.066	32.77
860.241	20.48
860.415	36.86
860.589	-6.14
860.763	14.34
860.938	59.39
861.112	67.58
861.286	63.49
861.46	43.01
861.634	86.01
861.808	-61.44
861.982	-43.01
862.157	-18.43
862.331	6.14
862.505	14.34
862.679	45.06
862.853	2.05
863.027	59.39
863.201	-24.58
863.375	20.48
863.549	2.05
863.722	10.24
863.896	0
864.07	-6.14
864.244	-2.05
864.418	36.86
864.592	61.44
864.766	-30.72
864.939	18.43
865.113	-24.58
865.287	137.21
865.461	10.24
865.634	4.1
865.808	53.25
865.982	10.24
866.156	18.43
866.329	88.06
866.503	28.67
866.676	32.77
866.85	-34.82
867.024	43.01
867.197	-6.14
867.371	110.59
867.544	34.82
867.718	53.25
867.891	-14.34
868.065	10.24
868.238	8.19
868.412	75.77
868.585	18.43
868.759	75.77
868.932	65.53
869.105	53.25
869.279	57.34
869.452	30.72
869.625	14.34
869.799	59.39
869.972	-16.38
870.145	-10.24
870.319	6.14
870.492	40.96
870.665	34.82
870.838	-20.48
871.011	30.72
871.185	0
871.358	-10.24
871.531	51.2
871.704	104.45
871.877	55.3
872.05	-14.34
872.223	65.53
872.396	6.14
872.569	-6.14
872.742	26.62
872.915	30.72
873.088	34.82
873.261	-22.53
873.434	12.29
873.607	34.82
873.78	47.1
873.953	75.77
874.126	4.1
874.299	55.3
874.471	4.1
874.644	-16.38
874.817	51.2
874.99	36.86
875.163	59.39
875.335	16.38
875.508	34.82
875.681	18.43
875.853	10.24
876.026	30.72
876.199	10.24
876.371	12.29
876.544	16.38
876.717	6.14
876.889	147.45
877.062	12.29
877.234	18.43
877.407	12.29
877.579	-22.53
877.752	36.86
877.924	30.72
878.097	65.53
878.269	24.58
878.442	10.24
878.614	14.34
878.786	45.06
878.959	-45.06
879.131	-6.14
879.303	-16.38
879.476	26.62
879.648	-8.19
879.82	45.06
879.993	-38.91
880.165	67.58
880.337	-8.19
880.509	18.43
880.681	32.77
880.854	90.11
881.026	-43.01
881.198	-10.24
881.37	24.58
881.542	18.43
881.714	69.63
881.886	75.77
882.058	2.05
882.23	4.1
882.402	36.86
882.574	12.29
882.746	34.82
882.918	36.86
883.09	18.43
883.262	69.63
883.434	16.38
883.606	49.15
883.778	38.91
883.95	55.3
884.122	8.19
884.293	47.1
884.465	30.72
884.637	-8.19
884.809	-34.82
884.98	2.05
885.152	26.62
885.324	-14.34
885.496	43.01
885.667	36.86
885.839	-20.48
886.011	59.39
886.182	38.91
886.354	28.67
886.525	30.72
886.697	14.34
886.869	10.24
887.04	38.91
887.212	12.29
887.383	65.53
887.555	38.91
887.726	38.91
887.897	40.96
888.069	43.01
888.24	-40.96
888.412	-28.67
888.583	67.58
888.754	4.1
888.926	61.44
889.097	57.34
889.268	-43.01
889.44	43.01
889.611	53.25
889.782	100.35
889.953	12.29
890.125	-2.05
890.296	30.72
890.467	10.24
890.638	-34.82
890.809	18.43
890.98	49.15
891.151	-63.49
891.323	55.3
891.494	8.19
891.665	-38.91
891.836	14.34
892.007	65.53
892.178	24.58
892.349	79.87
892.52	-2.05
892.691	8.19
892.862	-4.1
893.032	8.19
893.203	65.53
893.374	51.2
893.545	-40.96
893.716	-4.1
893.887	45.06
894.057	18.43
894.228	71.68
894.399	20.48
894.57	51.2
894.74	32.77
894.911	14.34
895.082	-22.53
895.253	20.48
895.423	6.14
895.594	38.91
895.764	14.34
895.935	-8.19
896.106	63.49
896.276	-14.34
896.447	26.62
896.617	-51.2
896.788	14.34
896.958	-2.05
897.129	-18.43
897.299	-14.34
897.47	24.58
897.64	116.73
897.81	8.19
897.981	-28.67
898.151	57.34
898.322	49.15
898.492	65.53
898.662	34.82
898.832	-53.25
899.003	75.77
899.173	34.82
899.343	40.96
899.513	-38.91
