Data from USB4F104151__109__13-54-51-328.txt Node

Date: Thu Mar 13 13:54:51 EDT 2025
User: louis
Spectrometer: USB4F10415
Trigger mode: 4
Integration Time (sec): 1.000000E-2
Scans to average: 1
Electric dark correction enabled: true
Nonlinearity correction enabled: false
Boxcar width: 0
XAxis mode: Wavelengths
Number of Pixels in Spectrum: 3648
>>>>>Begin Spectral Data<<<<<
178.204	-8.7
178.424	-8.7
178.644	-8.7
178.864	-90.62
179.084	-12.8
179.304	22.02
179.524	-23.04
179.744	44.54
179.964	40.45
180.184	-25.09
180.404	-20.99
180.624	-41.47
180.844	-14.85
181.064	1.54
181.283	52.74
181.503	-14.85
181.723	-20.99
181.943	-2.56
182.163	60.93
182.383	-25.09
182.602	-14.85
182.822	48.64
183.042	-53.76
183.262	-0.51
183.482	-18.94
183.701	34.3
183.921	30.21
184.141	-10.75
184.361	5.63
184.58	11.78
184.8	52.74
185.02	52.74
185.239	77.31
185.459	54.78
185.679	-49.66
185.898	46.59
186.118	69.12
186.338	77.31
186.557	-16.9
186.777	-47.62
186.997	17.92
187.216	32.26
187.436	-12.8
187.655	-8.7
187.875	42.5
188.095	-16.9
188.314	-23.04
188.534	-64
188.753	26.11
188.973	-6.66
189.192	-4.61
189.412	24.06
189.631	62.98
189.851	-14.85
190.07	1.54
190.29	15.87
190.509	42.5
190.729	77.31
190.948	17.92
191.168	46.59
191.387	5.63
191.607	44.54
191.826	3.58
192.045	-43.52
192.265	-10.75
192.484	28.16
192.704	54.78
192.923	-23.04
193.142	50.69
193.362	26.11
193.581	60.93
193.8	32.26
194.02	-10.75
194.239	32.26
194.458	22.02
194.678	-57.86
194.897	-20.99
195.116	7.68
195.335	77.31
195.555	34.3
195.774	13.82
195.993	-2.56
196.212	30.21
196.432	-39.42
196.651	89.6
196.87	-14.85
197.089	62.98
197.308	24.06
197.528	-41.47
197.747	-31.23
197.966	24.06
198.185	-16.9
198.404	26.11
198.623	50.69
198.842	-0.51
199.062	46.59
199.281	-10.75
199.5	40.45
199.719	52.74
199.938	-14.85
200.157	11.78
200.376	-45.57
200.595	5.63
200.814	26.11
201.033	-47.62
201.252	24.06
201.471	22.02
201.69	-35.33
201.909	-6.66
202.128	-70.14
202.347	7.68
202.566	22.02
202.785	-12.8
203.004	-4.61
203.223	38.4
203.442	40.45
203.661	52.74
203.879	-53.76
204.098	101.89
204.317	44.54
204.536	-25.09
204.755	-35.33
204.974	17.92
205.193	19.97
205.411	28.16
205.63	-68.09
205.849	54.78
206.068	5.63
206.287	24.06
206.505	52.74
206.724	46.59
206.943	1.54
207.162	17.92
207.381	40.45
207.599	-20.99
207.818	22.02
208.037	7.68
208.255	30.21
208.474	-0.51
208.693	13.82
208.911	34.3
209.13	15.87
209.349	-16.9
209.567	-0.51
209.786	19.97
210.005	38.4
210.223	58.88
210.442	-41.47
210.661	1.54
210.879	17.92
211.098	1.54
211.316	9.73
211.535	-14.85
211.753	50.69
211.972	1.54
212.191	52.74
212.409	-16.9
212.628	-35.33
212.846	-0.51
213.065	-47.62
213.283	5.63
213.502	-4.61
213.72	9.73
213.938	26.11
214.157	28.16
214.375	28.16
214.594	-47.62
214.812	5.63
215.031	-18.94
215.249	-2.56
215.467	81.41
215.686	17.92
215.904	38.4
216.122	50.69
216.341	81.41
216.559	11.78
216.778	-29.18
216.996	108.03
217.214	-14.85
217.432	89.6
217.651	-0.51
217.869	58.88
218.087	-14.85
218.306	48.64
218.524	38.4
218.742	48.64
218.96	22.02
219.179	-4.61
219.397	50.69
219.615	-2.56
219.833	-14.85
220.051	42.5
220.27	1.54
220.488	-6.66
220.706	-27.14
220.924	46.59
221.142	42.5
221.36	50.69
221.578	-31.23
221.796	56.83
222.015	28.16
222.233	46.59
222.451	11.78
222.669	13.82
222.887	44.54
223.105	-29.18
223.323	-2.56
223.541	15.87
223.759	5.63
223.977	5.63
224.195	7.68
224.413	22.02
224.631	-2.56
224.849	-16.9
225.067	-23.04
225.285	15.87
225.503	42.5
225.721	-27.14
225.939	-18.94
226.157	-23.04
226.375	-37.38
226.592	-27.14
226.81	-25.09
227.028	17.92
227.246	17.92
227.464	69.12
227.682	73.21
227.9	-14.85
228.117	54.78
228.335	67.07
228.553	-0.51
228.771	40.45
228.989	34.3
229.206	1.54
229.424	38.4
229.642	34.3
229.86	-72.19
230.077	24.06
230.295	34.3
230.513	19.97
230.731	60.93
230.948	26.11
231.166	73.21
231.384	15.87
231.601	5.63
231.819	36.35
232.037	-10.75
232.254	17.92
232.472	26.11
232.689	1.54
232.907	19.97
233.125	11.78
233.342	46.59
233.56	13.82
233.777	-29.18
233.995	5.63
234.213	13.82
234.43	15.87
234.648	-49.66
234.865	7.68
235.083	48.64
235.3	-39.42
235.518	-29.18
235.735	19.97
235.953	15.87
236.17	13.82
236.388	-37.38
236.605	-57.86
236.822	46.59
237.04	50.69
237.257	11.78
237.475	60.93
237.692	32.26
237.909	-16.9
238.127	44.54
238.344	9.73
238.562	34.3
238.779	-12.8
238.996	9.73
239.214	17.92
239.431	5.63
239.648	-31.23
239.865	3.58
240.083	-10.75
240.3	46.59
240.517	-2.56
240.735	15.87
240.952	60.93
241.169	-2.56
241.386	67.07
241.603	-8.7
241.821	-41.47
242.038	-2.56
242.255	30.21
242.472	-8.7
242.689	-10.75
242.907	-98.81
243.124	-12.8
243.341	-10.75
243.558	32.26
243.775	-6.66
243.992	17.92
244.209	7.68
244.426	87.55
244.643	65.02
244.86	42.5
245.078	81.41
245.295	-12.8
245.512	-18.94
245.729	-0.51
245.946	34.3
246.163	13.82
246.38	-25.09
246.597	1.54
246.814	34.3
247.031	-53.76
247.248	75.26
247.464	34.3
247.681	26.11
247.898	26.11
248.115	5.63
248.332	13.82
248.549	-25.09
248.766	3.58
248.983	36.35
249.2	22.02
249.417	9.73
249.633	52.74
249.85	13.82
250.067	44.54
250.284	7.68
250.501	79.36
250.717	52.74
250.934	17.92
251.151	-0.51
251.368	87.55
251.585	34.3
251.801	19.97
252.018	36.35
252.235	-0.51
252.451	46.59
252.668	44.54
252.885	77.31
253.102	48.64
253.318	-31.23
253.535	62.98
253.752	48.64
253.968	-25.09
254.185	-51.71
254.401	11.78
254.618	91.65
254.835	-23.04
255.051	30.21
255.268	-14.85
255.484	36.35
255.701	32.26
255.917	54.78
256.134	-18.94
256.351	19.97
256.567	-74.24
256.784	-20.99
257	-14.85
257.217	54.78
257.433	56.83
257.65	38.4
257.866	11.78
258.082	-6.66
258.299	46.59
258.515	69.12
258.732	30.21
258.948	69.12
259.165	28.16
259.381	56.83
259.597	38.4
259.814	19.97
260.03	-4.61
260.246	11.78
260.463	69.12
260.679	-20.99
260.895	-10.75
261.112	-20.99
261.328	-51.71
261.544	-16.9
261.761	-33.28
261.977	50.69
262.193	34.3
262.409	103.93
262.626	52.74
262.842	-2.56
263.058	40.45
263.274	1.54
263.49	-53.76
263.707	-49.66
263.923	-41.47
264.139	7.68
264.355	-8.7
264.571	7.68
264.787	24.06
265.004	116.22
265.22	-18.94
265.436	58.88
265.652	-8.7
265.868	48.64
266.084	11.78
266.3	48.64
266.516	-10.75
266.732	58.88
266.948	91.65
267.164	24.06
267.38	-23.04
267.596	52.74
267.812	-20.99
268.028	44.54
268.244	32.26
268.46	26.11
268.676	-2.56
268.892	-8.7
269.108	3.58
269.324	17.92
269.54	-2.56
269.756	-4.61
269.972	-12.8
270.188	32.26
270.403	103.93
270.619	17.92
270.835	-2.56
271.051	5.63
271.267	17.92
271.483	93.69
271.698	9.73
271.914	-12.8
272.13	5.63
272.346	-18.94
272.562	40.45
272.777	-14.85
272.993	-35.33
273.209	11.78
273.425	83.45
273.64	34.3
273.856	24.06
274.072	-6.66
274.287	-23.04
274.503	65.02
274.719	110.08
274.934	34.3
275.15	-43.52
275.366	56.83
275.581	-74.24
275.797	32.26
276.012	5.63
276.228	24.06
276.444	44.54
276.659	52.74
276.875	-2.56
277.09	15.87
277.306	-2.56
277.521	5.63
277.737	-14.85
277.952	-8.7
278.168	7.68
278.383	44.54
278.599	-10.75
278.814	103.93
279.03	54.78
279.245	52.74
279.461	30.21
279.676	65.02
279.892	-29.18
280.107	-47.62
280.322	-43.52
280.538	32.26
280.753	-51.71
280.969	58.88
281.184	-35.33
281.399	50.69
281.615	73.21
281.83	26.11
282.045	26.11
282.26	11.78
282.476	69.12
282.691	48.64
282.906	17.92
283.122	34.3
283.337	79.36
283.552	89.6
283.767	89.6
283.983	9.73
284.198	17.92
284.413	24.06
284.628	-70.14
284.843	11.78
285.058	19.97
285.274	36.35
285.489	-49.66
285.704	17.92
285.919	-16.9
286.134	40.45
286.349	22.02
286.564	7.68
286.779	40.45
286.995	30.21
287.21	-14.85
287.425	-16.9
287.64	52.74
287.855	9.73
288.07	26.11
288.285	-20.99
288.5	-10.75
288.715	24.06
288.93	-8.7
289.145	77.31
289.36	-27.14
289.575	-20.99
289.79	44.54
290.004	15.87
290.219	13.82
290.434	13.82
290.649	52.74
290.864	-20.99
291.079	-2.56
291.294	-31.23
291.509	-14.85
291.724	19.97
291.938	79.36
292.153	93.69
292.368	-20.99
292.583	77.31
292.798	9.73
293.012	44.54
293.227	-4.61
293.442	-39.42
293.657	97.79
293.871	71.17
294.086	54.78
294.301	52.74
294.516	110.08
294.73	101.89
294.945	13.82
295.16	65.02
295.374	50.69
295.589	58.88
295.804	36.35
296.018	-8.7
296.233	-27.14
296.447	87.55
296.662	-25.09
296.877	58.88
297.091	34.3
297.306	-12.8
297.52	11.78
297.735	60.93
297.949	11.78
298.164	-6.66
298.378	15.87
298.593	-45.57
298.807	-25.09
299.022	-12.8
299.236	-35.33
299.451	-6.66
299.665	22.02
299.88	40.45
300.094	77.31
300.309	52.74
300.523	-0.51
300.737	22.02
300.952	-2.56
301.166	-16.9
301.381	56.83
301.595	24.06
301.809	7.68
302.024	103.93
302.238	30.21
302.452	62.98
302.667	15.87
302.881	67.07
303.095	7.68
303.309	58.88
303.524	13.82
303.738	17.92
303.952	-29.18
304.166	52.74
304.381	15.87
304.595	67.07
304.809	26.11
305.023	-53.76
305.237	99.84
305.452	1.54
305.666	75.26
305.88	19.97
306.094	7.68
306.308	77.31
306.522	17.92
306.736	95.74
306.95	5.63
307.164	26.11
307.379	-51.71
307.593	28.16
307.807	26.11
308.021	3.58
308.235	58.88
308.449	-14.85
308.663	-35.33
308.877	44.54
309.091	38.4
309.305	50.69
309.519	24.06
309.733	52.74
309.947	13.82
310.161	50.69
310.374	-35.33
310.588	71.17
310.802	11.78
311.016	67.07
311.23	34.3
311.444	73.21
311.658	3.58
311.872	-53.76
312.085	-0.51
312.299	65.02
312.513	28.16
312.727	24.06
312.941	48.64
313.154	15.87
313.368	15.87
313.582	-33.28
313.796	-37.38
314.009	11.78
314.223	-25.09
314.437	17.92
314.651	-18.94
314.864	40.45
315.078	32.26
315.292	-47.62
315.505	3.58
315.719	42.5
315.933	62.98
316.146	5.63
316.36	60.93
316.573	11.78
316.787	67.07
317.001	58.88
317.214	-25.09
317.428	-6.66
317.641	3.58
317.855	15.87
318.068	58.88
318.282	97.79
318.495	15.87
318.709	15.87
318.922	69.12
319.136	42.5
319.349	-16.9
319.563	50.69
319.776	11.78
319.99	-16.9
320.203	40.45
320.417	-23.04
320.63	26.11
320.843	99.84
321.057	-10.75
321.27	44.54
321.483	-2.56
321.697	-0.51
321.91	52.74
322.124	-4.61
322.337	103.93
322.55	1.54
322.763	83.45
322.977	9.73
323.19	-4.61
323.403	52.74
323.617	-12.8
323.83	48.64
324.043	-14.85
324.256	1.54
324.469	5.63
324.683	36.35
324.896	62.98
325.109	58.88
325.322	9.73
325.535	67.07
325.748	17.92
325.962	-8.7
326.175	30.21
326.388	48.64
326.601	97.79
326.814	36.35
327.027	9.73
327.24	24.06
327.453	-20.99
327.666	77.31
327.879	-43.52
328.092	-10.75
328.305	9.73
328.518	-25.09
328.731	34.3
328.944	11.78
329.157	1.54
329.37	-14.85
329.583	38.4
329.796	28.16
330.009	-4.61
330.222	42.5
330.435	1.54
330.648	67.07
330.861	19.97
331.073	-12.8
331.286	38.4
331.499	-20.99
331.712	1.54
331.925	75.26
332.138	1.54
332.35	85.5
332.563	44.54
332.776	89.6
332.989	15.87
333.202	-18.94
333.414	-18.94
333.627	3.58
333.84	58.88
334.053	22.02
334.265	42.5
334.478	62.98
334.691	116.22
334.903	-61.95
335.116	-8.7
335.329	114.17
335.541	-6.66
335.754	22.02
335.966	-25.09
336.179	85.5
336.392	26.11
336.604	46.59
336.817	9.73
337.029	30.21
337.242	-6.66
337.454	48.64
337.667	15.87
337.88	48.64
338.092	118.27
338.305	42.5
338.517	-49.66
338.729	-12.8
338.942	42.5
339.154	114.17
339.367	77.31
339.579	-4.61
339.792	44.54
340.004	-8.7
340.217	-23.04
340.429	13.82
340.641	65.02
340.854	56.83
341.066	5.63
341.278	3.58
341.491	85.5
341.703	5.63
341.915	-43.52
342.128	-6.66
342.34	-23.04
342.552	-12.8
342.764	87.55
342.977	-18.94
343.189	1.54
343.401	58.88
343.613	56.83
343.826	46.59
344.038	32.26
344.25	-23.04
344.462	38.4
344.674	13.82
344.886	-0.51
345.099	32.26
345.311	1.54
345.523	28.16
345.735	26.11
345.947	36.35
346.159	9.73
346.371	11.78
346.583	34.3
346.795	65.02
347.007	36.35
347.219	87.55
347.431	62.98
347.643	56.83
347.855	-47.62
348.067	3.58
348.279	17.92
348.491	36.35
348.703	19.97
348.915	34.3
349.127	24.06
349.339	36.35
349.551	58.88
349.763	-27.14
349.975	11.78
350.187	91.65
350.399	19.97
350.61	-31.23
350.822	-41.47
351.034	56.83
351.246	54.78
351.458	44.54
351.669	5.63
351.881	-35.33
352.093	44.54
352.305	54.78
352.517	-12.8
352.728	67.07
352.94	5.63
353.152	30.21
353.363	101.89
353.575	-29.18
353.787	34.3
353.999	46.59
354.21	60.93
354.422	-4.61
354.633	71.17
354.845	3.58
355.057	-39.42
355.268	-37.38
355.48	15.87
355.692	-55.81
355.903	15.87
356.115	44.54
356.326	-41.47
356.538	13.82
356.749	-33.28
356.961	60.93
357.172	13.82
357.384	71.17
357.595	77.31
357.807	52.74
358.018	34.3
358.23	9.73
358.441	87.55
358.653	-64
358.864	44.54
359.075	-27.14
359.287	54.78
359.498	126.46
359.709	56.83
359.921	36.35
360.132	15.87
360.344	-2.56
360.555	60.93
360.766	-29.18
360.977	30.21
361.189	-4.61
361.4	60.93
361.611	99.84
361.823	5.63
362.034	-12.8
362.245	9.73
362.456	36.35
362.667	24.06
362.879	24.06
363.09	-23.04
363.301	15.87
363.512	44.54
363.723	19.97
363.935	-37.38
364.146	77.31
364.357	11.78
364.568	60.93
364.779	60.93
364.99	40.45
365.201	-47.62
365.412	24.06
365.623	9.73
365.834	67.07
366.045	11.78
366.256	46.59
366.467	-47.62
366.678	60.93
366.889	7.68
367.1	-10.75
367.311	1.54
367.522	-45.57
367.733	-14.85
367.944	50.69
368.155	32.26
368.366	19.97
368.577	26.11
368.788	15.87
368.999	19.97
369.209	11.78
369.42	42.5
369.631	58.88
369.842	-55.81
370.053	30.21
370.264	13.82
370.474	17.92
370.685	58.88
370.896	-6.66
371.107	26.11
371.317	19.97
371.528	34.3
371.739	67.07
371.95	26.11
372.16	17.92
372.371	9.73
372.582	-14.85
372.792	77.31
373.003	-18.94
373.214	108.03
373.424	24.06
373.635	28.16
373.846	17.92
374.056	-57.86
374.267	42.5
374.477	71.17
374.688	7.68
374.898	32.26
375.109	69.12
375.319	13.82
375.53	28.16
375.74	87.55
375.951	85.5
376.161	40.45
376.372	17.92
376.582	40.45
376.793	-8.7
377.003	5.63
377.214	48.64
377.424	-2.56
377.635	56.83
377.845	62.98
378.055	44.54
378.266	-10.75
378.476	13.82
378.686	7.68
378.897	1.54
379.107	7.68
379.317	89.6
379.528	3.58
379.738	93.69
379.948	26.11
380.158	46.59
380.369	73.21
380.579	32.26
380.789	3.58
380.999	22.02
381.21	32.26
381.42	19.97
381.63	5.63
381.84	83.45
382.05	46.59
382.261	34.3
382.471	-16.9
382.681	28.16
382.891	26.11
383.101	56.83
383.311	-31.23
383.521	34.3
383.731	1.54
383.941	46.59
384.151	40.45
384.361	60.93
384.571	15.87
384.781	58.88
384.991	73.21
385.201	108.03
385.411	79.36
385.621	54.78
385.831	-31.23
386.041	-18.94
386.251	-2.56
386.461	44.54
386.671	19.97
386.881	26.11
387.091	34.3
387.301	13.82
387.511	52.74
387.72	79.36
387.93	67.07
388.14	-18.94
388.35	62.98
388.56	32.26
388.769	19.97
388.979	32.26
389.189	-41.47
389.399	62.98
389.609	56.83
389.818	50.69
390.028	22.02
390.238	48.64
390.447	-10.75
390.657	83.45
390.867	40.45
391.076	-2.56
391.286	-8.7
391.496	28.16
391.705	1.54
391.915	56.83
392.125	30.21
392.334	42.5
392.544	7.68
392.753	75.26
392.963	-23.04
393.172	52.74
393.382	40.45
393.591	9.73
393.801	58.88
394.01	48.64
394.22	-2.56
394.429	91.65
394.639	-2.56
394.848	56.83
395.058	128.51
395.267	-16.9
395.477	22.02
395.686	-20.99
395.895	32.26
396.105	15.87
396.314	40.45
396.524	46.59
396.733	71.17
396.942	87.55
397.152	32.26
397.361	44.54
397.57	1.54
397.78	83.45
397.989	67.07
398.198	69.12
398.407	42.5
398.617	58.88
398.826	38.4
399.035	89.6
399.244	99.84
399.453	32.26
399.663	36.35
399.872	105.98
400.081	87.55
400.29	52.74
400.499	108.03
400.708	28.16
400.917	54.78
401.127	91.65
401.336	30.21
401.545	89.6
401.754	56.83
401.963	93.69
402.172	24.06
402.381	120.32
402.59	-0.51
402.799	1.54
403.008	103.93
403.217	122.37
403.426	99.84
403.635	44.54
403.844	58.88
404.053	130.56
404.262	103.93
404.471	196.09
404.68	146.94
404.888	146.94
405.097	142.85
405.306	97.79
405.515	71.17
405.724	52.74
405.933	114.17
406.142	83.45
406.35	54.78
406.559	77.31
406.768	85.5
406.977	85.5
407.185	130.56
407.394	65.02
407.603	134.65
407.812	179.71
408.02	124.41
408.229	118.27
408.438	169.47
408.646	194.05
408.855	165.37
409.064	153.09
409.272	130.56
409.481	175.61
409.69	189.95
409.898	163.33
410.107	161.28
410.315	198.14
410.524	230.91
410.733	220.67
410.941	101.89
411.15	165.37
411.358	235
411.567	224.76
411.775	247.29
411.984	247.29
412.192	232.96
412.401	271.87
412.609	280.06
412.818	253.44
413.026	259.58
413.234	202.24
413.443	300.54
413.651	343.55
413.86	304.64
414.068	392.7
414.276	361.98
414.485	292.35
414.693	384.51
414.901	394.75
415.11	292.35
415.318	425.47
415.526	470.52
415.734	546.3
415.943	429.56
416.151	464.38
416.359	413.18
416.567	517.62
416.776	536.06
416.984	527.86
417.192	501.24
417.4	601.59
417.608	470.52
417.817	589.3
418.025	579.06
418.233	611.83
418.441	683.51
418.649	701.94
418.857	660.98
419.065	716.28
419.273	755.19
419.481	808.44
419.689	820.72
419.897	876.02
420.105	876.02
420.313	798.2
420.521	902.64
420.729	839.16
420.937	1007.09
421.145	906.74
421.353	1091.06
421.561	1017.33
421.769	1109.49
421.977	1138.16
422.185	1203.69
422.393	1252.84
422.601	1248.75
422.809	1371.63
423.017	1254.89
423.224	1322.48
423.432	1388.01
423.64	1484.27
423.848	1574.38
424.056	1551.85
424.263	1517.03
424.471	1592.81
424.679	1697.25
424.887	1725.93
425.094	1770.98
425.302	1758.69
425.51	1914.34
425.718	2022.88
425.925	2076.13
426.133	1983.97
426.341	2112.99
426.548	2196.96
426.756	2225.63
426.964	2123.23
427.171	2332.12
427.379	2418.14
427.586	2352.6
427.794	2565.59
428.001	2633.18
428.209	2719.19
428.417	2633.18
428.624	2850.26
428.832	2985.43
429.039	2921.94
429.247	2878.93
429.454	3143.12
429.662	3292.62
429.869	3071.44
430.076	3222.99
430.284	3294.67
430.491	3315.15
430.699	3616.2
430.906	3583.43
431.114	3698.12
431.321	3784.13
431.528	3884.48
431.736	4107.71
431.943	4302.27
432.15	4152.77
432.358	4240.83
432.565	4492.73
432.772	4414.91
432.979	4681.14
433.187	4611.51
433.394	4820.41
433.601	5133.75
433.808	5180.85
434.016	5082.55
434.223	5320.11
434.43	5610.92
434.637	5561.77
434.844	5803.43
435.052	5858.73
435.259	5963.17
435.466	6069.67
435.673	5920.17
435.88	6340
436.087	6763.93
436.294	6559.13
436.501	6460.83
436.708	6641.05
436.915	6864.28
437.122	7327.12
437.329	7150.99
437.537	7294.35
437.743	7361.94
437.95	7460.24
438.157	7904.65
438.364	8066.44
438.571	7992.71
438.778	8242.56
438.985	8947.06
439.192	8392.06
439.399	8967.54
439.606	8439.17
439.813	8887.67
440.02	9487.73
440.227	9502.06
440.433	9555.31
440.64	9762.16
440.847	9586.03
441.054	9866.6
441.261	10274.15
441.467	10218.85
441.674	10599.77
441.881	10874.2
442.088	11003.22
442.294	10816.86
442.501	11240.79
442.708	11570.51
442.914	11713.87
443.121	12123.46
443.328	11947.34
443.534	12680.51
443.741	12291.4
443.948	12391.75
444.154	12959.03
444.361	12873.02
444.568	13274.42
444.774	13004.09
444.981	13493.55
445.187	13841.71
445.394	14443.81
445.6	14019.88
445.807	15627.54
446.013	14619.94
446.22	15084.83
446.426	15516.95
446.633	15846.67
446.839	16295.18
447.046	15746.32
447.252	16502.02
447.459	16522.5
447.665	16538.88
447.871	17077.5
448.078	17992.94
448.284	17179.9
448.491	17540.34
448.697	18119.92
448.903	18740.45
449.11	18597.09
449.316	18072.81
449.522	18603.24
449.728	18859.23
449.935	19172.57
450.141	19322.07
450.347	19614.93
450.553	19127.52
450.76	19465.43
450.966	20157.64
451.172	19330.27
451.378	20163.79
451.584	19780.82
451.791	20257.99
451.997	20284.62
452.203	20753.6
452.409	20419.78
452.615	20335.82
452.821	19616.98
453.027	19367.13
453.233	20563.14
453.44	19645.65
453.646	19655.89
453.852	20131.02
454.058	20257.99
454.264	19674.32
454.47	19840.21
454.676	19565.78
454.882	20477.13
455.088	18767.07
455.294	18892
455.5	19111.13
455.705	19317.98
455.911	18461.93
456.117	18205.93
456.323	17820.91
456.529	16801.02
456.735	17700.08
456.941	17163.51
457.147	17052.92
457.352	16420.1
457.558	16145.67
457.764	16174.35
457.97	15920.4
458.176	15406.36
458.381	15645.97
458.587	14720.29
458.793	14830.88
458.999	13894.96
459.204	14841.12
459.41	14648.61
459.616	13632.82
459.821	13587.76
460.027	13538.61
460.233	13266.23
460.438	12819.77
460.644	12926.27
460.85	12197.19
461.055	12098.89
461.261	12002.63
461.466	11132.25
461.672	10933.59
461.878	11441.49
462.083	10884.44
462.289	10548.58
462.494	10661.21
462.7	10169.7
462.905	9987.43
463.111	10497.38
463.316	10106.21
463.522	9973.1
463.727	9973.1
463.932	10106.21
464.138	10016.1
464.343	9839.98
464.549	9497.97
464.754	9842.03
464.959	9897.32
465.165	9874.79
465.37	9536.88
465.575	9055.61
465.781	9846.12
465.986	9442.67
466.191	9233.78
466.397	9059.7
466.602	8629.63
466.807	9022.84
467.012	8848.76
467.218	8797.56
467.423	8824.19
467.628	8965.5
467.833	9379.18
468.038	8955.26
468.244	8533.37
468.449	9006.45
468.654	8650.11
468.859	8457.6
469.064	8637.82
469.269	8230.27
469.474	8256.9
469.679	8547.71
469.885	8256.9
470.09	8351.1
470.295	8289.67
470.5	8091.01
470.705	8191.36
470.91	7861.64
471.115	7875.98
471.32	7955.85
471.525	7908.74
471.73	7773.58
471.935	7812.49
472.139	7386.51
472.344	7523.73
472.549	7417.23
472.754	7409.04
472.959	7230.87
473.164	6991.25
473.369	6813.08
473.574	7304.59
473.778	7085.46
473.983	7011.73
474.188	6921.62
474.393	6880.66
474.598	6811.03
474.802	6698.39
475.007	6907.29
475.212	6690.2
475.417	6442.4
475.621	6407.58
475.826	6512.03
476.031	6337.95
476.235	6210.98
476.44	6143.39
476.645	6131.11
476.849	6157.73
477.054	6129.06
477.259	6165.92
477.463	6141.35
477.668	5889.45
477.872	5860.77
478.077	5952.93
478.282	5576.11
478.486	5760.42
478.691	5658.03
478.895	5705.13
479.1	5813.67
479.304	5688.75
479.509	5475.76
479.713	5631.4
479.918	5287.34
480.122	5326.25
480.326	5285.3
480.531	5481.9
480.735	5461.42
480.94	5264.82
481.144	5434.8
481.348	5336.49
481.553	5309.87
481.757	5287.34
481.961	5336.49
482.166	5383.6
482.37	5367.21
482.574	5156.27
482.778	5176.75
482.983	5283.25
483.187	5387.69
483.391	5295.54
483.595	5277.1
483.8	5258.67
484.004	5103.03
484.208	5250.48
484.412	5313.97
484.616	5283.25
484.821	5195.18
485.025	5199.28
485.229	5301.68
485.433	5137.84
485.637	5219.76
485.841	5383.6
486.045	5238.19
486.249	5193.14
486.453	5141.94
486.657	5189.04
486.861	5332.4
487.065	5103.03
487.269	5242.29
487.473	5205.42
487.677	5238.19
487.881	5277.1
488.085	5219.76
488.289	5148.08
488.493	5297.58
488.697	5361.07
488.901	5285.3
489.105	5256.62
489.309	5221.81
489.512	5283.25
489.716	5316.01
489.92	5248.43
490.124	5219.76
490.328	5428.65
490.531	5381.55
490.735	5518.76
490.939	5373.36
491.143	5422.51
491.346	5365.17
491.55	5567.92
491.754	5422.51
491.958	5510.57
492.161	5518.76
492.365	5619.11
492.569	5629.35
492.772	5639.59
492.976	5617.07
493.18	5631.4
493.383	5825.96
493.587	5707.18
493.79	5764.52
493.994	5750.18
494.197	5942.69
494.401	5938.6
494.605	5885.35
494.808	5993.89
495.012	6032.8
495.215	5916.07
495.419	6049.19
495.622	6174.11
495.825	6249.89
496.029	6159.78
496.232	6479.26
496.436	6282.66
496.639	6481.31
496.843	6438.3
497.046	6550.94
497.249	6765.98
497.453	6665.63
497.656	6774.17
497.859	6823.32
498.063	6829.46
498.266	7146.9
498.469	7036.31
498.673	7107.99
498.876	6927.77
499.079	7327.12
499.282	7228.82
499.485	7384.46
499.689	7296.4
499.892	7560.59
500.095	7630.22
500.298	7773.58
500.501	7916.94
500.705	7918.98
500.908	7982.47
501.111	8019.33
501.314	8230.27
501.517	8332.67
501.72	8441.22
501.923	8449.41
502.126	8553.85
502.329	8848.76
502.532	8668.54
502.735	8955.26
502.938	9164.15
503.141	9071.99
503.344	9155.96
503.547	9282.93
503.75	9323.89
503.953	9653.61
504.156	9702.76
504.359	9713
504.562	9790.83
504.765	10265.96
504.968	10218.85
505.17	10202.47
505.373	10507.62
505.576	10648.93
505.779	10646.88
505.982	10890.59
506.185	11124.05
506.387	11076.95
506.59	11183.45
506.793	11390.29
506.996	11578.7
507.198	11750.73
507.401	11777.36
507.604	12086.6
507.807	12217.67
508.009	12180.81
508.212	12473.67
508.415	12588.35
508.617	12879.16
508.82	13235.51
509.022	12950.84
509.225	13268.28
509.428	13305.14
509.63	13423.92
509.833	13352.24
510.035	13907.24
510.238	13712.69
510.44	14073.13
510.643	14476.58
510.845	14585.12
511.048	14329.13
511.25	14621.98
511.453	15013.15
511.655	15373.59
511.858	15203.61
512.06	15416.6
512.262	15674.64
512.465	15668.5
512.667	15969.55
512.87	16260.36
513.072	16289.03
513.274	16610.56
513.477	17048.83
513.679	17026.3
513.881	17235.19
514.084	17687.79
514.286	17327.35
514.488	17478.9
514.69	17837.3
514.893	18121.96
515.095	18093.29
515.297	18513.13
515.499	18722.02
515.701	18873.57
515.904	19264.73
516.106	19217.63
516.308	19723.48
516.51	19758.29
516.712	19791.06
516.914	20149.45
517.116	20413.64
517.318	20681.92
517.52	20806.85
517.722	20999.36
517.925	21327.03
518.127	21472.44
518.329	21732.53
518.531	22029.49
518.733	21888.18
518.935	22224.04
519.136	22752.42
519.338	22910.11
519.54	23121.06
519.742	23116.96
519.944	23495.83
520.146	23983.25
520.348	24028.31
520.55	24218.77
520.752	24280.21
520.954	24761.48
521.155	24738.95
521.357	25007.23
521.559	25203.84
521.761	25588.86
521.963	25730.17
522.164	25857.14
522.366	25771.13
522.568	26254.45
522.77	26502.25
522.971	27411.55
523.173	26952.8
523.375	27049.06
523.576	26864.74
523.778	27149.41
523.98	27884.63
524.181	27888.73
524.383	27937.88
524.584	28161.11
524.786	28077.14
524.988	28054.61
525.189	28795.98
525.391	28914.76
525.592	28933.19
525.794	29256.77
525.995	29445.18
526.197	29547.58
526.398	29588.54
526.6	30178.36
526.801	29799.48
527.003	29942.84
527.204	30018.61
527.406	30762.03
527.607	30106.68
527.808	30577.71
528.01	30223.41
528.211	30661.68
528.412	31048.74
528.614	30897.19
528.815	31056.93
529.016	31302.69
529.218	31190.05
529.419	31388.71
529.62	31431.71
529.822	31126.57
530.023	31583.26
530.224	31931.42
530.425	31525.92
530.626	31552.54
530.828	31398.94
531.029	32187.41
531.23	31673.37
531.431	31726.62
531.632	31964.18
531.833	32388.11
532.035	32132.12
532.236	31947.8
532.437	32381.97
532.638	32121.88
532.839	32455.7
533.04	32666.64
533.241	32048.15
533.442	32666.64
533.643	32584.72
533.844	32533.52
534.045	32728.08
534.246	32433.17
534.447	32541.71
534.648	32687.12
534.849	32623.63
535.05	32719.88
535.251	32906.25
535.451	32613.39
535.652	32990.22
535.853	32996.36
536.054	32435.22
536.255	32945.16
536.456	32914.44
536.657	33092.62
536.857	32590.86
537.058	32742.41
537.259	33248.26
537.46	32650.25
537.66	32953.35
537.861	32611.34
538.062	32803.85
538.263	32947.21
538.463	32855.05
538.664	32779.28
538.865	32803.85
539.065	32734.22
539.266	32975.88
539.466	33297.41
539.667	32742.41
539.868	33004.55
540.068	32877.58
540.269	32889.87
540.469	32992.26
540.67	32701.45
540.87	32893.96
541.071	32738.32
541.271	33190.92
541.472	32570.38
541.672	32769.04
541.873	32908.3
542.073	32074.77
542.274	33203.21
542.474	32672.78
542.675	32738.32
542.875	33012.74
543.075	32748.56
543.276	32668.69
543.476	33299.46
543.676	32560.14
543.877	32734.22
544.077	32826.38
544.277	32578.57
544.478	32742.41
544.678	32668.69
544.878	32365.59
545.078	32455.7
545.279	32881.67
545.479	32879.63
545.679	32887.82
545.879	32873.48
546.079	32900.11
546.28	32703.5
546.48	32451.6
546.68	32713.74
546.88	32877.58
547.08	33094.66
547.28	32904.2
547.48	32322.58
547.68	33065.99
547.88	32797.71
548.081	32957.45
548.281	33045.51
548.481	32668.69
548.681	32988.17
548.881	32695.31
549.081	32963.59
549.28	32748.56
549.48	32560.14
549.68	32510.99
549.88	33053.7
550.08	32381.97
550.28	32693.26
550.48	32934.92
550.68	32627.73
550.88	32687.12
551.08	32445.46
551.279	32750.6
551.479	32492.56
551.679	33059.85
551.879	32939.02
552.079	33039.37
552.278	32543.76
552.478	32496.66
552.678	32740.36
552.878	32822.28
553.077	32730.12
553.277	32146.45
553.477	33039.37
553.676	32664.59
553.876	32332.82
554.076	32171.03
554.275	32355.35
554.475	31908.89
554.674	32308.24
554.874	32250.9
555.074	32285.72
555.273	32449.55
555.473	32207.89
555.672	32060.44
555.872	32064.53
556.071	32465.94
556.271	32521.23
556.47	32023.58
556.67	31786.01
556.869	31865.88
557.068	32300.05
557.268	31720.48
557.467	31689.76
557.667	31482.91
557.866	31951.9
558.065	31659.04
558.265	31921.18
558.464	31454.24
558.663	32023.58
558.863	31351.84
559.062	31935.51
559.261	31499.3
559.461	31573.02
559.66	31138.85
559.859	31163.43
560.058	30950.44
560.258	31394.85
560.457	30995.5
560.656	31476.77
560.855	31310.88
561.054	31194.15
561.253	30823.47
561.453	31206.44
561.652	31073.32
561.851	31169.57
562.05	30884.9
562.249	30518.32
562.448	30837.8
562.647	30899.24
562.846	30741.55
563.045	30669.87
563.244	30153.78
563.443	30923.82
563.642	30477.36
563.841	30428.21
564.04	30311.47
564.239	30606.38
564.438	30127.16
564.637	30348.34
564.836	30229.55
565.035	30051.38
565.234	30184.5
565.432	30030.9
565.631	29854.78
565.83	29965.37
566.029	29867.06
566.228	30000.18
566.427	29836.34
566.625	29572.16
566.824	29326.4
567.023	29781.05
567.222	29338.69
567.42	29494.33
567.619	29303.87
567.818	29475.9
568.016	29180.99
568.215	29318.21
568.414	29025.35
568.612	29062.21
568.811	29045.83
569.01	28898.38
569.208	28468.3
569.407	28834.89
569.605	28433.49
569.804	28683.34
570.002	28253.26
570.201	28419.15
570.4	28189.78
570.598	28154.96
570.797	28521.55
570.995	28085.33
571.193	27901.01
571.392	28298.32
571.59	27776.09
571.789	27948.12
571.987	27352.16
572.186	27657.31
572.384	27509.85
572.582	27671.64
572.781	27661.4
572.979	27186.27
573.177	27458.65
573.376	27612.25
573.574	26934.37
573.772	26858.6
573.971	26735.72
574.169	26645.61
574.367	26481.77
574.565	26653.8
574.763	26618.99
574.962	26438.76
575.16	26360.94
575.358	26475.63
575.556	26035.31
575.754	26537.07
575.952	26014.84
576.151	26186.86
576.349	25779.32
576.547	25853.05
576.745	25848.95
576.943	25734.26
577.141	25662.58
577.339	25595
577.537	25431.16
577.735	25398.4
577.933	25218.18
578.131	25322.62
578.329	25078.91
578.527	24878.21
578.725	24880.26
578.923	24857.73
579.121	24863.88
579.319	24706.18
579.516	24874.12
579.714	24689.8
579.912	24720.52
580.11	24497.29
580.308	24611.98
580.506	24267.92
580.704	23704.73
580.901	24329.36
581.099	24315.02
581.297	23895.19
581.495	24065.17
581.692	24247.44
581.89	23647.38
582.088	23501.98
582.285	23825.56
582.483	23628.95
582.681	23520.41
582.878	23649.43
583.076	23401.63
583.274	23508.12
583.471	23319.71
583.669	23315.61
583.866	23127.2
584.064	23252.13
584.262	22953.12
584.459	22906.02
584.657	23039.14
584.854	22713.51
585.052	22533.29
585.249	22830.24
585.447	22480.04
585.644	22162.61
585.841	22498.47
586.039	22537.38
586.236	22232.24
586.434	22457.51
586.631	21937.33
586.828	22293.68
587.026	22078.64
587.223	22068.4
587.42	22062.26
587.618	21994.67
587.815	21830.83
588.012	21951.67
588.21	21683.38
588.407	21759.16
588.604	21628.09
588.801	21361.85
588.999	21585.08
589.196	21138.62
589.393	21464.25
589.59	21439.67
589.787	21263.55
589.984	21155.01
590.182	20987.07
590.379	21126.33
590.576	20776.13
590.773	20739.27
590.97	20769.99
591.167	20722.88
591.364	20460.74
591.561	20577.48
591.758	20047.05
591.955	20370.63
592.152	20475.08
592.349	20380.87
592.546	20432.07
592.743	20280.52
592.94	20094.16
593.137	20270.28
593.334	20327.63
593.531	19784.91
593.727	20196.56
593.924	20036.81
594.121	19629.27
594.318	20178.12
594.515	19547.35
594.712	20155.6
594.908	19539.16
595.105	19756.24
595.302	19262.68
595.499	19389.66
595.696	19186.91
595.892	19375.32
596.089	19242.2
596.286	19403.99
596.482	19160.28
596.679	19217.63
596.876	19125.47
597.072	19162.33
597.269	19057.89
597.466	18799.84
597.662	18865.38
597.859	18771.17
598.055	18769.12
598.252	18674.92
598.448	18844.9
598.645	18523.37
598.841	18437.35
599.038	18482.41
599.234	18353.38
599.431	18156.78
599.627	18173.16
599.824	18353.38
600.02	18005.23
600.217	17978.61
600.413	18099.44
600.609	17790.19
600.806	17761.52
601.002	18060.52
601.198	17892.59
601.395	17847.54
601.591	17673.46
601.787	17659.12
601.984	17325.3
602.18	17788.14
602.376	17419.51
602.572	17458.42
602.769	17411.32
602.965	17044.73
603.161	17341.69
603.357	17231.1
603.553	17118.46
603.75	17069.31
603.946	17044.73
604.142	17145.08
604.338	16741.63
604.534	16786.69
604.73	16596.23
604.926	16590.08
605.122	16594.18
605.318	16467.2
605.514	16395.53
605.71	16237.83
605.906	16268.55
606.102	16483.59
606.298	16342.28
606.494	16178.44
606.69	16229.64
606.886	16127.24
607.082	15992.08
607.278	16198.92
607.474	15924.49
607.67	15985.93
607.866	15627.54
608.062	16033.04
608.257	15650.07
608.453	15631.63
608.649	15938.83
608.845	15609.11
609.041	15553.81
609.236	15826.19
609.432	15424.79
609.628	15332.63
609.824	15326.49
610.019	15289.62
610.215	15146.26
610.411	15344.92
610.606	15074.59
610.802	15228.18
610.998	15244.57
611.193	14998.81
611.389	14841.12
611.584	15004.96
611.78	14933.28
611.976	14845.21
612.171	14593.31
612.367	14931.23
612.562	14908.7
612.758	14660.9
612.953	14427.43
613.149	14884.12
613.344	14429.48
613.539	14736.67
613.735	14470.44
613.93	14626.08
614.126	14257.45
614.321	14679.33
614.517	14300.45
614.712	14511.39
614.907	14165.29
615.103	14169.38
615.298	14368.04
615.493	14165.29
615.688	14064.94
615.884	14091.56
616.079	13798.7
616.274	13919.53
616.47	13874.48
616.665	13854
616.86	14032.17
617.055	13983.02
617.25	13888.81
617.445	13866.28
617.641	13641.01
617.836	13647.15
618.031	13378.87
618.226	13684.02
618.421	13554.99
618.616	13573.42
618.811	13327.67
619.006	13557.04
619.201	13296.95
619.396	13249.85
619.591	12997.95
619.786	13215.03
619.981	12864.83
620.176	13024.57
620.371	12911.93
620.566	12817.72
620.761	12913.98
620.956	12862.78
621.151	12533.06
621.346	12834.11
621.541	12617.02
621.735	12629.31
621.93	12174.66
622.125	12428.61
622.32	12098.89
622.515	12356.93
622.709	12133.7
622.904	12283.2
623.099	12102.98
623.294	12107.08
623.488	11863.37
623.683	11967.82
623.878	11687.25
624.072	11634
624.267	11726.16
624.462	11697.49
624.656	11511.12
624.851	11670.86
625.046	11543.89
625.24	11246.93
625.435	11144.53
625.629	11220.31
625.824	11072.86
626.018	10966.36
626.213	10763.61
626.407	10917.21
626.602	10790.24
626.796	10816.86
626.991	10986.84
627.185	10730.84
627.38	10736.99
627.574	10583.39
627.768	10626.4
627.963	10575.2
628.157	10192.23
628.352	10517.86
628.546	10323.3
628.74	10349.92
628.935	10378.59
629.129	10333.54
629.323	10122.6
629.517	10028.39
629.712	10110.31
629.906	9803.11
630.1	9895.27
630.294	9844.07
630.489	9864.55
630.683	9764.2
630.877	9610.61
631.071	9690.48
631.265	9545.07
631.459	9514.35
631.653	9524.59
631.848	9469.3
632.042	9325.94
632.236	9430.38
632.43	9176.44
632.624	9325.94
632.818	9176.44
633.012	9053.56
633.206	9250.16
633.4	9164.15
633.594	8930.68
633.788	8869.24
633.982	9106.81
634.176	8930.68
634.369	8785.27
634.563	8799.61
634.757	8652.16
634.951	8615.29
635.145	8779.13
635.339	8705.4
635.533	8738.17
635.726	8457.6
635.92	8525.18
636.114	8435.07
636.308	8537.47
636.501	8541.57
636.695	8340.86
636.889	8336.77
637.083	8291.71
637.276	8068.48
637.47	8007.05
637.664	8111.49
637.857	8179.08
638.051	8009.09
638.244	7816.58
638.438	8011.14
638.632	7775.63
638.825	7730.57
639.019	7597.45
639.212	7660.94
639.406	7710.09
639.599	7679.37
639.793	7771.53
639.986	7458.19
640.18	7552.4
640.373	7581.07
640.567	7536.01
640.76	7413.13
640.954	7300.5
641.147	7183.76
641.34	7269.78
641.534	7167.38
641.727	7179.67
641.92	7314.83
642.114	7052.69
642.307	7073.17
642.5	7058.84
642.694	6935.96
642.887	6819.22
643.08	6886.81
643.273	6843.8
643.467	6845.85
643.66	6747.55
643.853	6720.92
644.046	6550.94
644.239	6641.05
644.432	6522.27
644.626	6309.28
644.819	6548.89
645.012	6442.4
645.205	6430.11
645.398	6448.54
645.591	6419.87
645.784	6333.86
645.977	6333.86
646.17	6170.02
646.363	6172.07
646.556	6231.46
646.749	6176.16
646.942	6264.22
647.135	6137.25
647.328	5809.58
647.521	5848.49
647.714	5893.54
647.907	5852.58
648.099	6010.28
648.292	5809.58
648.485	5701.03
648.678	5623.21
648.871	5733.8
649.064	5610.92
649.256	5590.44
649.449	5537.2
649.642	5615.02
649.835	5416.37
650.027	5502.38
650.22	5612.97
650.413	5273.01
650.605	5545.39
650.798	5551.53
650.991	5479.85
651.183	5268.91
651.376	5133.75
651.568	5293.49
651.761	5158.32
651.954	5154.23
652.146	5240.24
652.339	4955.57
652.531	5043.64
652.724	5031.35
652.916	5098.93
653.109	4877.75
653.301	4873.65
653.494	4998.58
653.686	4902.33
653.879	4904.37
654.071	4842.93
654.263	4879.8
654.456	4867.51
654.648	4746.68
654.84	4623.8
655.033	4791.73
655.225	4742.58
655.417	4642.23
655.61	4726.2
655.802	4484.54
655.994	4652.47
656.186	4435.39
656.379	4523.45
656.571	4517.31
656.763	4425.15
656.955	4394.43
657.148	4339.13
657.34	4339.13
657.532	4257.22
657.724	4177.34
657.916	4232.64
658.108	4255.17
658.3	4206.02
658.492	4122.05
658.684	4144.58
658.876	4126.15
659.068	4107.71
659.26	4013.51
659.452	3984.84
659.644	4056.51
659.836	4005.31
660.028	3943.88
660.22	3943.88
660.412	3870.15
660.604	3859.91
660.796	3823.05
660.988	3718.6
661.18	3788.23
661.372	3767.75
661.563	3833.29
661.755	3839.43
661.947	3694.02
662.139	3786.18
662.331	3532.23
662.522	3630.54
662.714	3589.58
662.906	3581.39
663.097	3427.79
663.289	3521.99
663.481	3585.48
663.673	3431.88
663.864	3487.18
664.056	3556.81
664.247	3497.42
664.439	3376.59
664.631	3341.77
664.822	3300.81
665.014	3454.41
665.205	3239.37
665.397	3333.58
665.588	3323.34
665.78	3374.54
665.971	3321.29
666.163	3204.56
666.354	3196.37
666.546	3065.3
666.737	3106.26
666.929	3171.79
667.12	3161.55
667.311	3108.3
667.503	3096.02
667.694	3065.3
667.885	3075.54
668.077	3139.02
668.268	3024.34
668.459	3001.81
668.651	2987.47
668.842	3050.96
669.033	2901.46
669.224	2964.95
669.416	2928.08
669.607	2964.95
669.798	2887.12
669.989	2944.47
670.18	2864.6
670.371	2835.92
670.563	2792.92
670.754	2840.02
670.945	2819.54
671.136	2760.15
671.327	2729.43
671.518	2864.6
671.709	2905.56
671.9	2751.96
672.091	2708.95
672.282	2704.85
672.473	2721.24
672.664	2729.43
672.855	2704.85
673.046	2659.8
673.237	2706.9
673.428	2635.22
673.619	2786.77
673.809	2622.94
674	2741.72
674.191	2649.56
674.382	2627.03
674.573	2563.54
674.764	2594.26
674.954	2588.12
675.145	2616.79
675.336	2577.88
675.527	2655.7
675.717	2659.8
675.908	2594.26
676.099	2526.68
676.289	2602.46
676.48	2553.31
676.671	2559.45
676.861	2614.74
677.052	2483.67
677.243	2409.95
677.433	2483.67
677.624	2573.78
677.814	2500.06
678.005	2455
678.195	2498.01
678.386	2536.92
678.576	2446.81
678.767	2409.95
678.957	2498.01
679.148	2389.47
679.338	2420.19
679.529	2491.87
679.719	2438.62
679.909	2434.52
680.1	2516.44
680.29	2278.88
680.481	2399.71
680.671	2420.19
680.861	2477.53
681.052	2399.71
681.242	2483.67
681.432	2518.49
681.622	2272.73
681.813	2387.42
682.003	2412
682.193	2348.51
682.383	2266.59
682.573	2258.4
682.764	2373.08
682.954	2328.03
683.144	2340.32
683.334	2295.26
683.524	2242.01
683.714	2379.23
683.904	2334.17
684.094	2282.97
684.284	2362.84
684.474	2289.12
684.664	2268.64
684.854	2280.93
685.044	2334.17
685.234	2323.93
685.424	2260.45
685.614	2313.69
685.804	2293.21
685.994	2194.91
686.184	2203.1
686.374	2301.4
686.564	2219.49
686.753	2258.4
686.943	2239.97
687.133	2172.38
687.323	2293.21
687.513	2199.01
687.702	2131.42
687.892	2168.29
688.082	2244.06
688.272	2235.87
688.461	2325.98
688.651	2262.49
688.841	2330.08
689.03	2102.75
689.22	2262.49
689.41	2196.96
689.599	2205.15
689.789	2172.38
689.979	2082.27
690.168	2315.74
690.358	2211.29
690.547	2215.39
690.737	2270.69
690.926	2287.07
691.116	2219.49
691.305	2110.94
691.495	2137.57
691.684	2178.53
691.874	2178.53
692.063	2235.87
692.252	2282.97
692.442	2252.25
692.631	2227.68
692.82	2274.78
693.01	2129.38
693.199	2190.81
693.388	2172.38
693.578	2289.12
693.767	2162.14
693.956	2156
694.146	2151.9
694.335	2084.32
694.524	2215.39
694.713	2194.91
694.902	2225.63
695.092	2235.87
695.281	2227.68
695.47	2201.05
695.659	2137.57
695.848	2221.53
696.037	2153.95
696.226	2117.09
696.415	2219.49
696.604	2098.66
696.793	2074.08
696.982	2170.33
697.171	2237.92
697.36	2190.81
697.549	2139.62
697.738	2174.43
697.927	2196.96
698.116	2242.01
698.305	2158.05
698.494	2094.56
698.683	2231.77
698.872	2174.43
699.061	2117.09
699.25	2235.87
699.438	2194.91
699.627	2123.23
699.816	2201.05
700.005	2217.44
700.193	2164.19
700.382	2141.66
700.571	2188.77
700.76	2172.38
700.948	2227.68
701.137	2102.75
701.326	2102.75
701.514	2213.34
701.703	2115.04
701.892	2127.33
702.08	2059.74
702.269	2086.37
702.457	2233.82
702.646	2131.42
702.834	2137.57
703.023	2100.7
703.212	2104.8
703.4	2020.83
703.589	2166.24
703.777	2153.95
703.965	2055.65
704.154	2117.09
704.342	2137.57
704.531	2104.8
704.719	2117.09
704.907	2096.61
705.096	1992.16
705.284	2090.46
705.472	2127.33
705.661	2045.41
705.849	2115.04
706.037	2080.22
706.226	2031.07
706.414	2008.55
706.602	2053.6
706.79	2000.35
706.979	2029.03
707.167	1998.31
707.355	2084.32
707.543	1998.31
707.731	2045.41
707.919	1963.49
708.107	2033.12
708.296	1938.91
708.484	1951.2
708.672	2026.98
708.86	1916.39
709.048	1916.39
709.236	1992.16
709.424	1949.15
709.612	1963.49
709.8	1867.24
709.988	1955.3
710.176	1885.67
710.364	1883.62
710.551	2051.55
710.739	1975.78
710.927	1918.43
711.115	1848.8
711.303	1963.49
711.491	1807.84
711.679	1809.89
711.866	1906.15
712.054	2012.64
712.242	1900
712.43	1861.09
712.617	1871.33
712.805	1967.59
712.993	1840.61
713.181	1912.29
713.368	1770.98
713.556	1793.51
713.744	1859.04
713.931	1897.96
714.119	1791.46
714.306	1936.87
714.494	1795.56
714.682	1691.11
714.869	1777.12
715.057	1742.31
715.244	1783.27
715.432	1824.23
715.619	1717.73
715.807	1768.93
715.994	1727.97
716.182	1721.83
716.369	1721.83
716.556	1775.08
716.744	1727.97
716.931	1596.9
717.119	1662.44
717.306	1678.82
717.493	1721.83
717.681	1570.28
717.868	1672.68
718.055	1779.17
718.242	1615.34
718.43	1697.25
718.617	1711.59
718.804	1656.29
718.991	1666.53
719.179	1666.53
719.366	1557.99
719.553	1560.04
719.74	1605.1
719.927	1637.86
720.114	1566.18
720.301	1539.56
720.488	1629.67
720.676	1625.58
720.863	1641.96
721.05	1629.67
721.237	1529.32
721.424	1486.31
721.611	1523.18
721.798	1580.52
721.985	1584.62
722.172	1463.79
722.358	1582.57
722.545	1484.27
722.732	1545.7
722.919	1474.03
723.106	1474.03
723.293	1492.46
723.48	1527.27
723.667	1514.98
723.853	1447.4
724.04	1412.59
724.227	1449.45
724.414	1474.03
724.6	1545.7
724.787	1361.39
724.974	1443.31
725.161	1367.53
725.347	1459.69
725.534	1551.85
725.72	1482.22
725.907	1510.89
726.094	1396.2
726.28	1426.92
726.467	1359.34
726.653	1318.38
726.84	1318.38
727.027	1377.77
727.213	1394.15
727.4	1318.38
727.586	1441.26
727.773	1287.66
727.959	1365.48
728.145	1340.91
728.332	1320.43
728.518	1306.09
728.705	1355.24
728.891	1308.14
729.077	1302
729.264	1330.67
729.45	1408.49
729.636	1351.15
729.823	1224.17
730.009	1269.23
730.195	1285.61
730.382	1330.67
730.568	1269.23
730.754	1281.52
730.94	1285.61
731.126	1291.76
731.313	1340.91
731.499	1302
731.685	1304.04
731.871	1258.99
732.057	1355.24
732.243	1328.62
732.429	1271.28
732.615	1332.72
732.801	1263.08
732.987	1209.84
733.173	1279.47
733.359	1285.61
733.545	1267.18
733.731	1336.81
733.917	1279.47
734.103	1207.79
734.289	1248.75
734.475	1127.92
734.661	1261.04
734.847	1271.28
735.033	1164.78
735.219	1170.93
735.404	1195.5
735.59	1089.01
735.776	1201.65
735.962	1258.99
736.148	1191.41
736.333	1218.03
736.519	1189.36
736.705	1138.16
736.89	1172.97
737.076	1076.72
737.262	1107.44
737.447	1062.38
737.633	1046
737.819	1011.18
738.004	1138.16
738.19	1183.21
738.375	1095.15
738.561	1152.49
738.747	1066.48
738.932	1099.25
739.118	1193.45
739.303	1119.73
739.489	1101.3
739.674	1037.81
739.859	1048.05
740.045	1033.71
740.23	959.99
740.416	1052.14
740.601	1082.86
740.786	1000.94
740.972	1148.4
741.157	1031.66
741.342	1017.33
741.528	1039.86
741.713	1033.71
741.898	1066.48
742.084	1144.3
742.269	1039.86
742.454	1002.99
742.639	1066.48
742.824	925.17
743.01	982.51
743.195	970.23
743.38	996.85
743.565	951.79
743.75	1048.05
743.935	906.74
744.12	1070.58
744.305	1002.99
744.49	873.97
744.675	968.18
744.86	982.51
745.045	861.68
745.23	937.46
745.415	894.45
745.6	935.41
745.785	949.75
745.97	941.55
746.155	884.21
746.34	910.83
746.525	945.65
746.71	863.73
746.895	878.07
747.079	845.3
747.264	951.79
747.449	900.59
747.634	861.68
747.819	867.83
748.003	886.26
748.188	867.83
748.373	835.06
748.557	839.16
748.742	800.24
748.927	949.75
749.111	820.72
749.296	833.01
749.481	833.01
749.665	757.24
749.85	769.52
750.034	843.25
750.219	779.76
750.404	855.54
750.588	785.91
750.773	771.57
750.957	744.95
751.141	769.52
751.326	751.09
751.51	785.91
751.695	703.99
751.879	701.94
752.064	761.33
752.248	734.71
752.432	728.56
752.617	718.33
752.801	800.24
752.985	710.13
753.17	755.19
753.354	679.41
753.538	701.94
753.722	646.65
753.907	687.61
754.091	689.65
754.275	677.37
754.459	708.09
754.643	671.22
754.828	747
755.012	714.23
755.196	681.46
755.38	695.8
755.564	626.17
755.748	609.78
755.932	699.89
756.116	679.41
756.3	620.02
756.484	697.85
756.668	601.59
756.852	699.89
757.036	611.83
757.22	581.11
757.404	695.8
757.588	630.26
757.772	620.02
757.956	669.17
758.14	589.3
758.323	599.54
758.507	556.54
758.691	452.09
758.875	564.73
759.059	585.21
759.242	564.73
759.426	570.87
759.61	603.64
759.794	617.97
759.977	574.97
760.161	572.92
760.345	509.43
760.528	597.49
760.712	544.25
760.895	605.69
761.079	462.33
761.263	425.47
761.446	464.38
761.63	548.34
761.813	491
761.997	570.87
762.18	509.43
762.364	589.3
762.547	493.05
762.731	521.72
762.914	484.86
763.098	536.06
763.281	591.35
763.464	554.49
763.648	519.67
763.831	585.21
764.015	515.58
764.198	521.72
764.381	509.43
764.564	480.76
764.748	523.77
764.931	486.9
765.114	609.78
765.297	464.38
765.481	505.34
765.664	501.24
765.847	486.9
766.03	470.52
766.213	517.62
766.397	505.34
766.58	447.99
766.763	525.82
766.946	486.9
767.129	460.28
767.312	570.87
767.495	482.81
767.678	507.38
767.861	497.14
768.044	392.7
768.227	441.85
768.41	491
768.593	464.38
768.776	427.51
768.959	501.24
769.142	413.18
769.324	474.62
769.507	550.39
769.69	439.8
769.873	427.51
770.056	499.19
770.239	433.66
770.421	454.14
770.604	517.62
770.787	439.8
770.97	468.47
771.152	450.04
771.335	419.32
771.518	374.27
771.7	488.95
771.883	456.19
772.066	364.03
772.248	456.19
772.431	384.51
772.613	441.85
772.796	458.23
772.978	425.47
773.161	339.45
773.343	429.56
773.526	407.03
773.708	374.27
773.891	394.75
774.073	409.08
774.256	388.6
774.438	402.94
774.621	425.47
774.803	431.61
774.985	372.22
775.168	398.84
775.35	452.09
775.532	335.35
775.715	304.64
775.897	335.35
776.079	366.07
776.261	335.35
776.444	265.72
776.626	357.88
776.808	292.35
776.99	427.51
777.173	310.78
777.355	427.51
777.537	341.5
777.719	390.65
777.901	386.55
778.083	374.27
778.265	273.92
778.447	337.4
778.629	368.12
778.811	280.06
778.993	374.27
779.175	378.36
779.357	374.27
779.539	267.77
779.721	267.77
779.903	349.69
780.085	318.97
780.267	318.97
780.449	359.93
780.631	370.17
780.812	253.44
780.994	296.44
781.176	327.16
781.358	278.01
781.54	298.49
781.721	329.21
781.903	271.87
782.085	278.01
782.267	349.69
782.448	204.28
782.63	255.48
782.812	253.44
782.993	327.16
783.175	284.16
783.357	290.3
783.538	325.12
783.72	189.95
783.901	271.87
784.083	275.96
784.264	275.96
784.446	237.05
784.627	237.05
784.809	265.72
784.99	228.86
785.172	261.63
785.353	216.57
785.535	247.29
785.716	249.34
785.897	216.57
786.079	218.62
786.26	235
786.441	282.11
786.623	210.43
786.804	228.86
786.985	265.72
787.167	294.4
787.348	210.43
787.529	292.35
787.71	210.43
787.891	245.24
788.073	192
788.254	261.63
788.435	181.76
788.616	235
788.797	169.47
788.978	263.68
789.159	108.03
789.34	212.48
789.522	202.24
789.703	226.81
789.884	265.72
790.065	230.91
790.246	159.23
790.427	212.48
790.607	167.42
790.788	171.52
790.969	132.61
791.15	126.46
791.331	230.91
791.512	200.19
791.693	171.52
791.874	161.28
792.054	194.05
792.235	192
792.416	120.32
792.597	241.15
792.778	142.85
792.958	253.44
793.139	163.33
793.32	261.63
793.5	136.7
793.681	208.38
793.862	204.28
794.042	87.55
794.223	169.47
794.404	128.51
794.584	138.75
794.765	177.66
794.945	114.17
795.126	216.57
795.306	140.8
795.487	89.6
795.667	103.93
795.848	189.95
796.028	206.33
796.209	165.37
796.389	165.37
796.57	173.57
796.75	183.81
796.93	171.52
797.111	187.9
797.291	200.19
797.471	89.6
797.652	157.18
797.832	196.09
798.012	157.18
798.192	73.21
798.373	146.94
798.553	73.21
798.733	130.56
798.913	122.37
799.093	181.76
799.274	155.13
799.454	95.74
799.634	83.45
799.814	138.75
799.994	118.27
800.174	89.6
800.354	122.37
800.534	155.13
800.714	167.42
800.894	142.85
801.074	142.85
801.254	108.03
801.434	138.75
801.614	171.52
801.794	116.22
801.974	327.16
802.154	93.69
802.334	126.46
802.514	114.17
802.693	155.13
802.873	77.31
803.053	159.23
803.233	157.18
803.413	126.46
803.592	-2.56
803.772	163.33
803.952	151.04
804.131	81.41
804.311	124.41
804.491	114.17
804.67	138.75
804.85	159.23
805.03	77.31
805.209	163.33
805.389	128.51
805.568	58.88
805.748	114.17
805.928	169.47
806.107	95.74
806.287	89.6
806.466	103.93
806.646	50.69
806.825	185.85
807.004	77.31
807.184	73.21
807.363	171.52
807.543	103.93
807.722	116.22
807.901	83.45
808.081	91.65
808.26	103.93
808.439	91.65
808.619	110.08
808.798	134.65
808.977	108.03
809.156	46.59
809.336	71.17
809.515	140.8
809.694	65.02
809.873	56.83
810.052	79.36
810.231	34.3
810.411	60.93
810.59	99.84
810.769	77.31
810.948	130.56
811.127	103.93
811.306	36.35
811.485	93.69
811.664	114.17
811.843	108.03
812.022	22.02
812.201	99.84
812.38	99.84
812.559	118.27
812.737	65.02
812.916	118.27
813.095	60.93
813.274	50.69
813.453	65.02
813.632	52.74
813.811	40.45
813.989	34.3
814.168	126.46
814.347	11.78
814.526	-18.94
814.704	48.64
814.883	138.75
815.062	17.92
815.24	77.31
815.419	116.22
815.598	93.69
815.776	56.83
815.955	132.61
816.133	56.83
816.312	91.65
816.49	26.11
816.669	69.12
816.847	105.98
817.026	71.17
817.204	71.17
817.383	40.45
817.561	118.27
817.74	126.46
817.918	62.98
818.097	101.89
818.275	79.36
818.453	62.98
818.632	54.78
818.81	75.26
818.988	15.87
819.167	77.31
819.345	48.64
819.523	60.93
819.701	83.45
819.879	-6.66
820.058	46.59
820.236	48.64
820.414	97.79
820.592	60.93
820.77	101.89
820.948	105.98
821.127	-27.14
821.305	77.31
821.483	26.11
821.661	89.6
821.839	118.27
822.017	28.16
822.195	58.88
822.373	75.26
822.551	-6.66
822.729	3.58
822.907	28.16
823.085	116.22
823.262	85.5
823.44	110.08
823.618	69.12
823.796	3.58
823.974	28.16
824.152	67.07
824.329	52.74
824.507	48.64
824.685	22.02
824.863	83.45
825.04	91.65
825.218	105.98
825.396	77.31
825.574	22.02
825.751	67.07
825.929	58.88
826.107	-12.8
826.284	9.73
826.462	77.31
826.639	120.32
826.817	-31.23
826.994	34.3
827.172	5.63
827.349	44.54
827.527	67.07
827.704	83.45
827.882	89.6
828.059	60.93
828.237	46.59
828.414	71.17
828.591	32.26
828.769	67.07
828.946	42.5
829.124	24.06
829.301	65.02
829.478	103.93
829.655	11.78
829.833	75.26
830.01	38.4
830.187	-4.61
830.364	11.78
830.542	-0.51
830.719	71.17
830.896	1.54
831.073	38.4
831.25	36.35
831.427	79.36
831.604	9.73
831.782	24.06
831.959	71.17
832.136	58.88
832.313	67.07
832.49	54.78
832.667	83.45
832.844	48.64
833.021	81.41
833.198	85.5
833.374	-20.99
833.551	73.21
833.728	22.02
833.905	28.16
834.082	89.6
834.259	19.97
834.436	40.45
834.612	40.45
834.789	89.6
834.966	1.54
835.143	112.13
835.319	-12.8
835.496	5.63
835.673	40.45
835.85	-2.56
836.026	54.78
836.203	54.78
836.38	-6.66
836.556	15.87
836.733	34.3
836.909	99.84
837.086	116.22
837.262	-14.85
837.439	-6.66
837.616	-0.51
837.792	11.78
837.968	15.87
838.145	24.06
838.321	24.06
838.498	65.02
838.674	32.26
838.851	15.87
839.027	-10.75
839.203	22.02
839.38	15.87
839.556	44.54
839.732	1.54
839.909	-2.56
840.085	95.74
840.261	44.54
840.437	17.92
840.614	-25.09
840.79	13.82
840.966	-18.94
841.142	-12.8
841.318	62.98
841.494	19.97
841.671	11.78
841.847	9.73
842.023	9.73
842.199	9.73
842.375	28.16
842.551	26.11
842.727	89.6
842.903	91.65
843.079	7.68
843.255	50.69
843.431	73.21
843.607	30.21
843.783	-47.62
843.959	42.5
844.134	-20.99
844.31	34.3
844.486	30.21
844.662	50.69
844.838	-16.9
845.013	7.68
845.189	13.82
845.365	17.92
845.541	60.93
845.716	56.83
845.892	19.97
846.068	50.69
846.244	65.02
846.419	56.83
846.595	-25.09
846.77	79.36
846.946	40.45
847.122	9.73
847.297	46.59
847.473	-18.94
847.648	71.17
847.824	-8.7
847.999	-27.14
848.175	-6.66
848.35	34.3
848.526	-43.52
848.701	7.68
848.876	48.64
849.052	44.54
849.227	-4.61
849.403	-33.28
849.578	-35.33
849.753	-6.66
849.929	42.5
850.104	24.06
850.279	34.3
850.454	50.69
850.63	1.54
850.805	-12.8
850.98	15.87
851.155	52.74
851.33	48.64
851.505	38.4
851.681	40.45
851.856	-16.9
852.031	22.02
852.206	-31.23
852.381	7.68
852.556	-20.99
852.731	75.26
852.906	67.07
853.081	24.06
853.256	-2.56
853.431	9.73
853.606	19.97
853.781	-8.7
853.956	22.02
854.131	15.87
854.305	15.87
854.48	60.93
854.655	3.58
854.83	19.97
855.005	48.64
855.18	-25.09
855.354	-16.9
855.529	9.73
855.704	-49.66
855.879	44.54
856.053	-47.62
856.228	24.06
856.403	-55.81
856.577	24.06
856.752	26.11
856.926	-18.94
857.101	5.63
857.276	15.87
857.45	-10.75
857.625	36.35
857.799	1.54
857.974	50.69
858.148	1.54
858.323	42.5
858.497	-45.57
858.672	-8.7
858.846	15.87
859.02	69.12
859.195	-35.33
859.369	-4.61
859.543	19.97
859.718	83.45
859.892	30.21
860.066	-18.94
860.241	-96.77
860.415	48.64
860.589	71.17
860.763	54.78
860.938	34.3
861.112	50.69
861.286	17.92
861.46	-35.33
861.634	3.58
861.808	69.12
861.982	-43.52
862.157	48.64
862.331	13.82
862.505	30.21
862.679	9.73
862.853	26.11
863.027	-6.66
863.201	5.63
863.375	42.5
863.549	1.54
863.722	15.87
863.896	24.06
864.07	46.59
864.244	15.87
864.418	1.54
864.592	13.82
864.766	7.68
864.939	40.45
865.113	-2.56
865.287	-16.9
865.461	-27.14
865.634	15.87
865.808	-27.14
865.982	-16.9
866.156	11.78
866.329	-14.85
866.503	15.87
866.676	73.21
866.85	13.82
867.024	34.3
867.197	-2.56
867.371	71.17
867.544	-66.05
867.718	40.45
867.891	-23.04
868.065	7.68
868.238	5.63
868.412	-2.56
868.585	-16.9
868.759	60.93
868.932	50.69
869.105	24.06
869.279	-55.81
869.452	-25.09
869.625	1.54
869.799	32.26
869.972	9.73
870.145	-33.28
870.319	3.58
870.492	50.69
870.665	79.36
870.838	19.97
871.011	-10.75
871.185	-18.94
871.358	32.26
871.531	52.74
871.704	3.58
871.877	97.79
872.05	5.63
872.223	-0.51
872.396	24.06
872.569	32.26
872.742	13.82
872.915	-25.09
873.088	7.68
873.261	17.92
873.434	-29.18
873.607	40.45
873.78	44.54
873.953	24.06
874.126	-12.8
874.299	-43.52
874.471	28.16
874.644	-8.7
874.817	-35.33
874.99	-0.51
875.163	40.45
875.335	-0.51
875.508	81.41
875.681	17.92
875.853	40.45
876.026	-4.61
876.199	40.45
876.371	-18.94
876.544	-10.75
876.717	101.89
876.889	-51.71
877.062	-0.51
877.234	28.16
877.407	40.45
877.579	-14.85
877.752	22.02
877.924	-33.28
878.097	1.54
878.269	-55.81
878.442	38.4
878.614	58.88
878.786	-2.56
878.959	-8.7
879.131	38.4
879.303	19.97
879.476	15.87
879.648	50.69
879.82	36.35
879.993	32.26
880.165	60.93
880.337	1.54
880.509	-39.42
880.681	-53.76
880.854	77.31
881.026	-0.51
881.198	13.82
881.37	-41.47
881.542	24.06
881.714	-12.8
881.886	1.54
882.058	22.02
882.23	7.68
882.402	-43.52
882.574	-94.72
882.746	17.92
882.918	44.54
883.09	22.02
883.262	-20.99
883.434	-31.23
883.606	-20.99
883.778	11.78
883.95	-23.04
884.122	52.74
884.293	42.5
884.465	-41.47
884.637	15.87
884.809	46.59
884.98	-33.28
885.152	-41.47
885.324	38.4
885.496	11.78
885.667	-12.8
885.839	24.06
886.011	87.55
886.182	13.82
886.354	28.16
886.525	60.93
886.697	-0.51
886.869	-18.94
887.04	50.69
887.212	-14.85
887.383	40.45
887.555	28.16
887.726	5.63
887.897	-16.9
888.069	5.63
888.24	7.68
888.412	48.64
888.583	-14.85
888.754	44.54
888.926	-35.33
889.097	22.02
889.268	17.92
889.44	24.06
889.611	36.35
889.782	22.02
889.953	-8.7
890.125	42.5
890.296	13.82
890.467	22.02
890.638	62.98
890.809	40.45
890.98	-35.33
891.151	58.88
891.323	-16.9
891.494	19.97
891.665	34.3
891.836	-0.51
892.007	19.97
892.178	-20.99
892.349	67.07
892.52	-31.23
892.691	-35.33
892.862	-25.09
893.032	-31.23
893.203	15.87
893.374	3.58
893.545	-27.14
893.716	52.74
893.887	-2.56
894.057	-10.75
894.228	11.78
894.399	15.87
894.57	71.17
894.74	-41.47
894.911	1.54
895.082	32.26
895.253	-27.14
895.423	-23.04
895.594	-27.14
895.764	-18.94
895.935	-29.18
896.106	-8.7
896.276	44.54
896.447	13.82
896.617	-47.62
896.788	3.58
896.958	-25.09
897.129	-35.33
897.299	58.88
897.47	13.82
897.64	85.5
897.81	-10.75
897.981	19.97
898.151	-25.09
898.322	5.63
898.492	-51.71
898.662	56.83
898.832	-41.47
899.003	48.64
899.173	-27.14
899.343	-86.53
899.513	5.63
