Data from USB4F104151__234__14-00-50-738.txt Node

Date: Thu Mar 13 14:00:50 EDT 2025
User: louis
Spectrometer: USB4F10415
Trigger mode: 4
Integration Time (sec): 1.000000E-2
Scans to average: 1
Electric dark correction enabled: true
Nonlinearity correction enabled: false
Boxcar width: 0
XAxis mode: Wavelengths
Number of Pixels in Spectrum: 3648
>>>>>Begin Spectral Data<<<<<
178.204	-35.33
178.424	-35.33
178.644	-35.33
178.864	-74.24
179.084	-16.9
179.304	26.11
179.524	5.63
179.744	-72.19
179.964	26.11
180.184	-43.52
180.404	22.02
180.624	-37.38
180.844	26.11
181.064	36.35
181.283	-6.66
181.503	19.97
181.723	-2.56
181.943	-33.28
182.163	58.88
182.383	5.63
182.602	46.59
182.822	65.02
183.042	75.26
183.262	36.35
183.482	58.88
183.701	15.87
183.921	-25.09
184.141	30.21
184.361	-39.42
184.58	52.74
184.8	24.06
185.02	7.68
185.239	-10.75
185.459	46.59
185.679	19.97
185.898	42.5
186.118	15.87
186.338	46.59
186.557	97.79
186.777	-6.66
186.997	-41.47
187.216	83.45
187.436	77.31
187.655	17.92
187.875	-0.51
188.095	24.06
188.314	95.74
188.534	28.16
188.753	17.92
188.973	38.4
189.192	38.4
189.412	-23.04
189.631	-18.94
189.851	40.45
190.07	79.36
190.29	-0.51
190.509	34.3
190.729	-14.85
190.948	95.74
191.168	48.64
191.387	75.26
191.607	-14.85
191.826	114.17
192.045	38.4
192.265	24.06
192.484	-8.7
192.704	36.35
192.923	-18.94
193.142	-31.23
193.362	22.02
193.581	34.3
193.8	-29.18
194.02	-2.56
194.239	30.21
194.458	62.98
194.678	-98.81
194.897	-27.14
195.116	-68.09
195.335	48.64
195.555	9.73
195.774	-18.94
195.993	28.16
196.212	15.87
196.432	-39.42
196.651	36.35
196.87	32.26
197.089	22.02
197.308	9.73
197.528	46.59
197.747	-23.04
197.966	34.3
198.185	44.54
198.404	56.83
198.623	-51.71
198.842	54.78
199.062	13.82
199.281	54.78
199.5	-2.56
199.719	50.69
199.938	40.45
200.157	40.45
200.376	52.74
200.595	42.5
200.814	46.59
201.033	52.74
201.252	26.11
201.471	65.02
201.69	71.17
201.909	93.69
202.128	-8.7
202.347	30.21
202.566	46.59
202.785	26.11
203.004	24.06
203.223	-33.28
203.442	34.3
203.661	71.17
203.879	48.64
204.098	116.22
204.317	1.54
204.536	7.68
204.755	13.82
204.974	62.98
205.193	56.83
205.411	-16.9
205.63	46.59
205.849	22.02
206.068	83.45
206.287	56.83
206.505	36.35
206.724	-57.86
206.943	38.4
207.162	60.93
207.381	-14.85
207.599	-31.23
207.818	42.5
208.037	5.63
208.255	69.12
208.474	46.59
208.693	22.02
208.911	-25.09
209.13	30.21
209.349	38.4
209.567	54.78
209.786	54.78
210.005	50.69
210.223	46.59
210.442	3.58
210.661	42.5
210.879	32.26
211.098	42.5
211.316	19.97
211.535	34.3
211.753	-23.04
211.972	50.69
212.191	26.11
212.409	36.35
212.628	65.02
212.846	-31.23
213.065	42.5
213.283	103.93
213.502	56.83
213.72	-57.86
213.938	26.11
214.157	-14.85
214.375	-23.04
214.594	67.07
214.812	-10.75
215.031	13.82
215.249	22.02
215.467	-43.52
215.686	7.68
215.904	99.84
216.122	42.5
216.341	26.11
216.559	44.54
216.778	-35.33
216.996	11.78
217.214	-12.8
217.432	5.63
217.651	5.63
217.869	69.12
218.087	36.35
218.306	-41.47
218.524	-0.51
218.742	-4.61
218.96	85.5
219.179	13.82
219.397	58.88
219.615	11.78
219.833	17.92
220.051	60.93
220.27	44.54
220.488	71.17
220.706	22.02
220.924	-10.75
221.142	40.45
221.36	17.92
221.578	56.83
221.796	15.87
222.015	13.82
222.233	42.5
222.451	62.98
222.669	-18.94
222.887	19.97
223.105	11.78
223.323	71.17
223.541	7.68
223.759	24.06
223.977	42.5
224.195	36.35
224.413	-29.18
224.631	30.21
224.849	17.92
225.067	24.06
225.285	62.98
225.503	116.22
225.721	-8.7
225.939	56.83
226.157	-41.47
226.375	71.17
226.592	34.3
226.81	15.87
227.028	42.5
227.246	26.11
227.464	48.64
227.682	13.82
227.9	-35.33
228.117	81.41
228.335	-18.94
228.553	-33.28
228.771	-18.94
228.989	101.89
229.206	-68.09
229.424	17.92
229.642	85.5
229.86	103.93
230.077	3.58
230.295	105.98
230.513	62.98
230.731	89.6
230.948	81.41
231.166	1.54
231.384	38.4
231.601	95.74
231.819	19.97
232.037	44.54
232.254	1.54
232.472	7.68
232.689	9.73
232.907	7.68
233.125	13.82
233.342	32.26
233.56	30.21
233.777	-25.09
233.995	34.3
234.213	30.21
234.43	42.5
234.648	-37.38
234.865	48.64
235.083	19.97
235.3	22.02
235.518	46.59
235.735	22.02
235.953	17.92
236.17	9.73
236.388	22.02
236.605	11.78
236.822	58.88
237.04	15.87
237.257	-41.47
237.475	11.78
237.692	60.93
237.909	30.21
238.127	34.3
238.344	89.6
238.562	26.11
238.779	-10.75
238.996	-8.7
239.214	-10.75
239.431	5.63
239.648	17.92
239.865	110.08
240.083	22.02
240.3	93.69
240.517	-16.9
240.735	22.02
240.952	40.45
241.169	30.21
241.386	9.73
241.603	9.73
241.821	32.26
242.038	116.22
242.255	32.26
242.472	48.64
242.689	-25.09
242.907	-4.61
243.124	79.36
243.341	85.5
243.558	46.59
243.775	56.83
243.992	81.41
244.209	5.63
244.426	118.27
244.643	-8.7
244.86	3.58
245.078	40.45
245.295	71.17
245.512	97.79
245.729	-12.8
245.946	62.98
246.163	-57.86
246.38	34.3
246.597	-2.56
246.814	42.5
247.031	30.21
247.248	1.54
247.464	32.26
247.681	-31.23
247.898	71.17
248.115	38.4
248.332	11.78
248.549	7.68
248.766	40.45
248.983	54.78
249.2	54.78
249.417	9.73
249.633	-47.62
249.85	50.69
250.067	-4.61
250.284	67.07
250.501	7.68
250.717	73.21
250.934	30.21
251.151	3.58
251.368	50.69
251.585	15.87
251.801	56.83
252.018	-43.52
252.235	19.97
252.451	-51.71
252.668	-0.51
252.885	105.98
253.102	22.02
253.318	34.3
253.535	-8.7
253.752	-18.94
253.968	13.82
254.185	-53.76
254.401	30.21
254.618	34.3
254.835	-12.8
255.051	3.58
255.268	11.78
255.484	22.02
255.701	17.92
255.917	28.16
256.134	-57.86
256.351	50.69
256.567	-16.9
256.784	22.02
257	48.64
257.217	-10.75
257.433	38.4
257.65	56.83
257.866	69.12
258.082	24.06
258.299	-43.52
258.515	-6.66
258.732	-18.94
258.948	-61.95
259.165	-10.75
259.381	48.64
259.597	38.4
259.814	11.78
260.03	-25.09
260.246	58.88
260.463	-31.23
260.679	42.5
260.895	-4.61
261.112	34.3
261.328	-27.14
261.544	-16.9
261.761	50.69
261.977	3.58
262.193	46.59
262.409	-39.42
262.626	7.68
262.842	22.02
263.058	19.97
263.274	38.4
263.49	50.69
263.707	101.89
263.923	19.97
264.139	-6.66
264.355	-23.04
264.571	124.41
264.787	3.58
265.004	81.41
265.22	38.4
265.436	77.31
265.652	36.35
265.868	46.59
266.084	17.92
266.3	46.59
266.516	15.87
266.732	22.02
266.948	-0.51
267.164	34.3
267.38	-8.7
267.596	89.6
267.812	95.74
268.028	42.5
268.244	7.68
268.46	30.21
268.676	-25.09
268.892	-8.7
269.108	42.5
269.324	34.3
269.54	3.58
269.756	34.3
269.972	13.82
270.188	24.06
270.403	-4.61
270.619	75.26
270.835	46.59
271.051	34.3
271.267	22.02
271.483	32.26
271.698	-23.04
271.914	40.45
272.13	77.31
272.346	58.88
272.562	36.35
272.777	22.02
272.993	3.58
273.209	5.63
273.425	7.68
273.64	13.82
273.856	30.21
274.072	58.88
274.287	26.11
274.503	24.06
274.719	75.26
274.934	7.68
275.15	-0.51
275.366	46.59
275.581	40.45
275.797	7.68
276.012	79.36
276.228	38.4
276.444	130.56
276.659	79.36
276.875	-16.9
277.09	-18.94
277.306	24.06
277.521	54.78
277.737	54.78
277.952	24.06
278.168	-14.85
278.383	85.5
278.599	15.87
278.814	-10.75
279.03	-25.09
279.245	73.21
279.461	22.02
279.676	67.07
279.892	34.3
280.107	19.97
280.322	-27.14
280.538	-2.56
280.753	-16.9
280.969	38.4
281.184	-2.56
281.399	81.41
281.615	36.35
281.83	46.59
282.045	-41.47
282.26	46.59
282.476	13.82
282.691	19.97
282.906	-14.85
283.122	-2.56
283.337	54.78
283.552	50.69
283.767	-8.7
283.983	40.45
284.198	148.99
284.413	-8.7
284.628	24.06
284.843	-4.61
285.058	-55.81
285.274	-14.85
285.489	24.06
285.704	48.64
285.919	24.06
286.134	91.65
286.349	40.45
286.564	26.11
286.779	44.54
286.995	22.02
287.21	79.36
287.425	89.6
287.64	24.06
287.855	93.69
288.07	28.16
288.285	97.79
288.5	-6.66
288.715	116.22
288.93	-33.28
289.145	32.26
289.36	79.36
289.575	67.07
289.79	-2.56
290.004	-8.7
290.219	28.16
290.434	13.82
290.649	-12.8
290.864	-41.47
291.079	1.54
291.294	48.64
291.509	-12.8
291.724	26.11
291.938	-33.28
292.153	73.21
292.368	11.78
292.583	5.63
292.798	42.5
293.012	42.5
293.227	-29.18
293.442	9.73
293.657	87.55
293.871	7.68
294.086	30.21
294.301	9.73
294.516	-2.56
294.73	5.63
294.945	-41.47
295.16	22.02
295.374	48.64
295.589	62.98
295.804	-33.28
296.018	58.88
296.233	22.02
296.447	24.06
296.662	46.59
296.877	81.41
297.091	26.11
297.306	30.21
297.52	30.21
297.735	-2.56
297.949	13.82
298.164	52.74
298.378	17.92
298.593	85.5
298.807	58.88
299.022	38.4
299.236	124.41
299.451	71.17
299.665	69.12
299.88	91.65
300.094	58.88
300.309	5.63
300.523	-27.14
300.737	54.78
300.952	13.82
301.166	30.21
301.381	62.98
301.595	5.63
301.809	-2.56
302.024	38.4
302.238	46.59
302.452	22.02
302.667	19.97
302.881	34.3
303.095	-43.52
303.309	52.74
303.524	24.06
303.738	71.17
303.952	-107.01
304.166	48.64
304.381	17.92
304.595	62.98
304.809	62.98
305.023	-4.61
305.237	97.79
305.452	9.73
305.666	17.92
305.88	99.84
306.094	9.73
306.308	56.83
306.522	67.07
306.736	71.17
306.95	-16.9
307.164	19.97
307.379	60.93
307.593	48.64
307.807	89.6
308.021	58.88
308.235	-41.47
308.449	34.3
308.663	42.5
308.877	44.54
309.091	60.93
309.305	89.6
309.519	-20.99
309.733	79.36
309.947	22.02
310.161	22.02
310.374	-2.56
310.588	-43.52
310.802	40.45
311.016	-14.85
311.23	7.68
311.444	38.4
311.658	15.87
311.872	17.92
312.085	32.26
312.299	62.98
312.513	13.82
312.727	54.78
312.941	-23.04
313.154	71.17
313.368	65.02
313.582	-2.56
313.796	50.69
314.009	38.4
314.223	22.02
314.437	40.45
314.651	17.92
314.864	73.21
315.078	7.68
315.292	-16.9
315.505	-14.85
315.719	58.88
315.933	52.74
316.146	40.45
316.36	-4.61
316.573	9.73
316.787	73.21
317.001	7.68
317.214	42.5
317.428	34.3
317.641	38.4
317.855	67.07
318.068	65.02
318.282	32.26
318.495	22.02
318.709	-10.75
318.922	48.64
319.136	26.11
319.349	71.17
319.563	112.13
319.776	13.82
319.99	30.21
320.203	71.17
320.417	40.45
320.63	73.21
320.843	89.6
321.057	60.93
321.27	132.61
321.483	30.21
321.697	146.94
321.91	-2.56
322.124	-27.14
322.337	54.78
322.55	-33.28
322.763	105.98
322.977	26.11
323.19	24.06
323.403	-18.94
323.617	65.02
323.83	-6.66
324.043	58.88
324.256	1.54
324.469	22.02
324.683	75.26
324.896	87.55
325.109	110.08
325.322	97.79
325.535	40.45
325.748	34.3
325.962	87.55
326.175	5.63
326.388	50.69
326.601	11.78
326.814	19.97
327.027	1.54
327.24	22.02
327.453	34.3
327.666	-8.7
327.879	-18.94
328.092	146.94
328.305	75.26
328.518	136.7
328.731	22.02
328.944	30.21
329.157	-23.04
329.37	13.82
329.583	77.31
329.796	89.6
330.009	-4.61
330.222	26.11
330.435	-8.7
330.648	67.07
330.861	93.69
331.073	99.84
331.286	-18.94
331.499	50.69
331.712	-29.18
331.925	60.93
332.138	-6.66
332.35	103.93
332.563	24.06
332.776	71.17
332.989	-6.66
333.202	26.11
333.414	40.45
333.627	54.78
333.84	38.4
334.053	81.41
334.265	50.69
334.478	-10.75
334.691	112.13
334.903	26.11
335.116	13.82
335.329	46.59
335.541	54.78
335.754	-10.75
335.966	34.3
336.179	77.31
336.392	52.74
336.604	71.17
336.817	44.54
337.029	22.02
337.242	-0.51
337.454	65.02
337.667	56.83
337.88	69.12
338.092	79.36
338.305	11.78
338.517	-25.09
338.729	34.3
338.942	75.26
339.154	-31.23
339.367	30.21
339.579	32.26
339.792	46.59
340.004	71.17
340.217	50.69
340.429	22.02
340.641	34.3
340.854	81.41
341.066	28.16
341.278	134.65
341.491	34.3
341.703	97.79
341.915	58.88
342.128	105.98
342.34	48.64
342.552	89.6
342.764	81.41
342.977	-0.51
343.189	24.06
343.401	44.54
343.613	32.26
343.826	99.84
344.038	9.73
344.25	54.78
344.462	3.58
344.674	69.12
344.886	91.65
345.099	32.26
345.311	87.55
345.523	17.92
345.735	36.35
345.947	52.74
346.159	1.54
346.371	56.83
346.583	62.98
346.795	93.69
347.007	-16.9
347.219	15.87
347.431	52.74
347.643	85.5
347.855	34.3
348.067	77.31
348.279	62.98
348.491	3.58
348.703	5.63
348.915	26.11
349.127	22.02
349.339	79.36
349.551	-27.14
349.763	65.02
349.975	-29.18
350.187	87.55
350.399	-18.94
350.61	89.6
350.822	62.98
351.034	87.55
351.246	32.26
351.458	62.98
351.669	48.64
351.881	114.17
352.093	1.54
352.305	112.13
352.517	38.4
352.728	46.59
352.94	69.12
353.152	40.45
353.363	24.06
353.575	54.78
353.787	95.74
353.999	5.63
354.21	17.92
354.422	32.26
354.633	30.21
354.845	24.06
355.057	15.87
355.268	26.11
355.48	108.03
355.692	105.98
355.903	32.26
356.115	114.17
356.326	-12.8
356.538	65.02
356.749	112.13
356.961	5.63
357.172	13.82
357.384	77.31
357.595	50.69
357.807	26.11
358.018	48.64
358.23	7.68
358.441	67.07
358.653	28.16
358.864	-31.23
359.075	5.63
359.287	69.12
359.498	62.98
359.709	93.69
359.921	46.59
360.132	60.93
360.344	85.5
360.555	-2.56
360.766	-51.71
360.977	22.02
361.189	69.12
361.4	38.4
361.611	46.59
361.823	65.02
362.034	9.73
362.245	42.5
362.456	81.41
362.667	32.26
362.879	32.26
363.09	32.26
363.301	-2.56
363.512	17.92
363.723	22.02
363.935	-6.66
364.146	13.82
364.357	-10.75
364.568	-23.04
364.779	79.36
364.99	48.64
365.201	69.12
365.412	50.69
365.623	34.3
365.834	-0.51
366.045	75.26
366.256	30.21
366.467	-14.85
366.678	40.45
366.889	34.3
367.1	40.45
367.311	50.69
367.522	89.6
367.733	46.59
367.944	71.17
368.155	24.06
368.366	22.02
368.577	28.16
368.788	-57.86
368.999	79.36
369.209	36.35
369.42	40.45
369.631	52.74
369.842	-12.8
370.053	34.3
370.264	62.98
370.474	87.55
370.685	52.74
370.896	56.83
371.107	67.07
371.317	-14.85
371.528	13.82
371.739	-0.51
371.95	65.02
372.16	87.55
372.371	-2.56
372.582	-29.18
372.792	65.02
373.003	15.87
373.214	34.3
373.424	-0.51
373.635	17.92
373.846	-16.9
374.056	5.63
374.267	81.41
374.477	83.45
374.688	52.74
374.898	79.36
375.109	44.54
375.319	-35.33
375.53	73.21
375.74	65.02
375.951	108.03
376.161	30.21
376.372	148.99
376.582	110.08
376.793	65.02
377.003	69.12
377.214	-10.75
377.424	-80.38
377.635	56.83
377.845	73.21
378.055	1.54
378.266	38.4
378.476	44.54
378.686	52.74
378.897	46.59
379.107	-41.47
379.317	65.02
379.528	60.93
379.738	54.78
379.948	38.4
380.158	52.74
380.369	3.58
380.579	5.63
380.789	77.31
380.999	24.06
381.21	-35.33
381.42	71.17
381.63	-8.7
381.84	95.74
382.05	34.3
382.261	85.5
382.471	75.26
382.681	-12.8
382.891	62.98
383.101	101.89
383.311	38.4
383.521	9.73
383.731	44.54
383.941	34.3
384.151	7.68
384.361	75.26
384.571	83.45
384.781	30.21
384.991	1.54
385.201	120.32
385.411	99.84
385.621	87.55
385.831	11.78
386.041	79.36
386.251	34.3
386.461	38.4
386.671	89.6
386.881	73.21
387.091	-20.99
387.301	95.74
387.511	52.74
387.72	85.5
387.93	28.16
388.14	17.92
388.35	-8.7
388.56	52.74
388.769	46.59
388.979	99.84
389.189	26.11
389.399	87.55
389.609	30.21
389.818	95.74
390.028	69.12
390.238	7.68
390.447	-25.09
390.657	24.06
390.867	40.45
391.076	38.4
391.286	30.21
391.496	99.84
391.705	38.4
391.915	42.5
392.125	32.26
392.334	9.73
392.544	110.08
392.753	24.06
392.963	40.45
393.172	81.41
393.382	93.69
393.591	108.03
393.801	26.11
394.01	40.45
394.22	87.55
394.429	81.41
394.639	75.26
394.848	89.6
395.058	44.54
395.267	71.17
395.477	71.17
395.686	40.45
395.895	112.13
396.105	52.74
396.314	48.64
396.524	62.98
396.733	46.59
396.942	97.79
397.152	110.08
397.361	99.84
397.57	17.92
397.78	85.5
397.989	77.31
398.198	159.23
398.407	28.16
398.617	32.26
398.826	81.41
399.035	30.21
399.244	103.93
399.453	58.88
399.663	128.51
399.872	38.4
400.081	69.12
400.29	112.13
400.499	73.21
400.708	140.8
400.917	15.87
401.127	24.06
401.336	99.84
401.545	56.83
401.754	79.36
401.963	56.83
402.172	95.74
402.381	22.02
402.59	151.04
402.799	95.74
403.008	163.33
403.217	65.02
403.426	108.03
403.635	130.56
403.844	60.93
404.053	105.98
404.262	185.85
404.471	79.36
404.68	142.85
404.888	148.99
405.097	116.22
405.306	136.7
405.515	122.37
405.724	91.65
405.933	79.36
406.142	153.09
406.35	124.41
406.559	146.94
406.768	153.09
406.977	155.13
407.185	105.98
407.394	169.47
407.603	128.51
407.812	67.07
408.02	77.31
408.229	114.17
408.438	151.04
408.646	161.28
408.855	204.28
409.064	171.52
409.272	177.66
409.481	196.09
409.69	153.09
409.898	202.24
410.107	292.35
410.315	173.57
410.524	194.05
410.733	206.33
410.941	282.11
411.15	214.52
411.358	210.43
411.567	275.96
411.775	251.39
411.984	321.02
412.192	255.48
412.401	376.31
412.609	333.31
412.818	292.35
413.026	312.83
413.234	292.35
413.443	327.16
413.651	327.16
413.86	398.84
414.068	351.74
414.276	298.49
414.485	425.47
414.693	517.62
414.901	484.86
415.11	394.75
415.318	392.7
415.526	413.18
415.734	529.91
415.943	501.24
416.151	552.44
416.359	632.31
416.567	556.54
416.776	513.53
416.984	617.97
417.192	638.45
417.4	554.49
417.608	581.11
417.817	724.47
418.025	691.7
418.233	697.85
418.441	716.28
418.649	730.61
418.857	753.14
419.065	835.06
419.273	812.53
419.481	949.75
419.689	890.35
419.897	1000.94
420.105	923.12
420.313	1037.81
420.521	1017.33
420.729	1078.77
420.937	1021.42
421.145	1109.49
421.353	1115.63
421.561	1199.6
421.769	1275.37
421.977	1308.14
422.185	1275.37
422.393	1324.52
422.601	1490.41
422.809	1496.55
423.017	1414.63
423.224	1568.23
423.432	1580.52
423.64	1519.08
423.848	1709.54
424.056	1666.53
424.263	1803.75
424.471	1830.37
424.679	1805.8
424.887	1940.96
425.094	1824.23
425.302	1951.2
425.51	2069.98
425.718	2176.48
425.925	2162.14
426.133	2227.68
426.341	2231.77
426.548	2565.59
426.756	2436.57
426.964	2508.25
427.171	2616.79
427.379	2813.4
427.586	2825.68
427.794	2854.36
428.001	3005.91
428.209	3087.82
428.417	3024.34
428.624	3204.56
428.832	3243.47
429.039	3188.18
429.247	3233.23
429.454	3458.51
429.662	3728.84
429.869	3470.8
430.076	3702.22
430.284	3696.07
430.491	3855.81
430.699	4044.23
430.906	3974.6
431.114	4158.91
431.321	4300.22
431.528	4398.52
431.736	4605.37
431.943	4916.66
432.15	4658.62
432.358	4660.66
432.565	4984.24
432.772	4943.28
432.979	5297.58
433.187	5305.78
433.394	5348.78
433.601	5701.03
433.808	5539.24
434.016	5748.14
434.223	5918.12
434.43	6286.75
434.637	6253.98
434.844	6669.72
435.052	6614.43
435.259	6301.09
435.466	6610.33
435.673	6630.81
435.88	7038.36
436.087	7343.5
436.294	7251.35
436.501	7318.93
436.708	7259.54
436.915	7648.65
437.122	7992.71
437.329	7910.79
437.537	8144.26
437.743	8279.43
437.95	8265.09
438.157	8668.54
438.364	8895.86
438.571	8871.29
438.778	8861.05
438.985	9893.23
439.192	9481.58
439.399	9776.49
439.606	9430.38
439.813	9852.27
440.02	10706.27
440.227	10497.38
440.433	10161.51
440.64	10716.51
440.847	10573.15
441.054	10974.55
441.261	11416.91
441.467	11634
441.674	11742.54
441.881	12182.85
442.088	11969.87
442.294	11904.33
442.501	12260.68
442.708	12434.75
442.914	12959.03
443.121	13561.14
443.328	13102.39
443.534	13858.09
443.741	13763.89
443.948	13440.31
444.154	14337.32
444.361	14503.2
444.568	14431.52
444.774	14529.83
444.981	14605.6
445.187	15025.43
445.394	15955.21
445.6	15418.64
445.807	16907.52
446.013	16143.63
446.22	16715.01
446.426	17280.25
446.633	17530.1
446.839	17865.97
447.046	17157.37
447.252	18130.16
447.459	18191.59
447.665	18212.07
447.871	18844.9
448.078	19760.34
448.284	18830.56
448.491	19223.77
448.697	20014.29
448.903	20407.5
449.11	20559.05
449.316	20090.06
449.522	20257.99
449.728	20722.88
449.935	21128.38
450.141	21404.86
450.347	21521.59
450.553	20628.68
450.76	21208.25
450.966	22072.5
451.172	21566.65
451.378	22262.96
451.584	21497.02
451.791	22295.72
451.997	22115.5
452.203	22346.92
452.409	22863.01
452.615	22303.92
452.821	21447.86
453.027	21435.58
453.233	22336.68
453.44	21404.86
453.646	21785.78
453.852	21769.4
454.058	22236.33
454.264	21247.16
454.47	22043.82
454.676	21421.24
454.882	22076.59
455.088	20448.46
455.294	20620.49
455.5	21142.72
455.705	21126.33
455.911	20075.73
456.117	19784.91
456.323	19692.76
456.529	18707.68
456.735	19633.36
456.941	19041.5
457.147	18762.98
457.352	17782
457.558	17790.19
457.764	17923.31
457.97	17597.68
458.176	17345.78
458.381	17003.77
458.587	16557.32
458.793	16434.44
458.999	15353.11
459.204	16680.19
459.41	16309.51
459.616	15238.42
459.821	15031.58
460.027	14888.22
460.233	14757.15
460.438	14251.3
460.644	14335.27
460.85	13237.56
461.055	13382.96
461.261	13389.11
461.466	12492.1
461.672	11697.49
461.878	12692.8
462.083	11986.25
462.289	11652.43
462.494	11652.43
462.7	11011.42
462.905	10792.28
463.111	11302.23
463.316	11298.13
463.522	11013.46
463.727	11101.53
463.932	11027.8
464.138	11083.09
464.343	10802.52
464.549	10556.77
464.754	10894.68
464.959	10878.3
465.165	10579.29
465.37	10517.86
465.575	9905.51
465.781	10431.84
465.986	10659.17
466.191	10233.19
466.397	9846.12
466.602	9471.34
466.807	9686.38
467.012	9966.95
467.218	9827.69
467.423	9690.48
467.628	9776.49
467.833	10147.17
468.038	9753.96
468.244	9373.04
468.449	9809.26
468.654	9407.86
468.859	9438.58
469.064	9530.73
469.269	9086.33
469.474	9133.43
469.679	9203.06
469.885	9063.8
470.09	9112.95
470.295	8955.26
470.5	8742.27
470.705	9090.42
470.91	8703.36
471.115	8461.69
471.32	8842.62
471.525	8598.91
471.73	8492.41
471.935	8279.43
472.139	8217.99
472.344	8344.96
472.549	8056.2
472.754	8271.23
472.959	8164.74
473.164	7828.87
473.369	7644.56
473.574	8068.48
473.778	7875.98
473.983	7822.73
474.188	7693.71
474.393	7552.4
474.598	7665.04
474.802	7556.49
475.007	7531.92
475.212	7314.83
475.417	7101.84
475.621	7075.22
475.826	7167.38
476.031	7067.03
476.235	6888.85
476.44	7050.64
476.645	6784.41
476.849	6899.09
477.054	6669.72
477.259	6722.97
477.463	6634.91
477.668	6493.6
477.872	6536.6
478.077	6575.52
478.282	6387.1
478.486	6450.59
478.691	6315.42
478.895	6241.7
479.1	6266.27
479.304	6378.91
479.509	5965.22
479.713	6088.1
479.918	6182.31
480.122	5856.68
480.326	6137.25
480.531	5899.69
480.735	5887.4
480.94	5952.93
481.144	6190.5
481.348	5889.45
481.553	5848.49
481.757	5694.89
481.961	5881.25
482.166	5891.49
482.37	5698.99
482.574	5649.83
482.778	5789.1
482.983	5838.25
483.187	5776.81
483.391	5860.77
483.595	5719.46
483.8	5711.27
484.004	5723.56
484.208	5907.88
484.412	5758.38
484.616	5717.42
484.821	5756.33
485.025	5576.11
485.229	5879.21
485.433	5735.85
485.637	5715.37
485.841	5723.56
486.045	5916.07
486.249	5680.55
486.453	5658.03
486.657	5787.05
486.861	5619.11
487.065	5543.34
487.269	5684.65
487.473	5594.54
487.677	5764.52
487.881	5780.9
488.085	5825.96
488.289	5782.95
488.493	5674.41
488.697	5744.04
488.901	5715.37
489.105	5662.12
489.309	5877.16
489.512	5830.06
489.716	5797.29
489.92	5938.6
490.124	5782.95
490.328	5852.58
490.531	5774.76
490.735	6086.05
490.939	5834.15
491.143	5911.97
491.346	5895.59
491.55	6010.28
491.754	6153.63
491.958	6192.55
492.161	6026.66
492.365	6008.23
492.569	6036.9
492.772	6094.24
492.976	6139.3
493.18	6088.1
493.383	6147.49
493.587	6251.94
493.79	6225.31
493.994	6161.83
494.197	6348.19
494.401	6364.57
494.605	6323.62
494.808	6446.49
495.012	6610.33
495.215	6518.17
495.419	6608.28
495.622	6571.42
495.825	6694.3
496.029	6725.02
496.232	6976.92
496.436	6911.38
496.639	6968.73
496.843	6804.89
497.046	7249.3
497.249	7175.57
497.453	7300.5
497.656	7009.69
497.859	7339.41
498.063	7208.34
498.266	7544.2
498.469	7548.3
498.673	7503.25
498.876	7781.77
499.079	7738.76
499.282	7728.52
499.485	8154.5
499.689	8033.67
499.892	8144.26
500.095	8234.37
500.298	8373.63
500.501	8512.89
500.705	8625.53
500.908	8596.86
501.111	8766.84
501.314	8738.17
501.517	8762.75
501.72	9133.43
501.923	8918.39
502.126	9074.04
502.329	9379.18
502.532	9440.62
502.735	9643.37
502.938	9428.34
503.141	9538.93
503.344	9676.14
503.547	10018.15
503.75	10077.54
503.953	10165.6
504.156	10327.39
504.359	10548.58
504.562	10491.23
504.765	10714.46
504.968	10847.58
505.17	10868.06
505.373	10968.41
505.576	10937.69
505.779	11199.83
505.982	11285.84
506.185	11781.45
506.387	11765.07
506.59	11636.05
506.793	12223.81
506.996	12002.63
507.198	12270.92
507.401	12238.15
507.604	12528.96
507.807	12576.06
508.009	12737.85
508.212	12862.78
508.415	12827.96
508.617	13157.69
508.82	13397.3
509.022	13305.14
509.225	13550.9
509.428	13651.25
509.63	13942.06
509.833	13968.68
510.035	14153
510.238	14155.05
510.44	14361.89
510.643	14595.36
510.845	14775.58
511.048	14720.29
511.25	15189.27
511.453	15056.15
511.655	15670.54
511.858	15629.59
512.06	15670.54
512.262	16186.63
512.465	15830.29
512.667	16207.11
512.87	16430.34
513.072	16553.22
513.274	16930.05
513.477	16864.51
513.679	17198.33
513.881	17128.7
514.084	17476.85
514.286	17648.88
514.488	17640.69
514.69	18140.4
514.893	18097.39
515.095	18207.98
515.297	18580.71
515.499	18717.92
515.701	18861.28
515.904	19037.41
516.106	19381.46
516.308	19471.57
516.51	19590.36
516.712	19762.39
516.914	20112.59
517.116	20595.91
517.318	20473.03
517.52	20698.31
517.722	20585.67
517.925	21191.87
518.127	21185.72
518.329	21591.22
518.531	21486.78
518.733	21763.25
518.935	22240.43
519.136	21963.95
519.338	22553.77
519.54	22953.12
519.742	22805.67
519.944	22815.91
520.146	23202.97
520.348	23764.12
520.55	23178.4
520.752	23719.06
520.954	24233.1
521.155	24089.74
521.357	24560.78
521.559	24898.69
521.761	25111.68
521.963	24949.89
522.164	25209.98
522.366	25457.79
522.568	25595
522.77	25891.96
522.971	26166.38
523.173	26180.72
523.375	26494.06
523.576	26469.48
523.778	26158.19
523.98	26834.02
524.181	26965.09
524.383	27286.62
524.584	27061.35
524.786	27325.54
524.988	27300.96
525.189	27870.29
525.391	27806.81
525.592	28040.28
525.794	28152.91
525.995	28398.67
526.197	28337.23
526.398	28548.17
526.6	28894.28
526.801	28406.86
527.003	28716.11
527.204	29330.5
527.406	29201.47
527.607	29254.72
527.808	29703.23
528.01	28957.77
528.211	29449.28
528.412	30078.01
528.614	29547.58
528.815	29656.12
529.016	30360.62
529.218	29985.85
529.419	29637.69
529.62	29795.39
529.822	30135.35
530.023	30223.41
530.224	30286.9
530.425	30379.06
530.626	30024.76
530.828	30075.96
531.029	30886.95
531.23	30698.54
531.431	30327.86
531.632	30495.79
531.833	30886.95
532.035	30489.65
532.236	30827.56
532.437	30823.47
532.638	30880.81
532.839	30897.19
533.04	30987.3
533.241	30698.54
533.442	31794.2
533.643	30901.29
533.844	31056.93
534.045	31149.09
534.246	31015.97
534.447	31095.85
534.648	31132.71
534.849	31036.45
535.05	30839.85
535.251	31136.8
535.451	31077.41
535.652	31605.79
535.853	31116.33
536.054	31167.52
536.255	31433.76
536.456	30960.68
536.657	31638.56
536.857	31128.61
537.058	31206.44
537.259	31095.85
537.46	31454.24
537.66	31474.72
537.861	31314.98
538.062	31163.43
538.263	31444
538.463	31134.76
538.664	31464.48
538.865	31519.78
539.065	31804.44
539.266	31071.27
539.466	31876.12
539.667	31063.08
539.868	31513.63
540.068	30895.14
540.269	31212.58
540.469	31720.48
540.67	31179.81
540.87	31155.24
541.071	31384.61
541.271	31312.93
541.472	31425.57
541.672	30522.41
541.873	31253.54
542.073	30794.79
542.274	31417.38
542.474	31196.2
542.675	31122.47
542.875	31509.54
543.075	31036.45
543.276	31015.97
543.476	31491.1
543.676	31097.89
543.877	31056.93
544.077	31579.17
544.277	31140.9
544.478	31169.57
544.678	31114.28
544.878	30962.73
545.078	31132.71
545.279	30850.09
545.479	30755.88
545.679	30960.68
545.879	30889
546.079	30989.35
546.28	31474.72
546.48	31114.28
546.68	31423.52
546.88	31075.37
547.08	31265.83
547.28	31044.65
547.48	31007.78
547.68	31286.31
547.88	30788.65
548.081	31331.36
548.281	30987.3
548.481	30927.91
548.681	31263.78
548.881	31108.13
549.081	31028.26
549.28	31081.51
549.48	31138.85
549.68	30948.39
549.88	31317.03
550.08	30499.89
550.28	31423.52
550.48	31024.17
550.68	31360.03
550.88	30633
551.08	30862.38
551.279	31007.78
551.479	30802.99
551.679	30977.06
551.879	31048.74
552.079	30975.02
552.278	30796.84
552.478	30915.62
552.678	30784.55
552.878	31130.66
553.077	31351.84
553.277	30262.32
553.477	31038.5
553.676	30884.9
553.876	30719.02
554.076	31085.61
554.275	30891.05
554.475	30542.89
554.674	30911.53
554.874	31003.69
555.074	30551.09
555.273	30905.38
555.473	30700.59
555.672	30520.37
555.872	31104.04
556.071	30465.07
556.271	30497.84
556.47	30346.29
556.67	30282.8
556.869	30432.3
557.068	30403.63
557.268	30301.23
557.467	30290.99
557.667	30073.91
557.866	30135.35
558.065	30221.36
558.265	29879.35
558.464	29928.5
558.663	30456.88
558.863	29807.67
559.062	30520.37
559.261	29885.5
559.461	30182.45
559.66	29404.22
559.859	29836.34
560.058	29662.27
560.258	29744.19
560.457	29563.96
560.656	29815.87
560.855	29647.93
561.054	29766.71
561.253	29514.81
561.453	29482.05
561.652	29584.44
561.851	29635.64
562.05	29242.43
562.249	29178.95
562.448	29770.81
562.647	29471.81
562.846	29305.92
563.045	29264.96
563.244	29099.08
563.443	29498.43
563.642	28986.44
563.841	28957.77
564.04	28591.18
564.239	29236.29
564.438	28736.59
564.637	28664.91
564.836	28910.66
565.035	28695.63
565.234	28607.56
565.432	28453.97
565.631	28324.94
565.83	28859.46
566.029	28744.78
566.228	28292.18
566.427	28466.25
566.625	28208.21
566.824	28099.67
567.023	28312.66
567.222	27821.14
567.42	28183.63
567.619	27817.05
567.818	27903.06
568.016	28066.9
568.215	27909.21
568.414	27837.53
568.612	28111.96
568.811	27669.59
569.01	27696.22
569.208	27382.88
569.407	27939.93
569.605	27040.87
569.804	27427.93
570.002	27253.86
570.201	27450.46
570.4	26956.9
570.598	27020.39
570.797	26850.41
570.995	27198.56
571.193	26819.69
571.392	27032.68
571.59	26565.74
571.789	26614.89
571.987	26647.66
572.186	26551.4
572.384	26158.19
572.582	26293.36
572.781	26455.15
572.979	25867.38
573.177	25924.72
573.376	25953.4
573.574	26188.91
573.772	25885.81
573.971	25894
574.169	25695.35
574.367	25564.28
574.565	25465.98
574.763	25500.79
574.962	25238.65
575.16	25218.18
575.358	25551.99
575.556	25316.48
575.754	25611.39
575.952	24937.6
576.151	24994.95
576.349	24509.58
576.547	24878.21
576.745	25001.09
576.943	25037.95
577.141	24800.39
577.339	24704.14
577.537	24521.87
577.735	24437.9
577.933	24009.87
578.131	24673.42
578.329	24022.16
578.527	23964.82
578.725	24435.85
578.923	23989.39
579.121	23936.15
579.319	24005.78
579.516	23764.12
579.714	23757.97
579.912	23651.48
580.11	23762.07
580.308	23557.27
580.506	23657.62
580.704	23264.41
580.901	23528.6
581.099	23663.77
581.297	23286.94
581.495	23229.6
581.692	23348.38
581.89	23096.48
582.088	23139.49
582.285	22867.11
582.483	23227.55
582.681	22959.27
582.878	23051.42
583.076	22846.63
583.274	22903.97
583.471	22584.49
583.669	22643.88
583.866	22463.66
584.064	22394.03
584.262	22072.5
584.459	22389.93
584.657	22146.22
584.854	22189.23
585.052	21996.72
585.249	22095.02
585.447	22004.91
585.644	21621.94
585.841	21818.55
586.039	21847.22
586.236	21365.95
586.434	21710
586.631	21345.47
586.828	21628.09
587.026	21462.2
587.223	21486.78
587.42	21218.49
587.618	21249.21
587.815	20931.78
588.012	21077.18
588.21	20944.06
588.407	21222.59
588.604	20952.26
588.801	20894.91
588.999	20847.81
589.196	20796.61
589.393	20665.54
589.59	20661.44
589.787	20604.1
589.984	20509.9
590.182	20403.4
590.379	20327.63
590.576	20059.34
590.773	20382.92
590.97	20251.85
591.167	20450.5
591.364	19866.83
591.561	20309.19
591.758	20055.25
591.955	19725.52
592.152	19784.91
592.349	19684.56
592.546	19733.71
592.743	20036.81
592.94	19360.98
593.137	19524.82
593.334	19592.41
593.531	19475.67
593.727	19666.13
593.924	19533.01
594.121	19215.58
594.318	19238.11
594.515	18922.72
594.712	19588.31
594.908	18904.29
595.105	18955.49
595.302	18898.14
595.499	18892
595.696	18930.91
595.892	18599.14
596.089	18828.51
596.286	18904.29
596.482	18642.15
596.679	18672.87
596.876	18433.25
597.072	18709.73
597.269	18513.13
597.466	18205.93
597.662	18558.18
597.859	18470.12
598.055	18513.13
598.252	18341.1
598.448	18101.48
598.645	18203.88
598.841	17994.99
599.038	17960.17
599.234	18132.2
599.431	17900.78
599.627	17718.51
599.824	17900.78
600.02	17675.51
600.217	17638.64
600.413	17677.55
600.609	17499.38
600.806	17411.32
601.002	17294.58
601.198	17540.34
601.395	17136.89
601.591	17102.08
601.787	16966.91
601.984	17159.42
602.18	17401.08
602.376	16973.05
602.572	16948.48
602.769	16985.34
602.965	16796.93
603.161	16950.53
603.357	16923.9
603.553	16774.4
603.75	16561.41
603.946	16751.87
604.142	16489.73
604.338	16268.55
604.534	16545.03
604.73	16356.61
604.926	16309.51
605.122	16434.44
605.318	16205.06
605.514	16151.82
605.71	16211.21
605.906	16246.02
606.102	15897.87
606.298	16112.91
606.494	16137.48
606.69	16008.46
606.886	15865.1
607.082	15734.03
607.278	16037.13
607.474	15670.54
607.67	15572.24
607.866	15572.24
608.062	16006.41
608.257	15519
608.453	15428.88
608.649	15543.57
608.845	15471.89
609.041	15711.5
609.236	15451.41
609.432	15295.77
609.628	15332.63
609.824	15125.79
610.019	15267.1
610.215	15103.26
610.411	15140.12
610.606	14826.78
610.802	15037.72
610.998	14869.79
611.193	15125.79
611.389	14728.48
611.584	14732.58
611.78	14751.01
611.976	14882.08
612.171	14939.42
612.367	14726.43
612.562	14669.09
612.758	14619.94
612.953	14490.91
613.149	14595.36
613.344	14472.48
613.539	14705.95
613.735	14523.68
613.93	14318.89
614.126	14325.03
614.321	14599.46
614.517	14290.21
614.712	14146.86
614.907	14073.13
615.103	14314.79
615.298	14071.08
615.493	14402.85
615.688	13882.67
615.884	14386.47
616.079	13917.48
616.274	14140.71
616.47	14138.66
616.665	13901.1
616.86	13880.62
617.055	13978.92
617.25	13821.23
617.445	13860.14
617.641	13516.08
617.836	13792.56
618.031	13659.44
618.226	13696.3
618.421	13501.75
618.616	13600.05
618.811	13425.97
619.006	13585.71
619.201	13163.83
619.396	13176.12
619.591	13225.27
619.786	13385.01
619.981	13112.63
620.176	13133.11
620.371	13073.72
620.566	13139.26
620.761	12866.88
620.956	12739.9
621.151	12746.05
621.346	12918.07
621.541	12637.5
621.735	12660.03
621.93	12438.85
622.125	12281.16
622.32	12389.7
622.515	12600.64
622.709	12346.69
622.904	12469.57
623.099	12334.4
623.294	12125.51
623.488	11881.8
623.683	12256.58
623.878	11826.51
624.072	11846.99
624.267	11820.36
624.462	11773.26
624.656	11576.66
624.851	11537.74
625.046	11525.46
625.24	11566.42
625.435	11314.52
625.629	11316.56
625.824	11228.5
626.018	11330.9
626.213	11361.62
626.407	11009.37
626.602	10851.67
626.796	11119.96
626.991	11111.77
627.185	11001.18
627.38	10632.54
627.574	10820.95
627.768	10573.15
627.963	10757.47
628.157	10607.97
628.352	10630.49
628.546	10392.93
628.74	10495.33
628.935	10491.23
629.129	10421.6
629.323	10194.28
629.517	9989.48
629.712	10134.89
629.906	10016.1
630.1	10063.21
630.294	10044.77
630.489	9768.3
630.683	9946.47
630.877	9899.37
631.071	9780.59
631.265	9811.31
631.459	9731.44
631.653	9780.59
631.848	9745.77
632.042	9481.58
632.236	9639.28
632.43	9385.33
632.624	9469.3
632.818	9407.86
633.012	9258.35
633.206	9256.31
633.4	9264.5
633.594	9071.99
633.788	9061.75
633.982	9164.15
634.176	9059.7
634.369	9012.6
634.563	8875.38
634.757	8867.19
634.951	8883.58
635.145	8815.99
635.339	8846.71
635.533	8877.43
635.726	8801.66
635.92	8590.72
636.114	8678.78
636.308	8549.76
636.501	8592.76
636.695	8519.04
636.889	8398.21
637.083	8406.4
637.276	8369.54
637.47	8258.95
637.664	8142.21
637.857	8256.9
638.051	8338.82
638.244	8043.91
638.438	8093.06
638.632	8148.36
638.825	7880.07
639.019	7898.5
639.212	7953.8
639.406	7841.16
639.599	7886.22
639.793	7673.23
639.986	7435.66
640.18	7435.66
640.373	7689.61
640.567	7724.43
640.76	7544.2
640.954	7525.77
641.147	7378.32
641.34	7384.46
641.534	7402.9
641.727	7454.09
641.92	7226.77
642.114	7239.06
642.307	7269.78
642.5	7243.15
642.694	7079.32
642.887	7089.56
643.08	7130.52
643.273	6981.01
643.467	6909.33
643.66	7112.08
643.853	6858.14
644.046	6843.8
644.239	6567.32
644.432	6772.12
644.626	6790.55
644.819	6479.26
645.012	6714.78
645.205	6577.56
645.398	6428.06
645.591	6645.15
645.784	6538.65
645.977	6557.08
646.17	6311.33
646.363	6266.27
646.556	6163.87
646.749	6395.29
646.942	6374.81
647.135	6272.42
647.328	6129.06
647.521	6002.08
647.714	6065.57
647.907	6204.83
648.099	5963.17
648.292	6061.48
648.485	6055.33
648.678	5957.03
648.871	5797.29
649.064	5760.42
649.256	5926.31
649.449	5803.43
649.642	5873.06
649.835	5637.55
650.027	5635.5
650.22	5561.77
650.413	5543.34
650.605	5504.43
650.798	5701.03
650.991	5569.96
651.183	5543.34
651.376	5510.57
651.568	5406.13
651.761	5494.19
651.954	5318.06
652.146	5371.31
652.339	5328.3
652.531	5369.26
652.724	5234.1
652.916	5283.25
653.109	5242.29
653.301	5295.54
653.494	5223.86
653.686	5092.79
653.879	5150.13
654.071	5178.8
654.263	4982.2
654.456	5070.26
654.648	4957.62
654.84	4920.76
655.033	4931
655.225	4967.86
655.417	4918.71
655.61	4945.33
655.802	4775.35
655.994	4861.37
656.186	4756.92
656.379	4748.73
656.571	4713.91
656.763	4672.95
656.955	4713.91
657.148	4670.9
657.34	4580.79
657.532	4588.99
657.724	4513.21
657.916	4566.46
658.108	4605.37
658.3	4486.59
658.492	4423.1
658.684	4275.65
658.876	4402.62
659.068	4316.61
659.26	4410.81
659.452	4285.89
659.644	4326.85
659.836	4322.75
660.028	4261.31
660.22	4171.2
660.412	4226.5
660.604	4062.66
660.796	4181.44
660.988	4046.27
661.18	4156.86
661.372	4029.89
661.563	4076.99
661.755	4001.22
661.947	3810.76
662.139	3943.88
662.331	3970.5
662.522	3962.31
662.714	4052.42
662.906	3915.2
663.097	3923.4
663.289	3829.19
663.481	3837.38
663.673	3839.43
663.864	3698.12
664.056	3761.61
664.247	3685.83
664.439	3644.87
664.631	3698.12
664.822	3612.1
665.014	3595.72
665.205	3630.54
665.397	3687.88
665.588	3591.63
665.78	3558.86
665.971	3503.56
666.163	3718.6
666.354	3524.04
666.546	3429.84
666.737	3335.63
666.929	3462.6
667.12	3442.12
667.311	3317.2
667.503	3364.3
667.694	3470.8
667.885	3345.87
668.077	3407.31
668.268	3229.13
668.459	3481.03
668.651	3298.77
668.842	3444.17
669.033	3382.73
669.224	3268.05
669.416	3222.99
669.607	3257.81
669.798	3198.42
669.989	3247.57
670.18	3268.05
670.371	3229.13
670.563	3270.09
670.754	3173.84
670.945	3102.16
671.136	3136.98
671.327	2954.71
671.518	3055.06
671.709	3040.72
671.9	3048.91
672.091	3145.17
672.282	3044.82
672.473	2850.26
672.664	2866.64
672.855	2995.67
673.046	2966.99
673.237	3012.05
673.428	2940.37
673.619	2883.03
673.809	2991.57
674	2975.19
674.191	2960.85
674.382	2964.95
674.573	2997.71
674.764	2868.69
674.954	2911.7
675.145	2969.04
675.336	2866.64
675.527	2803.16
675.717	2905.56
675.908	2868.69
676.099	2823.64
676.289	2864.6
676.48	2782.68
676.671	2764.25
676.861	2635.22
677.052	2694.61
677.243	2639.32
677.433	2612.7
677.624	2727.38
677.814	2727.38
678.005	2725.33
678.195	2735.57
678.386	2610.65
678.576	2766.29
678.767	2598.36
678.957	2733.53
679.148	2571.74
679.338	2661.85
679.529	2563.54
679.719	2612.7
679.909	2721.24
680.1	2614.74
680.29	2704.85
680.481	2477.53
680.671	2538.97
680.861	2557.4
681.052	2655.7
681.242	2563.54
681.432	2711
681.622	2549.21
681.813	2473.43
682.003	2549.21
682.193	2446.81
682.383	2541.02
682.573	2446.81
682.764	2444.76
682.954	2581.98
683.144	2424.28
683.334	2469.34
683.524	2504.15
683.714	2493.91
683.904	2422.24
684.094	2512.35
684.284	2481.63
684.474	2455
684.664	2403.8
684.854	2471.39
685.044	2383.32
685.234	2508.25
685.424	2368.99
685.614	2422.24
685.804	2459.1
685.994	2500.06
686.184	2373.08
686.374	2348.51
686.564	2426.33
686.753	2401.76
686.943	2239.97
687.133	2373.08
687.323	2338.27
687.513	2368.99
687.702	2282.97
687.892	2321.88
688.082	2336.22
688.272	2362.84
688.461	2196.96
688.651	2278.88
688.841	2178.53
689.03	2297.31
689.22	2233.82
689.41	2246.11
689.599	2192.86
689.789	2168.29
689.979	2252.25
690.168	2127.33
690.358	2178.53
690.547	2160.1
690.737	2323.93
690.926	2233.82
691.116	2262.49
691.305	2205.15
691.495	2252.25
691.684	2127.33
691.874	2325.98
692.063	2178.53
692.252	2227.68
692.442	2201.05
692.631	2164.19
692.82	2176.48
693.01	2110.94
693.199	2270.69
693.388	2250.21
693.578	2098.66
693.767	2160.1
693.956	2158.05
694.146	2164.19
694.335	2207.2
694.524	2272.73
694.713	2201.05
694.902	2102.75
695.092	2131.42
695.281	2235.87
695.47	2162.14
695.659	2205.15
695.848	2196.96
696.037	2145.76
696.226	2104.8
696.415	2174.43
696.604	2141.66
696.793	2192.86
696.982	2061.79
697.171	2254.3
697.36	2203.1
697.549	2020.83
697.738	2080.22
697.927	2147.81
698.116	2067.94
698.305	2151.9
698.494	2037.22
698.683	2151.9
698.872	2022.88
699.061	2112.99
699.25	2178.53
699.438	2074.08
699.627	2096.61
699.816	2180.57
700.005	2176.48
700.193	2168.29
700.382	2158.05
700.571	2024.93
700.76	2053.6
700.948	2131.42
701.137	2033.12
701.326	2047.46
701.514	2176.48
701.703	2004.45
701.892	2057.7
702.08	2074.08
702.269	2086.37
702.457	2051.55
702.646	2090.46
702.834	2084.32
703.023	2041.31
703.212	2135.52
703.4	2041.31
703.589	1959.39
703.777	2096.61
703.965	1951.2
704.154	2047.46
704.342	2008.55
704.531	2151.9
704.719	1963.49
704.907	1992.16
705.096	2055.65
705.284	2119.14
705.472	2026.98
705.661	1936.87
705.849	2080.22
706.037	1893.86
706.226	1963.49
706.414	2004.45
706.602	1938.91
706.79	2004.45
706.979	1969.63
707.167	1971.68
707.355	1955.3
707.543	1902.05
707.731	1877.48
707.919	1955.3
708.107	1861.09
708.296	1834.47
708.484	1863.14
708.672	1932.77
708.86	1938.91
709.048	1916.39
709.236	1969.63
709.424	1965.54
709.612	1873.38
709.8	1820.13
709.988	1836.52
710.176	1908.19
710.364	1766.89
710.551	1813.99
710.739	1990.11
710.927	1807.84
711.115	1799.65
711.303	1840.61
711.491	1936.87
711.679	1709.54
711.866	1816.04
712.054	1695.21
712.242	1678.82
712.43	1873.38
712.617	1816.04
712.805	1779.17
712.993	1713.64
713.181	1754.6
713.368	1785.32
713.556	1676.77
713.744	1652.2
713.931	1764.84
714.119	1748.45
714.306	1826.28
714.494	1652.2
714.682	1668.58
714.869	1744.36
715.057	1697.25
715.244	1578.47
715.432	1783.27
715.619	1687.01
715.807	1662.44
715.994	1762.79
716.182	1566.18
716.369	1676.77
716.556	1693.16
716.744	1660.39
716.931	1637.86
717.119	1652.2
717.306	1562.09
717.493	1605.1
717.681	1658.34
717.868	1646.05
718.055	1611.24
718.242	1568.23
718.43	1605.1
718.617	1596.9
718.804	1588.71
718.991	1537.51
719.179	1592.81
719.366	1629.67
719.553	1613.29
719.74	1658.34
719.927	1564.14
720.114	1578.47
720.301	1557.99
720.488	1480.17
720.676	1492.46
720.863	1527.27
721.05	1492.46
721.237	1557.99
721.424	1474.03
721.611	1517.03
721.798	1390.06
721.985	1486.31
722.172	1457.64
722.358	1490.41
722.545	1543.66
722.732	1510.89
722.919	1455.59
723.106	1586.66
723.293	1510.89
723.48	1437.16
723.667	1457.64
723.853	1400.3
724.04	1449.45
724.227	1416.68
724.414	1406.44
724.6	1431.02
724.787	1328.62
724.974	1320.43
725.161	1353.2
725.347	1351.15
725.534	1383.91
725.72	1383.91
725.907	1377.77
726.094	1394.15
726.28	1451.5
726.467	1324.52
726.653	1381.87
726.84	1353.2
727.027	1433.07
727.213	1345
727.4	1398.25
727.586	1371.63
727.773	1406.44
727.959	1269.23
728.145	1334.76
728.332	1328.62
728.518	1314.28
728.705	1359.34
728.891	1287.66
729.077	1359.34
729.264	1226.22
729.45	1242.61
729.636	1306.09
729.823	1342.96
730.009	1340.91
730.195	1310.19
730.382	1328.62
730.568	1297.9
730.754	1304.04
730.94	1234.41
731.126	1250.8
731.313	1211.89
731.499	1203.69
731.685	1236.46
731.871	1240.56
732.057	1215.98
732.243	1234.41
732.429	1312.24
732.615	1205.74
732.801	1201.65
732.987	1146.35
733.173	1258.99
733.359	1269.23
733.545	1201.65
733.731	1199.6
733.917	1240.56
734.103	1205.74
734.289	1240.56
734.475	1201.65
734.661	1254.89
734.847	1201.65
735.033	1166.83
735.219	1207.79
735.404	1265.13
735.59	1172.97
735.776	1148.4
735.962	1172.97
736.148	1201.65
736.333	1160.69
736.519	1236.46
736.705	1074.67
736.89	1209.84
737.076	1154.54
737.262	1078.77
737.447	1146.35
737.633	1205.74
737.819	1177.07
738.004	1050.1
738.19	1234.41
738.375	1048.05
738.561	1125.87
738.747	1134.06
738.932	1189.36
739.118	1056.24
739.303	1099.25
739.489	996.85
739.674	1082.86
739.859	1062.38
740.045	970.23
740.23	1117.68
740.416	1052.14
740.601	1021.42
740.786	1066.48
740.972	1019.38
741.157	1064.43
741.342	947.7
741.528	1015.28
741.713	1007.09
741.898	1000.94
742.084	1056.24
742.269	1025.52
742.454	949.75
742.639	1002.99
742.824	1017.33
743.01	1023.47
743.195	1013.23
743.38	1019.38
743.565	1078.77
743.75	1080.82
743.935	943.6
744.12	1062.38
744.305	953.84
744.49	1002.99
744.675	968.18
744.86	962.03
745.045	996.85
745.23	880.11
745.415	943.6
745.6	908.79
745.785	843.25
745.97	1017.33
746.155	865.78
746.34	951.79
746.525	888.31
746.71	820.72
746.895	947.7
747.079	777.72
747.264	871.92
747.449	855.54
747.634	876.02
747.819	859.63
748.003	894.45
748.188	892.4
748.373	873.97
748.557	876.02
748.742	783.86
748.927	908.79
749.111	898.55
749.296	857.59
749.481	873.97
749.665	794.1
749.85	835.06
750.034	890.35
750.219	894.45
750.404	773.62
750.588	828.92
750.773	728.56
750.957	751.09
751.141	876.02
751.326	826.87
751.51	820.72
751.695	744.95
751.879	820.72
752.064	767.48
752.248	771.57
752.432	781.81
752.617	703.99
752.801	742.9
752.985	736.76
753.17	708.09
753.354	685.56
753.538	777.72
753.722	622.07
753.907	712.18
754.091	617.97
754.275	722.42
754.459	740.85
754.643	689.65
754.828	677.37
755.012	718.33
755.196	679.41
755.38	689.65
755.564	708.09
755.748	640.5
755.932	622.07
756.116	630.26
756.3	695.8
756.484	677.37
756.668	620.02
756.852	790
757.036	624.12
757.22	677.37
757.404	630.26
757.588	660.98
757.772	632.31
757.956	611.83
758.14	673.27
758.323	638.45
758.507	615.93
758.691	597.49
758.875	617.97
759.059	577.02
759.242	529.91
759.426	634.36
759.61	620.02
759.794	556.54
759.977	642.55
760.161	632.31
760.345	560.63
760.528	560.63
760.712	579.06
760.895	589.3
761.079	558.58
761.263	550.39
761.446	495.1
761.63	488.95
761.813	538.1
761.997	544.25
762.18	554.49
762.364	544.25
762.547	617.97
762.731	521.72
762.914	534.01
763.098	499.19
763.281	515.58
763.464	589.3
763.648	552.44
763.831	558.58
764.015	519.67
764.198	515.58
764.381	540.15
764.564	425.47
764.748	527.86
764.931	445.95
765.114	478.71
765.297	493.05
765.481	497.14
765.664	546.3
765.847	488.95
766.03	499.19
766.213	433.66
766.397	415.23
766.58	450.04
766.763	499.19
766.946	443.9
767.129	529.91
767.312	402.94
767.495	534.01
767.678	441.85
767.861	480.76
768.044	468.47
768.227	491
768.41	386.55
768.593	488.95
768.776	495.1
768.959	447.99
769.142	511.48
769.324	437.75
769.507	513.53
769.69	472.57
769.873	441.85
770.056	361.98
770.239	419.32
770.421	505.34
770.604	439.8
770.787	431.61
770.97	458.23
771.152	370.17
771.335	439.8
771.518	456.19
771.7	558.58
771.883	441.85
772.066	404.99
772.248	398.84
772.431	452.09
772.613	445.95
772.796	361.98
772.978	390.65
773.161	441.85
773.343	456.19
773.526	421.37
773.708	495.1
773.891	366.07
774.073	402.94
774.256	464.38
774.438	435.71
774.621	386.55
774.803	472.57
774.985	376.31
775.168	398.84
775.35	431.61
775.532	437.75
775.715	368.12
775.897	423.42
776.079	419.32
776.261	384.51
776.444	429.56
776.626	376.31
776.808	355.83
776.99	421.37
777.173	382.46
777.355	327.16
777.537	390.65
777.719	359.93
777.901	275.96
778.083	411.13
778.265	314.88
778.447	361.98
778.629	337.4
778.811	345.59
778.993	394.75
779.175	370.17
779.357	275.96
779.539	335.35
779.721	316.92
779.903	286.2
780.085	349.69
780.267	357.88
780.449	321.02
780.631	325.12
780.812	271.87
780.994	263.68
781.176	392.7
781.358	280.06
781.54	343.55
781.721	341.5
781.903	335.35
782.085	245.24
782.267	321.02
782.448	253.44
782.63	255.48
782.812	351.74
782.993	306.68
783.175	189.95
783.357	325.12
783.538	325.12
783.72	292.35
783.901	296.44
784.083	300.54
784.264	280.06
784.446	284.16
784.627	294.4
784.809	220.67
784.99	294.4
785.172	278.01
785.353	214.52
785.535	241.15
785.716	288.25
785.897	271.87
786.079	284.16
786.26	263.68
786.441	228.86
786.623	155.13
786.804	310.78
786.985	183.81
787.167	228.86
787.348	177.66
787.529	265.72
787.71	189.95
787.891	243.2
788.073	230.91
788.254	177.66
788.435	269.82
788.616	200.19
788.797	210.43
788.978	237.05
789.159	235
789.34	345.59
789.522	212.48
789.703	210.43
789.884	251.39
790.065	214.52
790.246	239.1
790.427	214.52
790.607	206.33
790.788	247.29
790.969	204.28
791.15	89.6
791.331	185.85
791.512	204.28
791.693	200.19
791.874	214.52
792.054	261.63
792.235	175.61
792.416	196.09
792.597	208.38
792.778	181.76
792.958	194.05
793.139	148.99
793.32	169.47
793.5	130.56
793.681	218.62
793.862	196.09
794.042	138.75
794.223	99.84
794.404	120.32
794.584	108.03
794.765	161.28
794.945	175.61
795.126	214.52
795.306	194.05
795.487	194.05
795.667	146.94
795.848	210.43
796.028	163.33
796.209	171.52
796.389	210.43
796.57	87.55
796.75	245.24
796.93	214.52
797.111	165.37
797.291	163.33
797.471	134.65
797.652	204.28
797.832	171.52
798.012	261.63
798.192	130.56
798.373	169.47
798.553	71.17
798.733	202.24
798.913	179.71
799.093	136.7
799.274	171.52
799.454	161.28
799.634	110.08
799.814	214.52
799.994	185.85
800.174	83.45
800.354	226.81
800.534	101.89
800.714	91.65
800.894	177.66
801.074	118.27
801.254	138.75
801.434	126.46
801.614	153.09
801.794	114.17
801.974	341.5
802.154	77.31
802.334	169.47
802.514	202.24
802.693	144.89
802.873	60.93
803.053	187.9
803.233	108.03
803.413	97.79
803.592	105.98
803.772	169.47
803.952	114.17
804.131	142.85
804.311	134.65
804.491	144.89
804.67	181.76
804.85	153.09
805.03	56.83
805.209	161.28
805.389	136.7
805.568	171.52
805.748	157.18
805.928	89.6
806.107	226.81
806.287	83.45
806.466	118.27
806.646	120.32
806.825	134.65
807.004	116.22
807.184	110.08
807.363	148.99
807.543	11.78
807.722	73.21
807.901	105.98
808.081	114.17
808.26	85.5
808.439	87.55
808.619	-2.56
808.798	120.32
808.977	95.74
809.156	132.61
809.336	73.21
809.515	136.7
809.694	97.79
809.873	75.26
810.052	95.74
810.231	103.93
810.411	110.08
810.59	73.21
810.769	83.45
810.948	95.74
811.127	97.79
811.306	153.09
811.485	122.37
811.664	105.98
811.843	93.69
812.022	87.55
812.201	138.75
812.38	30.21
812.559	89.6
812.737	105.98
812.916	87.55
813.095	136.7
813.274	99.84
813.453	56.83
813.632	110.08
813.811	112.13
813.989	130.56
814.168	130.56
814.347	118.27
814.526	130.56
814.704	42.5
814.883	114.17
815.062	108.03
815.24	212.48
815.419	44.54
815.598	24.06
815.776	101.89
815.955	118.27
816.133	120.32
816.312	97.79
816.49	91.65
816.669	60.93
816.847	19.97
817.026	67.07
817.204	38.4
817.383	73.21
817.561	58.88
817.74	95.74
817.918	30.21
818.097	3.58
818.275	50.69
818.453	79.36
818.632	52.74
818.81	77.31
818.988	56.83
819.167	144.89
819.345	103.93
819.523	108.03
819.701	34.3
819.879	153.09
820.058	40.45
820.236	126.46
820.414	79.36
820.592	128.51
820.77	17.92
820.948	105.98
821.127	15.87
821.305	105.98
821.483	87.55
821.661	9.73
821.839	85.5
822.017	42.5
822.195	89.6
822.373	5.63
822.551	112.13
822.729	89.6
822.907	3.58
823.085	87.55
823.262	69.12
823.44	52.74
823.618	67.07
823.796	138.75
823.974	87.55
824.152	7.68
824.329	73.21
824.507	114.17
824.685	24.06
824.863	40.45
825.04	1.54
825.218	120.32
825.396	89.6
825.574	46.59
825.751	32.26
825.929	130.56
826.107	24.06
826.284	124.41
826.462	50.69
826.639	132.61
826.817	56.83
826.994	-14.85
827.172	-10.75
827.349	93.69
827.527	30.21
827.704	46.59
827.882	75.26
828.059	97.79
828.237	-8.7
828.414	56.83
828.591	-6.66
828.769	130.56
828.946	81.41
829.124	65.02
829.301	97.79
829.478	40.45
829.655	-2.56
829.833	79.36
830.01	52.74
830.187	40.45
830.364	79.36
830.542	62.98
830.719	38.4
830.896	52.74
831.073	28.16
831.25	32.26
831.427	-10.75
831.604	83.45
831.782	36.35
831.959	67.07
832.136	65.02
832.313	46.59
832.49	3.58
832.667	54.78
832.844	81.41
833.021	62.98
833.198	89.6
833.374	-2.56
833.551	30.21
833.728	62.98
833.905	89.6
834.082	44.54
834.259	5.63
834.436	22.02
834.612	48.64
834.789	48.64
834.966	-18.94
835.143	108.03
835.319	36.35
835.496	54.78
835.673	85.5
835.85	56.83
836.026	79.36
836.203	46.59
836.38	42.5
836.556	69.12
836.733	77.31
836.909	48.64
837.086	85.5
837.262	103.93
837.439	44.54
837.616	77.31
837.792	32.26
837.968	73.21
838.145	60.93
838.321	34.3
838.498	42.5
838.674	85.5
838.851	-2.56
839.027	46.59
839.203	52.74
839.38	52.74
839.556	56.83
839.732	58.88
839.909	89.6
840.085	73.21
840.261	-31.23
840.437	81.41
840.614	7.68
840.79	71.17
840.966	22.02
841.142	54.78
841.318	38.4
841.494	67.07
841.671	99.84
841.847	87.55
842.023	54.78
842.199	30.21
842.375	103.93
842.551	-8.7
842.727	-37.38
842.903	108.03
843.079	22.02
843.255	48.64
843.431	-33.28
843.607	-20.99
843.783	5.63
843.959	34.3
844.134	62.98
844.31	26.11
844.486	67.07
844.662	56.83
844.838	44.54
845.013	56.83
845.189	17.92
845.365	48.64
845.541	34.3
845.716	75.26
845.892	71.17
846.068	62.98
846.244	19.97
846.419	108.03
846.595	-31.23
846.77	38.4
846.946	132.61
847.122	48.64
847.297	62.98
847.473	15.87
847.648	1.54
847.824	1.54
847.999	28.16
848.175	79.36
848.35	71.17
848.526	7.68
848.701	56.83
848.876	50.69
849.052	-33.28
849.227	24.06
849.403	34.3
849.578	15.87
849.753	-27.14
849.929	71.17
850.104	40.45
850.279	1.54
850.454	58.88
850.63	79.36
850.805	22.02
850.98	13.82
851.155	67.07
851.33	28.16
851.505	50.69
851.681	79.36
851.856	9.73
852.031	83.45
852.206	-8.7
852.381	-31.23
852.556	19.97
852.731	32.26
852.906	50.69
853.081	22.02
853.256	15.87
853.431	46.59
853.606	22.02
853.781	46.59
853.956	-43.52
854.131	105.98
854.305	-2.56
854.48	22.02
854.655	-18.94
854.83	26.11
855.005	7.68
855.18	22.02
855.354	9.73
855.529	101.89
855.704	38.4
855.879	56.83
856.053	26.11
856.228	3.58
856.403	9.73
856.577	36.35
856.752	-35.33
856.926	24.06
857.101	67.07
857.276	7.68
857.45	-25.09
857.625	48.64
857.799	56.83
857.974	28.16
858.148	19.97
858.323	9.73
858.497	19.97
858.672	34.3
858.846	-16.9
859.02	36.35
859.195	-76.29
859.369	13.82
859.543	22.02
859.718	-0.51
859.892	56.83
860.066	22.02
860.241	-2.56
860.415	128.51
860.589	67.07
860.763	42.5
860.938	-0.51
861.112	13.82
861.286	-39.42
861.46	44.54
861.634	-23.04
861.808	19.97
861.982	-53.76
862.157	69.12
862.331	-2.56
862.505	50.69
862.679	62.98
862.853	93.69
863.027	34.3
863.201	32.26
863.375	-23.04
863.549	13.82
863.722	38.4
863.896	9.73
864.07	22.02
864.244	36.35
864.418	32.26
864.592	62.98
864.766	40.45
864.939	15.87
865.113	-10.75
865.287	38.4
865.461	-6.66
865.634	15.87
865.808	83.45
865.982	13.82
866.156	-8.7
866.329	-2.56
866.503	46.59
866.676	46.59
866.85	-14.85
867.024	-33.28
867.197	112.13
867.371	15.87
867.544	-25.09
867.718	11.78
867.891	69.12
868.065	-18.94
868.238	13.82
868.412	108.03
868.585	42.5
868.759	32.26
868.932	-88.57
869.105	38.4
869.279	-6.66
869.452	-20.99
869.625	38.4
869.799	-27.14
869.972	-6.66
870.145	15.87
870.319	26.11
870.492	-53.76
870.665	42.5
870.838	36.35
871.011	17.92
871.185	44.54
871.358	67.07
871.531	54.78
871.704	22.02
871.877	3.58
872.05	-6.66
872.223	-29.18
872.396	-51.71
872.569	22.02
872.742	69.12
872.915	56.83
873.088	1.54
873.261	17.92
873.434	44.54
873.607	36.35
873.78	24.06
873.953	22.02
874.126	-27.14
874.299	62.98
874.471	-20.99
874.644	13.82
874.817	44.54
874.99	-49.66
875.163	-0.51
875.335	32.26
875.508	-43.52
875.681	52.74
875.853	79.36
876.026	50.69
876.199	32.26
876.371	13.82
876.544	-20.99
876.717	32.26
876.889	-23.04
877.062	34.3
877.234	-23.04
877.407	5.63
877.579	22.02
877.752	13.82
877.924	34.3
878.097	24.06
878.269	9.73
878.442	1.54
878.614	-14.85
878.786	60.93
878.959	56.83
879.131	26.11
879.303	-31.23
879.476	3.58
879.648	32.26
879.82	36.35
879.993	7.68
880.165	3.58
880.337	15.87
880.509	26.11
880.681	1.54
880.854	-10.75
881.026	28.16
881.198	105.98
881.37	65.02
881.542	60.93
881.714	3.58
881.886	38.4
882.058	-0.51
882.23	24.06
882.402	-51.71
882.574	30.21
882.746	30.21
882.918	22.02
883.09	48.64
883.262	13.82
883.434	65.02
883.606	-14.85
883.778	22.02
883.95	108.03
884.122	-23.04
884.293	38.4
884.465	46.59
884.637	54.78
884.809	13.82
884.98	-14.85
885.152	5.63
885.324	54.78
885.496	-14.85
885.667	32.26
885.839	60.93
886.011	81.41
886.182	60.93
886.354	-10.75
886.525	-16.9
886.697	32.26
886.869	15.87
887.04	-37.38
887.212	-10.75
887.383	81.41
887.555	-18.94
887.726	40.45
887.897	-35.33
888.069	-25.09
888.24	13.82
888.412	-18.94
888.583	52.74
888.754	40.45
888.926	26.11
889.097	65.02
889.268	7.68
889.44	26.11
889.611	28.16
889.782	48.64
889.953	-4.61
890.125	-27.14
890.296	-20.99
890.467	75.26
890.638	17.92
890.809	71.17
890.98	-35.33
891.151	17.92
891.323	-12.8
891.494	42.5
891.665	-64
891.836	34.3
892.007	17.92
892.178	22.02
892.349	5.63
892.52	52.74
892.691	73.21
892.862	9.73
893.032	-18.94
893.203	24.06
893.374	60.93
893.545	11.78
893.716	75.26
893.887	3.58
894.057	-12.8
894.228	-18.94
894.399	46.59
894.57	17.92
894.74	38.4
894.911	87.55
895.082	9.73
895.253	19.97
895.423	30.21
895.594	22.02
895.764	-33.28
895.935	19.97
896.106	26.11
896.276	-51.71
896.447	-0.51
896.617	69.12
896.788	3.58
896.958	-39.42
897.129	-14.85
897.299	-33.28
897.47	15.87
897.64	17.92
897.81	7.68
897.981	1.54
898.151	-10.75
898.322	67.07
898.492	58.88
898.662	-10.75
898.832	24.06
899.003	15.87
899.173	17.92
899.343	7.68
899.513	83.45
