Data from USB4F104151__286__14-02-31-138.txt Node

Date: Thu Mar 13 14:02:31 EDT 2025
User: louis
Spectrometer: USB4F10415
Trigger mode: 4
Integration Time (sec): 1.000000E-2
Scans to average: 1
Electric dark correction enabled: true
Nonlinearity correction enabled: false
Boxcar width: 0
XAxis mode: Wavelengths
Number of Pixels in Spectrum: 3648
>>>>>Begin Spectral Data<<<<<
178.204	-20.82
178.424	-20.82
178.644	-20.82
178.864	-6.49
179.084	-26.96
179.304	-14.68
179.524	-29.01
179.744	69.29
179.964	5.8
180.184	30.38
180.404	13.99
180.624	16.04
180.844	5.8
181.064	-47.44
181.283	-8.53
181.503	-57.68
181.723	16.04
181.943	-4.44
182.163	52.91
182.383	-14.68
182.602	9.9
182.822	34.47
183.042	50.86
183.262	48.81
183.482	42.67
183.701	40.62
183.921	13.99
184.141	110.25
184.361	116.39
184.58	36.52
184.8	48.81
185.02	57
185.239	71.34
185.459	-20.82
185.679	102.06
185.898	52.91
186.118	3.75
186.338	-8.53
186.557	-8.53
186.777	57
186.997	1.71
187.216	7.85
187.436	3.75
187.655	-41.3
187.875	-29.01
188.095	83.63
188.314	-31.06
188.534	30.38
188.753	-20.82
188.973	18.09
189.192	77.48
189.412	3.75
189.631	-12.63
189.851	87.72
190.07	89.77
190.29	-43.35
190.509	46.76
190.729	36.52
190.948	61.1
191.168	126.63
191.387	11.95
191.607	59.05
191.826	-0.34
192.045	-20.82
192.265	89.77
192.484	30.38
192.704	3.75
192.923	20.14
193.142	-45.4
193.362	22.19
193.581	59.05
193.8	61.1
194.02	57
194.239	7.85
194.458	46.76
194.678	54.95
194.897	3.75
195.116	79.53
195.335	20.14
195.555	30.38
195.774	3.75
195.993	40.62
196.212	85.67
196.432	20.14
196.651	-26.96
196.87	106.15
197.089	7.85
197.308	32.43
197.528	-14.68
197.747	22.19
197.966	46.76
198.185	42.67
198.404	69.29
198.623	38.57
198.842	-0.34
199.062	-31.06
199.281	-16.73
199.5	52.91
199.719	54.95
199.938	52.91
200.157	-8.53
200.376	28.33
200.595	63.15
200.814	28.33
201.033	16.04
201.252	91.82
201.471	-86.36
201.69	73.39
201.909	44.71
202.128	24.23
202.347	20.14
202.566	-35.16
202.785	20.14
203.004	57
203.223	52.91
203.442	46.76
203.661	20.14
203.879	-37.2
204.098	5.8
204.317	26.28
204.536	89.77
204.755	20.14
204.974	77.48
205.193	-29.01
205.411	59.05
205.63	7.85
205.849	36.52
206.068	-29.01
206.287	-24.92
206.505	1.71
206.724	93.87
206.943	40.62
207.162	85.67
207.381	24.23
207.599	40.62
207.818	-4.44
208.037	9.9
208.255	112.3
208.474	61.1
208.693	-29.01
208.911	1.71
209.13	87.72
209.349	108.2
209.567	77.48
209.786	-2.39
210.005	61.1
210.223	57
210.442	79.53
210.661	20.14
210.879	93.87
211.098	-53.59
211.316	57
211.535	-24.92
211.753	-12.63
211.972	91.82
212.191	-39.25
212.409	26.28
212.628	28.33
212.846	38.57
213.065	36.52
213.283	73.39
213.502	77.48
213.72	16.04
213.938	93.87
214.157	-12.63
214.375	-8.53
214.594	108.2
214.812	11.95
215.031	-20.82
215.249	16.04
215.467	71.34
215.686	-63.83
215.904	81.58
216.122	-22.87
216.341	54.95
216.559	77.48
216.778	77.48
216.996	20.14
217.214	-8.53
217.432	30.38
217.651	65.19
217.869	54.95
218.087	3.75
218.306	11.95
218.524	65.19
218.742	44.71
218.96	93.87
219.179	89.77
219.397	93.87
219.615	36.52
219.833	30.38
220.051	-6.49
220.27	-61.78
220.488	32.43
220.706	73.39
220.924	-43.35
221.142	13.99
221.36	20.14
221.578	71.34
221.796	-10.58
222.015	79.53
222.233	40.62
222.451	61.1
222.669	-2.39
222.887	16.04
223.105	-4.44
223.323	48.81
223.541	83.63
223.759	48.81
223.977	3.75
224.195	44.71
224.413	85.67
224.631	52.91
224.849	44.71
225.067	52.91
225.285	52.91
225.503	36.52
225.721	-2.39
225.939	11.95
226.157	24.23
226.375	52.91
226.592	65.19
226.81	3.75
227.028	24.23
227.246	52.91
227.464	46.76
227.682	61.1
227.9	18.09
228.117	5.8
228.335	22.19
228.553	44.71
228.771	9.9
228.989	38.57
229.206	34.47
229.424	48.81
229.642	24.23
229.86	-4.44
230.077	-63.83
230.295	102.06
230.513	28.33
230.731	69.29
230.948	34.47
231.166	50.86
231.384	57
231.601	46.76
231.819	36.52
232.037	128.68
232.254	38.57
232.472	67.24
232.689	5.8
232.907	61.1
233.125	44.71
233.342	13.99
233.56	79.53
233.777	63.15
233.995	65.19
234.213	3.75
234.43	36.52
234.648	48.81
234.865	-10.58
235.083	16.04
235.3	20.14
235.518	79.53
235.735	50.86
235.953	46.76
236.17	7.85
236.388	42.67
236.605	36.52
236.822	52.91
237.04	59.05
237.257	57
237.475	63.15
237.692	28.33
237.909	59.05
238.127	28.33
238.344	24.23
238.562	-10.58
238.779	79.53
238.996	20.14
239.214	28.33
239.431	26.28
239.648	-4.44
239.865	63.15
240.083	48.81
240.3	104.11
240.517	22.19
240.735	102.06
240.952	32.43
241.169	87.72
241.386	57
241.603	20.14
241.821	46.76
242.038	40.62
242.255	54.95
242.472	54.95
242.689	24.23
242.907	73.39
243.124	40.62
243.341	-12.63
243.558	52.91
243.775	50.86
243.992	42.67
244.209	114.34
244.426	5.8
244.643	112.3
244.86	-10.58
245.078	102.06
245.295	54.95
245.512	30.38
245.729	-24.92
245.946	69.29
246.163	63.15
246.38	69.29
246.597	-24.92
246.814	52.91
247.031	77.48
247.248	48.81
247.464	85.67
247.681	102.06
247.898	36.52
248.115	30.38
248.332	85.67
248.549	79.53
248.766	40.62
248.983	5.8
249.2	11.95
249.417	118.44
249.633	-16.73
249.85	63.15
250.067	20.14
250.284	71.34
250.501	24.23
250.717	28.33
250.934	-8.53
251.151	50.86
251.368	61.1
251.585	32.43
251.801	93.87
252.018	91.82
252.235	65.19
252.451	85.67
252.668	32.43
252.885	63.15
253.102	-35.16
253.318	-12.63
253.535	-59.73
253.752	-35.16
253.968	50.86
254.185	40.62
254.401	-14.68
254.618	61.1
254.835	24.23
255.051	36.52
255.268	50.86
255.484	65.19
255.701	-8.53
255.917	85.67
256.134	73.39
256.351	87.72
256.567	-8.53
256.784	9.9
257	59.05
257.217	50.86
257.433	16.04
257.65	93.87
257.866	36.52
258.082	22.19
258.299	-6.49
258.515	73.39
258.732	46.76
258.948	44.71
259.165	-26.96
259.381	30.38
259.597	71.34
259.814	-8.53
260.03	112.3
260.246	-16.73
260.463	22.19
260.679	104.11
260.895	24.23
261.112	11.95
261.328	59.05
261.544	-2.39
261.761	42.67
261.977	65.19
262.193	34.47
262.409	61.1
262.626	40.62
262.842	46.76
263.058	52.91
263.274	79.53
263.49	40.62
263.707	36.52
263.923	48.81
264.139	-39.25
264.355	26.28
264.571	16.04
264.787	24.23
265.004	54.95
265.22	91.82
265.436	145.06
265.652	71.34
265.868	48.81
266.084	-16.73
266.3	138.92
266.516	9.9
266.732	118.44
266.948	130.73
267.164	3.75
267.38	-0.34
267.596	34.47
267.812	71.34
268.028	54.95
268.244	-16.73
268.46	77.48
268.676	54.95
268.892	87.72
269.108	59.05
269.324	48.81
269.54	28.33
269.756	69.29
269.972	13.99
270.188	69.29
270.403	48.81
270.619	130.73
270.835	116.39
271.051	40.62
271.267	81.58
271.483	65.19
271.698	11.95
271.914	30.38
272.13	20.14
272.346	65.19
272.562	48.81
272.777	20.14
272.993	48.81
273.209	-31.06
273.425	42.67
273.64	52.91
273.856	30.38
274.072	-18.77
274.287	-2.39
274.503	77.48
274.719	48.81
274.934	30.38
275.15	-8.53
275.366	83.63
275.581	13.99
275.797	9.9
276.012	36.52
276.228	112.3
276.444	-2.39
276.659	71.34
276.875	77.48
277.09	-12.63
277.306	65.19
277.521	20.14
277.737	93.87
277.952	28.33
278.168	52.91
278.383	42.67
278.599	-39.25
278.814	63.15
279.03	85.67
279.245	46.76
279.461	34.47
279.676	100.01
279.892	91.82
280.107	73.39
280.322	77.48
280.538	30.38
280.753	-33.11
280.969	-16.73
281.184	46.76
281.399	61.1
281.615	59.05
281.83	-6.49
282.045	24.23
282.26	3.75
282.476	-29.01
282.691	85.67
282.906	-4.44
283.122	30.38
283.337	-4.44
283.552	52.91
283.767	28.33
283.983	52.91
284.198	42.67
284.413	69.29
284.628	7.85
284.843	34.47
285.058	18.09
285.274	81.58
285.489	73.39
285.704	69.29
285.919	52.91
286.134	38.57
286.349	20.14
286.564	-53.59
286.779	100.01
286.995	-26.96
287.21	-8.53
287.425	32.43
287.64	11.95
287.855	85.67
288.07	16.04
288.285	-2.39
288.5	-10.58
288.715	73.39
288.93	30.38
289.145	44.71
289.36	52.91
289.575	77.48
289.79	100.01
290.004	48.81
290.219	63.15
290.434	11.95
290.649	52.91
290.864	89.77
291.079	32.43
291.294	63.15
291.509	44.71
291.724	20.14
291.938	-33.11
292.153	-2.39
292.368	22.19
292.583	67.24
292.798	40.62
293.012	97.96
293.227	30.38
293.442	-0.34
293.657	85.67
293.871	20.14
294.086	30.38
294.301	69.29
294.516	44.71
294.73	52.91
294.945	11.95
295.16	57
295.374	46.76
295.589	71.34
295.804	30.38
296.018	143.02
296.233	61.1
296.447	57
296.662	89.77
296.877	34.47
297.091	69.29
297.306	71.34
297.52	-8.53
297.735	110.25
297.949	63.15
298.164	122.54
298.378	38.57
298.593	24.23
298.807	44.71
299.022	44.71
299.236	24.23
299.451	89.77
299.665	48.81
299.88	34.47
300.094	38.57
300.309	40.62
300.523	54.95
300.737	-10.58
300.952	34.47
301.166	85.67
301.381	24.23
301.595	54.95
301.809	11.95
302.024	13.99
302.238	20.14
302.452	118.44
302.667	63.15
302.881	102.06
303.095	28.33
303.309	32.43
303.524	26.28
303.738	65.19
303.952	106.15
304.166	18.09
304.381	63.15
304.595	100.01
304.809	61.1
305.023	54.95
305.237	59.05
305.452	44.71
305.666	38.57
305.88	36.52
306.094	20.14
306.308	81.58
306.522	36.52
306.736	71.34
306.95	30.38
307.164	71.34
307.379	-39.25
307.593	118.44
307.807	61.1
308.021	63.15
308.235	48.81
308.449	54.95
308.663	-35.16
308.877	32.43
309.091	-8.53
309.305	-4.44
309.519	-14.68
309.733	61.1
309.947	28.33
310.161	61.1
310.374	13.99
310.588	26.28
310.802	95.91
311.016	95.91
311.23	65.19
311.444	13.99
311.658	61.1
311.872	79.53
312.085	40.62
312.299	79.53
312.513	42.67
312.727	73.39
312.941	-35.16
313.154	87.72
313.368	32.43
313.582	32.43
313.796	5.8
314.009	26.28
314.223	75.43
314.437	73.39
314.651	54.95
314.864	61.1
315.078	34.47
315.292	28.33
315.505	28.33
315.719	75.43
315.933	18.09
316.146	30.38
316.36	-24.92
316.573	108.2
316.787	89.77
317.001	67.24
317.214	-2.39
317.428	114.34
317.641	59.05
317.855	132.78
318.068	42.67
318.282	13.99
318.495	65.19
318.709	77.48
318.922	91.82
319.136	85.67
319.349	44.71
319.563	44.71
319.776	69.29
319.99	11.95
320.203	13.99
320.417	93.87
320.63	38.57
320.843	57
321.057	85.67
321.27	71.34
321.483	71.34
321.697	54.95
321.91	30.38
322.124	79.53
322.337	13.99
322.55	7.85
322.763	63.15
322.977	1.71
323.19	102.06
323.403	30.38
323.617	22.19
323.83	38.57
324.043	30.38
324.256	30.38
324.469	32.43
324.683	89.77
324.896	75.43
325.109	91.82
325.322	-0.34
325.535	46.76
325.748	83.63
325.962	61.1
326.175	63.15
326.388	13.99
326.601	46.76
326.814	102.06
327.027	16.04
327.24	77.48
327.453	54.95
327.666	87.72
327.879	52.91
328.092	30.38
328.305	67.24
328.518	104.11
328.731	11.95
328.944	114.34
329.157	110.25
329.37	61.1
329.583	-8.53
329.796	83.63
330.009	-14.68
330.222	46.76
330.435	95.91
330.648	7.85
330.861	61.1
331.073	63.15
331.286	5.8
331.499	63.15
331.712	1.71
331.925	32.43
332.138	5.8
332.35	110.25
332.563	22.19
332.776	46.76
332.989	22.19
333.202	36.52
333.414	95.91
333.627	54.95
333.84	-55.64
334.053	28.33
334.265	16.04
334.478	36.52
334.691	28.33
334.903	7.85
335.116	34.47
335.329	-4.44
335.541	40.62
335.754	89.77
335.966	110.25
336.179	16.04
336.392	61.1
336.604	36.52
336.817	52.91
337.029	69.29
337.242	108.2
337.454	32.43
337.667	9.9
337.88	77.48
338.092	95.91
338.305	34.47
338.517	22.19
338.729	63.15
338.942	28.33
339.154	71.34
339.367	11.95
339.579	5.8
339.792	-20.82
340.004	65.19
340.217	69.29
340.429	67.24
340.641	89.77
340.854	120.49
341.066	59.05
341.278	77.48
341.491	65.19
341.703	48.81
341.915	32.43
342.128	73.39
342.34	46.76
342.552	67.24
342.764	61.1
342.977	-4.44
343.189	-4.44
343.401	57
343.613	69.29
343.826	50.86
344.038	7.85
344.25	57
344.462	7.85
344.674	63.15
344.886	48.81
345.099	167.59
345.311	77.48
345.523	95.91
345.735	52.91
345.947	112.3
346.159	130.73
346.371	97.96
346.583	36.52
346.795	48.81
347.007	159.4
347.219	77.48
347.431	-12.63
347.643	34.47
347.855	57
348.067	61.1
348.279	52.91
348.491	24.23
348.703	181.93
348.915	30.38
349.127	48.81
349.339	44.71
349.551	79.53
349.763	71.34
349.975	-18.77
350.187	79.53
350.399	40.62
350.61	-14.68
350.822	79.53
351.034	32.43
351.246	89.77
351.458	85.67
351.669	95.91
351.881	65.19
352.093	77.48
352.305	102.06
352.517	32.43
352.728	140.97
352.94	-24.92
353.152	110.25
353.363	13.99
353.575	65.19
353.787	63.15
353.999	75.43
354.21	7.85
354.422	65.19
354.633	7.85
354.845	126.63
355.057	13.99
355.268	73.39
355.48	120.49
355.692	20.14
355.903	32.43
356.115	57
356.326	89.77
356.538	95.91
356.749	3.75
356.961	102.06
357.172	69.29
357.384	85.67
357.595	36.52
357.807	20.14
358.018	69.29
358.23	79.53
358.441	54.95
358.653	44.71
358.864	79.53
359.075	85.67
359.287	-22.87
359.498	40.62
359.709	24.23
359.921	-2.39
360.132	79.53
360.344	75.43
360.555	38.57
360.766	63.15
360.977	81.58
361.189	77.48
361.4	20.14
361.611	130.73
361.823	63.15
362.034	87.72
362.245	38.57
362.456	22.19
362.667	36.52
362.879	102.06
363.09	-10.58
363.301	46.76
363.512	22.19
363.723	54.95
363.935	102.06
364.146	83.63
364.357	40.62
364.568	54.95
364.779	61.1
364.99	69.29
365.201	30.38
365.412	116.39
365.623	44.71
365.834	11.95
366.045	110.25
366.256	67.24
366.467	18.09
366.678	11.95
366.889	26.28
367.1	42.67
367.311	46.76
367.522	77.48
367.733	28.33
367.944	61.1
368.155	57
368.366	20.14
368.577	22.19
368.788	85.67
368.999	22.19
369.209	81.58
369.42	11.95
369.631	143.02
369.842	52.91
370.053	63.15
370.264	61.1
370.474	46.76
370.685	52.91
370.896	110.25
371.107	85.67
371.317	61.1
371.528	122.54
371.739	24.23
371.95	102.06
372.16	22.19
372.371	136.87
372.582	36.52
372.792	97.96
373.003	89.77
373.214	69.29
373.424	95.91
373.635	73.39
373.846	120.49
374.056	71.34
374.267	93.87
374.477	67.24
374.688	112.3
374.898	32.43
375.109	24.23
375.319	13.99
375.53	26.28
375.74	13.99
375.951	44.71
376.161	75.43
376.372	93.87
376.582	30.38
376.793	61.1
377.003	73.39
377.214	87.72
377.424	44.71
377.635	42.67
377.845	32.43
378.055	57
378.266	77.48
378.476	42.67
378.686	89.77
378.897	61.1
379.107	87.72
379.317	65.19
379.528	24.23
379.738	73.39
379.948	81.58
380.158	65.19
380.369	59.05
380.579	48.81
380.789	112.3
380.999	100.01
381.21	61.1
381.42	159.4
381.63	108.2
381.84	118.44
382.05	75.43
382.261	42.67
382.471	34.47
382.681	50.86
382.891	44.71
383.101	38.57
383.311	93.87
383.521	65.19
383.731	110.25
383.941	24.23
384.151	69.29
384.361	93.87
384.571	63.15
384.781	81.58
384.991	89.77
385.201	145.06
385.411	44.71
385.621	61.1
385.831	77.48
386.041	93.87
386.251	57
386.461	75.43
386.671	24.23
386.881	124.58
387.091	122.54
387.301	93.87
387.511	102.06
387.72	69.29
387.93	40.62
388.14	36.52
388.35	63.15
388.56	63.15
388.769	93.87
388.979	44.71
389.189	36.52
389.399	95.91
389.609	124.58
389.818	100.01
390.028	102.06
390.238	102.06
390.447	79.53
390.657	134.82
390.867	40.62
391.076	118.44
391.286	32.43
391.496	110.25
391.705	38.57
391.915	85.67
392.125	85.67
392.334	63.15
392.544	73.39
392.753	118.44
392.963	108.2
393.172	97.96
393.382	75.43
393.591	100.01
393.801	57
394.01	112.3
394.22	112.3
394.429	61.1
394.639	118.44
394.848	77.48
395.058	138.92
395.267	110.25
395.477	102.06
395.686	120.49
395.895	118.44
396.105	100.01
396.314	116.39
396.524	77.48
396.733	57
396.942	102.06
397.152	151.21
397.361	87.72
397.57	138.92
397.78	134.82
397.989	183.98
398.198	110.25
398.407	118.44
398.617	120.49
398.826	97.96
399.035	167.59
399.244	110.25
399.453	122.54
399.663	108.2
399.872	97.96
400.081	106.15
400.29	93.87
400.499	118.44
400.708	34.47
400.917	120.49
401.127	65.19
401.336	167.59
401.545	143.02
401.754	202.41
401.963	196.26
402.172	136.87
402.381	169.64
402.59	153.26
402.799	112.3
403.008	175.78
403.217	161.45
403.426	163.5
403.635	138.92
403.844	220.84
404.053	124.58
404.262	229.03
404.471	210.6
404.68	214.7
404.888	136.87
405.097	114.34
405.306	165.54
405.515	159.4
405.724	241.32
405.933	118.44
406.142	204.46
406.35	233.13
406.559	222.89
406.768	247.46
406.977	249.51
407.185	239.27
407.394	218.79
407.603	216.74
407.812	315.05
408.02	298.66
408.229	218.79
408.438	263.85
408.646	212.65
408.855	249.51
409.064	294.57
409.272	282.28
409.481	274.09
409.69	380.58
409.898	376.48
410.107	327.33
410.315	315.05
410.524	370.34
410.733	308.9
410.941	409.25
411.15	399.01
411.358	317.09
411.567	380.58
411.775	419.49
411.984	396.96
412.192	464.55
412.401	497.32
412.609	468.64
412.818	501.41
413.026	536.23
413.234	622.24
413.443	601.76
413.651	513.7
413.86	626.34
414.068	642.72
414.276	628.39
414.485	677.54
414.693	659.1
414.901	634.53
415.11	732.83
415.318	698.02
415.526	716.45
415.734	831.13
415.943	857.76
416.151	990.88
416.359	874.14
416.567	962.2
416.776	1011.36
416.984	1062.55
417.192	970.4
417.4	1046.17
417.608	994.97
417.817	1121.95
418.025	1175.19
418.233	1210.01
418.441	1285.78
418.649	1275.54
418.857	1359.51
419.065	1246.87
419.273	1425.04
419.481	1445.52
419.689	1466
419.897	1541.78
420.105	1627.79
420.313	1717.9
420.521	1687.18
420.729	1660.56
420.937	1767.06
421.145	1920.65
421.353	1994.38
421.561	1965.71
421.769	2111.11
421.977	2170.51
422.185	2186.89
422.393	2391.69
422.601	2426.5
422.809	2322.06
423.017	2453.13
423.224	2561.67
423.432	2715.27
423.64	2676.35
423.848	2862.72
424.056	2915.97
424.263	2913.92
424.471	3114.62
424.679	3149.43
424.887	3337.85
425.094	3389.05
425.302	3380.86
425.51	3423.86
425.718	3634.8
425.925	3694.19
426.133	3724.91
426.341	3931.76
426.548	4144.75
426.756	4247.15
426.964	4253.29
427.171	4468.33
427.379	4617.83
427.586	4607.59
427.794	4714.08
428.001	4949.6
428.209	5066.33
428.417	5076.57
428.624	5410.39
428.832	5490.26
429.039	5502.55
429.247	5465.69
429.454	6129.23
429.662	6301.26
429.869	6002.26
430.076	6426.18
430.284	6159.95
430.491	6377.03
430.699	6749.76
430.906	6913.6
431.114	6987.33
431.321	7108.16
431.528	7358.01
431.736	7851.57
431.943	8117.81
432.15	7773.75
432.358	8123.95
432.565	8519.21
432.772	8304.17
432.979	8887.84
433.187	9115.17
433.394	9094.69
433.601	9688.6
433.808	9567.77
434.016	9604.63
434.223	10010.13
434.43	10595.85
434.637	10577.42
434.844	10796.55
435.052	11171.33
435.259	11236.86
435.466	11152.9
435.673	11204.1
435.88	11869.69
436.087	12449.26
436.294	12348.91
436.501	12117.49
436.708	12594.67
436.915	13084.13
437.122	13520.35
437.329	13426.14
437.537	13671.9
437.743	14296.53
437.95	14001.62
438.157	14802.38
438.364	15150.53
438.571	14890.44
438.778	15234.5
438.985	16680.36
439.192	15586.75
439.399	16332.21
439.606	16151.99
439.813	16956.84
440.02	17964.44
440.227	17845.66
440.433	17395.11
440.64	18206.1
440.847	18165.14
441.054	18535.82
441.261	19678.59
441.467	19572.1
441.674	19946.87
441.881	20727.15
442.088	20426.1
442.294	20442.48
442.501	20714.86
442.708	21187.94
442.914	22060.38
443.121	23106.89
443.328	22549.84
443.534	23747.9
443.741	23244.1
443.948	22893.9
444.154	24950.06
444.361	24409.4
444.568	24851.76
444.774	24583.48
444.981	24646.96
445.187	25627.94
445.394	26955.02
445.6	26236.19
445.807	28972.27
446.013	27620.61
446.22	28112.13
446.426	29187.31
446.633	29713.64
446.839	30375.13
447.046	29279.47
447.252	31012.05
447.459	30981.33
447.665	30512.35
447.871	31843.52
448.078	33311.92
448.284	31950.02
448.491	32773.3
448.697	34165.92
448.903	34444.45
449.11	34655.39
449.316	34319.52
449.522	34692.25
449.728	35589.26
449.935	35755.15
450.141	35826.82
450.347	36590.72
450.553	35708.04
450.76	35996.81
450.966	37215.35
451.172	36574.33
451.378	37649.52
451.584	36850.81
451.791	37837.93
451.997	37461.1
452.203	38124.64
452.409	38569.05
452.615	38149.22
452.821	36729.98
453.027	36134.02
453.233	37760.11
453.44	36590.72
453.646	37106.8
453.852	37225.59
454.058	37676.14
454.264	36576.38
454.47	37534.83
454.676	36365.44
454.882	37833.83
455.088	34448.54
455.294	34751.64
455.5	35275.92
455.705	36076.68
455.911	34352.29
456.117	33711.27
456.323	33123.51
456.529	31806.66
456.735	33166.51
456.941	31710.41
457.147	31630.54
457.352	30321.88
457.558	30141.66
457.764	30244.06
457.97	29623.53
458.176	29242.6
458.381	29117.68
458.587	27563.27
458.793	27979.01
458.999	26273.05
459.204	28425.46
459.41	27370.76
459.616	25378.09
459.821	25625.89
460.027	25353.51
460.233	25027.88
460.438	23770.43
460.644	24255.8
460.85	22902.09
461.055	22582.61
461.261	22469.97
461.466	20858.22
461.672	19942.78
461.878	21349.73
462.083	20561.26
462.289	19901.82
462.494	19737.98
462.7	18908.55
462.905	18251.16
463.111	18939.27
463.316	19109.26
463.522	18417.04
463.727	18554.26
463.932	18611.6
464.138	18025.88
464.343	18525.58
464.549	17952.15
464.754	18595.21
464.959	18032.02
465.165	18222.48
465.37	17712.54
465.575	17087.91
465.781	17421.73
465.986	17661.34
466.191	17317.28
466.397	16856.49
466.602	16004.53
466.807	16764.33
467.012	16498.09
467.218	16571.82
467.423	16301.49
467.628	16442.8
467.833	17182.12
468.038	16553.39
468.244	15996.34
468.449	16440.75
468.654	16281.01
468.859	16047.54
469.064	15863.22
469.269	15445.44
469.474	15297.99
469.679	15721.91
469.885	15234.5
470.09	15224.26
470.295	15490.49
470.5	14751.18
470.705	15080.9
470.91	14798.28
471.115	14478.8
471.32	14847.43
471.525	14859.72
471.73	14532.04
471.935	14525.9
472.139	13878.74
472.344	13891.03
472.549	13555.16
472.754	13858.26
472.959	13463.01
473.164	13170.15
473.369	12813.8
473.574	13456.86
473.778	13381.09
473.983	13211.11
474.188	12862.95
474.393	12512.75
474.598	12406.25
474.802	12441.07
475.007	12340.72
475.212	12529.13
475.417	12029.43
475.621	11748.86
475.826	11976.18
476.031	11867.64
476.235	11521.53
476.44	11603.45
476.645	11433.47
476.849	11456
477.054	11408.89
477.259	11259.39
477.463	11054.59
477.668	10767.88
477.872	11019.78
478.077	10909.19
478.282	10302.99
478.486	10647.05
478.691	10374.67
478.895	10280.46
479.1	10327.57
479.304	10259.98
479.509	10040.85
479.713	10012.18
479.918	10155.54
480.122	10098.19
480.326	10196.5
480.531	10001.94
480.735	9616.92
480.94	9690.65
481.144	10178.06
481.348	9674.26
481.553	9690.65
481.757	9526.81
481.961	9653.78
482.166	9899.54
482.37	9604.63
482.574	9657.88
482.778	9608.73
482.983	9848.34
483.187	9813.52
483.391	9491.99
483.595	9426.46
483.8	9393.69
484.004	9702.93
484.208	9557.53
484.412	9512.47
484.616	9666.07
484.821	9563.67
485.025	9485.85
485.229	9455.13
485.433	9522.71
485.637	9502.23
485.841	9436.7
486.045	9463.32
486.249	9565.72
486.453	9391.64
486.657	9672.22
486.861	9573.91
487.065	9344.54
487.269	9475.61
487.473	9535
487.677	9469.47
487.881	9729.56
488.085	9584.15
488.289	9541.15
488.493	9754.13
488.697	9588.25
488.901	9498.14
489.105	9821.72
489.309	9623.06
489.512	9637.4
489.716	9659.93
489.92	9649.69
490.124	9590.3
490.328	9684.5
490.531	9803.29
490.735	9678.36
490.939	9719.32
491.143	9668.12
491.346	9776.66
491.55	10022.42
491.754	9844.24
491.958	10040.85
492.161	9883.16
492.365	10087.95
492.569	9899.54
492.772	10053.14
492.976	10221.07
493.18	10145.3
493.383	10448.4
493.587	10409.48
493.79	10487.31
493.994	10309.13
494.197	10647.05
494.401	10575.37
494.605	10608.14
494.808	10645
495.012	10747.4
495.215	10907.14
495.419	11015.68
495.622	10778.12
495.825	11007.49
496.029	11156.99
496.232	11210.24
496.436	11128.32
496.639	11748.86
496.843	11578.87
497.046	11638.27
497.249	11935.22
497.453	11726.33
497.656	11922.93
497.859	11937.27
498.063	12148.21
498.266	12310
498.469	12187.12
498.673	12752.36
498.876	12830.18
499.079	12969.44
499.282	12926.44
499.485	13147.62
499.689	13215.2
499.892	13383.13
500.095	13372.89
500.298	13780.44
500.501	13649.37
500.705	14120.4
500.908	14235.09
501.111	14202.32
501.314	14661.07
501.517	14763.47
501.72	14990.79
501.923	14724.55
502.126	15224.26
502.329	15572.41
502.532	15396.29
502.735	15429.06
502.938	15863.22
503.141	16104.88
503.344	16346.55
503.547	16164.28
503.75	16629.16
503.953	16797.1
504.156	16922.02
504.359	16901.54
504.562	17288.61
504.765	17765.79
504.968	17829.27
505.17	17866.14
505.373	18161.05
505.576	18544.02
505.779	18675.09
505.982	18537.87
506.185	19189.13
506.387	18978.19
506.59	19479.94
506.793	19768.7
506.996	19897.72
507.198	20379
507.401	19830.14
507.604	20290.93
507.807	20768.11
508.009	20815.21
508.212	20972.91
508.415	21253.48
508.617	21538.15
508.82	21937.5
509.022	21646.69
509.225	22510.93
509.428	22439.25
509.63	22887.76
509.833	22906.19
510.035	23405.89
510.238	23481.67
510.44	23940.41
510.643	24182.07
510.845	24343.86
511.048	24190.27
511.25	24909.1
511.453	24759.6
511.655	25976.09
511.858	25648.42
512.06	25677.09
512.262	26017.05
512.465	26209.56
512.667	26705.17
512.87	26690.84
513.072	26926.35
513.274	27391.24
513.477	28030.21
513.679	28044.54
513.881	28327.16
514.084	28495.1
514.286	28456.18
514.488	29129.97
514.69	29596.9
514.893	29715.69
515.095	30004.45
515.297	30434.52
515.499	30543.06
515.701	30846.16
515.904	31313.1
516.106	31601.86
516.308	31939.78
516.51	32419
516.712	32351.42
516.914	32660.66
517.116	33227.95
517.318	33412.27
517.52	33440.94
517.722	33649.83
517.925	34466.97
518.127	34639
518.329	35011.73
518.531	34862.23
518.733	35628.17
518.935	35961.99
519.136	35978.37
519.338	36258.95
519.54	36512.89
519.742	36519.04
519.944	37250.16
520.146	37852.27
520.348	37692.52
520.55	38417.5
520.752	38300.77
520.954	39146.58
521.155	38759.52
521.357	39382.1
521.559	39834.7
521.761	40246.34
521.963	40047.69
522.164	40467.52
522.366	40553.54
522.568	41043
522.77	41241.65
522.971	41718.83
523.173	41526.32
523.375	42359.84
523.576	42036.27
523.778	42509.35
523.98	42869.79
524.181	43312.15
524.383	43191.32
524.584	43854.86
524.786	44080.14
524.988	43451.41
525.189	43834.38
525.391	44528.64
525.592	44598.27
525.794	44905.47
525.995	44739.58
526.197	45073.4
526.398	45710.32
526.6	45593.59
526.801	45935.6
527.003	46029.8
527.204	46160.87
527.406	46576.61
527.607	46298.09
527.808	47004.64
528.01	46353.38
528.211	46752.74
528.412	47621.08
528.614	47066.08
528.815	47092.7
529.016	47813.59
529.218	47420.38
529.419	47850.45
529.62	47860.69
529.822	47528.92
530.023	48040.91
530.224	47893.46
530.425	48128.97
530.626	47664.08
530.828	47387.61
531.029	48978.88
531.23	48010.19
531.431	48409.54
531.632	48395.21
531.833	48696.26
532.035	48032.72
532.236	48450.5
532.437	48890.82
532.638	48593.86
532.839	48856
533.04	49357.75
533.241	48366.54
533.442	49402.81
533.643	48780.23
533.844	48812.99
534.045	49320.89
534.246	48655.3
534.447	49060.8
534.648	48868.29
534.849	49583.03
535.05	48620.48
535.251	49173.44
535.451	48847.81
535.652	49259.45
535.853	48935.87
536.054	49349.56
536.255	49806.26
536.456	48673.73
536.657	49787.83
536.857	49062.85
537.058	48831.43
537.259	49118.14
537.46	49386.43
537.66	49077.18
537.861	49558.45
538.062	49193.92
538.263	49179.58
538.463	48972.74
538.664	49056.7
538.865	49060.8
539.065	49472.44
539.266	48976.83
539.466	49382.33
539.667	48348.1
539.868	49617.85
540.068	49447.86
540.269	48958.4
540.469	49394.62
540.67	48886.72
540.87	49044.41
541.071	49066.94
541.271	49152.96
541.472	49079.23
541.672	49126.33
541.873	49007.55
542.073	48389.06
542.274	49202.11
542.474	49103.81
542.675	48763.84
542.875	49103.81
543.075	48847.81
543.276	48448.46
543.476	49322.94
543.676	48489.41
543.877	49273.79
544.077	48673.73
544.277	48739.27
544.478	48653.25
544.678	49482.68
544.878	48901.06
545.078	48860.1
545.279	48456.65
545.479	48675.78
545.679	48710.6
545.879	48677.83
546.079	48542.66
546.28	48993.22
546.48	48649.16
546.68	49185.72
546.88	48432.07
547.08	48724.93
547.28	48579.53
547.48	48452.55
547.68	48550.85
547.88	48399.3
548.081	49021.89
548.281	48602.05
548.481	48786.37
548.681	49128.38
548.881	49122.24
549.081	48335.82
549.28	48557
549.48	48837.57
549.68	48427.98
549.88	49134.52
550.08	48604.1
550.28	48769.99
550.48	48403.4
550.68	49122.24
550.88	48272.33
551.08	48937.92
551.279	48673.73
551.479	48731.08
551.679	48495.56
551.879	48432.07
552.079	48600.01
552.278	48468.94
552.478	48528.33
552.678	48600.01
552.878	48497.61
553.077	48333.77
553.277	48268.23
553.477	48698.31
553.676	48333.77
553.876	48432.07
554.076	48004.05
554.275	48225.23
554.475	47809.49
554.674	48051.15
554.874	48155.6
555.074	48278.47
555.273	48053.2
555.473	48317.39
555.672	47801.3
555.872	47487.96
556.071	48200.65
556.271	48253.9
556.47	47719.38
556.67	47047.64
556.869	47600.6
557.068	47748.05
557.268	47416.28
557.467	47487.96
557.667	47594.45
557.866	47434.71
558.065	47401.94
558.265	47086.56
558.464	47432.66
558.663	47573.97
558.863	46599.14
559.062	47494.1
559.261	46879.71
559.461	47559.64
559.66	46683.11
559.859	46801.89
560.058	46287.85
560.258	46803.94
560.457	45982.7
560.656	46959.58
560.855	46599.14
561.054	46992.35
561.253	46130.15
561.453	46613.48
561.652	46455.78
561.851	46472.17
562.05	45999.08
562.249	46212.07
562.448	46423.01
562.647	46167.02
562.846	45945.84
563.045	46011.37
563.244	45734.9
563.443	46154.73
563.642	45292.54
563.841	45526
564.04	45530.1
564.239	46070.76
564.438	45132.79
564.637	45284.34
564.836	45431.8
565.035	45333.49
565.234	45685.75
565.432	45192.19
565.631	45245.43
565.83	45394.93
566.029	44706.82
566.228	44628.99
566.427	44510.21
566.625	44252.17
566.824	43719.7
567.023	44596.23
567.222	44059.66
567.42	44393.48
567.619	44117
567.818	43830.29
568.016	43797.52
568.215	44672
568.414	43688.98
568.612	44385.29
568.811	43951.12
569.01	43705.36
569.208	43105.3
569.407	43410.45
569.605	42699.81
569.804	43314.2
570.002	42978.33
570.201	43174.94
570.4	42581.02
570.598	42642.46
570.797	42269.73
570.995	42601.5
571.193	42114.09
571.392	42910.75
571.59	42480.67
571.789	42454.05
571.987	41870.38
572.186	42351.65
572.384	41765.93
572.582	41991.21
572.781	41894.96
572.979	41362.48
573.177	41802.8
573.376	41720.88
573.574	41120.82
573.772	41507.89
573.971	41004.09
574.169	40922.17
574.367	40731.71
574.565	41006.14
574.763	40393.79
574.962	40813.63
575.16	39900.23
575.358	40842.3
575.556	40102.98
575.754	40301.64
575.952	39640.14
576.151	39951.43
576.349	39625.81
576.547	39666.77
576.745	39920.71
576.943	39453.78
577.141	39738.44
577.339	39597.13
577.537	39388.24
577.735	39361.62
577.933	38954.07
578.131	39111.77
578.329	38900.83
578.527	38511.71
578.725	38337.63
578.923	38456.42
579.121	38493.28
579.319	38257.76
579.516	38700.12
579.714	38012.01
579.912	38345.83
580.11	37651.56
580.308	38093.93
580.506	37874.79
580.704	37121.14
580.901	37713
581.099	37579.89
581.297	37469.29
581.495	37149.81
581.692	37506.16
581.89	36856.95
582.088	37125.24
582.285	36906.1
582.483	36826.23
582.681	36625.53
582.878	36463.74
583.076	36353.15
583.274	36492.41
583.471	35806.34
583.669	36369.54
583.866	35873.93
584.064	36310.14
584.262	35591.31
584.459	36082.82
584.657	35503.24
584.854	35734.67
585.052	35005.59
585.249	35456.14
585.447	35591.31
585.644	35038.36
585.841	35249.3
586.039	35298.45
586.236	34581.66
586.434	34466.97
586.631	34669.72
586.828	34788.5
587.026	34466.97
587.223	34731.16
587.42	34274.46
587.618	34149.54
587.815	33617.07
588.012	33782.95
588.21	33918.12
588.407	34094.24
588.604	33502.38
588.801	33574.06
588.999	33954.98
589.196	33602.73
589.393	33182.9
589.59	33082.55
589.787	33262.77
589.984	33074.35
590.182	32679.1
590.379	33070.26
590.576	32593.08
590.773	32775.35
590.97	32652.47
591.167	32494.78
591.364	31974.59
591.561	32238.78
591.758	31997.12
591.955	32015.55
592.152	32169.15
592.349	31763.65
592.546	32117.95
592.743	31792.33
592.94	31661.26
593.137	31835.33
593.334	31743.17
593.531	31374.54
593.727	31485.13
593.924	31509.71
594.121	30809.3
594.318	31177.93
594.515	30571.74
594.712	30835.92
594.908	30846.16
595.105	30999.76
595.302	30461.15
595.499	30813.4
595.696	30530.78
595.892	30459.1
596.089	30459.1
596.286	30563.54
596.482	30282.97
596.679	29916.39
596.876	30184.67
597.072	29795.56
597.269	30037.22
597.466	29623.53
597.662	29897.95
597.859	29488.36
598.055	29594.86
598.252	29156.59
598.448	29269.23
598.645	29142.25
598.841	28968.18
599.038	29086.96
599.234	29099.25
599.431	28628.21
599.627	28689.65
599.824	28916.98
600.02	28427.51
600.217	28777.72
600.413	28622.07
600.609	28112.13
600.806	28257.53
601.002	28179.71
601.198	28087.55
601.395	27974.91
601.591	27766.02
601.787	27925.76
601.984	27837.7
602.18	27790.59
602.376	27733.25
602.572	27563.27
602.769	27161.87
602.965	27346.19
603.161	27190.54
603.357	26885.39
603.553	26819.86
603.75	26674.45
603.946	26688.79
604.142	26637.59
604.338	26418.46
604.534	26627.35
604.73	26096.92
604.926	26275.1
605.122	26574.1
605.318	26166.56
605.514	26053.92
605.71	25961.76
605.906	25804.06
606.102	25974.05
606.298	26045.73
606.494	25789.73
606.69	25894.18
606.886	25941.28
607.082	25601.32
607.278	25799.97
607.474	24818.99
607.67	25513.25
607.866	25038.12
608.062	25333.03
608.257	25103.66
608.453	25279.78
608.649	25148.71
608.845	24786.22
609.041	24997.17
609.236	25007.41
609.432	24829.23
609.628	24692.02
609.824	24538.42
610.019	24266.04
610.215	24458.55
610.411	24937.77
610.606	24237.37
610.802	24272.18
610.998	24235.32
611.193	24474.93
611.389	23858.49
611.584	23766.34
611.78	24036.67
611.976	24042.81
612.171	23821.63
612.367	23876.93
612.562	23706.94
612.758	23348.55
612.953	23369.03
613.149	23838.01
613.344	23582.02
613.539	23692.61
613.735	23326.02
613.93	23262.54
614.126	23358.79
614.321	23534.92
614.517	23035.21
614.712	23020.88
614.907	23061.83
615.103	23498.05
615.298	22668.62
615.493	23131.47
615.688	22703.44
615.884	22981.96
616.079	22746.45
616.274	22439.25
616.47	22494.55
616.665	22801.74
616.86	22682.96
617.055	22607.19
617.25	22326.61
617.445	22369.62
617.641	21935.45
617.836	22326.61
618.031	22027.61
618.226	22033.75
618.421	21695.84
618.616	22109.53
618.811	21923.16
619.006	21857.63
619.201	21554.53
619.396	21794.14
619.591	21290.34
619.786	21495.14
619.981	21282.15
620.176	21331.3
620.371	20864.36
620.566	21112.17
620.761	21091.69
620.956	21230.95
621.151	20686.19
621.346	20987.24
621.541	20647.28
621.735	20997.48
621.93	19946.87
622.125	20278.65
622.32	20086.14
622.515	19903.87
622.709	19733.89
622.904	19877.24
623.099	19697.02
623.294	19791.23
623.488	19619.2
623.683	19993.98
623.878	19309.96
624.072	19287.43
624.267	19322.24
624.462	19117.45
624.656	18902.41
624.851	18914.7
625.046	18703.76
625.24	18650.51
625.435	18322.84
625.629	18496.91
625.824	18068.89
626.018	18318.74
626.213	17948.06
626.407	18058.65
626.602	17735.07
626.796	17868.19
626.991	17917.34
627.185	17558.94
627.38	17569.18
627.574	17391.01
627.768	17368.48
627.963	17362.34
628.157	17182.12
628.352	17159.59
628.546	17001.9
628.74	16956.84
628.935	16563.63
629.129	17038.76
629.323	16680.36
629.517	16467.38
629.712	16571.82
629.906	16362.93
630.1	16127.41
630.294	16143.8
630.489	16203.19
630.683	16059.83
630.877	15771.07
631.071	15797.69
631.265	15734.2
631.459	15625.66
631.653	15807.93
631.848	15584.7
632.042	15527.36
632.236	15541.69
632.43	15156.68
632.624	15257.03
632.818	15060.42
633.012	15074.76
633.206	15041.99
633.4	15039.94
633.594	14675.4
633.788	14960.07
633.982	14800.33
634.176	14542.28
634.369	14573
634.563	14446.03
634.757	14480.85
634.951	14568.91
635.145	14243.28
635.339	14364.11
635.533	13970.9
635.726	14419.41
635.92	14009.81
636.114	14052.82
636.308	13934.04
636.501	14042.58
636.695	13680.09
636.889	13770.2
637.083	13454.81
637.276	13387.23
637.47	13405.66
637.664	13319.65
637.857	13217.25
638.051	13086.18
638.244	13143.52
638.438	13127.14
638.632	12977.64
638.825	12844.52
639.019	12987.88
639.212	12711.4
639.406	12594.67
639.599	12703.21
639.793	12725.74
639.986	12510.7
640.18	12381.68
640.373	12334.57
640.567	12258.8
640.76	12146.16
640.954	12187.12
641.147	12187.12
641.34	11924.98
641.534	11947.51
641.727	11900.41
641.92	11818.49
642.114	11765.24
642.307	11681.27
642.5	11619.83
642.694	11286.01
642.887	11386.36
643.08	11326.97
643.273	11408.89
643.467	11421.18
643.66	11200
643.853	11060.74
644.046	10968.58
644.239	11058.69
644.432	10907.14
644.626	10905.09
644.819	10845.7
645.012	10956.29
645.205	10921.48
645.398	10636.81
645.591	10655.24
645.784	10550.79
645.977	10636.81
646.17	10556.94
646.363	10323.47
646.556	10108.43
646.749	10028.56
646.942	10155.54
647.135	10227.21
647.328	10090
647.521	9858.58
647.714	9928.21
647.907	9924.12
648.099	9905.68
648.292	9776.66
648.485	9809.43
648.678	9604.63
648.871	9606.68
649.064	9621.02
649.256	9592.34
649.449	9369.12
649.642	9506.33
649.835	9391.64
650.027	9319.96
650.22	9217.57
650.413	9203.23
650.605	9227.81
650.798	8906.27
650.991	8887.84
651.183	8797.73
651.376	9000.48
651.568	8775.2
651.761	8640.04
651.954	8711.72
652.146	8693.29
652.339	8881.7
652.531	8621.61
652.724	8406.57
652.916	8277.55
653.109	8533.54
653.301	8398.38
653.494	8351.28
653.686	8058.42
653.879	8238.64
654.071	8066.61
654.263	8185.39
654.456	8310.32
654.648	8085.04
654.84	8087.09
655.033	7908.91
655.225	7867.95
655.417	7896.63
655.61	7747.12
655.802	7820.85
655.994	7759.41
656.186	7702.07
656.379	7749.17
656.571	7833.14
656.763	7626.29
656.955	7527.99
657.148	7515.7
657.34	7310.91
657.532	7274.04
657.724	7351.87
657.916	7454.26
658.108	7360.06
658.3	7360.06
658.492	7196.22
658.684	7151.17
658.876	7085.63
659.068	7003.71
659.26	7050.82
659.452	6991.42
659.644	7003.71
659.836	6911.55
660.028	6929.98
660.22	6610.5
660.412	6952.51
660.604	6837.83
660.796	6786.63
660.988	6614.6
661.18	6497.86
661.372	6397.51
661.563	6450.76
661.755	6358.6
661.947	6702.66
662.139	6356.55
662.331	6311.5
662.522	6258.25
662.714	6282.83
662.906	6288.97
663.097	6141.52
663.289	6188.62
663.481	6174.28
663.673	6264.4
663.864	5893.71
664.056	6043.21
664.247	5955.15
664.439	5873.23
664.631	5944.91
664.822	6012.49
665.014	5830.23
665.205	5822.03
665.397	5733.97
665.588	5828.18
665.78	5547.61
665.971	5568.09
666.163	5705.3
666.354	5713.49
666.546	5631.57
666.737	5604.95
666.929	5381.72
667.12	5615.19
667.311	5471.83
667.503	5475.93
667.694	5303.9
667.885	5348.95
668.077	5510.74
668.268	5336.67
668.459	5219.93
668.651	5287.51
668.842	5238.36
669.033	5201.5
669.224	5008.99
669.416	5346.91
669.607	5138.01
669.798	5103.2
669.989	5305.95
670.18	5144.16
670.371	5052
670.563	5115.48
670.754	4994.65
670.945	5047.9
671.136	4925.02
671.327	5074.53
671.518	4781.67
671.709	4765.28
671.9	4832.86
672.091	4890.21
672.282	4836.96
672.473	4920.93
672.664	4882.02
672.855	4804.19
673.046	4691.56
673.237	4744.8
673.428	4769.38
673.619	4816.48
673.809	4681.32
674	4646.5
674.191	4546.15
674.382	4605.54
674.573	4525.67
674.764	4451.94
674.954	4587.11
675.145	4431.46
675.336	4525.67
675.527	4417.13
675.717	4417.13
675.908	4343.4
676.099	4527.72
676.289	4384.36
676.48	4267.63
676.671	4343.4
676.861	4337.26
677.052	4222.57
677.243	4343.4
677.433	4339.3
677.624	4294.25
677.814	4214.38
678.005	4181.61
678.195	4218.47
678.386	4279.91
678.576	4159.08
678.767	4042.35
678.957	4204.14
679.148	4032.11
679.338	4093.55
679.529	4132.46
679.719	4001.39
679.909	4130.41
680.1	4183.66
680.29	4025.97
680.481	3935.85
680.671	4019.82
680.861	4028.01
681.052	4017.77
681.242	3907.18
681.432	3903.09
681.622	3825.26
681.813	3964.53
682.003	3886.7
682.193	3884.66
682.383	3878.51
682.573	3864.18
682.764	3927.66
682.954	3876.46
683.144	3921.52
683.334	3757.68
683.524	3894.9
683.714	3853.94
683.904	3792.5
684.094	3716.72
684.284	3776.11
684.474	3739.25
684.664	3698.29
684.854	3704.43
685.044	3708.53
685.234	3735.15
685.424	3653.23
685.614	3741.3
685.804	3798.64
685.994	3792.5
686.184	3602.04
686.374	3696.24
686.564	3569.27
686.753	3604.08
686.943	3628.66
687.133	3677.81
687.323	3606.13
687.513	3704.43
687.702	3659.38
687.892	3487.35
688.082	3552.88
688.272	3657.33
688.461	3544.69
688.651	3505.78
688.841	3501.69
689.03	3427.96
689.22	3587.7
689.41	3528.31
689.599	3679.86
689.789	3612.28
689.979	3550.84
690.168	3532.4
690.358	3415.67
690.547	3448.44
690.737	3397.24
690.926	3456.63
691.116	3350.14
691.305	3387
691.495	3509.88
691.684	3454.58
691.874	3434.1
692.063	3397.24
692.252	3522.16
692.442	3401.33
692.631	3356.28
692.82	3331.7
693.01	3356.28
693.199	3255.93
693.388	3382.9
693.578	3430.01
693.767	3507.83
693.956	3217.02
694.146	3395.19
694.335	3313.27
694.524	3268.22
694.713	3423.86
694.902	3264.12
695.092	3341.94
695.281	3190.39
695.47	3249.79
695.659	3364.47
695.848	3456.63
696.037	3348.09
696.226	3303.03
696.415	3159.67
696.604	3276.41
696.793	3315.32
696.982	3206.78
697.171	3247.74
697.36	3358.33
697.549	3282.55
697.738	3294.84
697.927	3167.87
698.116	3362.42
698.305	3186.3
698.494	3321.46
698.683	3151.48
698.872	3165.82
699.061	3155.58
699.25	3235.45
699.438	3077.76
699.627	3106.43
699.816	3300.98
700.005	3149.43
700.193	3219.07
700.382	3231.35
700.571	3176.06
700.76	3274.36
700.948	3034.75
701.137	3147.39
701.326	3124.86
701.514	3131
701.703	3174.01
701.892	3042.94
702.08	3120.76
702.269	3247.74
702.457	3190.39
702.646	2928.25
702.834	3092.09
703.023	3118.72
703.212	2956.93
703.4	3137.15
703.589	3028.6
703.777	3001.98
703.965	3012.22
704.154	3026.56
704.342	3006.08
704.531	2969.21
704.719	2958.97
704.907	3059.32
705.096	2989.69
705.284	2965.12
705.472	2954.88
705.661	2852.48
705.849	3018.36
706.037	2997.88
706.226	2942.59
706.414	2961.02
706.602	2821.76
706.79	2877.05
706.979	2862.72
707.167	2887.29
707.355	2875.01
707.543	2848.38
707.731	2733.7
707.919	2784.9
708.107	2735.74
708.296	2791.04
708.484	2731.65
708.672	2846.34
708.86	2840.19
709.048	2803.33
709.236	2852.48
709.424	2872.96
709.612	2864.77
709.8	2758.27
709.988	2764.42
710.176	2793.09
710.364	2700.93
710.551	2698.88
710.739	2623.11
710.927	2686.59
711.115	2635.39
711.303	2721.41
711.491	2690.69
711.679	2682.5
711.866	2578.05
712.054	2647.68
712.242	2576
712.43	2731.65
712.617	2717.31
712.805	2627.2
712.993	2657.92
713.181	2508.42
713.368	2582.15
713.556	2598.53
713.744	2549.38
713.931	2578.05
714.119	2545.28
714.306	2569.86
714.494	2535.04
714.682	2440.84
714.869	2412.17
715.057	2576
715.244	2487.94
715.432	2506.37
715.619	2430.6
715.807	2418.31
715.994	2467.46
716.182	2436.74
716.369	2440.84
716.556	2414.21
716.744	2502.28
716.931	2442.89
717.119	2459.27
717.306	2277
717.493	2354.82
717.681	2227.85
717.868	2322.06
718.055	2363.01
718.242	2272.9
718.43	2303.62
718.617	2254.47
718.804	2293.38
718.991	2215.56
719.179	2260.62
719.366	2317.96
719.553	2143.88
719.74	2227.85
719.927	2158.22
720.114	2195.08
720.301	2111.11
720.488	2176.65
720.676	2051.72
720.863	2205.32
721.05	2123.4
721.237	2084.49
721.424	2193.03
721.611	2205.32
721.798	2127.5
721.985	2090.63
722.172	2131.59
722.358	2045.58
722.545	2190.99
722.732	2104.97
722.919	2119.31
723.106	2023.05
723.293	1990.28
723.48	2076.3
723.667	2000.52
723.853	2064.01
724.04	2018.96
724.227	1982.09
724.414	2006.67
724.6	2061.96
724.787	1994.38
724.974	2014.86
725.161	1973.9
725.347	1914.51
725.534	1957.52
725.72	2068.11
725.907	1955.47
726.094	1939.09
726.28	1898.13
726.467	1879.69
726.653	1918.61
726.84	1775.25
727.027	1867.41
727.213	1998.48
727.4	1844.88
727.586	1861.26
727.773	1871.5
727.959	1953.42
728.145	1830.54
728.332	1951.37
728.518	1877.65
728.705	1810.06
728.891	1787.54
729.077	1844.88
729.264	1865.36
729.45	1793.68
729.636	1965.71
729.823	1832.59
730.009	1824.4
730.195	1904.27
730.382	1756.82
730.568	1900.17
730.754	1715.86
730.94	1846.93
731.126	1701.52
731.313	1799.82
731.499	1756.82
731.685	1834.64
731.871	1744.53
732.057	1832.59
732.243	1816.21
732.429	1734.29
732.615	1664.66
732.801	1758.86
732.987	1662.61
733.173	1738.38
733.359	1701.52
733.545	1724.05
733.731	1711.76
733.917	1715.86
734.103	1582.74
734.289	1658.51
734.475	1592.98
734.661	1726.1
734.847	1615.51
735.033	1783.44
735.219	1603.22
735.404	1652.37
735.59	1676.95
735.776	1552.02
735.962	1609.36
736.148	1623.7
736.333	1609.36
736.519	1554.07
736.705	1535.64
736.89	1668.75
737.076	1580.69
737.262	1685.14
737.447	1580.69
737.633	1580.69
737.819	1527.44
738.004	1556.11
738.19	1607.31
738.375	1625.75
738.561	1543.83
738.747	1504.92
738.932	1511.06
739.118	1545.88
739.303	1388.18
739.489	1560.21
739.674	1468.05
739.859	1513.11
740.045	1412.76
740.23	1541.78
740.416	1386.13
740.601	1470.1
740.786	1433.24
740.972	1441.43
741.157	1365.65
741.342	1472.15
741.528	1390.23
741.713	1470.1
741.898	1373.85
742.084	1412.76
742.269	1416.85
742.454	1324.69
742.639	1423
742.824	1552.02
743.01	1347.22
743.195	1322.65
743.38	1453.72
743.565	1330.84
743.75	1339.03
743.935	1310.36
744.12	1330.84
744.305	1298.07
744.49	1259.16
744.675	1318.55
744.86	1240.73
745.045	1285.78
745.23	1289.88
745.415	1216.15
745.6	1257.11
745.785	1201.82
745.97	1306.26
746.155	1306.26
746.34	1259.16
746.525	1314.45
746.71	1199.77
746.895	1253.02
747.079	1142.43
747.264	1183.38
747.449	1191.58
747.634	1222.3
747.819	1216.15
748.003	1205.91
748.188	1210.01
748.373	1289.88
748.557	1197.72
748.742	1248.92
748.927	1072.79
749.111	1195.67
749.296	1167
749.481	1171.1
749.665	1050.27
749.85	1158.81
750.034	1050.27
750.219	1085.08
750.404	1138.33
750.588	1136.28
750.773	1150.62
750.957	1144.47
751.141	1058.46
751.326	1068.7
751.51	1058.46
751.695	1042.07
751.879	1068.7
752.064	1074.84
752.248	1013.4
752.432	1056.41
752.617	1113.75
752.801	1035.93
752.985	954.01
753.17	1009.31
753.354	1023.64
753.538	1031.83
753.722	968.35
753.907	976.54
754.091	954.01
754.275	992.92
754.459	902.81
754.643	990.88
754.828	892.57
755.012	933.53
755.196	915.1
755.38	921.24
755.564	919.2
755.748	908.96
755.932	845.47
756.116	890.53
756.3	921.24
756.484	923.29
756.668	833.18
756.852	859.81
757.036	872.09
757.22	933.53
757.404	865.95
757.588	847.52
757.772	808.61
757.956	906.91
758.14	945.82
758.323	790.17
758.507	790.17
758.691	947.87
758.875	773.79
759.059	818.85
759.242	736.93
759.426	767.65
759.61	784.03
759.794	773.79
759.977	810.65
760.161	820.89
760.345	802.46
760.528	792.22
760.712	738.98
760.895	802.46
761.079	853.66
761.263	790.17
761.446	710.3
761.63	700.06
761.813	695.97
761.997	765.6
762.18	722.59
762.364	757.41
762.547	724.64
762.731	677.54
762.914	640.67
763.098	669.34
763.281	698.02
763.464	628.39
763.648	712.35
763.831	675.49
764.015	681.63
764.198	749.22
764.381	779.93
764.564	702.11
764.748	671.39
764.931	732.83
765.114	773.79
765.297	655.01
765.481	614.05
765.664	667.3
765.847	726.69
766.03	636.58
766.213	687.78
766.397	628.39
766.58	589.47
766.763	732.83
766.946	644.77
767.129	638.62
767.312	671.39
767.495	650.91
767.678	679.58
767.861	722.59
768.044	612
768.227	659.1
768.41	618.15
768.593	595.62
768.776	595.62
768.959	634.53
769.142	677.54
769.324	710.3
769.507	691.87
769.69	669.34
769.873	650.91
770.056	605.86
770.239	673.44
770.421	650.91
770.604	618.15
770.787	566.95
770.97	652.96
771.152	667.3
771.335	622.24
771.518	558.75
771.7	614.05
771.883	646.82
772.066	562.85
772.248	573.09
772.431	583.33
772.613	552.61
772.796	593.57
772.978	587.43
773.161	657.06
773.343	605.86
773.526	558.75
773.708	554.66
773.891	513.7
774.073	556.71
774.256	487.08
774.438	544.42
774.621	536.23
774.803	571.04
774.985	573.09
775.168	505.51
775.35	480.93
775.532	491.17
775.715	503.46
775.897	691.87
776.079	532.13
776.261	550.56
776.444	546.47
776.626	437.92
776.808	560.8
776.99	525.99
777.173	437.92
777.355	562.85
777.537	519.84
777.719	513.7
777.901	474.79
778.083	482.98
778.265	511.65
778.447	489.12
778.629	487.08
778.811	437.92
778.993	437.92
779.175	478.88
779.357	448.16
779.539	364.2
779.721	413.35
779.903	454.31
780.085	405.16
780.267	446.12
780.449	421.54
780.631	468.64
780.812	421.54
780.994	392.87
781.176	384.68
781.358	509.6
781.54	413.35
781.721	409.25
781.903	392.87
782.085	478.88
782.267	368.29
782.448	429.73
782.63	378.53
782.812	419.49
782.993	392.87
783.175	489.12
783.357	413.35
783.538	419.49
783.72	351.91
783.901	399.01
784.083	341.67
784.264	423.59
784.446	411.3
784.627	413.35
784.809	339.62
784.99	390.82
785.172	349.86
785.353	388.77
785.535	351.91
785.716	331.43
785.897	331.43
786.079	319.14
786.26	310.95
786.441	405.16
786.623	245.41
786.804	380.58
786.985	323.24
787.167	343.72
787.348	284.33
787.529	349.86
787.71	353.96
787.891	319.14
788.073	306.85
788.254	327.33
788.435	341.67
788.616	331.43
788.797	290.47
788.978	284.33
789.159	304.81
789.34	298.66
789.522	339.62
789.703	231.08
789.884	265.89
790.065	333.48
790.246	327.33
790.427	257.7
790.607	251.56
790.788	319.14
790.969	290.47
791.15	306.85
791.331	257.7
791.512	237.22
791.693	288.42
791.874	259.75
792.054	269.99
792.235	200.36
792.416	308.9
792.597	194.22
792.778	210.6
792.958	233.13
793.139	233.13
793.32	274.09
793.5	226.98
793.681	304.81
793.862	204.46
794.042	136.87
794.223	282.28
794.404	229.03
794.584	243.37
794.765	319.14
794.945	265.89
795.126	294.57
795.306	220.84
795.487	231.08
795.667	315.05
795.848	308.9
796.028	218.79
796.209	241.32
796.389	292.52
796.57	247.46
796.75	296.61
796.93	153.26
797.111	143.02
797.291	231.08
797.471	214.7
797.652	257.7
797.832	241.32
798.012	245.41
798.192	200.36
798.373	132.78
798.553	167.59
798.733	204.46
798.913	204.46
799.093	208.55
799.274	145.06
799.454	210.6
799.634	204.46
799.814	204.46
799.994	245.41
800.174	212.65
800.354	267.94
800.534	183.98
800.714	190.12
800.894	173.74
801.074	130.73
801.254	122.54
801.434	220.84
801.614	206.5
801.794	206.5
801.974	456.36
802.154	163.5
802.334	192.17
802.514	194.22
802.693	161.45
802.873	167.59
803.053	216.74
803.233	196.26
803.413	116.39
803.592	224.94
803.772	196.26
803.952	159.4
804.131	151.21
804.311	177.83
804.491	153.26
804.67	161.45
804.85	169.64
805.03	151.21
805.209	200.36
805.389	85.67
805.568	214.7
805.748	120.49
805.928	165.54
806.107	177.83
806.287	128.68
806.466	114.34
806.646	136.87
806.825	120.49
807.004	143.02
807.184	179.88
807.363	169.64
807.543	145.06
807.722	132.78
807.901	75.43
808.081	212.65
808.26	30.38
808.439	114.34
808.619	104.11
808.798	163.5
808.977	147.11
809.156	161.45
809.336	75.43
809.515	167.59
809.694	106.15
809.873	85.67
810.052	108.2
810.231	177.83
810.411	85.67
810.59	200.36
810.769	126.63
810.948	95.91
811.127	138.92
811.306	102.06
811.485	165.54
811.664	239.27
811.843	32.43
812.022	167.59
812.201	61.1
812.38	151.21
812.559	122.54
812.737	118.44
812.916	69.29
813.095	214.7
813.274	138.92
813.453	124.58
813.632	110.25
813.811	159.4
813.989	89.77
814.168	91.82
814.347	110.25
814.526	122.54
814.704	163.5
814.883	134.82
815.062	120.49
815.24	157.35
815.419	145.06
815.598	145.06
815.776	151.21
815.955	122.54
816.133	108.2
816.312	204.46
816.49	112.3
816.669	138.92
816.847	87.72
817.026	173.74
817.204	143.02
817.383	112.3
817.561	77.48
817.74	104.11
817.918	126.63
818.097	46.76
818.275	122.54
818.453	69.29
818.632	116.39
818.81	151.21
818.988	85.67
819.167	93.87
819.345	126.63
819.523	104.11
819.701	95.91
819.879	108.2
820.058	114.34
820.236	73.39
820.414	85.67
820.592	110.25
820.77	183.98
820.948	120.49
821.127	91.82
821.305	151.21
821.483	34.47
821.661	104.11
821.839	87.72
822.017	128.68
822.195	44.71
822.373	52.91
822.551	46.76
822.729	50.86
822.907	120.49
823.085	20.14
823.262	3.75
823.44	130.73
823.618	61.1
823.796	85.67
823.974	13.99
824.152	126.63
824.329	71.34
824.507	112.3
824.685	91.82
824.863	93.87
825.04	85.67
825.218	16.04
825.396	69.29
825.574	102.06
825.751	114.34
825.929	46.76
826.107	120.49
826.284	132.78
826.462	52.91
826.639	95.91
826.817	73.39
826.994	79.53
827.172	67.24
827.349	24.23
827.527	110.25
827.704	155.3
827.882	140.97
828.059	130.73
828.237	104.11
828.414	102.06
828.591	83.63
828.769	97.96
828.946	11.95
829.124	95.91
829.301	40.62
829.478	130.73
829.655	77.48
829.833	57
830.01	18.09
830.187	122.54
830.364	110.25
830.542	-18.77
830.719	79.53
830.896	63.15
831.073	28.33
831.25	112.3
831.427	91.82
831.604	97.96
831.782	67.24
831.959	91.82
832.136	57
832.313	112.3
832.49	116.39
832.667	9.9
832.844	-2.39
833.021	155.3
833.198	110.25
833.374	65.19
833.551	118.44
833.728	83.63
833.905	122.54
834.082	42.67
834.259	73.39
834.436	50.86
834.612	63.15
834.789	36.52
834.966	46.76
835.143	77.48
835.319	147.11
835.496	40.62
835.673	3.75
835.85	40.62
836.026	-16.73
836.203	61.1
836.38	38.57
836.556	26.28
836.733	85.67
836.909	79.53
837.086	59.05
837.262	36.52
837.439	46.76
837.616	3.75
837.792	44.71
837.968	61.1
838.145	46.76
838.321	104.11
838.498	18.09
838.674	85.67
838.851	61.1
839.027	36.52
839.203	-12.63
839.38	1.71
839.556	71.34
839.732	-24.92
839.909	65.19
840.085	126.63
840.261	48.81
840.437	83.63
840.614	65.19
840.79	116.39
840.966	32.43
841.142	110.25
841.318	30.38
841.494	52.91
841.671	106.15
841.847	93.87
842.023	48.81
842.199	75.43
842.375	87.72
842.551	-18.77
842.727	79.53
842.903	108.2
843.079	59.05
843.255	40.62
843.431	3.75
843.607	83.63
843.783	18.09
843.959	77.48
844.134	13.99
844.31	102.06
844.486	-29.01
844.662	83.63
844.838	20.14
845.013	77.48
845.189	110.25
845.365	44.71
845.541	77.48
845.716	20.14
845.892	44.71
846.068	46.76
846.244	48.81
846.419	89.77
846.595	-8.53
846.77	42.67
846.946	69.29
847.122	87.72
847.297	67.24
847.473	81.58
847.648	54.95
847.824	-35.16
847.999	13.99
848.175	42.67
848.35	93.87
848.526	95.91
848.701	50.86
848.876	75.43
849.052	-8.53
849.227	50.86
849.403	20.14
849.578	57
849.753	93.87
849.929	20.14
850.104	42.67
850.279	38.57
850.454	42.67
850.63	81.58
850.805	46.76
850.98	77.48
851.155	44.71
851.33	61.1
851.505	22.19
851.681	32.43
851.856	-12.63
852.031	46.76
852.206	87.72
852.381	57
852.556	71.34
852.731	75.43
852.906	85.67
853.081	108.2
853.256	-39.25
853.431	13.99
853.606	-12.63
853.781	87.72
853.956	40.62
854.131	40.62
854.305	46.76
854.48	134.82
854.655	54.95
854.83	-18.77
855.005	52.91
855.18	-4.44
855.354	-2.39
855.529	22.19
855.704	38.57
855.879	97.96
856.053	-65.88
856.228	77.48
856.403	-33.11
856.577	38.57
856.752	11.95
856.926	40.62
857.101	38.57
857.276	50.86
857.45	65.19
857.625	100.01
857.799	44.71
857.974	-12.63
858.148	13.99
858.323	110.25
858.497	-29.01
858.672	5.8
858.846	59.05
859.02	77.48
859.195	7.85
859.369	16.04
859.543	93.87
859.718	134.82
859.892	42.67
860.066	13.99
860.241	-8.53
860.415	71.34
860.589	-26.96
860.763	-20.82
860.938	77.48
861.112	69.29
861.286	9.9
861.46	11.95
861.634	-6.49
861.808	130.73
861.982	-41.3
862.157	-10.58
862.331	77.48
862.505	40.62
862.679	-37.2
862.853	67.24
863.027	1.71
863.201	38.57
863.375	7.85
863.549	1.71
863.722	-4.44
863.896	110.25
864.07	-20.82
864.244	9.9
864.418	13.99
864.592	32.43
864.766	75.43
864.939	114.34
865.113	79.53
865.287	40.62
865.461	-14.68
865.634	16.04
865.808	9.9
865.982	73.39
866.156	-43.35
866.329	-4.44
866.503	20.14
866.676	93.87
866.85	28.33
867.024	28.33
867.197	97.96
867.371	-8.53
867.544	-20.82
867.718	-4.44
867.891	26.28
868.065	28.33
868.238	54.95
868.412	95.91
868.585	-55.64
868.759	-55.64
868.932	-8.53
869.105	48.81
869.279	9.9
869.452	61.1
869.625	13.99
869.799	20.14
869.972	-12.63
870.145	34.47
870.319	-4.44
870.492	71.34
870.665	40.62
870.838	-4.44
871.011	26.28
871.185	36.52
871.358	20.14
871.531	-0.34
871.704	52.91
871.877	65.19
872.05	81.58
872.223	69.29
872.396	102.06
872.569	77.48
872.742	-2.39
872.915	63.15
873.088	-4.44
873.261	-18.77
873.434	71.34
873.607	11.95
873.78	3.75
873.953	-14.68
874.126	28.33
874.299	-22.87
874.471	52.91
874.644	-49.49
874.817	-18.77
874.99	44.71
875.163	-6.49
875.335	97.96
875.508	38.57
875.681	91.82
875.853	77.48
876.026	52.91
876.199	44.71
876.371	42.67
876.544	38.57
876.717	69.29
876.889	-16.73
877.062	-14.68
877.234	-2.39
877.407	48.81
877.579	79.53
877.752	-16.73
877.924	-29.01
878.097	3.75
878.269	30.38
878.442	24.23
878.614	36.52
878.786	93.87
878.959	-14.68
879.131	-8.53
879.303	-43.35
879.476	46.76
879.648	13.99
879.82	69.29
879.993	-0.34
880.165	-26.96
880.337	30.38
880.509	-26.96
880.681	20.14
880.854	34.47
881.026	26.28
881.198	83.63
881.37	104.11
881.542	3.75
881.714	40.62
881.886	22.19
882.058	42.67
882.23	-24.92
882.402	-0.34
882.574	77.48
882.746	-14.68
882.918	36.52
883.09	22.19
883.262	71.34
883.434	11.95
883.606	32.43
883.778	16.04
883.95	34.47
884.122	26.28
884.293	59.05
884.465	-22.87
884.637	30.38
884.809	36.52
884.98	28.33
885.152	-20.82
885.324	69.29
885.496	32.43
885.667	16.04
885.839	9.9
886.011	63.15
886.182	32.43
886.354	13.99
886.525	69.29
886.697	11.95
886.869	13.99
887.04	3.75
887.212	3.75
887.383	-8.53
887.555	79.53
887.726	48.81
887.897	-16.73
888.069	67.24
888.24	63.15
888.412	13.99
888.583	-12.63
888.754	52.91
888.926	-41.3
889.097	71.34
889.268	7.85
889.44	110.25
889.611	63.15
889.782	57
889.953	52.91
890.125	50.86
890.296	20.14
890.467	38.57
890.638	-39.25
890.809	50.86
890.98	5.8
891.151	-2.39
891.323	24.23
891.494	59.05
891.665	24.23
891.836	16.04
892.007	-2.39
892.178	22.19
892.349	34.47
892.52	36.52
892.691	3.75
892.862	13.99
893.032	13.99
893.203	-12.63
893.374	-22.87
893.545	1.71
893.716	-24.92
893.887	52.91
894.057	54.95
894.228	3.75
894.399	69.29
894.57	32.43
894.74	-4.44
894.911	61.1
895.082	36.52
895.253	50.86
895.423	44.71
895.594	-6.49
895.764	48.81
895.935	36.52
896.106	-12.63
896.276	-2.39
896.447	40.62
896.617	-0.34
896.788	13.99
896.958	5.8
897.129	22.19
897.299	13.99
897.47	-8.53
897.64	44.71
897.81	26.28
897.981	3.75
898.151	44.71
898.322	118.44
898.492	5.8
898.662	-29.01
898.832	13.99
899.003	59.05
899.173	87.72
899.343	79.53
899.513	26.28
