Data from USB4F104151__85__13-54-24-811.txt Node

Date: Thu Mar 13 13:54:24 EDT 2025
User: louis
Spectrometer: USB4F10415
Trigger mode: 4
Integration Time (sec): 1.000000E-2
Scans to average: 1
Electric dark correction enabled: true
Nonlinearity correction enabled: false
Boxcar width: 0
XAxis mode: Wavelengths
Number of Pixels in Spectrum: 3648
>>>>>Begin Spectral Data<<<<<
178.204	-37.55
178.424	-37.55
178.644	-37.55
178.864	-90.79
179.084	27.99
179.304	-29.35
179.524	25.94
179.744	-15.02
179.964	3.41
180.184	-4.78
180.404	-31.4
180.624	-0.68
180.844	32.08
181.064	-4.78
181.283	-39.59
181.503	40.28
181.723	23.89
181.943	-45.74
182.163	30.04
182.383	7.51
182.602	-2.73
182.822	11.61
183.042	40.28
183.262	-41.64
183.482	-43.69
183.701	-31.4
183.921	-41.64
184.141	-29.35
184.361	9.56
184.58	32.08
184.8	83.28
185.02	-23.21
185.239	64.85
185.459	32.08
185.679	32.08
185.898	-80.55
186.118	77.14
186.338	-23.21
186.557	-10.92
186.777	56.66
186.997	-19.11
187.216	64.85
187.436	-10.92
187.655	21.85
187.875	52.56
188.095	3.41
188.314	64.85
188.534	13.65
188.753	21.85
188.973	101.72
189.192	56.66
189.412	-6.83
189.631	60.76
189.851	-12.97
190.07	27.99
190.29	25.94
190.509	-6.83
190.729	-10.92
190.948	58.71
191.168	40.28
191.387	44.37
191.607	21.85
191.826	62.8
192.045	23.89
192.265	11.61
192.484	-45.74
192.704	17.75
192.923	50.52
193.142	48.47
193.362	66.9
193.581	-23.21
193.8	17.75
194.02	-19.11
194.239	38.23
194.458	66.9
194.678	21.85
194.897	73.04
195.116	79.19
195.335	-12.97
195.555	30.04
195.774	54.61
195.993	-15.02
196.212	-25.26
196.432	23.89
196.651	50.52
196.87	9.56
197.089	77.14
197.308	-6.83
197.528	17.75
197.747	-45.74
197.966	7.51
198.185	42.32
198.404	21.85
198.623	19.8
198.842	23.89
199.062	1.37
199.281	-47.79
199.5	40.28
199.719	56.66
199.938	17.75
200.157	54.61
200.376	15.7
200.595	23.89
200.814	-10.92
201.033	42.32
201.252	58.71
201.471	-37.55
201.69	42.32
201.909	19.8
202.128	9.56
202.347	27.99
202.566	42.32
202.785	44.37
203.004	-49.83
203.223	81.24
203.442	-12.97
203.661	11.61
203.879	91.48
204.098	75.09
204.317	-6.83
204.536	40.28
204.755	44.37
204.974	7.51
205.193	27.99
205.411	77.14
205.63	3.41
205.849	3.41
206.068	23.89
206.287	62.8
206.505	89.43
206.724	25.94
206.943	5.46
207.162	42.32
207.381	-12.97
207.599	38.23
207.818	60.76
208.037	52.56
208.255	44.37
208.474	85.33
208.693	-23.21
208.911	44.37
209.13	15.7
209.349	44.37
209.567	19.8
209.786	19.8
210.005	1.37
210.223	-12.97
210.442	-45.74
210.661	32.08
210.879	15.7
211.098	38.23
211.316	42.32
211.535	11.61
211.753	-21.16
211.972	34.13
212.191	9.56
212.409	-15.02
212.628	124.24
212.846	27.99
213.065	64.85
213.283	89.43
213.502	-39.59
213.72	17.75
213.938	50.52
214.157	73.04
214.375	46.42
214.594	32.08
214.812	105.81
215.031	13.65
215.249	34.13
215.467	-45.74
215.686	13.65
215.904	56.66
216.122	-41.64
216.341	66.9
216.559	15.7
216.778	87.38
216.996	-6.83
217.214	-6.83
217.432	9.56
217.651	32.08
217.869	-39.59
218.087	34.13
218.306	-10.92
218.524	32.08
218.742	-19.11
218.96	-2.73
219.179	50.52
219.397	46.42
219.615	-23.21
219.833	5.46
220.051	3.41
220.27	48.47
220.488	-4.78
220.706	89.43
220.924	48.47
221.142	56.66
221.36	13.65
221.578	-23.21
221.796	25.94
222.015	30.04
222.233	13.65
222.451	60.76
222.669	17.75
222.887	-15.02
223.105	-31.4
223.323	3.41
223.541	19.8
223.759	114
223.977	23.89
224.195	54.61
224.413	42.32
224.631	91.48
224.849	-23.21
225.067	21.85
225.285	56.66
225.503	3.41
225.721	38.23
225.939	19.8
226.157	3.41
226.375	13.65
226.592	-4.78
226.81	-39.59
227.028	114
227.246	52.56
227.464	66.9
227.682	-21.16
227.9	-21.16
228.117	120.15
228.335	66.9
228.553	54.61
228.771	9.56
228.989	40.28
229.206	48.47
229.424	97.62
229.642	13.65
229.86	-80.55
230.077	27.99
230.295	13.65
230.513	-43.69
230.731	107.86
230.948	36.18
231.166	30.04
231.384	-27.31
231.601	85.33
231.819	30.04
232.037	7.51
232.254	40.28
232.472	79.19
232.689	60.76
232.907	-12.97
233.125	13.65
233.342	-6.83
233.56	66.9
233.777	40.28
233.995	27.99
234.213	25.94
234.43	66.9
234.648	3.41
234.865	60.76
235.083	19.8
235.3	48.47
235.518	48.47
235.735	5.46
235.953	9.56
236.17	30.04
236.388	7.51
236.605	3.41
236.822	81.24
237.04	27.99
237.257	40.28
237.475	-64.17
237.692	5.46
237.909	101.72
238.127	122.2
238.344	-2.73
238.562	44.37
238.779	89.43
238.996	-8.87
239.214	7.51
239.431	5.46
239.648	-17.07
239.865	30.04
240.083	42.32
240.3	-2.73
240.517	-10.92
240.735	77.14
240.952	15.7
241.169	-19.11
241.386	15.7
241.603	64.85
241.821	42.32
242.038	21.85
242.255	15.7
242.472	25.94
242.689	-41.64
242.907	66.9
243.124	30.04
243.341	38.23
243.558	44.37
243.775	-33.45
243.992	25.94
244.209	21.85
244.426	21.85
244.643	7.51
244.86	23.89
245.078	17.75
245.295	19.8
245.512	-0.68
245.729	-6.83
245.946	-10.92
246.163	-6.83
246.38	64.85
246.597	-8.87
246.814	21.85
247.031	30.04
247.248	19.8
247.464	19.8
247.681	34.13
247.898	13.65
248.115	17.75
248.332	56.66
248.549	103.76
248.766	23.89
248.983	40.28
249.2	36.18
249.417	21.85
249.633	-12.97
249.85	71
250.067	1.37
250.284	7.51
250.501	-23.21
250.717	1.37
250.934	30.04
251.151	66.9
251.368	40.28
251.585	27.99
251.801	-4.78
252.018	-31.4
252.235	42.32
252.451	17.75
252.668	68.95
252.885	83.28
253.102	-8.87
253.318	-4.78
253.535	-27.31
253.752	-19.11
253.968	13.65
254.185	25.94
254.401	11.61
254.618	15.7
254.835	-45.74
255.051	68.95
255.268	32.08
255.484	7.51
255.701	-15.02
255.917	7.51
256.134	9.56
256.351	77.14
256.567	3.41
256.784	48.47
257	85.33
257.217	66.9
257.433	34.13
257.65	93.52
257.866	27.99
258.082	-19.11
258.299	32.08
258.515	19.8
258.732	1.37
258.948	68.95
259.165	30.04
259.381	11.61
259.597	17.75
259.814	42.32
260.03	-17.07
260.246	48.47
260.463	-8.87
260.679	-4.78
260.895	34.13
261.112	130.39
261.328	62.8
261.544	93.52
261.761	7.51
261.977	34.13
262.193	5.46
262.409	-4.78
262.626	-58.03
262.842	101.72
263.058	-10.92
263.274	34.13
263.49	52.56
263.707	-39.59
263.923	27.99
264.139	-2.73
264.355	40.28
264.571	85.33
264.787	-25.26
265.004	68.95
265.22	5.46
265.436	-17.07
265.652	-27.31
265.868	32.08
266.084	62.8
266.3	38.23
266.516	91.48
266.732	30.04
266.948	50.52
267.164	19.8
267.38	7.51
267.596	36.18
267.812	56.66
268.028	44.37
268.244	19.8
268.46	19.8
268.676	-4.78
268.892	27.99
269.108	-15.02
269.324	-21.16
269.54	5.46
269.756	1.37
269.972	-0.68
270.188	71
270.403	36.18
270.619	32.08
270.835	11.61
271.051	-6.83
271.267	91.48
271.483	25.94
271.698	54.61
271.914	99.67
272.13	1.37
272.346	56.66
272.562	40.28
272.777	62.8
272.993	-2.73
273.209	9.56
273.425	48.47
273.64	64.85
273.856	15.7
274.072	-8.87
274.287	-6.83
274.503	-6.83
274.719	30.04
274.934	-4.78
275.15	-17.07
275.366	91.48
275.581	64.85
275.797	42.32
276.012	38.23
276.228	30.04
276.444	40.28
276.659	48.47
276.875	-21.16
277.09	40.28
277.306	42.32
277.521	50.52
277.737	60.76
277.952	-19.11
278.168	7.51
278.383	7.51
278.599	71
278.814	87.38
279.03	25.94
279.245	60.76
279.461	52.56
279.676	99.67
279.892	27.99
280.107	-21.16
280.322	7.51
280.538	95.57
280.753	23.89
280.969	34.13
281.184	3.41
281.399	11.61
281.615	30.04
281.83	-62.12
282.045	-27.31
282.26	13.65
282.476	-23.21
282.691	36.18
282.906	1.37
283.122	103.76
283.337	-35.5
283.552	89.43
283.767	-33.45
283.983	42.32
284.198	-23.21
284.413	17.75
284.628	66.9
284.843	-6.83
285.058	17.75
285.274	9.56
285.489	-66.22
285.704	34.13
285.919	60.76
286.134	44.37
286.349	95.57
286.564	-27.31
286.779	36.18
286.995	21.85
287.21	-19.11
287.425	56.66
287.64	83.28
287.855	71
288.07	-0.68
288.285	-23.21
288.5	9.56
288.715	93.52
288.93	-0.68
289.145	-12.97
289.36	50.52
289.575	7.51
289.79	50.52
290.004	77.14
290.219	-0.68
290.434	25.94
290.649	73.04
290.864	38.23
291.079	56.66
291.294	-35.5
291.509	40.28
291.724	77.14
291.938	-0.68
292.153	30.04
292.368	-27.31
292.583	34.13
292.798	95.57
293.012	97.62
293.227	34.13
293.442	87.38
293.657	15.7
293.871	56.66
294.086	32.08
294.301	-4.78
294.516	75.09
294.73	-31.4
294.945	56.66
295.16	19.8
295.374	75.09
295.589	71
295.804	27.99
296.018	-25.26
296.233	23.89
296.447	54.61
296.662	23.89
296.877	25.94
297.091	-37.55
297.306	27.99
297.52	-27.31
297.735	-25.26
297.949	-25.26
298.164	52.56
298.378	17.75
298.593	9.56
298.807	54.61
299.022	97.62
299.236	46.42
299.451	-8.87
299.665	7.51
299.88	-12.97
300.094	1.37
300.309	-21.16
300.523	23.89
300.737	60.76
300.952	38.23
301.166	23.89
301.381	40.28
301.595	38.23
301.809	19.8
302.024	97.62
302.238	27.99
302.452	-0.68
302.667	11.61
302.881	11.61
303.095	64.85
303.309	89.43
303.524	9.56
303.738	-25.26
303.952	-12.97
304.166	-6.83
304.381	40.28
304.595	50.52
304.809	-10.92
305.023	13.65
305.237	-15.02
305.452	75.09
305.666	-37.55
305.88	15.7
306.094	-15.02
306.308	-21.16
306.522	-12.97
306.736	5.46
306.95	25.94
307.164	-23.21
307.379	38.23
307.593	50.52
307.807	17.75
308.021	13.65
308.235	-8.87
308.449	21.85
308.663	-45.74
308.877	23.89
309.091	68.95
309.305	40.28
309.519	40.28
309.733	3.41
309.947	-10.92
310.161	17.75
310.374	15.7
310.588	1.37
310.802	-23.21
311.016	60.76
311.23	66.9
311.444	25.94
311.658	-0.68
311.872	46.42
312.085	27.99
312.299	-39.59
312.513	-10.92
312.727	13.65
312.941	30.04
313.154	75.09
313.368	50.52
313.582	30.04
313.796	19.8
314.009	-25.26
314.223	23.89
314.437	38.23
314.651	30.04
314.864	103.76
315.078	-76.46
315.292	118.1
315.505	34.13
315.719	42.32
315.933	21.85
316.146	30.04
316.36	40.28
316.573	56.66
316.787	13.65
317.001	15.7
317.214	60.76
317.428	34.13
317.641	34.13
317.855	7.51
318.068	19.8
318.282	32.08
318.495	64.85
318.709	81.24
318.922	27.99
319.136	56.66
319.349	-23.21
319.563	-47.79
319.776	-23.21
319.99	-2.73
320.203	-8.87
320.417	44.37
320.63	21.85
320.843	75.09
321.057	19.8
321.27	17.75
321.483	-2.73
321.697	42.32
321.91	-15.02
322.124	7.51
322.337	87.38
322.55	40.28
322.763	-15.02
322.977	-33.45
323.19	40.28
323.403	-55.98
323.617	-6.83
323.83	34.13
324.043	30.04
324.256	-12.97
324.469	30.04
324.683	87.38
324.896	-8.87
325.109	54.61
325.322	-21.16
325.535	40.28
325.748	56.66
325.962	48.47
326.175	50.52
326.388	38.23
326.601	54.61
326.814	48.47
327.027	38.23
327.24	44.37
327.453	1.37
327.666	48.47
327.879	64.85
328.092	58.71
328.305	48.47
328.518	46.42
328.731	3.41
328.944	34.13
329.157	-25.26
329.37	36.18
329.583	42.32
329.796	46.42
330.009	-41.64
330.222	122.2
330.435	30.04
330.648	77.14
330.861	25.94
331.073	87.38
331.286	34.13
331.499	25.94
331.712	-25.26
331.925	52.56
332.138	32.08
332.35	52.56
332.563	42.32
332.776	15.7
332.989	30.04
333.202	9.56
333.414	32.08
333.627	165.2
333.84	56.66
334.053	50.52
334.265	3.41
334.478	1.37
334.691	50.52
334.903	25.94
335.116	-19.11
335.329	52.56
335.541	9.56
335.754	11.61
335.966	-12.97
336.179	46.42
336.392	27.99
336.604	107.86
336.817	5.46
337.029	-6.83
337.242	21.85
337.454	-33.45
337.667	73.04
337.88	42.32
338.092	32.08
338.305	42.32
338.517	-10.92
338.729	111.96
338.942	64.85
339.154	46.42
339.367	-53.93
339.579	-10.92
339.792	-25.26
340.004	46.42
340.217	11.61
340.429	9.56
340.641	-27.31
340.854	17.75
341.066	46.42
341.278	64.85
341.491	48.47
341.703	34.13
341.915	13.65
342.128	46.42
342.34	21.85
342.552	9.56
342.764	-0.68
342.977	17.75
343.189	30.04
343.401	64.85
343.613	-25.26
343.826	21.85
344.038	3.41
344.25	50.52
344.462	40.28
344.674	23.89
344.886	-10.92
345.099	-10.92
345.311	71
345.523	42.32
345.735	-12.97
345.947	17.75
346.159	54.61
346.371	-17.07
346.583	40.28
346.795	34.13
347.007	9.56
347.219	62.8
347.431	-27.31
347.643	81.24
347.855	38.23
348.067	-21.16
348.279	3.41
348.491	19.8
348.703	73.04
348.915	21.85
349.127	7.51
349.339	25.94
349.551	87.38
349.763	7.51
349.975	13.65
350.187	58.71
350.399	60.76
350.61	46.42
350.822	-41.64
351.034	114
351.246	77.14
351.458	66.9
351.669	30.04
351.881	68.95
352.093	5.46
352.305	1.37
352.517	32.08
352.728	56.66
352.94	3.41
353.152	19.8
353.363	-33.45
353.575	87.38
353.787	21.85
353.999	36.18
354.21	40.28
354.422	40.28
354.633	7.51
354.845	32.08
355.057	5.46
355.268	1.37
355.48	83.28
355.692	71
355.903	62.8
356.115	-58.03
356.326	48.47
356.538	71
356.749	3.41
356.961	19.8
357.172	13.65
357.384	3.41
357.595	34.13
357.807	66.9
358.018	-23.21
358.23	91.48
358.441	-6.83
358.653	9.56
358.864	1.37
359.075	73.04
359.287	-23.21
359.498	42.32
359.709	23.89
359.921	9.56
360.132	3.41
360.344	46.42
360.555	7.51
360.766	34.13
360.977	40.28
361.189	42.32
361.4	5.46
361.611	27.99
361.823	32.08
362.034	27.99
362.245	27.99
362.456	66.9
362.667	32.08
362.879	66.9
363.09	25.94
363.301	120.15
363.512	44.37
363.723	23.89
363.935	30.04
364.146	7.51
364.357	116.05
364.568	42.32
364.779	-62.12
364.99	60.76
365.201	-23.21
365.412	77.14
365.623	9.56
365.834	44.37
366.045	27.99
366.256	58.71
366.467	40.28
366.678	5.46
366.889	40.28
367.1	46.42
367.311	-17.07
367.522	46.42
367.733	62.8
367.944	73.04
368.155	46.42
368.366	7.51
368.577	58.71
368.788	54.61
368.999	34.13
369.209	15.7
369.42	46.42
369.631	62.8
369.842	54.61
370.053	81.24
370.264	56.66
370.474	-25.26
370.685	-35.5
370.896	19.8
371.107	42.32
371.317	34.13
371.528	42.32
371.739	46.42
371.95	32.08
372.16	30.04
372.371	-2.73
372.582	54.61
372.792	5.46
373.003	21.85
373.214	42.32
373.424	66.9
373.635	52.56
373.846	73.04
374.056	13.65
374.267	38.23
374.477	38.23
374.688	-19.11
374.898	19.8
375.109	11.61
375.319	52.56
375.53	48.47
375.74	13.65
375.951	97.62
376.161	21.85
376.372	3.41
376.582	44.37
376.793	27.99
377.003	64.85
377.214	5.46
377.424	83.28
377.635	-10.92
377.845	38.23
378.055	-4.78
378.266	15.7
378.476	19.8
378.686	17.75
378.897	-39.59
379.107	36.18
379.317	27.99
379.528	-2.73
379.738	1.37
379.948	-25.26
380.158	34.13
380.369	11.61
380.579	46.42
380.789	30.04
380.999	-6.83
381.21	75.09
381.42	105.81
381.63	19.8
381.84	25.94
382.05	27.99
382.261	52.56
382.471	-12.97
382.681	-23.21
382.891	60.76
383.101	116.05
383.311	-0.68
383.521	30.04
383.731	75.09
383.941	25.94
384.151	44.37
384.361	40.28
384.571	50.52
384.781	15.7
384.991	9.56
385.201	99.67
385.411	46.42
385.621	93.52
385.831	38.23
386.041	95.57
386.251	-15.02
386.461	73.04
386.671	73.04
386.881	36.18
387.091	79.19
387.301	40.28
387.511	66.9
387.72	-6.83
387.93	54.61
388.14	73.04
388.35	64.85
388.56	9.56
388.769	-33.45
388.979	-60.07
389.189	-12.97
389.399	-41.64
389.609	81.24
389.818	103.76
390.028	79.19
390.238	15.7
390.447	126.29
390.657	58.71
390.867	42.32
391.076	64.85
391.286	42.32
391.496	9.56
391.705	38.23
391.915	56.66
392.125	58.71
392.334	9.56
392.544	-0.68
392.753	89.43
392.963	-33.45
393.172	42.32
393.382	56.66
393.591	19.8
393.801	79.19
394.01	124.24
394.22	95.57
394.429	68.95
394.639	54.61
394.848	46.42
395.058	25.94
395.267	81.24
395.477	93.52
395.686	21.85
395.895	60.76
396.105	30.04
396.314	56.66
396.524	17.75
396.733	54.61
396.942	40.28
397.152	21.85
397.361	13.65
397.57	89.43
397.78	40.28
397.989	81.24
398.198	-12.97
398.407	44.37
398.617	56.66
398.826	7.51
399.035	64.85
399.244	161.11
399.453	89.43
399.663	83.28
399.872	91.48
400.081	64.85
400.29	56.66
400.499	23.89
400.708	-0.68
400.917	50.52
401.127	79.19
401.336	126.29
401.545	109.91
401.754	87.38
401.963	56.66
402.172	85.33
402.381	85.33
402.59	1.37
402.799	101.72
403.008	95.57
403.217	52.56
403.426	23.89
403.635	154.96
403.844	40.28
404.053	93.52
404.262	89.43
404.471	97.62
404.68	34.13
404.888	97.62
405.097	46.42
405.306	83.28
405.515	93.52
405.724	85.33
405.933	66.9
406.142	111.96
406.35	60.76
406.559	66.9
406.768	52.56
406.977	89.43
407.185	77.14
407.394	150.87
407.603	83.28
407.812	116.05
408.02	111.96
408.229	99.67
408.438	140.63
408.646	128.34
408.855	124.24
409.064	161.11
409.272	146.77
409.481	134.48
409.69	132.44
409.898	103.76
410.107	167.25
410.315	247.12
410.524	173.39
410.733	97.62
410.941	120.15
411.15	197.97
411.358	191.83
411.567	140.63
411.775	238.93
411.984	142.68
412.192	161.11
412.401	200.02
412.609	171.35
412.818	177.49
413.026	189.78
413.234	218.45
413.443	210.26
413.651	220.5
413.86	238.93
414.068	214.35
414.276	212.31
414.485	290.13
414.693	271.7
414.901	277.84
415.11	279.89
415.318	320.85
415.526	329.04
415.734	363.86
415.943	335.18
416.151	388.43
416.359	378.19
416.567	345.42
416.776	431.44
416.984	384.34
417.192	474.45
417.4	472.4
417.608	429.39
417.817	482.64
418.025	427.34
418.233	558.41
418.441	476.49
418.649	558.41
418.857	511.31
419.065	599.37
419.273	546.13
419.481	613.71
419.689	640.33
419.897	681.29
420.105	685.39
420.313	679.24
420.521	709.96
420.729	671.05
420.937	730.44
421.145	744.78
421.353	783.69
421.561	820.55
421.769	714.06
421.977	892.23
422.185	879.94
422.393	1004.87
422.601	976.2
422.809	929.1
423.017	961.86
423.224	918.86
423.432	1097.03
423.64	1023.3
423.848	1166.66
424.056	1115.46
424.263	1183.04
424.471	1174.85
424.679	1213.76
424.887	1316.16
425.094	1293.63
425.302	1432.9
425.51	1432.9
425.718	1441.09
425.925	1500.48
426.133	1531.2
426.341	1619.26
426.548	1717.56
426.756	1721.66
426.964	1682.75
427.171	1879.35
427.379	1930.55
427.586	1914.17
427.794	1830.2
428.001	1985.85
428.209	2184.5
428.417	2102.58
428.624	2125.11
428.832	2209.08
429.039	2139.44
429.247	2247.99
429.454	2514.22
429.662	2602.29
429.869	2456.88
430.076	2581.81
430.284	2516.27
430.491	2686.25
430.699	2737.45
430.906	2755.88
431.114	2757.93
431.321	2837.8
431.528	2962.73
431.736	3167.53
431.943	3347.75
432.15	3235.11
432.358	3321.12
432.565	3282.21
432.772	3274.02
432.979	3601.69
433.187	3747.1
433.394	3556.64
433.601	3915.03
433.808	3763.48
434.016	3896.6
434.223	3972.38
434.43	4230.42
434.637	4277.52
434.844	4371.73
435.052	4578.58
435.259	4476.18
435.466	4455.7
435.673	4597.01
435.88	4701.45
436.087	5078.28
436.294	4979.98
436.501	4893.96
436.708	4988.17
436.915	5160.2
437.122	5371.14
437.329	5385.48
437.537	5461.25
437.743	5684.48
437.95	5659.9
438.157	5860.6
438.364	6188.28
438.571	6208.76
438.778	6157.56
438.985	6661.36
439.192	6376.69
439.399	6513.91
439.606	6464.75
439.813	6724.85
440.02	7152.87
440.227	7120.1
440.433	7070.95
440.64	7232.74
440.847	7292.13
441.054	7480.55
441.261	7931.1
441.467	7890.14
441.674	7806.17
441.881	8307.93
442.088	8209.62
442.294	8092.89
442.501	8338.65
442.708	8406.23
442.914	8848.59
443.121	9221.32
443.328	9075.91
443.534	9487.56
443.741	9454.79
443.948	9399.49
444.154	9784.51
444.361	9671.87
444.568	9927.87
444.774	9921.73
444.981	9981.12
445.187	10284.22
445.394	10732.72
445.6	10781.87
445.807	11633.83
446.013	11044.01
446.22	11326.63
446.426	11877.54
446.633	11830.43
446.839	12250.27
447.046	11861.15
447.252	12362.9
447.459	12780.69
447.665	12627.09
447.871	12702.87
448.078	13249.68
448.284	12897.42
448.491	13120.65
448.697	13628.55
448.903	14070.91
449.11	14089.34
449.316	13716.61
449.522	14036.1
449.728	14402.68
449.935	14320.76
450.141	14650.49
450.347	14832.75
450.553	14247.04
450.76	14476.41
450.966	14967.92
451.172	14795.89
451.378	15117.42
451.584	14947.44
451.791	15029.36
451.997	15072.37
452.203	15246.44
452.409	15449.19
452.615	15342.7
452.821	14742.64
453.027	14785.65
453.233	15473.77
453.44	14871.67
453.646	15025.26
453.852	15039.6
454.058	15264.88
454.264	14648.44
454.47	15088.75
454.676	14580.85
454.882	15080.56
455.088	13661.32
455.294	14331
455.5	14230.65
455.705	14281.85
455.911	13837.44
456.117	13741.19
456.323	13309.07
456.529	12663.96
456.735	13343.88
456.941	12633.24
457.147	12516.5
457.352	12246.17
457.558	12201.12
457.764	12143.77
457.97	11760.8
458.176	11660.45
458.381	11953.31
458.587	11150.51
458.793	10923.18
458.999	10482.87
459.204	11269.29
459.41	10886.32
459.616	10093.76
459.821	10292.41
460.027	10140.86
460.233	9956.54
460.438	9510.08
460.644	9485.51
460.85	9092.3
461.055	8875.21
461.261	9049.29
461.466	8338.65
461.672	8209.62
461.878	8625.36
462.083	8158.42
462.289	8025.31
462.494	7824.61
462.7	7634.14
462.905	7398.63
463.111	7673.06
463.316	7720.16
463.522	7419.11
463.727	7687.39
463.932	7263.46
464.138	7308.52
464.343	7269.61
464.549	6976.75
464.754	7570.66
464.959	7300.33
465.165	7431.4
465.37	6999.27
465.575	6792.43
465.781	7173.35
465.986	7300.33
466.191	7038.19
466.397	6591.73
466.602	6503.67
466.807	6733.04
467.012	6614.26
467.218	6647.02
467.423	6735.09
467.628	6620.4
467.833	6800.62
468.038	6638.83
468.244	6581.49
468.449	6747.37
468.654	6442.23
468.859	6454.51
469.064	6460.66
469.269	6208.76
469.474	6282.49
469.679	6370.55
469.885	6182.14
470.09	6245.62
470.295	6184.18
470.5	5973.24
470.705	6061.3
470.91	5969.15
471.115	5856.51
471.32	6071.54
471.525	6139.13
471.73	5752.06
471.935	5862.65
472.139	5594.37
472.344	5676.29
472.549	5547.26
472.754	5600.51
472.959	5393.67
473.164	5291.27
473.369	5229.83
473.574	5502.21
473.778	5295.36
473.983	5260.55
474.188	5203.21
474.393	5145.86
474.598	5207.3
474.802	5109
475.007	5088.52
475.212	4904.2
475.417	4828.43
475.621	4816.14
475.826	4893.96
476.031	4670.73
476.235	4590.86
476.44	4781.32
476.645	4721.93
476.849	4662.54
477.054	4576.53
477.259	4523.28
477.463	4533.52
477.668	4216.09
477.872	4472.08
478.077	4341.01
478.282	4265.24
478.486	4291.86
478.691	4300.05
478.895	4244.76
479.1	4197.65
479.304	4369.68
479.509	3904.79
479.713	4285.72
479.918	4023.58
480.122	4087.06
480.326	4146.45
480.531	3925.27
480.735	4095.25
480.94	4099.35
481.144	4117.78
481.348	3880.22
481.553	3962.14
481.757	4015.38
481.961	3945.75
482.166	4046.1
482.37	3964.18
482.574	3814.68
482.778	4025.62
482.983	3968.28
483.187	3874.07
483.391	3951.9
483.595	3958.04
483.8	3929.37
484.004	3939.61
484.208	4054.3
484.412	4033.82
484.616	4146.45
484.821	3806.49
485.025	3857.69
485.229	3902.75
485.433	3941.66
485.637	3945.75
485.841	3890.46
486.045	3849.5
486.249	3740.96
486.453	3837.21
486.657	4056.34
486.861	4074.78
487.065	3935.51
487.269	3945.75
487.473	3890.46
487.677	3917.08
487.881	4007.19
488.085	4039.96
488.289	4044.06
488.493	4058.39
488.697	4005.14
488.901	3931.42
489.105	4005.14
489.309	3976.47
489.512	3955.99
489.716	3937.56
489.92	3906.84
490.124	3999
490.328	3988.76
490.531	3843.35
490.735	4205.85
490.939	4095.25
491.143	4056.34
491.346	4013.34
491.55	4156.69
491.754	4226.32
491.958	4263.19
492.161	4146.45
492.365	4236.56
492.569	4171.03
492.772	4193.56
492.976	4328.72
493.18	4181.27
493.383	4291.86
493.587	4343.06
493.79	4384.02
493.994	4373.78
494.197	4453.65
494.401	4576.53
494.605	4390.16
494.808	4484.37
495.012	4617.49
495.215	4592.91
495.419	4742.41
495.622	4588.82
495.825	4771.08
496.029	4689.17
496.232	4627.73
496.436	4764.94
496.639	4965.64
496.843	4971.79
497.046	4941.07
497.249	5049.61
497.453	5164.29
497.656	5057.8
497.859	5219.59
498.063	5188.87
498.266	5389.57
498.469	5426.43
498.673	5381.38
498.876	5446.91
499.079	5422.34
499.282	5348.61
499.485	5741.82
499.689	5680.38
499.892	5960.95
500.095	5854.46
500.298	6071.54
500.501	5928.19
500.705	6210.81
500.908	6096.12
501.111	6112.5
501.314	6479.09
501.517	6419.7
501.72	6491.38
501.923	6388.98
502.126	6616.3
502.329	6796.53
502.532	6853.87
502.735	6839.53
502.938	6925.55
503.141	7128.3
503.344	7204.07
503.547	7107.82
503.75	7298.28
503.953	7515.36
504.156	7548.13
504.359	7628
504.562	7544.03
504.765	7840.99
504.968	8117.47
505.17	8107.23
505.373	8148.19
505.576	8193.24
505.779	8283.35
505.982	8449.24
506.185	8623.31
506.387	8559.83
506.59	8787.15
506.793	8961.23
506.996	8846.54
507.198	9270.47
507.401	9415.88
507.604	9399.49
507.807	9549
508.009	9587.91
508.212	9831.62
508.415	9833.66
508.617	9948.35
508.82	10081.47
509.022	10165.43
509.225	10310.84
509.428	10562.74
509.63	10611.89
509.833	10796.21
510.035	10910.89
510.238	10742.96
510.44	11316.39
510.643	11386.02
510.845	11549.86
511.048	11515.05
511.25	11685.03
511.453	11908.26
511.655	12199.07
511.858	12260.51
512.06	12274.84
512.262	12371.1
512.465	12367
512.667	12663.96
512.87	12887.18
513.072	12981.39
513.274	13311.11
513.477	13321.35
513.679	13556.87
513.881	13759.62
514.084	13778.05
514.286	13984.9
514.488	14089.34
514.69	14644.34
514.893	14632.05
515.095	14640.25
515.297	14834.8
515.499	15125.61
515.701	15357.03
515.904	15344.75
516.106	15772.77
516.308	15952.99
516.51	15952.99
516.712	16163.93
516.914	16510.04
517.116	16499.8
517.318	16448.6
517.52	16870.48
517.722	17110.1
517.925	17255.5
518.127	17435.72
518.329	17574.99
518.531	17710.15
518.733	18248.77
518.935	18302.01
519.136	18267.2
519.338	18650.17
519.54	18457.66
519.742	18943.03
519.944	19127.35
520.146	19598.38
520.348	19643.43
520.55	20116.51
520.752	19799.08
520.954	20403.23
521.155	20243.49
521.357	20487.2
521.559	20528.16
521.761	21224.47
521.963	21290
522.164	21376.02
522.366	21421.07
522.568	21775.37
522.77	21988.36
522.971	22365.18
523.173	22070.28
523.375	22520.83
523.576	22518.78
523.778	22649.85
523.98	23217.14
524.181	23151.6
524.383	23137.27
524.584	23417.84
524.786	23596.01
524.988	23315.44
525.189	23649.26
525.391	24108.01
525.592	24576.99
525.794	24476.64
525.995	24208.36
526.197	24714.2
526.398	24509.41
526.6	25070.55
526.801	25271.25
527.003	25058.26
527.204	25261.01
527.406	25527.25
527.607	25478.1
527.808	25869.26
528.01	25238.48
528.211	25643.98
528.412	26016.71
528.614	26135.49
528.815	26082.25
529.016	26407.87
529.218	26285
529.419	26538.94
529.62	26553.28
529.822	26344.39
530.023	26604.48
530.224	26330.05
530.425	26792.89
530.626	26696.64
530.828	26475.46
531.029	27190.2
531.23	26606.53
531.431	26936.25
531.632	27030.46
531.833	27288.5
532.035	27206.58
532.236	27048.89
532.437	27347.89
532.638	27294.64
532.839	27626.42
533.04	27718.57
533.241	27343.8
533.442	27675.57
533.643	27552.69
533.844	27642.8
534.045	27767.73
534.246	27749.29
534.447	27706.29
534.648	27657.14
534.849	27863.98
535.05	27560.88
535.251	27755.44
535.451	28023.72
535.652	27900.84
535.853	27644.85
536.054	28056.49
536.255	27927.47
536.456	27956.14
536.657	28128.17
536.857	27724.72
537.058	27483.06
537.259	28394.4
537.46	27780.01
537.66	27808.68
537.861	28216.23
538.062	28146.6
538.263	27900.84
538.463	28158.89
538.664	28269.48
538.865	28124.07
539.065	28013.48
539.266	27898.8
539.466	28208.04
539.667	28062.63
539.868	28435.36
540.068	28076.97
540.269	27894.7
540.469	28232.61
540.67	27876.27
540.87	28105.64
541.071	28267.43
541.271	28304.29
541.472	28050.35
541.672	28156.84
541.873	27993
542.073	27820.97
542.274	28158.89
542.474	28148.65
542.675	28109.74
542.875	28597.15
543.075	28036.01
543.276	27906.99
543.476	28607.39
543.676	28023.72
543.877	28472.23
544.077	28261.29
544.277	28027.82
544.478	28097.45
544.678	28294.05
544.878	28240.81
545.078	28271.53
545.279	28617.63
545.479	28335.01
545.679	27761.58
545.879	28361.64
546.079	28177.32
546.28	28134.31
546.48	27978.67
546.68	28339.11
546.88	28351.4
547.08	28498.85
547.28	28191.66
547.48	27900.84
547.68	28029.87
547.88	28296.1
548.081	28502.95
548.281	27958.19
548.481	28093.35
548.681	28306.34
548.881	28261.29
549.081	28103.59
549.28	28175.27
549.48	28183.46
549.68	27966.38
549.88	28306.34
550.08	28185.51
550.28	28208.04
550.48	28238.76
550.68	28302.25
550.88	27843.5
551.08	28492.71
551.279	28412.84
551.479	28119.98
551.679	28138.41
551.879	27933.61
552.079	28246.95
552.278	27982.76
552.478	28189.61
552.678	28011.43
552.878	28126.12
553.077	28126.12
553.277	27831.21
553.477	28036.01
553.676	28056.49
553.876	28011.43
554.076	27949.99
554.275	27966.38
554.475	27800.49
554.674	27845.55
554.874	27694
555.074	27728.81
555.273	27753.39
555.473	27753.39
555.672	27673.52
555.872	27794.35
556.071	27671.47
556.271	27714.48
556.47	27388.85
556.67	27802.54
556.869	27358.13
557.068	27716.53
557.268	27343.8
557.467	27261.88
557.667	27270.07
557.866	27612.08
558.065	27417.52
558.265	27239.35
558.464	26946.49
558.663	27040.7
558.863	27050.94
559.062	27292.6
559.261	26958.78
559.461	27241.4
559.66	26622.91
559.859	27042.74
560.058	26659.77
560.258	27059.13
560.457	26696.64
560.656	26880.96
560.855	26565.57
561.054	26516.42
561.253	26559.42
561.453	26909.63
561.652	26502.08
561.851	26727.36
562.05	26641.34
562.249	26268.61
562.448	26557.38
562.647	26399.68
562.846	26285
563.045	26563.52
563.244	25826.25
563.443	26213.32
563.642	26096.58
563.841	25768.91
564.04	25684.94
564.239	26033.1
564.438	25723.85
564.637	25633.74
564.836	25805.77
565.035	25605.07
565.234	25709.52
565.432	25646.03
565.631	25701.33
565.83	25621.45
566.029	25537.49
566.228	25451.47
566.427	25164.76
566.625	25095.13
566.824	25037.78
567.023	25050.07
567.222	24847.32
567.42	25562.06
567.619	24861.66
567.818	24898.52
568.016	24978.39
568.215	24871.9
568.414	24785.88
568.612	24673.24
568.811	24650.72
569.01	24605.66
569.208	24210.4
569.407	24345.57
569.605	24175.59
569.804	24288.23
570.002	24099.81
570.201	24095.72
570.4	24146.92
570.598	23852.01
570.797	23909.35
570.995	23712.75
571.193	23651.31
571.392	23907.3
571.59	23403.5
571.789	23542.77
571.987	23387.12
572.186	23567.34
572.384	23165.94
572.582	23243.76
572.781	23149.56
572.979	23065.59
573.177	22893.56
573.376	23211
573.574	22688.76
573.772	22844.41
573.971	22518.78
574.169	22551.55
574.367	22516.73
574.565	22737.91
574.763	22275.07
574.962	22285.31
575.16	21967.88
575.358	22035.46
575.556	22012.93
575.754	22125.57
575.952	21765.13
576.151	21675.02
576.349	21586.96
576.547	21595.15
576.745	21763.08
576.943	21548.04
577.141	21419.02
577.339	21535.76
577.537	21267.47
577.735	21466.13
577.933	20888.6
578.131	21281.81
578.329	20823.06
578.527	21201.94
578.725	21019.67
578.923	21382.16
579.121	20829.21
579.319	20755.48
579.516	20616.22
579.714	20446.24
579.912	20528.16
580.11	20384.8
580.308	20370.46
580.506	20446.24
580.704	20153.38
580.901	20362.27
581.099	20282.4
581.297	20026.4
581.495	20042.79
581.692	20143.14
581.89	19573.8
582.088	20010.02
582.285	19651.63
582.483	19764.26
582.681	19461.16
582.878	19573.8
583.076	19528.75
583.274	19674.15
583.471	19364.91
583.669	19440.68
583.866	19223.6
584.064	19264.56
584.262	18869.3
584.459	19381.29
584.657	19082.29
584.854	19166.26
585.052	18791.48
585.249	18955.32
585.447	19002.42
585.644	18658.36
585.841	18783.29
586.039	18861.11
586.236	18537.53
586.434	18584.63
586.631	18080.83
586.828	18607.16
587.026	18484.28
587.223	18330.69
587.42	18105.41
587.618	18123.84
587.815	18078.79
588.012	17796.17
588.21	18115.65
588.407	17982.53
588.604	17800.26
588.801	17878.08
588.999	17701.96
589.196	17841.22
589.393	17777.73
589.59	17599.56
589.787	17398.86
589.984	17443.92
590.182	17237.07
590.379	17257.55
590.576	17308.75
590.773	17214.54
590.97	17132.62
591.167	17417.29
591.364	16770.13
591.561	17235.02
591.758	16841.81
591.955	16753.75
592.152	17005.65
592.349	16798.81
592.546	16626.78
592.743	16852.05
592.94	16452.7
593.137	16770.13
593.334	16491.61
593.531	16178.27
593.727	16505.95
593.924	16278.62
594.121	16512.09
594.318	16493.66
594.515	16243.81
594.712	16358.49
594.908	16147.55
595.105	16325.72
595.302	15887.46
595.499	16039.01
595.696	16045.15
595.892	15930.47
596.089	16172.13
596.286	15961.19
596.482	15586.41
596.679	15811.68
596.876	15811.68
597.072	15557.74
597.269	15649.89
597.466	15600.74
597.662	15535.21
597.859	15223.92
598.055	15434.86
598.252	15326.32
598.448	15613.03
598.645	15303.79
598.841	15098.99
599.038	15283.31
599.234	15101.04
599.431	15074.42
599.627	15172.72
599.824	15027.31
600.02	14707.83
600.217	15105.13
600.413	15004.78
600.609	14810.23
600.806	14505.08
601.002	14890.1
601.198	14683.25
601.395	14582.9
601.591	14597.24
601.787	14486.65
601.984	14419.07
602.18	14474.36
602.376	14367.87
602.572	14374.01
602.769	14359.67
602.965	14113.92
603.161	14027.9
603.357	14087.29
603.553	14216.32
603.75	13929.6
603.946	13898.88
604.142	13984.9
604.338	13782.15
604.534	13827.2
604.73	13706.37
604.926	13722.76
605.122	13737.09
605.318	13546.63
605.514	13620.36
605.71	13487.24
605.906	13368.46
606.102	13485.19
606.298	13315.21
606.494	13427.85
606.69	13438.09
606.886	13280.39
607.082	13227.15
607.278	13214.86
607.474	13079.69
607.67	13202.57
607.866	12954.77
608.062	13130.89
608.257	12977.3
608.453	12969.1
608.649	12948.62
608.845	12727.44
609.041	12764.31
609.236	12807.31
609.432	12547.22
609.628	12709.01
609.824	12616.85
610.019	12586.13
610.215	12465.3
610.411	12541.08
610.606	12272.79
610.802	12430.49
610.998	12313.75
611.193	12283.03
611.389	12254.36
611.584	12260.51
611.78	12235.93
611.976	12309.66
612.171	12164.25
612.367	12160.16
612.562	11941.02
612.758	12143.77
612.953	11844.77
613.149	12016.8
613.344	11783.33
613.539	12049.57
613.735	11840.67
613.93	11715.75
614.126	11705.51
614.321	11887.78
614.517	11621.54
614.712	11560.1
614.907	11584.68
615.103	11814.05
615.298	11469.99
615.493	11768.99
615.688	11596.96
615.884	11617.44
616.079	11455.65
616.274	11478.18
616.47	11386.02
616.665	11584.68
616.86	11336.87
617.055	11300.01
617.25	11283.63
617.445	11277.48
617.641	10982.57
617.836	11111.6
618.031	10941.61
618.226	11144.36
618.421	11082.92
618.616	11041.96
618.811	10835.12
619.006	10880.18
619.201	10788.02
619.396	10755.25
619.591	10615.99
619.786	10609.84
619.981	10446.01
620.176	10626.23
620.371	10564.79
620.566	10521.78
620.761	10362.04
620.956	10536.12
621.151	10259.64
621.346	10282.17
621.541	9960.64
621.735	10138.81
621.93	9997.5
622.125	9946.3
622.32	9913.53
622.515	9811.14
622.709	10015.93
622.904	9796.8
623.099	9651.39
623.294	9792.7
623.488	9749.7
623.683	9598.15
623.878	9370.82
624.072	9553.09
624.267	9403.59
624.462	9432.26
624.656	9321.67
624.851	9360.58
625.046	9202.89
625.24	9120.97
625.435	9092.3
625.629	8936.65
625.824	9088.2
626.018	9049.29
626.213	8928.46
626.407	8936.65
626.602	8795.34
626.796	8768.72
626.991	8781.01
627.185	8512.72
627.38	8570.07
627.574	8641.75
627.768	8785.1
627.963	8479.96
628.157	8318.17
628.352	8533.2
628.546	8352.98
628.74	8484.05
628.935	8156.38
629.129	8260.82
629.323	8064.22
629.517	8154.33
629.712	7984.35
629.906	8228.06
630.1	8033.5
630.294	8017.12
630.489	7922.91
630.683	7967.96
630.877	7642.34
631.071	7795.93
631.265	7820.51
631.459	7843.04
631.653	7634.14
631.848	7605.47
632.042	7474.4
632.236	7675.1
632.43	7509.22
632.624	7521.51
632.818	7554.27
633.012	7548.13
633.206	7392.48
633.4	7296.23
633.594	7247.08
633.788	7410.92
633.982	7384.29
634.176	7242.98
634.369	7154.92
634.563	7132.39
634.757	7191.78
634.951	6980.84
635.145	6984.94
635.339	7005.42
635.533	6986.99
635.726	6860.01
635.92	6692.08
636.114	6759.66
636.308	6771.95
636.501	6862.06
636.695	6626.54
636.889	6610.16
637.083	6542.58
637.276	6712.56
637.47	6483.19
637.664	6567.15
637.857	6477.04
638.051	6417.65
638.244	6388.98
638.438	6370.55
638.632	6223.09
638.825	6403.32
639.019	6343.92
639.212	6329.59
639.406	6204.66
639.599	6110.46
639.793	6112.5
639.986	5797.12
640.18	5948.67
640.373	6020.35
640.567	5926.14
640.76	5922.04
640.954	5780.73
641.147	5891.32
641.34	5926.14
641.534	5801.21
641.727	5891.32
641.92	5657.86
642.114	5600.51
642.307	5557.5
642.5	5620.99
642.694	5555.46
642.887	5477.63
643.08	5543.17
643.273	5588.22
643.467	5586.18
643.66	5416.19
643.853	5231.88
644.046	5295.36
644.239	5270.79
644.432	5135.62
644.626	5106.95
644.819	5221.64
645.012	5109
645.205	5160.2
645.398	5061.9
645.591	4990.22
645.784	5041.42
645.977	4857.1
646.17	4873.48
646.363	4898.06
646.556	4814.09
646.749	4814.09
646.942	4824.33
647.135	4871.44
647.328	4666.64
647.521	4805.9
647.714	4728.08
647.907	4742.41
648.099	4664.59
648.292	4633.87
648.485	4664.59
648.678	4390.16
648.871	4566.29
649.064	4519.18
649.256	4496.66
649.449	4295.96
649.642	4289.81
649.835	4375.83
650.027	4353.3
650.22	4244.76
650.413	4275.48
650.605	4369.68
650.798	4279.57
650.991	4250.9
651.183	3992.86
651.376	4017.43
651.568	4078.87
651.761	4222.23
651.954	4054.3
652.146	4050.2
652.339	4046.1
652.531	3861.79
652.724	3933.47
652.916	4054.3
653.109	3872.03
653.301	3960.09
653.494	3910.94
653.686	3966.23
653.879	3833.11
654.071	3736.86
654.263	3806.49
654.456	3706.14
654.648	3679.52
654.84	3718.43
655.033	3609.89
655.225	3628.32
655.417	3743
655.61	3562.78
655.802	3738.91
655.994	3650.85
656.186	3597.6
656.379	3538.21
656.571	3431.71
656.763	3542.3
656.955	3319.07
657.148	3386.66
657.34	3382.56
657.532	3380.51
657.724	3112.23
657.916	3216.68
658.108	3456.29
658.3	3343.65
658.492	3276.07
658.684	3261.73
658.876	3239.2
659.068	3255.59
659.26	3288.36
659.452	3140.9
659.644	3124.52
659.836	3007.78
660.028	3235.11
660.22	3018.02
660.412	3044.65
660.604	2954.54
660.796	3001.64
660.988	2956.58
661.18	3044.65
661.372	3026.22
661.563	2942.25
661.755	2934.06
661.947	2895.15
662.139	2727.21
662.331	2794.79
662.522	2952.49
662.714	2784.55
662.906	2684.2
663.097	2743.6
663.289	2659.63
663.481	2823.47
663.673	2712.88
663.864	2633.01
664.056	2696.49
664.247	2606.38
664.439	2637.1
664.631	2694.44
664.822	2614.57
665.014	2630.96
665.205	2422.06
665.397	2577.71
665.588	2614.57
665.78	2491.7
665.971	2620.72
666.163	2407.73
666.354	2542.89
666.546	2434.35
666.737	2518.32
666.929	2622.77
667.12	2372.91
667.311	2444.59
667.503	2364.72
667.694	2508.08
667.885	2344.24
668.077	2368.82
668.268	2366.77
668.459	2374.96
668.651	2346.29
668.842	2200.88
669.033	2272.56
669.224	2307.38
669.416	2258.23
669.607	2190.64
669.798	2231.6
669.989	2280.75
670.18	2252.08
670.371	2268.47
670.563	2186.55
670.754	2254.13
670.945	2151.73
671.136	2239.8
671.327	2243.89
671.518	2131.25
671.709	2161.97
671.9	2102.58
672.091	2159.92
672.282	2192.69
672.473	2145.59
672.664	2092.34
672.855	2012.47
673.046	2063.67
673.237	2084.15
673.428	1973.56
673.619	2149.68
673.809	2157.88
674	2161.97
674.191	2069.81
674.382	1996.09
674.573	2078.01
674.764	2047.29
674.954	2020.66
675.145	1936.7
675.336	2026.81
675.527	1996.09
675.717	2008.37
675.908	1991.99
676.099	1961.27
676.289	2006.33
676.48	1965.37
676.671	2035
676.861	1918.26
677.052	2018.61
677.243	1996.09
677.433	1897.78
677.624	2078.01
677.814	1959.22
678.005	1944.89
678.195	1957.18
678.386	1924.41
678.576	1836.35
678.767	1908.02
678.957	1944.89
679.148	1953.08
679.338	1869.11
679.529	1869.11
679.719	1979.7
679.909	1930.55
680.1	1879.35
680.29	1875.26
680.481	1981.75
680.671	1959.22
680.861	2020.66
681.052	1840.44
681.242	1905.98
681.432	1920.31
681.622	1975.61
681.813	1881.4
682.003	1957.18
682.193	1858.87
682.383	1869.11
682.573	1848.63
682.764	1928.5
682.954	1871.16
683.144	1897.78
683.334	1887.54
683.524	1824.06
683.714	1869.11
683.904	1850.68
684.094	1830.2
684.284	1852.73
684.474	1918.26
684.664	1817.91
684.854	1940.79
685.044	1883.45
685.234	1887.54
685.424	1787.19
685.614	1762.62
685.804	1926.46
685.994	1799.48
686.184	1819.96
686.374	1754.43
686.564	1887.54
686.753	1652.03
686.943	1813.82
687.133	1897.78
687.323	1862.97
687.513	1815.87
687.702	1797.43
687.892	1873.21
688.082	1830.2
688.272	1834.3
688.461	1678.65
688.651	1766.71
688.841	1842.49
689.03	1787.19
689.22	1735.99
689.41	1869.11
689.599	1762.62
689.789	1842.49
689.979	1824.06
690.168	1795.39
690.358	1787.19
690.547	1809.72
690.737	1809.72
690.926	1832.25
691.116	1895.74
691.305	1834.3
691.495	1856.83
691.684	1865.02
691.874	1805.63
692.063	1852.73
692.252	1887.54
692.442	1946.94
692.631	1740.09
692.82	1838.39
693.01	1879.35
693.199	1822.01
693.388	1869.11
693.578	1846.59
693.767	1875.26
693.956	1854.78
694.146	1842.49
694.335	1801.53
694.524	1858.87
694.713	1783.1
694.902	1781.05
695.092	1926.46
695.281	1762.62
695.47	1840.44
695.659	1817.91
695.848	1895.74
696.037	1930.55
696.226	1738.04
696.415	1856.83
696.604	1891.64
696.793	1914.17
696.982	1901.88
697.171	1867.06
697.36	1944.89
697.549	1873.21
697.738	1983.8
697.927	1940.79
698.116	1867.06
698.305	1862.97
698.494	1873.21
698.683	1842.49
698.872	1922.36
699.061	1854.78
699.25	1846.59
699.438	1901.88
699.627	1981.75
699.816	1965.37
700.005	1928.5
700.193	1908.02
700.382	1938.74
700.571	1875.26
700.76	1910.07
700.948	1959.22
701.137	1973.56
701.326	1881.4
701.514	1803.58
701.703	1928.5
701.892	1813.82
702.08	1824.06
702.269	2030.9
702.457	1979.7
702.646	1862.97
702.834	1885.5
703.023	1842.49
703.212	1977.66
703.4	1926.46
703.589	1856.83
703.777	1772.86
703.965	2020.66
704.154	1996.09
704.342	1889.59
704.531	1862.97
704.719	1787.19
704.907	1918.26
705.096	1895.74
705.284	1756.47
705.472	1889.59
705.661	1828.15
705.849	1930.55
706.037	1826.11
706.226	1854.78
706.414	1717.56
706.602	1824.06
706.79	1791.29
706.979	1883.45
707.167	1787.19
707.355	1795.39
707.543	1879.35
707.731	1789.24
707.919	1754.43
708.107	1793.34
708.296	1776.95
708.484	1719.61
708.672	1852.73
708.86	1772.86
709.048	1822.01
709.236	1740.09
709.424	1795.39
709.612	1776.95
709.8	1772.86
709.988	1764.67
710.176	1754.43
710.364	1717.56
710.551	1676.6
710.739	1744.19
710.927	1729.85
711.115	1707.32
711.303	1672.51
711.491	1760.57
711.679	1701.18
711.866	1621.31
712.054	1748.28
712.242	1772.86
712.43	1764.67
712.617	1676.6
712.805	1733.95
712.993	1633.6
713.181	1731.9
713.368	1717.56
713.556	1744.19
713.744	1598.78
713.931	1662.27
714.119	1631.55
714.306	1664.32
714.494	1690.94
714.682	1600.83
714.869	1678.65
715.057	1660.22
715.244	1568.06
715.432	1590.59
715.619	1604.92
715.807	1641.79
715.994	1627.45
716.182	1588.54
716.369	1635.64
716.556	1510.72
716.744	1559.87
716.931	1725.76
717.119	1672.51
717.306	1629.5
717.493	1508.67
717.681	1547.58
717.868	1520.96
718.055	1533.25
718.242	1496.38
718.43	1539.39
718.617	1535.29
718.804	1533.25
718.991	1500.48
719.179	1539.39
719.366	1518.91
719.553	1475.9
719.74	1424.7
719.927	1467.71
720.114	1426.75
720.301	1445.18
720.488	1482.05
720.676	1350.98
720.863	1504.57
721.05	1559.87
721.237	1471.81
721.424	1459.52
721.611	1434.94
721.798	1400.13
721.985	1430.85
722.172	1412.42
722.358	1484.09
722.545	1402.18
722.732	1330.5
722.919	1410.37
723.106	1375.55
723.293	1418.56
723.48	1383.74
723.667	1373.5
723.853	1436.99
724.04	1373.5
724.227	1391.94
724.414	1387.84
724.6	1416.51
724.787	1404.22
724.974	1422.66
725.161	1428.8
725.347	1301.83
725.534	1326.4
725.72	1365.31
725.907	1303.87
726.094	1365.31
726.28	1371.46
726.467	1410.37
726.653	1273.15
726.84	1320.26
727.027	1320.26
727.213	1291.59
727.4	1320.26
727.586	1238.34
727.773	1295.68
727.959	1254.72
728.145	1228.1
728.332	1256.77
728.518	1260.87
728.705	1244.48
728.891	1199.43
729.077	1385.79
729.264	1254.72
729.45	1256.77
729.636	1205.57
729.823	1299.78
730.009	1201.48
730.195	1273.15
730.382	1215.81
730.568	1115.46
730.754	1246.53
730.94	1219.91
731.126	1062.21
731.313	1209.67
731.499	1252.67
731.685	1256.77
731.871	1146.18
732.057	1332.55
732.243	1248.58
732.429	1178.95
732.615	1207.62
732.801	1195.33
732.987	1232.19
733.173	1164.61
733.359	1129.8
733.545	1201.48
733.731	1160.52
733.917	1137.99
734.103	1123.65
734.289	1254.72
734.475	1205.57
734.661	1201.48
734.847	1094.98
735.033	1160.52
735.219	1140.04
735.404	1221.95
735.59	1191.24
735.776	1121.6
735.962	1162.56
736.148	1174.85
736.333	1131.84
736.519	1156.42
736.705	1111.36
736.89	1185.09
737.076	1070.41
737.262	1121.6
737.447	1234.24
737.633	1111.36
737.819	1076.55
738.004	1107.27
738.19	980.29
738.375	1107.27
738.561	1158.47
738.747	1137.99
738.932	1066.31
739.118	1092.93
739.303	1109.32
739.489	1047.88
739.674	1011.01
739.859	1068.36
740.045	1039.69
740.23	1041.73
740.416	1023.3
740.601	1068.36
740.786	1008.97
740.972	929.1
741.157	998.73
741.342	996.68
741.528	1043.78
741.713	1062.21
741.898	988.49
742.084	992.58
742.269	994.63
742.454	996.68
742.639	925
742.824	957.77
743.01	972.1
743.195	1035.59
743.38	927.05
743.565	1031.49
743.75	980.29
743.935	947.53
744.12	922.95
744.305	961.86
744.49	875.85
744.675	929.1
744.86	965.96
745.045	888.14
745.23	881.99
745.415	871.75
745.6	845.13
745.785	935.24
745.97	929.1
746.155	857.42
746.34	955.72
746.525	1008.97
746.71	941.38
746.895	881.99
747.079	834.89
747.264	843.08
747.449	920.9
747.634	943.43
747.819	832.84
748.003	902.47
748.188	849.22
748.373	871.75
748.557	896.33
748.742	791.88
748.927	802.12
749.111	791.88
749.296	838.98
749.481	881.99
749.665	759.11
749.85	869.7
750.034	787.79
750.219	755.02
750.404	673.1
750.588	750.92
750.773	853.32
750.957	791.88
751.141	697.67
751.326	892.23
751.51	738.63
751.695	716.11
751.879	738.63
752.064	750.92
752.248	791.88
752.432	726.35
752.617	718.15
752.801	761.16
752.985	746.83
753.17	709.96
753.354	683.34
753.538	669
753.722	752.97
753.907	685.39
754.091	724.3
754.275	671.05
754.459	648.52
754.643	716.11
754.828	726.35
755.012	613.71
755.196	607.56
755.38	623.95
755.564	695.63
755.748	580.94
755.932	640.33
756.116	505.17
756.3	648.52
756.484	695.63
756.668	572.75
756.852	597.32
757.036	677.2
757.22	582.99
757.404	650.57
757.588	554.32
757.772	544.08
757.956	644.43
758.14	554.32
758.323	654.67
758.507	507.21
758.691	623.95
758.875	607.56
759.059	589.13
759.242	554.32
759.426	490.83
759.61	523.6
759.794	509.26
759.977	576.84
760.161	621.9
760.345	574.8
760.528	591.18
760.712	499.02
760.895	488.78
761.079	589.13
761.263	576.84
761.446	556.36
761.63	626
761.813	568.65
761.997	554.32
762.18	451.92
762.364	542.03
762.547	484.69
762.731	503.12
762.914	562.51
763.098	593.23
763.281	433.49
763.464	527.69
763.648	482.64
763.831	490.83
764.015	413.01
764.198	509.26
764.381	464.21
764.564	443.73
764.748	443.73
764.931	488.78
765.114	408.91
765.297	466.25
765.481	423.25
765.664	505.17
765.847	482.64
766.03	507.21
766.213	400.72
766.397	460.11
766.58	441.68
766.763	427.34
766.946	476.49
767.129	421.2
767.312	388.43
767.495	484.69
767.678	546.13
767.861	523.6
768.044	445.77
768.227	501.07
768.41	492.88
768.593	484.69
768.776	488.78
768.959	386.38
769.142	464.21
769.324	509.26
769.507	472.4
769.69	433.49
769.873	415.06
770.056	460.11
770.239	421.2
770.421	398.67
770.604	486.73
770.787	427.34
770.97	480.59
771.152	458.06
771.335	376.14
771.518	449.87
771.7	425.29
771.883	400.72
772.066	370
772.248	439.63
772.431	400.72
772.613	437.58
772.796	458.06
772.978	390.48
773.161	380.24
773.343	453.97
773.526	384.34
773.708	326.99
773.891	472.4
774.073	427.34
774.256	384.34
774.438	445.77
774.621	335.18
774.803	329.04
774.985	333.14
775.168	349.52
775.35	390.48
775.532	394.58
775.715	376.14
775.897	351.57
776.079	417.1
776.261	304.46
776.444	417.1
776.626	390.48
776.808	335.18
776.99	339.28
777.173	367.95
777.355	277.84
777.537	384.34
777.719	320.85
777.901	322.9
778.083	370
778.265	243.03
778.447	413.01
778.629	413.01
778.811	343.38
778.993	370
779.175	357.71
779.357	316.75
779.539	302.42
779.721	357.71
779.903	310.61
780.085	277.84
780.267	316.75
780.449	302.42
780.631	296.27
780.812	267.6
780.994	247.12
781.176	302.42
781.358	245.07
781.54	318.8
781.721	396.62
781.903	259.41
782.085	255.31
782.267	249.17
782.448	245.07
782.63	269.65
782.812	224.59
782.993	290.13
783.175	310.61
783.357	255.31
783.538	302.42
783.72	320.85
783.901	230.74
784.083	314.7
784.264	257.36
784.446	222.55
784.627	312.66
784.809	200.02
784.99	185.68
785.172	290.13
785.353	228.69
785.535	263.51
785.716	197.97
785.897	232.79
786.079	204.11
786.26	226.64
786.441	283.99
786.623	154.96
786.804	279.89
786.985	277.84
787.167	216.4
787.348	234.83
787.529	212.31
787.71	265.55
787.891	159.06
788.073	175.44
788.254	208.21
788.435	243.03
788.616	224.59
788.797	208.21
788.978	222.55
789.159	228.69
789.34	208.21
789.522	181.59
789.703	126.29
789.884	183.63
790.065	177.49
790.246	169.3
790.427	202.07
790.607	204.11
790.788	228.69
790.969	218.45
791.15	185.68
791.331	150.87
791.512	218.45
791.693	154.96
791.874	111.96
792.054	95.57
792.235	187.73
792.416	222.55
792.597	204.11
792.778	142.68
792.958	154.96
793.139	169.3
793.32	165.2
793.5	144.72
793.681	152.92
793.862	91.48
794.042	91.48
794.223	218.45
794.404	212.31
794.584	148.82
794.765	93.52
794.945	169.3
795.126	208.21
795.306	169.3
795.487	177.49
795.667	148.82
795.848	144.72
796.028	83.28
796.209	136.53
796.389	181.59
796.57	157.01
796.75	185.68
796.93	122.2
797.111	111.96
797.291	210.26
797.471	173.39
797.652	161.11
797.832	214.35
798.012	200.02
798.192	173.39
798.373	167.25
798.553	167.25
798.733	120.15
798.913	83.28
799.093	103.76
799.274	165.2
799.454	120.15
799.634	132.44
799.814	146.77
799.994	163.15
800.174	136.53
800.354	103.76
800.534	122.2
800.714	89.43
800.894	167.25
801.074	124.24
801.254	177.49
801.434	48.47
801.614	34.13
801.794	130.39
801.974	331.09
802.154	93.52
802.334	189.78
802.514	140.63
802.693	195.92
802.873	77.14
803.053	171.35
803.233	191.83
803.413	77.14
803.592	177.49
803.772	107.86
803.952	142.68
804.131	148.82
804.311	130.39
804.491	68.95
804.67	101.72
804.85	118.1
805.03	99.67
805.209	130.39
805.389	87.38
805.568	134.48
805.748	132.44
805.928	142.68
806.107	120.15
806.287	154.96
806.466	103.76
806.646	173.39
806.825	142.68
807.004	132.44
807.184	87.38
807.363	97.62
807.543	75.09
807.722	62.8
807.901	66.9
808.081	56.66
808.26	9.56
808.439	111.96
808.619	157.01
808.798	13.65
808.977	101.72
809.156	138.58
809.336	34.13
809.515	118.1
809.694	64.85
809.873	111.96
810.052	97.62
810.231	126.29
810.411	75.09
810.59	97.62
810.769	167.25
810.948	93.52
811.127	97.62
811.306	120.15
811.485	-35.5
811.664	7.51
811.843	105.81
812.022	87.38
812.201	79.19
812.38	103.76
812.559	85.33
812.737	46.42
812.916	68.95
813.095	99.67
813.274	81.24
813.453	114
813.632	150.87
813.811	62.8
813.989	91.48
814.168	91.48
814.347	75.09
814.526	73.04
814.704	17.75
814.883	50.52
815.062	42.32
815.24	64.85
815.419	77.14
815.598	128.34
815.776	95.57
815.955	118.1
816.133	32.08
816.312	66.9
816.49	-4.78
816.669	89.43
816.847	46.42
817.026	109.91
817.204	50.52
817.383	140.63
817.561	77.14
817.74	50.52
817.918	73.04
818.097	75.09
818.275	-17.07
818.453	75.09
818.632	118.1
818.81	48.47
818.988	30.04
819.167	75.09
819.345	81.24
819.523	165.2
819.701	95.57
819.879	36.18
820.058	95.57
820.236	44.37
820.414	116.05
820.592	107.86
820.77	56.66
820.948	128.34
821.127	54.61
821.305	60.76
821.483	85.33
821.661	64.85
821.839	83.28
822.017	60.76
822.195	116.05
822.373	138.58
822.551	105.81
822.729	54.61
822.907	36.18
823.085	19.8
823.262	48.47
823.44	19.8
823.618	38.23
823.796	42.32
823.974	81.24
824.152	107.86
824.329	146.77
824.507	83.28
824.685	40.28
824.863	23.89
825.04	32.08
825.218	27.99
825.396	60.76
825.574	77.14
825.751	71
825.929	210.26
826.107	48.47
826.284	54.61
826.462	79.19
826.639	42.32
826.817	42.32
826.994	40.28
827.172	50.52
827.349	109.91
827.527	66.9
827.704	71
827.882	68.95
828.059	17.75
828.237	15.7
828.414	97.62
828.591	-17.07
828.769	-10.92
828.946	32.08
829.124	99.67
829.301	71
829.478	122.2
829.655	9.56
829.833	13.65
830.01	93.52
830.187	48.47
830.364	34.13
830.542	17.75
830.719	87.38
830.896	75.09
831.073	60.76
831.25	21.85
831.427	52.56
831.604	75.09
831.782	85.33
831.959	7.51
832.136	34.13
832.313	32.08
832.49	13.65
832.667	36.18
832.844	66.9
833.021	66.9
833.198	-23.21
833.374	114
833.551	-35.5
833.728	77.14
833.905	68.95
834.082	-2.73
834.259	19.8
834.436	79.19
834.612	27.99
834.789	34.13
834.966	56.66
835.143	50.52
835.319	-27.31
835.496	-4.78
835.673	101.72
835.85	13.65
836.026	13.65
836.203	50.52
836.38	60.76
836.556	68.95
836.733	34.13
836.909	58.71
837.086	-12.97
837.262	-29.35
837.439	32.08
837.616	83.28
837.792	68.95
837.968	-10.92
838.145	23.89
838.321	56.66
838.498	40.28
838.674	40.28
838.851	71
839.027	13.65
839.203	66.9
839.38	7.51
839.556	7.51
839.732	46.42
839.909	3.41
840.085	7.51
840.261	-17.07
840.437	99.67
840.614	68.95
840.79	56.66
840.966	81.24
841.142	-29.35
841.318	-6.83
841.494	77.14
841.671	89.43
841.847	62.8
842.023	85.33
842.199	89.43
842.375	56.66
842.551	21.85
842.727	27.99
842.903	50.52
843.079	66.9
843.255	-15.02
843.431	-4.78
843.607	66.9
843.783	75.09
843.959	32.08
844.134	60.76
844.31	9.56
844.486	-0.68
844.662	52.56
844.838	-4.78
845.013	42.32
845.189	54.61
845.365	62.8
845.541	5.46
845.716	79.19
845.892	17.75
846.068	122.2
846.244	62.8
846.419	64.85
846.595	42.32
846.77	40.28
846.946	15.7
847.122	32.08
847.297	13.65
847.473	111.96
847.648	87.38
847.824	52.56
847.999	-39.59
848.175	73.04
848.35	17.75
848.526	27.99
848.701	27.99
848.876	-12.97
849.052	9.56
849.227	103.76
849.403	32.08
849.578	60.76
849.753	-0.68
849.929	3.41
850.104	23.89
850.279	62.8
850.454	85.33
850.63	42.32
850.805	68.95
850.98	9.56
851.155	66.9
851.33	54.61
851.505	23.89
851.681	54.61
851.856	1.37
852.031	25.94
852.206	-2.73
852.381	36.18
852.556	30.04
852.731	56.66
852.906	30.04
853.081	-15.02
853.256	95.57
853.431	48.47
853.606	17.75
853.781	-6.83
853.956	-19.11
854.131	77.14
854.305	11.61
854.48	32.08
854.655	-17.07
854.83	25.94
855.005	64.85
855.18	3.41
855.354	7.51
855.529	-12.97
855.704	56.66
855.879	66.9
856.053	-43.69
856.228	19.8
856.403	-8.87
856.577	27.99
856.752	27.99
856.926	15.7
857.101	48.47
857.276	58.71
857.45	7.51
857.625	87.38
857.799	-33.45
857.974	36.18
858.148	-0.68
858.323	56.66
858.497	-4.78
858.672	1.37
858.846	81.24
859.02	38.23
859.195	-33.45
859.369	32.08
859.543	62.8
859.718	-41.64
859.892	-17.07
860.066	44.37
860.241	-8.87
860.415	75.09
860.589	30.04
860.763	-2.73
860.938	9.56
861.112	87.38
861.286	-53.93
861.46	21.85
861.634	23.89
861.808	9.56
861.982	7.51
862.157	83.28
862.331	7.51
862.505	-15.02
862.679	25.94
862.853	-12.97
863.027	40.28
863.201	36.18
863.375	-0.68
863.549	48.47
863.722	7.51
863.896	40.28
864.07	48.47
864.244	-23.21
864.418	42.32
864.592	21.85
864.766	62.8
864.939	21.85
865.113	7.51
865.287	97.62
865.461	25.94
865.634	7.51
865.808	-39.59
865.982	58.71
866.156	15.7
866.329	30.04
866.503	-2.73
866.676	27.99
866.85	-6.83
867.024	30.04
867.197	62.8
867.371	7.51
867.544	-53.93
867.718	-21.16
867.891	62.8
868.065	48.47
868.238	7.51
868.412	11.61
868.585	-23.21
868.759	-10.92
868.932	-35.5
869.105	-10.92
869.279	5.46
869.452	1.37
869.625	11.61
869.799	48.47
869.972	83.28
870.145	-8.87
870.319	66.9
870.492	97.62
870.665	25.94
870.838	101.72
871.011	-10.92
871.185	-45.74
871.358	95.57
871.531	64.85
871.704	46.42
871.877	-37.55
872.05	21.85
872.223	21.85
872.396	27.99
872.569	46.42
872.742	7.51
872.915	54.61
873.088	23.89
873.261	-17.07
873.434	34.13
873.607	111.96
873.78	42.32
873.953	13.65
874.126	-10.92
874.299	19.8
874.471	19.8
874.644	46.42
874.817	23.89
874.99	-8.87
875.163	7.51
875.335	85.33
875.508	11.61
875.681	-33.45
875.853	-39.59
876.026	-29.35
876.199	-0.68
876.371	44.37
876.544	-0.68
876.717	7.51
876.889	-15.02
877.062	-62.12
877.234	-8.87
877.407	46.42
877.579	17.75
877.752	-25.26
877.924	1.37
878.097	60.76
878.269	42.32
878.442	48.47
878.614	-31.4
878.786	52.56
878.959	11.61
879.131	62.8
879.303	21.85
879.476	-19.11
879.648	1.37
879.82	27.99
879.993	54.61
880.165	56.66
880.337	-6.83
880.509	-6.83
880.681	56.66
880.854	-17.07
881.026	-0.68
881.198	11.61
881.37	66.9
881.542	17.75
881.714	9.56
881.886	-49.83
882.058	58.71
882.23	-15.02
882.402	-12.97
882.574	48.47
882.746	9.56
882.918	21.85
883.09	21.85
883.262	13.65
883.434	87.38
883.606	44.37
883.778	34.13
883.95	-0.68
884.122	36.18
884.293	77.14
884.465	44.37
884.637	-12.97
884.809	-27.31
884.98	1.37
885.152	-31.4
885.324	13.65
885.496	9.56
885.667	32.08
885.839	9.56
886.011	-35.5
886.182	60.76
886.354	-10.92
886.525	9.56
886.697	9.56
886.869	-37.55
887.04	15.7
887.212	-6.83
887.383	-12.97
887.555	17.75
887.726	9.56
887.897	30.04
888.069	5.46
888.24	-23.21
888.412	23.89
888.583	36.18
888.754	48.47
888.926	58.71
889.097	23.89
889.268	54.61
889.44	54.61
889.611	19.8
889.782	34.13
889.953	48.47
890.125	-35.5
890.296	-45.74
890.467	62.8
890.638	40.28
890.809	17.75
890.98	-19.11
891.151	1.37
891.323	23.89
891.494	27.99
891.665	52.56
891.836	36.18
892.007	-27.31
892.178	-6.83
892.349	-4.78
892.52	11.61
892.691	21.85
892.862	30.04
893.032	34.13
893.203	40.28
893.374	23.89
893.545	-0.68
893.716	-6.83
893.887	34.13
894.057	30.04
894.228	50.52
894.399	-4.78
894.57	25.94
894.74	36.18
894.911	46.42
895.082	7.51
895.253	40.28
895.423	-12.97
895.594	17.75
895.764	34.13
895.935	17.75
896.106	34.13
896.276	-41.64
896.447	30.04
896.617	-25.26
896.788	-33.45
896.958	79.19
897.129	-60.07
897.299	-31.4
897.47	-31.4
897.64	64.85
897.81	17.75
897.981	27.99
898.151	-17.07
898.322	-33.45
898.492	56.66
898.662	-12.97
898.832	-25.26
899.003	11.61
899.173	44.37
899.343	-10.92
899.513	-58.03
