Data from USB4F104151__270__14-02-07-721.txt Node

Date: Thu Mar 13 14:02:07 EDT 2025
User: louis
Spectrometer: USB4F10415
Trigger mode: 4
Integration Time (sec): 1.000000E-2
Scans to average: 1
Electric dark correction enabled: true
Nonlinearity correction enabled: false
Boxcar width: 0
XAxis mode: Wavelengths
Number of Pixels in Spectrum: 3648
>>>>>Begin Spectral Data<<<<<
178.204	-98.13
178.424	-98.13
178.644	-98.13
178.864	-10.07
179.084	4.27
179.304	-53.08
179.524	0.17
179.744	28.84
179.964	18.6
180.184	-24.4
180.404	61.61
180.624	28.84
180.844	-8.02
181.064	26.79
181.283	-77.65
181.503	-30.55
181.723	28.84
181.943	-3.93
182.163	16.55
182.383	14.51
182.602	14.51
182.822	14.51
183.042	20.65
183.262	4.27
183.482	8.36
183.701	-24.4
183.921	22.7
184.141	55.47
184.361	45.23
184.58	34.99
184.8	-44.88
185.02	-3.93
185.239	-36.69
185.459	84.14
185.679	20.65
185.898	10.41
186.118	-75.6
186.338	45.23
186.557	-1.88
186.777	-3.93
186.997	6.31
187.216	-63.32
187.436	34.99
187.655	20.65
187.875	8.36
188.095	49.32
188.314	45.23
188.534	-10.07
188.753	6.31
188.973	45.23
189.192	8.36
189.412	-42.84
189.631	69.8
189.851	2.22
190.07	-18.26
190.29	75.95
190.509	20.65
190.729	63.66
190.948	32.94
191.168	102.57
191.387	18.6
191.607	8.36
191.826	-18.26
192.045	-3.93
192.265	39.08
192.484	6.31
192.704	67.75
192.923	77.99
193.142	-14.17
193.362	-40.79
193.581	71.85
193.8	18.6
194.02	24.75
194.239	94.38
194.458	53.42
194.678	-14.17
194.897	22.7
195.116	-8.02
195.335	22.7
195.555	53.42
195.774	28.84
195.993	-26.45
196.212	45.23
196.432	0.17
196.651	10.41
196.87	67.75
197.089	39.08
197.308	-5.97
197.528	-1.88
197.747	20.65
197.966	-5.97
198.185	55.47
198.404	47.27
198.623	26.79
198.842	47.27
199.062	53.42
199.281	45.23
199.5	0.17
199.719	63.66
199.938	-3.93
200.157	53.42
200.376	16.55
200.595	53.42
200.814	-30.55
201.033	8.36
201.252	28.84
201.471	0.17
201.69	-26.45
201.909	32.94
202.128	-1.88
202.347	34.99
202.566	14.51
202.785	2.22
203.004	49.32
203.223	53.42
203.442	32.94
203.661	18.6
203.879	22.7
204.098	63.66
204.317	12.46
204.536	69.8
204.755	-20.31
204.974	53.42
205.193	59.56
205.411	20.65
205.63	96.43
205.849	39.08
206.068	-3.93
206.287	20.65
206.505	-61.27
206.724	30.89
206.943	26.79
207.162	61.61
207.381	51.37
207.599	14.51
207.818	-12.12
208.037	-28.5
208.255	-12.12
208.474	61.61
208.693	-5.97
208.911	69.8
209.13	12.46
209.349	-77.65
209.567	59.56
209.786	32.94
210.005	34.99
210.223	131.24
210.442	32.94
210.661	47.27
210.879	-36.69
211.098	8.36
211.316	22.7
211.535	30.89
211.753	-16.21
211.972	37.03
212.191	6.31
212.409	-18.26
212.628	0.17
212.846	0.17
213.065	32.94
213.283	-1.88
213.502	2.22
213.72	34.99
213.938	37.03
214.157	-1.88
214.375	-18.26
214.594	6.31
214.812	12.46
215.031	28.84
215.249	28.84
215.467	16.55
215.686	-32.6
215.904	53.42
216.122	-30.55
216.341	63.66
216.559	30.89
216.778	39.08
216.996	47.27
217.214	53.42
217.432	-28.5
217.651	49.32
217.869	39.08
218.087	65.71
218.306	63.66
218.524	39.08
218.742	-3.93
218.96	73.9
219.179	61.61
219.397	63.66
219.615	-44.88
219.833	45.23
220.051	16.55
220.27	16.55
220.488	77.99
220.706	98.47
220.924	-26.45
221.142	28.84
221.36	-3.93
221.578	100.52
221.796	71.85
222.015	-44.88
222.233	-1.88
222.451	65.71
222.669	-44.88
222.887	22.7
223.105	67.75
223.323	102.57
223.541	41.13
223.759	49.32
223.977	-48.98
224.195	12.46
224.413	43.18
224.631	-1.88
224.849	20.65
225.067	61.61
225.285	26.79
225.503	22.7
225.721	47.27
225.939	34.99
226.157	63.66
226.375	90.28
226.592	-1.88
226.81	94.38
227.028	49.32
227.246	47.27
227.464	-28.5
227.682	92.33
227.9	39.08
228.117	20.65
228.335	-32.6
228.553	-36.69
228.771	43.18
228.989	49.32
229.206	-14.17
229.424	-102.23
229.642	61.61
229.86	12.46
230.077	0.17
230.295	24.75
230.513	24.75
230.731	69.8
230.948	45.23
231.166	41.13
231.384	14.51
231.601	-32.6
231.819	30.89
232.037	69.8
232.254	55.47
232.472	-30.55
232.689	69.8
232.907	114.86
233.125	18.6
233.342	-12.12
233.56	-14.17
233.777	24.75
233.995	39.08
234.213	8.36
234.43	110.76
234.648	-32.6
234.865	26.79
235.083	10.41
235.3	-12.12
235.518	8.36
235.735	-5.97
235.953	112.81
236.17	10.41
236.388	39.08
236.605	4.27
236.822	14.51
237.04	55.47
237.257	-1.88
237.475	-38.74
237.692	69.8
237.909	47.27
238.127	2.22
238.344	88.23
238.562	37.03
238.779	61.61
238.996	6.31
239.214	-1.88
239.431	65.71
239.648	4.27
239.865	-3.93
240.083	0.17
240.3	47.27
240.517	55.47
240.735	-26.45
240.952	18.6
241.169	0.17
241.386	39.08
241.603	143.53
241.821	0.17
242.038	8.36
242.255	0.17
242.472	2.22
242.689	59.56
242.907	34.99
243.124	28.84
243.341	22.7
243.558	63.66
243.775	30.89
243.992	12.46
244.209	45.23
244.426	-1.88
244.643	37.03
244.86	2.22
245.078	-24.4
245.295	-40.79
245.512	34.99
245.729	57.51
245.946	4.27
246.163	65.71
246.38	22.7
246.597	84.14
246.814	-34.64
247.031	43.18
247.248	-16.21
247.464	-42.84
247.681	-1.88
247.898	-42.84
248.115	20.65
248.332	98.47
248.549	57.51
248.766	0.17
248.983	61.61
249.2	12.46
249.417	18.6
249.633	4.27
249.85	28.84
250.067	-10.07
250.284	39.08
250.501	-71.51
250.717	112.81
250.934	61.61
251.151	47.27
251.368	-5.97
251.585	37.03
251.801	0.17
252.018	6.31
252.235	94.38
252.451	-5.97
252.668	-3.93
252.885	-42.84
253.102	47.27
253.318	65.71
253.535	-40.79
253.752	6.31
253.968	-38.74
254.185	49.32
254.401	94.38
254.618	4.27
254.835	39.08
255.051	84.14
255.268	55.47
255.484	100.52
255.701	2.22
255.917	4.27
256.134	34.99
256.351	39.08
256.567	53.42
256.784	14.51
257	-28.5
257.217	2.22
257.433	-3.93
257.65	-3.93
257.866	6.31
258.082	8.36
258.299	71.85
258.515	49.32
258.732	32.94
258.948	61.61
259.165	24.75
259.381	28.84
259.597	45.23
259.814	65.71
260.03	-42.84
260.246	69.8
260.463	59.56
260.679	20.65
260.895	-34.64
261.112	45.23
261.328	-12.12
261.544	49.32
261.761	16.55
261.977	6.31
262.193	45.23
262.409	45.23
262.626	77.99
262.842	51.37
263.058	-32.6
263.274	39.08
263.49	55.47
263.707	47.27
263.923	47.27
264.139	-46.93
264.355	43.18
264.571	65.71
264.787	28.84
265.004	34.99
265.22	-20.31
265.436	45.23
265.652	-3.93
265.868	90.28
266.084	-5.97
266.3	20.65
266.516	20.65
266.732	47.27
266.948	14.51
267.164	53.42
267.38	41.13
267.596	16.55
267.812	94.38
268.028	18.6
268.244	45.23
268.46	28.84
268.676	63.66
268.892	53.42
269.108	2.22
269.324	14.51
269.54	-53.08
269.756	57.51
269.972	-10.07
270.188	88.23
270.403	2.22
270.619	-20.31
270.835	73.9
271.051	80.04
271.267	-20.31
271.483	16.55
271.698	30.89
271.914	65.71
272.13	24.75
272.346	47.27
272.562	14.51
272.777	-3.93
272.993	51.37
273.209	6.31
273.425	45.23
273.64	28.84
273.856	80.04
274.072	24.75
274.287	53.42
274.503	96.43
274.719	43.18
274.934	20.65
275.15	45.23
275.366	-26.45
275.581	22.7
275.797	-36.69
276.012	34.99
276.228	47.27
276.444	69.8
276.659	77.99
276.875	59.56
277.09	6.31
277.306	65.71
277.521	41.13
277.737	-22.36
277.952	-36.69
278.168	14.51
278.383	100.52
278.599	90.28
278.814	53.42
279.03	82.09
279.245	69.8
279.461	80.04
279.676	14.51
279.892	16.55
280.107	-16.21
280.322	-12.12
280.538	55.47
280.753	75.95
280.969	47.27
281.184	2.22
281.399	57.51
281.615	-8.02
281.83	45.23
282.045	34.99
282.26	28.84
282.476	6.31
282.691	-28.5
282.906	10.41
283.122	69.8
283.337	57.51
283.552	37.03
283.767	-12.12
283.983	73.9
284.198	-36.69
284.413	102.57
284.628	4.27
284.843	41.13
285.058	61.61
285.274	49.32
285.489	84.14
285.704	-18.26
285.919	57.51
286.134	77.99
286.349	4.27
286.564	37.03
286.779	41.13
286.995	55.47
287.21	71.85
287.425	4.27
287.64	30.89
287.855	82.09
288.07	32.94
288.285	37.03
288.5	20.65
288.715	43.18
288.93	22.7
289.145	45.23
289.36	77.99
289.575	4.27
289.79	37.03
290.004	45.23
290.219	16.55
290.434	-14.17
290.649	47.27
290.864	80.04
291.079	-30.55
291.294	12.46
291.509	30.89
291.724	43.18
291.938	-26.45
292.153	2.22
292.368	-32.6
292.583	65.71
292.798	45.23
293.012	-5.97
293.227	-3.93
293.442	45.23
293.657	-22.36
293.871	137.38
294.086	22.7
294.301	-34.64
294.516	41.13
294.73	73.9
294.945	77.99
295.16	69.8
295.374	-16.21
295.589	10.41
295.804	45.23
296.018	24.75
296.233	37.03
296.447	-20.31
296.662	104.62
296.877	77.99
297.091	59.56
297.306	6.31
297.52	86.19
297.735	59.56
297.949	-8.02
298.164	43.18
298.378	28.84
298.593	63.66
298.807	18.6
299.022	28.84
299.236	32.94
299.451	69.8
299.665	45.23
299.88	45.23
300.094	53.42
300.309	-10.07
300.523	28.84
300.737	45.23
300.952	30.89
301.166	37.03
301.381	12.46
301.595	18.6
301.809	4.27
302.024	51.37
302.238	24.75
302.452	55.47
302.667	12.46
302.881	90.28
303.095	14.51
303.309	37.03
303.524	-32.6
303.738	4.27
303.952	53.42
304.166	8.36
304.381	-14.17
304.595	26.79
304.809	80.04
305.023	80.04
305.237	39.08
305.452	30.89
305.666	-14.17
305.88	67.75
306.094	6.31
306.308	104.62
306.522	-8.02
306.736	37.03
306.95	4.27
307.164	-28.5
307.379	-34.64
307.593	47.27
307.807	-22.36
308.021	71.85
308.235	75.95
308.449	47.27
308.663	12.46
308.877	39.08
309.091	28.84
309.305	53.42
309.519	71.85
309.733	-8.02
309.947	63.66
310.161	80.04
310.374	-20.31
310.588	118.95
310.802	-22.36
311.016	30.89
311.23	110.76
311.444	65.71
311.658	43.18
311.872	69.8
312.085	94.38
312.299	96.43
312.513	49.32
312.727	47.27
312.941	-1.88
313.154	12.46
313.368	41.13
313.582	49.32
313.796	4.27
314.009	53.42
314.223	32.94
314.437	71.85
314.651	61.61
314.864	-10.07
315.078	18.6
315.292	108.71
315.505	77.99
315.719	8.36
315.933	-10.07
316.146	22.7
316.36	-8.02
316.573	63.66
316.787	-48.98
317.001	18.6
317.214	22.7
317.428	-10.07
317.641	69.8
317.855	14.51
318.068	49.32
318.282	75.95
318.495	12.46
318.709	32.94
318.922	94.38
319.136	71.85
319.349	49.32
319.563	-8.02
319.776	59.56
319.99	-10.07
320.203	86.19
320.417	47.27
320.63	-1.88
320.843	37.03
321.057	41.13
321.27	4.27
321.483	102.57
321.697	69.8
321.91	71.85
322.124	47.27
322.337	49.32
322.55	59.56
322.763	51.37
322.977	34.99
323.19	4.27
323.403	-34.64
323.617	47.27
323.83	90.28
324.043	41.13
324.256	73.9
324.469	26.79
324.683	45.23
324.896	28.84
325.109	6.31
325.322	12.46
325.535	63.66
325.748	77.99
325.962	-12.12
326.175	104.62
326.388	84.14
326.601	26.79
326.814	55.47
327.027	-14.17
327.24	102.57
327.453	-20.31
327.666	39.08
327.879	43.18
328.092	55.47
328.305	4.27
328.518	8.36
328.731	28.84
328.944	20.65
329.157	-12.12
329.37	86.19
329.583	41.13
329.796	75.95
330.009	-24.4
330.222	-12.12
330.435	49.32
330.648	12.46
330.861	34.99
331.073	112.81
331.286	32.94
331.499	18.6
331.712	0.17
331.925	39.08
332.138	-12.12
332.35	108.71
332.563	-3.93
332.776	-36.69
332.989	69.8
333.202	34.99
333.414	-22.36
333.627	61.61
333.84	28.84
334.053	61.61
334.265	0.17
334.478	82.09
334.691	14.51
334.903	43.18
335.116	30.89
335.329	16.55
335.541	28.84
335.754	77.99
335.966	-53.08
336.179	28.84
336.392	30.89
336.604	49.32
336.817	2.22
337.029	55.47
337.242	63.66
337.454	-18.26
337.667	45.23
337.88	51.37
338.092	30.89
338.305	114.86
338.517	37.03
338.729	39.08
338.942	-10.07
339.154	94.38
339.367	55.47
339.579	-34.64
339.792	32.94
340.004	75.95
340.217	22.7
340.429	73.9
340.641	37.03
340.854	39.08
341.066	6.31
341.278	41.13
341.491	10.41
341.703	73.9
341.915	-28.5
342.128	51.37
342.34	-36.69
342.552	-26.45
342.764	24.75
342.977	129.19
343.189	12.46
343.401	24.75
343.613	71.85
343.826	24.75
344.038	92.33
344.25	14.51
344.462	37.03
344.674	75.95
344.886	-30.55
345.099	39.08
345.311	98.47
345.523	71.85
345.735	69.8
345.947	75.95
346.159	4.27
346.371	71.85
346.583	16.55
346.795	28.84
347.007	90.28
347.219	20.65
347.431	30.89
347.643	110.76
347.855	4.27
348.067	49.32
348.279	34.99
348.491	41.13
348.703	-40.79
348.915	-71.51
349.127	71.85
349.339	118.95
349.551	53.42
349.763	20.65
349.975	12.46
350.187	37.03
350.399	63.66
350.61	-12.12
350.822	-8.02
351.034	104.62
351.246	49.32
351.458	-12.12
351.669	16.55
351.881	77.99
352.093	8.36
352.305	102.57
352.517	82.09
352.728	67.75
352.94	88.23
353.152	14.51
353.363	43.18
353.575	-26.45
353.787	94.38
353.999	102.57
354.21	-3.93
354.422	-1.88
354.633	20.65
354.845	34.99
355.057	59.56
355.268	41.13
355.48	-5.97
355.692	34.99
355.903	-12.12
356.115	63.66
356.326	49.32
356.538	127.14
356.749	61.61
356.961	75.95
357.172	24.75
357.384	14.51
357.595	51.37
357.807	55.47
358.018	45.23
358.23	18.6
358.441	88.23
358.653	-18.26
358.864	28.84
359.075	98.47
359.287	18.6
359.498	114.86
359.709	-22.36
359.921	67.75
360.132	82.09
360.344	37.03
360.555	49.32
360.766	18.6
360.977	71.85
361.189	63.66
361.4	47.27
361.611	47.27
361.823	32.94
362.034	4.27
362.245	34.99
362.456	37.03
362.667	6.31
362.879	26.79
363.09	59.56
363.301	24.75
363.512	28.84
363.723	32.94
363.935	-1.88
364.146	69.8
364.357	-32.6
364.568	41.13
364.779	20.65
364.99	86.19
365.201	28.84
365.412	73.9
365.623	-10.07
365.834	94.38
366.045	18.6
366.256	61.61
366.467	67.75
366.678	20.65
366.889	57.51
367.1	34.99
367.311	30.89
367.522	92.33
367.733	53.42
367.944	57.51
368.155	24.75
368.366	67.75
368.577	30.89
368.788	-8.02
368.999	-10.07
369.209	90.28
369.42	69.8
369.631	129.19
369.842	4.27
370.053	53.42
370.264	45.23
370.474	80.04
370.685	80.04
370.896	55.47
371.107	65.71
371.317	49.32
371.528	65.71
371.739	55.47
371.95	55.47
372.16	49.32
372.371	32.94
372.582	53.42
372.792	6.31
373.003	75.95
373.214	63.66
373.424	69.8
373.635	73.9
373.846	24.75
374.056	20.65
374.267	151.72
374.477	100.52
374.688	55.47
374.898	10.41
375.109	77.99
375.319	32.94
375.53	116.9
375.74	28.84
375.951	41.13
376.161	28.84
376.372	22.7
376.582	57.51
376.793	30.89
377.003	20.65
377.214	133.29
377.424	45.23
377.635	28.84
377.845	30.89
378.055	61.61
378.266	20.65
378.476	12.46
378.686	86.19
378.897	30.89
379.107	71.85
379.317	90.28
379.528	55.47
379.738	37.03
379.948	26.79
380.158	100.52
380.369	32.94
380.579	63.66
380.789	73.9
380.999	145.58
381.21	18.6
381.42	32.94
381.63	37.03
381.84	129.19
382.05	131.24
382.261	20.65
382.471	37.03
382.681	-3.93
382.891	86.19
383.101	77.99
383.311	20.65
383.521	57.51
383.731	75.95
383.941	41.13
384.151	77.99
384.361	71.85
384.571	86.19
384.781	37.03
384.991	69.8
385.201	102.57
385.411	20.65
385.621	14.51
385.831	41.13
386.041	71.85
386.251	61.61
386.461	112.81
386.671	59.56
386.881	71.85
387.091	41.13
387.301	55.47
387.511	22.7
387.72	53.42
387.93	28.84
388.14	20.65
388.35	45.23
388.56	80.04
388.769	32.94
388.979	71.85
389.189	123.05
389.399	24.75
389.609	10.41
389.818	108.71
390.028	39.08
390.238	88.23
390.447	39.08
390.657	61.61
390.867	14.51
391.076	77.99
391.286	18.6
391.496	73.9
391.705	71.85
391.915	67.75
392.125	86.19
392.334	57.51
392.544	-28.5
392.753	67.75
392.963	32.94
393.172	71.85
393.382	55.47
393.591	92.33
393.801	39.08
394.01	59.56
394.22	69.8
394.429	63.66
394.639	47.27
394.848	20.65
395.058	123.05
395.267	20.65
395.477	22.7
395.686	94.38
395.895	32.94
396.105	86.19
396.314	75.95
396.524	96.43
396.733	55.47
396.942	110.76
397.152	77.99
397.361	63.66
397.57	139.43
397.78	37.03
397.989	51.37
398.198	102.57
398.407	24.75
398.617	96.43
398.826	90.28
399.035	80.04
399.244	108.71
399.453	63.66
399.663	14.51
399.872	71.85
400.081	98.47
400.29	82.09
400.499	86.19
400.708	110.76
400.917	125.1
401.127	153.77
401.336	116.9
401.545	174.25
401.754	168.1
401.963	118.95
402.172	139.43
402.381	90.28
402.59	80.04
402.799	131.24
403.008	86.19
403.217	80.04
403.426	143.53
403.635	102.57
403.844	73.9
404.053	127.14
404.262	182.44
404.471	125.1
404.68	86.19
404.888	104.62
405.097	108.71
405.306	196.78
405.515	157.86
405.724	112.81
405.933	116.9
406.142	110.76
406.35	186.54
406.559	186.54
406.768	151.72
406.977	254.12
407.185	141.48
407.394	223.4
407.603	235.69
407.812	135.34
408.02	184.49
408.229	233.64
408.438	211.11
408.646	207.02
408.855	149.67
409.064	209.06
409.272	252.07
409.481	344.23
409.69	266.41
409.898	311.46
410.107	293.03
410.315	374.95
410.524	239.78
410.733	319.65
410.941	286.89
411.15	387.24
411.358	303.27
411.567	352.42
411.775	372.9
411.984	368.81
412.192	356.52
412.401	301.22
412.609	397.48
412.818	377
413.026	358.57
413.234	403.62
413.443	487.59
413.651	467.11
413.86	424.1
414.068	616.61
414.276	610.47
414.485	553.12
414.693	530.59
414.901	589.99
415.11	491.68
415.318	669.86
415.526	620.71
415.734	610.47
415.943	612.51
416.151	694.43
416.359	747.68
416.567	741.54
416.776	673.95
416.984	868.51
417.192	845.98
417.4	852.13
417.608	854.17
417.817	927.9
418.025	989.34
418.233	1034.39
418.441	1028.25
418.649	989.34
418.857	1030.3
419.065	1183.9
419.273	1122.46
419.481	1149.08
419.689	1253.53
419.897	1325.21
420.105	1374.36
420.313	1466.52
420.521	1474.71
420.729	1341.59
420.937	1450.13
421.145	1478.8
421.353	1620.11
421.561	1642.64
421.769	1667.22
421.977	1693.84
422.185	1804.43
422.393	2072.72
422.601	2025.61
422.809	1923.21
423.017	1970.32
423.224	2138.25
423.432	2132.11
423.64	2197.64
423.848	2267.27
424.056	2373.77
424.263	2455.69
424.471	2343.05
424.679	2494.6
424.887	2560.13
425.094	2695.3
425.302	2771.07
425.51	2805.89
425.718	2955.39
425.925	2996.35
426.133	2975.87
426.341	3217.53
426.548	3321.98
426.756	3387.51
426.964	3432.57
427.171	3500.15
427.379	3733.62
427.586	3784.82
427.794	3936.37
428.001	4118.64
428.209	4223.08
428.417	4028.53
428.624	4352.1
428.832	4429.93
429.039	4579.43
429.247	4642.92
429.454	4917.34
429.662	5152.86
429.869	4878.43
430.076	5156.96
430.284	5101.66
430.491	5359.7
430.699	5666.9
430.906	5451.86
431.114	5634.13
431.321	5945.42
431.528	5832.79
431.736	6434.89
431.943	6529.1
432.15	6377.55
432.358	6584.39
432.565	6903.87
432.772	6830.15
432.979	7188.54
433.187	7196.73
433.394	7295.04
433.601	8050.74
433.808	7850.03
434.016	7811.12
434.223	8308.78
434.43	8695.85
434.637	8310.83
434.844	9093.15
435.052	9160.73
435.259	9261.09
435.466	9279.52
435.673	9021.47
435.88	9633.82
436.087	10295.31
436.294	10145.81
436.501	10119.18
436.708	9981.97
436.915	10545.16
437.122	10915.84
437.329	10938.37
437.537	11114.5
437.743	11341.82
437.95	11319.29
438.157	12023.8
438.364	12470.25
438.571	12333.04
438.778	12496.88
438.985	13498.33
439.192	13062.12
439.399	13586.4
439.606	13113.31
439.813	14137.3
440.02	14614.48
440.227	14538.7
440.433	14129.11
440.64	15067.08
440.847	14815.18
441.054	15110.08
441.261	15790.01
441.467	15927.22
441.674	16277.43
441.881	16689.07
442.088	16850.86
442.294	16514.99
442.501	16945.06
442.708	17162.15
442.914	18007.96
443.121	18790.28
443.328	18124.69
443.534	19494.79
443.741	18884.49
443.948	18661.26
444.154	20268.92
444.361	20035.45
444.568	20232.05
444.774	20199.29
444.981	20328.31
445.187	20838.25
445.394	21858.14
445.6	21555.04
445.807	23396.17
446.013	22869.84
446.22	23172.94
446.426	23877.44
446.633	23902.01
446.839	24852.27
447.046	23744.32
447.252	25239.34
447.459	25138.99
447.665	24960.81
447.871	26326.81
448.078	27311.88
448.284	25990.94
448.491	26500.89
448.697	27494.15
448.903	28368.63
449.11	27983.62
449.316	27612.93
449.522	28100.35
449.728	29085.42
449.935	29220.59
450.141	29642.47
450.347	29456.11
450.553	28856.05
450.76	29314.8
450.966	30062.3
451.172	30142.17
451.378	30672.6
451.584	30029.54
451.791	30850.77
451.997	30742.23
452.203	31401.68
452.409	31035.09
452.615	30834.39
452.821	29939.43
453.027	29488.87
453.233	31123.15
453.44	30076.64
453.646	30232.29
453.852	30265.05
454.058	30836.44
454.264	29654.76
454.47	30453.47
454.676	29540.07
454.882	30650.07
455.088	27860.74
455.294	28432.12
455.5	28552.95
455.705	29054.7
455.911	27610.89
456.117	27168.52
456.323	26539.8
456.529	25415.46
456.735	26720.02
456.941	26177.31
457.147	25677.6
457.352	24923.95
457.558	24416.05
457.764	24710.96
457.97	24147.77
458.176	23586.63
458.381	23670.59
458.587	22560.59
458.793	22411.09
458.999	21350.24
459.204	22617.94
459.41	22359.89
459.616	20762.48
459.821	20969.32
460.027	20705.13
460.233	20123.51
460.438	19224.45
460.644	19472.26
460.85	18751.37
461.055	18372.5
461.261	18177.94
461.466	16934.82
461.672	16099.25
461.878	17592.22
462.083	16181.17
462.289	16013.24
462.494	16086.97
462.7	15161.28
462.905	14909.38
463.111	15144.9
463.316	15388.61
463.522	14872.52
463.727	15249.35
463.932	15067.08
464.138	15005.64
464.343	15030.21
464.549	14741.45
464.754	14919.62
464.959	14989.25
465.165	14903.24
465.37	14448.59
465.575	13983.7
465.781	14264.27
465.986	14309.33
466.191	13981.65
466.397	13537.24
466.602	13031.4
466.807	13377.5
467.012	13520.86
467.218	13471.71
467.423	13023.2
467.628	13391.84
467.833	13873.11
468.038	13305.82
468.244	13017.06
468.449	13301.73
468.654	12949.48
468.859	13055.97
469.064	12816.36
469.269	12365.81
469.474	12609.51
469.679	12785.64
469.885	12378.09
470.09	12738.54
470.295	12400.62
470.5	11919.35
470.705	12267.5
470.91	11999.22
471.115	11851.77
471.32	11954.16
471.525	11911.16
471.73	11679.74
471.935	11702.26
472.139	11335.68
472.344	11294.72
472.549	11352.06
472.754	11243.52
472.959	10715.14
473.164	10799.11
473.369	10469.39
473.574	10897.41
473.778	10831.88
473.983	10838.02
474.188	10661.9
474.393	10211.34
474.598	10100.75
474.802	9994.26
475.007	10014.74
475.212	10063.89
475.417	9592.86
475.621	9639.96
475.826	9656.34
476.031	9615.38
476.235	9242.65
476.44	9478.17
476.645	9244.7
476.849	9435.16
477.054	9222.17
477.259	8986.66
477.463	9127.97
477.668	8904.74
477.872	8925.22
478.077	8968.23
478.282	8603.69
478.486	8712.23
478.691	8499.24
478.895	8310.83
479.1	8568.87
479.304	8421.42
479.509	8149.04
479.713	8282.16
479.918	8163.37
480.122	7958.58
480.326	8339.5
480.531	8314.92
480.735	8024.11
480.94	7991.34
481.144	8243.24
481.348	7886.9
481.553	7800.88
481.757	7714.87
481.961	7843.89
482.166	8179.76
482.37	7936.05
482.574	7688.25
482.778	7731.25
482.983	7931.95
483.187	7845.94
483.391	8085.55
483.595	7667.77
483.8	7841.84
484.004	7807.03
484.208	8015.92
484.412	7819.32
484.616	7829.56
484.821	7698.49
485.025	7778.36
485.229	7960.63
485.433	7936.05
485.637	7794.74
485.841	7710.77
486.045	7675.96
486.249	7839.8
486.453	7761.97
486.657	7665.72
486.861	8052.78
487.065	7741.49
487.269	7575.61
487.473	7774.26
487.677	7802.93
487.881	7811.12
488.085	7776.31
488.289	7888.95
488.493	7755.83
488.697	7964.72
488.901	7710.77
489.105	7993.39
489.309	7960.63
489.512	7792.69
489.716	7731.25
489.92	7845.94
490.124	7921.71
490.328	8056.88
490.531	7786.55
490.735	7931.95
490.939	8005.68
491.143	7880.75
491.346	7954.48
491.55	8114.22
491.754	8060.98
491.958	8261.68
492.161	8159.28
492.365	8263.72
492.569	8171.57
492.772	8110.13
492.976	8196.14
493.18	8362.03
493.383	8394.79
493.587	8523.82
493.79	8437.8
493.994	8468.52
494.197	8489
494.401	8740.9
494.605	8724.52
494.808	8788
495.012	8808.48
495.215	8904.74
495.419	8947.75
495.622	9048.1
495.825	9019.43
496.029	9027.62
496.232	9461.79
496.436	8994.85
496.639	9685.01
496.843	9343
497.046	9547.8
497.249	9592.86
497.453	9797.65
497.656	9822.23
497.859	9932.82
498.063	9977.87
498.266	10229.77
498.469	10266.64
498.673	10350.6
498.876	10389.52
499.079	10620.94
499.282	10674.18
499.485	10752.01
499.689	10760.2
499.892	10995.71
500.095	11272.19
500.298	11397.12
500.501	11421.69
500.705	11503.61
500.908	11554.81
501.111	12021.75
501.314	11864.05
501.517	11991.03
501.72	12269.55
501.923	12171.25
502.126	12537.84
502.329	12556.27
502.532	12701.67
502.735	12828.65
502.938	12859.37
503.141	12963.81
503.344	13490.14
503.547	13348.83
503.75	13682.65
503.953	13750.23
504.156	13852.63
504.359	13912.02
504.562	14233.55
504.765	14188.5
504.968	14585.8
505.17	14620.62
505.373	14577.61
505.576	15022.02
505.779	15255.49
505.982	15431.62
506.185	15560.64
506.387	15542.21
506.59	15886.26
506.793	16355.25
506.996	15843.26
507.198	16846.76
507.401	16461.74
507.604	16523.18
507.807	17196.96
508.009	17131.43
508.212	17289.12
508.415	17553.31
508.617	17858.46
508.82	17758.11
509.022	17878.94
509.225	18161.56
509.428	18505.62
509.63	18534.29
509.833	18728.84
510.035	18814.86
510.238	19017.61
510.44	19525.5
510.643	19877.76
510.845	19910.52
511.048	19892.09
511.25	20143.99
511.453	20467.57
511.655	21311.33
511.858	20709.23
512.06	20975.47
512.262	21309.29
512.465	21591.91
512.667	21833.57
512.87	22089.56
513.072	21962.59
513.274	22603.6
513.477	22724.43
513.679	23129.93
513.881	23125.83
514.084	23377.73
514.286	23322.44
514.488	23848.77
514.69	24133.43
514.893	24155.96
515.095	24493.88
515.297	24813.36
515.499	24989.49
515.701	25298.73
515.904	25470.76
516.106	25896.74
516.308	26277.66
516.51	26605.33
516.712	26474.26
516.914	26570.52
517.116	27227.92
517.318	27217.68
517.52	27473.67
517.722	27434.76
517.925	27913.98
518.127	28671.73
518.329	28692.21
518.531	28608.25
518.733	28972.78
518.935	29245.16
519.136	29560.55
519.338	29740.77
519.54	29716.2
519.742	30277.34
519.944	30467.8
520.146	31037.14
520.348	31076.05
520.55	31252.17
520.752	31422.16
520.954	32222.91
521.155	31807.17
521.357	32513.72
521.559	32700.09
521.761	33506.99
521.963	33107.63
522.164	33711.78
522.366	33480.36
522.568	33799.85
522.77	34381.47
522.971	34191.01
523.173	34680.47
523.375	34524.83
523.576	34713.24
523.778	34885.27
523.98	35272.34
524.181	35624.59
524.383	35831.43
524.584	36003.46
524.786	35825.29
524.988	36318.85
525.189	36740.73
525.391	36787.83
525.592	36912.76
525.794	37072.5
525.995	37205.62
526.197	37256.82
526.398	37394.03
526.6	37404.27
526.801	37758.57
527.003	37965.42
527.204	38235.75
527.406	38389.34
527.607	38313.57
527.808	38553.18
528.01	37998.18
528.211	38399.58
528.412	39370.32
528.614	38696.54
528.815	38975.06
529.016	39298.64
529.218	39151.19
529.419	39155.29
529.62	39689.81
529.822	39378.51
530.023	39628.37
530.224	39734.86
530.425	39523.92
530.626	39540.3
530.828	39378.51
531.029	40402.5
531.23	39353.94
531.431	39661.13
531.632	40191.56
531.833	40035.91
532.035	40291.91
532.236	40150.6
532.437	40175.17
532.638	40062.54
532.839	40396.35
533.04	40566.34
533.241	40015.43
533.442	40816.19
533.643	40771.13
533.844	40377.92
534.045	40312.39
534.246	40183.37
534.447	40781.37
534.648	40359.49
534.849	41020.98
535.05	40197.7
535.251	40762.94
535.451	40519.23
535.652	40969.79
535.853	40574.53
536.054	40945.21
536.255	40517.18
536.456	40388.16
536.657	41256.5
536.857	40599.1
537.058	40513.09
537.259	40928.83
537.46	40709.69
537.66	40488.51
537.861	40781.37
538.062	40717.89
538.263	40691.26
538.463	40162.89
538.664	40871.48
538.865	41010.74
539.065	40545.86
539.266	40209.99
539.466	41178.68
539.667	40339.01
539.868	41053.75
540.068	40941.11
540.269	40476.23
540.469	41317.94
540.67	40836.67
540.87	41141.81
541.071	40433.22
541.271	40785.47
541.472	40861.24
541.672	39945.8
541.873	40531.52
542.073	40279.62
542.274	40959.55
542.474	40478.27
542.675	40400.45
542.875	40664.64
543.075	40758.84
543.276	40273.48
543.476	40793.66
543.676	40576.58
543.877	40916.54
544.077	40332.87
544.277	40932.92
544.478	40947.26
544.678	40810.04
544.878	40453.7
545.078	40789.56
545.279	40478.27
545.479	40400.45
545.679	40404.55
545.879	40664.64
546.079	40457.79
546.28	40552
546.48	40222.28
546.68	40701.5
546.88	40666.69
547.08	40595.01
547.28	40197.7
547.48	40128.07
547.68	41002.55
547.88	40246.85
548.081	40494.66
548.281	40410.69
548.481	39945.8
548.681	40527.42
548.881	40308.29
549.081	40558.14
549.28	39794.25
549.48	40644.16
549.68	40181.32
549.88	40816.19
550.08	40220.23
550.28	40173.13
550.48	40070.73
550.68	40556.1
550.88	40304.2
551.08	40152.65
551.279	40177.22
551.479	40267.33
551.679	40414.79
551.879	40005.19
552.079	40197.7
552.278	40115.78
552.478	40240.71
552.678	40097.35
552.878	40132.17
553.077	40097.35
553.277	39800.4
553.477	40242.76
553.676	39935.56
553.876	40197.7
554.076	40359.49
554.275	39589.45
554.475	39423.57
554.674	39876.17
554.874	39833.16
555.074	39738.96
555.273	40078.92
555.473	39837.26
555.672	39437.9
555.872	39521.87
556.071	39648.85
556.271	40068.68
556.47	39233.11
556.67	39321.17
556.869	39315.03
557.068	39587.41
557.268	39249.49
557.467	39466.58
557.667	39202.39
557.866	39186
558.065	39366.23
558.265	39261.78
558.464	38706.78
558.663	39859.79
558.863	38815.32
559.062	39249.49
559.261	38567.52
559.461	39302.74
559.66	38555.23
559.859	38907.48
560.058	38334.05
560.258	38786.65
560.457	38592.09
560.656	38733.4
560.855	38444.64
561.054	38540.89
561.253	37879.4
561.453	38559.33
561.652	38297.19
561.851	38291.04
562.05	38385.25
562.249	38059.62
562.448	38291.04
562.647	37772.91
562.846	38086.25
563.045	37656.17
563.244	37748.33
563.443	37979.75
563.642	37322.35
563.841	37785.19
564.04	37416.56
564.239	37817.96
564.438	37351.02
564.637	37297.78
564.836	37820.01
565.035	36970.1
565.234	37164.66
565.432	37351.02
565.631	36988.53
565.83	37170.8
566.029	37162.61
566.228	36879.99
566.427	36609.66
566.625	36732.54
566.824	36085.38
567.023	36540.03
567.222	35817.1
567.42	36746.87
567.619	36302.46
567.818	36540.03
568.016	36097.67
568.215	36275.84
568.414	36273.79
568.612	36290.18
568.811	35880.58
569.01	36195.97
569.208	35778.18
569.407	36329.09
569.605	35626.64
569.804	36005.51
570.002	35057.3
570.201	35724.94
570.4	35387.02
570.598	34975.38
570.797	35253.9
570.995	35149.46
571.193	34727.58
571.392	35323.54
571.59	34545.31
571.789	34811.54
571.987	34735.77
572.186	34502.3
572.384	33906.34
572.582	34770.58
572.781	34537.12
572.979	34000.55
573.177	34350.75
573.376	34346.65
573.574	33578.67
573.772	33918.63
573.971	33744.55
574.169	33629.87
574.367	33679.02
574.565	33744.55
574.763	33451.69
574.962	33218.22
575.16	32995
575.358	33504.94
575.556	33017.52
575.754	33564.33
575.952	32741.05
576.151	33093.3
576.349	32493.24
576.547	32679.61
576.745	32616.12
576.943	32433.85
577.141	32106.18
577.339	32304.83
577.537	32095.94
577.735	32317.12
577.933	31622.86
578.131	32331.45
578.329	31987.39
578.527	31729.35
578.725	31674.06
578.923	31653.58
579.121	31608.52
579.319	31420.11
579.516	31565.51
579.714	31170.26
579.912	31196.88
580.11	31319.76
580.308	30998.23
580.506	30672.6
580.704	30422.75
580.901	30877.4
581.099	30838.48
581.297	30326.49
581.495	30322.4
581.692	30721.75
581.89	30527.19
582.088	30682.84
582.285	30187.23
582.483	30176.99
582.681	30039.78
582.878	29888.23
583.076	29726.44
583.274	30144.22
583.471	29708.01
583.669	29613.8
583.866	29634.28
584.064	29832.93
584.262	29179.63
584.459	29546.22
584.657	29363.95
584.854	29200.11
585.052	28794.61
585.249	29202.16
585.447	29404.91
585.644	28702.45
585.841	28604.15
586.039	28968.69
586.236	28458.74
586.434	28600.05
586.631	28360.44
586.828	28765.94
587.026	28364.54
587.223	28192.51
587.42	28212.99
587.618	28110.59
587.815	27948.8
588.012	27991.81
588.21	27737.86
588.407	27778.82
588.604	27553.54
588.801	27582.21
588.999	27442.95
589.196	27197.2
589.393	27657.99
589.59	27307.79
589.787	27158.28
589.984	26836.75
590.182	27035.41
590.379	27209.48
590.576	26789.65
590.773	26683.16
590.97	26648.34
591.167	26806.03
591.364	26310.43
591.561	26392.34
591.758	26384.15
591.955	26357.53
592.152	26177.31
592.349	25898.78
592.546	26330.9
592.743	26162.97
592.94	25517.86
593.137	25898.78
593.334	26070.81
593.531	25689.89
593.727	25583.4
593.924	25773.86
594.121	25524.01
594.318	25452.33
594.515	25483.05
594.712	25718.56
594.908	25339.69
595.105	25270.06
595.302	24858.42
595.499	25333.54
595.696	25241.39
595.892	24596.28
596.089	24991.53
596.286	24778.54
596.482	25001.77
596.679	24926
596.876	24858.42
597.072	24862.51
597.269	24563.51
597.466	24227.64
597.662	24104.76
597.859	24483.64
598.055	24254.26
598.252	23916.35
598.448	24213.31
598.645	23928.64
598.841	23799.62
599.038	23957.31
599.234	23942.97
599.431	23535.43
599.627	23363.4
599.824	23678.79
600.02	23324.49
600.217	23381.83
600.413	23318.34
600.609	23424.84
600.806	23396.17
601.002	23285.58
601.198	22857.55
601.395	22884.17
601.591	22718.29
601.787	22902.61
601.984	22773.58
602.18	22656.85
602.376	22615.89
602.572	22302.55
602.769	22615.89
602.965	22189.91
603.161	22634.32
603.357	22261.59
603.553	22460.24
603.75	22032.22
603.946	21849.95
604.142	21993.31
604.338	21667.68
604.534	22067.03
604.73	21651.3
604.926	21704.54
605.122	21806.94
605.318	21501.79
605.514	21331.81
605.71	21227.37
605.906	21446.5
606.102	21260.13
606.298	21315.43
606.494	21309.29
606.69	21294.95
606.886	21176.17
607.082	20805.49
607.278	21313.38
607.474	20320.12
607.67	20612.98
607.866	20760.43
608.062	20645.74
608.257	20486
608.453	20342.64
608.649	20393.84
608.845	20440.95
609.041	20291.45
609.236	20367.22
609.432	20436.85
609.628	20324.21
609.824	20295.54
610.019	20092.79
610.215	20254.58
610.411	20332.4
610.606	19967.87
610.802	20170.61
610.998	20041.59
611.193	19812.22
611.389	19517.31
611.584	19750.78
611.78	19459.97
611.976	19505.03
612.171	19427.2
612.367	19603.33
612.562	19382.15
612.758	19246.98
612.953	19197.83
613.149	19400.58
613.344	19298.18
613.539	19486.59
613.735	19095.43
613.93	18982.79
614.126	19031.94
614.321	19064.71
614.517	19156.87
614.712	18958.22
614.907	18716.56
615.103	19029.9
615.298	18710.41
615.493	19203.97
615.688	18743.18
615.884	18861.96
616.079	18466.7
616.274	18745.23
616.47	18610.06
616.665	18519.95
616.86	18155.41
617.055	18505.62
617.25	18493.33
617.445	18603.92
617.641	18192.28
617.836	18376.59
618.031	18333.59
618.226	18345.87
618.421	17897.37
618.616	18239.38
618.811	17842.07
619.006	18038.68
619.201	17790.88
619.396	17809.31
619.591	17395.62
619.786	17547.17
619.981	17444.77
620.176	17553.31
620.371	17293.22
620.566	17297.31
620.761	16773.03
620.956	17303.46
621.151	17065.89
621.346	16854.95
621.541	16703.4
621.735	16938.92
621.93	16570.29
622.125	16707.5
622.32	16551.85
622.515	16558
622.709	16261.04
622.904	16179.12
623.099	16414.64
623.294	16261.04
623.488	15900.6
623.683	15988.66
623.878	15740.86
624.072	15765.43
624.267	15636.41
624.462	15515.58
624.656	15398.85
624.851	15394.75
625.046	15333.31
625.24	15269.83
625.435	15196.1
625.629	15087.56
625.824	15079.36
626.018	15185.86
626.213	14753.74
626.407	14962.63
626.602	14606.28
626.796	14727.11
626.991	14596.04
627.185	14510.03
627.38	14348.24
627.574	14217.17
627.768	13930.45
627.963	14084.05
628.157	14208.98
628.352	13842.39
628.546	14024.66
628.74	14051.28
628.935	13809.62
629.129	13963.22
629.323	13625.31
629.517	13443.04
629.712	13365.21
629.906	13629.4
630.1	13139.94
630.294	13438.94
630.489	13504.48
630.683	13316.06
630.877	12791.78
631.071	12804.07
631.265	12990.44
631.459	12935.14
631.653	12908.52
631.848	13039.59
632.042	12881.89
632.236	12470.25
632.43	12529.64
632.624	12644.33
632.818	12675.05
633.012	12341.23
633.206	12359.66
633.4	12435.44
633.594	12064.75
633.788	12253.17
633.982	12161.01
634.176	11988.98
634.369	12111.86
634.563	11988.98
634.757	11954.16
634.951	11837.43
635.145	11603.96
635.339	11685.88
635.533	11569.15
635.726	11667.45
635.92	11276.29
636.114	11438.08
636.308	11454.46
636.501	11235.33
636.695	11153.41
636.889	11190.27
637.083	11264
637.276	11128.83
637.47	10962.95
637.664	10864.64
637.857	10895.36
638.051	10838.02
638.244	10737.67
638.438	10670.09
638.632	10670.09
638.825	10629.13
639.019	10692.62
639.212	10532.87
639.406	10741.77
639.599	10248.21
639.793	10313.74
639.986	10299.41
640.18	9998.35
640.373	10201.1
640.567	9961.49
640.76	10000.4
640.954	9957.39
641.147	9965.59
641.34	9789.46
641.534	9703.45
641.727	9646.1
641.92	9859.09
642.114	9674.78
642.307	9617.43
642.5	9605.14
642.694	9420.83
642.887	9531.42
643.08	9441.31
643.273	9355.29
643.467	9308.19
643.66	9211.93
643.853	9170.97
644.046	9240.61
644.239	9166.88
644.432	8894.5
644.626	8880.16
644.819	8906.79
645.012	9082.91
645.205	8728.61
645.398	8796.2
645.591	8630.31
645.784	8699.94
645.977	8491.05
646.17	8675.37
646.363	8421.42
646.556	8572.97
646.749	8587.3
646.942	8271.92
647.135	8261.68
647.328	8351.79
647.521	8224.81
647.714	8083.5
647.907	8339.5
648.099	8075.31
648.292	8083.5
648.485	7964.72
648.678	7925.81
648.871	7905.33
649.064	7778.36
649.256	7774.26
649.449	7696.44
649.642	7905.33
649.835	7655.48
650.027	7739.44
650.22	7583.8
650.413	7393.34
650.605	7510.07
650.798	7436.35
650.991	7358.52
651.183	7249.98
651.376	7200.83
651.568	7372.86
651.761	7166.01
651.954	7241.79
652.146	7305.28
652.339	7151.68
652.531	6991.94
652.724	7024.7
652.916	6936.64
653.109	6881.35
653.301	6834.24
653.494	6924.35
653.686	6834.24
653.879	6809.67
654.071	6801.47
654.263	6774.85
654.456	6762.56
654.648	6762.56
654.84	6631.49
655.033	6385.74
655.225	6535.24
655.417	6492.23
655.61	6502.47
655.802	6393.93
655.994	6336.59
656.186	6281.29
656.379	6418.5
656.571	6471.75
656.763	6162.51
656.955	6203.47
657.148	6205.52
657.34	6176.84
657.532	6013.01
657.724	6021.2
657.916	5998.67
658.108	6008.91
658.3	5910.61
658.492	6074.45
658.684	5935.18
658.876	5888.08
659.068	6041.68
659.26	5777.49
659.452	5726.29
659.644	5752.91
659.836	5587.03
660.028	5808.21
660.22	5613.65
660.412	5611.61
660.604	5591.13
660.796	5384.28
660.988	5398.62
661.18	5247.07
661.372	5316.7
661.563	5556.31
661.755	5279.83
661.947	5294.17
662.139	5320.79
662.331	5371.99
662.522	5234.78
662.714	5152.86
662.906	5029.98
663.097	5075.04
663.289	5142.62
663.481	5144.67
663.673	5021.79
663.864	4943.97
664.056	4866.14
664.247	4935.78
664.439	4827.23
664.631	4903.01
664.822	4833.38
665.014	4866.14
665.205	4976.73
665.397	4683.88
665.588	4569.19
665.78	4690.02
665.971	4765.79
666.163	4792.42
666.354	4726.88
666.546	4626.53
666.737	4634.72
666.929	4620.39
667.12	4565.09
667.311	4601.96
667.503	4536.42
667.694	4540.52
667.885	4464.74
668.077	4460.65
668.268	4456.55
668.459	4458.6
668.651	4323.43
668.842	4354.15
669.033	4313.19
669.224	4378.73
669.416	4335.72
669.607	4251.75
669.798	4264.04
669.989	4190.31
670.18	4233.32
670.371	4218.99
670.563	4313.19
670.754	4100.2
670.945	4124.78
671.136	4108.4
671.327	4092.01
671.518	3997.81
671.709	4100.2
671.9	4175.98
672.091	4092.01
672.282	3960.94
672.473	3950.7
672.664	3936.37
672.855	3999.85
673.046	4051.05
673.237	4026.48
673.428	3999.85
673.619	3940.46
673.809	3821.68
674	3926.13
674.191	3840.11
674.382	3952.75
674.573	3901.55
674.764	3780.72
674.954	3879.02
675.145	3735.67
675.336	3745.91
675.527	3838.06
675.717	3645.56
675.908	3723.38
676.099	3594.36
676.289	3682.42
676.48	3616.88
676.671	3608.69
676.861	3586.16
677.052	3657.84
677.243	3565.68
677.433	3604.6
677.624	3612.79
677.814	3661.94
678.005	3573.88
678.195	3569.78
678.386	3504.25
678.576	3477.62
678.767	3539.06
678.957	3457.14
679.148	3565.68
679.338	3528.82
679.529	3459.19
679.719	3455.09
679.909	3344.5
680.1	3485.81
680.29	3287.16
680.481	3512.44
680.671	3340.41
680.861	3403.89
681.052	3485.81
681.242	3358.84
681.432	3428.47
681.622	3246.2
681.813	3272.82
682.003	3356.79
682.193	3225.72
682.383	3272.82
682.573	3217.53
682.764	3311.74
682.954	3385.46
683.144	3190.91
683.334	3270.78
683.524	3201.15
683.714	3301.5
683.904	3145.85
684.094	3272.82
684.284	3293.3
684.474	3305.59
684.664	3190.91
684.854	3281.02
685.044	3174.52
685.234	3205.24
685.424	3264.63
685.614	3184.76
685.804	3166.33
685.994	3195
686.184	3178.62
686.374	3086.46
686.564	3106.94
686.753	3059.84
686.943	3035.26
687.133	3205.24
687.323	3115.13
687.513	3047.55
687.702	2955.39
687.892	2955.39
688.082	2994.3
688.272	3000.44
688.461	2973.82
688.651	3076.22
688.841	3059.84
689.03	2834.56
689.22	3002.49
689.41	2924.67
689.599	2920.57
689.789	3002.49
689.979	2965.63
690.168	2939.01
690.358	2953.34
690.547	2928.77
690.737	2902.14
690.926	3029.12
691.116	2883.71
691.305	3006.59
691.495	2881.66
691.684	2850.94
691.874	2908.29
692.063	2795.65
692.252	2840.7
692.442	2900.09
692.631	2842.75
692.82	2889.85
693.01	2873.47
693.199	2924.67
693.388	2789.5
693.578	2775.17
693.767	2797.7
693.956	2814.08
694.146	2826.37
694.335	2828.42
694.524	2779.26
694.713	2764.93
694.902	2783.36
695.092	2801.79
695.281	2826.37
695.47	2861.18
695.659	2807.94
695.848	2748.54
696.037	2777.22
696.226	2738.3
696.415	2734.21
696.604	2789.5
696.793	2781.31
696.982	2830.46
697.171	2812.03
697.36	2805.89
697.549	2728.07
697.738	2842.75
697.927	2766.98
698.116	2787.46
698.305	2715.78
698.494	2664.58
698.683	2709.63
698.872	2769.02
699.061	2707.59
699.25	2689.15
699.438	2826.37
699.627	2750.59
699.816	2674.82
700.005	2756.74
700.193	2678.91
700.382	2789.5
700.571	2693.25
700.76	2748.54
700.948	2650.24
701.137	2584.71
701.326	2650.24
701.514	2672.77
701.703	2599.04
701.892	2566.28
702.08	2603.14
702.269	2750.59
702.457	2642.05
702.646	2652.29
702.834	2535.56
703.023	2586.76
703.212	2676.87
703.4	2619.52
703.589	2607.23
703.777	2674.82
703.965	2523.27
704.154	2603.14
704.342	2687.11
704.531	2662.53
704.719	2580.61
704.907	2504.84
705.096	2523.27
705.284	2467.97
705.472	2502.79
705.661	2594.95
705.849	2513.03
706.037	2529.41
706.226	2453.64
706.414	2515.08
706.602	2578.56
706.79	2494.6
706.979	2445.45
707.167	2486.4
707.355	2384.01
707.543	2455.69
707.731	2504.84
707.919	2422.92
708.107	2410.63
708.296	2420.87
708.484	2343.05
708.672	2431.11
708.86	2361.48
709.048	2369.67
709.236	2361.48
709.424	2351.24
709.612	2345.09
709.8	2355.33
709.988	2254.98
710.176	2353.29
710.364	2457.73
710.551	2363.53
710.739	2373.77
710.927	2281.61
711.115	2357.38
711.303	2181.26
711.491	2312.33
711.679	2201.74
711.866	2359.43
712.054	2347.14
712.242	2281.61
712.43	2330.76
712.617	2250.89
712.805	2158.73
712.993	2191.5
713.181	2216.07
713.368	2302.09
713.556	2224.26
713.744	2142.35
713.931	2185.35
714.119	2062.48
714.306	2076.81
714.494	2109.58
714.682	2228.36
714.869	2136.2
715.057	2132.11
715.244	2078.86
715.432	2080.91
715.619	2015.37
715.807	2125.96
715.994	2195.59
716.182	2119.82
716.369	2113.67
716.556	2070.67
716.744	2091.15
716.931	1931.41
717.119	2060.43
717.306	2027.66
717.493	1937.55
717.681	2054.28
717.868	1962.12
718.055	1982.6
718.242	2070.67
718.43	1923.21
718.617	2009.23
718.804	2042
718.991	2027.66
719.179	1978.51
719.366	2027.66
719.553	1949.84
719.74	1929.36
719.927	1925.26
720.114	1923.21
720.301	1900.69
720.488	1783.95
720.676	1945.74
720.863	1857.68
721.05	2027.66
721.237	1884.3
721.424	1763.47
721.611	1898.64
721.798	1865.87
721.985	1763.47
722.172	1847.44
722.358	1763.47
722.545	1820.81
722.732	1857.68
722.919	1734.8
723.106	1917.07
723.293	1857.68
723.48	1837.2
723.667	1761.42
723.853	1708.18
724.04	1691.79
724.227	1691.79
724.414	1734.8
724.6	1800.34
724.787	1773.71
724.974	1708.18
725.161	1796.24
725.347	1732.75
725.534	1589.39
725.72	1677.46
725.907	1783.95
726.094	1661.07
726.28	1710.22
726.467	1685.65
726.653	1753.23
726.84	1749.14
727.027	1667.22
727.213	1446.04
727.4	1710.22
727.586	1648.79
727.773	1577.11
727.959	1503.38
728.145	1710.22
728.332	1675.41
728.518	1605.78
728.705	1656.98
728.891	1642.64
729.077	1587.35
729.264	1667.22
729.45	1527.96
729.636	1691.79
729.823	1618.07
730.009	1513.62
730.195	1642.64
730.382	1497.24
730.568	1575.06
730.754	1568.91
730.94	1607.83
731.126	1573.01
731.313	1503.38
731.499	1425.56
731.685	1640.59
731.871	1499.28
732.057	1489.04
732.243	1472.66
732.429	1470.61
732.615	1566.87
732.801	1499.28
732.987	1460.37
733.173	1468.56
733.359	1618.07
733.545	1456.28
733.731	1441.94
733.917	1388.69
734.103	1437.84
734.289	1425.56
734.475	1364.12
734.661	1562.77
734.847	1499.28
735.033	1394.84
735.219	1419.41
735.404	1429.65
735.59	1384.6
735.776	1415.32
735.962	1468.56
736.148	1407.13
736.333	1357.97
736.519	1321.11
736.705	1439.89
736.89	1407.13
737.076	1366.17
737.262	1331.35
737.447	1237.14
737.633	1382.55
737.819	1396.89
738.004	1435.8
738.19	1386.65
738.375	1251.48
738.561	1384.6
738.747	1312.92
738.932	1284.25
739.118	1382.55
739.303	1298.58
739.489	1226.9
739.674	1284.25
739.859	1327.25
740.045	1353.88
740.23	1321.11
740.416	1276.06
740.601	1245.34
740.786	1237.14
740.972	1210.52
741.157	1204.38
741.342	1239.19
741.528	1233.05
741.713	1235.1
741.898	1138.84
742.084	1196.18
742.269	1181.85
742.454	1298.58
742.639	1224.86
742.824	1228.95
743.01	1206.42
743.195	1216.66
743.38	1190.04
743.565	1233.05
743.75	1265.82
743.935	1169.56
744.12	1083.55
744.305	1194.14
744.49	1237.14
744.675	1095.83
744.86	1073.31
745.045	1208.47
745.23	1147.03
745.415	1116.31
745.6	1157.27
745.785	1159.32
745.97	1134.75
746.155	1052.83
746.34	1161.37
746.525	1052.83
746.71	1140.89
746.895	1081.5
747.079	1013.92
747.264	1052.83
747.449	1073.31
747.634	1020.06
747.819	1028.25
748.003	1069.21
748.188	1089.69
748.373	1063.07
748.557	981.15
748.742	977.05
748.927	995.48
749.111	1022.11
749.296	1015.96
749.481	1118.36
749.665	958.62
749.85	923.8
750.034	1046.68
750.219	956.57
750.404	962.72
750.588	993.44
750.773	968.86
750.957	960.67
751.141	954.52
751.326	936.09
751.51	917.66
751.695	915.61
751.879	940.19
752.064	921.76
752.248	878.75
752.432	813.21
752.617	913.56
752.801	942.24
752.985	829.6
753.17	874.65
753.354	884.89
753.538	956.57
753.722	888.99
753.907	823.45
754.091	798.88
754.275	845.98
754.459	802.97
754.643	792.73
754.828	733.34
755.012	745.63
755.196	762.02
755.38	825.5
755.564	811.17
755.748	745.63
755.932	880.8
756.116	790.69
756.3	805.02
756.484	735.39
756.668	716.96
756.852	719.01
757.036	745.63
757.22	864.41
757.404	764.06
757.588	843.93
757.772	657.57
757.956	747.68
758.14	719.01
758.323	671.9
758.507	684.19
758.691	723.1
758.875	727.2
759.059	735.39
759.242	706.72
759.426	757.92
759.61	719.01
759.794	653.47
759.977	716.96
760.161	731.3
760.345	643.23
760.528	663.71
760.712	704.67
760.895	637.09
761.079	592.03
761.263	667.81
761.446	686.24
761.63	651.42
761.813	743.58
761.997	645.28
762.18	704.67
762.364	680.1
762.547	630.95
762.731	690.34
762.914	618.66
763.098	553.12
763.281	581.79
763.464	669.86
763.648	630.95
763.831	645.28
764.015	680.1
764.198	581.79
764.381	618.66
764.564	626.85
764.748	602.27
764.931	587.94
765.114	546.98
765.297	630.95
765.481	594.08
765.664	655.52
765.847	587.94
766.03	549.03
766.213	614.56
766.397	600.23
766.58	616.61
766.763	612.51
766.946	469.16
767.129	546.98
767.312	575.65
767.495	569.51
767.678	622.75
767.861	598.18
768.044	561.31
768.227	579.75
768.41	460.96
768.593	565.41
768.776	602.27
768.959	551.07
769.142	503.97
769.324	514.21
769.507	598.18
769.69	571.55
769.873	561.31
770.056	600.23
770.239	524.45
770.421	587.94
770.604	567.46
770.787	512.16
770.97	524.45
771.152	561.31
771.335	530.59
771.518	536.74
771.7	553.12
771.883	489.64
772.066	514.21
772.248	512.16
772.431	485.54
772.613	424.1
772.796	491.68
772.978	544.93
773.161	465.06
773.343	479.4
773.526	506.02
773.708	491.68
773.891	503.97
774.073	440.48
774.256	491.68
774.438	518.31
774.621	483.49
774.803	475.3
774.985	430.24
775.168	432.29
775.35	485.54
775.532	546.98
775.715	463.01
775.897	460.96
776.079	516.26
776.261	495.78
776.444	448.68
776.626	471.2
776.808	415.91
776.99	493.73
777.173	407.72
777.355	424.1
777.537	442.53
777.719	432.29
777.901	377
778.083	415.91
778.265	381.09
778.447	393.38
778.629	315.56
778.811	389.28
778.993	319.65
779.175	485.54
779.357	467.11
779.539	467.11
779.721	391.33
779.903	444.58
780.085	411.81
780.267	370.85
780.449	370.85
780.631	342.18
780.812	389.28
780.994	350.37
781.176	356.52
781.358	413.86
781.54	360.61
781.721	358.57
781.903	383.14
782.085	336.04
782.267	319.65
782.448	440.48
782.63	323.75
782.812	299.17
782.993	329.89
783.175	290.98
783.357	360.61
783.538	262.31
783.72	266.41
783.901	397.48
784.083	305.32
784.264	358.57
784.446	327.85
784.627	333.99
784.809	270.5
784.99	276.65
785.172	227.5
785.353	293.03
785.535	280.74
785.716	237.74
785.897	331.94
786.079	360.61
786.26	264.36
786.441	340.13
786.623	352.42
786.804	290.98
786.985	254.12
787.167	250.02
787.348	290.98
787.529	270.5
787.71	272.55
787.891	223.4
788.073	174.25
788.254	252.07
788.435	286.89
788.616	325.8
788.797	227.5
788.978	295.08
789.159	250.02
789.34	282.79
789.522	247.97
789.703	233.64
789.884	164.01
790.065	284.84
790.246	264.36
790.427	192.68
790.607	192.68
790.788	290.98
790.969	188.58
791.15	217.26
791.331	297.13
791.512	241.83
791.693	293.03
791.874	211.11
792.054	194.73
792.235	241.83
792.416	209.06
792.597	219.3
792.778	207.02
792.958	149.67
793.139	237.74
793.32	200.87
793.5	217.26
793.681	202.92
793.862	180.39
794.042	178.34
794.223	209.06
794.404	176.3
794.584	215.21
794.765	184.49
794.945	176.3
795.126	241.83
795.306	237.74
795.487	196.78
795.667	196.78
795.848	217.26
796.028	182.44
796.209	170.15
796.389	194.73
796.57	121
796.75	245.93
796.93	178.34
797.111	213.16
797.291	225.45
797.471	153.77
797.652	176.3
797.832	192.68
798.012	190.63
798.192	170.15
798.373	247.97
798.553	145.58
798.733	209.06
798.913	159.91
799.093	170.15
799.274	200.87
799.454	168.1
799.634	131.24
799.814	209.06
799.994	170.15
800.174	176.3
800.354	188.58
800.534	164.01
800.714	145.58
800.894	151.72
801.074	96.43
801.254	157.86
801.434	137.38
801.614	225.45
801.794	118.95
801.974	430.24
802.154	147.62
802.334	151.72
802.514	223.4
802.693	151.72
802.873	123.05
803.053	225.45
803.233	145.58
803.413	164.01
803.592	106.67
803.772	121
803.952	110.76
804.131	186.54
804.311	143.53
804.491	121
804.67	176.3
804.85	135.34
805.03	110.76
805.209	153.77
805.389	141.48
805.568	94.38
805.748	102.57
805.928	110.76
806.107	137.38
806.287	153.77
806.466	131.24
806.646	141.48
806.825	102.57
807.004	86.19
807.184	49.32
807.363	186.54
807.543	155.82
807.722	116.9
807.901	127.14
808.081	204.97
808.26	127.14
808.439	98.47
808.619	114.86
808.798	118.95
808.977	188.58
809.156	118.95
809.336	170.15
809.515	186.54
809.694	114.86
809.873	139.43
810.052	92.33
810.231	73.9
810.411	94.38
810.59	75.95
810.769	118.95
810.948	65.71
811.127	80.04
811.306	102.57
811.485	28.84
811.664	71.85
811.843	106.67
812.022	100.52
812.201	114.86
812.38	102.57
812.559	94.38
812.737	106.67
812.916	71.85
813.095	139.43
813.274	-5.97
813.453	127.14
813.632	164.01
813.811	133.29
813.989	84.14
814.168	104.62
814.347	147.62
814.526	86.19
814.704	114.86
814.883	153.77
815.062	94.38
815.24	127.14
815.419	112.81
815.598	110.76
815.776	123.05
815.955	102.57
816.133	92.33
816.312	118.95
816.49	77.99
816.669	67.75
816.847	92.33
817.026	137.38
817.204	24.75
817.383	147.62
817.561	55.47
817.74	88.23
817.918	82.09
818.097	116.9
818.275	-12.12
818.453	37.03
818.632	82.09
818.81	80.04
818.988	51.37
819.167	145.58
819.345	100.52
819.523	102.57
819.701	92.33
819.879	77.99
820.058	67.75
820.236	51.37
820.414	32.94
820.592	69.8
820.77	102.57
820.948	118.95
821.127	131.24
821.305	112.81
821.483	118.95
821.661	30.89
821.839	92.33
822.017	168.1
822.195	53.42
822.373	30.89
822.551	145.58
822.729	100.52
822.907	41.13
823.085	159.91
823.262	92.33
823.44	53.42
823.618	-12.12
823.796	94.38
823.974	80.04
824.152	82.09
824.329	104.62
824.507	77.99
824.685	77.99
824.863	28.84
825.04	57.51
825.218	94.38
825.396	90.28
825.574	32.94
825.751	59.56
825.929	63.66
826.107	14.51
826.284	41.13
826.462	22.7
826.639	61.61
826.817	28.84
826.994	100.52
827.172	-14.17
827.349	100.52
827.527	71.85
827.704	71.85
827.882	147.62
828.059	112.81
828.237	22.7
828.414	88.23
828.591	39.08
828.769	61.61
828.946	-3.93
829.124	131.24
829.301	-22.36
829.478	118.95
829.655	49.32
829.833	104.62
830.01	24.75
830.187	133.29
830.364	65.71
830.542	86.19
830.719	-8.02
830.896	51.37
831.073	55.47
831.25	28.84
831.427	121
831.604	49.32
831.782	88.23
831.959	118.95
832.136	41.13
832.313	125.1
832.49	6.31
832.667	75.95
832.844	39.08
833.021	67.75
833.198	-18.26
833.374	14.51
833.551	43.18
833.728	153.77
833.905	112.81
834.082	8.36
834.259	-24.4
834.436	37.03
834.612	88.23
834.789	51.37
834.966	86.19
835.143	39.08
835.319	77.99
835.496	94.38
835.673	106.67
835.85	82.09
836.026	86.19
836.203	55.47
836.38	39.08
836.556	63.66
836.733	-26.45
836.909	59.56
837.086	47.27
837.262	-3.93
837.439	49.32
837.616	88.23
837.792	47.27
837.968	53.42
838.145	69.8
838.321	41.13
838.498	-12.12
838.674	63.66
838.851	65.71
839.027	55.47
839.203	28.84
839.38	28.84
839.556	0.17
839.732	37.03
839.909	51.37
840.085	67.75
840.261	75.95
840.437	77.99
840.614	49.32
840.79	2.22
840.966	39.08
841.142	18.6
841.318	45.23
841.494	80.04
841.671	51.37
841.847	88.23
842.023	-3.93
842.199	110.76
842.375	4.27
842.551	2.22
842.727	6.31
842.903	137.38
843.079	32.94
843.255	75.95
843.431	49.32
843.607	22.7
843.783	6.31
843.959	61.61
844.134	4.27
844.31	94.38
844.486	12.46
844.662	0.17
844.838	8.36
845.013	73.9
845.189	-1.88
845.365	12.46
845.541	57.51
845.716	-14.17
845.892	28.84
846.068	51.37
846.244	45.23
846.419	39.08
846.595	-24.4
846.77	75.95
846.946	71.85
847.122	18.6
847.297	10.41
847.473	6.31
847.648	53.42
847.824	20.65
847.999	65.71
848.175	18.6
848.35	53.42
848.526	-1.88
848.701	22.7
848.876	30.89
849.052	30.89
849.227	30.89
849.403	8.36
849.578	-34.64
849.753	53.42
849.929	37.03
850.104	4.27
850.279	22.7
850.454	-3.93
850.63	53.42
850.805	106.67
850.98	96.43
851.155	-1.88
851.33	-16.21
851.505	49.32
851.681	39.08
851.856	-34.64
852.031	110.76
852.206	71.85
852.381	55.47
852.556	0.17
852.731	0.17
852.906	22.7
853.081	-32.6
853.256	57.51
853.431	55.47
853.606	6.31
853.781	28.84
853.956	-8.02
854.131	59.56
854.305	2.22
854.48	51.37
854.655	10.41
854.83	-40.79
855.005	84.14
855.18	-51.03
855.354	-28.5
855.529	22.7
855.704	34.99
855.879	61.61
856.053	-30.55
856.228	100.52
856.403	-65.36
856.577	49.32
856.752	4.27
856.926	49.32
857.101	84.14
857.276	0.17
857.45	49.32
857.625	32.94
857.799	26.79
857.974	80.04
858.148	30.89
858.323	28.84
858.497	51.37
858.672	28.84
858.846	-42.84
859.02	14.51
859.195	-18.26
859.369	-30.55
859.543	-10.07
859.718	37.03
859.892	51.37
860.066	24.75
860.241	20.65
860.415	47.27
860.589	14.51
860.763	55.47
860.938	53.42
861.112	39.08
861.286	-42.84
861.46	-48.98
861.634	-40.79
861.808	65.71
861.982	-61.27
862.157	-10.07
862.331	41.13
862.505	90.28
862.679	61.61
862.853	67.75
863.027	86.19
863.201	71.85
863.375	-28.5
863.549	2.22
863.722	6.31
863.896	51.37
864.07	86.19
864.244	41.13
864.418	4.27
864.592	14.51
864.766	24.75
864.939	6.31
865.113	45.23
865.287	26.79
865.461	-46.93
865.634	-18.26
865.808	77.99
865.982	71.85
866.156	-8.02
866.329	-5.97
866.503	4.27
866.676	77.99
866.85	32.94
867.024	69.8
867.197	14.51
867.371	32.94
867.544	73.9
867.718	-3.93
867.891	34.99
868.065	2.22
868.238	41.13
868.412	-36.69
868.585	-48.98
868.759	37.03
868.932	-12.12
869.105	41.13
869.279	4.27
869.452	-24.4
869.625	37.03
869.799	41.13
869.972	12.46
870.145	-14.17
870.319	61.61
870.492	65.71
870.665	-38.74
870.838	6.31
871.011	63.66
871.185	2.22
871.358	-8.02
871.531	-1.88
871.704	73.9
871.877	4.27
872.05	45.23
872.223	39.08
872.396	-3.93
872.569	94.38
872.742	20.65
872.915	-10.07
873.088	30.89
873.261	47.27
873.434	4.27
873.607	22.7
873.78	18.6
873.953	8.36
874.126	41.13
874.299	-8.02
874.471	22.7
874.644	80.04
874.817	82.09
874.99	6.31
875.163	47.27
875.335	47.27
875.508	4.27
875.681	0.17
875.853	-24.4
876.026	-73.56
876.199	16.55
876.371	61.61
876.544	-32.6
876.717	22.7
876.889	49.32
877.062	41.13
877.234	-24.4
877.407	-10.07
877.579	-24.4
877.752	-36.69
877.924	4.27
878.097	77.99
878.269	20.65
878.442	20.65
878.614	10.41
878.786	73.9
878.959	49.32
879.131	45.23
879.303	-48.98
879.476	12.46
879.648	4.27
879.82	16.55
879.993	-42.84
880.165	61.61
880.337	59.56
880.509	22.7
880.681	-44.88
880.854	-18.26
881.026	12.46
881.198	-12.12
881.37	22.7
881.542	-3.93
881.714	6.31
881.886	4.27
882.058	-34.64
882.23	59.56
882.402	26.79
882.574	0.17
882.746	75.95
882.918	30.89
883.09	-42.84
883.262	39.08
883.434	-30.55
883.606	0.17
883.778	6.31
883.95	32.94
884.122	-61.27
884.293	65.71
884.465	20.65
884.637	51.37
884.809	18.6
884.98	2.22
885.152	22.7
885.324	43.18
885.496	24.75
885.667	28.84
885.839	-18.26
886.011	57.51
886.182	55.47
886.354	22.7
886.525	47.27
886.697	30.89
886.869	-24.4
887.04	-51.03
887.212	-22.36
887.383	20.65
887.555	-28.5
887.726	6.31
887.897	-22.36
888.069	16.55
888.24	2.22
888.412	2.22
888.583	34.99
888.754	16.55
888.926	16.55
889.097	-34.64
889.268	102.57
889.44	53.42
889.611	-34.64
889.782	-10.07
889.953	-59.22
890.125	14.51
890.296	-5.97
890.467	6.31
890.638	16.55
890.809	0.17
890.98	32.94
891.151	61.61
891.323	30.89
891.494	-34.64
891.665	12.46
891.836	20.65
892.007	22.7
892.178	37.03
892.349	-16.21
892.52	16.55
892.691	-61.27
892.862	41.13
893.032	61.61
893.203	80.04
893.374	12.46
893.545	-26.45
893.716	-8.02
893.887	-3.93
894.057	98.47
894.228	-18.26
894.399	20.65
894.57	-26.45
894.74	41.13
894.911	34.99
895.082	8.36
895.253	-40.79
895.423	43.18
895.594	-28.5
895.764	-18.26
895.935	-36.69
896.106	49.32
896.276	-1.88
896.447	-24.4
896.617	2.22
896.788	61.61
896.958	24.75
897.129	-8.02
897.299	37.03
897.47	-10.07
897.64	41.13
897.81	-73.56
897.981	-10.07
898.151	14.51
898.322	-12.12
898.492	28.84
898.662	32.94
898.832	-1.88
899.003	69.8
899.173	12.46
899.343	8.36
899.513	24.75
