Data from USB4F104151__28__13-52-43-962.txt Node

Date: Thu Mar 13 13:52:43 EDT 2025
User: louis
Spectrometer: USB4F10415
Trigger mode: 4
Integration Time (sec): 1.000000E-2
Scans to average: 1
Electric dark correction enabled: true
Nonlinearity correction enabled: false
Boxcar width: 0
XAxis mode: Wavelengths
Number of Pixels in Spectrum: 3648
>>>>>Begin Spectral Data<<<<<
178.204	-11.78
178.424	-11.78
178.644	-11.78
178.864	-13.82
179.084	-9.73
179.304	27.14
179.524	8.7
179.744	-46.59
179.964	-19.97
180.184	-11.78
180.404	-5.63
180.624	31.23
180.844	41.47
181.064	-19.97
181.283	6.66
181.503	-38.4
181.723	27.14
181.943	-50.69
182.163	68.09
182.383	-26.11
182.602	-62.98
182.822	72.19
183.042	-1.54
183.262	-46.59
183.482	23.04
183.701	0.51
183.921	-15.87
184.141	39.42
184.361	-17.92
184.58	6.66
184.8	0.51
185.02	-19.97
185.239	10.75
185.459	23.04
185.679	12.8
185.898	27.14
186.118	2.56
186.338	-22.02
186.557	25.09
186.777	-17.92
186.997	76.29
187.216	16.9
187.436	-22.02
187.655	-32.26
187.875	-38.4
188.095	-19.97
188.314	107.01
188.534	0.51
188.753	-28.16
188.973	25.09
189.192	23.04
189.412	-32.26
189.631	37.38
189.851	2.56
190.07	-40.45
190.29	49.66
190.509	70.14
190.729	-15.87
190.948	4.61
191.168	37.38
191.387	39.42
191.607	10.75
191.826	-3.58
192.045	41.47
192.265	33.28
192.484	61.95
192.704	31.23
192.923	-13.82
193.142	96.77
193.362	2.56
193.581	8.7
193.8	-42.5
194.02	14.85
194.239	0.51
194.458	-19.97
194.678	4.61
194.897	16.9
195.116	-40.45
195.335	18.94
195.555	53.76
195.774	33.28
195.993	35.33
196.212	-1.54
196.432	31.23
196.651	35.33
196.87	35.33
197.089	82.43
197.308	4.61
197.528	-50.69
197.747	29.18
197.966	25.09
198.185	-56.83
198.404	47.62
198.623	64
198.842	-3.58
199.062	27.14
199.281	45.57
199.5	18.94
199.719	35.33
199.938	23.04
200.157	57.86
200.376	-3.58
200.595	14.85
200.814	27.14
201.033	20.99
201.252	-114.17
201.471	33.28
201.69	-19.97
201.909	-26.11
202.128	-34.3
202.347	-9.73
202.566	88.57
202.785	-44.54
203.004	18.94
203.223	-7.68
203.442	4.61
203.661	2.56
203.879	-5.63
204.098	51.71
204.317	41.47
204.536	12.8
204.755	43.52
204.974	-24.06
205.193	113.15
205.411	-34.3
205.63	16.9
205.849	27.14
206.068	72.19
206.287	-50.69
206.505	37.38
206.724	33.28
206.943	78.33
207.162	43.52
207.381	47.62
207.599	33.28
207.818	12.8
208.037	45.57
208.255	-15.87
208.474	10.75
208.693	72.19
208.911	-7.68
209.13	-17.92
209.349	-7.68
209.567	-77.31
209.786	25.09
210.005	-42.5
210.223	64
210.442	-3.58
210.661	43.52
210.879	-50.69
211.098	49.66
211.316	8.7
211.535	10.75
211.753	12.8
211.972	20.99
212.191	-1.54
212.409	-1.54
212.628	-67.07
212.846	27.14
213.065	-11.78
213.283	43.52
213.502	10.75
213.72	23.04
213.938	51.71
214.157	113.15
214.375	68.09
214.594	33.28
214.812	-13.82
215.031	-9.73
215.249	45.57
215.467	70.14
215.686	-28.16
215.904	-13.82
216.122	31.23
216.341	29.18
216.559	4.61
216.778	72.19
216.996	20.99
217.214	43.52
217.432	59.9
217.651	-38.4
217.869	8.7
218.087	90.62
218.306	-54.78
218.524	51.71
218.742	-5.63
218.96	43.52
219.179	2.56
219.397	-44.54
219.615	-30.21
219.833	18.94
220.051	-15.87
220.27	61.95
220.488	-26.11
220.706	37.38
220.924	8.7
221.142	8.7
221.36	10.75
221.578	45.57
221.796	8.7
222.015	6.66
222.233	8.7
222.451	57.86
222.669	-9.73
222.887	-1.54
223.105	51.71
223.323	-40.45
223.541	29.18
223.759	-9.73
223.977	12.8
224.195	39.42
224.413	2.56
224.631	14.85
224.849	20.99
225.067	41.47
225.285	64
225.503	-5.63
225.721	10.75
225.939	72.19
226.157	41.47
226.375	12.8
226.592	55.81
226.81	-99.84
227.028	-56.83
227.246	-7.68
227.464	-48.64
227.682	-24.06
227.9	23.04
228.117	-62.98
228.335	-15.87
228.553	0.51
228.771	-1.54
228.989	37.38
229.206	29.18
229.424	27.14
229.642	-46.59
229.86	68.09
230.077	-19.97
230.295	23.04
230.513	33.28
230.731	64
230.948	-56.83
231.166	72.19
231.384	84.48
231.601	-3.58
231.819	53.76
232.037	-30.21
232.254	6.66
232.472	47.62
232.689	27.14
232.907	-1.54
233.125	37.38
233.342	72.19
233.56	66.05
233.777	-3.58
233.995	-46.59
234.213	-26.11
234.43	18.94
234.648	-19.97
234.865	14.85
235.083	109.05
235.3	-36.35
235.518	-13.82
235.735	18.94
235.953	49.66
236.17	-17.92
236.388	25.09
236.605	51.71
236.822	51.71
237.04	39.42
237.257	20.99
237.475	-38.4
237.692	25.09
237.909	31.23
238.127	-7.68
238.344	66.05
238.562	-9.73
238.779	-36.35
238.996	12.8
239.214	29.18
239.431	82.43
239.648	18.94
239.865	-3.58
240.083	10.75
240.3	8.7
240.517	61.95
240.735	-38.4
240.952	74.24
241.169	25.09
241.386	-17.92
241.603	35.33
241.821	35.33
242.038	18.94
242.255	68.09
242.472	49.66
242.689	-5.63
242.907	74.24
243.124	-28.16
243.341	-24.06
243.558	0.51
243.775	70.14
243.992	-36.35
244.209	41.47
244.426	0.51
244.643	-22.02
244.86	-32.26
245.078	-1.54
245.295	74.24
245.512	-40.45
245.729	-11.78
245.946	41.47
246.163	51.71
246.38	2.56
246.597	-11.78
246.814	2.56
247.031	0.51
247.248	84.48
247.464	59.9
247.681	16.9
247.898	0.51
248.115	14.85
248.332	6.66
248.549	-13.82
248.766	61.95
248.983	10.75
249.2	-11.78
249.417	16.9
249.633	8.7
249.85	-7.68
250.067	53.76
250.284	-11.78
250.501	-5.63
250.717	20.99
250.934	-13.82
251.151	33.28
251.368	16.9
251.585	6.66
251.801	23.04
252.018	100.86
252.235	53.76
252.451	16.9
252.668	-28.16
252.885	53.76
253.102	-34.3
253.318	-11.78
253.535	6.66
253.752	35.33
253.968	37.38
254.185	-1.54
254.401	14.85
254.618	-26.11
254.835	-11.78
255.051	37.38
255.268	33.28
255.484	18.94
255.701	6.66
255.917	41.47
256.134	-17.92
256.351	14.85
256.567	70.14
256.784	-15.87
257	-65.02
257.217	-48.64
257.433	33.28
257.65	45.57
257.866	20.99
258.082	35.33
258.299	20.99
258.515	25.09
258.732	-5.63
258.948	35.33
259.165	20.99
259.381	43.52
259.597	72.19
259.814	59.9
260.03	-46.59
260.246	14.85
260.463	55.81
260.679	31.23
260.895	-17.92
261.112	-28.16
261.328	47.62
261.544	-26.11
261.761	59.9
261.977	90.62
262.193	-56.83
262.409	-11.78
262.626	14.85
262.842	-1.54
263.058	-1.54
263.274	78.33
263.49	12.8
263.707	84.48
263.923	-69.12
264.139	10.75
264.355	47.62
264.571	-28.16
264.787	-3.58
265.004	64
265.22	14.85
265.436	12.8
265.652	57.86
265.868	-3.58
266.084	35.33
266.3	43.52
266.516	47.62
266.732	12.8
266.948	-50.69
267.164	49.66
267.38	-46.59
267.596	-54.78
267.812	35.33
268.028	64
268.244	14.85
268.46	68.09
268.676	72.19
268.892	55.81
269.108	-17.92
269.324	-13.82
269.54	-30.21
269.756	121.34
269.972	-13.82
270.188	27.14
270.403	31.23
270.619	4.61
270.835	14.85
271.051	-22.02
271.267	-22.02
271.483	-28.16
271.698	20.99
271.914	41.47
272.13	8.7
272.346	31.23
272.562	0.51
272.777	59.9
272.993	0.51
273.209	-9.73
273.425	4.61
273.64	74.24
273.856	70.14
274.072	37.38
274.287	49.66
274.503	-46.59
274.719	-26.11
274.934	82.43
275.15	20.99
275.366	53.76
275.581	70.14
275.797	33.28
276.012	8.7
276.228	47.62
276.444	45.57
276.659	-1.54
276.875	6.66
277.09	-5.63
277.306	8.7
277.521	-3.58
277.737	23.04
277.952	25.09
278.168	-11.78
278.383	-3.58
278.599	37.38
278.814	29.18
279.03	16.9
279.245	64
279.461	49.66
279.676	-77.31
279.892	-69.12
280.107	-11.78
280.322	-34.3
280.538	51.71
280.753	31.23
280.969	27.14
281.184	51.71
281.399	4.61
281.615	78.33
281.83	18.94
282.045	10.75
282.26	57.86
282.476	74.24
282.691	74.24
282.906	55.81
283.122	-46.59
283.337	-95.74
283.552	2.56
283.767	37.38
283.983	14.85
284.198	14.85
284.413	-32.26
284.628	18.94
284.843	35.33
285.058	33.28
285.274	111.1
285.489	-34.3
285.704	-83.45
285.919	-5.63
286.134	-26.11
286.349	-65.02
286.564	27.14
286.779	-26.11
286.995	0.51
287.21	2.56
287.425	-34.3
287.64	-3.58
287.855	-22.02
288.07	-7.68
288.285	20.99
288.5	-26.11
288.715	84.48
288.93	-30.21
289.145	-34.3
289.36	12.8
289.575	-13.82
289.79	-15.87
290.004	51.71
290.219	12.8
290.434	18.94
290.649	2.56
290.864	-28.16
291.079	41.47
291.294	-3.58
291.509	-19.97
291.724	61.95
291.938	35.33
292.153	76.29
292.368	-9.73
292.583	47.62
292.798	-9.73
293.012	-7.68
293.227	-93.69
293.442	4.61
293.657	47.62
293.871	16.9
294.086	37.38
294.301	100.86
294.516	66.05
294.73	-11.78
294.945	4.61
295.16	27.14
295.374	-26.11
295.589	39.42
295.804	-67.07
296.018	-7.68
296.233	43.52
296.447	-3.58
296.662	-11.78
296.877	49.66
297.091	-26.11
297.306	10.75
297.52	80.38
297.735	-48.64
297.949	2.56
298.164	-34.3
298.378	35.33
298.593	33.28
298.807	-40.45
299.022	-32.26
299.236	-38.4
299.451	25.09
299.665	8.7
299.88	-11.78
300.094	-32.26
300.309	70.14
300.523	-7.68
300.737	51.71
300.952	45.57
301.166	-13.82
301.381	86.53
301.595	53.76
301.809	-44.54
302.024	109.05
302.238	31.23
302.452	-40.45
302.667	84.48
302.881	125.44
303.095	-7.68
303.309	51.71
303.524	-5.63
303.738	43.52
303.952	6.66
304.166	-5.63
304.381	16.9
304.595	25.09
304.809	8.7
305.023	23.04
305.237	20.99
305.452	39.42
305.666	39.42
305.88	61.95
306.094	-7.68
306.308	47.62
306.522	2.56
306.736	41.47
306.95	-44.54
307.164	41.47
307.379	35.33
307.593	55.81
307.807	0.51
308.021	49.66
308.235	6.66
308.449	-22.02
308.663	-9.73
308.877	35.33
309.091	12.8
309.305	14.85
309.519	-32.26
309.733	47.62
309.947	33.28
310.161	-5.63
310.374	-19.97
310.588	18.94
310.802	-34.3
311.016	35.33
311.23	51.71
311.444	-13.82
311.658	-3.58
311.872	-1.54
312.085	33.28
312.299	39.42
312.513	16.9
312.727	10.75
312.941	-22.02
313.154	14.85
313.368	6.66
313.582	43.52
313.796	-34.3
314.009	14.85
314.223	29.18
314.437	37.38
314.651	25.09
314.864	-9.73
315.078	-73.21
315.292	27.14
315.505	-34.3
315.719	96.77
315.933	43.52
316.146	-40.45
316.36	-13.82
316.573	-17.92
316.787	-13.82
317.001	41.47
317.214	-40.45
317.428	16.9
317.641	6.66
317.855	104.96
318.068	66.05
318.282	78.33
318.495	82.43
318.709	-9.73
318.922	53.76
319.136	39.42
319.349	2.56
319.563	33.28
319.776	20.99
319.99	-50.69
320.203	37.38
320.417	39.42
320.63	-19.97
320.843	14.85
321.057	43.52
321.27	4.61
321.483	-5.63
321.697	41.47
321.91	53.76
322.124	37.38
322.337	12.8
322.55	20.99
322.763	55.81
322.977	57.86
323.19	53.76
323.403	80.38
323.617	25.09
323.83	-44.54
324.043	-15.87
324.256	2.56
324.469	-44.54
324.683	27.14
324.896	6.66
325.109	-30.21
325.322	41.47
325.535	82.43
325.748	-26.11
325.962	-13.82
326.175	33.28
326.388	-22.02
326.601	23.04
326.814	27.14
327.027	39.42
327.24	70.14
327.453	-13.82
327.666	-3.58
327.879	86.53
328.092	-19.97
328.305	82.43
328.518	-3.58
328.731	25.09
328.944	39.42
329.157	-13.82
329.37	-17.92
329.583	18.94
329.796	8.7
330.009	-7.68
330.222	29.18
330.435	45.57
330.648	-9.73
330.861	10.75
331.073	92.67
331.286	-50.69
331.499	-7.68
331.712	41.47
331.925	31.23
332.138	98.81
332.35	16.9
332.563	-3.58
332.776	59.9
332.989	29.18
333.202	-13.82
333.414	-54.78
333.627	55.81
333.84	12.8
334.053	47.62
334.265	0.51
334.478	84.48
334.691	41.47
334.903	14.85
335.116	35.33
335.329	37.38
335.541	6.66
335.754	4.61
335.966	51.71
336.179	90.62
336.392	70.14
336.604	47.62
336.817	-11.78
337.029	25.09
337.242	-52.74
337.454	25.09
337.667	-26.11
337.88	45.57
338.092	39.42
338.305	74.24
338.517	37.38
338.729	-17.92
338.942	10.75
339.154	20.99
339.367	8.7
339.579	29.18
339.792	-48.64
340.004	37.38
340.217	35.33
340.429	-56.83
340.641	27.14
340.854	6.66
341.066	45.57
341.278	4.61
341.491	33.28
341.703	37.38
341.915	-17.92
342.128	-19.97
342.34	57.86
342.552	33.28
342.764	27.14
342.977	12.8
343.189	-19.97
343.401	-3.58
343.613	84.48
343.826	49.66
344.038	-34.3
344.25	8.7
344.462	-11.78
344.674	8.7
344.886	-22.02
345.099	25.09
345.311	43.52
345.523	12.8
345.735	16.9
345.947	90.62
346.159	-13.82
346.371	23.04
346.583	49.66
346.795	23.04
347.007	8.7
347.219	68.09
347.431	16.9
347.643	35.33
347.855	76.29
348.067	20.99
348.279	8.7
348.491	61.95
348.703	12.8
348.915	72.19
349.127	41.47
349.339	-38.4
349.551	27.14
349.763	27.14
349.975	43.52
350.187	29.18
350.399	12.8
350.61	64
350.822	25.09
351.034	14.85
351.246	-11.78
351.458	94.72
351.669	23.04
351.881	51.71
352.093	27.14
352.305	64
352.517	-11.78
352.728	31.23
352.94	4.61
353.152	-7.68
353.363	80.38
353.575	31.23
353.787	-11.78
353.999	66.05
354.21	55.81
354.422	37.38
354.633	10.75
354.845	31.23
355.057	0.51
355.268	98.81
355.48	23.04
355.692	43.52
355.903	8.7
356.115	39.42
356.326	16.9
356.538	-26.11
356.749	47.62
356.961	12.8
357.172	45.57
357.384	-5.63
357.595	33.28
357.807	133.63
358.018	-28.16
358.23	35.33
358.441	-24.06
358.653	37.38
358.864	18.94
359.075	37.38
359.287	-30.21
359.498	-26.11
359.709	61.95
359.921	6.66
360.132	20.99
360.344	51.71
360.555	8.7
360.766	47.62
360.977	76.29
361.189	10.75
361.4	57.86
361.611	92.67
361.823	25.09
362.034	53.76
362.245	20.99
362.456	-30.21
362.667	55.81
362.879	51.71
363.09	49.66
363.301	2.56
363.512	80.38
363.723	41.47
363.935	-3.58
364.146	49.66
364.357	-34.3
364.568	10.75
364.779	6.66
364.99	-7.68
365.201	-65.02
365.412	61.95
365.623	59.9
365.834	41.47
366.045	27.14
366.256	86.53
366.467	-7.68
366.678	23.04
366.889	59.9
367.1	70.14
367.311	-1.54
367.522	29.18
367.733	18.94
367.944	14.85
368.155	-13.82
368.366	25.09
368.577	33.28
368.788	96.77
368.999	10.75
369.209	135.68
369.42	12.8
369.631	66.05
369.842	113.15
370.053	70.14
370.264	47.62
370.474	-5.63
370.685	39.42
370.896	43.52
371.107	16.9
371.317	59.9
371.528	31.23
371.739	39.42
371.95	-19.97
372.16	-11.78
372.371	33.28
372.582	47.62
372.792	8.7
373.003	0.51
373.214	45.57
373.424	70.14
373.635	6.66
373.846	-36.35
374.056	-42.5
374.267	94.72
374.477	0.51
374.688	29.18
374.898	33.28
375.109	-11.78
375.319	59.9
375.53	41.47
375.74	-11.78
375.951	76.29
376.161	0.51
376.372	-24.06
376.582	16.9
376.793	61.95
377.003	57.86
377.214	43.52
377.424	47.62
377.635	4.61
377.845	-40.45
378.055	86.53
378.266	43.52
378.476	18.94
378.686	-46.59
378.897	64
379.107	-5.63
379.317	12.8
379.528	43.52
379.738	14.85
379.948	41.47
380.158	53.76
380.369	4.61
380.579	45.57
380.789	96.77
380.999	107.01
381.21	53.76
381.42	12.8
381.63	8.7
381.84	51.71
382.05	20.99
382.261	84.48
382.471	61.95
382.681	39.42
382.891	41.47
383.101	-9.73
383.311	70.14
383.521	68.09
383.731	59.9
383.941	78.33
384.151	-7.68
384.361	33.28
384.571	33.28
384.781	57.86
384.991	72.19
385.201	-11.78
385.411	45.57
385.621	-5.63
385.831	45.57
386.041	-15.87
386.251	109.05
386.461	96.77
386.671	47.62
386.881	35.33
387.091	-36.35
387.301	129.53
387.511	72.19
387.72	59.9
387.93	86.53
388.14	39.42
388.35	53.76
388.56	115.2
388.769	29.18
388.979	2.56
389.189	43.52
389.399	23.04
389.609	33.28
389.818	55.81
390.028	31.23
390.238	39.42
390.447	37.38
390.657	70.14
390.867	61.95
391.076	43.52
391.286	37.38
391.496	29.18
391.705	35.33
391.915	43.52
392.125	25.09
392.334	78.33
392.544	119.29
392.753	80.38
392.963	4.61
393.172	10.75
393.382	33.28
393.591	121.34
393.801	86.53
394.01	82.43
394.22	78.33
394.429	51.71
394.639	20.99
394.848	88.57
395.058	10.75
395.267	129.53
395.477	-5.63
395.686	18.94
395.895	74.24
396.105	66.05
396.314	74.24
396.524	39.42
396.733	49.66
396.942	37.38
397.152	10.75
397.361	92.67
397.57	96.77
397.78	45.57
397.989	18.94
398.198	113.15
398.407	78.33
398.617	70.14
398.826	45.57
399.035	80.38
399.244	86.53
399.453	174.59
399.663	20.99
399.872	164.35
400.081	68.09
400.29	92.67
400.499	111.1
400.708	41.47
400.917	66.05
401.127	76.29
401.336	143.87
401.545	170.49
401.754	68.09
401.963	92.67
402.172	23.04
402.381	72.19
402.59	94.72
402.799	51.71
403.008	88.57
403.217	33.28
403.426	61.95
403.635	55.81
403.844	31.23
404.053	96.77
404.262	59.9
404.471	111.1
404.68	82.43
404.888	66.05
405.097	74.24
405.306	78.33
405.515	111.1
405.724	137.73
405.933	94.72
406.142	109.05
406.35	219.64
406.559	125.44
406.768	139.77
406.977	70.14
407.185	154.11
407.394	145.92
407.603	113.15
407.812	117.25
408.02	195.07
408.229	156.16
408.438	139.77
408.646	147.97
408.855	160.25
409.064	182.78
409.272	254.46
409.481	262.65
409.69	219.64
409.898	121.34
410.107	213.5
410.315	180.73
410.524	201.21
410.733	225.79
410.941	207.36
411.15	266.75
411.358	289.28
411.567	338.43
411.775	279.04
411.984	223.74
412.192	240.12
412.401	260.6
412.609	408.06
412.818	426.49
413.026	330.23
413.234	358.91
413.443	360.95
413.651	502.26
413.86	442.87
414.068	522.74
414.276	395.77
414.485	379.39
414.693	475.64
414.901	514.55
415.11	487.93
415.318	530.94
415.526	557.56
415.734	487.93
415.943	582.14
416.151	526.84
416.359	522.74
416.567	625.14
416.776	608.76
416.984	713.21
417.192	686.58
417.4	719.35
417.608	670.2
417.817	702.97
418.025	821.75
418.233	788.98
418.441	784.88
418.649	874.99
418.857	944.63
419.065	924.15
419.273	907.76
419.481	932.34
419.689	942.58
419.897	993.78
420.105	969.2
420.313	1096.18
420.521	1153.52
420.729	1311.21
420.937	1186.29
421.145	1227.25
421.353	1278.44
421.561	1397.23
421.769	1335.79
421.977	1403.37
422.185	1362.41
422.393	1395.18
422.601	1573.35
422.809	1550.82
423.017	1552.87
423.224	1683.94
423.432	1802.72
423.64	1610.22
423.848	2032.1
424.056	1862.12
424.263	1974.75
424.471	1886.69
424.679	2066.91
424.887	2103.78
425.094	2171.36
425.302	2298.33
425.51	2367.96
425.718	2359.77
425.925	2433.5
426.133	2488.79
426.341	2640.34
426.548	2824.66
426.756	2746.84
426.964	2963.92
427.171	2968.02
427.379	2982.35
427.586	3131.86
427.794	3160.53
428.001	3273.17
428.209	3402.19
428.417	3461.58
428.624	3539.4
428.832	3586.51
429.039	3803.59
429.247	3629.51
429.454	3942.85
429.662	4284.86
429.869	3869.12
430.076	4313.53
430.284	4088.26
430.491	4413.88
430.699	4590.01
430.906	4559.29
431.114	4520.38
431.321	4893.11
431.528	5020.08
431.736	5159.35
431.943	5470.64
432.15	5437.87
432.358	5347.76
432.565	5530.03
432.772	5765.54
432.979	5876.13
433.187	6033.83
433.394	6060.45
433.601	6316.45
433.808	6406.56
434.016	6310.3
434.223	6599.07
434.43	7072.15
434.637	7023
434.844	7268.75
435.052	7459.21
435.259	7590.28
435.466	7594.38
435.673	7270.8
435.88	7952.77
436.087	8358.27
436.294	8425.86
436.501	8249.73
436.708	8454.53
436.915	8538.49
437.122	9011.57
437.329	9015.67
437.537	9216.37
437.743	9396.59
437.95	9302.39
438.157	9664.88
438.364	10213.73
438.571	10025.32
438.778	10119.53
438.985	11014.49
439.192	10836.31
439.399	11104.6
439.606	10678.62
439.813	11258.2
440.02	12093.77
440.227	12030.28
440.433	11786.57
440.64	12079.43
440.847	12171.59
441.054	12321.09
441.261	13314.36
441.467	13027.64
441.674	13371.7
441.881	13721.9
442.088	13777.2
442.294	13664.56
442.501	14135.59
442.708	14469.41
442.914	15065.37
443.121	15395.09
443.328	14924.06
443.534	16109.83
443.741	15540.5
443.948	15550.74
444.154	16531.72
444.361	16507.14
444.568	16556.29
444.774	16589.06
444.981	17064.19
445.187	17426.68
445.394	18174.19
445.6	17707.25
445.807	19550.42
446.013	18565.35
446.22	19114.2
446.426	20039.89
446.633	19951.82
446.839	20832.45
447.046	19646.68
447.252	20879.55
447.459	20934.85
447.665	20650.18
447.871	21655.73
448.078	22741.16
448.284	21756.08
448.491	22098.09
448.697	23146.65
448.903	23570.58
449.11	23365.79
449.316	23015.58
449.522	23421.08
449.728	23685.27
449.935	24357
450.141	24440.97
450.347	24682.63
450.553	23902.36
450.76	24533.13
450.966	25034.88
451.172	24850.56
451.378	25385.08
451.584	24813.7
451.791	25491.58
451.997	25610.36
452.203	25778.29
452.409	25895.03
452.615	25315.45
452.821	24522.89
453.027	24430.73
453.233	25815.16
453.44	24825.99
453.646	24926.34
453.852	25084.03
454.058	25460.86
454.264	24680.58
454.47	25047.17
454.676	24275.09
454.882	25301.12
455.088	22923.43
455.294	23433.37
455.5	23924.88
455.705	23931.03
455.911	23040.16
456.117	22448.3
456.323	22294.7
456.529	20986.05
456.735	21993.65
456.941	21575.86
457.147	21139.65
457.352	20418.76
457.558	20029.65
457.764	20086.99
457.97	19603.67
458.176	19407.06
458.381	19351.77
458.587	18473.19
458.793	18436.33
458.999	17359.1
459.204	18845.92
459.41	18194.67
459.616	16994.56
459.821	16963.84
460.027	16759.04
460.233	16437.51
460.438	15796.49
460.644	15995.15
460.85	15137.05
461.055	14965.02
461.261	14883.1
461.466	14086.44
461.672	13429.04
461.878	14436.64
462.083	13228.34
462.289	13078.84
462.494	13203.77
462.7	12327.24
462.905	12007.75
463.111	12910.91
463.316	12616
463.522	12480.83
463.727	12458.31
463.932	12304.71
464.138	12134.73
464.343	12349.76
464.549	12028.23
464.754	12282.18
464.959	12353.86
465.165	12208.45
465.37	11708.75
465.575	11460.95
465.781	11778.38
465.986	11942.22
466.191	11426.13
466.397	11182.42
466.602	10748.25
466.807	11284.82
467.012	11045.21
467.218	11039.06
467.423	11002.2
467.628	11196.76
467.833	11235.67
468.038	11051.35
468.244	10582.37
468.449	11149.65
468.654	10979.67
468.859	10803.55
469.064	10561.89
469.269	10228.07
469.474	10160.48
469.679	10486.11
469.885	10221.92
470.09	10389.86
470.295	10328.42
470.5	9851.24
470.705	10078.57
470.91	9787.75
471.115	9402.74
471.32	9910.63
471.525	9867.63
471.73	9644.4
471.935	9574.77
472.139	9288.05
472.344	9386.35
472.549	9337.2
472.754	9050.49
472.959	8935.8
473.164	8964.47
473.369	8710.52
473.574	8995.19
473.778	8954.23
473.983	8896.89
474.188	8862.07
474.393	8362.37
474.598	8290.69
474.802	8323.46
475.007	8245.63
475.212	8161.67
475.417	7985.54
475.621	8040.84
475.826	7973.25
476.031	7719.31
476.235	7758.22
476.44	7956.87
476.645	7569.8
476.849	7707.02
477.054	7594.38
477.259	7375.25
477.463	7451.02
477.668	7272.85
477.872	7195.03
478.077	7168.4
478.282	7061.91
478.486	6947.22
478.691	6912.41
478.895	6930.84
479.1	6906.26
479.304	6904.21
479.509	6840.73
479.713	6900.12
479.918	6584.73
480.122	6633.88
480.326	6850.97
480.531	6767
480.735	6523.29
480.94	6570.4
481.144	6857.11
481.348	6498.72
481.553	6463.9
481.757	6293.92
481.961	6400.41
482.166	6670.75
482.37	6543.77
482.574	6275.49
482.778	6431.13
482.983	6572.44
483.187	6433.18
483.391	6480.29
483.595	6482.33
483.8	6298.02
484.004	6504.86
484.208	6578.59
484.412	6451.61
484.616	6379.93
484.821	6308.26
485.025	6345.12
485.229	6609.31
485.433	6539.68
485.637	6472.09
485.841	6336.93
486.045	6365.6
486.249	6523.29
486.453	6443.42
486.657	6373.79
486.861	6662.55
487.065	6222.24
487.269	6275.49
487.473	6160.8
487.677	6515.1
487.881	6506.91
488.085	6246.82
488.289	6498.72
488.493	6551.96
488.697	6451.61
488.901	6463.9
489.105	6332.83
489.309	6490.52
489.512	6558.11
489.716	6662.55
489.92	6547.87
490.124	6422.94
490.328	6662.55
490.531	6625.69
490.735	6525.34
490.939	6781.34
491.143	6658.46
491.346	6642.07
491.55	6779.29
491.754	6713.75
491.958	6846.87
492.161	7033.24
492.365	6941.08
492.569	6840.73
492.772	6969.75
492.976	6986.13
493.18	7000.47
493.383	7018.9
493.587	7219.6
493.79	7160.21
493.994	7043.48
494.197	7274.9
494.401	7401.87
494.605	7268.75
494.808	7625.1
495.012	7506.32
495.215	7498.13
495.419	7512.46
495.622	7631.24
495.825	7672.2
496.029	7915.91
496.232	7862.66
496.436	7860.62
496.639	8124.8
496.843	7971.21
497.046	8243.59
497.249	8245.63
497.453	8223.11
497.656	8489.34
497.859	8481.15
498.063	8524.16
498.266	8630.65
498.469	8692.09
498.673	8683.9
498.876	8984.95
499.079	8829.31
499.282	9197.94
499.485	9331.06
499.689	9238.9
499.892	9574.77
500.095	9611.63
500.298	9693.55
500.501	9539.95
500.705	9787.75
500.908	10248.55
501.111	10148.2
501.314	10064.23
501.517	10236.26
501.72	10461.54
501.923	10443.1
502.126	10887.51
502.329	10940.76
502.532	11080.02
502.735	11125.08
502.938	11487.57
503.141	11368.79
503.344	11571.54
503.547	11559.25
503.75	11917.64
503.953	12079.43
504.156	12106.06
504.359	12290.37
504.562	12554.56
504.765	12443.97
504.968	12781.88
505.17	12908.86
505.373	12929.34
505.576	13185.33
505.779	13437.23
505.982	13500.72
506.185	13820.21
506.387	14090.54
506.59	13881.64
506.793	14340.39
506.996	14350.63
507.198	14661.92
507.401	14539.04
507.604	14811.42
507.807	15214.87
508.009	15391
508.212	15382.81
508.415	15577.36
508.617	15849.74
508.82	15915.28
509.022	15991.05
509.225	16552.2
509.428	16720.13
509.63	16945.41
509.833	17035.52
510.035	17404.15
510.238	17541.36
510.44	17582.32
510.643	17651.95
510.845	18149.61
511.048	17871.09
511.25	18487.53
511.453	18602.21
511.655	19337.43
511.858	19048.67
512.06	19253.47
512.262	19333.34
512.465	19642.58
512.667	19955.92
512.87	20351.18
513.072	20345.03
513.274	20967.62
513.477	20836.55
513.679	21328.06
513.881	21514.42
514.084	21803.19
514.286	21983.41
514.488	22071.47
514.69	22620.33
514.893	22642.85
515.095	22991.01
515.297	23269.53
515.499	23111.84
515.701	23756.95
515.904	23965.84
516.106	23982.23
516.308	24440.97
516.51	24739.97
516.712	24715.4
516.914	25444.48
517.116	25714.81
517.318	25843.83
517.52	26337.39
517.722	26140.79
517.925	26640.49
518.127	26660.97
518.329	27177.06
518.531	27136.1
518.733	27807.83
518.935	27881.56
519.136	28117.07
519.338	28551.24
519.54	28541
519.742	28753.99
519.944	29227.07
520.146	30109.75
520.348	29970.49
520.55	30484.53
520.752	30308.4
520.954	30781.48
521.155	30328.88
521.357	31299.62
521.559	31455.26
521.761	32127
521.963	31936.54
522.164	32081.94
522.366	32196.63
522.568	33193.99
522.77	33036.3
522.971	33503.23
523.173	32925.71
523.375	34011.13
523.576	33822.72
523.778	33914.87
523.98	34719.73
524.181	34813.93
524.383	34553.84
524.584	35112.94
524.786	35057.64
524.988	35229.67
525.189	35557.35
525.391	36065.24
525.592	36016.09
525.794	36288.47
525.995	36237.27
526.197	36175.83
526.398	36681.68
526.6	37048.27
526.801	37134.28
527.003	37478.34
527.204	37496.77
527.406	37588.93
527.607	37451.72
527.808	37867.45
528.01	37519.3
528.211	37535.68
528.412	38494.13
528.614	37801.92
528.815	38338.49
529.016	38959.02
529.218	38682.55
529.419	38807.47
529.62	38768.56
529.822	38911.92
530.023	39118.76
530.224	38840.24
530.425	39065.52
530.626	38797.23
530.828	39098.28
531.029	39847.84
531.23	39006.12
531.431	39339.94
531.632	39262.12
531.833	39456.68
532.035	39587.75
532.236	39886.75
532.437	39782.3
532.638	39409.57
532.839	40234.91
533.04	40005.53
533.241	39534.5
533.442	40253.34
533.643	40320.92
533.844	39884.7
534.045	40261.53
534.246	39686.05
534.447	40157.08
534.648	40300.44
534.849	40314.78
535.05	39952.29
535.251	39970.72
535.451	40185.75
535.652	40404.89
535.853	40353.69
536.054	40376.22
536.255	40546.2
536.456	40146.84
536.657	40857.49
536.857	40124.32
537.058	40062.88
537.259	40736.66
537.46	40447.89
537.66	40325.02
537.861	40497.05
538.062	40259.48
538.263	40591.25
538.463	40144.8
538.664	40193.95
538.865	40273.82
539.065	40591.25
539.266	40157.08
539.466	41086.86
539.667	40109.98
539.868	40744.85
540.068	40120.22
540.269	40443.8
540.469	40710.03
540.67	40523.67
540.87	40601.49
541.071	40632.21
541.271	40652.69
541.472	39845.79
541.672	40177.56
541.873	40380.31
542.073	39901.09
542.274	40640.4
542.474	40265.63
542.675	40026.01
542.875	40726.42
543.075	40259.48
543.276	40046.49
543.476	40722.32
543.676	40365.98
543.877	40603.54
544.077	40515.48
544.277	40447.89
544.478	40439.7
544.678	41027.47
544.878	40322.97
545.078	40249.24
545.279	39952.29
545.479	40105.88
545.679	40427.42
545.879	40382.36
546.079	40732.56
546.28	40529.81
546.48	40052.64
546.68	40105.88
546.88	40365.98
547.08	40710.03
547.28	40345.5
547.48	39782.3
547.68	40425.37
547.88	40185.75
548.081	40495
548.281	40103.84
548.481	40210.33
548.681	40263.58
548.881	40390.55
549.081	40378.26
549.28	39942.05
549.48	40169.37
549.68	40134.56
549.88	40771.47
550.08	40308.63
550.28	40112.03
550.48	40282.01
550.68	40462.23
550.88	40015.77
551.08	39937.95
551.279	40320.92
551.479	40181.66
551.679	40148.89
551.879	40134.56
552.079	40335.26
552.278	39845.79
552.478	40001.44
552.678	39620.52
552.878	40320.92
553.077	40226.71
553.277	39948.19
553.477	40185.75
553.676	39899.04
553.876	39964.57
554.076	39784.35
554.275	39548.84
554.475	39524.26
554.674	40234.91
554.874	40189.85
555.074	39729.06
555.273	39888.8
555.473	40001.44
555.672	39192.49
555.872	39292.84
556.071	39434.15
556.271	39835.55
556.47	39282.6
556.67	39065.52
556.869	39272.36
557.068	39501.73
557.268	39176.11
557.467	39098.28
557.667	39227.31
557.866	39428.01
558.065	39260.07
558.265	38932.4
558.464	38776.75
558.663	39391.14
558.863	38512.56
559.062	38934.45
559.261	38260.66
559.461	39255.98
559.66	38309.82
559.859	38610.87
560.058	38424.5
560.258	38719.41
560.457	38225.85
560.656	38752.18
560.855	38518.71
561.054	38666.16
561.253	38260.66
561.453	38252.47
561.652	38295.48
561.851	38311.86
562.05	37810.11
562.249	37793.73
562.448	38076.35
562.647	38123.45
562.846	38002.62
563.045	37717.95
563.244	37781.44
563.443	38213.56
563.642	37285.83
563.841	37593.03
564.04	37779.39
564.239	37640.13
564.438	37158.86
564.637	37230.54
564.836	37324.74
565.035	36949.96
565.234	37103.56
565.432	36921.29
565.631	37031.88
565.83	36939.72
566.029	36839.37
566.228	36878.29
566.427	36767.69
566.625	36343.77
566.824	36476.88
567.023	36782.03
567.222	36108.25
567.42	36745.17
567.619	36638.67
567.818	36437.97
568.016	36028.38
568.215	36339.67
568.414	36263.89
568.612	36151.26
568.811	35649.5
569.01	35889.12
569.208	35254.25
569.407	35827.68
569.605	35104.74
569.804	35674.08
570.002	35162.09
570.201	35680.22
570.4	35205.09
570.598	34994.15
570.797	34713.58
570.995	34983.91
571.193	34420.72
571.392	35250.15
571.59	34566.13
571.789	34713.58
571.987	34463.73
572.186	34672.62
572.384	34074.62
572.582	34035.7
572.781	34144.25
572.979	33509.38
573.177	33755.13
573.376	34021.37
573.574	33689.6
573.772	33826.81
573.971	33415.17
574.169	33253.38
574.367	32874.51
574.565	33396.74
574.763	33419.27
574.962	33370.11
575.16	32731.15
575.358	33077.26
575.556	32960.52
575.754	32948.23
575.952	32610.32
576.151	32667.66
576.349	32026.65
576.547	32135.19
576.745	32317.46
576.943	32243.73
577.141	31995.93
577.339	31959.06
577.537	31854.62
577.735	31621.15
577.933	31256.61
578.131	32067.61
578.329	31438.88
578.527	31234.08
578.725	31320.1
578.923	31320.1
579.121	30769.19
579.319	30824.49
579.516	31338.53
579.714	30898.22
579.912	30666.8
580.11	30736.43
580.308	30818.35
580.506	30654.51
580.704	30210.1
580.901	30507.05
581.099	30386.22
581.297	29933.62
581.495	30070.84
581.692	29970.49
581.89	29728.83
582.088	30115.89
582.285	30005.3
582.483	29665.34
582.681	29640.76
582.878	29429.82
583.076	29239.36
583.274	29610.04
583.471	29067.33
583.669	29423.68
583.866	29022.28
584.064	29423.68
584.262	28676.17
584.459	29014.09
584.657	28797
584.854	28907.59
585.052	28637.26
585.249	28680.27
585.447	28336.21
585.644	28188.75
585.841	28129.36
586.039	28541
586.236	27863.13
586.434	27883.61
586.631	27856.98
586.828	28031.06
587.026	27560.03
587.223	27789.4
587.42	27600.99
587.618	27629.66
587.815	27261.02
588.012	27592.79
588.21	27015.27
588.407	27580.51
588.604	27113.57
588.801	26986.6
588.999	26888.29
589.196	26835.05
589.393	26968.16
589.59	26910.82
589.787	26802.28
589.984	26382.45
590.182	26333.29
590.379	26478.7
590.576	26218.61
590.773	26327.15
590.97	26116.21
591.167	25872.5
591.364	25942.13
591.561	26112.11
591.758	25821.3
591.955	25886.84
592.152	25892.98
592.349	25503.87
592.546	25555.07
592.743	25858.17
592.94	24987.78
593.137	25221.25
593.334	25329.79
593.531	24817.8
593.727	25258.11
593.924	25026.69
594.121	25196.67
594.318	24998.02
594.515	24926.34
594.712	25014.4
594.908	24424.59
595.105	24643.72
595.302	24486.03
595.499	24692.87
595.696	24246.41
595.892	24483.98
596.089	24293.52
596.286	24713.35
596.482	24379.53
596.679	24187.02
596.876	24500.36
597.072	23892.12
597.269	24301.71
597.466	23869.59
597.662	23599.26
597.859	23888.02
598.055	23847.06
598.252	23494.81
598.448	23537.82
598.645	23345.31
598.841	23054.5
599.038	23572.63
599.234	23392.41
599.431	22767.78
599.627	23206.05
599.824	23236.77
600.02	22855.84
600.217	22831.27
600.413	22835.36
600.609	22704.29
600.806	22685.86
601.002	23040.16
601.198	22646.95
601.395	22266.03
601.591	22444.2
601.787	22319.28
601.984	22139.05
602.18	22313.13
602.376	21766.32
602.572	21860.53
602.769	21866.67
602.965	21448.89
603.161	21846.19
603.357	21799.09
603.553	21919.92
603.75	21680.31
603.946	21354.68
604.142	21539
604.338	21420.22
604.534	21141.69
604.73	21002.43
604.926	20943.04
605.122	21074.11
605.318	21059.77
605.514	20914.37
605.71	20744.39
605.906	20691.14
606.102	20717.76
606.298	20728
606.494	20429
606.69	20580.55
606.886	20355.27
607.082	20500.68
607.278	20500.68
607.474	20152.52
607.67	20254.92
607.866	20154.57
608.062	20099.28
608.257	20048.08
608.453	19781.84
608.649	19710.16
608.845	19755.22
609.041	19755.22
609.236	19681.49
609.432	19548.37
609.628	19431.64
609.824	19519.7
610.019	19314.91
610.215	19476.69
610.411	19394.78
610.606	19216.6
610.802	19261.66
610.998	19134.68
611.193	19280.09
611.389	18946.27
611.584	19054.81
611.78	18993.37
611.976	19060.96
612.171	18921.7
612.367	18657.51
612.562	18620.64
612.758	18632.93
612.953	18471.14
613.149	18718.95
613.344	18127.08
613.539	18452.71
613.735	18624.74
613.93	18551.01
614.126	18319.59
614.321	18778.34
614.517	18405.61
614.712	17924.33
614.907	18043.12
615.103	18209
615.298	17842.42
615.493	18206.95
615.688	17668.34
615.884	18225.39
616.079	17715.44
616.274	17795.31
616.47	17481.97
616.665	17971.44
616.86	17725.68
617.055	17529.08
617.25	17602.8
617.445	17543.41
617.641	17266.94
617.836	17565.94
618.031	17281.27
618.226	17275.13
618.421	17197.31
618.616	17178.87
618.811	16988.41
619.006	16908.54
619.201	16589.06
619.396	16804.1
619.591	16486.66
619.786	16808.19
619.981	16738.56
620.176	16552.2
620.371	16414.98
620.566	16453.89
620.761	16263.43
620.956	16509.19
621.151	16083.21
621.346	16363.78
621.541	15933.71
621.735	15948.04
621.93	15821.07
622.125	15753.49
622.32	15438.1
622.515	15833.36
622.709	15440.15
622.904	15456.53
623.099	15270.17
623.294	15436.05
623.488	15171.86
623.683	15175.96
623.878	14969.12
624.072	15096.09
624.267	14958.88
624.462	14575.91
624.656	14641.44
624.851	14922.01
625.046	14571.81
625.24	14393.64
625.435	14350.63
625.629	14260.52
625.824	14108.97
626.018	14319.91
626.213	13904.17
626.407	14180.65
626.602	13832.49
626.796	13920.56
626.991	13668.66
627.185	13769.01
627.38	13615.41
627.574	13267.25
627.768	13404.47
627.963	13392.18
628.157	13084.98
628.352	13525.3
628.546	13199.67
628.74	13056.31
628.935	12945.72
629.129	12980.54
629.323	12820.8
629.517	12941.63
629.712	12644.67
629.906	12814.65
630.1	12482.88
630.294	12708.16
630.489	12505.41
630.683	12470.59
630.877	12308.8
631.071	12341.57
631.265	12321.09
631.459	12329.28
631.653	12028.23
631.848	11991.37
632.042	11954.51
632.236	12198.21
632.43	11788.62
632.624	11952.46
632.818	11927.88
633.012	11557.2
633.206	11551.06
633.4	11675.98
633.594	11344.21
633.788	11434.32
633.982	11684.17
634.176	11536.72
634.369	11233.62
634.563	11301.2
634.757	11374.93
634.951	11075.93
635.145	11067.74
635.339	11225.43
635.533	10907.99
635.726	11016.54
635.92	10955.1
636.114	10815.83
636.308	10649.95
636.501	10705.24
636.695	10738.01
636.889	10494.3
637.083	10674.53
637.276	10305.89
637.47	10318.18
637.664	10424.67
637.857	10434.91
638.051	10088.81
638.244	10199.4
638.438	10160.48
638.632	10047.85
638.825	10092.9
639.019	9916.78
639.212	9851.24
639.406	9722.22
639.599	9857.39
639.793	9785.71
639.986	9525.61
640.18	9556.33
640.373	9662.83
640.567	9568.62
640.76	9599.34
640.954	9474.42
641.147	9331.06
641.34	9427.31
641.534	9118.07
641.727	9290.1
641.92	9204.08
642.114	9210.23
642.307	9181.56
642.5	8948.09
642.694	9009.53
642.887	8720.76
643.08	8819.07
643.273	8798.59
643.467	8647.04
643.66	8688
643.853	8638.84
644.046	8397.18
644.239	8671.61
644.432	8370.56
644.626	8563.07
644.819	8255.87
645.012	8206.72
645.205	8264.07
645.398	8227.2
645.591	8126.85
645.784	8196.48
645.977	8096.13
646.17	7977.35
646.363	7907.72
646.556	8167.81
646.749	7920.01
646.942	7795.08
647.135	7784.84
647.328	7694.73
647.521	7479.69
647.714	7678.35
647.907	7614.86
648.099	7614.86
648.292	7377.3
648.485	7393.68
648.678	7342.48
648.871	7387.54
649.064	7295.38
649.256	7440.78
649.449	7195.03
649.642	7170.45
649.835	7174.55
650.027	7010.71
650.22	6920.6
650.413	6832.54
650.605	6936.98
650.798	6873.5
650.991	6785.43
651.183	6867.35
651.376	6750.62
651.568	6736.28
651.761	6619.55
651.954	6652.31
652.146	6633.88
652.339	6633.88
652.531	6545.82
652.724	6601.12
652.916	6472.09
653.109	6492.57
653.301	6371.74
653.494	6519.2
653.686	6351.26
653.879	6408.61
654.071	6082.98
654.263	6056.36
654.456	6185.38
654.648	6152.61
654.84	5968.29
655.033	5882.28
655.225	6101.41
655.417	5927.33
655.61	5818.79
655.802	5777.83
655.994	5751.21
656.186	5765.54
656.379	5677.48
656.571	5624.23
656.763	5550.51
656.955	5560.75
657.148	5634.47
657.34	5482.92
657.532	5456.3
657.724	5499.31
657.916	5466.54
658.108	5435.82
658.3	5329.33
658.492	5212.59
658.684	5302.7
658.876	5243.31
659.068	5403.05
659.26	5222.83
659.452	5169.59
659.644	5153.2
659.836	5065.14
660.028	5126.58
660.22	5140.91
660.412	4870.58
660.604	4979.12
660.796	4954.55
660.988	4766.14
661.18	4776.38
661.372	4725.18
661.563	4757.94
661.755	4690.36
661.947	4684.22
662.139	4749.75
662.331	4587.96
662.522	4530.62
662.714	4641.21
662.906	4569.53
663.097	4596.15
663.289	4549.05
663.481	4413.88
663.673	4344.25
663.864	4377.02
664.056	4485.56
664.247	4303.29
664.439	4370.88
664.631	4346.3
664.822	4286.91
665.014	4248
665.205	4239.81
665.397	4137.41
665.588	4096.45
665.78	4121.03
665.971	4008.39
666.163	4082.11
666.354	4104.64
666.546	3969.48
666.737	3912.13
666.929	4073.92
667.12	3983.81
667.311	4022.72
667.503	3961.28
667.694	3924.42
667.885	3822.02
668.077	3824.07
668.268	3764.68
668.459	3809.73
668.651	3850.69
668.842	3754.44
669.033	3789.25
669.224	3748.29
669.416	3779.01
669.607	3754.44
669.798	3676.62
669.989	3695.05
670.18	3520.97
670.371	3600.84
670.563	3439.05
670.754	3639.75
670.945	3553.74
671.136	3563.98
671.327	3383.76
671.518	3504.59
671.709	3400.14
671.9	3555.79
672.091	3400.14
672.282	3461.58
672.473	3430.86
672.664	3394
672.855	3424.72
673.046	3363.28
673.237	3361.23
673.428	3324.37
673.619	3342.8
673.809	3408.33
674	3373.52
674.191	3361.23
674.382	3238.35
674.573	3258.83
674.764	3203.54
674.954	3205.58
675.145	3103.18
675.336	3295.69
675.527	3168.72
675.717	3193.3
675.908	3289.55
676.099	3185.1
676.289	3049.94
676.48	3092.94
676.671	3074.51
676.861	3131.86
677.052	3021.27
677.243	3092.94
677.433	3054.03
677.624	3201.49
677.814	3019.22
678.005	3074.51
678.195	3086.8
678.386	3013.07
678.576	3041.75
678.767	2904.53
678.957	2968.02
679.148	2918.87
679.338	2996.69
679.529	2879.96
679.719	3037.65
679.909	3049.94
680.1	2968.02
680.29	3115.47
680.481	2968.02
680.671	2904.53
680.861	2869.72
681.052	2867.67
681.242	2875.86
681.432	2863.57
681.622	2918.87
681.813	2961.87
682.003	2830.8
682.193	2779.61
682.383	2890.2
682.573	2974.16
682.764	2945.49
682.954	2851.28
683.144	2757.08
683.334	2851.28
683.524	2929.11
683.714	2806.23
683.904	2707.93
684.094	2873.81
684.284	2816.47
684.474	2988.5
684.664	2691.54
684.854	2896.34
685.044	2804.18
685.234	2712.02
685.424	2791.89
685.614	2705.88
685.804	2886.1
685.994	2712.02
686.184	2843.09
686.374	2712.02
686.564	2836.95
686.753	2892.24
686.943	2648.54
687.133	2769.37
687.323	2771.41
687.513	2718.17
687.702	2650.58
687.892	2785.75
688.082	2640.34
688.272	2716.12
688.461	2675.16
688.651	2716.12
688.841	2746.84
689.03	2669.02
689.22	2748.89
689.41	2470.36
689.599	2515.42
689.789	2716.12
689.979	2601.43
690.168	2638.3
690.358	2697.69
690.547	2658.78
690.737	2683.35
690.926	2683.35
691.116	2611.67
691.305	2763.22
691.495	2585.05
691.684	2599.38
691.874	2709.97
692.063	2685.4
692.252	2607.58
692.442	2642.39
692.631	2562.52
692.82	2728.41
693.01	2609.62
693.199	2615.77
693.388	2642.39
693.578	2615.77
693.767	2626.01
693.956	2755.03
694.146	2750.93
694.335	2689.49
694.524	2716.12
694.713	2652.63
694.902	2623.96
695.092	2669.02
695.281	2601.43
695.47	2783.7
695.659	2615.77
695.848	2636.25
696.037	2675.16
696.226	2546.14
696.415	2564.57
696.604	2765.27
696.793	2730.45
696.982	2656.73
697.171	2687.45
697.36	2705.88
697.549	2619.86
697.738	2724.31
697.927	2623.96
698.116	2666.97
698.305	2568.66
698.494	2626.01
698.683	2677.21
698.872	2652.63
699.061	2689.49
699.25	2609.62
699.438	2562.52
699.627	2654.68
699.816	2691.54
700.005	2574.81
700.193	2595.29
700.382	2509.27
700.571	2574.81
700.76	2574.81
700.948	2593.24
701.137	2591.19
701.326	2619.86
701.514	2587.1
701.703	2589.14
701.892	2648.54
702.08	2533.85
702.269	2632.15
702.457	2499.03
702.646	2626.01
702.834	2490.84
703.023	2578.9
703.212	2578.9
703.4	2496.99
703.589	2456.03
703.777	2599.38
703.965	2398.68
704.154	2628.06
704.342	2443.74
704.531	2609.62
704.719	2415.07
704.907	2402.78
705.096	2480.6
705.284	2503.13
705.472	2480.6
705.661	2472.41
705.849	2308.57
706.037	2548.19
706.226	2492.89
706.414	2367.96
706.602	2494.94
706.79	2365.92
706.979	2345.44
707.167	2443.74
707.355	2464.22
707.543	2382.3
707.731	2494.94
707.919	2333.15
708.107	2439.64
708.296	2394.59
708.484	2390.49
708.672	2281.95
708.86	2284
709.048	2226.65
709.236	2214.37
709.424	2247.13
709.612	2230.75
709.8	2245.09
709.988	2300.38
710.176	2316.76
710.364	2306.52
710.551	2261.47
710.739	2245.09
710.927	2308.57
711.115	2146.78
711.303	2425.31
711.491	2275.81
711.679	2220.51
711.866	2111.97
712.054	2243.04
712.242	2177.5
712.43	2202.08
712.617	2169.31
712.805	2191.84
712.993	2204.13
713.181	2150.88
713.368	2095.58
713.556	2267.61
713.744	2093.54
713.931	2185.69
714.119	2134.5
714.306	2183.65
714.494	2079.2
714.682	2111.97
714.869	2130.4
715.057	2154.98
715.244	2154.98
715.432	2081.25
715.619	2042.34
715.807	2073.06
715.994	2046.43
716.182	1999.33
716.369	2025.95
716.556	2007.52
716.744	1888.74
716.931	1937.89
717.119	2025.95
717.306	1763.81
717.493	2007.52
717.681	1972.71
717.868	1984.99
718.055	1937.89
718.242	1946.08
718.43	1909.22
718.617	1862.12
718.804	1868.26
718.991	1827.3
719.179	1827.3
719.366	1808.87
719.553	1925.6
719.74	1815.01
719.927	1819.11
720.114	1915.36
720.301	1796.58
720.488	1804.77
720.676	1755.62
720.863	1825.25
721.05	1679.85
721.237	1683.94
721.424	1882.6
721.611	1743.33
721.798	1722.85
721.985	1784.29
722.172	1761.77
722.358	1743.33
722.545	1798.63
722.732	1774.05
722.919	1579.5
723.106	1741.29
723.293	1651.17
723.48	1585.64
723.667	1651.17
723.853	1634.79
724.04	1700.33
724.227	1591.78
724.414	1534.44
724.6	1665.51
724.787	1726.95
724.974	1710.57
725.161	1503.72
725.347	1581.54
725.534	1632.74
725.72	1579.5
725.907	1620.46
726.094	1616.36
726.28	1700.33
726.467	1624.55
726.653	1606.12
726.84	1513.96
727.027	1526.25
727.213	1573.35
727.4	1599.98
727.586	1507.82
727.773	1532.39
727.959	1530.34
728.145	1481.19
728.332	1485.29
728.518	1536.49
728.705	1507.82
728.891	1477.1
729.077	1450.47
729.264	1499.63
729.45	1386.99
729.636	1542.63
729.823	1591.78
730.009	1509.86
730.195	1413.61
730.382	1417.71
730.568	1337.84
730.754	1450.47
730.94	1516.01
731.126	1544.68
731.313	1421.8
731.499	1407.47
731.685	1571.3
731.871	1425.9
732.057	1399.27
732.243	1458.67
732.429	1374.7
732.615	1350.12
732.801	1456.62
732.987	1432.04
733.173	1260.01
733.359	1425.9
733.545	1333.74
733.731	1393.13
733.917	1401.32
734.103	1374.7
734.289	1323.5
734.475	1368.56
734.661	1333.74
734.847	1327.6
735.033	1354.22
735.219	1257.96
735.404	1325.55
735.59	1352.17
735.776	1268.2
735.962	1327.6
736.148	1247.72
736.333	1384.94
736.519	1255.92
736.705	1419.75
736.89	1264.11
737.076	1217.01
737.262	1260.01
737.447	1214.96
737.633	1210.86
737.819	1280.49
738.004	1282.54
738.19	1280.49
738.375	1247.72
738.561	1233.39
738.747	1231.34
738.932	1210.86
739.118	1190.38
739.303	1159.66
739.489	1188.33
739.674	1161.71
739.859	1194.48
740.045	1198.57
740.23	1233.39
740.416	1065.46
740.601	1192.43
740.786	1001.97
740.972	1112.56
741.157	1032.69
741.342	1092.08
741.528	1202.67
741.713	1161.71
741.898	1090.03
742.084	1153.52
742.269	1149.42
742.454	1128.94
742.639	1155.57
742.824	1067.5
743.01	1096.18
743.195	1096.18
743.38	1096.18
743.565	1081.84
743.75	1118.7
743.935	1071.6
744.12	1057.26
744.305	1073.65
744.49	1001.97
744.675	1063.41
744.86	1034.74
745.045	975.35
745.23	1006.06
745.415	1024.5
745.6	1010.16
745.785	971.25
745.97	1018.35
746.155	989.68
746.34	1098.22
746.525	956.91
746.71	1073.65
746.895	924.15
747.079	1012.21
747.264	1018.35
747.449	942.58
747.634	987.63
747.819	932.34
748.003	891.38
748.188	977.39
748.373	1008.11
748.557	864.75
748.742	911.86
748.927	1018.35
749.111	899.57
749.296	870.9
749.481	938.48
749.665	883.19
749.85	967.15
750.034	940.53
750.219	905.71
750.404	840.18
750.588	831.99
750.773	819.7
750.957	893.43
751.141	877.04
751.326	881.14
751.51	850.42
751.695	838.13
751.879	782.84
752.064	797.17
752.248	866.8
752.432	821.75
752.617	801.27
752.801	719.35
752.985	819.7
753.17	815.6
753.354	741.88
753.538	772.6
753.722	719.35
753.907	731.64
754.091	770.55
754.275	664.05
754.459	731.64
754.643	748.02
754.828	848.37
755.012	752.12
755.196	713.21
755.38	707.06
755.564	682.49
755.748	643.57
755.932	651.77
756.116	666.1
756.3	729.59
756.484	729.59
756.668	676.34
756.852	717.3
757.036	717.3
757.22	662.01
757.404	752.12
757.588	727.54
757.772	705.01
757.956	684.53
758.14	696.82
758.323	575.99
758.507	639.48
758.691	600.57
758.875	657.91
759.059	694.77
759.242	596.47
759.426	623.09
759.61	635.38
759.794	625.14
759.977	606.71
760.161	539.13
760.345	588.28
760.528	555.51
760.712	608.76
760.895	645.62
761.079	602.61
761.263	600.57
761.446	549.37
761.63	588.28
761.813	518.65
761.997	610.81
762.18	522.74
762.364	522.74
762.547	557.56
762.731	485.88
762.914	477.69
763.098	578.04
763.281	528.89
763.464	489.98
763.648	549.37
763.831	594.42
764.015	465.4
764.198	537.08
764.381	522.74
764.564	483.83
764.748	545.27
764.931	541.18
765.114	551.42
765.297	514.55
765.481	526.84
765.664	514.55
765.847	516.6
766.03	543.22
766.213	584.18
766.397	553.46
766.58	428.54
766.763	502.26
766.946	526.84
767.129	518.65
767.312	502.26
767.495	592.37
767.678	489.98
767.861	557.56
768.044	461.3
768.227	508.41
768.41	541.18
768.593	520.7
768.776	506.36
768.959	494.07
769.142	471.54
769.324	496.12
769.507	430.59
769.69	430.59
769.873	463.35
770.056	524.79
770.239	520.7
770.421	375.29
770.604	455.16
770.787	444.92
770.97	541.18
771.152	449.02
771.335	430.59
771.518	424.44
771.7	545.27
771.883	453.11
772.066	459.26
772.248	502.26
772.431	410.11
772.613	479.74
772.796	477.69
772.978	463.35
773.161	410.11
773.343	489.98
773.526	504.31
773.708	555.51
773.891	424.44
774.073	389.63
774.256	410.11
774.438	465.4
774.621	393.72
774.803	467.45
774.985	416.25
775.168	449.02
775.35	326.14
775.532	545.27
775.715	397.82
775.897	434.68
776.079	389.63
776.261	489.98
776.444	408.06
776.626	406.01
776.808	451.07
776.99	424.44
777.173	453.11
777.355	434.68
777.537	408.06
777.719	360.95
777.901	436.73
778.083	381.43
778.265	313.85
778.447	377.34
778.629	401.91
778.811	332.28
778.993	408.06
779.175	326.14
779.357	363
779.539	387.58
779.721	403.96
779.903	315.9
780.085	328.19
780.267	328.19
780.449	348.67
780.631	315.9
780.812	322.04
780.994	387.58
781.176	268.8
781.358	334.33
781.54	262.65
781.721	348.67
781.903	272.89
782.085	348.67
782.267	350.71
782.448	266.75
782.63	375.29
782.812	260.6
782.993	315.9
783.175	289.28
783.357	264.7
783.538	236.03
783.72	299.52
783.901	215.55
784.083	266.75
784.264	289.28
784.446	266.75
784.627	252.41
784.809	301.56
784.99	328.19
785.172	279.04
785.353	276.99
785.535	342.52
785.716	272.89
785.897	203.26
786.079	258.56
786.26	264.7
786.441	223.74
786.623	334.33
786.804	246.27
786.985	231.93
787.167	229.88
787.348	221.69
787.529	154.11
787.71	268.8
787.891	252.41
788.073	338.43
788.254	236.03
788.435	205.31
788.616	215.55
788.797	252.41
788.978	287.23
789.159	244.22
789.34	266.75
789.522	176.64
789.703	195.07
789.884	231.93
790.065	266.75
790.246	219.64
790.427	242.17
790.607	197.12
790.788	317.95
790.969	201.21
791.15	215.55
791.331	152.06
791.512	244.22
791.693	254.46
791.874	150.01
792.054	211.45
792.235	256.51
792.416	221.69
792.597	186.88
792.778	119.29
792.958	227.84
793.139	137.73
793.32	211.45
793.5	270.84
793.681	213.5
793.862	203.26
794.042	193.02
794.223	199.16
794.404	139.77
794.584	188.93
794.765	160.25
794.945	211.45
795.126	168.45
795.306	174.59
795.487	203.26
795.667	156.16
795.848	188.93
796.028	162.3
796.209	158.21
796.389	160.25
796.57	193.02
796.75	104.96
796.93	164.35
797.111	152.06
797.291	209.4
797.471	170.49
797.652	207.36
797.832	147.97
798.012	190.97
798.192	154.11
798.373	121.34
798.553	168.45
798.733	172.54
798.913	98.81
799.093	172.54
799.274	172.54
799.454	174.59
799.634	145.92
799.814	150.01
799.994	152.06
800.174	184.83
800.354	123.39
800.534	102.91
800.714	125.44
800.894	90.62
801.074	154.11
801.254	145.92
801.434	186.88
801.614	193.02
801.794	160.25
801.974	268.8
802.154	150.01
802.334	123.39
802.514	147.97
802.693	80.38
802.873	70.14
803.053	174.59
803.233	135.68
803.413	100.86
803.592	170.49
803.772	80.38
803.952	143.87
804.131	127.49
804.311	88.57
804.491	145.92
804.67	137.73
804.85	150.01
805.03	96.77
805.209	154.11
805.389	162.3
805.568	98.81
805.748	131.58
805.928	158.21
806.107	74.24
806.287	152.06
806.466	174.59
806.646	156.16
806.825	154.11
807.004	166.4
807.184	70.14
807.363	156.16
807.543	133.63
807.722	141.82
807.901	127.49
808.081	111.1
808.26	115.2
808.439	111.1
808.619	121.34
808.798	141.82
808.977	20.99
809.156	125.44
809.336	125.44
809.515	109.05
809.694	147.97
809.873	172.54
810.052	78.33
810.231	80.38
810.411	33.28
810.59	82.43
810.769	78.33
810.948	113.15
811.127	68.09
811.306	182.78
811.485	33.28
811.664	150.01
811.843	129.53
812.022	115.2
812.201	111.1
812.38	147.97
812.559	117.25
812.737	137.73
812.916	68.09
813.095	74.24
813.274	131.58
813.453	31.23
813.632	133.63
813.811	78.33
813.989	84.48
814.168	102.91
814.347	102.91
814.526	139.77
814.704	94.72
814.883	57.86
815.062	123.39
815.24	57.86
815.419	98.81
815.598	33.28
815.776	23.04
815.955	111.1
816.133	74.24
816.312	59.9
816.49	59.9
816.669	113.15
816.847	55.81
817.026	76.29
817.204	57.86
817.383	49.66
817.561	98.81
817.74	109.05
817.918	35.33
818.097	23.04
818.275	55.81
818.453	86.53
818.632	53.76
818.81	102.91
818.988	88.57
819.167	43.52
819.345	111.1
819.523	55.81
819.701	41.47
819.879	88.57
820.058	43.52
820.236	72.19
820.414	-3.58
820.592	121.34
820.77	84.48
820.948	-50.69
821.127	84.48
821.305	80.38
821.483	51.71
821.661	88.57
821.839	33.28
822.017	154.11
822.195	23.04
822.373	107.01
822.551	72.19
822.729	82.43
822.907	-9.73
823.085	78.33
823.262	117.25
823.44	8.7
823.618	49.66
823.796	94.72
823.974	39.42
824.152	4.61
824.329	-28.16
824.507	33.28
824.685	96.77
824.863	55.81
825.04	80.38
825.218	55.81
825.396	74.24
825.574	102.91
825.751	51.71
825.929	23.04
826.107	35.33
826.284	-5.63
826.462	90.62
826.639	47.62
826.817	35.33
826.994	49.66
827.172	92.67
827.349	55.81
827.527	100.86
827.704	10.75
827.882	49.66
828.059	20.99
828.237	55.81
828.414	68.09
828.591	37.38
828.769	-17.92
828.946	55.81
829.124	-30.21
829.301	8.7
829.478	43.52
829.655	-9.73
829.833	109.05
830.01	0.51
830.187	115.2
830.364	23.04
830.542	49.66
830.719	49.66
830.896	129.53
831.073	94.72
831.25	35.33
831.427	14.85
831.604	27.14
831.782	12.8
831.959	37.38
832.136	43.52
832.313	12.8
832.49	-24.06
832.667	39.42
832.844	23.04
833.021	45.57
833.198	43.52
833.374	76.29
833.551	33.28
833.728	57.86
833.905	14.85
834.082	41.47
834.259	25.09
834.436	51.71
834.612	2.56
834.789	100.86
834.966	10.75
835.143	133.63
835.319	74.24
835.496	61.95
835.673	-11.78
835.85	70.14
836.026	-3.58
836.203	37.38
836.38	74.24
836.556	-50.69
836.733	-5.63
836.909	57.86
837.086	49.66
837.262	102.91
837.439	80.38
837.616	-15.87
837.792	16.9
837.968	14.85
838.145	-19.97
838.321	37.38
838.498	94.72
838.674	64
838.851	41.47
839.027	-11.78
839.203	-1.54
839.38	39.42
839.556	20.99
839.732	49.66
839.909	-26.11
840.085	104.96
840.261	-11.78
840.437	-30.21
840.614	53.76
840.79	43.52
840.966	47.62
841.142	25.09
841.318	31.23
841.494	0.51
841.671	0.51
841.847	37.38
842.023	0.51
842.199	41.47
842.375	6.66
842.551	27.14
842.727	-95.74
842.903	51.71
843.079	0.51
843.255	0.51
843.431	78.33
843.607	78.33
843.783	-1.54
843.959	72.19
844.134	-50.69
844.31	-9.73
844.486	-38.4
844.662	49.66
844.838	29.18
845.013	78.33
845.189	-50.69
845.365	-46.59
845.541	90.62
845.716	-22.02
845.892	72.19
846.068	6.66
846.244	23.04
846.419	70.14
846.595	86.53
846.77	12.8
846.946	49.66
847.122	10.75
847.297	64
847.473	4.61
847.648	10.75
847.824	86.53
847.999	68.09
848.175	18.94
848.35	35.33
848.526	53.76
848.701	25.09
848.876	16.9
849.052	-1.54
849.227	37.38
849.403	25.09
849.578	23.04
849.753	-40.45
849.929	80.38
850.104	82.43
850.279	33.28
850.454	49.66
850.63	119.29
850.805	-32.26
850.98	-17.92
851.155	16.9
851.33	37.38
851.505	29.18
851.681	59.9
851.856	43.52
852.031	-9.73
852.206	16.9
852.381	8.7
852.556	29.18
852.731	-17.92
852.906	25.09
853.081	37.38
853.256	20.99
853.431	31.23
853.606	80.38
853.781	90.62
853.956	-15.87
854.131	35.33
854.305	-56.83
854.48	-46.59
854.655	45.57
854.83	4.61
855.005	-15.87
855.18	59.9
855.354	20.99
855.529	29.18
855.704	20.99
855.879	27.14
856.053	55.81
856.228	-1.54
856.403	55.81
856.577	-36.35
856.752	80.38
856.926	49.66
857.101	-44.54
857.276	-32.26
857.45	-15.87
857.625	49.66
857.799	61.95
857.974	-7.68
858.148	55.81
858.323	-5.63
858.497	-26.11
858.672	-7.68
858.846	64
859.02	43.52
859.195	-48.64
859.369	-42.5
859.543	53.76
859.718	35.33
859.892	25.09
860.066	45.57
860.241	33.28
860.415	-1.54
860.589	88.57
860.763	0.51
860.938	16.9
861.112	23.04
861.286	-30.21
861.46	10.75
861.634	31.23
861.808	47.62
861.982	-9.73
862.157	-26.11
862.331	-38.4
862.505	-60.93
862.679	0.51
862.853	39.42
863.027	-15.87
863.201	-1.54
863.375	-17.92
863.549	12.8
863.722	-11.78
863.896	-24.06
864.07	10.75
864.244	39.42
864.418	43.52
864.592	-3.58
864.766	-15.87
864.939	-22.02
865.113	-17.92
865.287	23.04
865.461	18.94
865.634	47.62
865.808	23.04
865.982	-56.83
866.156	96.77
866.329	-19.97
866.503	-34.3
866.676	-42.5
866.85	82.43
867.024	12.8
867.197	39.42
867.371	-71.17
867.544	-73.21
867.718	41.47
867.891	-5.63
868.065	-28.16
868.238	27.14
868.412	-19.97
868.585	25.09
868.759	0.51
868.932	20.99
869.105	14.85
869.279	39.42
869.452	-40.45
869.625	-26.11
869.799	-22.02
869.972	-46.59
870.145	14.85
870.319	25.09
870.492	61.95
870.665	-3.58
870.838	51.71
871.011	37.38
871.185	-28.16
871.358	-56.83
871.531	51.71
871.704	-1.54
871.877	-3.58
872.05	2.56
872.223	33.28
872.396	-17.92
872.569	78.33
872.742	-62.98
872.915	33.28
873.088	-15.87
873.261	104.96
873.434	18.94
873.607	10.75
873.78	-36.35
873.953	31.23
874.126	-26.11
874.299	4.61
874.471	41.47
874.644	4.61
874.817	10.75
874.99	-5.63
875.163	-28.16
875.335	16.9
875.508	27.14
875.681	4.61
875.853	31.23
876.026	-67.07
876.199	12.8
876.371	64
876.544	41.47
876.717	25.09
876.889	-19.97
877.062	20.99
877.234	-1.54
877.407	4.61
877.579	33.28
877.752	70.14
877.924	-58.88
878.097	64
878.269	74.24
878.442	2.56
878.614	-1.54
878.786	76.29
878.959	-13.82
879.131	72.19
879.303	16.9
879.476	82.43
879.648	-26.11
879.82	8.7
879.993	-46.59
880.165	-17.92
880.337	-36.35
880.509	82.43
880.681	-19.97
880.854	23.04
881.026	6.66
881.198	-1.54
881.37	61.95
881.542	-13.82
881.714	8.7
881.886	18.94
882.058	23.04
882.23	8.7
882.402	6.66
882.574	-1.54
882.746	4.61
882.918	20.99
883.09	-3.58
883.262	45.57
883.434	-17.92
883.606	12.8
883.778	0.51
883.95	-32.26
884.122	-52.74
884.293	-34.3
884.465	-13.82
884.637	64
884.809	16.9
884.98	35.33
885.152	45.57
885.324	45.57
885.496	33.28
885.667	-3.58
885.839	-5.63
886.011	57.86
886.182	-1.54
886.354	25.09
886.525	57.86
886.697	55.81
886.869	-32.26
887.04	31.23
887.212	16.9
887.383	-73.21
887.555	-40.45
887.726	16.9
887.897	29.18
888.069	39.42
888.24	0.51
888.412	14.85
888.583	-11.78
888.754	-40.45
888.926	-9.73
889.097	31.23
889.268	29.18
889.44	82.43
889.611	-5.63
889.782	6.66
889.953	-30.21
890.125	2.56
890.296	72.19
890.467	4.61
890.638	18.94
890.809	-19.97
890.98	27.14
891.151	-36.35
891.323	-5.63
891.494	25.09
891.665	-11.78
891.836	82.43
892.007	-3.58
892.178	-5.63
892.349	-5.63
892.52	31.23
892.691	-50.69
892.862	68.09
893.032	-19.97
893.203	8.7
893.374	23.04
893.545	-13.82
893.716	39.42
893.887	-7.68
894.057	-46.59
894.228	-62.98
894.399	-13.82
894.57	-15.87
894.74	33.28
894.911	-13.82
895.082	-50.69
895.253	27.14
895.423	-83.45
895.594	37.38
895.764	-13.82
895.935	-22.02
896.106	-1.54
896.276	-48.64
896.447	-7.68
896.617	6.66
896.788	49.66
896.958	16.9
897.129	-67.07
897.299	-28.16
897.47	0.51
897.64	16.9
897.81	16.9
897.981	12.8
898.151	49.66
898.322	-24.06
898.492	43.52
898.662	-17.92
898.832	10.75
899.003	8.7
899.173	12.8
899.343	-17.92
899.513	-46.59
