Data from USB4F104151__205__13-59-51-265.txt Node

Date: Thu Mar 13 13:59:51 EDT 2025
User: louis
Spectrometer: USB4F10415
Trigger mode: 4
Integration Time (sec): 1.000000E-2
Scans to average: 1
Electric dark correction enabled: true
Nonlinearity correction enabled: false
Boxcar width: 0
XAxis mode: Wavelengths
Number of Pixels in Spectrum: 3648
>>>>>Begin Spectral Data<<<<<
178.204	-49.66
178.424	-49.66
178.644	-49.66
178.864	-23.04
179.084	-45.57
179.304	-49.66
179.524	-10.75
179.744	-2.56
179.964	44.54
180.184	40.45
180.404	26.11
180.624	7.68
180.844	-59.9
181.064	9.73
181.283	-6.66
181.503	19.97
181.723	-18.94
181.943	-0.51
182.163	85.5
182.383	19.97
182.602	44.54
182.822	26.11
183.042	3.58
183.262	-18.94
183.482	-18.94
183.701	58.88
183.921	46.59
184.141	-51.71
184.361	40.45
184.58	9.73
184.8	9.73
185.02	44.54
185.239	-39.42
185.459	73.21
185.679	1.54
185.898	-4.61
186.118	-53.76
186.338	54.78
186.557	44.54
186.777	-14.85
186.997	-14.85
187.216	3.58
187.436	58.88
187.655	36.35
187.875	62.98
188.095	-68.09
188.314	1.54
188.534	71.17
188.753	11.78
188.973	9.73
189.192	28.16
189.412	-0.51
189.631	50.69
189.851	34.3
190.07	42.5
190.29	69.12
190.509	60.93
190.729	50.69
190.948	77.31
191.168	36.35
191.387	-39.42
191.607	3.58
191.826	34.3
192.045	67.07
192.265	1.54
192.484	-2.56
192.704	-14.85
192.923	-64
193.142	34.3
193.362	9.73
193.581	42.5
193.8	3.58
194.02	-4.61
194.239	42.5
194.458	-0.51
194.678	19.97
194.897	50.69
195.116	36.35
195.335	-25.09
195.555	19.97
195.774	32.26
195.993	7.68
196.212	-14.85
196.432	1.54
196.651	42.5
196.87	32.26
197.089	9.73
197.308	65.02
197.528	128.51
197.747	-16.9
197.966	46.59
198.185	-6.66
198.404	9.73
198.623	73.21
198.842	-29.18
199.062	50.69
199.281	17.92
199.5	-2.56
199.719	-2.56
199.938	-14.85
200.157	58.88
200.376	62.98
200.595	40.45
200.814	52.74
201.033	58.88
201.252	71.17
201.471	73.21
201.69	44.54
201.909	-20.99
202.128	58.88
202.347	1.54
202.566	-14.85
202.785	-18.94
203.004	-18.94
203.223	3.58
203.442	-12.8
203.661	62.98
203.879	-41.47
204.098	34.3
204.317	-66.05
204.536	48.64
204.755	-4.61
204.974	-23.04
205.193	-61.95
205.411	-0.51
205.63	73.21
205.849	-64
206.068	15.87
206.287	5.63
206.505	48.64
206.724	15.87
206.943	42.5
207.162	42.5
207.381	-61.95
207.599	-0.51
207.818	19.97
208.037	50.69
208.255	-16.9
208.474	52.74
208.693	38.4
208.911	19.97
209.13	17.92
209.349	1.54
209.567	-23.04
209.786	-12.8
210.005	9.73
210.223	9.73
210.442	-43.52
210.661	19.97
210.879	26.11
211.098	5.63
211.316	5.63
211.535	67.07
211.753	50.69
211.972	50.69
212.191	-4.61
212.409	97.79
212.628	81.41
212.846	44.54
213.065	26.11
213.283	3.58
213.502	-8.7
213.72	50.69
213.938	-6.66
214.157	36.35
214.375	60.93
214.594	65.02
214.812	15.87
215.031	7.68
215.249	56.83
215.467	-78.33
215.686	15.87
215.904	44.54
216.122	36.35
216.341	42.5
216.559	44.54
216.778	-0.51
216.996	38.4
217.214	13.82
217.432	-8.7
217.651	9.73
217.869	-20.99
218.087	13.82
218.306	38.4
218.524	-20.99
218.742	13.82
218.96	1.54
219.179	-23.04
219.397	-27.14
219.615	9.73
219.833	19.97
220.051	-78.33
220.27	91.65
220.488	7.68
220.706	42.5
220.924	69.12
221.142	9.73
221.36	9.73
221.578	22.02
221.796	19.97
222.015	17.92
222.233	1.54
222.451	30.21
222.669	7.68
222.887	-39.42
223.105	1.54
223.323	-20.99
223.541	24.06
223.759	101.89
223.977	-31.23
224.195	28.16
224.413	50.69
224.631	7.68
224.849	17.92
225.067	103.93
225.285	13.82
225.503	17.92
225.721	-35.33
225.939	-16.9
226.157	24.06
226.375	58.88
226.592	50.69
226.81	42.5
227.028	-4.61
227.246	54.78
227.464	-4.61
227.682	-12.8
227.9	-23.04
228.117	3.58
228.335	1.54
228.553	-23.04
228.771	-8.7
228.989	26.11
229.206	30.21
229.424	19.97
229.642	-4.61
229.86	-14.85
230.077	60.93
230.295	56.83
230.513	15.87
230.731	85.5
230.948	15.87
231.166	77.31
231.384	103.93
231.601	24.06
231.819	11.78
232.037	58.88
232.254	40.45
232.472	34.3
232.689	-31.23
232.907	34.3
233.125	-51.71
233.342	54.78
233.56	36.35
233.777	11.78
233.995	-18.94
234.213	30.21
234.43	-18.94
234.648	19.97
234.865	-43.52
235.083	42.5
235.3	13.82
235.518	24.06
235.735	1.54
235.953	52.74
236.17	-0.51
236.388	1.54
236.605	42.5
236.822	58.88
237.04	30.21
237.257	69.12
237.475	28.16
237.692	28.16
237.909	-10.75
238.127	-6.66
238.344	19.97
238.562	32.26
238.779	-12.8
238.996	44.54
239.214	-8.7
239.431	34.3
239.648	17.92
239.865	77.31
240.083	3.58
240.3	40.45
240.517	26.11
240.735	11.78
240.952	97.79
241.169	30.21
241.386	11.78
241.603	85.5
241.821	-37.38
242.038	69.12
242.255	67.07
242.472	1.54
242.689	103.93
242.907	-16.9
243.124	17.92
243.341	-16.9
243.558	-8.7
243.775	22.02
243.992	-16.9
244.209	-18.94
244.426	50.69
244.643	26.11
244.86	36.35
245.078	30.21
245.295	17.92
245.512	28.16
245.729	34.3
245.946	71.17
246.163	42.5
246.38	7.68
246.597	-12.8
246.814	42.5
247.031	-8.7
247.248	19.97
247.464	19.97
247.681	7.68
247.898	11.78
248.115	71.17
248.332	1.54
248.549	65.02
248.766	56.83
248.983	75.26
249.2	-55.81
249.417	-0.51
249.633	-25.09
249.85	28.16
250.067	17.92
250.284	1.54
250.501	-2.56
250.717	60.93
250.934	5.63
251.151	26.11
251.368	50.69
251.585	140.8
251.801	-23.04
252.018	11.78
252.235	-43.52
252.451	-47.62
252.668	15.87
252.885	17.92
253.102	24.06
253.318	42.5
253.535	26.11
253.752	9.73
253.968	26.11
254.185	48.64
254.401	46.59
254.618	19.97
254.835	1.54
255.051	44.54
255.268	46.59
255.484	71.17
255.701	44.54
255.917	44.54
256.134	-27.14
256.351	5.63
256.567	17.92
256.784	101.89
257	17.92
257.217	-4.61
257.433	40.45
257.65	65.02
257.866	-29.18
258.082	52.74
258.299	-33.28
258.515	-23.04
258.732	-10.75
258.948	85.5
259.165	26.11
259.381	-8.7
259.597	19.97
259.814	26.11
260.03	40.45
260.246	54.78
260.463	62.98
260.679	34.3
260.895	26.11
261.112	58.88
261.328	5.63
261.544	-14.85
261.761	54.78
261.977	-43.52
262.193	-6.66
262.409	67.07
262.626	15.87
262.842	24.06
263.058	-20.99
263.274	89.6
263.49	34.3
263.707	-6.66
263.923	19.97
264.139	-2.56
264.355	-14.85
264.571	-55.81
264.787	46.59
265.004	42.5
265.22	30.21
265.436	13.82
265.652	93.69
265.868	34.3
266.084	46.59
266.3	60.93
266.516	9.73
266.732	46.59
266.948	11.78
267.164	-4.61
267.38	46.59
267.596	13.82
267.812	122.37
268.028	60.93
268.244	28.16
268.46	-61.95
268.676	-12.8
268.892	42.5
269.108	-2.56
269.324	34.3
269.54	9.73
269.756	60.93
269.972	-41.47
270.188	44.54
270.403	50.69
270.619	24.06
270.835	36.35
271.051	58.88
271.267	1.54
271.483	44.54
271.698	-16.9
271.914	42.5
272.13	40.45
272.346	62.98
272.562	-16.9
272.777	116.22
272.993	91.65
273.209	26.11
273.425	22.02
273.64	46.59
273.856	56.83
274.072	34.3
274.287	19.97
274.503	52.74
274.719	67.07
274.934	44.54
275.15	17.92
275.366	7.68
275.581	50.69
275.797	-2.56
276.012	85.5
276.228	50.69
276.444	-18.94
276.659	146.94
276.875	-66.05
277.09	-4.61
277.306	-4.61
277.521	34.3
277.737	24.06
277.952	-31.23
278.168	7.68
278.383	60.93
278.599	38.4
278.814	26.11
279.03	13.82
279.245	-25.09
279.461	-6.66
279.676	112.13
279.892	9.73
280.107	-20.99
280.322	7.68
280.538	71.17
280.753	-31.23
280.969	30.21
281.184	50.69
281.399	52.74
281.615	13.82
281.83	26.11
282.045	3.58
282.26	28.16
282.476	3.58
282.691	54.78
282.906	38.4
283.122	26.11
283.337	-33.28
283.552	-2.56
283.767	-47.62
283.983	-12.8
284.198	3.58
284.413	103.93
284.628	-20.99
284.843	11.78
285.058	32.26
285.274	9.73
285.489	42.5
285.704	11.78
285.919	-31.23
286.134	73.21
286.349	-10.75
286.564	7.68
286.779	44.54
286.995	60.93
287.21	52.74
287.425	32.26
287.64	42.5
287.855	-14.85
288.07	9.73
288.285	34.3
288.5	48.64
288.715	1.54
288.93	9.73
289.145	11.78
289.36	-0.51
289.575	73.21
289.79	22.02
290.004	-51.71
290.219	34.3
290.434	30.21
290.649	30.21
290.864	13.82
291.079	-51.71
291.294	89.6
291.509	48.64
291.724	-2.56
291.938	-8.7
292.153	19.97
292.368	26.11
292.583	-12.8
292.798	-29.18
293.012	3.58
293.227	-12.8
293.442	87.55
293.657	42.5
293.871	52.74
294.086	34.3
294.301	67.07
294.516	87.55
294.73	34.3
294.945	-51.71
295.16	71.17
295.374	24.06
295.589	26.11
295.804	32.26
296.018	5.63
296.233	3.58
296.447	17.92
296.662	-64
296.877	105.98
297.091	3.58
297.306	-10.75
297.52	62.98
297.735	42.5
297.949	-55.81
298.164	101.89
298.378	46.59
298.593	122.37
298.807	26.11
299.022	62.98
299.236	-0.51
299.451	56.83
299.665	97.79
299.88	56.83
300.094	30.21
300.309	22.02
300.523	26.11
300.737	-18.94
300.952	67.07
301.166	-18.94
301.381	-2.56
301.595	24.06
301.809	93.69
302.024	36.35
302.238	-8.7
302.452	-6.66
302.667	69.12
302.881	-27.14
303.095	-2.56
303.309	36.35
303.524	28.16
303.738	81.41
303.952	-25.09
304.166	40.45
304.381	32.26
304.595	32.26
304.809	-45.57
305.023	26.11
305.237	69.12
305.452	-100.86
305.666	36.35
305.88	71.17
306.094	56.83
306.308	93.69
306.522	-18.94
306.736	-4.61
306.95	26.11
307.164	62.98
307.379	-14.85
307.593	62.98
307.807	67.07
308.021	-39.42
308.235	91.65
308.449	-8.7
308.663	24.06
308.877	38.4
309.091	-6.66
309.305	34.3
309.519	71.17
309.733	26.11
309.947	13.82
310.161	19.97
310.374	-78.33
310.588	73.21
310.802	-6.66
311.016	-12.8
311.23	60.93
311.444	32.26
311.658	36.35
311.872	40.45
312.085	38.4
312.299	32.26
312.513	77.31
312.727	56.83
312.941	11.78
313.154	54.78
313.368	13.82
313.582	54.78
313.796	-2.56
314.009	69.12
314.223	15.87
314.437	77.31
314.651	-2.56
314.864	19.97
315.078	30.21
315.292	-23.04
315.505	36.35
315.719	73.21
315.933	-2.56
316.146	62.98
316.36	28.16
316.573	50.69
316.787	1.54
317.001	108.03
317.214	-2.56
317.428	34.3
317.641	56.83
317.855	-2.56
318.068	5.63
318.282	17.92
318.495	62.98
318.709	48.64
318.922	-14.85
319.136	19.97
319.349	28.16
319.563	48.64
319.776	-12.8
319.99	79.36
320.203	103.93
320.417	-37.38
320.63	1.54
320.843	9.73
321.057	34.3
321.27	81.41
321.483	-4.61
321.697	-6.66
321.91	50.69
322.124	24.06
322.337	-37.38
322.55	134.65
322.763	118.27
322.977	-8.7
323.19	26.11
323.403	75.26
323.617	81.41
323.83	81.41
324.043	-4.61
324.256	46.59
324.469	15.87
324.683	67.07
324.896	-16.9
325.109	52.74
325.322	3.58
325.535	52.74
325.748	3.58
325.962	9.73
326.175	30.21
326.388	71.17
326.601	36.35
326.814	36.35
327.027	-12.8
327.24	83.45
327.453	-45.57
327.666	99.84
327.879	34.3
328.092	42.5
328.305	58.88
328.518	5.63
328.731	-2.56
328.944	3.58
329.157	93.69
329.37	75.26
329.583	91.65
329.796	46.59
330.009	-49.66
330.222	52.74
330.435	73.21
330.648	36.35
330.861	44.54
331.073	32.26
331.286	40.45
331.499	101.89
331.712	13.82
331.925	-18.94
332.138	26.11
332.35	75.26
332.563	-10.75
332.776	65.02
332.989	-6.66
333.202	-23.04
333.414	103.93
333.627	83.45
333.84	67.07
334.053	-10.75
334.265	9.73
334.478	36.35
334.691	56.83
334.903	62.98
335.116	46.59
335.329	44.54
335.541	28.16
335.754	91.65
335.966	13.82
336.179	40.45
336.392	-6.66
336.604	71.17
336.817	67.07
337.029	52.74
337.242	1.54
337.454	46.59
337.667	19.97
337.88	142.85
338.092	54.78
338.305	73.21
338.517	17.92
338.729	32.26
338.942	83.45
339.154	17.92
339.367	-0.51
339.579	99.84
339.792	24.06
340.004	79.36
340.217	103.93
340.429	13.82
340.641	-25.09
340.854	38.4
341.066	83.45
341.278	26.11
341.491	112.13
341.703	93.69
341.915	42.5
342.128	75.26
342.34	11.78
342.552	69.12
342.764	32.26
342.977	15.87
343.189	32.26
343.401	79.36
343.613	46.59
343.826	60.93
344.038	13.82
344.25	75.26
344.462	77.31
344.674	17.92
344.886	-12.8
345.099	26.11
345.311	-0.51
345.523	11.78
345.735	-61.95
345.947	15.87
346.159	48.64
346.371	67.07
346.583	54.78
346.795	28.16
347.007	79.36
347.219	118.27
347.431	71.17
347.643	77.31
347.855	13.82
348.067	48.64
348.279	52.74
348.491	30.21
348.703	26.11
348.915	75.26
349.127	52.74
349.339	54.78
349.551	42.5
349.763	30.21
349.975	5.63
350.187	75.26
350.399	-20.99
350.61	34.3
350.822	-25.09
351.034	112.13
351.246	-39.42
351.458	54.78
351.669	65.02
351.881	42.5
352.093	26.11
352.305	52.74
352.517	97.79
352.728	46.59
352.94	108.03
353.152	62.98
353.363	22.02
353.575	42.5
353.787	101.89
353.999	32.26
354.21	73.21
354.422	36.35
354.633	87.55
354.845	44.54
355.057	26.11
355.268	1.54
355.48	73.21
355.692	26.11
355.903	71.17
356.115	26.11
356.326	11.78
356.538	9.73
356.749	75.26
356.961	34.3
357.172	58.88
357.384	77.31
357.595	17.92
357.807	11.78
358.018	22.02
358.23	81.41
358.441	36.35
358.653	42.5
358.864	44.54
359.075	-14.85
359.287	26.11
359.498	60.93
359.709	77.31
359.921	-8.7
360.132	75.26
360.344	75.26
360.555	40.45
360.766	-2.56
360.977	87.55
361.189	42.5
361.4	-6.66
361.611	60.93
361.823	54.78
362.034	58.88
362.245	9.73
362.456	44.54
362.667	52.74
362.879	-6.66
363.09	40.45
363.301	30.21
363.512	-31.23
363.723	50.69
363.935	7.68
364.146	17.92
364.357	52.74
364.568	46.59
364.779	19.97
364.99	26.11
365.201	-12.8
365.412	87.55
365.623	-45.57
365.834	58.88
366.045	134.65
366.256	116.22
366.467	34.3
366.678	28.16
366.889	50.69
367.1	42.5
367.311	40.45
367.522	32.26
367.733	28.16
367.944	46.59
368.155	3.58
368.366	75.26
368.577	28.16
368.788	-18.94
368.999	-53.76
369.209	85.5
369.42	56.83
369.631	69.12
369.842	19.97
370.053	38.4
370.264	26.11
370.474	60.93
370.685	13.82
370.896	22.02
371.107	42.5
371.317	34.3
371.528	11.78
371.739	71.17
371.95	-29.18
372.16	15.87
372.371	28.16
372.582	-2.56
372.792	48.64
373.003	81.41
373.214	40.45
373.424	19.97
373.635	95.74
373.846	46.59
374.056	40.45
374.267	52.74
374.477	26.11
374.688	56.83
374.898	22.02
375.109	34.3
375.319	56.83
375.53	132.61
375.74	81.41
375.951	26.11
376.161	122.37
376.372	112.13
376.582	54.78
376.793	99.84
377.003	22.02
377.214	-8.7
377.424	17.92
377.635	126.46
377.845	58.88
378.055	-25.09
378.266	44.54
378.476	85.5
378.686	101.89
378.897	138.75
379.107	19.97
379.317	73.21
379.528	46.59
379.738	44.54
379.948	42.5
380.158	1.54
380.369	26.11
380.579	58.88
380.789	50.69
380.999	46.59
381.21	22.02
381.42	91.65
381.63	95.74
381.84	91.65
382.05	-20.99
382.261	79.36
382.471	79.36
382.681	65.02
382.891	89.6
383.101	30.21
383.311	36.35
383.521	15.87
383.731	48.64
383.941	58.88
384.151	60.93
384.361	71.17
384.571	44.54
384.781	58.88
384.991	-2.56
385.201	97.79
385.411	75.26
385.621	62.98
385.831	54.78
386.041	112.13
386.251	44.54
386.461	91.65
386.671	24.06
386.881	1.54
387.091	69.12
387.301	-18.94
387.511	62.98
387.72	44.54
387.93	85.5
388.14	60.93
388.35	105.98
388.56	3.58
388.769	91.65
388.979	32.26
389.189	69.12
389.399	120.32
389.609	134.65
389.818	50.69
390.028	-2.56
390.238	91.65
390.447	89.6
390.657	-6.66
390.867	3.58
391.076	60.93
391.286	17.92
391.496	54.78
391.705	99.84
391.915	62.98
392.125	85.5
392.334	128.51
392.544	126.46
392.753	85.5
392.963	48.64
393.172	77.31
393.382	-2.56
393.591	146.94
393.801	34.3
394.01	167.42
394.22	56.83
394.429	36.35
394.639	101.89
394.848	83.45
395.058	50.69
395.267	103.93
395.477	189.95
395.686	79.36
395.895	134.65
396.105	128.51
396.314	58.88
396.524	52.74
396.733	105.98
396.942	62.98
397.152	132.61
397.361	93.69
397.57	42.5
397.78	87.55
397.989	134.65
398.198	58.88
398.407	110.08
398.617	138.75
398.826	-16.9
399.035	103.93
399.244	114.17
399.453	91.65
399.663	108.03
399.872	128.51
400.081	73.21
400.29	85.5
400.499	79.36
400.708	110.08
400.917	128.51
401.127	136.7
401.336	89.6
401.545	126.46
401.754	50.69
401.963	83.45
402.172	69.12
402.381	75.26
402.59	116.22
402.799	192
403.008	36.35
403.217	120.32
403.426	65.02
403.635	136.7
403.844	183.81
404.053	189.95
404.262	255.48
404.471	175.61
404.68	83.45
404.888	95.74
405.097	130.56
405.306	173.57
405.515	144.89
405.724	128.51
405.933	175.61
406.142	300.54
406.35	198.14
406.559	181.76
406.768	165.37
406.977	173.57
407.185	153.09
407.394	265.72
407.603	226.81
407.812	255.48
408.02	239.1
408.229	267.77
408.438	267.77
408.646	237.05
408.855	200.19
409.064	259.58
409.272	271.87
409.481	329.21
409.69	224.76
409.898	361.98
410.107	355.83
410.315	312.83
410.524	357.88
410.733	353.79
410.941	331.26
411.15	349.69
411.358	413.18
411.567	376.31
411.775	353.79
411.984	419.32
412.192	411.13
412.401	437.75
412.609	458.23
412.818	468.47
413.026	509.43
413.234	523.77
413.443	499.19
413.651	572.92
413.86	493.05
414.068	591.35
414.276	562.68
414.485	591.35
414.693	574.97
414.901	722.42
415.11	728.56
415.318	675.32
415.526	763.38
415.734	736.76
415.943	632.31
416.151	749.04
416.359	826.87
416.567	804.34
416.776	888.31
416.984	878.07
417.192	900.59
417.4	1023.47
417.608	943.6
417.817	1084.91
418.025	1144.3
418.233	1160.69
418.441	1136.11
418.649	1170.93
418.857	1160.69
419.065	1148.4
419.273	1254.89
419.481	1297.9
419.689	1324.52
419.897	1465.83
420.105	1422.83
420.313	1545.7
420.521	1562.09
420.729	1613.29
420.937	1740.26
421.145	1625.58
421.353	1709.54
421.561	1867.24
421.769	1883.62
421.977	2008.55
422.185	1883.62
422.393	2164.19
422.601	2182.62
422.809	2190.81
423.017	2176.48
423.224	2280.93
423.432	2379.23
423.64	2512.35
423.848	2678.23
424.056	2553.31
424.263	2911.7
424.471	2868.69
424.679	2756.05
424.887	2889.17
425.094	3085.78
425.302	3139.02
425.51	3124.69
425.718	3290.57
425.925	3243.47
426.133	3411.4
426.341	3622.34
426.548	3724.74
426.756	3831.24
426.964	3851.72
427.171	4111.81
427.379	4140.48
427.586	4302.27
427.794	4316.61
428.001	4470.2
428.209	4715.96
428.417	4599.23
428.624	4943.28
428.832	5060.02
429.039	4875.7
429.247	4949.43
429.454	5410.22
429.662	5918.12
429.869	5334.45
430.076	5707.18
430.284	5477.8
430.491	5832.1
430.699	6288.8
430.906	6170.02
431.114	6274.46
431.321	6460.83
431.528	6702.49
431.736	7114.13
431.943	7228.82
432.15	7132.56
432.358	7163.28
432.565	7574.92
432.772	7396.75
432.979	8048.01
433.187	8134.02
433.394	8263.04
433.601	8844.67
433.808	8805.75
434.016	8766.84
434.223	9141.62
434.43	9647.47
434.637	9450.86
434.844	10036.58
435.052	10124.65
435.259	10059.11
435.466	10087.78
435.673	10071.4
435.88	10716.51
436.087	11449.68
436.294	11347.28
436.501	11062.62
436.708	11300.18
436.915	11640.14
437.122	12064.07
437.329	12309.83
437.537	12617.02
437.743	12780.86
437.95	12657.98
438.157	13380.92
438.364	13745.45
438.571	13542.71
438.778	13759.79
438.985	15187.22
439.192	14441.76
439.399	15205.66
439.606	14740.77
439.813	15625.49
440.02	16524.55
440.227	16069.9
440.433	15779.09
440.64	16481.54
440.847	16434.44
441.054	16776.45
441.261	18025.71
441.467	17517.81
441.674	18144.49
441.881	18672.87
442.088	18652.39
442.294	18404.58
442.501	19188.96
442.708	19352.79
442.914	20008.14
443.121	21028.03
443.328	20546.76
443.534	21820.6
443.741	21042.37
443.948	20839.62
444.154	22273.2
444.361	22135.98
444.568	22340.78
444.774	22521
444.981	22670.5
445.187	23264.41
445.394	24304.78
445.6	23960.72
445.807	26358.89
446.013	25126.02
446.22	25814.13
446.426	26598.51
446.633	27026.53
446.839	27987.03
447.046	26641.51
447.252	28626
447.459	28290.13
447.665	28058.71
447.871	29152.32
448.078	30852.14
448.284	29193.28
448.491	30000.18
448.697	31267.87
448.903	31933.46
449.11	31665.18
449.316	31362.08
449.522	31509.54
449.728	32465.94
449.935	32842.76
450.141	32703.5
450.347	33555.46
450.553	32457.74
450.76	32973.83
450.966	34339.83
451.172	33801.21
451.378	34280.44
451.584	34186.23
451.791	34608.11
451.997	34780.14
452.203	35206.12
452.409	35034.09
452.615	34819.05
452.821	33823.74
453.027	33330.18
453.233	35195.88
453.44	33612.8
453.646	34280.44
453.852	34522.1
454.058	34733.04
454.264	33926.14
454.47	34778.09
454.676	33354.76
454.882	34853.87
455.088	31534.11
455.294	32265.24
455.5	33027.08
455.705	32967.69
455.911	32189.46
456.117	31216.68
456.323	30501.93
456.529	29285.44
456.735	30202.93
456.941	29590.59
457.147	29529.15
457.352	28286.03
457.558	27890.77
457.764	28046.42
457.97	27858.01
458.176	26983.52
458.381	26915.94
458.587	25736.31
458.793	25449.6
458.999	24130.7
459.204	25937.01
459.41	25568.38
459.616	24032.4
459.821	23778.45
460.027	23870.61
460.233	23293.08
460.438	22119.6
460.644	22330.54
460.85	21089.47
461.055	21013.7
461.261	20864.19
461.466	19389.66
461.672	18959.58
461.878	20561.09
462.083	18908.38
462.289	18660.58
462.494	18205.93
462.7	17540.34
462.905	17323.26
463.111	17669.36
463.316	17708.27
463.522	17308.92
463.727	17423.61
463.932	17511.67
464.138	17239.29
464.343	17292.54
464.549	16946.43
464.754	17329.4
464.959	17016.06
465.165	17134.84
465.37	16393.48
465.575	16004.36
465.781	16497.92
465.986	16891.13
466.191	16143.63
466.397	15863.05
466.602	15174.94
466.807	15617.3
467.012	15605.01
467.218	15572.24
467.423	15402.26
467.628	15465.75
467.833	16114.95
468.038	15592.72
468.244	15136.03
468.449	15674.64
468.654	14945.56
468.859	14972.19
469.064	15111.45
469.269	14353.7
469.474	14517.54
469.679	14968.09
469.885	14187.82
470.09	14515.49
470.295	14589.22
470.5	13960.49
470.705	14376.23
470.91	13919.53
471.115	13905.2
471.32	14171.43
471.525	13909.29
471.73	13585.71
471.935	13657.39
472.139	13180.21
472.344	13202.74
472.549	13112.63
472.754	12873.02
472.959	12737.85
473.164	12682.56
473.369	12488
473.574	12680.51
473.778	12477.76
473.983	12352.84
474.188	12541.25
474.393	11863.37
474.598	11980.11
474.802	11924.81
475.007	11814.22
475.212	11824.46
475.417	11453.78
475.621	11394.39
475.826	11347.28
476.031	11109.72
476.235	10956.12
476.44	11138.39
476.645	10861.91
476.849	10820.95
477.054	10698.08
477.259	10601.82
477.463	10673.5
477.668	10360.16
477.872	10560.86
478.077	10288.48
478.282	10136.93
478.486	9856.36
478.691	10042.73
478.895	9962.86
479.1	9700.72
479.304	9893.23
479.509	9704.81
479.713	9516.4
479.918	9538.93
480.122	9524.59
480.326	9469.3
480.531	9569.65
480.735	9616.75
480.94	9336.18
481.144	9651.56
481.348	9207.16
481.553	9180.53
481.757	9221.49
481.961	9454.96
482.166	9467.25
482.37	9293.17
482.574	9026.93
482.778	9258.35
482.983	9241.97
483.187	9225.59
483.391	9383.28
483.595	9069.94
483.8	8938.87
484.004	9180.53
484.208	9125.24
484.412	9131.38
484.616	8961.4
484.821	9258.35
485.025	9041.27
485.229	9078.13
485.433	9223.54
485.637	9166.2
485.841	9143.67
486.045	9133.43
486.249	9278.83
486.453	8971.64
486.657	8932.73
486.861	9033.08
487.065	8961.4
487.269	9055.61
487.473	8906.1
487.677	9170.29
487.881	9104.76
488.085	9166.2
488.289	9115
488.493	9076.09
488.697	9188.72
488.901	9244.02
489.105	9086.33
489.309	9102.71
489.512	9336.18
489.716	9311.6
489.92	9377.14
490.124	9295.22
490.328	9293.17
490.531	9201.01
490.735	9397.62
490.939	9375.09
491.143	9264.5
491.346	9465.2
491.55	9504.11
491.754	9426.29
491.958	9575.79
492.161	9571.69
492.365	9799.02
492.569	9680.24
492.772	9717.1
492.976	9768.3
493.18	9950.57
493.383	9915.75
493.587	10036.58
493.79	9987.43
493.994	9995.62
494.197	10181.99
494.401	10270.05
494.605	10315.11
494.808	10591.58
495.012	10429.79
495.215	10687.84
495.419	10546.53
495.622	10564.96
495.825	10771.8
496.029	10775.9
496.232	11171.16
496.436	10878.3
496.639	11380.05
496.843	11359.57
497.046	11371.86
497.249	11838.8
497.453	11715.92
497.656	11918.67
497.859	11951.43
498.063	11846.99
498.266	12332.36
498.469	12434.75
498.673	12414.27
498.876	12676.41
499.079	12793.15
499.282	12889.4
499.485	12924.22
499.689	13077.82
499.892	13202.74
500.095	13319.48
500.298	13483.31
500.501	13540.66
500.705	13935.92
500.908	14351.65
501.111	14218.54
501.314	14562.59
501.517	14419.24
501.72	14839.07
501.923	14923.04
502.126	15211.8
502.329	15592.72
502.532	15815.95
502.735	15570.19
502.938	16076.04
503.141	16028.94
503.344	16575.75
503.547	16684.29
503.75	16805.12
503.953	16868.61
504.156	17188.09
504.359	17519.86
504.562	17693.94
504.765	17743.09
504.968	18197.74
505.17	18437.35
505.373	18300.14
505.576	18805.99
505.779	19066.08
505.982	19033.31
506.185	19313.88
506.387	19846.35
506.59	19854.55
506.793	20438.22
506.996	20333.77
507.198	20989.12
507.401	20698.31
507.604	21249.21
507.807	21628.09
508.009	21738.68
508.212	21861.55
508.415	22103.21
508.617	22496.42
508.82	22617.25
509.022	22832.29
509.225	23700.63
509.428	23663.77
509.63	23295.13
509.833	24161.42
510.035	24409.23
510.238	24552.59
510.44	24970.37
510.643	25406.59
510.845	25859.19
511.048	25369.72
511.25	26047.6
511.453	26207.34
511.655	27133.03
511.858	26973.28
512.06	27448.41
512.262	27526.24
512.465	27569.24
512.667	28089.43
512.87	28697.67
513.072	28527.69
513.274	29219.91
513.477	29465.66
513.679	30080.05
513.881	30247.99
514.084	30727.21
514.286	30657.58
514.488	30815.27
514.69	31773.72
514.893	31736.86
515.095	31992.86
515.297	32609.29
515.499	32281.62
515.701	33276.93
515.904	33694.72
516.106	34214.9
516.308	34298.87
516.51	34708.46
516.712	34730.99
516.914	35134.44
517.116	35607.52
517.318	35972.06
517.52	35857.37
517.722	36746.19
517.925	36987.85
518.127	37403.59
518.329	37520.32
518.531	37682.11
518.733	38161.34
518.935	38871.98
519.136	38874.03
519.338	39390.12
519.54	39588.77
519.742	40248.22
519.944	40348.57
520.146	40960.91
520.348	41108.36
520.55	41530.25
520.752	41634.69
520.954	42318.71
521.155	42050.43
521.357	42957.68
521.559	42845.04
521.761	43574.12
521.963	43463.53
522.164	44006.24
522.366	44454.75
522.568	44503.9
522.77	45036.37
522.971	45790.02
523.173	45181.77
523.375	45595.46
523.576	45800.26
523.778	46033.73
523.98	46461.76
524.181	47166.26
524.383	47149.87
524.584	47426.35
524.786	47381.29
524.988	47397.68
525.189	48083.75
525.391	48280.35
525.592	49040.15
525.794	48802.58
525.995	49109.78
526.197	49146.64
526.398	48880.41
526.6	49566.48
526.801	49632.01
527.003	49726.22
527.204	49539.85
527.406	50668.28
527.607	50225.92
527.808	50907.9
528.01	49771.27
528.211	50383.62
528.412	51274.48
528.614	51503.85
528.815	50750.2
529.016	51944.17
529.218	51471.09
529.419	51737.32
529.62	51794.67
529.822	51579.63
530.023	51997.41
530.224	52208.36
530.425	52206.31
530.626	52230.88
530.828	51585.77
531.029	52927.19
531.23	52271.84
531.431	52306.66
531.632	52423.39
531.833	53031.64
532.035	52718.3
532.236	52519.65
532.437	53689.04
532.638	52638.43
532.839	53277.4
533.04	53486.29
533.241	52939.48
533.442	53498.58
533.643	52832.99
533.844	52992.73
534.045	53183.19
534.246	52714.2
534.447	53324.5
534.648	53187.28
534.849	53299.92
535.05	53406.42
535.251	53617.36
535.451	53220.05
535.652	53684.94
535.853	53686.99
536.054	53617.36
536.255	53973.7
536.456	53394.13
536.657	54278.85
536.857	53289.68
537.058	53062.36
537.259	54133.45
537.46	53918.41
537.66	53576.4
537.861	53478.1
538.062	53633.74
538.263	53684.94
538.463	53625.55
538.664	53668.56
538.865	53756.62
539.065	54014.66
539.266	53369.55
539.466	54008.52
539.667	53129.94
539.868	53979.85
540.068	53365.46
540.269	53435.09
540.469	54301.38
540.67	53361.36
540.87	53734.09
541.071	53725.9
541.271	53828.3
541.472	53453.52
541.672	53785.29
541.873	53652.17
542.073	53029.59
542.274	54139.59
542.474	53562.06
542.675	53199.57
542.875	53719.76
543.075	53449.42
543.276	53107.41
543.476	53936.84
543.676	53504.72
543.877	53859.02
544.077	53547.73
544.277	53541.58
544.478	53856.97
544.678	54057.67
544.878	53854.92
545.078	53654.22
545.279	53537.49
545.479	53158.61
545.679	53828.3
545.879	53465.81
546.079	53807.82
546.28	53525.2
546.48	53226.2
546.68	53637.84
546.88	53633.74
547.08	53469.9
547.28	53158.61
547.48	52998.87
547.68	53830.35
547.88	52945.62
548.081	53600.97
548.281	53711.56
548.481	53336.79
548.681	53697.23
548.881	53211.86
549.081	53181.14
549.28	53207.76
549.48	53770.96
549.68	53023.45
549.88	54155.97
550.08	53175
550.28	53549.77
550.48	53244.63
550.68	53560.01
550.88	53344.98
551.08	53199.57
551.279	53451.47
551.479	52943.58
551.679	53281.49
551.879	52847.32
552.079	53404.37
552.278	53205.72
552.478	53095.13
552.678	53326.55
552.878	53340.88
553.077	53394.13
553.277	53224.15
553.477	53535.44
553.676	53256.92
553.876	53086.93
554.076	52253.41
554.275	52589.28
554.475	52208.36
554.674	53031.64
554.874	52873.95
555.074	52712.16
555.273	52695.77
555.473	52976.34
555.672	52759.26
555.872	52607.71
556.071	52396.77
556.271	52742.88
556.47	52646.62
556.67	51677.93
556.869	52865.75
557.068	52409.06
557.268	51987.17
557.467	52538.08
557.667	52277.99
557.866	52339.43
558.065	52259.55
558.265	52034.28
558.464	51737.32
558.663	52407.01
558.863	51733.23
559.062	52404.96
559.261	51346.16
559.461	51913.45
559.66	51088.12
559.859	51354.35
560.058	51120.88
560.258	51884.78
560.457	51219.19
560.656	51473.13
560.855	51342.06
561.054	51636.97
561.253	51131.12
561.453	51423.98
561.652	51227.38
561.851	51716.84
562.05	51114.74
562.249	50850.55
562.448	51405.55
562.647	50969.33
562.846	50971.38
563.045	50803.45
563.244	50385.66
563.443	50852.6
563.642	50141.95
563.841	50647.8
564.04	50426.62
564.239	51225.33
564.438	50518.78
564.637	50735.87
564.836	50565.88
565.035	50158.34
565.234	50694.91
565.432	50148.1
565.631	49732.36
565.83	50457.34
566.029	50137.86
566.228	49754.89
566.427	49910.53
566.625	50150.15
566.824	49453.84
567.023	50258.69
567.222	49656.59
567.42	49890.05
567.619	49742.6
567.818	49752.84
568.016	49226.51
568.215	49842.95
568.414	49523.47
568.612	50029.32
568.811	48913.17
569.01	49031.96
569.208	48888.6
569.407	48960.28
569.605	48466.72
569.804	49003.28
570.002	48679.71
570.201	49081.11
570.4	48284.45
570.598	48208.67
570.797	47936.29
570.995	48304.93
571.193	47573.8
571.392	48235.3
571.59	47661.86
571.789	48001.83
571.987	47446.83
572.186	47422.25
572.384	47446.83
572.582	47594.28
572.781	47743.78
572.979	46584.63
573.177	47010.61
573.376	47242.03
573.574	46779.19
573.772	46895.92
573.971	46844.73
574.169	46488.38
574.367	46152.51
574.565	46326.59
574.763	46275.39
574.962	46246.72
575.16	45710.15
575.358	46054.21
575.556	45503.31
575.754	46328.64
575.952	45865.8
576.151	46021.44
576.349	45224.78
576.547	45564.74
576.745	45071.18
576.943	45171.53
577.141	45048.66
577.339	45134.67
577.537	44895.06
577.735	44741.46
577.933	43940.71
578.131	44735.32
578.329	44569.43
578.527	44387.16
578.725	44520.28
578.923	44096.35
579.121	43848.55
579.319	44039.01
579.516	43674.47
579.714	44008.29
579.912	43430.76
580.11	43445.1
580.308	43311.98
580.506	43129.71
580.704	42509.18
580.901	43174.77
581.099	43639.65
581.297	42900.34
581.495	42752.88
581.692	42840.95
581.89	42351.48
582.088	43035.5
582.285	42275.71
582.483	42468.22
582.681	42546.04
582.878	41843.59
583.076	41560.97
583.274	41849.73
583.471	41575.3
583.669	41694.08
583.866	41118.6
584.064	41571.21
584.262	41180.04
584.459	41362.31
584.657	40897.42
584.854	41300.87
585.052	40506.26
585.249	40463.25
585.447	40786.83
585.644	40506.26
585.841	40434.58
586.039	40817.55
586.236	40141.72
586.434	40106.91
586.631	39846.82
586.828	40283.03
587.026	40108.96
587.223	39984.03
587.42	39635.88
587.618	39703.46
587.815	39119.79
588.012	39228.33
588.21	39132.07
588.407	39058.35
588.604	38966.19
588.801	38794.16
588.999	38871.98
589.196	38863.79
589.393	38806.45
589.59	38497.2
589.787	38353.85
589.984	37794.75
590.182	37958.59
590.379	37989.31
590.576	37852.09
590.773	38091.71
590.97	38118.33
591.167	37743.55
591.364	37505.99
591.561	37882.81
591.758	37223.37
591.955	37227.46
592.152	37422.02
592.349	37045.19
592.546	37192.65
592.743	36889.55
592.94	36506.58
593.137	36735.95
593.334	36733.9
593.531	36119.51
593.727	36533.2
593.924	36619.22
594.121	36269.01
594.318	36479.96
594.515	35722.21
594.712	36045.79
594.908	35726.3
595.105	36350.93
595.302	35654.62
595.499	35810.27
595.696	35781.6
595.892	35048.43
596.089	35722.21
596.286	35415.01
596.482	35218.41
596.679	34786.29
596.876	34966.51
597.072	34640.88
597.269	34745.33
597.466	34474.99
597.662	34302.96
597.859	34513.91
598.055	34178.04
598.252	34147.32
598.448	34225.14
598.645	34071.54
598.841	33784.83
599.038	34040.82
599.234	33530.88
599.431	33428.48
599.627	33393.67
599.824	33893.37
600.02	33428.48
600.217	33528.83
600.413	33149.96
600.609	32885.77
600.806	32484.37
601.002	33270.79
601.198	32457.74
601.395	32556.05
601.591	32510.99
601.787	32683.02
601.984	32359.44
602.18	32510.99
602.376	32076.82
602.572	32048.15
602.769	32125.97
602.965	31577.12
603.161	31999
603.357	31679.52
603.553	31595.55
603.75	31593.5
603.946	31335.46
604.142	31362.08
604.338	30876.71
604.534	31255.59
604.73	30692.4
604.926	30970.92
605.122	30700.59
605.318	30528.56
605.514	30374.96
605.71	30456.88
605.906	30456.88
606.102	30446.64
606.298	30366.77
606.494	29897.78
606.69	30207.03
606.886	30282.8
607.082	29633.6
607.278	29834.3
607.474	29766.71
607.67	29535.29
607.866	29154.37
608.062	29498.43
608.257	29224
608.453	29244.48
608.649	29307.97
608.845	29035.59
609.041	28730.44
609.236	29209.67
609.432	28998.73
609.628	29267.01
609.824	28789.83
610.019	28791.88
610.215	28638.28
610.411	28718.15
610.606	28249.17
610.802	28492.88
610.998	28308.56
611.193	28326.99
611.389	28007.51
611.584	28251.22
611.78	27679.83
611.976	27835.48
612.171	28130.39
612.367	27909.21
612.562	27671.64
612.758	27356.25
612.953	27223.14
613.149	27579.48
613.344	27169.89
613.539	27489.37
613.735	26991.72
613.93	27204.7
614.126	26836.07
614.321	27378.78
614.517	27155.55
614.712	26922.09
614.907	26692.71
615.103	26877.03
615.298	26643.56
615.493	26797.16
615.688	26156.14
615.884	27235.42
616.079	26621.03
616.274	26588.27
616.47	26154.1
616.665	26002.55
616.86	26039.41
617.055	25994.36
617.25	25980.02
617.445	26018.93
617.641	25939.06
617.836	26102.9
618.031	25525.37
618.226	25685.11
618.421	25234.56
618.616	25787.51
618.811	24992.9
619.006	25422.97
619.201	24827.01
619.396	25058.43
619.591	24710.28
619.786	24728.71
619.981	24472.71
620.176	24530.06
620.371	24480.91
620.566	24415.37
620.761	24089.74
620.956	24550.54
621.151	23868.56
621.346	24104.08
621.541	23729.3
621.735	23954.58
621.93	23514.27
622.125	23254.17
622.32	23323.8
622.515	23487.64
622.709	22920.35
622.904	22828.2
623.099	22844.58
623.294	22820
623.488	22533.29
623.683	22664.36
623.878	22254.76
624.072	22408.36
624.267	22334.64
624.462	22070.45
624.656	21892.27
624.851	21685.43
625.046	21693.62
625.24	21507.26
625.435	21431.48
625.629	21480.63
625.824	21171.39
626.018	21134.53
626.213	20841.67
626.407	20964.54
626.602	20554.95
626.796	20649.16
626.991	20597.96
627.185	20219.08
627.38	20628.68
627.574	20253.9
627.768	20108.49
627.963	19592.41
628.157	19791.06
628.352	19827.92
628.546	19369.18
628.74	19854.55
628.935	19283.16
629.129	19961.04
629.323	19207.39
629.517	19178.72
629.712	19234.01
629.906	18980.06
630.1	18640.1
630.294	18855.14
630.489	18857.18
630.683	18578.66
630.877	18291.94
631.071	18388.2
631.265	18459.88
631.459	18185.45
631.653	18207.98
631.848	18197.74
632.042	17986.8
632.236	18066.67
632.43	17845.49
632.624	17913.07
632.818	17966.32
633.012	17409.27
633.206	17544.44
633.4	17143.03
633.594	16958.72
633.788	17349.88
633.982	17313.02
634.176	17071.36
634.369	17093.88
634.563	16778.5
634.757	16704.77
634.951	16753.92
635.145	16833.79
635.339	16667.91
635.533	16350.47
635.726	16471.3
635.92	16215.3
636.114	16145.67
636.308	16096.52
636.501	16092.43
636.695	15914.25
636.889	15836.43
637.083	15736.08
637.276	15641.87
637.47	15668.5
637.664	15670.54
637.857	15387.93
638.051	15602.96
638.244	15308.05
638.438	15392.02
638.632	15246.62
638.825	15408.4
639.019	15045.91
639.212	15154.46
639.406	14796.06
639.599	14998.81
639.793	14937.37
639.986	14519.59
640.18	14607.65
640.373	14632.22
640.567	14357.8
640.76	14531.87
640.954	14286.12
641.147	14314.79
641.34	14333.22
641.534	14114.09
641.727	14083.37
641.92	14153
642.114	13968.68
642.307	13862.19
642.5	13817.13
642.694	13544.75
642.887	13487.41
643.08	13548.85
643.273	13206.84
643.467	13411.64
643.66	13346.1
643.853	13268.28
644.046	13106.49
644.239	13018.43
644.432	13008.19
644.626	12719.42
644.819	12889.4
645.012	12889.4
645.205	12803.39
645.398	12703.04
645.591	12498.24
645.784	12551.49
645.977	12412.23
646.17	12281.16
646.363	12277.06
646.556	12256.58
646.749	12076.36
646.942	12217.67
647.135	12039.5
647.328	11943.24
647.521	11914.57
647.714	11760.97
647.907	11717.97
648.099	11797.84
648.292	11685.2
648.485	11529.55
648.678	11416.91
648.871	11396.43
649.064	11236.69
649.256	11414.87
649.449	11150.68
649.642	11296.08
649.835	10835.29
650.027	11146.58
650.22	10956.12
650.413	10741.08
650.605	10743.13
650.798	10663.26
650.991	10628.45
651.183	10644.83
651.376	10569.05
651.568	10278.24
651.761	10177.89
651.954	10317.15
652.146	10202.47
652.339	10308.96
652.531	10194.28
652.724	10120.55
652.916	9901.42
653.109	10065.25
653.301	9817.45
653.494	9868.65
653.686	9868.65
653.879	9833.83
654.071	9739.63
654.263	9610.61
654.456	9600.37
654.648	9487.73
654.84	9264.5
655.033	9291.12
655.225	9182.58
655.417	9434.48
655.61	9160.05
655.802	8981.88
655.994	8932.73
656.186	9018.74
656.379	8805.75
656.571	8990.07
656.763	8779.13
656.955	8744.31
657.148	8619.39
657.34	8428.93
657.532	8418.69
657.724	8332.67
657.916	8172.93
658.108	8396.16
658.3	8189.32
658.492	8072.58
658.684	8045.96
658.876	7941.51
659.068	8017.29
659.26	7843.21
659.452	7753.1
659.644	7779.72
659.836	7769.48
660.028	7558.54
660.22	7695.75
660.412	7495.05
660.604	7454.09
660.796	7570.83
660.988	7382.42
661.18	7316.88
661.372	7300.5
661.563	7280.02
661.755	7218.58
661.947	7091.6
662.139	7007.64
662.331	6866.33
662.522	6823.32
662.714	6751.64
662.906	6770.07
663.097	6729.11
663.289	6765.98
663.481	6661.53
663.673	6616.48
663.864	6499.74
664.056	6606.24
664.247	6434.21
664.439	6235.55
664.631	6262.18
664.822	6321.57
665.014	6286.75
665.205	6376.86
665.397	6120.87
665.588	6190.5
665.78	6026.66
665.971	5967.27
666.163	6090.15
666.354	6063.52
666.546	6016.42
666.737	5782.95
666.929	5776.81
667.12	5586.35
667.311	5780.9
667.503	5574.06
667.694	5688.75
667.885	5619.11
668.077	5653.93
668.268	5666.22
668.459	5492.14
668.651	5481.9
668.842	5246.38
669.033	5531.05
669.224	5391.79
669.416	5326.25
669.607	5369.26
669.798	5256.62
669.989	5262.77
670.18	5219.76
670.371	5158.32
670.563	5074.35
670.754	5021.11
670.945	4955.57
671.136	5092.79
671.327	4980.15
671.518	5023.16
671.709	5021.11
671.9	4939.19
672.091	4902.33
672.282	4654.52
672.473	4752.82
672.664	4914.61
672.855	4787.64
673.046	4748.73
673.237	4890.04
673.428	4861.37
673.619	4715.96
673.809	4660.66
674	4672.95
674.191	4752.82
674.382	4691.38
674.573	4576.7
674.764	4586.94
674.954	4670.9
675.145	4640.19
675.336	4476.35
675.527	4404.67
675.717	4425.15
675.908	4476.35
676.099	4578.75
676.289	4408.76
676.48	4341.18
676.671	4228.54
676.861	4419
677.052	4332.99
677.243	4289.98
677.433	4296.13
677.624	4226.5
677.814	4173.25
678.005	4173.25
678.195	4224.45
678.386	4183.49
678.576	4117.95
678.767	4115.91
678.957	4117.95
679.148	4158.91
679.338	4040.13
679.529	3935.68
679.719	4097.47
679.909	4091.33
680.1	4064.71
680.29	4005.31
680.481	4132.29
680.671	3997.12
680.861	3943.88
681.052	3970.5
681.242	3925.44
681.432	3954.12
681.622	3915.2
681.813	3945.92
682.003	3868.1
682.193	3857.86
682.383	3902.92
682.573	3864.01
682.764	3806.66
682.954	3896.77
683.144	3706.31
683.334	3782.09
683.524	3655.11
683.714	3843.53
683.904	3620.3
684.094	3687.88
684.284	3775.94
684.474	3792.33
684.664	3790.28
684.854	3657.16
685.044	3796.42
685.234	3747.27
685.424	3702.22
685.614	3694.02
685.804	3618.25
685.994	3638.73
686.184	3644.87
686.374	3677.64
686.564	3646.92
686.753	3706.31
686.943	3734.98
687.133	3626.44
687.323	3565
687.513	3651.02
687.702	3530.19
687.892	3632.58
688.082	3499.47
688.272	3554.76
688.461	3577.29
688.651	3691.98
688.841	3663.3
689.03	3759.56
689.22	3579.34
689.41	3591.63
689.599	3591.63
689.789	3661.26
689.979	3716.55
690.168	3624.39
690.358	3597.77
690.547	3593.67
690.737	3667.4
690.926	3622.34
691.116	3587.53
691.305	3552.71
691.495	3485.13
691.684	3515.85
691.874	3573.19
692.063	3634.63
692.252	3577.29
692.442	3567.05
692.631	3548.62
692.82	3435.98
693.01	3581.39
693.199	3534.28
693.388	3505.61
693.578	3622.34
693.767	3458.51
693.956	3446.22
694.146	3466.7
694.335	3528.14
694.524	3507.66
694.713	3487.18
694.902	3417.55
695.092	3440.08
695.281	3464.65
695.47	3337.68
695.659	3341.77
695.848	3470.8
696.037	3466.7
696.226	3341.77
696.415	3425.74
696.604	3425.74
696.793	3239.37
696.982	3343.82
697.171	3507.66
697.36	3399.12
697.549	3401.16
697.738	3452.36
697.927	3417.55
698.116	3405.26
698.305	3413.45
698.494	3294.67
698.683	3399.12
698.872	3347.92
699.061	3474.89
699.25	3327.44
699.438	3231.18
699.627	3298.77
699.816	3302.86
700.005	3313.1
700.193	3337.68
700.382	3286.48
700.571	3345.87
700.76	3239.37
700.948	3196.37
701.137	3192.27
701.326	3247.57
701.514	3231.18
701.703	3261.9
701.892	3184.08
702.08	3153.36
702.269	3124.69
702.457	3089.87
702.646	3167.7
702.834	3196.37
703.023	3190.22
703.212	3089.87
703.4	3091.92
703.589	3081.68
703.777	3065.3
703.965	3071.44
704.154	3050.96
704.342	3012.05
704.531	3061.2
704.719	3030.48
704.907	2979.28
705.096	2862.55
705.284	3100.11
705.472	2909.65
705.661	2846.16
705.849	2889.17
706.037	2962.9
706.226	2889.17
706.414	2934.23
706.602	2864.6
706.79	2846.16
706.979	2901.46
707.167	2946.52
707.355	2756.05
707.543	2835.92
707.731	2833.88
707.919	2706.9
708.107	2885.08
708.296	2860.5
708.484	2762.2
708.672	2772.44
708.86	2901.46
709.048	2780.63
709.236	2616.79
709.424	2639.32
709.612	2729.43
709.8	2731.48
709.988	2653.66
710.176	2661.85
710.364	2622.94
710.551	2741.72
710.739	2657.75
710.927	2549.21
711.115	2477.53
711.303	2555.35
711.491	2594.26
711.679	2483.67
711.866	2567.64
712.054	2588.12
712.242	2508.25
712.43	2446.81
712.617	2569.69
712.805	2342.36
712.993	2479.58
713.181	2461.15
713.368	2334.17
713.556	2446.81
713.744	2385.37
713.931	2401.76
714.119	2334.17
714.306	2319.84
714.494	2276.83
714.682	2287.07
714.869	2225.63
715.057	2354.65
715.244	2153.95
715.432	2315.74
715.619	2309.6
715.807	2246.11
715.994	2172.38
716.182	2235.87
716.369	2307.55
716.556	2311.64
716.744	2221.53
716.931	2256.35
717.119	2235.87
717.306	2237.92
717.493	2139.62
717.681	2207.2
717.868	1975.78
718.055	2092.51
718.242	2172.38
718.43	2051.55
718.617	2039.26
718.804	2131.42
718.991	2127.33
719.179	2018.79
719.366	2029.03
719.553	2033.12
719.74	2010.59
719.927	2012.64
720.114	1940.96
720.301	1900
720.488	1912.29
720.676	1881.57
720.863	1932.77
721.05	1955.3
721.237	1977.83
721.424	1885.67
721.611	1787.36
721.798	1824.23
721.985	1875.43
722.172	1857
722.358	1869.28
722.545	1871.33
722.732	1850.85
722.919	1873.38
723.106	1838.56
723.293	1848.8
723.48	1861.09
723.667	1773.03
723.853	1863.14
724.04	1836.52
724.227	1701.35
724.414	1707.49
724.6	1744.36
724.787	1668.58
724.974	1752.55
725.161	1707.49
725.347	1727.97
725.534	1592.81
725.72	1867.24
725.907	1672.68
726.094	1727.97
726.28	1680.87
726.467	1650.15
726.653	1687.01
726.84	1572.33
727.027	1637.86
727.213	1607.14
727.4	1584.62
727.586	1670.63
727.773	1574.38
727.959	1523.18
728.145	1578.47
728.332	1541.61
728.518	1488.36
728.705	1574.38
728.891	1476.07
729.077	1598.95
729.264	1492.46
729.45	1428.97
729.636	1517.03
729.823	1557.99
730.009	1500.65
730.195	1488.36
730.382	1471.98
730.568	1469.93
730.754	1512.94
730.94	1465.83
731.126	1416.68
731.313	1416.68
731.499	1402.35
731.685	1449.45
731.871	1408.49
732.057	1357.29
732.243	1347.05
732.429	1410.54
732.615	1437.16
732.801	1293.8
732.987	1437.16
733.173	1297.9
733.359	1310.19
733.545	1390.06
733.731	1261.04
733.917	1291.76
734.103	1310.19
734.289	1283.56
734.475	1291.76
734.661	1265.13
734.847	1306.09
735.033	1312.24
735.219	1299.95
735.404	1326.57
735.59	1304.04
735.776	1332.72
735.962	1314.28
736.148	1283.56
736.333	1222.13
736.519	1269.23
736.705	1244.65
736.89	1160.69
737.076	1199.6
737.262	1265.13
737.447	1168.88
737.633	1113.58
737.819	1136.11
738.004	1166.83
738.19	1166.83
738.375	1240.56
738.561	1230.32
738.747	1091.06
738.932	1105.39
739.118	1232.37
739.303	1222.13
739.489	1093.1
739.674	1062.38
739.859	1119.73
740.045	1101.3
740.23	1162.73
740.416	1086.96
740.601	980.47
740.786	1097.2
740.972	1093.1
741.157	1156.59
741.342	1150.45
741.528	1021.42
741.713	1125.87
741.898	1113.58
742.084	1080.82
742.269	1089.01
742.454	1052.14
742.639	1056.24
742.824	1007.09
743.01	947.7
743.195	1002.99
743.38	1052.14
743.565	980.47
743.75	1035.76
743.935	1041.9
744.12	929.27
744.305	939.51
744.49	910.83
744.675	951.79
744.86	933.36
745.045	988.66
745.23	933.36
745.415	986.61
745.6	970.23
745.785	902.64
745.97	910.83
746.155	896.5
746.34	839.16
746.525	996.85
746.71	953.84
746.895	867.83
747.079	904.69
747.264	933.36
747.449	873.97
747.634	925.17
747.819	951.79
748.003	787.96
748.188	841.2
748.373	933.36
748.557	861.68
748.742	744.95
748.927	910.83
749.111	812.53
749.296	726.52
749.481	837.11
749.665	835.06
749.85	824.82
750.034	835.06
750.219	824.82
750.404	790
750.588	783.86
750.773	828.92
750.957	728.56
751.141	685.56
751.326	751.09
751.51	648.69
751.695	820.72
751.879	747
752.064	755.19
752.248	751.09
752.432	822.77
752.617	767.48
752.801	683.51
752.985	738.8
753.17	665.08
753.354	697.85
753.538	714.23
753.722	773.62
753.907	736.76
754.091	622.07
754.275	679.41
754.459	642.55
754.643	646.65
754.828	730.61
755.012	706.04
755.196	624.12
755.38	624.12
755.564	706.04
755.748	718.33
755.932	644.6
756.116	564.73
756.3	638.45
756.484	603.64
756.668	642.55
756.852	620.02
757.036	652.79
757.22	656.89
757.404	583.16
757.588	597.49
757.772	626.17
757.956	693.75
758.14	632.31
758.323	531.96
758.507	622.07
758.691	546.3
758.875	570.87
759.059	589.3
759.242	656.89
759.426	622.07
759.61	591.35
759.794	550.39
759.977	607.73
760.161	583.16
760.345	587.26
760.528	572.92
760.712	579.06
760.895	513.53
761.079	550.39
761.263	540.15
761.446	611.83
761.63	568.82
761.813	488.95
761.997	560.63
762.18	515.58
762.364	513.53
762.547	591.35
762.731	570.87
762.914	503.29
763.098	505.34
763.281	501.24
763.464	509.43
763.648	521.72
763.831	400.89
764.015	513.53
764.198	542.2
764.381	491
764.564	501.24
764.748	480.76
764.931	525.82
765.114	509.43
765.297	527.86
765.481	476.66
765.664	468.47
765.847	495.1
766.03	540.15
766.213	546.3
766.397	484.86
766.58	472.57
766.763	560.63
766.946	478.71
767.129	433.66
767.312	378.36
767.495	486.9
767.678	499.19
767.861	509.43
768.044	583.16
768.227	447.99
768.41	509.43
768.593	515.58
768.776	478.71
768.959	558.58
769.142	546.3
769.324	519.67
769.507	431.61
769.69	462.33
769.873	443.9
770.056	427.51
770.239	423.42
770.421	534.01
770.604	560.63
770.787	413.18
770.97	445.95
771.152	558.58
771.335	404.99
771.518	433.66
771.7	447.99
771.883	478.71
772.066	478.71
772.248	419.32
772.431	435.71
772.613	376.31
772.796	462.33
772.978	433.66
773.161	417.27
773.343	482.81
773.526	374.27
773.708	474.62
773.891	472.57
774.073	386.55
774.256	435.71
774.438	462.33
774.621	396.79
774.803	443.9
774.985	388.6
775.168	366.07
775.35	407.03
775.532	427.51
775.715	374.27
775.897	398.84
776.079	415.23
776.261	413.18
776.444	384.51
776.626	355.83
776.808	374.27
776.99	282.11
777.173	447.99
777.355	343.55
777.537	345.59
777.719	411.13
777.901	296.44
778.083	390.65
778.265	341.5
778.447	378.36
778.629	308.73
778.811	355.83
778.993	374.27
779.175	368.12
779.357	337.4
779.539	366.07
779.721	349.69
779.903	407.03
780.085	323.07
780.267	337.4
780.449	341.5
780.631	349.69
780.812	310.78
780.994	325.12
781.176	306.68
781.358	300.54
781.54	331.26
781.721	318.97
781.903	267.77
782.085	251.39
782.267	380.41
782.448	271.87
782.63	341.5
782.812	296.44
782.993	271.87
783.175	243.2
783.357	220.67
783.538	300.54
783.72	364.03
783.901	316.92
784.083	288.25
784.264	220.67
784.446	325.12
784.627	314.88
784.809	327.16
784.99	237.05
785.172	237.05
785.353	347.64
785.535	280.06
785.716	247.29
785.897	200.19
786.079	265.72
786.26	253.44
786.441	222.72
786.623	177.66
786.804	224.76
786.985	271.87
787.167	226.81
787.348	245.24
787.529	230.91
787.71	247.29
787.891	263.68
788.073	280.06
788.254	273.92
788.435	218.62
788.616	189.95
788.797	216.57
788.978	194.05
789.159	235
789.34	226.81
789.522	185.85
789.703	267.77
789.884	249.34
790.065	255.48
790.246	267.77
790.427	243.2
790.607	282.11
790.788	204.28
790.969	167.42
791.15	202.24
791.331	177.66
791.512	200.19
791.693	212.48
791.874	212.48
792.054	210.43
792.235	222.72
792.416	212.48
792.597	196.09
792.778	136.7
792.958	124.41
793.139	179.71
793.32	263.68
793.5	142.85
793.681	177.66
793.862	212.48
794.042	198.14
794.223	239.1
794.404	108.03
794.584	151.04
794.765	132.61
794.945	177.66
795.126	173.57
795.306	196.09
795.487	196.09
795.667	204.28
795.848	208.38
796.028	206.33
796.209	140.8
796.389	140.8
796.57	167.42
796.75	159.23
796.93	263.68
797.111	157.18
797.291	255.48
797.471	148.99
797.652	167.42
797.832	179.71
798.012	69.12
798.192	124.41
798.373	142.85
798.553	167.42
798.733	173.57
798.913	124.41
799.093	157.18
799.274	124.41
799.454	169.47
799.634	120.32
799.814	140.8
799.994	108.03
800.174	177.66
800.354	222.72
800.534	101.89
800.714	224.76
800.894	194.05
801.074	140.8
801.254	212.48
801.434	112.13
801.614	83.45
801.794	136.7
801.974	370.17
802.154	116.22
802.334	136.7
802.514	167.42
802.693	134.65
802.873	148.99
803.053	136.7
803.233	198.14
803.413	108.03
803.592	165.37
803.772	153.09
803.952	112.13
804.131	99.84
804.311	155.13
804.491	151.04
804.67	126.46
804.85	173.57
805.03	132.61
805.209	36.35
805.389	159.23
805.568	189.95
805.748	138.75
805.928	120.32
806.107	128.51
806.287	62.98
806.466	108.03
806.646	116.22
806.825	50.69
807.004	93.69
807.184	75.26
807.363	99.84
807.543	181.76
807.722	69.12
807.901	153.09
808.081	130.56
808.26	75.26
808.439	103.93
808.619	134.65
808.798	103.93
808.977	65.02
809.156	103.93
809.336	71.17
809.515	50.69
809.694	108.03
809.873	118.27
810.052	91.65
810.231	73.21
810.411	97.79
810.59	110.08
810.769	65.02
810.948	67.07
811.127	85.5
811.306	71.17
811.485	124.41
811.664	179.71
811.843	83.45
812.022	146.94
812.201	93.69
812.38	124.41
812.559	85.5
812.737	140.8
812.916	67.07
813.095	52.74
813.274	85.5
813.453	95.74
813.632	89.6
813.811	110.08
813.989	124.41
814.168	73.21
814.347	17.92
814.526	103.93
814.704	17.92
814.883	65.02
815.062	54.78
815.24	75.26
815.419	54.78
815.598	124.41
815.776	114.17
815.955	73.21
816.133	26.11
816.312	132.61
816.49	118.27
816.669	26.11
816.847	83.45
817.026	87.55
817.204	67.07
817.383	79.36
817.561	54.78
817.74	62.98
817.918	97.79
818.097	75.26
818.275	30.21
818.453	26.11
818.632	108.03
818.81	128.51
818.988	62.98
819.167	5.63
819.345	7.68
819.523	112.13
819.701	124.41
819.879	28.16
820.058	50.69
820.236	91.65
820.414	3.58
820.592	-0.51
820.77	95.74
820.948	9.73
821.127	7.68
821.305	50.69
821.483	89.6
821.661	38.4
821.839	95.74
822.017	38.4
822.195	38.4
822.373	77.31
822.551	79.36
822.729	167.42
822.907	99.84
823.085	65.02
823.262	36.35
823.44	108.03
823.618	71.17
823.796	83.45
823.974	34.3
824.152	56.83
824.329	69.12
824.507	116.22
824.685	42.5
824.863	91.65
825.04	3.58
825.218	110.08
825.396	108.03
825.574	54.78
825.751	56.83
825.929	85.5
826.107	146.94
826.284	38.4
826.462	50.69
826.639	114.17
826.817	11.78
826.994	130.56
827.172	89.6
827.349	99.84
827.527	50.69
827.704	116.22
827.882	112.13
828.059	42.5
828.237	22.02
828.414	52.74
828.591	44.54
828.769	69.12
828.946	93.69
829.124	126.46
829.301	93.69
829.478	3.58
829.655	15.87
829.833	85.5
830.01	79.36
830.187	3.58
830.364	54.78
830.542	122.37
830.719	97.79
830.896	1.54
831.073	89.6
831.25	22.02
831.427	65.02
831.604	58.88
831.782	17.92
831.959	17.92
832.136	24.06
832.313	120.32
832.49	52.74
832.667	75.26
832.844	89.6
833.021	75.26
833.198	65.02
833.374	89.6
833.551	-29.18
833.728	120.32
833.905	105.98
834.082	56.83
834.259	28.16
834.436	28.16
834.612	-35.33
834.789	40.45
834.966	67.07
835.143	60.93
835.319	40.45
835.496	5.63
835.673	60.93
835.85	5.63
836.026	28.16
836.203	26.11
836.38	-20.99
836.556	87.55
836.733	52.74
836.909	-4.61
837.086	9.73
837.262	79.36
837.439	42.5
837.616	26.11
837.792	-12.8
837.968	15.87
838.145	44.54
838.321	79.36
838.498	-18.94
838.674	26.11
838.851	-14.85
839.027	42.5
839.203	93.69
839.38	15.87
839.556	73.21
839.732	28.16
839.909	13.82
840.085	62.98
840.261	28.16
840.437	75.26
840.614	28.16
840.79	93.69
840.966	30.21
841.142	32.26
841.318	19.97
841.494	7.68
841.671	-12.8
841.847	71.17
842.023	-14.85
842.199	15.87
842.375	91.65
842.551	58.88
842.727	71.17
842.903	11.78
843.079	58.88
843.255	28.16
843.431	22.02
843.607	-10.75
843.783	-37.38
843.959	-31.23
844.134	60.93
844.31	65.02
844.486	32.26
844.662	11.78
844.838	65.02
845.013	-10.75
845.189	65.02
845.365	26.11
845.541	44.54
845.716	-16.9
845.892	38.4
846.068	11.78
846.244	15.87
846.419	-0.51
846.595	52.74
846.77	13.82
846.946	85.5
847.122	36.35
847.297	32.26
847.473	62.98
847.648	32.26
847.824	11.78
847.999	-12.8
848.175	50.69
848.35	19.97
848.526	-33.28
848.701	-0.51
848.876	-2.56
849.052	40.45
849.227	3.58
849.403	89.6
849.578	36.35
849.753	-29.18
849.929	36.35
850.104	-10.75
850.279	50.69
850.454	34.3
850.63	46.59
850.805	13.82
850.98	9.73
851.155	38.4
851.33	3.58
851.505	28.16
851.681	50.69
851.856	36.35
852.031	34.3
852.206	1.54
852.381	19.97
852.556	28.16
852.731	36.35
852.906	9.73
853.081	-16.9
853.256	5.63
853.431	52.74
853.606	44.54
853.781	-59.9
853.956	-2.56
854.131	-31.23
854.305	-23.04
854.48	-2.56
854.655	7.68
854.83	-29.18
855.005	26.11
855.18	77.31
855.354	36.35
855.529	34.3
855.704	58.88
855.879	-20.99
856.053	22.02
856.228	11.78
856.403	-14.85
856.577	26.11
856.752	-49.66
856.926	67.07
857.101	56.83
857.276	5.63
857.45	1.54
857.625	-27.14
857.799	-33.28
857.974	34.3
858.148	-8.7
858.323	-29.18
858.497	13.82
858.672	30.21
858.846	22.02
859.02	67.07
859.195	-14.85
859.369	22.02
859.543	-14.85
859.718	81.41
859.892	22.02
860.066	17.92
860.241	-2.56
860.415	-6.66
860.589	-8.7
860.763	32.26
860.938	30.21
861.112	46.59
861.286	69.12
861.46	34.3
861.634	1.54
861.808	44.54
861.982	30.21
862.157	75.26
862.331	-18.94
862.505	13.82
862.679	42.5
862.853	30.21
863.027	-2.56
863.201	9.73
863.375	-2.56
863.549	-27.14
863.722	69.12
863.896	44.54
864.07	-125.44
864.244	-6.66
864.418	28.16
864.592	-64
864.766	38.4
864.939	-6.66
865.113	11.78
865.287	26.11
865.461	44.54
865.634	-14.85
865.808	-31.23
865.982	11.78
866.156	-74.24
866.329	34.3
866.503	-18.94
866.676	58.88
866.85	19.97
867.024	32.26
867.197	38.4
867.371	46.59
867.544	19.97
867.718	54.78
867.891	-25.09
868.065	-12.8
868.238	50.69
868.412	5.63
868.585	17.92
868.759	9.73
868.932	30.21
869.105	9.73
869.279	-33.28
869.452	-18.94
869.625	-86.53
869.799	-31.23
869.972	-2.56
870.145	-4.61
870.319	-12.8
870.492	50.69
870.665	5.63
870.838	32.26
871.011	-12.8
871.185	60.93
871.358	-4.61
871.531	36.35
871.704	34.3
871.877	-18.94
872.05	1.54
872.223	83.45
872.396	34.3
872.569	19.97
872.742	22.02
872.915	-27.14
873.088	-45.57
873.261	103.93
873.434	-2.56
873.607	38.4
873.78	-31.23
873.953	-2.56
874.126	-6.66
874.299	-39.42
874.471	-47.62
874.644	75.26
874.817	-20.99
874.99	71.17
875.163	52.74
875.335	44.54
875.508	13.82
875.681	11.78
875.853	-6.66
876.026	19.97
876.199	52.74
876.371	69.12
876.544	-2.56
876.717	-14.85
876.889	42.5
877.062	52.74
877.234	26.11
877.407	11.78
877.579	-0.51
877.752	13.82
877.924	17.92
878.097	32.26
878.269	19.97
878.442	-2.56
878.614	34.3
878.786	32.26
878.959	22.02
879.131	34.3
879.303	1.54
879.476	26.11
879.648	1.54
879.82	46.59
879.993	67.07
880.165	-29.18
880.337	-61.95
880.509	22.02
880.681	-4.61
880.854	-8.7
881.026	3.58
881.198	52.74
881.37	44.54
881.542	79.36
881.714	38.4
881.886	32.26
882.058	-20.99
882.23	-16.9
882.402	32.26
882.574	-2.56
882.746	-18.94
882.918	52.74
883.09	-10.75
883.262	3.58
883.434	24.06
883.606	5.63
883.778	-37.38
883.95	13.82
884.122	22.02
884.293	138.75
884.465	-49.66
884.637	15.87
884.809	54.78
884.98	26.11
885.152	-27.14
885.324	3.58
885.496	-33.28
885.667	58.88
885.839	26.11
886.011	-0.51
886.182	17.92
886.354	-6.66
886.525	-20.99
886.697	-8.7
886.869	42.5
887.04	-41.47
887.212	-29.18
887.383	110.08
887.555	-39.42
887.726	-64
887.897	17.92
888.069	19.97
888.24	26.11
888.412	28.16
888.583	15.87
888.754	22.02
888.926	15.87
889.097	-14.85
889.268	-45.57
889.44	56.83
889.611	32.26
889.782	60.93
889.953	-8.7
890.125	28.16
890.296	5.63
890.467	17.92
890.638	-51.71
890.809	15.87
890.98	52.74
891.151	-37.38
891.323	11.78
891.494	17.92
891.665	17.92
891.836	9.73
892.007	-18.94
892.178	15.87
892.349	-23.04
892.52	28.16
892.691	-47.62
892.862	-25.09
893.032	-6.66
893.203	36.35
893.374	3.58
893.545	11.78
893.716	-31.23
893.887	-59.9
894.057	-47.62
894.228	36.35
894.399	-23.04
894.57	1.54
894.74	-2.56
894.911	50.69
895.082	-70.14
895.253	11.78
895.423	-29.18
895.594	24.06
895.764	48.64
895.935	-39.42
896.106	1.54
896.276	50.69
896.447	9.73
896.617	-47.62
896.788	81.41
896.958	-47.62
897.129	73.21
897.299	-33.28
897.47	-8.7
897.64	11.78
897.81	54.78
897.981	22.02
898.151	-2.56
898.322	34.3
898.492	-8.7
898.662	36.35
898.832	54.78
899.003	26.11
899.173	1.54
899.343	-20.99
899.513	-16.9
