Data from USB4F104151__268__14-02-06-760.txt Node

Date: Thu Mar 13 14:02:06 EDT 2025
User: louis
Spectrometer: USB4F10415
Trigger mode: 4
Integration Time (sec): 1.000000E-2
Scans to average: 1
Electric dark correction enabled: true
Nonlinearity correction enabled: false
Boxcar width: 0
XAxis mode: Wavelengths
Number of Pixels in Spectrum: 3648
>>>>>Begin Spectral Data<<<<<
178.204	-37.55
178.424	-37.55
178.644	-37.55
178.864	-86.7
179.084	-25.26
179.304	15.7
179.524	52.56
179.744	5.46
179.964	-2.73
180.184	-0.68
180.404	-70.31
180.624	-21.16
180.844	17.75
181.064	-21.16
181.283	30.04
181.503	-41.64
181.723	36.18
181.943	-90.79
182.163	36.18
182.383	-15.02
182.602	-2.73
182.822	-17.07
183.042	40.28
183.262	48.47
183.482	17.75
183.701	54.61
183.921	-45.74
184.141	7.51
184.361	97.62
184.58	118.1
184.8	-31.4
185.02	-27.31
185.239	105.81
185.459	-39.59
185.679	27.99
185.898	40.28
186.118	-23.21
186.338	-74.41
186.557	-6.83
186.777	-4.78
186.997	52.56
187.216	40.28
187.436	23.89
187.655	89.43
187.875	17.75
188.095	17.75
188.314	40.28
188.534	32.08
188.753	36.18
188.973	7.51
189.192	62.8
189.412	-8.87
189.631	42.32
189.851	30.04
190.07	97.62
190.29	-2.73
190.509	-51.88
190.729	-12.97
190.948	-2.73
191.168	44.37
191.387	13.65
191.607	42.32
191.826	-29.35
192.045	48.47
192.265	87.38
192.484	25.94
192.704	-4.78
192.923	52.56
193.142	17.75
193.362	17.75
193.581	-25.26
193.8	-43.69
194.02	23.89
194.239	-8.87
194.458	-6.83
194.678	15.7
194.897	38.23
195.116	32.08
195.335	21.85
195.555	81.24
195.774	3.41
195.993	-23.21
196.212	15.7
196.432	19.8
196.651	-15.02
196.87	-17.07
197.089	-0.68
197.308	34.13
197.528	15.7
197.747	-58.03
197.966	105.81
198.185	-25.26
198.404	48.47
198.623	-6.83
198.842	7.51
199.062	38.23
199.281	56.66
199.5	-25.26
199.719	34.13
199.938	19.8
200.157	34.13
200.376	-25.26
200.595	-41.64
200.814	-39.59
201.033	19.8
201.252	27.99
201.471	19.8
201.69	54.61
201.909	48.47
202.128	19.8
202.347	23.89
202.566	30.04
202.785	15.7
203.004	42.32
203.223	36.18
203.442	32.08
203.661	17.75
203.879	-84.65
204.098	-0.68
204.317	-0.68
204.536	-6.83
204.755	-4.78
204.974	48.47
205.193	-53.93
205.411	32.08
205.63	-4.78
205.849	9.56
206.068	23.89
206.287	13.65
206.505	-12.97
206.724	15.7
206.943	-41.64
207.162	25.94
207.381	21.85
207.599	15.7
207.818	27.99
208.037	-43.69
208.255	48.47
208.474	3.41
208.693	68.95
208.911	32.08
209.13	7.51
209.349	34.13
209.567	-47.79
209.786	46.42
210.005	36.18
210.223	42.32
210.442	13.65
210.661	-58.03
210.879	-0.68
211.098	-25.26
211.316	-4.78
211.535	48.47
211.753	-47.79
211.972	23.89
212.191	11.61
212.409	-25.26
212.628	27.99
212.846	11.61
213.065	11.61
213.283	85.33
213.502	9.56
213.72	32.08
213.938	9.56
214.157	19.8
214.375	44.37
214.594	-41.64
214.812	3.41
215.031	114
215.249	-15.02
215.467	23.89
215.686	71
215.904	36.18
216.122	-33.45
216.341	50.52
216.559	50.52
216.778	50.52
216.996	75.09
217.214	9.56
217.432	-21.16
217.651	64.85
217.869	-0.68
218.087	-6.83
218.306	32.08
218.524	30.04
218.742	13.65
218.96	42.32
219.179	-29.35
219.397	48.47
219.615	34.13
219.833	-0.68
220.051	81.24
220.27	3.41
220.488	-21.16
220.706	13.65
220.924	-31.4
221.142	-10.92
221.36	32.08
221.578	1.37
221.796	23.89
222.015	13.65
222.233	-23.21
222.451	11.61
222.669	27.99
222.887	21.85
223.105	-0.68
223.323	71
223.541	11.61
223.759	17.75
223.977	30.04
224.195	23.89
224.413	23.89
224.631	-4.78
224.849	77.14
225.067	42.32
225.285	5.46
225.503	75.09
225.721	-33.45
225.939	19.8
226.157	83.28
226.375	103.76
226.592	25.94
226.81	32.08
227.028	11.61
227.246	-47.79
227.464	11.61
227.682	36.18
227.9	27.99
228.117	-15.02
228.335	114
228.553	42.32
228.771	54.61
228.989	3.41
229.206	19.8
229.424	25.94
229.642	58.71
229.86	15.7
230.077	-53.93
230.295	-10.92
230.513	-0.68
230.731	50.52
230.948	42.32
231.166	95.57
231.384	1.37
231.601	-29.35
231.819	32.08
232.037	36.18
232.254	-6.83
232.472	32.08
232.689	-49.83
232.907	19.8
233.125	-25.26
233.342	3.41
233.56	-27.31
233.777	32.08
233.995	42.32
234.213	50.52
234.43	19.8
234.648	48.47
234.865	11.61
235.083	-25.26
235.3	27.99
235.518	36.18
235.735	60.76
235.953	-19.11
236.17	50.52
236.388	40.28
236.605	27.99
236.822	66.9
237.04	40.28
237.257	32.08
237.475	27.99
237.692	83.28
237.909	-51.88
238.127	23.89
238.344	64.85
238.562	-2.73
238.779	-8.87
238.996	58.71
239.214	46.42
239.431	23.89
239.648	-29.35
239.865	-35.5
240.083	5.46
240.3	83.28
240.517	85.33
240.735	1.37
240.952	56.66
241.169	15.7
241.386	3.41
241.603	3.41
241.821	42.32
242.038	-33.45
242.255	-23.21
242.472	36.18
242.689	9.56
242.907	122.2
243.124	60.76
243.341	19.8
243.558	-64.17
243.775	-33.45
243.992	38.23
244.209	-47.79
244.426	9.56
244.643	-8.87
244.86	66.9
245.078	1.37
245.295	40.28
245.512	5.46
245.729	-43.69
245.946	-25.26
246.163	32.08
246.38	48.47
246.597	89.43
246.814	-37.55
247.031	66.9
247.248	-37.55
247.464	-21.16
247.681	93.52
247.898	7.51
248.115	34.13
248.332	34.13
248.549	17.75
248.766	9.56
248.983	19.8
249.2	7.51
249.417	27.99
249.633	-0.68
249.85	-25.26
250.067	-15.02
250.284	15.7
250.501	34.13
250.717	34.13
250.934	7.51
251.151	-70.31
251.368	34.13
251.585	13.65
251.801	-0.68
252.018	-23.21
252.235	9.56
252.451	81.24
252.668	-12.97
252.885	46.42
253.102	36.18
253.318	-33.45
253.535	-12.97
253.752	-2.73
253.968	11.61
254.185	73.04
254.401	48.47
254.618	79.19
254.835	-0.68
255.051	109.91
255.268	-0.68
255.484	32.08
255.701	-31.4
255.917	109.91
256.134	58.71
256.351	48.47
256.567	66.9
256.784	7.51
257	-23.21
257.217	107.86
257.433	40.28
257.65	38.23
257.866	36.18
258.082	42.32
258.299	54.61
258.515	-6.83
258.732	-25.26
258.948	17.75
259.165	3.41
259.381	1.37
259.597	1.37
259.814	1.37
260.03	81.24
260.246	58.71
260.463	38.23
260.679	126.29
260.895	75.09
261.112	17.75
261.328	-15.02
261.544	-4.78
261.761	109.91
261.977	50.52
262.193	30.04
262.409	105.81
262.626	-25.26
262.842	85.33
263.058	-27.31
263.274	27.99
263.49	30.04
263.707	32.08
263.923	60.76
264.139	27.99
264.355	-29.35
264.571	48.47
264.787	-37.55
265.004	15.7
265.22	-49.83
265.436	83.28
265.652	30.04
265.868	75.09
266.084	9.56
266.3	58.71
266.516	107.86
266.732	52.56
266.948	7.51
267.164	7.51
267.38	-12.97
267.596	58.71
267.812	103.76
268.028	27.99
268.244	7.51
268.46	105.81
268.676	11.61
268.892	-29.35
269.108	32.08
269.324	-35.5
269.54	11.61
269.756	25.94
269.972	-58.03
270.188	-25.26
270.403	21.85
270.619	15.7
270.835	-12.97
271.051	36.18
271.267	13.65
271.483	52.56
271.698	83.28
271.914	-19.11
272.13	-8.87
272.346	9.56
272.562	1.37
272.777	40.28
272.993	50.52
273.209	46.42
273.425	99.67
273.64	19.8
273.856	40.28
274.072	34.13
274.287	-2.73
274.503	-2.73
274.719	3.41
274.934	-29.35
275.15	-29.35
275.366	32.08
275.581	-49.83
275.797	-19.11
276.012	11.61
276.228	36.18
276.444	30.04
276.659	5.46
276.875	-2.73
277.09	15.7
277.306	-17.07
277.521	52.56
277.737	-12.97
277.952	30.04
278.168	68.95
278.383	64.85
278.599	36.18
278.814	42.32
279.03	44.37
279.245	48.47
279.461	34.13
279.676	27.99
279.892	62.8
280.107	36.18
280.322	64.85
280.538	32.08
280.753	36.18
280.969	30.04
281.184	-6.83
281.399	66.9
281.615	23.89
281.83	87.38
282.045	-12.97
282.26	5.46
282.476	30.04
282.691	38.23
282.906	-0.68
283.122	23.89
283.337	-6.83
283.552	64.85
283.767	-10.92
283.983	75.09
284.198	54.61
284.413	21.85
284.628	40.28
284.843	15.7
285.058	7.51
285.274	5.46
285.489	34.13
285.704	7.51
285.919	25.94
286.134	13.65
286.349	32.08
286.564	-8.87
286.779	15.7
286.995	40.28
287.21	-74.41
287.425	19.8
287.64	15.7
287.855	50.52
288.07	-6.83
288.285	15.7
288.5	-88.75
288.715	32.08
288.93	9.56
289.145	13.65
289.36	81.24
289.575	48.47
289.79	3.41
290.004	-2.73
290.219	60.76
290.434	-0.68
290.649	-19.11
290.864	25.94
291.079	-45.74
291.294	7.51
291.509	5.46
291.724	15.7
291.938	48.47
292.153	56.66
292.368	42.32
292.583	32.08
292.798	-17.07
293.012	17.75
293.227	9.56
293.442	-74.41
293.657	1.37
293.871	60.76
294.086	56.66
294.301	32.08
294.516	9.56
294.73	25.94
294.945	34.13
295.16	44.37
295.374	32.08
295.589	75.09
295.804	-23.21
296.018	105.81
296.233	93.52
296.447	-17.07
296.662	-23.21
296.877	15.7
297.091	19.8
297.306	56.66
297.52	40.28
297.735	13.65
297.949	-29.35
298.164	34.13
298.378	27.99
298.593	114
298.807	-12.97
299.022	-25.26
299.236	25.94
299.451	-8.87
299.665	52.56
299.88	38.23
300.094	-55.98
300.309	21.85
300.523	-19.11
300.737	27.99
300.952	30.04
301.166	-8.87
301.381	27.99
301.595	-27.31
301.809	-6.83
302.024	11.61
302.238	60.76
302.452	91.48
302.667	122.2
302.881	-2.73
303.095	48.47
303.309	7.51
303.524	-49.83
303.738	107.86
303.952	66.9
304.166	71
304.381	-49.83
304.595	48.47
304.809	13.65
305.023	44.37
305.237	36.18
305.452	40.28
305.666	-10.92
305.88	-17.07
306.094	44.37
306.308	30.04
306.522	60.76
306.736	27.99
306.95	3.41
307.164	17.75
307.379	48.47
307.593	68.95
307.807	-0.68
308.021	81.24
308.235	1.37
308.449	9.56
308.663	25.94
308.877	-4.78
309.091	50.52
309.305	-10.92
309.519	-31.4
309.733	11.61
309.947	-19.11
310.161	11.61
310.374	56.66
310.588	-19.11
310.802	9.56
311.016	7.51
311.23	11.61
311.444	-8.87
311.658	36.18
311.872	150.87
312.085	32.08
312.299	-12.97
312.513	15.7
312.727	-74.41
312.941	56.66
313.154	50.52
313.368	11.61
313.582	7.51
313.796	-15.02
314.009	30.04
314.223	13.65
314.437	-0.68
314.651	44.37
314.864	38.23
315.078	-29.35
315.292	30.04
315.505	-25.26
315.719	64.85
315.933	21.85
316.146	-37.55
316.36	48.47
316.573	11.61
316.787	56.66
317.001	111.96
317.214	-31.4
317.428	-12.97
317.641	25.94
317.855	-37.55
318.068	42.32
318.282	32.08
318.495	44.37
318.709	15.7
318.922	15.7
319.136	64.85
319.349	73.04
319.563	46.42
319.776	17.75
319.99	-25.26
320.203	-0.68
320.417	-31.4
320.63	68.95
320.843	42.32
321.057	-0.68
321.27	-121.51
321.483	9.56
321.697	81.24
321.91	-0.68
322.124	77.14
322.337	66.9
322.55	-35.5
322.763	34.13
322.977	62.8
323.19	62.8
323.403	34.13
323.617	-12.97
323.83	9.56
324.043	-6.83
324.256	-37.55
324.469	-41.64
324.683	52.56
324.896	5.46
325.109	52.56
325.322	64.85
325.535	77.14
325.748	-8.87
325.962	34.13
326.175	-12.97
326.388	23.89
326.601	-19.11
326.814	50.52
327.027	46.42
327.24	5.46
327.453	73.04
327.666	81.24
327.879	11.61
328.092	-41.64
328.305	54.61
328.518	7.51
328.731	17.75
328.944	42.32
329.157	15.7
329.37	25.94
329.583	30.04
329.796	-0.68
330.009	46.42
330.222	56.66
330.435	42.32
330.648	91.48
330.861	71
331.073	40.28
331.286	50.52
331.499	7.51
331.712	-4.78
331.925	81.24
332.138	75.09
332.35	54.61
332.563	42.32
332.776	-2.73
332.989	52.56
333.202	15.7
333.414	1.37
333.627	85.33
333.84	-4.78
334.053	89.43
334.265	64.85
334.478	23.89
334.691	-8.87
334.903	103.76
335.116	-2.73
335.329	58.71
335.541	7.51
335.754	19.8
335.966	-12.97
336.179	44.37
336.392	50.52
336.604	83.28
336.817	64.85
337.029	-2.73
337.242	-27.31
337.454	50.52
337.667	15.7
337.88	44.37
338.092	25.94
338.305	32.08
338.517	50.52
338.729	50.52
338.942	27.99
339.154	17.75
339.367	3.41
339.579	114
339.792	-10.92
340.004	1.37
340.217	19.8
340.429	56.66
340.641	50.52
340.854	-0.68
341.066	30.04
341.278	58.71
341.491	93.52
341.703	23.89
341.915	25.94
342.128	-4.78
342.34	-8.87
342.552	-4.78
342.764	75.09
342.977	-33.45
343.189	85.33
343.401	40.28
343.613	-4.78
343.826	42.32
344.038	36.18
344.25	48.47
344.462	27.99
344.674	7.51
344.886	62.8
345.099	-17.07
345.311	36.18
345.523	34.13
345.735	-31.4
345.947	89.43
346.159	58.71
346.371	71
346.583	36.18
346.795	46.42
347.007	-4.78
347.219	56.66
347.431	58.71
347.643	-2.73
347.855	38.23
348.067	1.37
348.279	-2.73
348.491	-10.92
348.703	13.65
348.915	36.18
349.127	27.99
349.339	62.8
349.551	60.76
349.763	-6.83
349.975	89.43
350.187	71
350.399	32.08
350.61	21.85
350.822	40.28
351.034	73.04
351.246	11.61
351.458	89.43
351.669	19.8
351.881	56.66
352.093	17.75
352.305	44.37
352.517	-19.11
352.728	19.8
352.94	32.08
353.152	34.13
353.363	97.62
353.575	17.75
353.787	64.85
353.999	23.89
354.21	-2.73
354.422	-47.79
354.633	48.47
354.845	56.66
355.057	99.67
355.268	85.33
355.48	91.48
355.692	87.38
355.903	-17.07
356.115	42.32
356.326	15.7
356.538	50.52
356.749	56.66
356.961	19.8
357.172	71
357.384	79.19
357.595	60.76
357.807	79.19
358.018	56.66
358.23	36.18
358.441	-12.97
358.653	64.85
358.864	75.09
359.075	-12.97
359.287	30.04
359.498	32.08
359.709	66.9
359.921	23.89
360.132	11.61
360.344	19.8
360.555	-31.4
360.766	15.7
360.977	-31.4
361.189	36.18
361.4	68.95
361.611	54.61
361.823	17.75
362.034	-25.26
362.245	-10.92
362.456	93.52
362.667	75.09
362.879	19.8
363.09	21.85
363.301	89.43
363.512	42.32
363.723	36.18
363.935	-37.55
364.146	81.24
364.357	50.52
364.568	109.91
364.779	48.47
364.99	-4.78
365.201	50.52
365.412	93.52
365.623	7.51
365.834	-0.68
366.045	-17.07
366.256	25.94
366.467	36.18
366.678	42.32
366.889	58.71
367.1	25.94
367.311	34.13
367.522	-37.55
367.733	-8.87
367.944	25.94
368.155	50.52
368.366	7.51
368.577	21.85
368.788	89.43
368.999	9.56
369.209	48.47
369.42	56.66
369.631	130.39
369.842	48.47
370.053	7.51
370.264	-2.73
370.474	23.89
370.685	38.23
370.896	40.28
371.107	83.28
371.317	23.89
371.528	3.41
371.739	60.76
371.95	83.28
372.16	40.28
372.371	60.76
372.582	64.85
372.792	85.33
373.003	103.76
373.214	56.66
373.424	44.37
373.635	-6.83
373.846	68.95
374.056	68.95
374.267	36.18
374.477	73.04
374.688	116.05
374.898	66.9
375.109	27.99
375.319	64.85
375.53	7.51
375.74	-8.87
375.951	68.95
376.161	-39.59
376.372	64.85
376.582	3.41
376.793	68.95
377.003	-12.97
377.214	89.43
377.424	-39.59
377.635	109.91
377.845	9.56
378.055	75.09
378.266	11.61
378.476	32.08
378.686	52.56
378.897	15.7
379.107	58.71
379.317	15.7
379.528	-6.83
379.738	-12.97
379.948	60.76
380.158	89.43
380.369	-8.87
380.579	-15.02
380.789	3.41
380.999	81.24
381.21	66.9
381.42	73.04
381.63	38.23
381.84	40.28
382.05	97.62
382.261	40.28
382.471	66.9
382.681	159.06
382.891	87.38
383.101	85.33
383.311	93.52
383.521	58.71
383.731	91.48
383.941	25.94
384.151	56.66
384.361	44.37
384.571	19.8
384.781	27.99
384.991	75.09
385.201	-0.68
385.411	58.71
385.621	89.43
385.831	34.13
386.041	40.28
386.251	23.89
386.461	163.15
386.671	-17.07
386.881	93.52
387.091	60.76
387.301	17.75
387.511	5.46
387.72	52.56
387.93	-25.26
388.14	-15.02
388.35	42.32
388.56	42.32
388.769	23.89
388.979	71
389.189	97.62
389.399	38.23
389.609	87.38
389.818	40.28
390.028	91.48
390.238	126.29
390.447	50.52
390.657	17.75
390.867	30.04
391.076	81.24
391.286	44.37
391.496	114
391.705	101.72
391.915	73.04
392.125	40.28
392.334	15.7
392.544	25.94
392.753	15.7
392.963	1.37
393.172	132.44
393.382	-25.26
393.591	50.52
393.801	81.24
394.01	62.8
394.22	77.14
394.429	54.61
394.639	54.61
394.848	114
395.058	48.47
395.267	7.51
395.477	118.1
395.686	79.19
395.895	138.58
396.105	68.95
396.314	75.09
396.524	105.81
396.733	95.57
396.942	62.8
397.152	138.58
397.361	111.96
397.57	48.47
397.78	105.81
397.989	120.15
398.198	64.85
398.407	107.86
398.617	64.85
398.826	25.94
399.035	54.61
399.244	66.9
399.453	89.43
399.663	44.37
399.872	111.96
400.081	62.8
400.29	105.81
400.499	85.33
400.708	89.43
400.917	159.06
401.127	89.43
401.336	167.25
401.545	122.2
401.754	93.52
401.963	109.91
402.172	83.28
402.381	118.1
402.59	140.63
402.799	7.51
403.008	71
403.217	91.48
403.426	130.39
403.635	111.96
403.844	95.57
404.053	142.68
404.262	114
404.471	111.96
404.68	163.15
404.888	40.28
405.097	116.05
405.306	130.39
405.515	146.77
405.724	101.72
405.933	157.01
406.142	179.54
406.35	62.8
406.559	195.92
406.768	232.79
406.977	163.15
407.185	171.35
407.394	118.1
407.603	179.54
407.812	181.59
408.02	161.11
408.229	257.36
408.438	195.92
408.646	187.73
408.855	220.5
409.064	306.51
409.272	243.03
409.481	255.31
409.69	277.84
409.898	183.63
410.107	228.69
410.315	277.84
410.524	271.7
410.733	249.17
410.941	294.22
411.15	277.84
411.358	374.1
411.567	331.09
411.775	413.01
411.984	378.19
412.192	279.89
412.401	378.19
412.609	394.58
412.818	400.72
413.026	421.2
413.234	462.16
413.443	433.49
413.651	396.62
413.86	445.77
414.068	507.21
414.276	550.22
414.485	439.63
414.693	550.22
414.901	634.19
415.11	523.6
415.318	556.36
415.526	548.17
415.734	687.43
415.943	619.85
416.151	761.16
416.359	705.87
416.567	748.87
416.776	836.94
416.984	804.17
417.192	761.16
417.4	853.32
417.608	830.79
417.817	861.51
418.025	947.53
418.233	1041.73
418.441	1049.93
418.649	1101.12
418.857	1037.64
419.065	1080.64
419.273	1051.97
419.481	1191.24
419.689	1219.91
419.897	1355.07
420.105	1271.11
420.313	1258.82
420.521	1312.07
420.729	1432.9
420.937	1494.33
421.145	1506.62
421.353	1541.44
421.561	1649.98
421.769	1695.04
421.977	1828.15
422.185	1715.52
422.393	1901.88
422.601	1883.45
422.809	1965.37
423.017	1932.6
423.224	2098.49
423.432	2106.68
423.64	2258.23
423.848	2360.63
424.056	2303.28
424.263	2444.59
424.471	2538.8
424.679	2436.4
424.887	2483.5
425.094	2596.14
425.302	2792.75
425.51	2790.7
425.718	2952.49
425.925	2952.49
426.133	3007.78
426.341	3165.48
426.548	3355.94
426.756	3407.14
426.964	3351.84
427.171	3718.43
427.379	3611.93
427.586	3624.22
427.794	3855.64
428.001	4082.97
428.209	4113.69
428.417	4173.08
428.624	4234.52
428.832	4467.99
429.039	4357.39
429.247	4373.78
429.454	4973.83
429.662	5221.64
429.869	4816.14
430.076	5250.31
430.284	4977.93
430.491	5180.68
430.699	5635.33
430.906	5485.83
431.114	5657.85
431.321	5842.17
431.528	6040.83
431.736	6257.91
431.943	6483.19
432.15	6548.72
432.358	6655.22
432.565	6749.42
432.772	6835.44
432.979	7144.68
433.187	7386.34
433.394	7267.56
433.601	7795.93
433.808	7820.51
434.016	7734.5
434.223	7924.96
434.43	8594.64
434.637	8346.84
434.844	9020.62
435.052	8996.04
435.259	8963.28
435.466	9143.5
435.673	9039.05
435.88	9635.01
436.087	10282.17
436.294	10273.98
436.501	9954.49
436.708	10177.72
436.915	10413.24
437.122	10990.77
437.329	10828.98
437.537	11281.58
437.743	11330.73
437.95	11437.22
438.157	12100.76
438.364	12299.42
438.571	12213.4
438.778	12410.01
438.985	13565.06
439.192	12809.36
439.399	13454.47
439.606	13073.55
439.813	13802.63
440.02	14580.85
440.227	14519.42
440.433	14140.54
440.64	14789.75
440.847	14664.82
441.054	14836.85
441.261	15905.89
441.467	15875.17
441.674	16266.33
441.881	16956.5
442.088	16706.65
442.294	16319.58
442.501	16927.83
442.708	17251.41
442.914	17878.08
443.121	18568.25
443.328	18156.61
443.534	19420.21
443.741	18760.76
443.948	18504.76
444.154	19997.73
444.361	19790.89
444.568	20198.43
444.774	20001.83
444.981	20177.95
445.187	20831.26
445.394	21685.26
445.6	21421.07
445.807	23585.77
446.013	22490.11
446.22	22471.68
446.426	23626.73
446.633	23780.33
446.839	24757.21
447.046	23706.6
447.252	25179.09
447.459	24923.1
447.665	24755.16
447.871	26074.06
448.078	27157.43
448.284	25852.87
448.491	26567.62
448.697	27599.79
448.903	28046.25
449.11	28320.68
449.316	27790.25
449.522	28040.11
449.728	28728.22
449.935	28918.68
450.141	29203.35
450.347	29645.71
450.553	28875.68
450.76	29031.32
450.966	29836.17
451.172	29844.37
451.378	30546.82
451.584	29813.65
451.791	30634.88
451.997	30276.49
452.203	31189.88
452.409	30937.98
452.615	30854.01
452.821	29819.79
453.027	29457.3
453.233	30813.06
453.44	30055.31
453.646	29825.93
453.852	29997.96
454.058	30499.72
454.264	29330.33
454.47	30286.73
454.676	29473.68
454.882	30477.19
455.088	27941.8
455.294	27990.95
455.5	28615.58
455.705	29035.42
455.911	27505.59
456.117	27263.93
456.323	27302.84
456.529	25248.72
456.735	26481.6
456.941	25521.1
457.147	25643.98
457.352	24419.3
457.558	24409.06
457.764	24378.34
457.97	23626.73
458.176	23505.9
458.381	23360.5
458.587	22270.98
458.793	22250.5
458.999	21101.59
459.204	22529.02
459.41	21808.14
459.616	20608.03
459.821	20702.23
460.027	20399.13
460.233	20091.94
460.438	19264.56
460.644	19362.86
460.85	18371.65
461.055	18322.49
461.261	17912.9
461.466	16788.57
461.672	16352.35
461.878	17142.86
462.083	16102.5
462.289	15717.48
462.494	16063.58
462.7	15107.18
462.905	14697.59
463.111	15193.2
463.316	15318.12
463.522	14990.45
463.727	15072.37
463.932	14912.63
464.138	14720.12
464.343	14705.78
464.549	14410.87
464.754	15072.37
464.959	14734.45
465.165	14531.7
465.37	14038.14
465.575	13669.51
465.781	14144.64
465.986	14210.17
466.191	13962.37
466.397	13552.77
466.602	12983.44
466.807	13388.94
467.012	13319.31
467.218	13345.93
467.423	12999.82
467.628	13188.24
467.833	13646.98
468.038	13386.89
468.244	12958.86
468.449	13264.01
468.654	12928.14
468.859	12815.51
469.064	12872.85
469.269	12424.34
469.474	12471.45
469.679	12666
469.885	12264.6
470.09	12369.05
470.295	12500.12
470.5	11998.37
470.705	12205.21
470.91	12119.2
471.115	11678.88
471.32	11883.68
471.525	11992.22
471.73	11496.61
471.935	11672.74
472.139	11148.46
472.344	11332.78
472.549	11064.49
472.754	11101.36
472.959	10759.35
473.164	10699.95
473.369	10548.4
473.574	10845.36
473.778	10687.67
473.983	10441.91
474.188	10503.35
474.393	10030.27
474.598	10087.61
474.802	9954.49
475.007	10083.52
475.212	10022.08
475.417	9696.45
475.621	9704.64
475.826	9825.47
476.031	9434.31
476.235	9475.27
476.44	9245.9
476.645	9163.98
476.849	9381.06
477.054	9202.89
477.259	9020.62
477.463	9116.87
477.668	8881.36
477.872	8813.77
478.077	8660.18
478.282	8486.1
478.486	8367.32
478.691	8350.93
478.895	8414.42
479.1	8504.53
479.304	8445.14
479.509	8162.52
479.713	8213.72
479.918	8037.59
480.122	8017.11
480.326	8342.74
480.531	8125.66
480.735	7859.42
480.94	7851.23
481.144	8217.82
481.348	7896.28
481.553	7783.65
481.757	7632.1
481.961	8058.07
482.166	7996.64
482.37	7867.61
482.574	7681.25
482.778	7781.6
482.983	8027.35
483.187	7802.08
483.391	7613.67
483.595	7810.27
483.8	7642.34
484.004	7699.68
484.208	7931.1
484.412	7650.53
484.616	7730.4
484.821	7849.18
485.025	7652.58
485.229	7879.9
485.433	7562.47
485.637	7746.78
485.841	7748.83
486.045	7548.13
486.249	7769.31
486.453	7711.97
486.657	7834.85
486.861	7863.52
487.065	7509.22
487.269	7838.94
487.473	7556.32
487.677	7800.03
487.881	7959.77
488.085	7582.95
488.289	7711.97
488.493	7742.69
488.697	7834.85
488.901	7859.42
489.105	7859.42
489.309	7871.71
489.512	7947.48
489.716	7742.69
489.92	7650.53
490.124	7621.86
490.328	8183
490.531	8070.36
490.735	8029.4
490.939	8115.42
491.143	8127.71
491.346	8060.12
491.55	8142.04
491.754	8197.34
491.958	8137.95
492.161	8070.36
492.365	8230.1
492.569	8121.56
492.772	8264.92
492.976	8365.27
493.18	8498.39
493.383	8445.14
493.587	8350.93
493.79	8510.68
493.994	8514.77
494.197	8482
494.401	8680.66
494.605	8735.95
494.808	8875.21
495.012	8928.46
495.215	8920.27
495.419	8897.74
495.622	8811.73
495.825	8987.85
496.029	8959.18
496.232	9475.27
496.436	9315.53
496.639	9526.47
496.843	9125.07
497.046	9534.66
497.249	9477.32
497.453	9772.22
497.656	9753.79
497.859	9864.38
498.063	9917.63
498.266	10181.82
498.469	10067.13
498.673	10251.45
498.876	10519.73
499.079	10591.41
499.282	10665.14
499.485	10843.31
499.689	10820.78
499.892	10927.28
500.095	11007.15
500.298	11345.06
500.501	11410.6
500.705	11656.36
500.908	11863.2
501.111	11936.93
501.314	11881.63
501.517	12035.23
501.72	12102.81
501.923	11936.93
502.126	12487.83
502.329	12715.16
502.532	12627.09
502.735	12876.94
502.938	13044.88
503.141	13042.83
503.344	13331.59
503.547	13188.24
503.75	13606.02
503.953	13806.72
504.156	13767.81
504.359	13870.21
504.562	13915.26
504.765	14482.55
504.968	14632.05
505.17	14593.14
505.373	14724.21
505.576	15021.17
505.779	15135.85
505.982	15088.75
506.185	15580.26
506.387	15412.33
506.59	15873.12
506.793	16047.2
506.996	15930.47
507.198	16346.2
507.401	16434.27
507.604	16544.86
507.807	16909.4
508.009	17095.76
508.212	17525.83
508.415	17515.59
508.617	17642.57
508.82	17665.1
509.022	17534.03
509.225	18285.63
509.428	18390.08
509.63	18709.56
509.833	18670.65
510.035	18992.18
510.238	19098.67
510.44	19289.14
510.643	19754.02
510.845	19733.54
511.048	19815.46
511.25	19874.85
511.453	20180
511.655	21011.48
511.858	20808.73
512.06	20947.99
512.262	21369.87
512.465	21142.55
512.667	21625.87
512.87	21949.45
513.072	22072.32
513.274	22230.02
513.477	22918.14
513.679	23133.17
513.881	23075.83
514.084	23206.9
514.286	23200.76
514.488	23446.51
514.69	24290.27
514.893	24204.26
515.095	24384.48
515.297	24601.57
515.499	24884.19
515.701	25242.58
515.904	25383.89
516.106	25553.87
516.308	26035.14
516.51	26137.54
516.712	26397.63
516.914	26416.07
517.116	26903.48
517.318	27550.64
517.52	27419.57
517.722	27454.39
517.925	27804.59
518.127	28261.29
518.329	28398.5
518.531	28416.93
518.733	28892.06
518.935	29326.23
519.136	29008.79
519.338	29914
519.54	29680.53
519.742	30258.06
519.944	30071.69
520.146	30989.18
520.348	30958.46
520.55	31366.01
520.752	31308.66
520.954	31787.89
521.155	31679.35
521.357	32334.7
521.559	32162.67
521.761	32613.22
521.963	32764.77
522.164	33049.44
522.366	33389.4
522.568	33876.82
522.77	33983.31
522.971	34229.07
523.173	34382.66
523.375	34550.6
523.576	34560.84
523.778	34460.49
523.98	35494.71
524.181	35400.51
524.383	35314.49
524.584	35763
524.786	35744.56
524.988	35695.41
525.189	36344.62
525.391	36416.3
525.592	36827.94
525.794	36899.62
525.995	37045.02
526.197	37073.7
526.398	37137.18
526.6	37520.15
526.801	37790.48
527.003	37950.23
527.204	37663.51
527.406	38177.55
527.607	38126.35
527.808	38439.69
528.01	37880.6
528.211	38462.22
528.412	38873.86
528.614	38830.85
528.815	38624.01
529.016	38982.4
529.218	38820.61
529.419	39160.58
529.62	39367.42
529.822	39215.87
530.023	39404.28
530.224	39570.17
530.425	39211.78
530.626	39269.12
530.828	39271.17
531.029	40291.05
531.23	39627.51
531.431	39428.86
531.632	40159.98
531.833	39809.78
532.035	39928.56
532.236	40180.46
532.437	40213.23
532.638	39877.36
532.839	39985.91
533.04	40063.73
533.241	39932.66
533.442	40434.41
533.643	40334.06
533.844	40547.05
534.045	40123.12
534.246	40231.66
534.447	40504.04
534.648	40307.44
534.849	40497.9
535.05	40200.94
535.251	40688.36
535.451	40626.92
535.652	40432.36
535.853	40739.56
536.054	40508.14
536.255	40669.93
536.456	39793.4
536.657	41054.95
536.857	40350.45
537.058	40422.12
537.259	40407.79
537.46	40760.04
537.66	40375.02
537.861	40274.67
538.062	40446.7
538.263	40616.68
538.463	40483.56
538.664	40205.04
538.865	40440.56
539.065	40772.33
539.266	39985.91
539.466	40950.5
539.667	40076.02
539.868	40911.59
540.068	40688.36
540.269	40653.54
540.469	40686.31
540.67	40108.79
540.87	40551.15
541.071	40219.38
541.271	40375.02
541.472	40473.32
541.672	40096.5
541.873	40493.8
542.073	39940.85
542.274	40907.49
542.474	40106.74
542.675	40198.9
542.875	40205.04
543.075	40270.57
543.276	39928.56
543.476	40823.53
543.676	40469.23
543.877	40538.86
544.077	40809.19
544.277	40157.94
544.478	40463.08
544.678	40487.66
544.878	40289.01
545.078	40358.64
545.279	40207.09
545.479	39848.69
545.679	40393.45
545.879	40346.35
546.079	40100.59
546.28	40440.56
546.48	39901.94
546.68	40422.12
546.88	40358.64
547.08	40438.51
547.28	40209.14
547.48	39779.06
547.68	40284.91
547.88	40180.46
548.081	40278.77
548.281	40483.56
548.481	40016.63
548.681	40207.09
548.881	40207.09
549.081	40149.74
549.28	40155.89
549.48	40307.44
549.68	40307.44
549.88	40880.87
550.08	39838.45
550.28	40123.12
550.48	40178.42
550.68	40395.5
550.88	40055.54
551.08	40141.55
551.279	40141.55
551.479	40280.81
551.679	40080.11
551.879	39875.32
552.079	40415.98
552.278	39688.95
552.478	40063.73
552.678	39774.97
552.878	39897.84
553.077	39813.88
553.277	39631.61
553.477	39897.84
553.676	39627.51
553.876	39805.69
554.076	39451.39
554.275	39488.25
554.475	39144.19
554.674	39883.51
554.874	39766.77
555.074	39619.32
555.273	39629.56
555.473	39850.74
555.672	39320.32
555.872	39283.45
556.071	39441.15
556.271	39873.27
556.47	39359.23
556.67	38890.24
556.869	39502.59
557.068	39488.25
557.268	39033.6
557.467	39078.66
557.667	39076.61
557.866	39027.46
558.065	38853.38
558.265	38746.89
558.464	38484.75
558.663	39119.62
558.863	38578.95
559.062	39103.23
559.261	38542.09
559.461	38990.59
559.66	38499.08
559.859	38617.86
560.058	38230.8
560.258	38363.92
560.457	38112.02
560.656	38793.99
560.855	38306.57
561.054	38425.36
561.253	37878.55
561.453	38327.05
561.652	38484.75
561.851	38767.37
562.05	37509.91
562.249	38015.76
562.448	38251.28
562.647	37909.27
562.846	37640.98
563.045	37813.01
563.244	37640.98
563.443	37956.37
563.642	37464.86
563.841	37602.07
564.04	37063.46
564.239	37985.04
564.438	37167.9
564.637	37557.02
564.836	37280.54
565.035	37114.65
565.234	37477.15
565.432	36930.34
565.631	36969.25
565.83	37266.2
566.029	37049.12
566.228	36549.42
566.427	36639.53
566.625	36645.67
566.824	35922.74
567.023	37182.24
567.222	36094.77
567.42	36535.08
567.619	36125.49
567.818	36295.47
568.016	35975.98
568.215	36262.7
568.414	36291.37
568.612	36252.46
568.811	36080.43
569.01	35623.73
569.208	35341.11
569.407	35777.33
569.605	35461.94
569.804	35674.93
570.002	35418.94
570.201	35638.07
570.4	34986.82
570.598	34941.76
570.797	34698.05
570.995	34972.48
571.193	34732.87
571.392	35011.39
571.59	34243.4
571.789	34669.38
571.987	34384.71
572.186	34456.39
572.384	34306.89
572.582	34560.84
572.781	34247.5
572.979	33901.39
573.177	34175.82
573.376	34093.9
573.574	33846.1
573.772	33880.91
573.971	33581.91
574.169	33338.2
574.367	33483.61
574.565	33526.61
574.763	33540.95
574.962	32942.94
575.16	33035.1
575.358	32969.57
575.556	32787.3
575.754	33065.82
575.952	32828.26
576.151	32785.25
576.349	32527.21
576.547	32856.93
576.745	32328.55
576.943	32648.04
577.141	32140.14
577.339	32621.41
577.537	31701.87
577.735	31814.51
577.933	31419.25
578.131	31974.25
578.329	31529.84
578.527	31468.41
578.725	31765.36
578.923	31521.65
579.121	31150.97
579.319	31265.66
579.516	31124.35
579.714	31181.69
579.912	31241.08
580.11	31064.96
580.308	31011.71
580.506	31058.81
580.704	30727.04
580.901	30946.17
581.099	30651.27
581.297	30575.49
581.495	30339.97
581.692	30493.57
581.89	30190.47
582.088	30358.41
582.285	30280.58
582.483	30172.04
582.681	30067.59
582.878	29899.66
583.076	29784.97
583.274	30163.85
583.471	29633.43
583.669	29741.97
583.866	29361.05
584.064	29766.54
584.262	28971.93
584.459	29621.14
584.657	29152.15
584.854	29537.17
585.052	28713.89
585.249	28615.58
585.447	29016.99
585.644	28179.37
585.841	28517.28
586.039	28791.71
586.236	28349.35
586.434	28378.02
586.631	28599.2
586.828	28072.87
587.026	28181.42
587.223	28353.44
587.42	27823.02
587.618	27974.57
587.815	27612.08
588.012	27769.77
588.21	27671.47
588.407	27898.8
588.604	27827.12
588.801	27536.31
588.999	27411.38
589.196	27450.29
589.393	27399.09
589.59	27016.12
589.787	26985.4
589.984	26827.71
590.182	26944.44
590.379	27155.38
590.576	26506.18
590.773	26450.88
590.97	26567.62
591.167	26577.86
591.364	26217.41
591.561	26577.86
591.758	26420.16
591.955	26346.44
592.152	26620.86
592.349	25830.35
592.546	26422.21
592.743	26053.58
592.94	25705.42
593.137	25998.28
593.334	25830.35
593.531	25775.05
593.727	25641.93
593.924	25463.76
594.121	25414.61
594.318	25568.21
594.515	25355.22
594.712	25469.9
594.908	24734.68
595.105	25181.14
595.302	25404.37
595.499	24945.62
595.696	24849.37
595.892	24544.22
596.089	24632.29
596.286	24982.49
596.482	24660.96
596.679	24425.44
596.876	24495.07
597.072	24372.19
597.269	24314.85
597.466	24153.06
597.662	24108.01
597.859	24165.35
598.055	24081.38
598.252	23745.51
598.448	23946.22
598.645	23790.57
598.841	23534.57
599.038	23972.84
599.234	23616.49
599.431	23593.97
599.627	23354.35
599.824	23618.54
600.02	23323.63
600.217	23559.15
600.413	23550.96
600.609	23194.61
600.806	23079.93
601.002	22877.18
601.198	22932.47
601.395	22623.23
601.591	22768.63
601.787	22596.6
601.984	22234.11
602.18	22756.35
602.376	22303.74
602.572	22451.2
602.769	22457.34
602.965	22195.2
603.161	22436.86
603.357	22264.83
603.553	22070.28
603.75	21859.34
603.946	21711.88
604.142	22062.08
604.338	21576.72
604.534	21638.16
604.73	21750.79
604.926	21566.48
605.122	21382.16
605.318	21392.4
605.514	21302.29
605.71	21226.51
605.906	21271.57
606.102	21195.79
606.298	20874.26
606.494	20845.59
606.69	21042.2
606.886	21126.16
607.082	20696.09
607.278	20904.98
607.474	20411.42
607.67	20634.65
607.866	20470.81
608.062	20732.95
608.257	20546.59
608.453	20565.02
608.649	20102.18
608.845	20497.44
609.041	20323.36
609.236	20417.57
609.432	20071.46
609.628	20317.22
609.824	20237.34
610.019	20151.33
610.215	19819.56
610.411	20071.46
610.606	19663.91
610.802	19934.25
610.998	19854.37
611.193	19584.04
611.389	19831.85
611.584	19604.52
611.78	19592.23
611.976	19653.67
612.171	19264.56
612.367	19475.5
612.562	18949.17
612.758	19282.99
612.953	18922.55
613.149	19551.28
613.344	18986.04
613.539	19405.87
613.735	19055.67
613.93	19098.67
614.126	19067.95
614.321	19072.05
614.517	18762.81
614.712	18652.22
614.907	18762.81
615.103	18947.12
615.298	18474.04
615.493	18889.78
615.688	18418.75
615.884	19080.24
616.079	18535.48
616.274	18646.07
616.47	18279.49
616.665	18660.41
616.86	18328.64
617.055	18578.49
617.25	18332.73
617.445	18521.15
617.641	17933.38
617.836	18037.83
618.031	18025.54
618.226	18181.18
618.421	17736.77
618.616	17810.5
618.811	17624.14
619.006	17824.84
619.201	17411.15
619.396	17679.43
619.591	17456.2
619.786	17687.62
619.981	17341.52
620.176	17521.74
620.371	17028.18
620.566	17243.21
620.761	17216.59
620.956	17140.82
621.151	16731.22
621.346	17040.47
621.541	16622.68
621.735	16807
621.93	16448.6
622.125	16622.68
622.32	16520.28
622.515	16571.48
622.709	16120.93
622.904	16151.65
623.099	16301.15
623.294	16254.05
623.488	15748.2
623.683	16122.98
623.878	15549.54
624.072	15522.92
624.267	15731.81
624.462	15531.11
624.656	15309.93
624.851	15436.91
625.046	15361.13
625.24	15168.62
625.435	15055.98
625.629	14994.54
625.824	14888.05
626.018	14787.7
626.213	14808.18
626.407	14681.21
626.602	14290.04
626.796	14720.12
626.991	14576.76
627.185	14402.68
627.38	14285.95
627.574	14167.17
627.768	14154.88
627.963	14003.33
628.157	13970.56
628.352	14017.66
628.546	13855.87
628.74	14021.76
628.935	13749.38
629.129	13696.13
629.323	13501.58
629.517	13702.28
629.712	13554.82
629.906	13272.2
630.1	13042.83
630.294	13202.57
630.489	13231.24
630.683	13327.5
630.877	12805.27
631.071	12774.55
631.265	12811.41
631.459	12631.19
631.653	12747.92
631.848	12600.47
632.042	12666
632.236	12756.11
632.43	12592.28
632.624	12610.71
632.818	12512.41
633.012	11965.6
633.206	12295.32
633.4	12453.02
633.594	11992.22
633.788	12164.25
633.982	12029.09
634.176	11906.21
634.369	11838.62
634.563	11734.18
634.757	11891.87
634.951	11709.6
635.145	11619.49
635.339	11805.86
635.533	11601.06
635.726	11504.81
635.92	11435.17
636.114	11414.7
636.308	11277.48
636.501	11064.49
636.695	11222.19
636.889	11187.37
637.083	10953.9
637.276	10968.24
637.47	11011.25
637.664	10962.09
637.857	10914.99
638.051	10964.14
638.244	10755.25
638.438	10699.95
638.632	10669.23
638.825	10339.51
639.019	10515.64
639.212	10400.95
639.406	10482.87
639.599	10366.14
639.793	10341.56
639.986	10083.52
640.18	10288.31
640.373	10032.32
640.567	10003.64
640.76	9895.1
640.954	9987.26
641.147	9864.38
641.34	9882.81
641.534	9727.17
641.727	9682.11
641.92	9725.12
642.114	9526.47
642.307	9639.11
642.5	9606.34
642.694	9327.81
642.887	9268.42
643.08	9401.54
643.273	9336.01
643.467	9176.27
643.66	9229.51
643.853	9182.41
644.046	8969.42
644.239	8983.76
644.432	8922.32
644.626	8907.98
644.819	8899.79
645.012	8912.08
645.205	8639.7
645.398	8776.91
645.591	8709.33
645.784	8717.52
645.977	8586.45
646.17	8467.67
646.363	8289.49
646.556	8301.78
646.749	8383.7
646.942	8410.32
647.135	8240.34
647.328	8203.48
647.521	8111.32
647.714	8060.12
647.907	8197.34
648.099	7855.33
648.292	7814.37
648.485	8131.8
648.678	7931.1
648.871	7863.52
649.064	7783.65
649.256	7886.05
649.449	7666.91
649.642	7898.33
649.835	7630.05
650.027	7519.46
650.22	7492.83
650.413	7435.49
650.605	7451.88
650.798	7460.07
650.991	7324.9
651.183	7341.29
651.376	7392.48
651.568	7111.91
651.761	7179.5
651.954	7212.26
652.146	7261.41
652.339	6919.4
652.531	7159.02
652.724	6989.03
652.916	6976.75
653.109	6939.88
653.301	6894.83
653.494	6821.1
653.686	6405.36
653.879	6847.72
654.071	6606.06
654.263	6774
654.456	6614.26
654.648	6536.43
654.84	6499.57
655.033	6382.84
655.225	6421.75
655.417	6462.71
655.61	6483.19
655.802	6296.82
655.994	6348.02
656.186	6444.27
656.379	6270.2
656.571	6290.68
656.763	6143.22
656.955	6233.33
657.148	6221.05
657.34	6216.95
657.532	6102.26
657.724	6028.54
657.916	5924.09
658.108	6028.54
658.3	5946.62
658.492	5960.95
658.684	5799.16
658.876	5737.73
659.068	5713.15
659.26	5934.33
659.452	5745.92
659.644	5731.58
659.836	5623.04
660.028	5549.31
660.22	5569.79
660.412	5637.38
660.604	5393.67
660.796	5498.11
660.988	5514.5
661.18	5401.86
661.372	5317.89
661.563	5397.76
661.755	5319.94
661.947	5346.56
662.139	5266.69
662.331	5139.72
662.522	5203.21
662.714	5209.35
662.906	5248.26
663.097	5147.91
663.289	5027.08
663.481	5082.38
663.673	4988.17
663.864	4943.11
664.056	4865.29
664.247	5047.56
664.439	4934.92
664.631	4746.51
664.822	4844.81
665.014	4926.73
665.205	4742.41
665.397	4701.45
665.588	4742.41
665.78	4812.04
665.971	4726.03
666.163	4728.08
666.354	4562.19
666.546	4662.54
666.737	4570.38
666.929	4613.39
667.12	4615.44
667.311	4506.9
667.503	4492.56
667.694	4605.2
667.885	4582.67
668.077	4445.46
668.268	4316.44
668.459	4281.62
668.651	4427.03
668.842	4379.92
669.033	4328.72
669.224	4252.95
669.416	4259.09
669.607	4275.48
669.798	4138.26
669.989	4201.75
670.18	4166.93
670.371	4119.83
670.563	4144.41
670.754	4287.76
670.945	4205.85
671.136	4128.02
671.327	4031.77
671.518	4062.49
671.709	4070.68
671.9	4025.62
672.091	4132.12
672.282	4097.3
672.473	3874.07
672.664	3861.79
672.855	3915.03
673.046	3900.7
673.237	4025.62
673.428	3919.13
673.619	3912.99
673.809	3869.98
674	3857.69
674.191	3714.33
674.382	3767.58
674.573	3814.68
674.764	3767.58
674.954	3743
675.145	3712.28
675.336	3712.28
675.527	3687.71
675.717	3642.65
675.908	3704.09
676.099	3656.99
676.289	3710.24
676.48	3624.22
676.671	3654.94
676.861	3581.21
677.052	3484.96
677.243	3562.78
677.433	3595.55
677.624	3585.31
677.814	3564.83
678.005	3575.07
678.195	3570.97
678.386	3458.34
678.576	3462.43
678.767	3464.48
678.957	3417.38
679.148	3564.83
679.338	3489.06
679.529	3321.12
679.719	3413.28
679.909	3464.48
680.1	3419.43
680.29	3390.75
680.481	3251.49
680.671	3392.8
680.861	3357.99
681.052	3355.94
681.242	3319.07
681.432	3337.51
681.622	3294.5
681.813	3333.41
682.003	3163.43
682.193	3239.2
682.383	3325.22
682.573	3261.73
682.764	3122.47
682.954	3253.54
683.144	3202.34
683.334	3255.59
683.524	3224.87
683.714	3159.33
683.904	3286.31
684.094	3292.45
684.284	3312.93
684.474	3142.95
684.664	3222.82
684.854	3171.62
685.044	3202.34
685.234	3206.44
685.424	3161.38
685.614	3089.7
685.804	3183.91
685.994	3073.32
686.184	3036.45
686.374	3091.75
686.564	3038.5
686.753	3167.52
686.943	3054.89
687.133	3198.24
687.323	2968.87
687.513	3120.42
687.702	2977.06
687.892	3056.93
688.082	2952.49
688.272	3015.98
688.461	3009.83
688.651	2946.34
688.841	2940.2
689.03	2944.3
689.22	3009.83
689.41	2899.24
689.599	3087.65
689.789	3054.89
689.979	2858.28
690.168	2893.1
690.358	3022.12
690.547	3024.17
690.737	2981.16
690.926	2899.24
691.116	2843.95
691.305	2815.27
691.495	2850.09
691.684	2764.08
691.874	2823.47
692.063	2798.89
692.252	2737.45
692.442	2794.79
692.631	2893.1
692.82	2774.31
693.01	2874.67
693.199	2866.47
693.388	2768.17
693.578	2893.1
693.767	2835.75
693.956	2876.71
694.146	2905.38
694.335	2612.53
694.524	2837.8
694.713	2891.05
694.902	2809.13
695.092	2757.93
695.281	2757.93
695.47	2710.83
695.659	2657.58
695.848	2727.21
696.037	2723.12
696.226	2692.4
696.415	2751.79
696.604	2807.08
696.793	2811.18
696.982	2682.16
697.171	2813.23
697.36	2723.12
697.549	2651.44
697.738	2635.05
697.927	2673.96
698.116	2764.08
698.305	2772.27
698.494	2743.6
698.683	2796.84
698.872	2690.35
699.061	2792.75
699.25	2696.49
699.438	2682.16
699.627	2700.59
699.816	2745.64
700.005	2735.4
700.193	2739.5
700.382	2671.92
700.571	2528.56
700.76	2628.91
700.948	2661.68
701.137	2614.57
701.326	2653.48
701.514	2596.14
701.703	2649.39
701.892	2526.51
702.08	2741.55
702.269	2604.33
702.457	2651.44
702.646	2454.83
702.834	2661.68
703.023	2587.95
703.212	2735.4
703.4	2551.09
703.589	2508.08
703.777	2577.71
703.965	2583.85
704.154	2587.95
704.342	2530.61
704.531	2520.37
704.719	2432.3
704.907	2559.28
705.096	2516.27
705.284	2432.3
705.472	2557.23
705.661	2557.23
705.849	2549.04
706.037	2563.37
706.226	2506.03
706.414	2379.06
706.602	2501.94
706.79	2403.63
706.979	2420.02
707.167	2497.84
707.355	2485.55
707.543	2510.13
707.731	2374.96
707.919	2424.11
708.107	2368.82
708.296	2452.78
708.484	2491.7
708.672	2428.21
708.86	2428.21
709.048	2346.29
709.236	2407.73
709.424	2497.84
709.612	2280.75
709.8	2362.67
709.988	2348.34
710.176	2358.58
710.364	2262.32
710.551	2342.19
710.739	2229.56
710.927	2401.58
711.115	2215.22
711.303	2295.09
711.491	2260.27
711.679	2262.32
711.866	2131.25
712.054	2204.98
712.242	2125.11
712.43	2243.89
712.617	2166.07
712.805	2297.14
712.993	2194.74
713.181	2114.87
713.368	2166.07
713.556	2211.12
713.744	2227.51
713.931	2182.45
714.119	2172.21
714.306	2157.88
714.494	2204.98
714.682	2207.03
714.869	2182.45
715.057	2196.79
715.244	2057.53
715.432	2172.21
715.619	2090.29
715.807	2059.57
715.994	2008.37
716.182	1965.37
716.369	2102.58
716.556	1965.37
716.744	2063.67
716.931	1989.94
717.119	2063.67
717.306	2008.37
717.493	1953.08
717.681	1987.89
717.868	1942.84
718.055	2002.23
718.242	1826.11
718.43	2002.23
718.617	1977.66
718.804	1967.42
718.991	1994.04
719.179	1908.02
719.366	1979.7
719.553	1875.26
719.74	1869.11
719.927	1975.61
720.114	1924.41
720.301	1844.54
720.488	1899.83
720.676	1899.83
720.863	1967.42
721.05	1836.35
721.237	1856.83
721.424	1713.47
721.611	1834.3
721.798	1836.35
721.985	1762.62
722.172	1893.69
722.358	1764.67
722.545	1852.73
722.732	1785.15
722.919	1832.25
723.106	1682.75
723.293	1799.48
723.48	1809.72
723.667	1697.08
723.853	1762.62
724.04	1799.48
724.227	1799.48
724.414	1729.85
724.6	1709.37
724.787	1752.38
724.974	1713.47
725.161	1711.42
725.347	1588.54
725.534	1666.36
725.72	1652.03
725.907	1744.19
726.094	1705.28
726.28	1688.89
726.467	1711.42
726.653	1592.64
726.84	1631.55
727.027	1647.93
727.213	1662.27
727.4	1543.49
727.586	1621.31
727.773	1547.58
727.959	1525.05
728.145	1537.34
728.332	1613.12
728.518	1486.14
728.705	1678.65
728.891	1535.29
729.077	1664.32
729.264	1539.39
729.45	1576.25
729.636	1641.79
729.823	1561.92
730.009	1576.25
730.195	1568.06
730.382	1555.77
730.568	1473.85
730.754	1463.62
730.94	1543.49
731.126	1541.44
731.313	1475.9
731.499	1563.97
731.685	1496.38
731.871	1518.91
732.057	1469.76
732.243	1494.33
732.429	1455.42
732.615	1414.46
732.801	1500.48
732.987	1480
733.173	1455.42
733.359	1334.59
733.545	1572.16
733.731	1449.28
733.917	1457.47
734.103	1391.94
734.289	1508.67
734.475	1424.7
734.661	1418.56
734.847	1482.05
735.033	1434.94
735.219	1387.84
735.404	1373.5
735.59	1408.32
735.776	1412.42
735.962	1373.5
736.148	1228.1
736.333	1379.65
736.519	1355.07
736.705	1355.07
736.89	1279.3
737.076	1342.78
737.262	1297.73
737.447	1305.92
737.633	1391.94
737.819	1441.09
738.004	1361.22
738.19	1383.74
738.375	1318.21
738.561	1367.36
738.747	1236.29
738.932	1273.15
739.118	1355.07
739.303	1316.16
739.489	1232.19
739.674	1293.63
739.859	1285.44
740.045	1277.25
740.23	1295.68
740.416	1297.73
740.601	1246.53
740.786	1215.81
740.972	1226.05
741.157	1281.35
741.342	1219.91
741.528	1277.25
741.713	1275.2
741.898	1144.13
742.084	1164.61
742.269	1244.48
742.454	1240.39
742.639	1148.23
742.824	1240.39
743.01	1195.33
743.195	1129.8
743.38	1076.55
743.565	1195.33
743.75	1131.84
743.935	1164.61
744.12	1074.5
744.305	1125.7
744.49	1195.33
744.675	1129.8
744.86	1156.42
745.045	1228.1
745.23	1035.59
745.415	1064.26
745.6	1092.93
745.785	1162.56
745.97	1203.52
746.155	1129.8
746.34	1039.69
746.525	904.52
746.71	1125.7
746.895	1107.27
747.079	1027.4
747.264	1021.25
747.449	1011.01
747.634	1072.45
747.819	1068.36
748.003	980.29
748.188	1080.64
748.373	1000.77
748.557	1033.54
748.742	1021.25
748.927	1074.5
749.111	970.05
749.296	1004.87
749.481	1082.69
749.665	953.67
749.85	976.2
750.034	961.86
750.219	949.57
750.404	976.2
750.588	920.9
750.773	945.48
750.957	873.8
751.141	970.05
751.326	933.19
751.51	900.42
751.695	916.81
751.879	877.9
752.064	904.52
752.248	908.62
752.432	832.84
752.617	865.61
752.801	916.81
752.985	865.61
753.17	902.47
753.354	834.89
753.538	804.17
753.722	720.2
753.907	843.08
754.091	679.24
754.275	785.74
754.459	867.66
754.643	828.74
754.828	777.55
755.012	806.22
755.196	767.31
755.38	838.98
755.564	697.67
755.748	697.67
755.932	732.49
756.116	746.83
756.3	826.7
756.484	716.11
756.668	714.06
756.852	671.05
757.036	746.83
757.22	697.67
757.404	712.01
757.588	666.96
757.772	691.53
757.956	705.87
758.14	660.81
758.323	689.48
758.507	752.97
758.691	675.15
758.875	662.86
759.059	675.15
759.242	726.35
759.426	664.91
759.61	726.35
759.794	617.8
759.977	656.72
760.161	673.1
760.345	671.05
760.528	732.49
760.712	654.67
760.895	697.67
761.079	675.15
761.263	687.43
761.446	605.52
761.63	654.67
761.813	675.15
761.997	697.67
762.18	609.61
762.364	593.23
762.547	556.36
762.731	593.23
762.914	705.87
763.098	593.23
763.281	597.32
763.464	564.56
763.648	669
763.831	617.8
764.015	580.94
764.198	658.76
764.381	531.79
764.564	533.84
764.748	587.08
764.931	582.99
765.114	591.18
765.297	550.22
765.481	597.32
765.664	626
765.847	664.91
766.03	529.74
766.213	611.66
766.397	621.9
766.58	636.24
766.763	556.36
766.946	542.03
767.129	468.3
767.312	572.75
767.495	601.42
767.678	585.04
767.861	521.55
768.044	509.26
768.227	554.32
768.41	574.8
768.593	474.45
768.776	482.64
768.959	615.76
769.142	564.56
769.324	572.75
769.507	449.87
769.69	568.65
769.873	589.13
770.056	607.56
770.239	486.73
770.421	531.79
770.604	535.89
770.787	486.73
770.97	480.59
771.152	517.45
771.335	564.56
771.518	542.03
771.7	499.02
771.883	566.6
772.066	517.45
772.248	509.26
772.431	521.55
772.613	548.17
772.796	562.51
772.978	488.78
773.161	552.27
773.343	509.26
773.526	582.99
773.708	548.17
773.891	449.87
774.073	535.89
774.256	413.01
774.438	521.55
774.621	470.35
774.803	568.65
774.985	402.77
775.168	466.25
775.35	433.49
775.532	490.83
775.715	410.96
775.897	417.1
776.079	501.07
776.261	445.77
776.444	456.01
776.626	400.72
776.808	460.11
776.99	441.68
777.173	396.62
777.355	464.21
777.537	509.26
777.719	361.81
777.901	439.63
778.083	425.29
778.265	425.29
778.447	484.69
778.629	408.91
778.811	392.53
778.993	394.58
779.175	363.86
779.357	382.29
779.539	417.1
779.721	394.58
779.903	408.91
780.085	386.38
780.267	413.01
780.449	439.63
780.631	378.19
780.812	474.45
780.994	384.34
781.176	314.7
781.358	427.34
781.54	347.47
781.721	345.42
781.903	394.58
782.085	314.7
782.267	378.19
782.448	333.14
782.63	308.56
782.812	310.61
782.993	343.38
783.175	339.28
783.357	236.88
783.538	331.09
783.72	370
783.901	269.65
784.083	253.27
784.264	261.46
784.446	339.28
784.627	345.42
784.809	257.36
784.99	363.86
785.172	245.07
785.353	255.31
785.535	296.27
785.716	380.24
785.897	234.83
786.079	281.94
786.26	214.35
786.441	283.99
786.623	243.03
786.804	187.73
786.985	318.8
787.167	286.03
787.348	296.27
787.529	314.7
787.71	257.36
787.891	279.89
788.073	236.88
788.254	218.45
788.435	189.78
788.616	195.92
788.797	279.89
788.978	222.55
789.159	269.65
789.34	253.27
789.522	204.11
789.703	195.92
789.884	236.88
790.065	230.74
790.246	195.92
790.427	312.66
790.607	181.59
790.788	271.7
790.969	202.07
791.15	224.59
791.331	324.94
791.512	228.69
791.693	202.07
791.874	226.64
792.054	234.83
792.235	183.63
792.416	216.4
792.597	243.03
792.778	226.64
792.958	253.27
793.139	214.35
793.32	175.44
793.5	240.98
793.681	263.51
793.862	243.03
794.042	187.73
794.223	157.01
794.404	216.4
794.584	204.11
794.765	157.01
794.945	173.39
795.126	279.89
795.306	157.01
795.487	130.39
795.667	195.92
795.848	290.13
796.028	157.01
796.209	255.31
796.389	212.31
796.57	204.11
796.75	73.04
796.93	154.96
797.111	224.59
797.291	179.54
797.471	312.66
797.652	173.39
797.832	173.39
798.012	232.79
798.192	191.83
798.373	204.11
798.553	257.36
798.733	130.39
798.913	142.68
799.093	185.68
799.274	195.92
799.454	154.96
799.634	124.24
799.814	120.15
799.994	148.82
800.174	195.92
800.354	167.25
800.534	165.2
800.714	136.53
800.894	116.05
801.074	105.81
801.254	159.06
801.434	210.26
801.614	197.97
801.794	187.73
801.974	355.66
802.154	189.78
802.334	134.48
802.514	114
802.693	132.44
802.873	179.54
803.053	197.97
803.233	222.55
803.413	175.44
803.592	181.59
803.772	122.2
803.952	179.54
804.131	71
804.311	132.44
804.491	185.68
804.67	154.96
804.85	42.32
805.03	91.48
805.209	163.15
805.389	93.52
805.568	103.76
805.748	122.2
805.928	140.63
806.107	138.58
806.287	165.2
806.466	132.44
806.646	60.76
806.825	191.83
807.004	114
807.184	126.29
807.363	58.71
807.543	175.44
807.722	173.39
807.901	77.14
808.081	152.91
808.26	116.05
808.439	89.43
808.619	185.68
808.798	116.05
808.977	163.15
809.156	114
809.336	150.87
809.515	148.82
809.694	171.35
809.873	81.24
810.052	85.33
810.231	146.77
810.411	132.44
810.59	75.09
810.769	144.72
810.948	64.85
811.127	62.8
811.306	124.24
811.485	89.43
811.664	48.47
811.843	66.9
812.022	95.57
812.201	64.85
812.38	105.81
812.559	144.72
812.737	165.2
812.916	56.66
813.095	62.8
813.274	99.67
813.453	81.24
813.632	23.89
813.811	91.48
813.989	75.09
814.168	97.62
814.347	68.95
814.526	101.72
814.704	52.56
814.883	75.09
815.062	66.9
815.24	-2.73
815.419	56.66
815.598	89.43
815.776	75.09
815.955	114
816.133	56.66
816.312	64.85
816.49	17.75
816.669	17.75
816.847	87.38
817.026	111.96
817.204	116.05
817.383	81.24
817.561	71
817.74	60.76
817.918	97.62
818.097	97.62
818.275	11.61
818.453	126.29
818.632	83.28
818.81	87.38
818.988	87.38
819.167	163.15
819.345	118.1
819.523	99.67
819.701	40.28
819.879	93.52
820.058	36.18
820.236	99.67
820.414	17.75
820.592	77.14
820.77	93.52
820.948	130.39
821.127	52.56
821.305	-15.02
821.483	52.56
821.661	118.1
821.839	58.71
822.017	85.33
822.195	91.48
822.373	132.44
822.551	101.72
822.729	52.56
822.907	44.37
823.085	103.76
823.262	85.33
823.44	50.52
823.618	157.01
823.796	50.52
823.974	58.71
824.152	-8.87
824.329	56.66
824.507	48.47
824.685	130.39
824.863	52.56
825.04	93.52
825.218	19.8
825.396	40.28
825.574	34.13
825.751	27.99
825.929	-17.07
826.107	68.95
826.284	101.72
826.462	105.81
826.639	89.43
826.817	48.47
826.994	114
827.172	32.08
827.349	85.33
827.527	109.91
827.704	60.76
827.882	73.04
828.059	11.61
828.237	79.19
828.414	118.1
828.591	66.9
828.769	9.56
828.946	-29.35
829.124	87.38
829.301	60.76
829.478	54.61
829.655	64.85
829.833	81.24
830.01	97.62
830.187	66.9
830.364	32.08
830.542	34.13
830.719	25.94
830.896	68.95
831.073	44.37
831.25	40.28
831.427	83.28
831.604	44.37
831.782	89.43
831.959	-25.26
832.136	73.04
832.313	73.04
832.49	7.51
832.667	25.94
832.844	91.48
833.021	7.51
833.198	48.47
833.374	68.95
833.551	-17.07
833.728	146.77
833.905	27.99
834.082	32.08
834.259	11.61
834.436	25.94
834.612	-47.79
834.789	56.66
834.966	1.37
835.143	85.33
835.319	-29.35
835.496	132.44
835.673	40.28
835.85	126.29
836.026	75.09
836.203	-17.07
836.38	71
836.556	81.24
836.733	60.76
836.909	32.08
837.086	85.33
837.262	91.48
837.439	60.76
837.616	-8.87
837.792	-8.87
837.968	91.48
838.145	40.28
838.321	-0.68
838.498	46.42
838.674	50.52
838.851	-15.02
839.027	19.8
839.203	-51.88
839.38	27.99
839.556	42.32
839.732	75.09
839.909	140.63
840.085	48.47
840.261	87.38
840.437	11.61
840.614	-10.92
840.79	87.38
840.966	48.47
841.142	99.67
841.318	19.8
841.494	107.86
841.671	11.61
841.847	93.52
842.023	42.32
842.199	93.52
842.375	60.76
842.551	23.89
842.727	-6.83
842.903	79.19
843.079	-53.93
843.255	116.05
843.431	38.23
843.607	40.28
843.783	15.7
843.959	38.23
844.134	56.66
844.31	60.76
844.486	9.56
844.662	54.61
844.838	-10.92
845.013	58.71
845.189	91.48
845.365	50.52
845.541	15.7
845.716	42.32
845.892	15.7
846.068	1.37
846.244	68.95
846.419	17.75
846.595	50.52
846.77	52.56
846.946	50.52
847.122	17.75
847.297	-2.73
847.473	44.37
847.648	-12.97
847.824	56.66
847.999	3.41
848.175	-6.83
848.35	64.85
848.526	3.41
848.701	13.65
848.876	1.37
849.052	27.99
849.227	21.85
849.403	3.41
849.578	-19.11
849.753	-23.21
849.929	75.09
850.104	-27.31
850.279	99.67
850.454	15.7
850.63	66.9
850.805	-35.5
850.98	3.41
851.155	101.72
851.33	52.56
851.505	-33.45
851.681	79.19
851.856	19.8
852.031	60.76
852.206	68.95
852.381	7.51
852.556	-8.87
852.731	62.8
852.906	48.47
853.081	60.76
853.256	48.47
853.431	-49.83
853.606	48.47
853.781	81.24
853.956	25.94
854.131	-17.07
854.305	-15.02
854.48	50.52
854.655	17.75
854.83	15.7
855.005	-21.16
855.18	32.08
855.354	60.76
855.529	-0.68
855.704	50.52
855.879	44.37
856.053	46.42
856.228	44.37
856.403	48.47
856.577	15.7
856.752	-0.68
856.926	11.61
857.101	95.57
857.276	-2.73
857.45	-62.12
857.625	9.56
857.799	66.9
857.974	-35.5
858.148	15.7
858.323	11.61
858.497	73.04
858.672	42.32
858.846	-58.03
859.02	73.04
859.195	-0.68
859.369	87.38
859.543	40.28
859.718	48.47
859.892	54.61
860.066	13.65
860.241	73.04
860.415	9.56
860.589	60.76
860.763	7.51
860.938	13.65
861.112	66.9
861.286	44.37
861.46	38.23
861.634	-51.88
861.808	15.7
861.982	48.47
862.157	-0.68
862.331	15.7
862.505	-33.45
862.679	25.94
862.853	11.61
863.027	-2.73
863.201	68.95
863.375	44.37
863.549	-17.07
863.722	23.89
863.896	60.76
864.07	-17.07
864.244	3.41
864.418	-2.73
864.592	34.13
864.766	56.66
864.939	23.89
865.113	21.85
865.287	-25.26
865.461	-31.4
865.634	-21.16
865.808	40.28
865.982	25.94
866.156	9.56
866.329	-49.83
866.503	34.13
866.676	1.37
866.85	40.28
867.024	38.23
867.197	32.08
867.371	56.66
867.544	-2.73
867.718	52.56
867.891	32.08
868.065	56.66
868.238	-4.78
868.412	89.43
868.585	42.32
868.759	3.41
868.932	-64.17
869.105	54.61
869.279	-31.4
869.452	-72.36
869.625	7.51
869.799	64.85
869.972	27.99
870.145	-15.02
870.319	42.32
870.492	23.89
870.665	52.56
870.838	64.85
871.011	3.41
871.185	25.94
871.358	9.56
871.531	81.24
871.704	-0.68
871.877	-23.21
872.05	42.32
872.223	-33.45
872.396	68.95
872.569	52.56
872.742	54.61
872.915	-96.94
873.088	50.52
873.261	-47.79
873.434	-6.83
873.607	23.89
873.78	15.7
873.953	-4.78
874.126	77.14
874.299	62.8
874.471	7.51
874.644	9.56
874.817	-6.83
874.99	32.08
875.163	50.52
875.335	40.28
875.508	27.99
875.681	58.71
875.853	-4.78
876.026	50.52
876.199	-53.93
876.371	30.04
876.544	-29.35
876.717	-60.07
876.889	40.28
877.062	7.51
877.234	66.9
877.407	-51.88
877.579	-17.07
877.752	62.8
877.924	5.46
878.097	-15.02
878.269	68.95
878.442	34.13
878.614	1.37
878.786	-8.87
878.959	42.32
879.131	36.18
879.303	54.61
879.476	46.42
879.648	66.9
879.82	19.8
879.993	-4.78
880.165	13.65
880.337	-19.11
880.509	19.8
880.681	-6.83
880.854	30.04
881.026	32.08
881.198	79.19
881.37	17.75
881.542	62.8
881.714	-21.16
881.886	-0.68
882.058	-4.78
882.23	-8.87
882.402	-21.16
882.574	-35.5
882.746	-17.07
882.918	19.8
883.09	34.13
883.262	21.85
883.434	5.46
883.606	-2.73
883.778	40.28
883.95	-55.98
884.122	118.1
884.293	46.42
884.465	-25.26
884.637	40.28
884.809	-37.55
884.98	13.65
885.152	-49.83
885.324	-17.07
885.496	-29.35
885.667	17.75
885.839	30.04
886.011	58.71
886.182	19.8
886.354	-25.26
886.525	-0.68
886.697	11.61
886.869	-6.83
887.04	32.08
887.212	9.56
887.383	42.32
887.555	120.15
887.726	38.23
887.897	-6.83
888.069	64.85
888.24	-8.87
888.412	40.28
888.583	46.42
888.754	-0.68
888.926	11.61
889.097	-4.78
889.268	-2.73
889.44	50.52
889.611	-0.68
889.782	25.94
889.953	-23.21
890.125	50.52
890.296	-27.31
890.467	13.65
890.638	-25.26
890.809	21.85
890.98	9.56
891.151	17.75
891.323	17.75
891.494	-25.26
891.665	11.61
891.836	1.37
892.007	66.9
892.178	81.24
892.349	-12.97
892.52	-6.83
892.691	32.08
892.862	68.95
893.032	-80.55
893.203	-0.68
893.374	-15.02
893.545	15.7
893.716	-21.16
893.887	46.42
894.057	73.04
894.228	25.94
894.399	21.85
894.57	62.8
894.74	19.8
894.911	27.99
895.082	-39.59
895.253	66.9
895.423	52.56
895.594	-47.79
895.764	1.37
895.935	73.04
896.106	15.7
896.276	17.75
896.447	23.89
896.617	23.89
896.788	-23.21
896.958	-41.64
897.129	25.94
897.299	34.13
897.47	23.89
897.64	3.41
897.81	21.85
897.981	48.47
898.151	-25.26
898.322	-6.83
898.492	19.8
898.662	23.89
898.832	-4.78
899.003	60.76
899.173	-15.02
899.343	27.99
899.513	-21.16
