Data from USB4F104151__134__13-58-03-097.txt Node

Date: Thu Mar 13 13:58:03 EDT 2025
User: louis
Spectrometer: USB4F10415
Trigger mode: 4
Integration Time (sec): 1.000000E-2
Scans to average: 1
Electric dark correction enabled: true
Nonlinearity correction enabled: false
Boxcar width: 0
XAxis mode: Wavelengths
Number of Pixels in Spectrum: 3648
>>>>>Begin Spectral Data<<<<<
178.204	-24.06
178.424	-24.06
178.644	-24.06
178.864	-22.02
179.084	20.99
179.304	18.94
179.524	-17.92
179.744	41.47
179.964	4.61
180.184	-34.3
180.404	78.33
180.624	-38.4
180.844	-15.87
181.064	-65.02
181.283	-17.92
181.503	49.66
181.723	-3.58
181.943	86.53
182.163	6.66
182.383	-65.02
182.602	-15.87
182.822	-1.54
183.042	14.85
183.262	-13.82
183.482	33.28
183.701	86.53
183.921	-1.54
184.141	78.33
184.361	37.38
184.58	16.9
184.8	20.99
185.02	-48.64
185.239	6.66
185.459	41.47
185.679	31.23
185.898	6.66
186.118	41.47
186.338	25.09
186.557	-15.87
186.777	31.23
186.997	4.61
187.216	0.51
187.436	61.95
187.655	61.95
187.875	39.42
188.095	18.94
188.314	8.7
188.534	10.75
188.753	59.9
188.973	-24.06
189.192	-7.68
189.412	6.66
189.631	45.57
189.851	8.7
190.07	37.38
190.29	31.23
190.509	0.51
190.729	-24.06
190.948	78.33
191.168	145.92
191.387	31.23
191.607	12.8
191.826	10.75
192.045	29.18
192.265	55.81
192.484	-40.45
192.704	45.57
192.923	-40.45
193.142	-9.73
193.362	33.28
193.581	66.05
193.8	49.66
194.02	90.62
194.239	-54.78
194.458	12.8
194.678	29.18
194.897	2.56
195.116	94.72
195.335	23.04
195.555	70.14
195.774	31.23
195.993	92.67
196.212	20.99
196.432	82.43
196.651	102.91
196.87	-19.97
197.089	49.66
197.308	-19.97
197.528	-3.58
197.747	25.09
197.966	41.47
198.185	0.51
198.404	64
198.623	-50.69
198.842	37.38
199.062	29.18
199.281	-17.92
199.5	49.66
199.719	86.53
199.938	70.14
200.157	53.76
200.376	-1.54
200.595	127.49
200.814	-32.26
201.033	20.99
201.252	53.76
201.471	80.38
201.69	23.04
201.909	37.38
202.128	49.66
202.347	55.81
202.566	-36.35
202.785	-3.58
203.004	27.14
203.223	98.81
203.442	23.04
203.661	-11.78
203.879	37.38
204.098	119.29
204.317	-28.16
204.536	78.33
204.755	27.14
204.974	4.61
205.193	33.28
205.411	12.8
205.63	39.42
205.849	-7.68
206.068	-19.97
206.287	12.8
206.505	39.42
206.724	-3.58
206.943	23.04
207.162	-3.58
207.381	57.86
207.599	12.8
207.818	0.51
208.037	66.05
208.255	49.66
208.474	39.42
208.693	37.38
208.911	78.33
209.13	23.04
209.349	45.57
209.567	37.38
209.786	0.51
210.005	39.42
210.223	14.85
210.442	41.47
210.661	41.47
210.879	29.18
211.098	39.42
211.316	4.61
211.535	41.47
211.753	-19.97
211.972	90.62
212.191	-32.26
212.409	12.8
212.628	-42.5
212.846	35.33
213.065	78.33
213.283	45.57
213.502	-34.3
213.72	20.99
213.938	45.57
214.157	29.18
214.375	66.05
214.594	45.57
214.812	12.8
215.031	37.38
215.249	-5.63
215.467	57.86
215.686	-5.63
215.904	68.09
216.122	43.52
216.341	74.24
216.559	72.19
216.778	55.81
216.996	27.14
217.214	10.75
217.432	25.09
217.651	25.09
217.869	104.96
218.087	68.09
218.306	-22.02
218.524	45.57
218.742	18.94
218.96	8.7
219.179	76.29
219.397	-7.68
219.615	55.81
219.833	-13.82
220.051	27.14
220.27	68.09
220.488	41.47
220.706	16.9
220.924	29.18
221.142	53.76
221.36	55.81
221.578	61.95
221.796	-15.87
222.015	49.66
222.233	45.57
222.451	20.99
222.669	45.57
222.887	53.76
223.105	4.61
223.323	104.96
223.541	4.61
223.759	20.99
223.977	47.62
224.195	84.48
224.413	25.09
224.631	86.53
224.849	-11.78
225.067	29.18
225.285	2.56
225.503	49.66
225.721	-50.69
225.939	37.38
226.157	49.66
226.375	31.23
226.592	39.42
226.81	37.38
227.028	10.75
227.246	96.77
227.464	64
227.682	37.38
227.9	41.47
228.117	-22.02
228.335	78.33
228.553	90.62
228.771	29.18
228.989	57.86
229.206	-52.74
229.424	4.61
229.642	59.9
229.86	25.09
230.077	2.56
230.295	39.42
230.513	61.95
230.731	35.33
230.948	35.33
231.166	37.38
231.384	12.8
231.601	-32.26
231.819	70.14
232.037	-7.68
232.254	-3.58
232.472	33.28
232.689	12.8
232.907	-7.68
233.125	78.33
233.342	25.09
233.56	6.66
233.777	68.09
233.995	51.71
234.213	47.62
234.43	90.62
234.648	74.24
234.865	23.04
235.083	49.66
235.3	61.95
235.518	-28.16
235.735	47.62
235.953	61.95
236.17	64
236.388	45.57
236.605	35.33
236.822	29.18
237.04	31.23
237.257	6.66
237.475	90.62
237.692	53.76
237.909	31.23
238.127	-77.31
238.344	-13.82
238.562	57.86
238.779	20.99
238.996	47.62
239.214	0.51
239.431	66.05
239.648	143.87
239.865	55.81
240.083	10.75
240.3	64
240.517	10.75
240.735	45.57
240.952	37.38
241.169	47.62
241.386	-7.68
241.603	10.75
241.821	88.57
242.038	18.94
242.255	0.51
242.472	-3.58
242.689	72.19
242.907	12.8
243.124	76.29
243.341	90.62
243.558	45.57
243.775	43.52
243.992	14.85
244.209	-34.3
244.426	23.04
244.643	57.86
244.86	18.94
245.078	27.14
245.295	-7.68
245.512	-1.54
245.729	-26.11
245.946	53.76
246.163	47.62
246.38	78.33
246.597	70.14
246.814	80.38
247.031	25.09
247.248	10.75
247.464	12.8
247.681	18.94
247.898	45.57
248.115	4.61
248.332	-46.59
248.549	39.42
248.766	25.09
248.983	78.33
249.2	51.71
249.417	59.9
249.633	-11.78
249.85	31.23
250.067	4.61
250.284	102.91
250.501	27.14
250.717	39.42
250.934	-71.17
251.151	66.05
251.368	-9.73
251.585	107.01
251.801	-36.35
252.018	-3.58
252.235	43.52
252.451	-11.78
252.668	35.33
252.885	70.14
253.102	49.66
253.318	18.94
253.535	23.04
253.752	16.9
253.968	-34.3
254.185	49.66
254.401	51.71
254.618	49.66
254.835	107.01
255.051	55.81
255.268	55.81
255.484	90.62
255.701	-30.21
255.917	96.77
256.134	-11.78
256.351	115.2
256.567	4.61
256.784	-17.92
257	-24.06
257.217	16.9
257.433	25.09
257.65	37.38
257.866	96.77
258.082	8.7
258.299	-17.92
258.515	53.76
258.732	-36.35
258.948	66.05
259.165	4.61
259.381	-22.02
259.597	-34.3
259.814	92.67
260.03	2.56
260.246	0.51
260.463	27.14
260.679	61.95
260.895	35.33
261.112	14.85
261.328	14.85
261.544	41.47
261.761	39.42
261.977	86.53
262.193	53.76
262.409	-7.68
262.626	35.33
262.842	61.95
263.058	39.42
263.274	109.05
263.49	0.51
263.707	39.42
263.923	-36.35
264.139	-17.92
264.355	43.52
264.571	41.47
264.787	102.91
265.004	41.47
265.22	20.99
265.436	0.51
265.652	39.42
265.868	0.51
266.084	90.62
266.3	6.66
266.516	66.05
266.732	-67.07
266.948	0.51
267.164	31.23
267.38	18.94
267.596	45.57
267.812	61.95
268.028	94.72
268.244	-11.78
268.46	14.85
268.676	12.8
268.892	96.77
269.108	12.8
269.324	18.94
269.54	-11.78
269.756	6.66
269.972	20.99
270.188	-36.35
270.403	-32.26
270.619	57.86
270.835	29.18
271.051	49.66
271.267	39.42
271.483	37.38
271.698	8.7
271.914	70.14
272.13	92.67
272.346	-36.35
272.562	-15.87
272.777	29.18
272.993	64
273.209	55.81
273.425	31.23
273.64	25.09
273.856	8.7
274.072	37.38
274.287	-15.87
274.503	39.42
274.719	47.62
274.934	59.9
275.15	-15.87
275.366	0.51
275.581	43.52
275.797	76.29
276.012	-24.06
276.228	84.48
276.444	-1.54
276.659	82.43
276.875	33.28
277.09	-19.97
277.306	-3.58
277.521	68.09
277.737	14.85
277.952	49.66
278.168	51.71
278.383	45.57
278.599	25.09
278.814	72.19
279.03	74.24
279.245	47.62
279.461	37.38
279.676	39.42
279.892	-1.54
280.107	121.34
280.322	68.09
280.538	41.47
280.753	29.18
280.969	102.91
281.184	35.33
281.399	14.85
281.615	53.76
281.83	16.9
282.045	59.9
282.26	-15.87
282.476	37.38
282.691	70.14
282.906	84.48
283.122	57.86
283.337	53.76
283.552	55.81
283.767	98.81
283.983	37.38
284.198	111.1
284.413	45.57
284.628	53.76
284.843	102.91
285.058	-9.73
285.274	23.04
285.489	-60.93
285.704	78.33
285.919	23.04
286.134	47.62
286.349	20.99
286.564	68.09
286.779	88.57
286.995	-24.06
287.21	104.96
287.425	27.14
287.64	53.76
287.855	76.29
288.07	49.66
288.285	104.96
288.5	0.51
288.715	-24.06
288.93	53.76
289.145	45.57
289.36	64
289.575	74.24
289.79	37.38
290.004	16.9
290.219	37.38
290.434	14.85
290.649	-15.87
290.864	41.47
291.079	-1.54
291.294	78.33
291.509	2.56
291.724	57.86
291.938	82.43
292.153	66.05
292.368	96.77
292.583	43.52
292.798	25.09
293.012	66.05
293.227	45.57
293.442	25.09
293.657	-1.54
293.871	-1.54
294.086	41.47
294.301	27.14
294.516	27.14
294.73	37.38
294.945	-28.16
295.16	-28.16
295.374	64
295.589	20.99
295.804	92.67
296.018	49.66
296.233	53.76
296.447	45.57
296.662	104.96
296.877	84.48
297.091	8.7
297.306	70.14
297.52	-28.16
297.735	6.66
297.949	-36.35
298.164	33.28
298.378	-30.21
298.593	14.85
298.807	29.18
299.022	47.62
299.236	76.29
299.451	102.91
299.665	16.9
299.88	123.39
300.094	-32.26
300.309	53.76
300.523	70.14
300.737	-15.87
300.952	70.14
301.166	35.33
301.381	84.48
301.595	72.19
301.809	66.05
302.024	29.18
302.238	-67.07
302.452	70.14
302.667	41.47
302.881	111.1
303.095	-5.63
303.309	61.95
303.524	0.51
303.738	35.33
303.952	-13.82
304.166	100.86
304.381	6.66
304.595	86.53
304.809	61.95
305.023	10.75
305.237	76.29
305.452	23.04
305.666	55.81
305.88	39.42
306.094	8.7
306.308	70.14
306.522	43.52
306.736	-1.54
306.95	47.62
307.164	78.33
307.379	74.24
307.593	94.72
307.807	41.47
308.021	29.18
308.235	57.86
308.449	88.57
308.663	20.99
308.877	57.86
309.091	-9.73
309.305	76.29
309.519	20.99
309.733	31.23
309.947	47.62
310.161	94.72
310.374	-34.3
310.588	29.18
310.802	-34.3
311.016	27.14
311.23	-40.45
311.444	35.33
311.658	53.76
311.872	55.81
312.085	88.57
312.299	78.33
312.513	12.8
312.727	70.14
312.941	-3.58
313.154	53.76
313.368	74.24
313.582	49.66
313.796	74.24
314.009	61.95
314.223	18.94
314.437	66.05
314.651	45.57
314.864	-1.54
315.078	-3.58
315.292	37.38
315.505	-19.97
315.719	78.33
315.933	49.66
316.146	68.09
316.36	31.23
316.573	66.05
316.787	-15.87
317.001	49.66
317.214	-1.54
317.428	14.85
317.641	29.18
317.855	76.29
318.068	111.1
318.282	49.66
318.495	33.28
318.709	23.04
318.922	55.81
319.136	2.56
319.349	70.14
319.563	102.91
319.776	68.09
319.99	64
320.203	25.09
320.417	45.57
320.63	33.28
320.843	49.66
321.057	23.04
321.27	76.29
321.483	16.9
321.697	23.04
321.91	10.75
322.124	23.04
322.337	-7.68
322.55	8.7
322.763	51.71
322.977	49.66
323.19	-17.92
323.403	107.01
323.617	29.18
323.83	-19.97
324.043	96.77
324.256	37.38
324.469	68.09
324.683	33.28
324.896	20.99
325.109	43.52
325.322	4.61
325.535	27.14
325.748	68.09
325.962	47.62
326.175	23.04
326.388	72.19
326.601	-7.68
326.814	66.05
327.027	6.66
327.24	57.86
327.453	31.23
327.666	12.8
327.879	53.76
328.092	16.9
328.305	-9.73
328.518	123.39
328.731	29.18
328.944	51.71
329.157	158.21
329.37	29.18
329.583	98.81
329.796	14.85
330.009	18.94
330.222	61.95
330.435	131.58
330.648	92.67
330.861	18.94
331.073	84.48
331.286	47.62
331.499	57.86
331.712	94.72
331.925	74.24
332.138	29.18
332.35	45.57
332.563	-26.11
332.776	20.99
332.989	23.04
333.202	0.51
333.414	-7.68
333.627	78.33
333.84	16.9
334.053	72.19
334.265	-26.11
334.478	100.86
334.691	33.28
334.903	55.81
335.116	6.66
335.329	29.18
335.541	51.71
335.754	45.57
335.966	-52.74
336.179	6.66
336.392	41.47
336.604	100.86
336.817	78.33
337.029	18.94
337.242	94.72
337.454	-7.68
337.667	94.72
337.88	43.52
338.092	27.14
338.305	4.61
338.517	4.61
338.729	123.39
338.942	2.56
339.154	-9.73
339.367	107.01
339.579	43.52
339.792	-11.78
340.004	8.7
340.217	-44.54
340.429	-7.68
340.641	0.51
340.854	59.9
341.066	23.04
341.278	33.28
341.491	-15.87
341.703	14.85
341.915	16.9
342.128	119.29
342.34	45.57
342.552	-15.87
342.764	41.47
342.977	57.86
343.189	31.23
343.401	8.7
343.613	51.71
343.826	-3.58
344.038	37.38
344.25	80.38
344.462	98.81
344.674	-38.4
344.886	45.57
345.099	86.53
345.311	-28.16
345.523	53.76
345.735	61.95
345.947	61.95
346.159	45.57
346.371	25.09
346.583	96.77
346.795	66.05
347.007	55.81
347.219	86.53
347.431	23.04
347.643	20.99
347.855	-40.45
348.067	-3.58
348.279	-28.16
348.491	10.75
348.703	20.99
348.915	37.38
349.127	0.51
349.339	-30.21
349.551	45.57
349.763	39.42
349.975	20.99
350.187	6.66
350.399	55.81
350.61	168.45
350.822	100.86
351.034	78.33
351.246	-17.92
351.458	37.38
351.669	29.18
351.881	29.18
352.093	-11.78
352.305	92.67
352.517	70.14
352.728	39.42
352.94	90.62
353.152	55.81
353.363	23.04
353.575	49.66
353.787	16.9
353.999	18.94
354.21	74.24
354.422	4.61
354.633	41.47
354.845	49.66
355.057	27.14
355.268	39.42
355.48	70.14
355.692	-3.58
355.903	39.42
356.115	41.47
356.326	57.86
356.538	31.23
356.749	82.43
356.961	109.05
357.172	-38.4
357.384	-22.02
357.595	61.95
357.807	61.95
358.018	86.53
358.23	-13.82
358.441	98.81
358.653	55.81
358.864	90.62
359.075	47.62
359.287	-9.73
359.498	61.95
359.709	-17.92
359.921	59.9
360.132	45.57
360.344	-5.63
360.555	-15.87
360.766	10.75
360.977	61.95
361.189	12.8
361.4	55.81
361.611	72.19
361.823	57.86
362.034	47.62
362.245	-19.97
362.456	43.52
362.667	10.75
362.879	90.62
363.09	94.72
363.301	111.1
363.512	74.24
363.723	86.53
363.935	90.62
364.146	12.8
364.357	45.57
364.568	78.33
364.779	20.99
364.99	61.95
365.201	-3.58
365.412	76.29
365.623	41.47
365.834	45.57
366.045	27.14
366.256	82.43
366.467	115.2
366.678	78.33
366.889	49.66
367.1	84.48
367.311	4.61
367.522	66.05
367.733	98.81
367.944	27.14
368.155	31.23
368.366	113.15
368.577	51.71
368.788	70.14
368.999	-15.87
369.209	102.91
369.42	53.76
369.631	61.95
369.842	82.43
370.053	84.48
370.264	68.09
370.474	45.57
370.685	76.29
370.896	74.24
371.107	92.67
371.317	59.9
371.528	33.28
371.739	39.42
371.95	51.71
372.16	4.61
372.371	-26.11
372.582	98.81
372.792	2.56
373.003	119.29
373.214	41.47
373.424	33.28
373.635	2.56
373.846	80.38
374.056	-1.54
374.267	57.86
374.477	18.94
374.688	-11.78
374.898	74.24
375.109	-30.21
375.319	53.76
375.53	57.86
375.74	72.19
375.951	55.81
376.161	64
376.372	68.09
376.582	61.95
376.793	18.94
377.003	37.38
377.214	45.57
377.424	104.96
377.635	35.33
377.845	-22.02
378.055	121.34
378.266	82.43
378.476	88.57
378.686	31.23
378.897	74.24
379.107	98.81
379.317	68.09
379.528	102.91
379.738	121.34
379.948	41.47
380.158	76.29
380.369	90.62
380.579	45.57
380.789	37.38
380.999	31.23
381.21	88.57
381.42	6.66
381.63	-15.87
381.84	86.53
382.05	104.96
382.261	104.96
382.471	70.14
382.681	72.19
382.891	25.09
383.101	84.48
383.311	47.62
383.521	29.18
383.731	98.81
383.941	109.05
384.151	20.99
384.361	86.53
384.571	43.52
384.781	98.81
384.991	141.82
385.201	86.53
385.411	53.76
385.621	68.09
385.831	18.94
386.041	84.48
386.251	84.48
386.461	137.73
386.671	37.38
386.881	-3.58
387.091	64
387.301	53.76
387.511	23.04
387.72	102.91
387.93	115.2
388.14	35.33
388.35	37.38
388.56	86.53
388.769	96.77
388.979	102.91
389.189	78.33
389.399	119.29
389.609	74.24
389.818	14.85
390.028	20.99
390.238	68.09
390.447	49.66
390.657	70.14
390.867	102.91
391.076	-24.06
391.286	6.66
391.496	33.28
391.705	-11.78
391.915	96.77
392.125	47.62
392.334	10.75
392.544	82.43
392.753	16.9
392.963	47.62
393.172	88.57
393.382	25.09
393.591	35.33
393.801	-5.63
394.01	39.42
394.22	66.05
394.429	102.91
394.639	16.9
394.848	84.48
395.058	72.19
395.267	-13.82
395.477	160.25
395.686	70.14
395.895	147.97
396.105	41.47
396.314	127.49
396.524	78.33
396.733	82.43
396.942	49.66
397.152	8.7
397.361	88.57
397.57	61.95
397.78	102.91
397.989	72.19
398.198	119.29
398.407	37.38
398.617	121.34
398.826	68.09
399.035	-1.54
399.244	94.72
399.453	90.62
399.663	113.15
399.872	92.67
400.081	96.77
400.29	94.72
400.499	109.05
400.708	98.81
400.917	82.43
401.127	109.05
401.336	109.05
401.545	96.77
401.754	53.76
401.963	70.14
402.172	152.06
402.381	104.96
402.59	45.57
402.799	141.82
403.008	141.82
403.217	74.24
403.426	86.53
403.635	102.91
403.844	135.68
404.053	80.38
404.262	51.71
404.471	113.15
404.68	14.85
404.888	158.21
405.097	68.09
405.306	94.72
405.515	125.44
405.724	125.44
405.933	51.71
406.142	119.29
406.35	172.54
406.559	111.1
406.768	154.11
406.977	170.49
407.185	160.25
407.394	184.83
407.603	129.53
407.812	109.05
408.02	168.45
408.229	238.08
408.438	152.06
408.646	158.21
408.855	154.11
409.064	121.34
409.272	172.54
409.481	152.06
409.69	231.93
409.898	190.97
410.107	186.88
410.315	231.93
410.524	211.45
410.733	203.26
410.941	311.8
411.15	283.13
411.358	233.98
411.567	258.56
411.775	285.18
411.984	268.8
412.192	346.62
412.401	236.03
412.609	340.47
412.818	311.8
413.026	272.89
413.234	342.52
413.443	317.95
413.651	322.04
413.86	381.43
414.068	422.39
414.276	401.91
414.485	408.06
414.693	367.1
414.901	502.26
415.11	446.97
415.318	449.02
415.526	467.45
415.734	561.66
415.943	547.32
416.151	508.41
416.359	561.66
416.567	545.27
416.776	608.76
416.984	655.86
417.192	604.66
417.4	610.81
417.608	651.77
417.817	651.77
418.025	754.16
418.233	733.68
418.441	713.21
418.649	723.44
418.857	780.79
419.065	842.23
419.273	821.75
419.481	915.95
419.689	903.67
419.897	850.42
420.105	954.87
420.313	928.24
420.521	1094.13
420.729	1020.4
420.937	1079.79
421.145	1106.42
421.353	1126.89
421.561	1253.87
421.769	1313.26
421.977	1395.18
422.185	1243.63
422.393	1378.79
422.601	1421.8
422.809	1450.47
423.017	1407.47
423.224	1513.96
423.432	1505.77
423.64	1704.42
423.848	1636.84
424.056	1735.14
424.263	1694.18
424.471	1864.16
424.679	1878.5
424.887	2028
425.094	1987.04
425.302	2079.2
425.51	2062.82
425.718	2159.07
425.925	2073.06
426.133	2302.43
426.341	2384.35
426.548	2361.82
426.756	2562.52
426.964	2613.72
427.171	2560.47
427.379	2603.48
427.586	2795.99
427.794	2752.98
428.001	2939.35
428.209	3207.63
428.417	2963.92
428.624	3232.21
428.832	3322.32
429.039	3289.55
429.247	3332.56
429.454	3658.18
429.662	3701.19
429.869	3477.96
430.076	3787.21
430.284	3891.65
430.491	3856.84
430.699	4008.39
430.906	4098.5
431.114	3985.86
431.321	4356.54
431.528	4469.18
431.736	4645.31
431.943	5024.18
432.15	4719.03
432.358	4858.29
432.565	5081.52
432.772	5018.04
432.979	5343.66
433.187	5239.22
433.394	5390.77
433.601	5685.67
433.808	5781.93
434.016	5763.5
434.223	5986.72
434.43	6445.47
434.637	6220.19
434.844	6386.08
435.052	6721.95
435.259	6783.38
435.466	6691.23
435.673	6732.19
435.88	7102.87
436.087	7672.2
436.294	7448.97
436.501	7438.73
436.708	7344.53
436.915	7776.65
437.122	8081.8
437.329	7969.16
437.537	8219.01
437.743	8382.85
437.95	8444.29
438.157	8845.69
438.364	9236.85
438.571	8978.81
438.778	9359.73
438.985	9951.59
439.192	9570.67
439.399	9902.44
439.606	9781.61
439.813	10254.69
440.02	10789.21
440.227	10748.25
440.433	10412.39
440.64	10885.47
440.847	10963.29
441.054	11262.29
441.261	11833.68
441.467	11706.7
441.674	11999.56
441.881	12220.74
442.088	12302.66
442.294	12155.21
442.501	12456.26
442.708	12814.65
442.914	13248.82
443.121	13828.4
443.328	13381.94
443.534	14203.18
443.741	13818.16
443.948	13961.51
444.154	14625.06
444.361	14594.34
444.568	14586.15
444.774	14795.04
444.981	14995.74
445.187	15497.49
445.394	16109.83
445.6	15933.71
445.807	17256.7
446.013	16570.63
446.22	16937.21
446.426	17733.87
446.633	17770.74
446.839	18514.15
447.046	17852.66
447.252	18833.63
447.459	18575.59
447.665	18503.91
447.871	19611.86
448.078	20185.29
448.284	19323.1
448.491	19464.41
448.697	20576.45
448.903	20953.28
449.11	20940.99
449.316	20691.14
449.522	20949.18
449.728	21610.68
449.935	21809.33
450.141	21620.92
450.347	22329.52
450.553	21708.98
450.76	22044.85
450.966	22589.61
451.172	22595.75
451.378	23111.84
451.584	22638.76
451.791	23105.7
451.997	22810.79
452.203	23392.41
452.409	23503
452.615	23507.1
452.821	22466.73
453.027	22157.49
453.233	23115.94
453.44	22384.81
453.646	22747.3
453.852	22870.18
454.058	23218.33
454.264	22413.48
454.47	22978.72
454.676	22444.2
454.882	22982.82
455.088	21162.17
455.294	21807.28
455.5	21995.7
455.705	21874.87
455.911	21027.01
456.117	21070.01
456.323	20410.57
456.529	19146.97
456.735	20488.39
456.941	19751.12
457.147	19636.44
457.352	19011.81
457.558	18663.65
457.764	18661.6
457.97	18471.14
458.176	17817.84
458.381	17862.9
458.587	17338.62
458.793	17144.06
458.999	16185.61
459.204	17471.73
459.41	16816.38
459.616	15649.04
459.821	15927.56
460.027	15780.11
460.233	15364.37
460.438	14885.15
460.644	15077.66
460.85	14235.94
461.055	13922.6
461.261	13959.47
461.466	12765.5
461.672	12677.44
461.878	13510.96
462.083	12497.22
462.289	12448.07
462.494	12296.52
462.7	11911.5
462.905	11247.96
463.111	11837.77
463.316	11882.83
463.522	11598.16
463.727	11530.58
463.932	11415.89
464.138	11323.73
464.343	11348.31
464.549	11147.61
464.754	11620.69
464.959	11626.83
465.165	11401.55
465.37	10948.95
465.575	10570.08
465.781	10983.77
465.986	11090.26
466.191	10953.05
466.397	10436.96
466.602	9902.44
466.807	10324.32
467.012	10312.03
467.218	10211.68
467.423	10115.43
467.628	10090.85
467.833	10713.44
468.038	10199.4
468.244	9910.63
468.449	10219.88
468.654	10080.61
468.859	9916.78
469.064	9871.72
469.269	9515.37
469.474	9609.58
469.679	9654.64
469.885	9683.31
470.09	9570.67
470.295	9570.67
470.5	9273.71
470.705	9568.62
470.91	9181.56
471.115	9126.26
471.32	9290.1
471.525	9034.1
471.73	9032.05
471.935	9222.52
472.139	8606.08
472.344	8747.39
472.549	8575.36
472.754	8466.81
472.959	8341.89
473.164	8329.6
473.369	8108.42
473.574	8315.27
473.778	8161.67
473.983	8284.55
474.188	8403.33
474.393	7655.82
474.598	7987.59
474.802	7737.74
475.007	7774.6
475.212	7715.21
475.417	7401.87
475.621	7528.85
475.826	7565.71
476.031	7438.73
476.235	7215.51
476.44	7205.27
476.645	7242.13
476.849	7354.77
477.054	7117.2
477.259	6984.09
477.463	6922.65
477.668	6893.97
477.872	6936.98
478.077	6881.69
478.282	6572.44
478.486	6564.25
478.691	6551.96
478.895	6484.38
479.1	6521.24
479.304	6613.4
479.509	6304.16
479.713	6392.22
479.918	6341.02
480.122	6281.63
480.326	6527.39
480.531	6281.63
480.735	6345.12
480.94	6101.41
481.144	6402.46
481.348	6029.73
481.553	6205.86
481.757	6064.55
481.961	6150.56
482.166	6115.75
482.37	6125.99
482.574	6023.59
482.778	6146.47
482.983	6177.19
483.187	5994.92
483.391	6093.22
483.595	5994.92
483.8	5837.22
484.004	6023.59
484.208	5927.33
484.412	6042.02
484.616	6009.25
484.821	6074.79
485.025	5949.86
485.229	6095.27
485.433	6019.49
485.637	6109.6
485.841	6033.83
486.045	5943.72
486.249	6177.19
486.453	6134.18
486.657	6179.23
486.861	6072.74
487.065	5945.77
487.269	5960.1
487.473	5996.96
487.677	5847.46
487.881	6050.21
488.085	6005.16
488.289	6099.36
488.493	6009.25
488.697	6279.58
488.901	5992.87
489.105	6027.68
489.309	6230.43
489.512	6142.37
489.716	6095.27
489.92	6113.7
490.124	6097.31
490.328	6443.42
490.531	6187.43
490.735	6236.58
490.939	6267.3
491.143	6216.1
491.346	6078.88
491.55	6416.8
491.754	6384.03
491.958	6257.06
492.161	6498.72
492.365	6396.32
492.569	6386.08
492.772	6465.95
492.976	6607.26
493.18	6607.26
493.383	6658.46
493.587	6697.37
493.79	6693.27
493.994	6486.43
494.197	6760.86
494.401	6713.75
494.605	6867.35
494.808	7043.48
495.012	7057.81
495.215	7023
495.419	7039.38
495.622	6891.93
495.825	7125.4
496.029	7082.39
496.232	7311.76
496.436	7143.83
496.639	7440.78
496.843	7373.2
497.046	7631.24
497.249	7571.85
497.453	7647.63
497.656	7795.08
497.859	7862.66
498.063	7950.73
498.266	8114.56
498.469	8051.08
498.673	8151.43
498.876	8221.06
499.079	8329.6
499.282	8503.68
499.485	8628.6
499.689	8737.15
499.892	8757.63
500.095	8798.59
500.298	9003.38
500.501	8903.03
500.705	8917.37
500.908	9306.48
501.111	9433.46
501.314	9501.04
501.517	9804.14
501.72	9955.69
501.923	9591.15
502.126	9902.44
502.329	10076.52
502.532	9963.88
502.735	10504.54
502.938	10410.34
503.141	10602.85
503.344	10715.48
503.547	10707.29
503.75	10938.71
503.953	10975.58
504.156	11245.91
504.359	11635.02
504.562	11407.7
504.765	11704.65
504.968	11952.46
505.17	12022.09
505.373	11946.31
505.576	12147.01
505.779	12351.81
505.982	12525.89
506.185	12876.09
506.387	12695.87
506.59	12775.74
506.793	13207.86
506.996	13396.28
507.198	13705.52
507.401	13484.34
507.604	13586.74
507.807	14022.95
508.009	14051.63
508.212	14237.99
508.415	14493.99
508.617	14549.28
508.82	14534.95
509.022	14493.99
509.225	15116.57
509.428	15347.99
509.63	15454.48
509.833	15587.6
510.035	16068.87
510.238	15714.58
510.44	16363.78
510.643	16486.66
510.845	16601.35
511.048	16621.83
511.25	16832.77
511.453	17260.79
511.655	17774.83
511.858	17289.46
512.06	17780.98
512.262	17848.56
512.465	18006.25
512.667	18430.18
512.87	18440.42
513.072	18465
513.274	19224.79
513.477	19005.66
513.679	19044.57
513.881	19701.97
514.084	19925.2
514.286	19847.38
514.488	19966.16
514.69	20818.11
514.893	20799.68
515.095	21000.38
515.297	21225.66
515.499	21133.5
515.701	21364.92
515.904	21829.81
516.106	21807.28
516.308	22192.3
516.51	22530.22
516.712	22694.05
516.914	22954.15
517.116	23455.9
517.318	23318.68
517.52	23539.86
517.722	23750.81
517.925	24055.95
518.127	24287.37
518.329	24467.59
518.531	24578.18
518.733	25088.13
518.935	25200.77
519.136	25405.56
519.338	25729.14
519.54	25960.56
519.742	25956.47
519.944	26509.42
520.146	26609.77
520.348	26816.61
520.55	26931.3
520.752	27005.03
520.954	27854.93
521.155	27557.98
521.357	28434.51
521.559	28526.67
521.761	28670.03
521.963	28506.19
522.164	28649.55
522.366	29042.76
522.568	29558.84
522.77	29542.46
522.971	30122.04
523.173	29710.39
523.375	30163
523.576	30015.54
523.778	30533.68
523.98	30937.13
524.181	31082.53
524.383	30887.98
524.584	31285.28
524.786	31686.68
524.988	31494.18
525.189	31686.68
525.391	32086.04
525.592	32296.98
525.794	32595.98
525.995	32608.27
526.197	32247.83
526.398	32882.7
526.6	32970.76
526.801	33386.5
527.003	32874.51
527.204	33333.25
527.406	33755.13
527.607	33820.67
527.808	34439.15
528.01	33521.66
528.211	33931.26
528.412	34895.85
528.614	34136.06
528.815	34361.33
529.016	34828.27
529.218	34457.59
529.419	34451.44
529.62	34902
529.822	34764.78
530.023	34961.39
530.224	35006.44
530.425	34691.05
530.626	35082.22
530.828	35176.42
531.029	35786.72
531.23	35157.99
531.431	35434.47
531.632	35577.83
531.833	35612.64
532.035	35731.42
532.236	35635.17
532.437	35825.63
532.638	35659.74
532.839	35889.12
533.04	36040.67
533.241	35461.09
533.442	36511.7
533.643	35882.97
533.844	36126.68
534.045	36116.44
534.246	35891.16
534.447	36427.73
534.648	35786.72
534.849	36196.31
535.05	35772.38
535.251	36356.05
535.451	35696.61
535.652	36122.58
535.853	36446.16
536.054	36233.18
536.255	36478.93
536.456	35942.36
536.657	36655.06
536.857	36145.11
537.058	36112.34
537.259	36855.76
537.46	36667.34
537.66	36233.18
537.861	36468.69
538.062	36669.39
538.263	36317.14
538.463	36169.69
538.664	36153.3
538.865	36421.59
539.065	36552.66
539.266	36059.1
539.466	36614.1
539.667	36034.52
539.868	36620.24
540.068	36294.61
540.269	36544.47
540.469	36595.67
540.67	36298.71
540.87	36581.33
541.071	36227.03
541.271	36605.91
541.472	36540.37
541.672	36503.51
541.873	36405.2
542.073	36040.67
542.274	36753.36
542.474	36351.96
542.675	35878.88
542.875	36597.71
543.075	36323.29
543.276	36212.7
543.476	36761.55
543.676	36272.09
543.877	36446.16
544.077	36513.75
544.277	36540.37
544.478	36585.43
544.678	36437.97
544.878	36444.12
545.078	36204.5
545.279	36321.24
545.479	36233.18
545.679	36773.84
545.879	36083.67
546.079	36599.76
546.28	36110.3
546.48	36261.85
546.68	36599.76
546.88	36659.15
547.08	36440.02
547.28	36267.99
547.48	36300.76
547.68	36452.31
547.88	36253.65
548.081	36569.04
548.281	36366.29
548.481	36372.44
548.681	36730.83
548.881	36380.63
549.081	36659.15
549.28	36589.52
549.48	36671.44
549.68	36736.98
549.88	37218.25
550.08	36403.16
550.28	36540.37
550.48	36388.82
550.68	36763.6
550.88	36661.2
551.08	36413.4
551.279	36587.47
551.479	36462.55
551.679	36610
551.879	35897.31
552.079	36743.12
552.278	36122.58
552.478	36034.52
552.678	36294.61
552.878	36276.18
553.077	36321.24
553.277	36265.94
553.477	36378.58
553.676	35952.6
553.876	36147.16
554.076	36280.28
554.275	36165.59
554.475	36091.87
554.674	36149.21
554.874	36501.46
555.074	35901.4
555.273	36196.31
555.473	36136.92
555.672	35923.93
555.872	35979.23
556.071	35995.61
556.271	35987.42
556.47	35672.03
556.67	35471.33
556.869	35477.47
557.068	35938.27
557.268	35336.16
557.467	36095.96
557.667	35669.98
557.866	35821.53
558.065	35291.11
558.265	35366.88
558.464	35268.58
558.663	35592.16
558.863	35131.37
559.062	36014.04
559.261	34967.53
559.461	35674.08
559.66	34867.18
559.859	35041.26
560.058	35125.22
560.258	35301.35
560.457	34805.74
560.656	35291.11
560.855	34441.2
561.054	35157.99
561.253	34541.55
561.453	34887.66
561.652	34965.48
561.851	34940.91
562.05	34805.74
562.249	34410.48
562.448	35059.69
562.647	34619.38
562.846	34494.45
563.045	34869.23
563.244	34023.42
563.443	34861.04
563.642	34451.44
563.841	34211.83
564.04	33873.92
564.239	34437.11
564.438	34027.51
564.637	34025.46
564.836	34510.83
565.035	33781.76
565.234	34433.01
565.432	33982.46
565.631	34217.97
565.83	33824.76
566.029	33734.65
566.228	33558.53
566.427	33523.71
566.625	33597.44
566.824	33007.62
567.023	33429.51
567.222	32999.43
567.42	33316.87
567.619	33257.48
567.818	33628.16
568.016	33048.58
568.215	33452.03
568.414	33193.99
568.612	33204.23
568.811	32798.73
569.01	32835.59
569.208	32741.39
569.407	32886.79
569.605	32624.65
569.804	32634.89
570.002	32286.74
570.201	32864.27
570.4	32163.86
570.598	32362.51
570.797	32133.14
570.995	31948.82
571.193	31768.6
571.392	32376.85
571.59	31639.58
571.789	31756.32
571.987	31582.24
572.186	31717.4
572.384	31414.3
572.582	31635.49
572.781	31748.12
572.979	30926.89
573.177	31494.18
573.376	31195.17
573.574	31084.58
573.772	30965.8
573.971	31041.57
574.169	30523.44
574.367	30523.44
574.565	31068.2
574.763	30509.1
574.962	30521.39
575.16	30384.18
575.358	30539.82
575.556	29997.11
575.754	30666.8
575.952	29927.48
576.151	30507.05
576.349	29775.93
576.547	29866.04
576.745	29788.22
576.943	29986.87
577.141	29716.54
577.339	29378.62
577.537	29472.83
577.735	29507.65
577.933	29024.33
578.131	29366.34
578.329	28958.79
578.527	28852.3
578.725	28930.12
578.923	29335.62
579.121	28885.06
579.319	28786.76
579.516	29071.43
579.714	28403.79
579.912	28694.6
580.11	28352.59
580.308	28571.72
580.506	28160.08
580.704	28201.04
580.901	28110.93
581.099	28309.58
581.297	28119.12
581.495	27783.26
581.692	27940.95
581.89	27859.03
582.088	27877.46
582.285	27594.84
582.483	27662.43
582.681	27381.85
582.878	27287.65
583.076	27111.52
583.274	27566.17
583.471	26929.25
583.669	26968.16
583.866	27297.89
584.064	27224.16
584.262	26716.26
584.459	27037.8
584.657	26509.42
584.854	26931.3
585.052	26423.4
585.249	26589.29
585.447	26452.08
585.644	26122.35
585.841	26052.72
586.039	26591.34
586.236	26015.86
586.434	25872.5
586.631	25874.55
586.828	25790.58
587.026	25929.84
587.223	25809.01
587.42	25727.1
587.618	25503.87
587.815	25571.45
588.012	25659.51
588.21	25311.36
588.407	25362.56
588.604	25217.15
588.801	25096.32
588.999	25245.82
589.196	24932.48
589.393	25168
589.59	24637.58
589.787	24801.41
589.984	24869
590.182	24453.26
590.379	24766.6
590.576	24510.6
590.773	24467.59
590.97	24180.88
591.167	24557.71
591.364	24131.73
591.561	23937.17
591.758	24062.1
591.955	23941.27
592.152	24127.63
592.349	23656.6
592.546	23990.42
592.743	23910.55
592.94	23509.15
593.137	23654.55
593.334	23531.67
593.531	23427.23
593.727	23242.91
593.924	23752.85
594.121	23273.63
594.318	23079.07
594.515	23074.98
594.712	23294.11
594.908	23277.72
595.105	22874.27
595.302	22743.2
595.499	22933.67
595.696	23009.44
595.892	22780.07
596.089	22683.81
596.286	22497.45
596.482	22491.3
596.679	22724.77
596.876	22413.48
597.072	22491.3
597.269	22165.68
597.466	22141.1
597.662	22149.29
597.859	22378.67
598.055	22118.57
598.252	21997.74
598.448	21911.73
598.645	21924.02
598.841	21782.71
599.038	21891.25
599.234	21582.01
599.431	21305.53
599.627	21305.53
599.824	21594.29
600.02	21268.67
600.217	21356.73
600.413	21047.49
600.609	20977.86
600.806	20971.71
601.002	21143.74
601.198	20955.33
601.395	20908.22
601.591	20857.03
601.787	20799.68
601.984	20742.34
602.18	20969.66
602.376	20721.86
602.572	20648.13
602.769	20562.12
602.965	20181.2
603.161	20609.22
603.357	20345.03
603.553	20181.2
603.75	20238.54
603.946	20007.12
604.142	20134.09
604.338	19804.37
604.534	19851.47
604.73	19581.14
604.926	19978.45
605.122	20111.57
605.318	19583.19
605.514	19618
605.71	19575
605.906	19331.29
606.102	19345.62
606.298	19402.97
606.494	19022.05
606.69	19321.05
606.886	19132.64
607.082	18958.56
607.278	18895.07
607.474	18948.32
607.67	19083.48
607.866	18753.76
608.062	18923.74
608.257	18770.15
608.453	18735.33
608.649	19044.57
608.845	18317.54
609.041	18522.34
609.236	18505.96
609.432	18551.01
609.628	18497.77
609.824	18465
610.019	18264.3
610.215	18446.57
610.411	18452.71
610.606	18047.21
610.802	17926.38
610.998	17866.99
611.193	18092.27
611.389	17955.05
611.584	17670.39
611.78	17961.2
611.976	17686.77
612.171	17651.95
612.367	17830.13
612.562	17553.65
612.758	17342.71
612.953	17465.59
613.149	17340.66
613.344	17297.66
613.539	17567.99
613.735	17318.14
613.93	17324.28
614.126	17158.39
614.321	17447.16
614.517	17199.35
614.712	17166.59
614.907	17056
615.103	17002.75
615.298	16949.5
615.493	17131.77
615.688	16859.39
615.884	17092.86
616.079	16613.63
616.274	16947.45
616.47	16814.34
616.665	16814.34
616.86	16587.01
617.055	16560.39
617.25	16484.61
617.445	16480.52
617.641	16214.28
617.836	16556.29
618.031	16232.71
618.226	16380.17
618.421	15972.62
618.616	16316.68
618.811	15931.66
619.006	16351.49
619.201	15986.96
619.396	16015.63
619.591	15790.35
619.786	15692.05
619.981	15636.75
620.176	15773.97
620.371	15196.44
620.566	15802.64
620.761	15368.47
620.956	15386.9
621.151	15087.9
621.346	15180.06
621.541	15051.03
621.735	15339.8
621.93	14962.97
622.125	15089.95
622.32	14545.19
622.515	14895.39
622.709	14838.05
622.904	14580
623.099	14473.51
623.294	14530.85
623.488	14389.54
623.683	14336.29
623.878	14199.08
624.072	14115.11
624.267	14020.91
624.462	13963.56
624.656	13596.98
624.851	14049.58
625.046	13809.97
625.24	13744.43
625.435	13654.32
625.629	13580.59
625.824	13658.42
626.018	13441.33
626.213	13177.14
626.407	13449.52
626.602	12923.19
626.796	13201.72
626.991	13113.66
627.185	13132.09
627.38	13066.55
627.574	12929.34
627.768	12654.91
627.963	12869.95
628.157	12749.12
628.352	12675.39
628.546	12474.69
628.74	12712.25
628.935	12261.7
629.129	12446.02
629.323	12058.95
629.517	12454.21
629.712	12101.96
629.906	11962.7
630.1	12005.7
630.294	12087.62
630.489	11772.24
630.683	11751.76
630.877	11510.1
631.071	11817.29
631.265	11721.04
631.459	11620.69
631.653	11600.21
631.848	11565.39
632.042	11178.33
632.236	11479.38
632.43	11333.97
632.624	11428.18
632.818	11163.99
633.012	11127.13
633.206	10928.47
633.4	11090.26
633.594	10672.48
633.788	11108.69
633.982	10850.65
634.176	10828.12
634.369	10754.4
634.563	10672.48
634.757	10690.91
634.951	10496.35
635.145	10631.52
635.339	10451.3
635.533	10424.67
635.726	10140.01
635.92	10250.6
636.114	10340.71
636.308	10336.61
636.501	10068.33
636.695	10127.72
636.889	9994.6
637.083	10125.67
637.276	9996.65
637.47	9843.05
637.664	9777.51
637.857	9843.05
638.051	9601.39
638.244	9580.91
638.438	9570.67
638.632	9597.29
638.825	9427.31
639.019	9552.24
639.212	9339.25
639.406	9245.04
639.599	9369.97
639.793	9288.05
639.986	8995.19
640.18	9144.69
640.373	9085.3
640.567	8954.23
640.76	9191.8
640.954	8814.97
641.147	8913.27
641.34	8866.17
641.534	8874.36
641.727	8751.48
641.92	8679.8
642.114	8659.32
642.307	8640.89
642.5	8507.77
642.694	8638.84
642.887	8411.52
643.08	8472.96
643.273	8360.32
643.467	8393.09
643.66	8200.58
643.853	8130.95
644.046	8173.96
644.239	8069.51
644.432	7891.34
644.626	7952.77
644.819	8003.97
645.012	7991.69
645.205	7758.22
645.398	7780.75
645.591	7651.72
645.784	7604.62
645.977	7637.39
646.17	7582.09
646.363	7586.19
646.556	7520.65
646.749	7389.58
646.942	7487.89
647.135	7293.33
647.328	7473.55
647.521	7094.68
647.714	7235.99
647.907	7149.97
648.099	7205.27
648.292	7031.19
648.485	6975.89
648.678	6828.44
648.871	7033.24
649.064	6971.8
649.256	6926.74
649.449	6928.79
649.642	6820.25
649.835	6769.05
650.027	6740.38
650.22	6607.26
650.413	6640.03
650.605	6648.22
650.798	6511
650.991	6504.86
651.183	6586.78
651.376	6302.11
651.568	6410.65
651.761	6453.66
651.954	6545.82
652.146	6386.08
652.339	6250.91
652.531	6242.72
652.724	6199.71
652.916	6042.02
653.109	5988.77
653.301	6205.86
653.494	6001.06
653.686	6039.97
653.879	5923.24
654.071	5943.72
654.263	6044.07
654.456	5820.84
654.648	5874.09
654.84	5695.91
655.033	5718.44
655.225	5603.75
655.417	5527.98
655.61	5689.77
655.802	5480.88
655.994	5609.9
656.186	5620.14
656.379	5552.56
656.571	5591.47
656.763	5362.09
656.955	5333.42
657.148	5478.83
657.34	5349.81
657.532	5132.72
657.724	5394.86
657.916	5132.72
658.108	5200.3
658.3	5108.15
658.492	5163.44
658.684	5134.77
658.876	4993.46
659.068	4886.97
659.26	4960.69
659.452	4837.81
659.644	4917.68
659.836	4927.92
660.028	4954.55
660.22	4669.88
660.412	4768.18
660.604	4807.09
660.796	4923.83
660.988	4665.78
661.18	4530.62
661.372	4719.03
661.563	4710.84
661.755	4583.87
661.947	4487.61
662.139	4536.76
662.331	4303.29
662.522	4366.78
662.714	4415.93
662.906	4344.25
663.097	4354.49
663.289	4374.97
663.481	4319.68
663.673	4209.09
663.864	4340.16
664.056	4186.56
664.247	4217.28
664.439	4100.55
664.631	4200.9
664.822	4118.98
665.014	4106.69
665.205	4174.27
665.397	4039.11
665.588	3979.72
665.78	3961.28
665.971	4075.97
666.163	3946.95
666.354	4035.01
666.546	3932.61
666.737	3848.65
666.929	3895.75
667.12	3756.49
667.311	3912.13
667.503	3799.49
667.694	3905.99
667.885	3772.87
668.077	3684.81
668.268	3586.51
668.459	3672.52
668.651	3617.22
668.842	3666.38
669.033	3563.98
669.224	3563.98
669.416	3525.07
669.607	3568.07
669.798	3434.96
669.989	3635.66
670.18	3557.83
670.371	3553.74
670.563	3310.03
670.754	3506.63
670.945	3488.2
671.136	3334.61
671.327	3373.52
671.518	3420.62
671.709	3367.37
671.9	3389.9
672.091	3310.03
672.282	3389.9
672.473	3363.28
672.664	3346.89
672.855	3289.55
673.046	3238.35
673.237	3320.27
673.428	3224.01
673.619	3344.84
673.809	3144.14
674	3193.3
674.191	3211.73
674.382	3246.54
674.573	3070.42
674.764	3148.24
674.954	3207.63
675.145	3146.19
675.336	3070.42
675.527	3086.8
675.717	3113.42
675.908	3092.94
676.099	2970.07
676.289	3017.17
676.48	2920.92
676.671	3066.32
676.861	2992.59
677.052	3043.79
677.243	2984.4
677.433	3060.18
677.624	2894.29
677.814	3025.36
678.005	3002.83
678.195	2879.96
678.386	3021.27
678.576	2931.16
678.767	2945.49
678.957	2978.26
679.148	2843.09
679.338	2927.06
679.529	2896.34
679.719	2814.42
679.909	2863.57
680.1	2863.57
680.29	2939.35
680.481	2914.77
680.671	2810.33
680.861	2851.28
681.052	2738.65
681.242	2814.42
681.432	2808.28
681.622	2789.85
681.813	2709.97
682.003	2709.97
682.193	2785.75
682.383	2767.32
682.573	2720.21
682.764	2691.54
682.954	2785.75
683.144	2791.89
683.334	2699.73
683.524	2714.07
683.714	2763.22
683.904	2695.64
684.094	2734.55
684.284	2734.55
684.474	2810.33
684.664	2732.5
684.854	2769.37
685.044	2773.46
685.234	2781.65
685.424	2761.17
685.614	2621.91
685.804	2714.07
685.994	2703.83
686.184	2615.77
686.374	2679.26
686.564	2529.75
686.753	2658.78
686.943	2652.63
687.133	2691.54
687.323	2605.53
687.513	2574.81
687.702	2662.87
687.892	2621.91
688.082	2724.31
688.272	2634.2
688.461	2652.63
688.651	2550.23
688.841	2607.58
689.03	2531.8
689.22	2527.71
689.41	2552.28
689.599	2638.3
689.789	2564.57
689.979	2628.06
690.168	2580.95
690.358	2572.76
690.547	2529.75
690.737	2664.92
690.926	2509.27
691.116	2585.05
691.305	2660.82
691.495	2603.48
691.684	2408.92
691.874	2662.87
692.063	2544.09
692.252	2580.95
692.442	2591.19
692.631	2449.88
692.82	2519.51
693.01	2583
693.199	2488.79
693.388	2546.14
693.578	2486.75
693.767	2542.04
693.956	2550.23
694.146	2417.12
694.335	2550.23
694.524	2546.14
694.713	2462.17
694.902	2550.23
695.092	2378.2
695.281	2482.65
695.47	2544.09
695.659	2503.13
695.848	2554.33
696.037	2537.95
696.226	2451.93
696.415	2466.27
696.604	2415.07
696.793	2445.79
696.982	2429.4
697.171	2499.03
697.36	2533.85
697.549	2419.16
697.738	2486.75
697.927	2472.41
698.116	2494.94
698.305	2503.13
698.494	2513.37
698.683	2408.92
698.872	2544.09
699.061	2419.16
699.25	2441.69
699.438	2423.26
699.627	2382.3
699.816	2427.35
700.005	2546.14
700.193	2447.83
700.382	2505.18
700.571	2415.07
700.76	2453.98
700.948	2386.4
701.137	2509.27
701.326	2329.05
701.514	2392.54
701.703	2343.39
701.892	2460.12
702.08	2343.39
702.269	2300.38
702.457	2425.31
702.646	2296.28
702.834	2374.11
703.023	2394.59
703.212	2306.52
703.4	2296.28
703.589	2406.88
703.777	2259.42
703.965	2394.59
704.154	2324.96
704.342	2314.72
704.531	2234.85
704.719	2257.37
704.907	2394.59
705.096	2234.85
705.284	2193.89
705.472	2314.72
705.661	2308.57
705.849	2345.44
706.037	2197.98
706.226	2347.48
706.414	2208.22
706.602	2267.61
706.79	2214.37
706.979	2202.08
707.167	2269.66
707.355	2165.21
707.543	2202.08
707.731	2249.18
707.919	2292.19
708.107	2093.54
708.296	2056.67
708.484	2148.83
708.672	2132.45
708.86	2163.17
709.048	2083.3
709.236	2036.19
709.424	2019.81
709.612	2109.92
709.8	2144.74
709.988	2019.81
710.176	2097.63
710.364	2068.96
710.551	2120.16
710.739	2058.72
710.927	2007.52
711.115	2013.67
711.303	2028
711.491	1970.66
711.679	2056.67
711.866	2087.39
712.054	1999.33
712.242	1970.66
712.43	2021.86
712.617	2071.01
712.805	1915.36
712.993	2015.71
713.181	1960.42
713.368	1999.33
713.556	2034.14
713.744	1939.94
713.931	1960.42
714.119	1974.75
714.306	1952.23
714.494	2054.62
714.682	1909.22
714.869	1960.42
715.057	1860.07
715.244	1901.03
715.432	1827.3
715.619	1915.36
715.807	1774.05
715.994	1862.12
716.182	1841.64
716.369	1880.55
716.556	1884.64
716.744	1815.01
716.931	1821.16
717.119	1827.3
717.306	1810.92
717.493	1851.88
717.681	1714.66
717.868	1776.1
718.055	1685.99
718.242	1808.87
718.43	1706.47
718.617	1784.29
718.804	1751.53
718.991	1765.86
719.179	1710.57
719.366	1673.7
719.553	1722.85
719.74	1614.31
719.927	1712.61
720.114	1632.74
720.301	1645.03
720.488	1651.17
720.676	1595.88
720.863	1589.74
721.05	1663.46
721.237	1669.61
721.424	1546.73
721.611	1479.15
721.798	1685.99
721.985	1511.91
722.172	1718.76
722.358	1571.3
722.545	1511.91
722.732	1561.06
722.919	1565.16
723.106	1649.13
723.293	1710.57
723.48	1604.07
723.667	1446.38
723.853	1429.99
724.04	1563.11
724.227	1481.19
724.414	1571.3
724.6	1548.78
724.787	1497.58
724.974	1575.4
725.161	1532.39
725.347	1460.71
725.534	1546.73
725.72	1456.62
725.907	1520.1
726.094	1483.24
726.28	1522.15
726.467	1532.39
726.653	1411.56
726.84	1485.29
727.027	1454.57
727.213	1438.19
727.4	1380.84
727.586	1460.71
727.773	1374.7
727.959	1356.27
728.145	1460.71
728.332	1372.65
728.518	1384.94
728.705	1470.95
728.891	1384.94
729.077	1413.61
729.264	1436.14
729.45	1413.61
729.636	1372.65
729.823	1341.93
730.009	1372.65
730.195	1339.88
730.382	1415.66
730.568	1317.36
730.754	1303.02
730.94	1303.02
731.126	1329.64
731.313	1397.23
731.499	1343.98
731.685	1227.25
731.871	1276.4
732.057	1309.16
732.243	1341.93
732.429	1341.93
732.615	1315.31
732.801	1335.79
732.987	1178.09
733.173	1294.83
733.359	1337.84
733.545	1298.92
733.731	1247.72
733.917	1290.73
734.103	1307.12
734.289	1251.82
734.475	1225.2
734.661	1300.97
734.847	1253.87
735.033	1233.39
735.219	1147.37
735.404	1229.29
735.59	1300.97
735.776	1288.68
735.962	1155.57
736.148	1253.87
736.333	1192.43
736.519	1165.81
736.705	1178.09
736.89	1159.66
737.076	1145.33
737.262	1178.09
737.447	1126.89
737.633	1135.09
737.819	1161.71
738.004	1149.42
738.19	1147.37
738.375	1087.98
738.561	1108.46
738.747	1118.7
738.932	1104.37
739.118	1200.62
739.303	1083.89
739.489	1139.18
739.674	1075.7
739.859	1057.26
740.045	1182.19
740.23	1149.42
740.416	1014.26
740.601	1073.65
740.786	1008.11
740.972	1030.64
741.157	1169.9
741.342	1034.74
741.528	1042.93
741.713	1059.31
741.898	987.63
742.084	1061.36
742.269	1137.13
742.454	1018.35
742.639	1030.64
742.824	1092.08
743.01	895.47
743.195	1090.03
743.38	1032.69
743.565	987.63
743.75	1026.54
743.935	948.72
744.12	1014.26
744.305	1016.3
744.49	987.63
744.675	1028.59
744.86	1001.97
745.045	983.54
745.23	907.76
745.415	887.28
745.6	782.84
745.785	963.06
745.97	897.52
746.155	940.53
746.34	922.1
746.525	973.3
746.71	915.95
746.895	903.67
747.079	956.91
747.264	932.34
747.449	893.43
747.634	874.99
747.819	870.9
748.003	891.38
748.188	856.56
748.373	856.56
748.557	856.56
748.742	840.18
748.927	784.88
749.111	854.51
749.296	813.56
749.481	836.08
749.665	760.31
749.85	776.69
750.034	809.46
750.219	762.36
750.404	817.65
750.588	891.38
750.773	825.84
750.957	825.84
751.141	774.64
751.326	774.64
751.51	748.02
751.695	793.08
751.879	672.25
752.064	737.78
752.248	735.73
752.432	717.3
752.617	801.27
752.801	768.5
752.985	700.92
753.17	780.79
753.354	739.83
753.538	737.78
753.722	772.6
753.907	750.07
754.091	707.06
754.275	733.68
754.459	692.73
754.643	715.25
754.828	702.97
755.012	725.49
755.196	655.86
755.38	651.77
755.564	614.9
755.748	623.09
755.932	735.73
756.116	655.86
756.3	684.53
756.484	690.68
756.668	580.09
756.852	678.39
757.036	608.76
757.22	580.09
757.404	586.23
757.588	645.62
757.772	602.61
757.956	537.08
758.14	580.09
758.323	604.66
758.507	629.24
758.691	678.39
758.875	573.94
759.059	629.24
759.242	645.62
759.426	647.67
759.61	551.42
759.794	608.76
759.977	502.26
760.161	602.61
760.345	631.29
760.528	559.61
760.712	600.57
760.895	551.42
761.079	580.09
761.263	551.42
761.446	535.03
761.63	571.9
761.813	532.98
761.997	541.18
762.18	567.8
762.364	582.14
762.547	514.55
762.731	553.46
762.914	514.55
763.098	483.83
763.281	471.54
763.464	410.11
763.648	602.61
763.831	596.47
764.015	510.46
764.198	526.84
764.381	455.16
764.564	483.83
764.748	541.18
764.931	541.18
765.114	514.55
765.297	473.59
765.481	555.51
765.664	496.12
765.847	457.21
766.03	471.54
766.213	477.69
766.397	434.68
766.58	506.36
766.763	524.79
766.946	510.46
767.129	541.18
767.312	371.19
767.495	498.17
767.678	532.98
767.861	500.22
768.044	449.02
768.227	440.83
768.41	455.16
768.593	528.89
768.776	471.54
768.959	512.5
769.142	451.07
769.324	516.6
769.507	438.78
769.69	432.63
769.873	424.44
770.056	506.36
770.239	481.78
770.421	434.68
770.604	457.21
770.787	481.78
770.97	518.65
771.152	424.44
771.335	440.83
771.518	379.39
771.7	416.25
771.883	506.36
772.066	455.16
772.248	442.87
772.431	399.87
772.613	494.07
772.796	440.83
772.978	473.59
773.161	539.13
773.343	473.59
773.526	367.1
773.708	414.2
773.891	367.1
774.073	373.24
774.256	410.11
774.438	479.74
774.621	397.82
774.803	422.39
774.985	406.01
775.168	397.82
775.35	463.35
775.532	442.87
775.715	399.87
775.897	377.34
776.079	340.47
776.261	303.61
776.444	354.81
776.626	399.87
776.808	334.33
776.99	397.82
777.173	356.86
777.355	360.95
777.537	422.39
777.719	356.86
777.901	377.34
778.083	494.07
778.265	383.48
778.447	350.71
778.629	279.04
778.811	455.16
778.993	371.19
779.175	393.72
779.357	303.61
779.539	324.09
779.721	340.47
779.903	387.58
780.085	311.8
780.267	295.42
780.449	340.47
780.631	375.29
780.812	342.52
780.994	293.37
781.176	317.95
781.358	369.15
781.54	254.46
781.721	295.42
781.903	307.71
782.085	274.94
782.267	283.13
782.448	315.9
782.63	276.99
782.812	324.09
782.993	313.85
783.175	287.23
783.357	233.98
783.538	287.23
783.72	295.42
783.901	262.65
784.083	324.09
784.264	293.37
784.446	219.64
784.627	270.84
784.809	307.71
784.99	346.62
785.172	283.13
785.353	305.66
785.535	225.79
785.716	236.03
785.897	287.23
786.079	317.95
786.26	268.8
786.441	274.94
786.623	240.12
786.804	242.17
786.985	258.56
787.167	285.18
787.348	238.08
787.529	309.76
787.71	233.98
787.891	268.8
788.073	221.69
788.254	279.04
788.435	252.41
788.616	178.69
788.797	240.12
788.978	248.32
789.159	211.45
789.34	289.28
789.522	272.89
789.703	238.08
789.884	231.93
790.065	270.84
790.246	229.88
790.427	242.17
790.607	283.13
790.788	315.9
790.969	156.16
791.15	178.69
791.331	172.54
791.512	258.56
791.693	174.59
791.874	233.98
792.054	303.61
792.235	201.21
792.416	135.68
792.597	197.12
792.778	203.26
792.958	193.02
793.139	180.73
793.32	178.69
793.5	225.79
793.681	260.6
793.862	256.51
794.042	184.83
794.223	137.73
794.404	170.49
794.584	162.3
794.765	150.01
794.945	135.68
795.126	160.25
795.306	221.69
795.487	152.06
795.667	233.98
795.848	199.16
796.028	166.4
796.209	160.25
796.389	150.01
796.57	96.77
796.75	160.25
796.93	205.31
797.111	141.82
797.291	215.55
797.471	170.49
797.652	164.35
797.832	96.77
798.012	279.04
798.192	152.06
798.373	184.83
798.553	158.21
798.733	168.45
798.913	137.73
799.093	217.6
799.274	109.05
799.454	184.83
799.634	156.16
799.814	203.26
799.994	139.77
800.174	145.92
800.354	137.73
800.534	231.93
800.714	96.77
800.894	143.87
801.074	139.77
801.254	109.05
801.434	152.06
801.614	197.12
801.794	127.49
801.974	399.87
802.154	119.29
802.334	205.31
802.514	193.02
802.693	111.1
802.873	158.21
803.053	147.97
803.233	100.86
803.413	154.11
803.592	61.95
803.772	141.82
803.952	96.77
804.131	82.43
804.311	141.82
804.491	156.16
804.67	162.3
804.85	88.57
805.03	123.39
805.209	172.54
805.389	135.68
805.568	41.47
805.748	109.05
805.928	119.29
806.107	53.76
806.287	170.49
806.466	133.63
806.646	143.87
806.825	86.53
807.004	98.81
807.184	119.29
807.363	154.11
807.543	117.25
807.722	82.43
807.901	102.91
808.081	147.97
808.26	109.05
808.439	145.92
808.619	82.43
808.798	176.64
808.977	135.68
809.156	121.34
809.336	160.25
809.515	92.67
809.694	53.76
809.873	57.86
810.052	86.53
810.231	127.49
810.411	107.01
810.59	100.86
810.769	82.43
810.948	76.29
811.127	113.15
811.306	51.71
811.485	139.77
811.664	164.35
811.843	131.58
812.022	98.81
812.201	121.34
812.38	96.77
812.559	92.67
812.737	92.67
812.916	160.25
813.095	76.29
813.274	104.96
813.453	84.48
813.632	72.19
813.811	176.64
813.989	94.72
814.168	68.09
814.347	82.43
814.526	64
814.704	170.49
814.883	82.43
815.062	78.33
815.24	90.62
815.419	154.11
815.598	147.97
815.776	70.14
815.955	78.33
816.133	84.48
816.312	131.58
816.49	51.71
816.669	94.72
816.847	113.15
817.026	119.29
817.204	143.87
817.383	111.1
817.561	102.91
817.74	123.39
817.918	102.91
818.097	102.91
818.275	145.92
818.453	72.19
818.632	86.53
818.81	137.73
818.988	41.47
819.167	127.49
819.345	35.33
819.523	117.25
819.701	123.39
819.879	135.68
820.058	139.77
820.236	49.66
820.414	12.8
820.592	111.1
820.77	113.15
820.948	84.48
821.127	80.38
821.305	92.67
821.483	123.39
821.661	80.38
821.839	-24.06
822.017	82.43
822.195	76.29
822.373	96.77
822.551	29.18
822.729	78.33
822.907	119.29
823.085	43.52
823.262	76.29
823.44	88.57
823.618	111.1
823.796	23.04
823.974	29.18
824.152	84.48
824.329	145.92
824.507	100.86
824.685	53.76
824.863	94.72
825.04	43.52
825.218	104.96
825.396	53.76
825.574	102.91
825.751	121.34
825.929	158.21
826.107	51.71
826.284	84.48
826.462	53.76
826.639	66.05
826.817	92.67
826.994	80.38
827.172	41.47
827.349	25.09
827.527	59.9
827.704	16.9
827.882	123.39
828.059	-36.35
828.237	20.99
828.414	96.77
828.591	39.42
828.769	80.38
828.946	72.19
829.124	45.57
829.301	111.1
829.478	45.57
829.655	37.38
829.833	-30.21
830.01	53.76
830.187	94.72
830.364	20.99
830.542	33.28
830.719	84.48
830.896	86.53
831.073	98.81
831.25	2.56
831.427	72.19
831.604	45.57
831.782	78.33
831.959	29.18
832.136	25.09
832.313	8.7
832.49	66.05
832.667	55.81
832.844	20.99
833.021	82.43
833.198	94.72
833.374	113.15
833.551	94.72
833.728	-3.58
833.905	45.57
834.082	57.86
834.259	78.33
834.436	-7.68
834.612	74.24
834.789	135.68
834.966	76.29
835.143	57.86
835.319	-13.82
835.496	80.38
835.673	78.33
835.85	31.23
836.026	12.8
836.203	129.53
836.38	25.09
836.556	39.42
836.733	8.7
836.909	82.43
837.086	53.76
837.262	20.99
837.439	107.01
837.616	53.76
837.792	98.81
837.968	82.43
838.145	-3.58
838.321	61.95
838.498	61.95
838.674	-28.16
838.851	45.57
839.027	57.86
839.203	104.96
839.38	23.04
839.556	59.9
839.732	57.86
839.909	14.85
840.085	57.86
840.261	12.8
840.437	68.09
840.614	119.29
840.79	68.09
840.966	-44.54
841.142	145.92
841.318	12.8
841.494	23.04
841.671	113.15
841.847	82.43
842.023	72.19
842.199	104.96
842.375	6.66
842.551	31.23
842.727	29.18
842.903	68.09
843.079	18.94
843.255	70.14
843.431	102.91
843.607	47.62
843.783	27.14
843.959	82.43
844.134	82.43
844.31	55.81
844.486	61.95
844.662	66.05
844.838	43.52
845.013	102.91
845.189	-28.16
845.365	4.61
845.541	10.75
845.716	88.57
845.892	-44.54
846.068	80.38
846.244	-34.3
846.419	43.52
846.595	16.9
846.77	12.8
846.946	76.29
847.122	33.28
847.297	6.66
847.473	59.9
847.648	33.28
847.824	64
847.999	14.85
848.175	82.43
848.35	39.42
848.526	43.52
848.701	72.19
848.876	33.28
849.052	-5.63
849.227	109.05
849.403	16.9
849.578	109.05
849.753	20.99
849.929	59.9
850.104	51.71
850.279	-26.11
850.454	4.61
850.63	104.96
850.805	25.09
850.98	61.95
851.155	-5.63
851.33	64
851.505	-11.78
851.681	37.38
851.856	29.18
852.031	45.57
852.206	41.47
852.381	6.66
852.556	14.85
852.731	23.04
852.906	6.66
853.081	109.05
853.256	107.01
853.431	20.99
853.606	37.38
853.781	43.52
853.956	-26.11
854.131	10.75
854.305	-5.63
854.48	20.99
854.655	70.14
854.83	51.71
855.005	55.81
855.18	29.18
855.354	-50.69
855.529	53.76
855.704	51.71
855.879	-3.58
856.053	41.47
856.228	74.24
856.403	-7.68
856.577	6.66
856.752	18.94
856.926	45.57
857.101	-19.97
857.276	82.43
857.45	78.33
857.625	25.09
857.799	49.66
857.974	6.66
858.148	64
858.323	14.85
858.497	72.19
858.672	51.71
858.846	16.9
859.02	-3.58
859.195	27.14
859.369	49.66
859.543	-9.73
859.718	12.8
859.892	2.56
860.066	51.71
860.241	-7.68
860.415	29.18
860.589	-19.97
860.763	37.38
860.938	18.94
861.112	-11.78
861.286	-19.97
861.46	-9.73
861.634	-28.16
861.808	35.33
861.982	12.8
862.157	-22.02
862.331	35.33
862.505	74.24
862.679	102.91
862.853	23.04
863.027	31.23
863.201	86.53
863.375	-13.82
863.549	29.18
863.722	6.66
863.896	53.76
864.07	61.95
864.244	-42.5
864.418	59.9
864.592	29.18
864.766	27.14
864.939	53.76
865.113	35.33
865.287	-28.16
865.461	-3.58
865.634	12.8
865.808	-1.54
865.982	10.75
866.156	-34.3
866.329	61.95
866.503	-44.54
866.676	14.85
866.85	23.04
867.024	37.38
867.197	96.77
867.371	8.7
867.544	-9.73
867.718	29.18
867.891	45.57
868.065	20.99
868.238	29.18
868.412	82.43
868.585	6.66
868.759	0.51
868.932	55.81
869.105	53.76
869.279	41.47
869.452	39.42
869.625	-5.63
869.799	78.33
869.972	31.23
870.145	121.34
870.319	2.56
870.492	23.04
870.665	-19.97
870.838	-1.54
871.011	-28.16
871.185	61.95
871.358	6.66
871.531	29.18
871.704	25.09
871.877	39.42
872.05	16.9
872.223	82.43
872.396	-19.97
872.569	33.28
872.742	18.94
872.915	61.95
873.088	43.52
873.261	25.09
873.434	18.94
873.607	-1.54
873.78	-24.06
873.953	-28.16
874.126	4.61
874.299	39.42
874.471	27.14
874.644	29.18
874.817	-44.54
874.99	25.09
875.163	-19.97
875.335	20.99
875.508	25.09
875.681	45.57
875.853	20.99
876.026	-32.26
876.199	104.96
876.371	51.71
876.544	20.99
876.717	12.8
876.889	10.75
877.062	111.1
877.234	41.47
877.407	6.66
877.579	59.9
877.752	14.85
877.924	12.8
878.097	-19.97
878.269	43.52
878.442	-26.11
878.614	8.7
878.786	-9.73
878.959	20.99
879.131	20.99
879.303	35.33
879.476	90.62
879.648	53.76
879.82	-40.45
879.993	35.33
880.165	2.56
880.337	39.42
880.509	6.66
880.681	59.9
880.854	-36.35
881.026	-32.26
881.198	39.42
881.37	-22.02
881.542	45.57
881.714	2.56
881.886	29.18
882.058	16.9
882.23	-9.73
882.402	-32.26
882.574	23.04
882.746	4.61
882.918	-7.68
883.09	-22.02
883.262	49.66
883.434	12.8
883.606	74.24
883.778	59.9
883.95	16.9
884.122	12.8
884.293	59.9
884.465	6.66
884.637	6.66
884.809	-67.07
884.98	61.95
885.152	35.33
885.324	45.57
885.496	20.99
885.667	47.62
885.839	45.57
886.011	57.86
886.182	37.38
886.354	-46.59
886.525	16.9
886.697	49.66
886.869	57.86
887.04	14.85
887.212	4.61
887.383	20.99
887.555	-58.88
887.726	57.86
887.897	45.57
888.069	20.99
888.24	49.66
888.412	23.04
888.583	61.95
888.754	23.04
888.926	10.75
889.097	23.04
889.268	31.23
889.44	18.94
889.611	-1.54
889.782	4.61
889.953	-1.54
890.125	20.99
890.296	4.61
890.467	16.9
890.638	-7.68
890.809	18.94
890.98	29.18
891.151	20.99
891.323	12.8
891.494	0.51
891.665	-36.35
891.836	6.66
892.007	-28.16
892.178	55.81
892.349	-7.68
892.52	37.38
892.691	-28.16
892.862	51.71
893.032	25.09
893.203	41.47
893.374	78.33
893.545	80.38
893.716	0.51
893.887	78.33
894.057	29.18
894.228	68.09
894.399	76.29
894.57	-13.82
894.74	14.85
894.911	29.18
895.082	96.77
895.253	-9.73
895.423	68.09
895.594	72.19
895.764	25.09
895.935	70.14
896.106	39.42
896.276	45.57
896.447	27.14
896.617	6.66
896.788	47.62
896.958	6.66
897.129	-7.68
897.299	18.94
897.47	-36.35
897.64	6.66
897.81	4.61
897.981	29.18
898.151	37.38
898.322	102.91
898.492	47.62
898.662	-26.11
898.832	14.85
899.003	43.52
899.173	2.56
899.343	-30.21
899.513	66.05
