Data from USB4F104151__101__13-54-43-128.txt Node

Date: Thu Mar 13 13:54:43 EDT 2025
User: louis
Spectrometer: USB4F10415
Trigger mode: 4
Integration Time (sec): 1.000000E-2
Scans to average: 1
Electric dark correction enabled: true
Nonlinearity correction enabled: false
Boxcar width: 0
XAxis mode: Wavelengths
Number of Pixels in Spectrum: 3648
>>>>>Begin Spectral Data<<<<<
178.204	-27.48
178.424	-27.48
178.644	-27.48
178.864	-7
179.084	-33.62
179.304	-2.9
179.524	-70.48
179.744	9.39
179.964	-7
180.184	11.43
180.404	31.91
180.624	-27.48
180.844	-45.91
181.064	-2.9
181.283	-13.14
181.503	81.07
181.723	36.01
181.943	-19.29
182.163	23.72
182.383	-7
182.602	31.91
182.822	-39.76
183.042	27.82
183.262	62.63
183.482	52.39
183.701	68.78
183.921	-27.48
184.141	-27.48
184.361	17.58
184.58	70.83
184.8	-37.72
185.02	-37.72
185.239	46.25
185.459	31.91
185.679	83.11
185.898	44.2
186.118	70.83
186.338	-72.53
186.557	-13.14
186.777	27.82
186.997	36.01
187.216	5.29
187.436	42.15
187.655	3.24
187.875	5.29
188.095	31.91
188.314	58.54
188.534	33.96
188.753	40.11
188.973	31.91
189.192	33.96
189.412	29.87
189.631	15.53
189.851	38.06
190.07	40.11
190.29	52.39
190.509	-11.09
190.729	15.53
190.948	21.67
191.168	44.2
191.387	25.77
191.607	27.82
191.826	-4.95
192.045	21.67
192.265	27.82
192.484	68.78
192.704	-21.33
192.923	9.39
193.142	27.82
193.362	13.48
193.581	9.39
193.8	-29.52
194.02	48.3
194.239	38.06
194.458	-23.38
194.678	83.11
194.897	40.11
195.116	36.01
195.335	54.44
195.555	-33.62
195.774	42.15
195.993	23.72
196.212	58.54
196.432	-0.85
196.651	19.63
196.87	52.39
197.089	58.54
197.308	44.2
197.528	25.77
197.747	-52.05
197.966	23.72
198.185	23.72
198.404	27.82
198.623	33.96
198.842	23.72
199.062	15.53
199.281	1.19
199.5	-11.09
199.719	19.63
199.938	7.34
200.157	56.49
200.376	11.43
200.595	5.29
200.814	21.67
201.033	44.2
201.252	5.29
201.471	-15.19
201.69	21.67
201.909	38.06
202.128	13.48
202.347	27.82
202.566	-21.33
202.785	7.34
203.004	48.3
203.223	68.78
203.442	-60.24
203.661	95.4
203.879	-54.1
204.098	21.67
204.317	52.39
204.536	19.63
204.755	42.15
204.974	54.44
205.193	38.06
205.411	21.67
205.63	-4.95
205.849	29.87
206.068	62.63
206.287	29.87
206.505	93.35
206.724	97.45
206.943	36.01
207.162	29.87
207.381	66.73
207.599	-23.38
207.818	11.43
208.037	50.35
208.255	-9.05
208.474	-31.57
208.693	29.87
208.911	27.82
209.13	-35.67
209.349	5.29
209.567	1.19
209.786	74.92
210.005	83.11
210.223	95.4
210.442	23.72
210.661	72.87
210.879	64.68
211.098	-66.39
211.316	-15.19
211.535	9.39
211.753	-7
211.972	5.29
212.191	-2.9
212.409	62.63
212.628	38.06
212.846	11.43
213.065	-27.48
213.283	60.59
213.502	19.63
213.72	-66.39
213.938	-27.48
214.157	1.19
214.375	87.21
214.594	99.5
214.812	23.72
215.031	52.39
215.249	36.01
215.467	11.43
215.686	11.43
215.904	-47.96
216.122	29.87
216.341	-31.57
216.559	-9.05
216.778	91.31
216.996	27.82
217.214	81.07
217.432	-23.38
217.651	1.19
217.869	27.82
218.087	-15.19
218.306	-13.14
218.524	19.63
218.742	81.07
218.96	44.2
219.179	23.72
219.397	25.77
219.615	15.53
219.833	40.11
220.051	13.48
220.27	19.63
220.488	62.63
220.706	-39.76
220.924	-15.19
221.142	29.87
221.36	15.53
221.578	7.34
221.796	-45.91
222.015	42.15
222.233	15.53
222.451	58.54
222.669	-35.67
222.887	27.82
223.105	-58.2
223.323	48.3
223.541	68.78
223.759	-2.9
223.977	23.72
224.195	-4.95
224.413	56.49
224.631	48.3
224.849	1.19
225.067	36.01
225.285	-21.33
225.503	21.67
225.721	-33.62
225.939	93.35
226.157	66.73
226.375	42.15
226.592	-0.85
226.81	64.68
227.028	25.77
227.246	81.07
227.464	3.24
227.682	128.17
227.9	-25.43
228.117	27.82
228.335	15.53
228.553	62.63
228.771	-2.9
228.989	-43.86
229.206	62.63
229.424	25.77
229.642	44.2
229.86	9.39
230.077	42.15
230.295	54.44
230.513	42.15
230.731	40.11
230.948	42.15
231.166	33.96
231.384	66.73
231.601	-41.81
231.819	-11.09
232.037	66.73
232.254	36.01
232.472	21.67
232.689	29.87
232.907	1.19
233.125	44.2
233.342	91.31
233.56	-17.24
233.777	3.24
233.995	-27.48
234.213	68.78
234.43	21.67
234.648	60.59
234.865	31.91
235.083	60.59
235.3	-23.38
235.518	17.58
235.735	-19.29
235.953	29.87
236.17	99.5
236.388	87.21
236.605	-43.86
236.822	19.63
237.04	-2.9
237.257	68.78
237.475	-7
237.692	27.82
237.909	-13.14
238.127	44.2
238.344	-15.19
238.562	64.68
238.779	31.91
238.996	29.87
239.214	38.06
239.431	21.67
239.648	52.39
239.865	5.29
240.083	29.87
240.3	36.01
240.517	40.11
240.735	91.31
240.952	-0.85
241.169	79.02
241.386	1.19
241.603	111.78
241.821	27.82
242.038	9.39
242.255	-0.85
242.472	40.11
242.689	-19.29
242.907	113.83
243.124	42.15
243.341	46.25
243.558	27.82
243.775	-58.2
243.992	-0.85
244.209	33.96
244.426	9.39
244.643	17.58
244.86	19.63
245.078	3.24
245.295	105.64
245.512	46.25
245.729	-19.29
245.946	-35.67
246.163	-31.57
246.38	42.15
246.597	50.35
246.814	-15.19
247.031	17.58
247.248	95.4
247.464	62.63
247.681	23.72
247.898	58.54
248.115	36.01
248.332	-15.19
248.549	5.29
248.766	48.3
248.983	15.53
249.2	-19.29
249.417	68.78
249.633	66.73
249.85	119.98
250.067	-11.09
250.284	5.29
250.501	25.77
250.717	-31.57
250.934	-0.85
251.151	50.35
251.368	50.35
251.585	54.44
251.801	-39.76
252.018	9.39
252.235	25.77
252.451	-39.76
252.668	25.77
252.885	-13.14
253.102	54.44
253.318	48.3
253.535	58.54
253.752	36.01
253.968	17.58
254.185	38.06
254.401	60.59
254.618	25.77
254.835	70.83
255.051	97.45
255.268	54.44
255.484	-13.14
255.701	79.02
255.917	9.39
256.134	52.39
256.351	-39.76
256.567	-41.81
256.784	21.67
257	23.72
257.217	27.82
257.433	66.73
257.65	-27.48
257.866	54.44
258.082	7.34
258.299	29.87
258.515	-7
258.732	-21.33
258.948	76.97
259.165	5.29
259.381	42.15
259.597	17.58
259.814	76.97
260.03	52.39
260.246	87.21
260.463	-52.05
260.679	9.39
260.895	54.44
261.112	83.11
261.328	42.15
261.544	85.16
261.761	72.87
261.977	1.19
262.193	5.29
262.409	91.31
262.626	21.67
262.842	13.48
263.058	29.87
263.274	-4.95
263.49	31.91
263.707	-27.48
263.923	70.83
264.139	7.34
264.355	-2.9
264.571	42.15
264.787	46.25
265.004	27.82
265.22	-25.43
265.436	42.15
265.652	13.48
265.868	36.01
266.084	7.34
266.3	-41.81
266.516	36.01
266.732	40.11
266.948	-17.24
267.164	38.06
267.38	-27.48
267.596	13.48
267.812	99.5
268.028	33.96
268.244	31.91
268.46	21.67
268.676	13.48
268.892	-9.05
269.108	33.96
269.324	-19.29
269.54	15.53
269.756	46.25
269.972	-54.1
270.188	-27.48
270.403	-17.24
270.619	85.16
270.835	87.21
271.051	-37.72
271.267	3.24
271.483	7.34
271.698	-4.95
271.914	50.35
272.13	5.29
272.346	60.59
272.562	5.29
272.777	52.39
272.993	-17.24
273.209	124.07
273.425	48.3
273.64	21.67
273.856	23.72
274.072	11.43
274.287	21.67
274.503	19.63
274.719	-11.09
274.934	11.43
275.15	-23.38
275.366	25.77
275.581	-41.81
275.797	42.15
276.012	54.44
276.228	38.06
276.444	13.48
276.659	72.87
276.875	33.96
277.09	33.96
277.306	33.96
277.521	46.25
277.737	97.45
277.952	54.44
278.168	68.78
278.383	-17.24
278.599	19.63
278.814	54.44
279.03	56.49
279.245	7.34
279.461	-25.43
279.676	79.02
279.892	-2.9
280.107	-13.14
280.322	5.29
280.538	54.44
280.753	-43.86
280.969	64.68
281.184	31.91
281.399	17.58
281.615	79.02
281.83	-0.85
282.045	5.29
282.26	70.83
282.476	13.48
282.691	40.11
282.906	25.77
283.122	54.44
283.337	74.92
283.552	56.49
283.767	42.15
283.983	79.02
284.198	64.68
284.413	56.49
284.628	13.48
284.843	40.11
285.058	25.77
285.274	21.67
285.489	105.64
285.704	36.01
285.919	-0.85
286.134	64.68
286.349	-37.72
286.564	38.06
286.779	36.01
286.995	11.43
287.21	60.59
287.425	-4.95
287.64	50.35
287.855	-29.52
288.07	1.19
288.285	23.72
288.5	-0.85
288.715	40.11
288.93	5.29
289.145	38.06
289.36	44.2
289.575	25.77
289.79	38.06
290.004	15.53
290.219	-15.19
290.434	11.43
290.649	42.15
290.864	-15.19
291.079	-19.29
291.294	-64.34
291.509	27.82
291.724	25.77
291.938	56.49
292.153	-9.05
292.368	85.16
292.583	3.24
292.798	27.82
293.012	36.01
293.227	-0.85
293.442	27.82
293.657	-9.05
293.871	-15.19
294.086	31.91
294.301	58.54
294.516	-7
294.73	27.82
294.945	40.11
295.16	21.67
295.374	7.34
295.589	99.5
295.804	-52.05
296.018	25.77
296.233	50.35
296.447	19.63
296.662	3.24
296.877	17.58
297.091	70.83
297.306	52.39
297.52	70.83
297.735	146.6
297.949	58.54
298.164	117.93
298.378	3.24
298.593	3.24
298.807	-0.85
299.022	-9.05
299.236	52.39
299.451	-56.15
299.665	25.77
299.88	19.63
300.094	-11.09
300.309	44.2
300.523	66.73
300.737	15.53
300.952	29.87
301.166	-47.96
301.381	36.01
301.595	-23.38
301.809	15.53
302.024	-25.43
302.238	1.19
302.452	3.24
302.667	85.16
302.881	44.2
303.095	9.39
303.309	50.35
303.524	25.77
303.738	11.43
303.952	21.67
304.166	33.96
304.381	-39.76
304.595	91.31
304.809	31.91
305.023	-50
305.237	11.43
305.452	-29.52
305.666	46.25
305.88	48.3
306.094	21.67
306.308	9.39
306.522	33.96
306.736	15.53
306.95	-33.62
307.164	36.01
307.379	3.24
307.593	66.73
307.807	-25.43
308.021	-9.05
308.235	44.2
308.449	5.29
308.663	3.24
308.877	58.54
309.091	1.19
309.305	70.83
309.519	50.35
309.733	74.92
309.947	-13.14
310.161	44.2
310.374	33.96
310.588	33.96
310.802	11.43
311.016	-4.95
311.23	33.96
311.444	15.53
311.658	-29.52
311.872	23.72
312.085	44.2
312.299	17.58
312.513	27.82
312.727	52.39
312.941	-7
313.154	40.11
313.368	7.34
313.582	95.4
313.796	89.26
314.009	52.39
314.223	-2.9
314.437	54.44
314.651	76.97
314.864	38.06
315.078	-66.39
315.292	56.49
315.505	-15.19
315.719	23.72
315.933	-25.43
316.146	25.77
316.36	60.59
316.573	29.87
316.787	13.48
317.001	36.01
317.214	19.63
317.428	36.01
317.641	-2.9
317.855	66.73
318.068	68.78
318.282	58.54
318.495	23.72
318.709	19.63
318.922	7.34
319.136	-4.95
319.349	1.19
319.563	27.82
319.776	50.35
319.99	66.73
320.203	-25.43
320.417	60.59
320.63	48.3
320.843	87.21
321.057	36.01
321.27	1.19
321.483	-15.19
321.697	23.72
321.91	-27.48
322.124	60.59
322.337	-4.95
322.55	48.3
322.763	46.25
322.977	81.07
323.19	33.96
323.403	11.43
323.617	-17.24
323.83	109.74
324.043	-4.95
324.256	42.15
324.469	74.92
324.683	62.63
324.896	33.96
325.109	-23.38
325.322	-13.14
325.535	54.44
325.748	3.24
325.962	42.15
326.175	42.15
326.388	-37.72
326.601	56.49
326.814	40.11
327.027	1.19
327.24	138.41
327.453	-2.9
327.666	74.92
327.879	27.82
328.092	-2.9
328.305	3.24
328.518	83.11
328.731	64.68
328.944	89.26
329.157	56.49
329.37	-21.33
329.583	27.82
329.796	85.16
330.009	29.87
330.222	7.34
330.435	81.07
330.648	38.06
330.861	38.06
331.073	83.11
331.286	-0.85
331.499	76.97
331.712	42.15
331.925	-54.1
332.138	17.58
332.35	54.44
332.563	60.59
332.776	44.2
332.989	42.15
333.202	17.58
333.414	7.34
333.627	44.2
333.84	-23.38
334.053	56.49
334.265	-0.85
334.478	70.83
334.691	25.77
334.903	54.44
335.116	89.26
335.329	40.11
335.541	87.21
335.754	81.07
335.966	11.43
336.179	48.3
336.392	11.43
336.604	-4.95
336.817	36.01
337.029	-19.29
337.242	101.55
337.454	89.26
337.667	-9.05
337.88	76.97
338.092	7.34
338.305	1.19
338.517	-13.14
338.729	17.58
338.942	31.91
339.154	-13.14
339.367	-4.95
339.579	-7
339.792	3.24
340.004	50.35
340.217	50.35
340.429	103.59
340.641	38.06
340.854	-74.58
341.066	79.02
341.278	27.82
341.491	1.19
341.703	62.63
341.915	25.77
342.128	23.72
342.34	50.35
342.552	-4.95
342.764	23.72
342.977	40.11
343.189	-25.43
343.401	17.58
343.613	27.82
343.826	42.15
344.038	46.25
344.25	1.19
344.462	56.49
344.674	70.83
344.886	7.34
345.099	109.74
345.311	19.63
345.523	17.58
345.735	44.2
345.947	40.11
346.159	64.68
346.371	79.02
346.583	11.43
346.795	128.17
347.007	87.21
347.219	21.67
347.431	-13.14
347.643	68.78
347.855	38.06
348.067	124.07
348.279	1.19
348.491	38.06
348.703	33.96
348.915	42.15
349.127	-27.48
349.339	38.06
349.551	62.63
349.763	52.39
349.975	89.26
350.187	13.48
350.399	29.87
350.61	19.63
350.822	23.72
351.034	64.68
351.246	-70.48
351.458	83.11
351.669	79.02
351.881	44.2
352.093	11.43
352.305	21.67
352.517	101.55
352.728	27.82
352.94	-0.85
353.152	46.25
353.363	11.43
353.575	-19.29
353.787	15.53
353.999	68.78
354.21	11.43
354.422	52.39
354.633	50.35
354.845	-37.72
355.057	13.48
355.268	15.53
355.48	7.34
355.692	54.44
355.903	-13.14
356.115	87.21
356.326	-54.1
356.538	81.07
356.749	11.43
356.961	66.73
357.172	7.34
357.384	66.73
357.595	15.53
357.807	44.2
358.018	27.82
358.23	58.54
358.441	46.25
358.653	40.11
358.864	68.78
359.075	-52.05
359.287	7.34
359.498	31.91
359.709	-7
359.921	29.87
360.132	48.3
360.344	38.06
360.555	48.3
360.766	9.39
360.977	23.72
361.189	83.11
361.4	-45.91
361.611	81.07
361.823	9.39
362.034	-2.9
362.245	11.43
362.456	87.21
362.667	68.78
362.879	-15.19
363.09	5.29
363.301	44.2
363.512	48.3
363.723	60.59
363.935	64.68
364.146	52.39
364.357	81.07
364.568	87.21
364.779	-13.14
364.99	33.96
365.201	-13.14
365.412	52.39
365.623	9.39
365.834	105.64
366.045	52.39
366.256	122.02
366.467	46.25
366.678	3.24
366.889	79.02
367.1	56.49
367.311	60.59
367.522	74.92
367.733	58.54
367.944	81.07
368.155	83.11
368.366	76.97
368.577	58.54
368.788	93.35
368.999	1.19
369.209	29.87
369.42	42.15
369.631	42.15
369.842	89.26
370.053	15.53
370.264	11.43
370.474	52.39
370.685	132.26
370.896	-35.67
371.107	19.63
371.317	21.67
371.528	48.3
371.739	58.54
371.95	79.02
372.16	31.91
372.371	-7
372.582	9.39
372.792	36.01
373.003	117.93
373.214	-15.19
373.424	46.25
373.635	87.21
373.846	99.5
374.056	29.87
374.267	38.06
374.477	27.82
374.688	58.54
374.898	-0.85
375.109	62.63
375.319	54.44
375.53	64.68
375.74	62.63
375.951	44.2
376.161	56.49
376.372	50.35
376.582	101.55
376.793	72.87
377.003	21.67
377.214	42.15
377.424	33.96
377.635	-0.85
377.845	46.25
378.055	111.78
378.266	13.48
378.476	79.02
378.686	38.06
378.897	-19.29
379.107	115.88
379.317	3.24
379.528	3.24
379.738	42.15
379.948	-37.72
380.158	46.25
380.369	25.77
380.579	83.11
380.789	136.36
380.999	66.73
381.21	25.77
381.42	87.21
381.63	42.15
381.84	101.55
382.05	79.02
382.261	66.73
382.471	40.11
382.681	66.73
382.891	48.3
383.101	7.34
383.311	9.39
383.521	74.92
383.731	-43.86
383.941	83.11
384.151	15.53
384.361	46.25
384.571	36.01
384.781	81.07
384.991	40.11
385.201	52.39
385.411	58.54
385.621	56.49
385.831	40.11
386.041	91.31
386.251	136.36
386.461	50.35
386.671	48.3
386.881	1.19
387.091	31.91
387.301	21.67
387.511	3.24
387.72	50.35
387.93	48.3
388.14	38.06
388.35	-19.29
388.56	101.55
388.769	66.73
388.979	64.68
389.189	5.29
389.399	46.25
389.609	-2.9
389.818	58.54
390.028	50.35
390.238	52.39
390.447	19.63
390.657	46.25
390.867	-29.52
391.076	54.44
391.286	33.96
391.496	76.97
391.705	62.63
391.915	109.74
392.125	128.17
392.334	93.35
392.544	119.98
392.753	97.45
392.963	70.83
393.172	105.64
393.382	33.96
393.591	42.15
393.801	70.83
394.01	3.24
394.22	21.67
394.429	54.44
394.639	50.35
394.848	58.54
395.058	72.87
395.267	31.91
395.477	5.29
395.686	52.39
395.895	58.54
396.105	99.5
396.314	115.88
396.524	-2.9
396.733	83.11
396.942	150.7
397.152	122.02
397.361	105.64
397.57	156.84
397.78	91.31
397.989	46.25
398.198	74.92
398.407	27.82
398.617	103.59
398.826	144.55
399.035	60.59
399.244	29.87
399.453	50.35
399.663	48.3
399.872	42.15
400.081	7.34
400.29	58.54
400.499	81.07
400.708	62.63
400.917	93.35
401.127	132.26
401.336	58.54
401.545	130.22
401.754	119.98
401.963	50.35
402.172	29.87
402.381	89.26
402.59	68.78
402.799	115.88
403.008	93.35
403.217	81.07
403.426	89.26
403.635	119.98
403.844	70.83
404.053	25.77
404.262	74.92
404.471	95.4
404.68	81.07
404.888	93.35
405.097	70.83
405.306	25.77
405.515	158.89
405.724	97.45
405.933	128.17
406.142	87.21
406.35	146.6
406.559	132.26
406.768	130.22
406.977	103.59
407.185	105.64
407.394	156.84
407.603	158.89
407.812	128.17
408.02	119.98
408.229	122.02
408.438	126.12
408.646	83.11
408.855	103.59
409.064	95.4
409.272	222.38
409.481	242.85
409.69	146.6
409.898	208.04
410.107	203.94
410.315	203.94
410.524	187.56
410.733	251.05
410.941	226.47
411.15	251.05
411.358	265.38
411.567	197.8
411.775	255.14
411.984	244.9
412.192	296.1
412.401	261.29
412.609	316.58
412.818	320.68
413.026	343.21
413.234	355.49
413.443	357.54
413.651	416.93
413.86	410.79
414.068	283.81
414.276	339.11
414.485	343.21
414.693	423.08
414.901	517.28
415.11	468.13
415.318	414.88
415.526	451.75
415.734	441.51
415.943	523.43
416.151	566.43
416.359	621.73
416.567	545.95
416.776	623.78
416.984	627.87
417.192	642.21
417.4	562.34
417.608	687.26
417.817	662.69
418.025	771.23
418.233	765.09
418.441	734.37
418.649	691.36
418.857	799.9
419.065	861.34
419.273	832.67
419.481	804
419.689	937.12
419.897	912.54
420.105	957.6
420.313	953.5
420.521	1080.47
420.729	1027.23
420.937	1103
421.145	1148.06
421.353	1121.43
421.561	1184.92
421.769	1203.35
421.977	1266.84
422.185	1297.56
422.393	1342.61
422.601	1287.32
422.809	1485.97
423.017	1457.3
423.224	1502.36
423.432	1485.97
423.64	1545.36
423.848	1848.46
424.056	1694.86
424.263	1684.62
424.471	1840.27
424.679	1854.61
424.887	1899.66
425.094	1920.14
425.302	1930.38
425.51	2049.16
425.718	2172.04
425.925	2202.76
426.133	2241.67
426.341	2227.34
426.548	2448.52
426.756	2471.04
426.964	2503.81
427.171	2749.57
427.379	2819.2
427.586	2679.94
427.794	2866.3
428.001	2923.65
428.209	3015.8
428.417	2976.89
428.624	3196.03
428.832	3153.02
429.039	3165.31
429.247	3083.39
429.454	3505.27
429.662	3806.32
429.869	3519.6
430.076	3728.5
430.284	3601.52
430.491	3867.76
430.699	4021.36
430.906	3953.77
431.114	4181.1
431.321	4246.63
431.528	4500.58
431.736	4516.97
431.943	4760.67
432.15	4529.25
432.358	4736.1
432.565	4965.47
432.772	4963.42
432.979	5332.06
433.187	5235.8
433.394	5327.96
433.601	5672.02
433.808	5680.21
434.016	5579.86
434.223	5903.44
434.43	6308.94
434.637	6052.94
434.844	6515.78
435.052	6593.61
435.259	6603.85
435.466	6517.83
435.673	6397
435.88	7040.06
436.087	7357.5
436.294	7296.06
436.501	7345.21
436.708	7281.72
436.915	7631.93
437.122	7836.72
437.329	8008.75
437.537	8035.38
437.743	8158.25
437.95	8078.38
438.157	8510.5
438.364	8913.95
438.571	8940.58
438.778	8862.76
438.985	9735.19
439.192	9444.38
439.399	9665.56
439.606	9520.15
439.813	9970.71
440.02	10617.86
440.227	10527.75
440.433	10345.48
440.64	10624.01
440.847	10558.47
441.054	11125.76
441.261	11693.05
441.467	11348.99
441.674	11842.55
441.881	12090.35
442.088	12174.32
442.294	11936.76
442.501	12102.64
442.708	12446.7
442.914	13087.71
443.121	13734.87
443.328	13231.07
443.534	14220.24
443.741	13724.63
443.948	13663.19
444.154	14529.48
444.361	14425.04
444.568	14631.88
444.774	14425.04
444.981	14754.76
445.187	15248.32
445.394	15784.89
445.6	15772.6
445.807	16960.42
446.013	16382.9
446.22	16655.28
446.426	17202.08
446.633	17349.54
446.839	17914.78
447.046	17408.93
447.252	18598.8
447.459	18162.58
447.665	18371.47
447.871	18971.53
448.078	19624.83
448.284	19137.41
448.491	19577.73
448.697	20099.96
448.903	20216.69
449.11	20820.84
449.316	20190.07
449.522	20870
449.728	21232.49
449.935	21013.35
450.141	21195.62
450.347	21740.38
450.553	20986.73
450.76	21480.29
450.966	21965.66
451.172	21701.47
451.378	22412.12
451.584	21807.97
451.791	22713.17
451.997	22254.42
452.203	22807.37
452.409	22657.87
452.615	22397.78
452.821	21652.32
453.027	21449.57
453.233	22358.87
453.44	21488.48
453.646	22238.04
453.852	22100.83
454.058	22281.05
454.264	21601.12
454.47	22063.96
454.676	21680.99
454.882	22246.23
455.088	20005.75
455.294	20833.13
455.5	21246.82
455.705	21289.83
455.911	20427.63
456.117	20018.04
456.323	19592.06
456.529	18494.35
456.735	19544.96
456.941	18791.31
457.147	18635.66
457.352	17947.54
457.558	17634.21
457.764	17896.35
457.97	17429.41
458.176	17218.47
458.381	17058.73
458.587	16378.8
458.793	16235.44
458.999	15453.12
459.204	16446.38
459.41	16262.07
459.616	14967.75
459.821	14828.49
460.027	14939.08
460.233	14908.36
460.438	13851.61
460.644	13994.97
460.85	13433.82
461.055	13243.36
461.261	13124.58
461.466	12184.56
461.672	11832.31
461.878	12706.79
462.083	11891.7
462.289	11668.47
462.494	11539.45
462.7	11127.81
462.905	10957.83
463.111	11246.59
463.316	11365.37
463.522	11099.14
463.727	11107.33
463.932	10947.59
464.138	10781.7
464.343	10851.33
464.549	10472.46
464.754	10873.86
464.959	10970.12
465.165	10695.69
465.37	10333.2
465.575	10095.63
465.781	10550.28
465.986	10603.53
466.191	10062.87
466.397	9976.85
466.602	9434.14
466.807	9714.71
467.012	9911.32
467.218	9624.6
467.423	9733.14
467.628	9751.57
467.833	10087.44
468.038	9808.92
468.244	9532.44
468.449	9860.12
468.654	9657.37
468.859	9337.88
469.064	9260.06
469.269	9206.81
469.474	9231.39
469.679	9352.22
469.885	9088.03
470.09	9288.73
470.295	9141.28
470.5	9004.07
470.705	8913.95
470.91	8737.83
471.115	8617
471.32	8752.17
471.525	8707.11
471.73	8399.91
471.935	8395.82
472.139	8150.06
472.344	8336.43
472.549	8088.62
472.754	8119.34
472.959	7986.22
473.164	7947.31
473.369	7687.22
473.574	7871.54
473.778	7961.65
473.983	7865.39
474.188	7707.7
474.393	7193.66
474.598	7564.34
474.802	7380.03
475.007	7291.96
475.212	7488.57
475.417	7072.83
475.621	7210.04
475.826	7072.83
476.031	6900.8
476.235	7052.35
476.44	7064.64
476.645	6702.15
476.849	6892.61
477.054	6806.59
477.259	6642.76
477.463	6741.06
477.668	6362.19
477.872	6487.11
478.077	6460.49
478.282	6376.52
478.486	6218.83
478.691	6243.4
478.895	6290.51
479.1	6028.37
479.304	6100.05
479.509	6145.1
479.713	6114.38
479.918	5909.58
480.122	5755.99
480.326	6081.61
480.531	5829.71
480.735	5829.71
480.94	5950.54
481.144	6136.91
481.348	5590.1
481.553	5821.52
481.757	5788.75
481.961	5835.86
482.166	5751.89
482.37	5813.33
482.574	5727.32
482.778	5831.76
482.983	5751.89
483.187	5688.4
483.391	5780.56
483.595	5749.84
483.8	5721.17
484.004	5731.41
484.208	5704.79
484.412	5819.47
484.616	5764.18
484.821	5786.71
485.025	5737.56
485.229	5717.08
485.433	5686.36
485.637	5577.81
485.841	5758.03
486.045	5755.99
486.249	5862.48
486.453	5733.46
486.657	5657.68
486.861	5737.56
487.065	5729.36
487.269	5715.03
487.473	5667.92
487.677	5829.71
487.881	5674.07
488.085	5600.34
488.289	5733.46
488.493	5770.32
488.697	5872.72
488.901	5813.33
489.105	5776.47
489.309	5780.56
489.512	5733.46
489.716	5870.67
489.92	5852.24
490.124	5919.82
490.328	5850.19
490.531	5745.75
490.735	5958.74
490.939	6016.08
491.143	5631.06
491.346	5764.18
491.55	5925.97
491.754	5874.77
491.958	5913.68
492.161	5942.35
492.365	6067.28
492.569	6034.51
492.772	6186.06
492.976	6300.75
493.18	6091.85
493.383	6323.27
493.587	6272.07
493.79	6505.54
493.994	6304.84
494.197	6288.46
494.401	6534.21
494.605	6474.82
494.808	6622.28
495.012	6485.06
495.215	6499.4
495.419	6716.48
495.622	6595.65
495.825	6708.29
496.029	6667.33
496.232	6952
496.436	6956.1
496.639	6988.86
496.843	6900.8
497.046	7261.24
497.249	7144.51
497.453	7236.67
497.656	7447.61
497.859	7371.83
498.063	7429.18
498.266	7474.23
498.469	7607.35
498.673	7717.94
498.876	7871.54
499.079	7978.03
499.282	7914.55
499.485	8236.08
499.689	8234.03
499.892	8387.63
500.095	8252.46
500.298	8598.57
500.501	8381.48
500.705	8666.15
500.908	8975.39
501.111	8873
501.314	8946.72
501.517	9104.42
501.72	9057.31
501.923	9069.6
502.126	9389.08
502.329	9577.5
502.532	9595.93
502.735	9514.01
502.938	9860.12
503.141	9976.85
503.344	10036.24
503.547	10243.09
503.75	10337.29
503.953	10576.91
504.156	10632.2
504.359	10691.59
504.562	10621.96
504.765	10935.3
504.968	11215.87
505.17	11240.45
505.373	11111.43
505.576	11410.43
505.779	11635.71
505.982	11791.35
506.185	12104.69
506.387	12166.13
506.59	12067.83
506.793	12389.36
506.996	12600.3
507.198	12686.31
507.401	12571.63
507.604	12739.56
507.807	13263.84
508.009	13102.05
508.212	13435.87
508.415	13343.71
508.617	13587.42
508.82	13945.81
509.022	13630.43
509.225	14228.43
509.428	14261.2
509.63	14482.38
509.833	14513.1
510.035	14943.17
510.238	14822.34
510.44	15197.12
510.643	15262.66
510.845	15623.1
511.048	15604.67
511.25	15764.41
511.453	15967.16
511.655	16581.55
511.858	16335.79
512.06	16659.37
512.262	16950.18
512.465	16825.26
512.667	17394.59
512.87	17288.1
513.072	17351.59
513.274	17722.27
513.477	18047.9
513.679	18191.25
513.881	18512.78
514.084	18781.07
514.286	18572.18
514.488	18797.45
514.69	19293.06
514.893	19549.06
515.095	19291.01
515.297	19999.61
515.499	19872.64
515.701	20294.52
515.904	20556.66
516.106	20669.3
516.308	20906.86
516.51	21433.19
516.712	21463.91
516.914	21668.7
517.116	21771.1
517.318	21957.47
517.52	22334.29
517.722	22172.5
517.925	22836.05
518.127	23118.67
518.329	23294.79
518.531	23204.68
518.733	23427.91
518.935	24052.54
519.136	23802.69
519.338	24253.24
519.54	24611.64
519.742	24800.05
519.944	25019.18
520.146	25457.45
520.348	25529.13
520.55	25875.23
520.752	25891.62
520.954	26399.51
521.155	26231.58
521.357	26510.1
521.559	26911.5
521.761	27179.79
521.963	27200.27
522.164	27667.2
522.366	27921.15
522.568	27949.82
522.77	28050.17
522.971	28654.33
523.173	28576.5
523.375	29004.53
523.576	28990.19
523.778	28906.23
523.98	29315.82
524.181	29418.22
524.383	29504.23
524.584	30341.85
524.786	30186.21
524.988	30057.18
525.189	30386.91
525.391	30980.82
525.592	30937.81
525.794	31068.88
525.995	30937.81
526.197	31292.11
526.398	31275.73
526.6	31785.67
526.801	32107.2
527.003	32064.19
527.204	32291.52
527.406	32299.71
527.607	32207.55
527.808	32537.27
528.01	32254.65
528.211	32682.68
528.412	33237.68
528.614	32946.87
528.815	32922.29
529.016	33364.65
529.218	33172.14
529.419	33194.67
529.62	33237.68
529.822	33092.27
530.023	33614.51
530.224	33835.69
530.425	33770.15
530.626	33272.49
530.828	33411.76
531.029	34034.34
531.23	33702.57
531.431	34187.94
531.632	34202.27
531.833	33944.23
532.035	34052.77
532.236	34095.78
532.437	34368.16
532.638	34253.47
532.839	34423.45
533.04	34423.45
533.241	34042.53
533.442	34976.4
533.643	34638.49
533.844	34579.1
534.045	34714.26
534.246	34153.12
534.447	34876.05
534.648	34966.17
534.849	34947.73
535.05	34568.86
535.251	34804.38
535.451	34912.92
535.652	34880.15
535.853	34769.56
536.054	34955.93
536.255	35031.7
536.456	34560.67
536.657	35052.18
536.857	34622.11
537.058	34824.86
537.259	35199.63
537.46	35152.53
537.66	34894.49
537.861	35105.43
538.062	35252.88
538.263	35111.57
538.463	34800.28
538.664	35076.76
538.865	35023.51
539.065	35179.15
539.266	34603.67
539.466	35207.83
539.667	34497.18
539.868	35476.11
540.068	35230.35
540.269	34554.52
540.469	35322.51
540.67	34964.12
540.87	34992.79
541.071	34706.07
541.271	34945.69
541.472	34947.73
541.672	34972.31
541.873	34605.72
542.073	34798.23
542.274	35267.22
542.474	34882.2
542.675	34292.38
542.875	34972.31
543.075	34722.46
543.276	34378.4
543.476	35289.74
543.676	34499.23
543.877	35084.95
544.077	34652.83
544.277	34685.59
544.478	35177.11
544.678	34863.77
544.878	34818.71
545.078	35043.99
545.279	34536.09
545.479	35117.71
545.679	34896.53
545.879	34941.59
546.079	34814.62
546.28	34869.91
546.48	34695.83
546.68	34984.6
546.88	34730.65
547.08	34749.08
547.28	35121.81
547.48	34460.32
547.68	34812.57
547.88	34708.12
548.081	35000.98
548.281	34736.79
548.481	34726.55
548.681	34763.42
548.881	34658.97
549.081	34757.27
549.28	34661.02
549.48	35256.98
549.68	34935.45
549.88	35087
550.08	34349.73
550.28	34716.31
550.48	34757.27
550.68	34914.97
550.88	34693.79
551.08	34400.93
551.279	34871.96
551.479	34851.48
551.679	34826.9
551.879	34767.51
552.079	34824.86
552.278	34759.32
552.478	34759.32
552.678	34640.54
552.878	34988.69
553.077	34585.24
553.277	34409.12
553.477	34413.21
553.676	34888.34
553.876	34562.72
554.076	34314.91
554.275	34073.25
554.475	34386.59
554.674	34624.15
554.874	34386.59
555.074	34214.56
555.273	34464.41
555.473	34796.18
555.672	34245.28
555.872	34257.57
556.071	34267.81
556.271	34263.71
556.47	34239.14
556.67	33878.69
556.869	34042.53
557.068	34046.63
557.268	34116.26
557.467	34304.67
557.667	33551.02
557.866	33747.62
558.065	34071.2
558.265	33843.88
558.464	33804.97
558.663	33847.97
558.863	33303.21
559.062	33909.41
559.261	33346.22
559.461	33854.12
559.66	33262.26
559.859	33450.67
560.058	33088.18
560.258	33432.24
560.457	33004.21
560.656	33182.38
560.855	33149.62
561.054	33206.96
561.253	32699.06
561.453	32850.61
561.652	33094.32
561.851	33260.21
562.05	32891.57
562.249	32961.2
562.448	32955.06
562.647	32664.25
562.846	32897.72
563.045	32748.21
563.244	32244.41
563.443	32858.81
563.642	32436.92
563.841	32260.8
564.04	32348.86
564.239	32750.26
564.438	31998.66
564.637	32660.15
564.836	32500.41
565.035	31828.68
565.234	32289.47
565.432	31957.7
565.631	31773.38
565.83	31902.4
566.029	31554.25
566.228	31593.16
566.427	31621.83
566.625	31601.35
566.824	31251.15
567.023	31537.87
567.222	31083.22
567.42	31732.42
567.619	31093.46
567.818	31197.9
568.016	30847.7
568.215	31273.68
568.414	30565.08
568.612	31091.41
568.811	30675.67
569.01	30931.67
569.208	30124.77
569.407	30726.87
569.605	30444.25
569.804	30819.03
570.002	30462.68
570.201	30452.44
570.4	29944.55
570.598	29836
570.797	29790.95
570.995	30102.24
571.193	29356.78
571.392	30145.25
571.59	29733.6
571.789	29485.8
571.987	29582.06
572.186	29571.82
572.384	29450.99
572.582	29520.62
572.781	29248.24
572.979	28486.39
573.177	29074.16
573.376	29278.96
573.574	28574.45
573.772	28867.31
573.971	28601.08
574.169	28263.16
574.367	28365.56
574.565	28551.93
574.763	28371.71
574.962	28175.1
575.16	27720.45
575.358	28121.85
575.556	27908.86
575.754	27990.78
575.952	27513.61
576.151	28082.94
576.349	27317
576.547	27413.26
576.745	27456.26
576.943	27439.88
577.141	27241.23
577.339	27325.19
577.537	27278.09
577.735	26866.45
577.933	26860.3
578.131	26749.71
578.329	26637.08
578.527	26841.87
578.725	26751.76
578.923	26927.89
579.121	26630.93
579.319	26712.85
579.516	26596.12
579.714	26301.21
579.912	26481.43
580.11	26118.94
580.308	25834.27
580.506	25951.01
580.704	25893.66
580.901	25879.33
581.099	25832.22
581.297	25615.14
581.495	25598.76
581.692	25357.1
581.89	25418.53
582.088	25482.02
582.285	25641.76
582.483	25436.97
582.681	25082.67
582.878	25086.76
583.076	24900.4
583.274	25252.65
583.471	24742.71
583.669	24449.85
583.866	24781.62
584.064	24896.3
584.262	24460.09
584.459	24599.35
584.657	24324.92
584.854	24337.21
585.052	24228.66
585.249	24355.64
585.447	24511.28
585.644	23778.11
585.841	24150.84
586.039	24081.21
586.236	23735.1
586.434	23839.55
586.631	23630.66
586.828	23642.95
587.026	23589.7
587.223	23450.44
587.42	23505.73
587.618	23421.77
587.815	23298.89
588.012	23057.23
588.21	22922.06
588.407	23380.81
588.604	22973.26
588.801	22702.93
588.999	22573.91
589.196	22733.65
589.393	22834
589.59	22334.29
589.787	22600.53
589.984	22496.08
590.182	22467.41
590.379	22520.66
590.576	22305.62
590.773	22420.31
590.97	22293.33
591.167	22225.75
591.364	21769.05
591.561	22209.37
591.758	21738.33
591.955	21807.97
592.152	21971.8
592.349	21658.46
592.546	21648.22
592.743	21724
592.94	21521.25
593.137	21523.3
593.334	21289.83
593.531	21195.62
593.727	21392.23
593.924	21042.03
594.121	20919.15
594.318	21070.7
594.515	20882.28
594.712	21019.5
594.908	20843.37
595.105	20947.82
595.302	20804.46
595.499	20669.3
595.696	20521.84
595.892	20837.23
596.089	20769.65
596.286	20661.1
596.482	20261.75
596.679	20511.6
596.876	20556.66
597.072	20202.36
597.269	20427.63
597.466	19886.97
597.662	20206.45
597.859	20251.51
598.055	20317.04
598.252	19610.5
598.448	19886.97
598.645	19510.14
598.841	19821.44
599.038	19757.95
599.234	19927.93
599.431	19407.75
599.627	19590.02
599.824	19526.53
600.02	19172.23
600.217	19219.33
600.413	19309.44
600.609	18971.53
600.806	18799.5
601.002	19030.92
601.198	19135.37
601.395	19059.59
601.591	18834.32
601.787	18910.09
601.984	18512.78
602.18	18850.7
602.376	18752.4
602.572	18557.84
602.769	18570.13
602.965	18553.74
603.161	18492.3
603.357	18293.65
603.553	18338.71
603.75	18230.16
603.946	17982.36
604.142	18162.58
604.338	17867.67
604.534	17871.77
604.73	17642.4
604.926	17560.48
605.122	17683.36
605.318	17492.9
605.514	17392.55
605.71	17451.94
605.906	17298.34
606.102	17683.36
606.298	17445.79
606.494	17200.04
606.69	17302.43
606.886	17496.99
607.082	17099.69
607.278	17181.6
607.474	16991.14
607.67	17224.61
607.866	16845.74
608.062	17138.6
608.257	16794.54
608.453	16978.86
608.649	16950.18
608.845	16772.01
609.041	16638.89
609.236	16604.08
609.432	16552.88
609.628	16589.74
609.824	16378.8
610.019	16278.45
610.215	16294.83
610.411	16298.93
610.606	16313.27
610.802	16212.92
610.998	15877.05
611.193	16217.01
611.389	16131
611.584	15965.11
611.78	15766.46
611.976	16141.24
612.171	15868.86
612.367	15909.82
612.562	15846.33
612.758	15449.02
612.953	15543.23
613.149	15768.51
613.344	15682.49
613.539	15612.86
613.735	15537.09
613.93	15512.51
614.126	15381.44
614.321	15600.57
614.517	15197.12
614.712	15240.13
614.907	15221.7
615.103	15365.06
615.298	15219.65
615.493	15326.14
615.688	14848.97
615.884	14967.75
616.079	14924.74
616.274	14984.13
616.47	14898.12
616.665	14769.1
616.86	14891.98
617.055	14801.86
617.25	14969.8
617.445	14695.37
617.641	14533.58
617.836	14699.47
618.031	14425.04
618.226	14529.48
618.421	14314.45
618.616	14513.1
618.811	14492.62
619.006	14537.68
619.201	13949.91
619.396	14201.81
619.591	13970.39
619.786	13962.2
619.981	13814.74
620.176	14017.49
620.371	13808.6
620.566	13845.46
620.761	13669.34
620.956	13951.96
621.151	13345.76
621.346	13642.71
621.541	13425.63
621.735	13736.92
621.93	13243.36
622.125	13202.4
622.32	13116.39
622.515	13194.21
622.709	12762.09
622.904	13089.76
623.099	12981.22
623.294	12927.97
623.488	12889.06
623.683	12731.37
623.878	12403.69
624.072	12659.69
624.267	12368.88
624.462	12559.34
624.656	12178.42
624.851	12280.82
625.046	12205.04
625.24	12164.08
625.435	11992.05
625.629	12030.96
625.824	11779.06
626.018	12073.97
626.213	11787.25
626.407	11799.54
626.602	11652.09
626.796	11482.11
626.991	11490.3
627.185	11336.7
627.38	11447.29
627.574	11336.7
627.768	11248.64
627.963	11324.41
628.157	11176.96
628.352	11488.25
628.546	10927.11
628.74	11080.71
628.935	10937.35
629.129	10771.46
629.323	10865.67
629.517	10871.81
629.712	10871.81
629.906	10810.37
630.1	10456.08
630.294	10621.96
630.489	10392.59
630.683	10671.11
630.877	10408.97
631.071	10296.33
631.265	10187.79
631.459	10132.5
631.653	10112.02
631.848	10081.3
632.042	10028.05
632.236	10212.37
632.43	9868.31
632.624	9966.61
632.818	10005.52
633.012	9776.15
633.206	9696.28
633.4	9858.07
633.594	9694.23
633.788	9690.13
633.982	9698.33
634.176	9503.77
634.369	9620.5
634.563	9372.7
634.757	9440.28
634.951	9624.6
635.145	9309.21
635.339	9458.71
635.533	9321.5
635.726	8995.87
635.92	8926.24
636.114	9092.13
636.308	9102.37
636.501	8971.3
636.695	8993.83
636.889	8813.6
637.083	9022.5
637.276	8799.27
637.47	8803.36
637.664	8649.77
637.857	8461.35
638.051	8797.22
638.244	8500.26
638.438	8410.15
638.632	8289.32
638.825	8342.57
639.019	8301.61
639.212	8207.41
639.406	8219.69
639.599	8246.32
639.793	8164.4
639.986	8008.75
640.18	7939.12
640.373	8094.77
640.567	7928.88
640.76	7849.01
640.954	7892.02
641.147	7887.92
641.34	7717.94
641.534	7679.03
641.727	7758.9
641.92	7806
642.114	7713.84
642.307	7703.61
642.5	7603.25
642.694	7371.83
642.887	7412.79
643.08	7545.91
643.273	7212.09
643.467	7341.11
643.66	7257.15
643.853	7076.93
644.046	6984.77
644.239	7164.99
644.432	7095.36
644.626	6999.1
644.819	6882.37
645.012	7003.2
645.205	6880.32
645.398	6923.33
645.591	6874.18
645.784	6730.82
645.977	6757.44
646.17	6782.02
646.363	6513.74
646.556	6681.67
646.749	6540.36
646.942	6597.7
647.135	6487.11
647.328	6628.42
647.521	6431.82
647.714	6362.19
647.907	6448.2
648.099	6376.52
648.292	6112.33
648.485	6259.79
648.678	6038.61
648.871	6093.9
649.064	5981.26
649.256	6020.17
649.449	6220.88
649.642	6005.84
649.835	5975.12
650.027	5946.45
650.22	5745.75
650.413	5876.82
650.605	5794.9
650.798	5837.91
650.991	5661.78
651.183	5846.1
651.376	5692.5
651.568	5678.16
651.761	5575.77
651.954	5534.81
652.146	5571.67
652.339	5483.61
652.531	5446.74
652.724	5504.09
652.916	5397.59
653.109	5450.84
653.301	5389.4
653.494	5364.82
653.686	5149.79
653.879	5315.67
654.071	5205.08
654.263	5287
654.456	5112.92
654.648	4992.09
654.84	5168.22
655.033	5114.97
655.225	5014.62
655.417	4998.24
655.61	4998.24
655.802	4994.14
655.994	5002.33
656.186	5020.77
656.379	4723.81
656.571	4762.72
656.763	4764.77
656.955	4811.87
657.148	4676.71
657.34	4818.02
657.532	4742.24
657.724	4668.52
657.916	4508.77
658.108	4514.92
658.3	4592.74
658.492	4486.25
658.684	4355.18
658.876	4332.65
659.068	4365.42
659.26	4543.59
659.452	4336.74
659.644	4316.26
659.836	4322.41
660.028	4222.06
660.22	4095.08
660.412	4260.97
660.604	4203.63
660.796	4183.15
660.988	4232.3
661.18	3994.73
661.372	4148.33
661.563	3961.97
661.755	4111.47
661.947	4023.41
662.139	3929.2
662.331	4015.21
662.522	3794.03
662.714	3847.28
662.906	3834.99
663.097	3814.51
663.289	3748.98
663.481	3804.27
663.673	3777.65
663.864	3783.79
664.056	3816.56
664.247	3695.73
664.439	3685.49
664.631	3548.28
664.822	3693.68
665.014	3607.67
665.205	3591.28
665.397	3632.24
665.588	3443.83
665.78	3605.62
665.971	3437.69
666.163	3505.27
666.354	3572.85
666.546	3452.02
666.737	3329.14
666.929	3333.24
667.12	3492.98
667.311	3261.56
667.503	3409.01
667.694	3427.45
667.885	3359.86
668.077	3386.49
668.268	3370.1
668.459	3273.85
668.651	3318.9
668.842	3196.03
669.033	3206.27
669.224	3218.55
669.416	3120.25
669.607	3181.69
669.798	3167.35
669.989	3239.03
670.18	3112.06
670.371	3169.4
670.563	3050.62
670.754	3021.95
670.945	3083.39
671.136	3036.28
671.327	2944.13
671.518	2980.99
671.709	3048.57
671.9	3028.09
672.091	3015.8
672.282	3013.76
672.473	2978.94
672.664	3003.52
672.855	2989.18
673.046	2909.31
673.237	2974.85
673.428	2854.02
673.619	2790.53
673.809	2860.16
674	2899.07
674.191	2989.18
674.382	2843.78
674.573	2909.31
674.764	2880.64
674.954	2880.64
675.145	2643.07
675.336	2829.44
675.527	2598.02
675.717	2802.82
675.908	2774.14
676.099	2819.2
676.289	2722.95
676.48	2765.95
676.671	2655.36
676.861	2722.95
677.052	2616.45
677.243	2616.45
677.433	2847.87
677.624	2681.99
677.814	2675.84
678.005	2774.14
678.195	2667.65
678.386	2638.98
678.576	2608.26
678.767	2614.4
678.957	2616.45
679.148	2546.82
679.338	2647.17
679.529	2524.29
679.719	2751.62
679.909	2591.88
680.1	2651.27
680.29	2616.45
680.481	2638.98
680.671	2696.32
680.861	2604.16
681.052	2577.54
681.242	2469
681.432	2577.54
681.622	2438.28
681.813	2477.19
682.003	2604.16
682.193	2638.98
682.383	2608.26
682.573	2509.96
682.764	2546.82
682.954	2495.62
683.144	2466.95
683.334	2475.14
683.524	2487.43
683.714	2512
683.904	2458.76
684.094	2450.57
684.284	2452.61
684.474	2610.31
684.664	2413.7
684.854	2442.37
685.044	2487.43
685.234	2413.7
685.424	2290.82
685.614	2487.43
685.804	2495.62
685.994	2309.26
686.184	2475.14
686.374	2305.16
686.564	2325.64
686.753	2385.03
686.943	2452.61
687.133	2391.17
687.323	2425.99
687.513	2380.93
687.702	2313.35
687.892	2407.56
688.082	2311.3
688.272	2401.41
688.461	2317.45
688.651	2403.46
688.841	2307.21
689.03	2335.88
689.22	2315.4
689.41	2233.48
689.599	2469
689.789	2362.5
689.979	2393.22
690.168	2270.34
690.358	2245.77
690.547	2362.5
690.737	2294.92
690.926	2327.69
691.116	2372.74
691.305	2462.85
691.495	2323.59
691.684	2292.87
691.874	2299.02
692.063	2309.26
692.252	2440.33
692.442	2245.77
692.631	2296.97
692.82	2213
693.01	2180.23
693.199	2413.7
693.388	2227.34
693.578	2249.86
693.767	2253.96
693.956	2245.77
694.146	2313.35
694.335	2389.13
694.524	2319.5
694.713	2417.8
694.902	2266.25
695.092	2378.89
695.281	2286.73
695.47	2284.68
695.659	2323.59
695.848	2317.45
696.037	2282.63
696.226	2346.12
696.415	2202.76
696.604	2260.1
696.793	2272.39
696.982	2344.07
697.171	2315.4
697.36	2446.47
697.549	2251.91
697.738	2395.27
697.927	2147.47
698.116	2350.21
698.305	2274.44
698.494	2395.27
698.683	2167.95
698.872	2460.81
699.061	2311.3
699.25	2204.81
699.438	2325.64
699.627	2294.92
699.816	2266.25
700.005	2305.16
700.193	2239.62
700.382	2299.02
700.571	2288.78
700.76	2243.72
700.948	2278.54
701.137	2213
701.326	2264.2
701.514	2229.38
701.703	2198.67
701.892	2245.77
702.08	2266.25
702.269	2253.96
702.457	2249.86
702.646	2208.9
702.834	2141.32
703.023	2227.34
703.212	2268.3
703.4	2184.33
703.589	2174.09
703.777	2272.39
703.965	2100.36
704.154	2190.47
704.342	2223.24
704.531	2233.48
704.719	2313.35
704.907	2192.52
705.096	2239.62
705.284	2253.96
705.472	2096.27
705.661	2104.46
705.849	2159.75
706.037	2139.27
706.226	2280.58
706.414	2239.62
706.602	2157.71
706.79	2182.28
706.979	2174.09
707.167	2122.89
707.355	2161.8
707.543	2073.74
707.731	2032.78
707.919	2077.83
708.107	2049.16
708.296	2141.32
708.484	2077.83
708.672	2073.74
708.86	2106.51
709.048	2034.83
709.236	2067.6
709.424	2006.16
709.612	1979.53
709.8	2018.44
709.988	1946.76
710.176	2104.46
710.364	2002.06
710.551	2126.99
710.739	2028.68
710.927	1983.63
711.115	2008.2
711.303	2000.01
711.491	1997.96
711.679	2071.69
711.866	1862.8
712.054	1911.95
712.242	1870.99
712.43	1916.05
712.617	1918.09
712.805	1922.19
712.993	1903.76
713.181	1916.05
713.368	1870.99
713.556	1893.52
713.744	1891.47
713.931	2020.49
714.119	1860.75
714.306	1903.76
714.494	1830.03
714.682	1827.98
714.869	1903.76
715.057	1895.57
715.244	1887.37
715.432	1832.08
715.619	1750.16
715.807	1748.11
715.994	1741.97
716.182	1807.5
716.369	1858.7
716.556	1852.56
716.744	1778.83
716.931	1705.1
717.119	1719.44
717.306	1918.09
717.493	1715.34
717.681	1713.3
717.868	1844.37
718.055	1709.2
718.242	1752.21
718.43	1793.17
718.617	1756.3
718.804	1727.63
718.991	1750.16
719.179	1758.35
719.366	1684.62
719.553	1805.46
719.74	1619.09
719.927	1723.54
720.114	1578.13
720.301	1715.34
720.488	1717.39
720.676	1610.9
720.863	1653.91
721.05	1746.06
721.237	1746.06
721.424	1571.99
721.611	1543.32
721.798	1662.1
721.985	1614.99
722.172	1533.08
722.358	1617.04
722.545	1647.76
722.732	1604.75
722.919	1524.88
723.106	1541.27
723.293	1508.5
723.48	1514.64
723.667	1494.16
723.853	1490.07
724.04	1596.56
724.227	1571.99
724.414	1524.88
724.6	1500.31
724.787	1463.44
724.974	1496.21
725.161	1414.29
725.347	1490.07
725.534	1510.55
725.72	1526.93
725.907	1490.07
726.094	1516.69
726.28	1406.1
726.467	1479.83
726.653	1477.78
726.84	1399.96
727.027	1465.49
727.213	1471.64
727.4	1442.96
727.586	1467.54
727.773	1414.29
727.959	1502.36
728.145	1488.02
728.332	1440.92
728.518	1465.49
728.705	1381.53
728.891	1477.78
729.077	1377.43
729.264	1389.72
729.45	1379.48
729.636	1383.57
729.823	1422.48
730.009	1352.85
730.195	1354.9
730.382	1453.2
730.568	1461.4
730.754	1363.09
730.94	1340.57
731.126	1307.8
731.313	1338.52
731.499	1426.58
731.685	1348.76
731.871	1338.52
732.057	1223.83
732.243	1342.61
732.429	1348.76
732.615	1371.29
732.801	1346.71
732.987	1264.79
733.173	1318.04
733.359	1313.94
733.545	1244.31
733.731	1211.54
733.917	1270.94
734.103	1254.55
734.289	1262.74
734.475	1207.45
734.661	1213.59
734.847	1264.79
735.033	1248.41
735.219	1225.88
735.404	1297.56
735.59	1219.74
735.776	1240.22
735.962	1221.78
736.148	1244.31
736.333	1174.68
736.519	1219.74
736.705	1152.15
736.89	1248.41
737.076	1154.2
737.262	1232.02
737.447	1207.45
737.633	1193.11
737.819	1180.82
738.004	1219.74
738.19	1098.91
738.375	1191.06
738.561	1148.06
738.747	1223.83
738.932	1166.49
739.118	1168.54
739.303	1162.39
739.489	1205.4
739.674	1070.23
739.859	1238.17
740.045	1094.81
740.23	1098.91
740.416	1182.87
740.601	1016.99
740.786	1152.15
740.972	1133.72
741.157	1199.26
741.342	1092.76
741.528	1049.75
741.713	1100.95
741.898	1137.82
742.084	1053.85
742.269	1098.91
742.454	1094.81
742.639	1033.37
742.824	1059.99
743.01	1047.71
743.195	1125.53
743.38	988.32
743.565	1010.84
743.75	1043.61
743.935	1002.65
744.12	1086.62
744.305	1037.47
744.49	1006.75
744.675	1002.65
744.86	1002.65
745.045	1002.65
745.23	1049.75
745.415	1041.56
745.6	1004.7
745.785	953.5
745.97	986.27
746.155	988.32
746.34	935.07
746.525	1002.65
746.71	896.16
746.895	982.17
747.079	890.01
747.264	955.55
747.449	814.24
747.634	926.88
747.819	904.35
748.003	955.55
748.188	881.82
748.373	875.68
748.557	877.73
748.742	814.24
748.927	859.29
749.111	894.11
749.296	838.81
749.481	851.1
749.665	853.15
749.85	879.77
750.034	838.81
750.219	818.33
750.404	806.05
750.588	881.82
750.773	810.14
750.957	908.44
751.141	797.85
751.326	881.82
751.51	797.85
751.695	810.14
751.879	754.85
752.064	787.61
752.248	842.91
752.432	806.05
752.617	801.95
752.801	789.66
752.985	777.37
753.17	760.99
753.354	779.42
753.538	670.88
753.722	730.27
753.907	771.23
754.091	787.61
754.275	722.08
754.459	771.23
754.643	740.51
754.828	740.51
755.012	642.21
755.196	670.88
755.38	681.12
755.564	672.93
755.748	627.87
755.932	777.37
756.116	732.32
756.3	742.56
756.484	697.5
756.668	697.5
756.852	644.26
757.036	664.74
757.22	691.36
757.404	656.54
757.588	595.11
757.772	709.79
757.956	621.73
758.14	638.11
758.323	660.64
758.507	660.64
758.691	652.45
758.875	642.21
759.059	697.5
759.242	662.69
759.426	607.39
759.61	574.63
759.794	631.97
759.977	679.07
760.161	613.54
760.345	629.92
760.528	625.83
760.712	554.15
760.895	615.59
761.079	572.58
761.263	574.63
761.446	504.99
761.63	490.66
761.813	509.09
761.997	570.53
762.18	539.81
762.364	593.06
762.547	537.76
762.731	603.3
762.914	603.3
763.098	517.28
763.281	539.81
763.464	574.63
763.648	593.06
763.831	548
764.015	521.38
764.198	488.61
764.381	558.24
764.564	576.67
764.748	611.49
764.931	451.75
765.114	433.32
765.297	554.15
765.481	504.99
765.664	543.91
765.847	564.39
766.03	517.28
766.213	566.43
766.397	466.08
766.58	507.04
766.763	504.99
766.946	521.38
767.129	498.85
767.312	474.28
767.495	545.95
767.678	451.75
767.861	502.95
768.044	502.95
768.227	488.61
768.41	533.67
768.593	494.76
768.776	455.84
768.959	423.08
769.142	470.18
769.324	494.76
769.507	494.76
769.69	494.76
769.873	472.23
770.056	418.98
770.239	414.88
770.421	507.04
770.604	412.84
770.787	517.28
770.97	519.33
771.152	453.8
771.335	464.04
771.518	511.14
771.7	392.36
771.883	486.56
772.066	480.42
772.248	461.99
772.431	468.13
772.613	498.85
772.796	427.17
772.978	457.89
773.161	429.22
773.343	425.12
773.526	365.73
773.708	414.88
773.891	441.51
774.073	394.4
774.256	398.5
774.438	390.31
774.621	457.89
774.803	441.51
774.985	375.97
775.168	378.02
775.35	363.69
775.532	363.69
775.715	445.6
775.897	437.41
776.079	353.45
776.261	382.12
776.444	427.17
776.626	431.27
776.808	349.35
776.99	427.17
777.173	390.31
777.355	445.6
777.537	367.78
777.719	314.53
777.901	382.12
778.083	292.01
778.265	423.08
778.447	357.54
778.629	371.88
778.811	339.11
778.993	304.29
779.175	312.49
779.357	296.1
779.539	279.72
779.721	308.39
779.903	394.4
780.085	390.31
780.267	273.57
780.449	418.98
780.631	365.73
780.812	357.54
780.994	294.05
781.176	308.39
781.358	312.49
781.54	306.34
781.721	300.2
781.903	353.45
782.085	263.33
782.267	365.73
782.448	304.29
782.63	310.44
782.812	369.83
782.993	308.39
783.175	369.83
783.357	234.66
783.538	269.48
783.72	330.92
783.901	351.4
784.083	304.29
784.264	222.38
784.446	283.81
784.627	238.76
784.809	308.39
784.99	242.85
785.172	279.72
785.353	246.95
785.535	201.9
785.716	230.57
785.897	212.14
786.079	218.28
786.26	259.24
786.441	265.38
786.623	316.58
786.804	308.39
786.985	308.39
787.167	187.56
787.348	330.92
787.529	214.18
787.71	179.37
787.891	212.14
788.073	240.81
788.254	220.33
788.435	220.33
788.616	271.53
788.797	218.28
788.978	257.19
789.159	160.94
789.34	230.57
789.522	214.18
789.703	181.42
789.884	257.19
790.065	273.57
790.246	191.66
790.427	152.74
790.607	203.94
790.788	171.18
790.969	185.51
791.15	183.46
791.331	218.28
791.512	146.6
791.693	222.38
791.874	218.28
792.054	187.56
792.235	191.66
792.416	210.09
792.597	271.53
792.778	167.08
792.958	218.28
793.139	179.37
793.32	154.79
793.5	195.75
793.681	162.98
793.862	220.33
794.042	173.22
794.223	158.89
794.404	214.18
794.584	181.42
794.765	185.51
794.945	175.27
795.126	230.57
795.306	224.42
795.487	205.99
795.667	193.7
795.848	181.42
796.028	87.21
796.209	185.51
796.389	214.18
796.57	167.08
796.75	91.31
796.93	275.62
797.111	220.33
797.291	160.94
797.471	244.9
797.652	181.42
797.832	138.41
798.012	156.84
798.192	179.37
798.373	152.74
798.553	214.18
798.733	214.18
798.913	177.32
799.093	216.23
799.274	156.84
799.454	156.84
799.634	181.42
799.814	142.5
799.994	99.5
800.174	175.27
800.354	134.31
800.534	220.33
800.714	74.92
800.894	124.07
801.074	83.11
801.254	179.37
801.434	210.09
801.614	183.46
801.794	175.27
801.974	277.67
802.154	132.26
802.334	142.5
802.514	185.51
802.693	181.42
802.873	169.13
803.053	162.98
803.233	148.65
803.413	105.64
803.592	154.79
803.772	160.94
803.952	136.36
804.131	107.69
804.311	154.79
804.491	117.93
804.67	158.89
804.85	66.73
805.03	138.41
805.209	191.66
805.389	111.78
805.568	81.07
805.748	58.54
805.928	119.98
806.107	56.49
806.287	130.22
806.466	85.16
806.646	101.55
806.825	140.46
807.004	117.93
807.184	130.22
807.363	89.26
807.543	142.5
807.722	79.02
807.901	148.65
808.081	158.89
808.26	113.83
808.439	117.93
808.619	115.88
808.798	138.41
808.977	93.35
809.156	99.5
809.336	103.59
809.515	126.12
809.694	142.5
809.873	158.89
810.052	60.59
810.231	122.02
810.411	152.74
810.59	76.97
810.769	50.35
810.948	136.36
811.127	72.87
811.306	58.54
811.485	54.44
811.664	83.11
811.843	101.55
812.022	50.35
812.201	91.31
812.38	173.22
812.559	36.01
812.737	105.64
812.916	54.44
813.095	140.46
813.274	50.35
813.453	152.74
813.632	132.26
813.811	160.94
813.989	31.91
814.168	119.98
814.347	128.17
814.526	91.31
814.704	5.29
814.883	146.6
815.062	97.45
815.24	111.78
815.419	42.15
815.598	93.35
815.776	40.11
815.955	72.87
816.133	122.02
816.312	93.35
816.49	17.58
816.669	142.5
816.847	76.97
817.026	44.2
817.204	29.87
817.383	72.87
817.561	56.49
817.74	52.39
817.918	72.87
818.097	54.44
818.275	33.96
818.453	42.15
818.632	36.01
818.81	81.07
818.988	48.3
819.167	91.31
819.345	48.3
819.523	99.5
819.701	-0.85
819.879	79.02
820.058	115.88
820.236	19.63
820.414	48.3
820.592	44.2
820.77	107.69
820.948	68.78
821.127	74.92
821.305	134.31
821.483	62.63
821.661	197.8
821.839	9.39
822.017	3.24
822.195	46.25
822.373	165.03
822.551	165.03
822.729	-4.95
822.907	79.02
823.085	62.63
823.262	31.91
823.44	103.59
823.618	17.58
823.796	38.06
823.974	64.68
824.152	58.54
824.329	33.96
824.507	101.55
824.685	83.11
824.863	93.35
825.04	130.22
825.218	85.16
825.396	72.87
825.574	76.97
825.751	95.4
825.929	79.02
826.107	-15.19
826.284	58.54
826.462	124.07
826.639	117.93
826.817	33.96
826.994	68.78
827.172	29.87
827.349	70.83
827.527	60.59
827.704	1.19
827.882	72.87
828.059	122.02
828.237	11.43
828.414	52.39
828.591	25.77
828.769	74.92
828.946	74.92
829.124	87.21
829.301	44.2
829.478	-29.52
829.655	87.21
829.833	27.82
830.01	117.93
830.187	95.4
830.364	44.2
830.542	93.35
830.719	93.35
830.896	58.54
831.073	40.11
831.25	44.2
831.427	52.39
831.604	50.35
831.782	76.97
831.959	7.34
832.136	99.5
832.313	126.12
832.49	72.87
832.667	38.06
832.844	56.49
833.021	60.59
833.198	38.06
833.374	42.15
833.551	-0.85
833.728	58.54
833.905	21.67
834.082	103.59
834.259	85.16
834.436	70.83
834.612	64.68
834.789	31.91
834.966	48.3
835.143	-37.72
835.319	-7
835.496	62.63
835.673	93.35
835.85	46.25
836.026	60.59
836.203	44.2
836.38	42.15
836.556	97.45
836.733	27.82
836.909	56.49
837.086	-13.14
837.262	17.58
837.439	-9.05
837.616	17.58
837.792	36.01
837.968	60.59
838.145	-2.9
838.321	74.92
838.498	-21.33
838.674	56.49
838.851	23.72
839.027	50.35
839.203	-13.14
839.38	68.78
839.556	42.15
839.732	27.82
839.909	23.72
840.085	52.39
840.261	-62.29
840.437	27.82
840.614	11.43
840.79	52.39
840.966	40.11
841.142	62.63
841.318	-13.14
841.494	74.92
841.671	50.35
841.847	42.15
842.023	21.67
842.199	38.06
842.375	101.55
842.551	40.11
842.727	21.67
842.903	29.87
843.079	54.44
843.255	17.58
843.431	36.01
843.607	107.69
843.783	33.96
843.959	70.83
844.134	-15.19
844.31	33.96
844.486	-27.48
844.662	58.54
844.838	52.39
845.013	-17.24
845.189	-29.52
845.365	54.44
845.541	56.49
845.716	19.63
845.892	56.49
846.068	-33.62
846.244	-11.09
846.419	13.48
846.595	-13.14
846.77	50.35
846.946	9.39
847.122	-2.9
847.297	15.53
847.473	38.06
847.648	-17.24
847.824	-7
847.999	9.39
848.175	79.02
848.35	38.06
848.526	68.78
848.701	76.97
848.876	81.07
849.052	60.59
849.227	21.67
849.403	29.87
849.578	3.24
849.753	42.15
849.929	33.96
850.104	27.82
850.279	85.16
850.454	60.59
850.63	23.72
850.805	-47.96
850.98	68.78
851.155	-33.62
851.33	74.92
851.505	13.48
851.681	-2.9
851.856	-0.85
852.031	-2.9
852.206	50.35
852.381	99.5
852.556	27.82
852.731	-7
852.906	44.2
853.081	76.97
853.256	-72.53
853.431	36.01
853.606	50.35
853.781	50.35
853.956	5.29
854.131	-4.95
854.305	-13.14
854.48	42.15
854.655	9.39
854.83	33.96
855.005	62.63
855.18	-9.05
855.354	115.88
855.529	-0.85
855.704	46.25
855.879	13.48
856.053	21.67
856.228	11.43
856.403	13.48
856.577	48.3
856.752	-13.14
856.926	25.77
857.101	33.96
857.276	-29.52
857.45	-27.48
857.625	42.15
857.799	-0.85
857.974	-7
858.148	-31.57
858.323	-7
858.497	15.53
858.672	-31.57
858.846	60.59
859.02	-15.19
859.195	19.63
859.369	31.91
859.543	46.25
859.718	68.78
859.892	50.35
860.066	-47.96
860.241	-54.1
860.415	23.72
860.589	91.31
860.763	85.16
860.938	-15.19
861.112	29.87
861.286	36.01
861.46	83.11
861.634	-37.72
861.808	15.53
861.982	-15.19
862.157	60.59
862.331	-21.33
862.505	-15.19
862.679	7.34
862.853	-19.29
863.027	-4.95
863.201	62.63
863.375	33.96
863.549	66.73
863.722	15.53
863.896	-23.38
864.07	-76.63
864.244	1.19
864.418	74.92
864.592	40.11
864.766	50.35
864.939	5.29
865.113	-9.05
865.287	54.44
865.461	50.35
865.634	17.58
865.808	-52.05
865.982	42.15
866.156	-45.91
866.329	15.53
866.503	7.34
866.676	23.72
866.85	-68.44
867.024	58.54
867.197	-2.9
867.371	-27.48
867.544	1.19
867.718	23.72
867.891	1.19
868.065	13.48
868.238	-27.48
868.412	3.24
868.585	9.39
868.759	-13.14
868.932	48.3
869.105	25.77
869.279	21.67
869.452	-93.01
869.625	87.21
869.799	-13.14
869.972	11.43
870.145	40.11
870.319	-33.62
870.492	31.91
870.665	-27.48
870.838	-0.85
871.011	-68.44
871.185	11.43
871.358	1.19
871.531	-23.38
871.704	-47.96
871.877	76.97
872.05	-15.19
872.223	56.49
872.396	36.01
872.569	1.19
872.742	-21.33
872.915	79.02
873.088	-2.9
873.261	25.77
873.434	-74.58
873.607	15.53
873.78	9.39
873.953	109.74
874.126	46.25
874.299	1.19
874.471	-76.63
874.644	-19.29
874.817	27.82
874.99	40.11
875.163	-0.85
875.335	-23.38
875.508	93.35
875.681	9.39
875.853	-31.57
876.026	42.15
876.199	-56.15
876.371	52.39
876.544	-23.38
876.717	-52.05
876.889	-33.62
877.062	72.87
877.234	-43.86
877.407	17.58
877.579	-2.9
877.752	-2.9
877.924	7.34
878.097	27.82
878.269	-9.05
878.442	46.25
878.614	85.16
878.786	44.2
878.959	-52.05
879.131	31.91
879.303	46.25
879.476	62.63
879.648	-43.86
879.82	42.15
879.993	21.67
880.165	42.15
880.337	85.16
880.509	31.91
880.681	27.82
880.854	7.34
881.026	3.24
881.198	9.39
881.37	23.72
881.542	60.59
881.714	-35.67
881.886	83.11
882.058	-0.85
882.23	-17.24
882.402	19.63
882.574	11.43
882.746	-25.43
882.918	-2.9
883.09	38.06
883.262	38.06
883.434	-13.14
883.606	56.49
883.778	1.19
883.95	62.63
884.122	-70.48
884.293	31.91
884.465	7.34
884.637	83.11
884.809	-31.57
884.98	-2.9
885.152	46.25
885.324	-17.24
885.496	17.58
885.667	-4.95
885.839	62.63
886.011	3.24
886.182	-2.9
886.354	42.15
886.525	27.82
886.697	62.63
886.869	5.29
887.04	58.54
887.212	27.82
887.383	58.54
887.555	11.43
887.726	33.96
887.897	13.48
888.069	-21.33
888.24	21.67
888.412	5.29
888.583	9.39
888.754	-2.9
888.926	13.48
889.097	23.72
889.268	40.11
889.44	48.3
889.611	-35.67
889.782	62.63
889.953	-37.72
890.125	25.77
890.296	64.68
890.467	7.34
890.638	-31.57
890.809	17.58
890.98	56.49
891.151	5.29
891.323	105.64
891.494	54.44
891.665	19.63
891.836	52.39
892.007	-54.1
892.178	13.48
892.349	-4.95
892.52	46.25
892.691	29.87
892.862	36.01
893.032	27.82
893.203	-58.2
893.374	-0.85
893.545	-21.33
893.716	-0.85
893.887	64.68
894.057	-43.86
894.228	85.16
894.399	-9.05
894.57	-13.14
894.74	23.72
894.911	31.91
895.082	-19.29
895.253	38.06
895.423	-21.33
895.594	62.63
895.764	46.25
895.935	3.24
896.106	-19.29
896.276	-41.81
896.447	-29.52
896.617	64.68
896.788	29.87
896.958	-0.85
897.129	40.11
897.299	-11.09
897.47	101.55
897.64	-47.96
897.81	3.24
897.981	25.77
898.151	-4.95
898.322	3.24
898.492	11.43
898.662	79.02
898.832	-15.19
899.003	29.87
899.173	27.82
899.343	52.39
899.513	15.53
