Data from USB4F104151__185__13-59-07-310.txt Node

Date: Thu Mar 13 13:59:07 EDT 2025
User: louis
Spectrometer: USB4F10415
Trigger mode: 4
Integration Time (sec): 1.000000E-2
Scans to average: 1
Electric dark correction enabled: true
Nonlinearity correction enabled: false
Boxcar width: 0
XAxis mode: Wavelengths
Number of Pixels in Spectrum: 3648
>>>>>Begin Spectral Data<<<<<
178.204	-41.13
178.424	-41.13
178.644	-41.13
178.864	28.5
179.084	-80.04
179.304	38.74
179.524	-12.46
179.744	-6.31
179.964	-92.33
180.184	-30.89
180.404	38.74
180.624	16.21
180.844	57.17
181.064	-32.94
181.283	18.26
181.503	3.93
181.723	1.88
181.943	-4.27
182.163	12.12
182.383	-47.27
182.602	48.98
182.822	59.22
183.042	-0.17
183.262	-49.32
183.482	-20.65
183.701	42.84
183.921	16.21
184.141	-30.89
184.361	20.31
184.58	48.98
184.8	16.21
185.02	-6.31
185.239	44.88
185.459	137.04
185.679	46.93
185.898	8.02
186.118	48.98
186.338	18.26
186.557	89.94
186.777	40.79
186.997	44.88
187.216	16.21
187.436	57.17
187.655	3.93
187.875	46.93
188.095	30.55
188.314	94.04
188.534	36.69
188.753	65.36
188.973	57.17
189.192	24.4
189.412	98.13
189.631	46.93
189.851	1.88
190.07	85.84
190.29	-0.17
190.509	8.02
190.729	40.79
190.948	59.22
191.168	46.93
191.387	38.74
191.607	71.51
191.826	32.6
192.045	12.12
192.265	12.12
192.484	-18.6
192.704	55.12
192.923	-37.03
193.142	32.6
193.362	22.36
193.581	98.13
193.8	55.12
194.02	-49.32
194.239	-22.7
194.458	30.55
194.678	-24.75
194.897	65.36
195.116	-8.36
195.335	3.93
195.555	-10.41
195.774	14.17
195.993	53.08
196.212	30.55
196.432	75.6
196.651	-14.51
196.87	-8.36
197.089	51.03
197.308	65.36
197.528	18.26
197.747	46.93
197.966	83.8
198.185	14.17
198.404	24.4
198.623	36.69
198.842	44.88
199.062	53.08
199.281	118.61
199.5	-10.41
199.719	-4.27
199.938	38.74
200.157	40.79
200.376	34.64
200.595	36.69
200.814	8.02
201.033	42.84
201.252	-6.31
201.471	22.36
201.69	77.65
201.909	38.74
202.128	40.79
202.347	71.51
202.566	51.03
202.785	-6.31
203.004	-16.55
203.223	18.26
203.442	-2.22
203.661	34.64
203.879	44.88
204.098	87.89
204.317	-6.31
204.536	-63.66
204.755	8.02
204.974	59.22
205.193	-0.17
205.411	63.32
205.63	-0.17
205.849	83.8
206.068	28.5
206.287	-0.17
206.505	32.6
206.724	3.93
206.943	44.88
207.162	48.98
207.381	12.12
207.599	65.36
207.818	3.93
208.037	34.64
208.255	46.93
208.474	8.02
208.693	16.21
208.911	53.08
209.13	81.75
209.349	77.65
209.567	-12.46
209.786	20.31
210.005	32.6
210.223	36.69
210.442	-37.03
210.661	24.4
210.879	38.74
211.098	-80.04
211.316	73.56
211.535	55.12
211.753	-6.31
211.972	48.98
212.191	32.6
212.409	57.17
212.628	20.31
212.846	79.7
213.065	5.97
213.283	53.08
213.502	71.51
213.72	44.88
213.938	12.12
214.157	46.93
214.375	89.94
214.594	-16.55
214.812	1.88
215.031	24.4
215.249	-12.46
215.467	32.6
215.686	77.65
215.904	12.12
216.122	22.36
216.341	5.97
216.559	3.93
216.778	20.31
216.996	87.89
217.214	3.93
217.432	-22.7
217.651	22.36
217.869	14.17
218.087	34.64
218.306	51.03
218.524	63.32
218.742	57.17
218.96	110.42
219.179	34.64
219.397	16.21
219.615	96.08
219.833	32.6
220.051	18.26
220.27	81.75
220.488	40.79
220.706	24.4
220.924	3.93
221.142	46.93
221.36	10.07
221.578	24.4
221.796	-51.37
222.015	51.03
222.233	-2.22
222.451	16.21
222.669	8.02
222.887	24.4
223.105	12.12
223.323	77.65
223.541	42.84
223.759	-10.41
223.977	96.08
224.195	-43.18
224.413	48.98
224.631	-30.89
224.849	32.6
225.067	28.5
225.285	-12.46
225.503	51.03
225.721	-16.55
225.939	42.84
226.157	40.79
226.375	22.36
226.592	-28.84
226.81	8.02
227.028	61.27
227.246	51.03
227.464	3.93
227.682	18.26
227.9	-4.27
228.117	32.6
228.335	73.56
228.553	-57.51
228.771	106.32
228.989	53.08
229.206	-20.65
229.424	51.03
229.642	-47.27
229.86	3.93
230.077	5.97
230.295	-20.65
230.513	30.55
230.731	-14.51
230.948	81.75
231.166	8.02
231.384	10.07
231.601	85.84
231.819	79.7
232.037	10.07
232.254	-24.75
232.472	34.64
232.689	-20.65
232.907	57.17
233.125	75.6
233.342	40.79
233.56	69.46
233.777	-0.17
233.995	3.93
234.213	57.17
234.43	30.55
234.648	-47.27
234.865	26.45
235.083	36.69
235.3	53.08
235.518	32.6
235.735	-6.31
235.953	5.97
236.17	-4.27
236.388	42.84
236.605	46.93
236.822	-6.31
237.04	36.69
237.257	-8.36
237.475	-0.17
237.692	-6.31
237.909	63.32
238.127	91.99
238.344	42.84
238.562	-12.46
238.779	71.51
238.996	16.21
239.214	-26.79
239.431	44.88
239.648	48.98
239.865	44.88
240.083	65.36
240.3	-6.31
240.517	-8.36
240.735	40.79
240.952	83.8
241.169	61.27
241.386	12.12
241.603	-6.31
241.821	-30.89
242.038	-41.13
242.255	30.55
242.472	18.26
242.689	91.99
242.907	73.56
243.124	14.17
243.341	73.56
243.558	-6.31
243.775	98.13
243.992	3.93
244.209	34.64
244.426	53.08
244.643	12.12
244.86	22.36
245.078	44.88
245.295	32.6
245.512	61.27
245.729	12.12
245.946	59.22
246.163	53.08
246.38	-14.51
246.597	79.7
246.814	57.17
247.031	10.07
247.248	18.26
247.464	71.51
247.681	18.26
247.898	5.97
248.115	85.84
248.332	-61.61
248.549	28.5
248.766	12.12
248.983	28.5
249.2	42.84
249.417	48.98
249.633	-6.31
249.85	-4.27
250.067	65.36
250.284	30.55
250.501	65.36
250.717	81.75
250.934	-10.41
251.151	-26.79
251.368	71.51
251.585	42.84
251.801	67.41
252.018	42.84
252.235	-26.79
252.451	18.26
252.668	-6.31
252.885	53.08
253.102	55.12
253.318	73.56
253.535	89.94
253.752	14.17
253.968	5.97
254.185	46.93
254.401	-39.08
254.618	32.6
254.835	3.93
255.051	106.32
255.268	-12.46
255.484	71.51
255.701	5.97
255.917	16.21
256.134	26.45
256.351	-0.17
256.567	87.89
256.784	69.46
257	5.97
257.217	53.08
257.433	48.98
257.65	-20.65
257.866	18.26
258.082	48.98
258.299	20.31
258.515	30.55
258.732	59.22
258.948	28.5
259.165	112.47
259.381	34.64
259.597	26.45
259.814	85.84
260.03	46.93
260.246	22.36
260.463	87.89
260.679	-10.41
260.895	48.98
261.112	89.94
261.328	24.4
261.544	32.6
261.761	40.79
261.977	36.69
262.193	46.93
262.409	30.55
262.626	-14.51
262.842	42.84
263.058	-8.36
263.274	22.36
263.49	34.64
263.707	40.79
263.923	83.8
264.139	24.4
264.355	24.4
264.571	34.64
264.787	1.88
265.004	-0.17
265.22	65.36
265.436	-16.55
265.652	65.36
265.868	3.93
266.084	38.74
266.3	63.32
266.516	-12.46
266.732	89.94
266.948	71.51
267.164	73.56
267.38	26.45
267.596	-2.22
267.812	24.4
268.028	42.84
268.244	44.88
268.46	-37.03
268.676	69.46
268.892	108.37
269.108	36.69
269.324	67.41
269.54	-8.36
269.756	71.51
269.972	12.12
270.188	53.08
270.403	44.88
270.619	20.31
270.835	-4.27
271.051	104.28
271.267	-32.94
271.483	-0.17
271.698	24.4
271.914	65.36
272.13	24.4
272.346	55.12
272.562	-10.41
272.777	51.03
272.993	-12.46
273.209	10.07
273.425	-6.31
273.64	34.64
273.856	34.64
274.072	-24.75
274.287	-26.79
274.503	44.88
274.719	100.18
274.934	34.64
275.15	48.98
275.366	12.12
275.581	-6.31
275.797	57.17
276.012	110.42
276.228	26.45
276.444	-22.7
276.659	26.45
276.875	-30.89
277.09	51.03
277.306	34.64
277.521	-30.89
277.737	-8.36
277.952	-39.08
278.168	3.93
278.383	12.12
278.599	-43.18
278.814	-14.51
279.03	51.03
279.245	79.7
279.461	53.08
279.676	14.17
279.892	30.55
280.107	32.6
280.322	65.36
280.538	44.88
280.753	18.26
280.969	18.26
281.184	59.22
281.399	32.6
281.615	69.46
281.83	28.5
282.045	-28.84
282.26	26.45
282.476	-30.89
282.691	-24.75
282.906	48.98
283.122	18.26
283.337	73.56
283.552	40.79
283.767	48.98
283.983	20.31
284.198	16.21
284.413	61.27
284.628	-6.31
284.843	67.41
285.058	-53.42
285.274	5.97
285.489	73.56
285.704	67.41
285.919	26.45
286.134	12.12
286.349	28.5
286.564	12.12
286.779	-14.51
286.995	26.45
287.21	-10.41
287.425	57.17
287.64	16.21
287.855	106.32
288.07	-37.03
288.285	40.79
288.5	57.17
288.715	-16.55
288.93	65.36
289.145	18.26
289.36	32.6
289.575	42.84
289.79	20.31
290.004	28.5
290.219	8.02
290.434	44.88
290.649	14.17
290.864	34.64
291.079	63.32
291.294	51.03
291.509	94.04
291.724	-22.7
291.938	20.31
292.153	-2.22
292.368	38.74
292.583	89.94
292.798	69.46
293.012	81.75
293.227	61.27
293.442	28.5
293.657	3.93
293.871	38.74
294.086	-14.51
294.301	38.74
294.516	16.21
294.73	8.02
294.945	-53.42
295.16	24.4
295.374	55.12
295.589	65.36
295.804	61.27
296.018	-2.22
296.233	61.27
296.447	16.21
296.662	22.36
296.877	-14.51
297.091	48.98
297.306	46.93
297.52	51.03
297.735	30.55
297.949	81.75
298.164	26.45
298.378	-34.99
298.593	44.88
298.807	36.69
299.022	69.46
299.236	57.17
299.451	3.93
299.665	108.37
299.88	30.55
300.094	59.22
300.309	57.17
300.523	79.7
300.737	57.17
300.952	16.21
301.166	46.93
301.381	-32.94
301.595	28.5
301.809	-0.17
302.024	63.32
302.238	-0.17
302.452	102.23
302.667	46.93
302.881	73.56
303.095	-0.17
303.309	8.02
303.524	8.02
303.738	16.21
303.952	30.55
304.166	63.32
304.381	-22.7
304.595	24.4
304.809	18.26
305.023	46.93
305.237	18.26
305.452	14.17
305.666	24.4
305.88	38.74
306.094	81.75
306.308	59.22
306.522	-18.6
306.736	79.7
306.95	79.7
307.164	81.75
307.379	30.55
307.593	12.12
307.807	55.12
308.021	110.42
308.235	32.6
308.449	10.07
308.663	36.69
308.877	-0.17
309.091	28.5
309.305	48.98
309.519	108.37
309.733	57.17
309.947	94.04
310.161	-24.75
310.374	36.69
310.588	67.41
310.802	-18.6
311.016	65.36
311.23	-8.36
311.444	24.4
311.658	14.17
311.872	67.41
312.085	57.17
312.299	8.02
312.513	-6.31
312.727	-10.41
312.941	69.46
313.154	48.98
313.368	48.98
313.582	63.32
313.796	42.84
314.009	36.69
314.223	40.79
314.437	32.6
314.651	30.55
314.864	63.32
315.078	69.46
315.292	40.79
315.505	20.31
315.719	57.17
315.933	-18.6
316.146	14.17
316.36	51.03
316.573	59.22
316.787	65.36
317.001	75.6
317.214	3.93
317.428	51.03
317.641	-0.17
317.855	18.26
318.068	-30.89
318.282	57.17
318.495	30.55
318.709	48.98
318.922	16.21
319.136	67.41
319.349	94.04
319.563	14.17
319.776	139.09
319.99	65.36
320.203	126.8
320.417	85.84
320.63	116.56
320.843	-22.7
321.057	14.17
321.27	91.99
321.483	57.17
321.697	42.84
321.91	-14.51
322.124	36.69
322.337	20.31
322.55	87.89
322.763	-12.46
322.977	73.56
323.19	-16.55
323.403	-24.75
323.617	28.5
323.83	20.31
324.043	36.69
324.256	42.84
324.469	-18.6
324.683	8.02
324.896	16.21
325.109	12.12
325.322	-6.31
325.535	96.08
325.748	34.64
325.962	12.12
326.175	94.04
326.388	24.4
326.601	73.56
326.814	36.69
327.027	44.88
327.24	-8.36
327.453	26.45
327.666	61.27
327.879	32.6
328.092	10.07
328.305	46.93
328.518	14.17
328.731	57.17
328.944	48.98
329.157	42.84
329.37	83.8
329.583	89.94
329.796	94.04
330.009	34.64
330.222	61.27
330.435	20.31
330.648	65.36
330.861	53.08
331.073	40.79
331.286	-26.79
331.499	104.28
331.712	26.45
331.925	3.93
332.138	137.04
332.35	38.74
332.563	38.74
332.776	40.79
332.989	75.6
333.202	57.17
333.414	89.94
333.627	-16.55
333.84	-16.55
334.053	42.84
334.265	57.17
334.478	44.88
334.691	-0.17
334.903	42.84
335.116	32.6
335.329	-6.31
335.541	89.94
335.754	28.5
335.966	59.22
336.179	-4.27
336.392	34.64
336.604	24.4
336.817	-4.27
337.029	98.13
337.242	46.93
337.454	55.12
337.667	73.56
337.88	77.65
338.092	16.21
338.305	63.32
338.517	28.5
338.729	83.8
338.942	61.27
339.154	10.07
339.367	-4.27
339.579	32.6
339.792	67.41
340.004	61.27
340.217	53.08
340.429	69.46
340.641	73.56
340.854	59.22
341.066	65.36
341.278	42.84
341.491	55.12
341.703	32.6
341.915	24.4
342.128	28.5
342.34	-2.22
342.552	83.8
342.764	-0.17
342.977	71.51
343.189	16.21
343.401	24.4
343.613	46.93
343.826	44.88
344.038	83.8
344.25	112.47
344.462	-12.46
344.674	89.94
344.886	40.79
345.099	36.69
345.311	96.08
345.523	91.99
345.735	61.27
345.947	100.18
346.159	83.8
346.371	55.12
346.583	-30.89
346.795	75.6
347.007	79.7
347.219	77.65
347.431	53.08
347.643	24.4
347.855	12.12
348.067	34.64
348.279	48.98
348.491	116.56
348.703	3.93
348.915	-18.6
349.127	61.27
349.339	96.08
349.551	55.12
349.763	108.37
349.975	-4.27
350.187	132.95
350.399	81.75
350.61	61.27
350.822	24.4
351.034	3.93
351.246	-18.6
351.458	40.79
351.669	55.12
351.881	38.74
352.093	-20.65
352.305	26.45
352.517	104.28
352.728	85.84
352.94	40.79
353.152	118.61
353.363	3.93
353.575	48.98
353.787	28.5
353.999	34.64
354.21	77.65
354.422	48.98
354.633	-34.99
354.845	46.93
355.057	91.99
355.268	32.6
355.48	53.08
355.692	53.08
355.903	42.84
356.115	40.79
356.326	16.21
356.538	61.27
356.749	48.98
356.961	32.6
357.172	28.5
357.384	77.65
357.595	28.5
357.807	53.08
358.018	77.65
358.23	79.7
358.441	106.32
358.653	71.51
358.864	48.98
359.075	-49.32
359.287	40.79
359.498	71.51
359.709	40.79
359.921	8.02
360.132	53.08
360.344	36.69
360.555	32.6
360.766	77.65
360.977	51.03
361.189	106.32
361.4	59.22
361.611	16.21
361.823	63.32
362.034	8.02
362.245	87.89
362.456	20.31
362.667	75.6
362.879	71.51
363.09	63.32
363.301	42.84
363.512	48.98
363.723	16.21
363.935	5.97
364.146	-12.46
364.357	55.12
364.568	87.89
364.779	83.8
364.99	65.36
365.201	36.69
365.412	91.99
365.623	-2.22
365.834	34.64
366.045	26.45
366.256	20.31
366.467	42.84
366.678	40.79
366.889	-26.79
367.1	81.75
367.311	-16.55
367.522	46.93
367.733	24.4
367.944	59.22
368.155	46.93
368.366	57.17
368.577	26.45
368.788	20.31
368.999	67.41
369.209	44.88
369.42	20.31
369.631	67.41
369.842	28.5
370.053	38.74
370.264	81.75
370.474	24.4
370.685	-20.65
370.896	67.41
371.107	26.45
371.317	48.98
371.528	12.12
371.739	120.66
371.95	5.97
372.16	42.84
372.371	57.17
372.582	114.52
372.792	42.84
373.003	98.13
373.214	34.64
373.424	30.55
373.635	-47.27
373.846	83.8
374.056	10.07
374.267	10.07
374.477	34.64
374.688	48.98
374.898	51.03
375.109	46.93
375.319	57.17
375.53	48.98
375.74	73.56
375.951	-32.94
376.161	-24.75
376.372	81.75
376.582	55.12
376.793	65.36
377.003	51.03
377.214	16.21
377.424	8.02
377.635	69.46
377.845	81.75
378.055	65.36
378.266	91.99
378.476	32.6
378.686	55.12
378.897	20.31
379.107	46.93
379.317	143.19
379.528	59.22
379.738	91.99
379.948	53.08
380.158	51.03
380.369	106.32
380.579	71.51
380.789	73.56
380.999	16.21
381.21	98.13
381.42	71.51
381.63	59.22
381.84	114.52
382.05	87.89
382.261	135
382.471	104.28
382.681	71.51
382.891	57.17
383.101	46.93
383.311	122.71
383.521	77.65
383.731	42.84
383.941	65.36
384.151	75.6
384.361	53.08
384.571	124.76
384.781	24.4
384.991	130.9
385.201	139.09
385.411	44.88
385.621	57.17
385.831	110.42
386.041	-6.31
386.251	34.64
386.461	94.04
386.671	8.02
386.881	79.7
387.091	24.4
387.301	59.22
387.511	-24.75
387.72	132.95
387.93	-4.27
388.14	120.66
388.35	79.7
388.56	55.12
388.769	124.76
388.979	44.88
389.189	69.46
389.399	73.56
389.609	112.47
389.818	65.36
390.028	81.75
390.238	108.37
390.447	36.69
390.657	85.84
390.867	48.98
391.076	122.71
391.286	63.32
391.496	59.22
391.705	57.17
391.915	20.31
392.125	65.36
392.334	42.84
392.544	61.27
392.753	67.41
392.963	77.65
393.172	141.14
393.382	32.6
393.591	69.46
393.801	10.07
394.01	61.27
394.22	155.47
394.429	100.18
394.639	57.17
394.848	71.51
395.058	81.75
395.267	143.19
395.477	69.46
395.686	112.47
395.895	139.09
396.105	122.71
396.314	85.84
396.524	106.32
396.733	63.32
396.942	116.56
397.152	-20.65
397.361	59.22
397.57	57.17
397.78	59.22
397.989	132.95
398.198	153.43
398.407	110.42
398.617	59.22
398.826	100.18
399.035	89.94
399.244	118.61
399.453	87.89
399.663	63.32
399.872	81.75
400.081	24.4
400.29	139.09
400.499	28.5
400.708	200.53
400.917	83.8
401.127	141.14
401.336	118.61
401.545	157.52
401.754	57.17
401.963	20.31
402.172	143.19
402.381	204.63
402.59	116.56
402.799	124.76
403.008	165.71
403.217	108.37
403.426	141.14
403.635	57.17
403.844	69.46
404.053	110.42
404.262	106.32
404.471	169.81
404.68	77.65
404.888	100.18
405.097	159.57
405.306	182.1
405.515	139.09
405.724	79.7
405.933	130.9
406.142	182.1
406.35	188.24
406.559	98.13
406.768	231.25
406.977	241.49
407.185	229.2
407.394	167.76
407.603	178
407.812	165.71
408.02	200.53
408.229	198.48
408.438	212.82
408.646	196.43
408.855	229.2
409.064	188.24
409.272	198.48
409.481	292.69
409.69	239.44
409.898	255.83
410.107	223.06
410.315	233.3
410.524	311.12
410.733	321.36
410.941	241.49
411.15	294.74
411.358	311.12
411.567	331.6
411.775	350.03
411.984	350.03
412.192	360.27
412.401	458.57
412.609	436.05
412.818	434
413.026	466.77
413.234	438.09
413.443	493.39
413.651	479.05
413.86	485.2
414.068	552.78
414.276	575.31
414.485	528.21
414.693	573.26
414.901	603.98
415.11	649.04
415.318	606.03
415.526	667.47
415.734	741.19
415.943	747.34
416.151	689.99
416.359	814.92
416.567	810.82
416.776	843.59
416.984	847.69
417.192	923.46
417.4	880.46
417.608	864.07
417.817	925.51
418.025	1011.53
418.233	1040.2
418.441	1068.87
418.649	1064.77
418.857	1177.41
419.065	1197.89
419.273	1118.02
419.481	1234.75
419.689	1253.19
419.897	1331.01
420.105	1410.88
420.313	1380.16
420.521	1449.79
420.729	1457.98
420.937	1582.91
421.145	1589.05
421.353	1603.39
421.561	1744.7
421.769	1685.31
421.977	1836.86
422.185	1759.03
422.393	1890.1
422.601	2033.46
422.809	2035.51
423.017	1992.5
423.224	2146.1
423.432	2055.99
423.64	2228.02
423.848	2400.05
424.056	2391.86
424.263	2490.16
424.471	2545.45
424.679	2615.09
424.887	2670.38
425.094	2740.01
425.302	2830.12
425.51	2889.51
425.718	2961.19
425.925	3069.73
426.133	3106.6
426.341	3491.62
426.548	3462.94
426.756	3448.61
426.964	3491.62
427.171	3755.8
427.379	3862.3
427.586	3921.69
427.794	3942.17
428.001	4146.97
428.209	4353.81
428.417	4265.75
428.624	4579.09
428.832	4550.42
429.039	4581.14
429.247	4521.74
429.454	5152.52
429.662	5224.2
429.869	5062.41
430.076	5293.83
430.284	5095.18
430.491	5265.16
430.699	5811.96
430.906	5551.87
431.114	5773.05
431.321	6067.96
431.528	5996.28
431.736	6498.03
431.943	6690.54
432.15	6487.79
432.358	6743.79
432.565	6944.49
432.772	6952.68
432.979	7333.61
433.187	7452.39
433.394	7425.76
433.601	7962.33
433.808	8060.63
434.016	7927.52
434.223	8468.18
434.43	8789.71
434.637	8668.88
434.844	9184.97
435.052	9567.94
435.259	9301.7
435.466	9338.57
435.673	9316.04
435.88	9803.46
436.087	10436.28
436.294	10559.16
436.501	10247.86
436.708	10399.41
436.915	10684.08
437.122	11097.77
437.329	11282.09
437.537	11591.33
437.743	11982.49
437.95	11628.2
438.157	12189.34
438.364	12709.52
438.571	12697.24
438.778	12734.1
438.985	13751.94
439.192	13246.09
439.399	13866.63
439.606	13442.7
439.813	14106.24
440.02	15261.29
440.227	14855.79
440.433	14714.48
440.64	15273.58
440.847	15007.34
441.054	15597.16
441.261	16326.24
441.467	16311.9
441.674	16694.87
441.881	17149.52
442.088	17088.08
442.294	16877.14
442.501	17460.81
442.708	17825.35
442.914	18202.18
443.121	19134
443.328	18632.25
443.534	19910.18
443.741	19387.95
443.948	19412.53
444.154	20702.75
444.361	20614.68
444.568	20543
444.774	20878.87
444.981	20483.61
445.187	21440.01
445.394	22519.29
445.6	22175.23
445.807	24118.76
446.013	23262.71
446.22	23737.84
446.426	24774.11
446.633	24942.04
446.839	25677.26
447.046	24778.2
447.252	26158.53
447.459	26193.35
447.665	25931.21
447.871	27082.17
448.078	27987.37
448.284	26662.33
448.491	27583.92
448.697	28511.65
448.903	29289.88
449.11	28972.44
449.316	28747.17
449.522	29490.58
449.728	30135.69
449.935	30438.79
450.141	30485.89
450.347	31223.16
450.553	30023.05
450.76	30350.73
450.966	31440.25
451.172	30805.38
451.378	32011.63
451.584	31067.52
451.791	31849.84
451.997	32226.67
452.203	32662.88
452.409	32195.95
452.615	32497
452.821	31241.59
453.027	30887.29
453.233	32302.44
453.44	30987.64
453.646	31292.79
453.852	31802.74
454.058	32275.82
454.264	31118.71
454.47	31808.88
454.676	30848.38
454.882	31939.95
455.088	29484.44
455.294	29519.25
455.5	30188.94
455.705	30735.74
455.911	29265.3
456.117	28945.82
456.323	28196.26
456.529	26662.33
456.735	28063.15
456.941	27168.18
457.147	26924.47
457.352	26072.52
457.558	25890.25
457.764	25859.53
457.97	25112.02
458.176	24866.27
458.381	24923.61
458.587	23725.55
458.793	23649.77
458.999	22400.51
459.204	23961.06
459.41	23522.8
459.616	21816.84
459.821	22013.45
460.027	21802.5
460.233	21175.83
460.438	20577.82
460.644	20479.52
460.85	19865.13
461.055	18953.78
461.261	19031.6
461.466	17972.8
461.672	17233.49
461.878	18837.05
462.083	17339.98
462.289	17145.42
462.494	16983.63
462.7	16117.34
462.905	16082.53
463.111	16238.17
463.316	16580.18
463.522	15984.23
463.727	16182.88
463.932	16004.71
464.138	15734.37
464.343	15933.03
464.549	15298.16
464.754	15965.79
464.959	15789.67
465.165	15574.63
465.37	15189.61
465.575	14605.94
465.781	15210.09
465.986	15179.37
466.191	14634.61
466.397	14423.67
466.602	13772.42
466.807	14290.56
467.012	14345.85
467.218	14253.69
467.423	13981.31
467.628	14171.77
467.833	14855.79
468.038	14296.7
468.244	13735.56
468.449	14534.26
468.654	13796.99
468.859	13749.89
469.064	13790.85
469.269	13268.62
469.474	13258.38
469.679	13428.36
469.885	13119.12
470.09	13551.24
470.295	13454.98
470.5	13016.72
470.705	13008.53
470.91	12787.35
471.115	12684.95
471.32	12838.55
471.525	12736.15
471.73	12385.94
471.935	12672.66
472.139	11935.39
472.344	12205.72
472.549	12076.7
472.754	11902.62
472.959	11622.05
473.164	11460.26
473.369	11200.17
473.574	11646.63
473.778	11587.24
473.983	11411.11
474.188	11357.86
474.393	10731.19
474.598	10712.75
474.802	10835.63
475.007	10802.86
475.212	10747.57
475.417	10491.57
475.621	10413.75
475.826	10589.88
476.031	10227.39
476.235	10102.46
476.44	10258.1
476.645	10092.22
476.849	10028.73
477.054	9920.19
477.259	9699.01
477.463	9795.26
477.668	9428.68
477.872	9580.23
478.077	9395.91
478.282	9074.38
478.486	9176.78
478.691	9236.17
478.895	9205.45
479.1	9107.15
479.304	9170.63
479.509	8971.98
479.713	9096.91
479.918	8926.93
480.122	8625.87
480.326	8922.83
480.531	8650.45
480.735	8535.76
480.94	8627.92
481.144	8924.88
481.348	8414.93
481.553	8449.75
481.757	8302.29
481.961	8537.81
482.166	8636.11
482.37	8244.95
482.574	8394.45
482.778	8416.98
482.983	8646.35
483.187	8367.83
483.391	8548.05
483.595	8271.58
483.8	8224.47
484.004	8492.76
484.208	8412.88
484.412	8619.73
484.616	8232.66
484.821	8472.28
485.025	8480.47
485.229	8474.32
485.433	8425.17
485.637	8414.93
485.841	8259.29
486.045	8441.56
486.249	8373.97
486.453	8287.96
486.657	8449.75
486.861	8570.58
487.065	8060.63
487.269	8349.4
487.473	8351.45
487.677	8537.81
487.881	8386.26
488.085	8414.93
488.289	8443.6
488.493	8406.74
488.697	8455.89
488.901	8652.5
489.105	8455.89
489.309	8453.84
489.512	8509.14
489.716	8505.04
489.92	8539.86
490.124	8548.05
490.328	8732.37
490.531	8578.77
490.735	8746.7
490.939	8697.55
491.143	8511.19
491.346	8550.1
491.55	8748.75
491.754	8926.93
491.958	8982.22
492.161	8890.06
492.365	8967.88
492.569	9060.04
492.772	8765.14
492.976	9027.28
493.18	9105.1
493.383	9264.84
493.587	9078.47
493.79	9434.82
493.994	9330.37
494.197	9506.5
494.401	9643.71
494.605	9531.08
494.808	9830.08
495.012	9576.13
495.215	9707.2
495.419	9881.28
495.622	9723.58
495.825	10022.59
496.029	9993.92
496.232	10309.3
496.436	9963.2
496.639	10475.19
496.843	10546.87
497.046	10544.82
497.249	10632.88
497.453	10651.31
497.656	11077.29
497.859	10956.46
498.063	11132.59
498.266	11237.03
498.469	11265.71
498.673	11333.29
498.876	11615.91
499.079	11904.67
499.282	11665.06
499.485	11978.4
499.689	12099.23
499.892	12160.67
500.095	12400.28
500.298	12650.13
500.501	12564.12
500.705	13029.01
500.908	13092.49
501.111	13090.45
501.314	13229.71
501.517	13502.09
501.72	13627.01
501.923	13647.49
502.126	13979.26
502.329	14139.01
502.532	14380.67
502.735	14583.41
502.938	14657.14
503.141	14878.32
503.344	15115.89
503.547	14980.72
503.75	15605.35
503.953	15619.69
504.156	15664.74
504.359	16055.9
504.562	15941.22
504.765	16404.06
504.968	16821.84
505.17	16733.78
505.373	16940.63
505.576	17344.08
505.779	17415.76
505.982	17471.05
506.185	18339.39
506.387	17817.16
506.59	18298.43
506.793	18523.71
506.996	18587.19
507.198	19111.47
507.401	19004.98
507.604	19263.02
507.807	19562.03
508.009	19924.52
508.212	20098.59
508.415	20424.22
508.617	20397.6
508.82	20608.54
509.022	20936.21
509.225	21343.76
509.428	21663.24
509.63	21696.01
509.833	22001.16
510.035	22609.4
510.238	22509.05
510.44	22969.85
510.643	23379.44
510.845	23279.09
511.048	23541.23
511.25	23934.44
511.453	24258.02
511.655	25185.75
511.858	24378.85
512.06	24929.75
512.262	25253.33
512.465	25548.24
512.667	25945.55
512.87	25990.6
513.072	26613.18
513.274	26570.18
513.477	27219.38
513.679	27528.63
513.881	27542.96
514.084	27964.84
514.286	28102.06
514.488	28495.27
514.69	29463.96
514.893	29695.38
515.095	29695.38
515.297	29910.41
515.499	30174.6
515.701	30649.73
515.904	31044.99
516.106	31010.17
516.308	31337.85
516.51	31849.84
516.712	32464.23
516.914	32707.94
517.116	32978.27
517.318	33181.02
517.52	33455.45
517.722	33586.52
517.925	34600.26
518.127	34387.27
518.329	34831.68
518.531	34694.47
518.733	35384.63
518.935	35777.84
519.136	36140.33
519.338	36482.34
519.54	36703.53
519.742	37516.57
519.944	37365.02
520.146	37623.06
520.348	38329.61
520.55	38389
520.752	38434.06
520.954	39025.92
521.155	38855.94
521.357	39992.56
521.559	40051.95
521.761	40586.47
521.963	40473.84
522.164	40879.33
522.366	40967.4
522.568	41520.35
522.77	41366.75
522.971	42114.26
523.173	41925.85
523.375	42775.75
523.576	42753.22
523.778	42904.77
523.98	43328.7
524.181	43920.57
524.383	43631.8
524.584	44338.35
524.786	43758.78
524.988	44465.33
525.189	44905.64
525.391	45161.64
525.592	45315.23
525.794	45741.21
525.995	45759.64
526.197	46066.84
526.398	46134.42
526.6	46419.09
526.801	46787.72
527.003	46904.46
527.204	47238.28
527.406	47379.59
527.607	47021.19
527.808	47348.87
528.01	47047.82
528.211	47367.3
528.412	48428.15
528.614	48131.19
528.815	48043.13
529.016	48811.12
529.218	48004.22
529.419	48678
529.62	48473.2
529.822	48411.76
530.023	48456.82
530.224	48315.51
530.425	48661.61
530.626	48434.29
530.828	48475.25
531.029	49876.06
531.23	48731.25
531.431	48960.62
531.632	49179.75
531.833	49595.49
532.035	49343.59
532.236	49818.72
532.437	49615.97
532.638	49333.35
532.839	49726.56
533.04	50191.45
533.241	49613.92
533.442	50138.2
533.643	50181.21
533.844	49845.34
534.045	50220.12
534.246	49521.76
534.447	50449.49
534.648	49771.61
534.849	50277.46
535.05	49843.29
535.251	50125.91
535.451	49851.48
535.652	50191.45
535.853	50412.63
536.054	50740.3
536.255	50568.27
536.456	49804.38
536.657	50746.45
536.857	50123.86
537.058	49851.48
537.259	50601.04
537.46	50381.91
537.66	49517.67
537.861	50361.43
538.062	50183.26
538.263	50570.32
538.463	50449.49
538.664	50383.96
538.865	50764.88
539.065	50287.7
539.266	49663.07
539.466	50656.34
539.667	50158.68
539.868	50699.34
540.068	50510.93
540.269	50175.06
540.469	50443.35
540.67	50060.38
540.87	50422.87
541.071	50521.17
541.271	50803.79
541.472	50449.49
541.672	50373.72
541.873	50103.38
542.073	49546.34
542.274	50508.88
542.474	49943.64
542.675	50279.51
542.875	50642
543.075	50318.42
543.276	49962.07
543.476	50625.62
543.676	49826.91
543.877	50627.66
544.077	50011.23
544.277	50029.66
544.478	50087
544.678	50324.57
544.878	50117.72
545.078	50383.96
545.279	50130.01
545.479	49990.75
545.679	50136.15
545.879	50154.58
546.079	50316.37
546.28	50144.34
546.48	49679.46
546.68	50469.97
546.88	50250.84
547.08	50132.06
547.28	49935.45
547.48	49552.48
547.68	50369.62
547.88	49654.88
548.081	50289.75
548.281	49759.33
548.481	50015.32
548.681	50474.07
548.881	49976.41
549.081	50000.99
549.28	49751.13
549.48	50396.24
549.68	49869.92
549.88	50402.39
550.08	49806.43
550.28	50265.17
550.48	49726.56
550.68	50224.21
550.88	49962.07
551.08	50056.28
551.279	49761.37
551.479	49402.98
551.679	50144.34
551.879	49740.89
552.079	50598.99
552.278	49726.56
552.478	50383.96
552.678	49814.62
552.878	50277.46
553.077	49876.06
553.277	49200.23
553.477	50207.83
553.676	49646.69
553.876	49974.36
554.076	49607.78
554.275	49374.31
554.475	49003.63
554.674	49783.9
554.874	49734.75
555.074	49302.63
555.273	49968.22
555.473	49988.7
555.672	49058.92
555.872	49564.77
556.071	49286.25
556.271	49693.79
556.47	49413.22
556.67	49159.27
556.869	49237.09
557.068	49128.55
557.268	48800.88
557.467	49216.61
557.667	48778.35
557.866	49042.54
558.065	48653.42
558.265	48643.18
558.464	48587.89
558.663	49095.78
558.863	48213.11
559.062	48952.43
559.261	48168.05
559.461	49017.96
559.66	47928.44
559.859	48239.73
560.058	47801.47
560.258	48215.16
560.457	47654.01
560.656	47932.54
560.855	47840.38
561.054	48006.26
561.253	47910.01
561.453	48405.62
561.652	48073.85
561.851	48036.98
562.05	47787.13
562.249	47309.96
562.448	47836.28
562.647	47623.29
562.846	47862.91
563.045	47807.61
563.244	47459.46
563.443	47879.29
563.642	46877.83
563.841	47295.62
564.04	46714
564.239	47916.15
564.438	47000.71
564.637	47160.45
564.836	47344.77
565.035	46697.61
565.234	47144.07
565.432	46740.62
565.631	46785.68
565.83	46615.69
566.029	46339.22
566.228	46351.51
566.427	46367.89
566.625	46208.15
566.824	45956.25
567.023	46849.16
567.222	45569.18
567.42	46322.83
567.619	46156.95
567.818	46085.27
568.016	45554.85
568.215	45825.18
568.414	45855.9
568.612	45550.75
568.811	45329.57
569.01	45370.53
569.208	45255.84
569.407	45415.58
569.605	44676.27
569.804	45077.67
570.002	44643.5
570.201	44936.36
570.4	44367.02
570.598	44594.35
570.797	44496.05
570.995	44608.68
571.193	44031.16
571.392	44420.27
571.59	43838.65
571.789	44229.81
571.987	43898.04
572.186	44293.3
572.384	43785.4
572.582	43881.66
572.781	43625.66
572.979	43027.65
573.177	43400.38
573.376	43670.71
573.574	43009.22
573.772	42949.83
573.971	42906.82
574.169	42593.48
574.367	42456.27
574.565	42783.94
574.763	42304.72
574.962	42534.09
575.16	42112.21
575.358	42708.17
575.556	42040.53
575.754	42274
575.952	41585.88
576.151	42417.36
576.349	41839.83
576.547	41506.01
576.745	41610.46
576.943	41499.87
577.141	41125.09
577.339	41063.65
577.537	41229.54
577.735	41164
577.933	40518.89
578.131	40557.8
578.329	40342.77
578.527	40447.21
578.725	40305.9
578.923	40522.99
579.121	40205.55
579.319	40058.1
579.516	40234.22
579.714	40209.65
579.912	39585.02
580.11	39709.94
580.308	39628.02
580.506	39660.79
580.704	39165.18
580.901	39451.9
581.099	39365.88
581.297	38935.81
581.495	38878.47
581.692	38962.43
581.89	38585.61
582.088	39038.21
582.285	38759.69
582.483	38528.27
582.681	38505.74
582.878	38143.25
583.076	37940.5
583.274	38561.03
583.471	37651.73
583.669	37819.67
583.866	37451.03
584.064	37569.82
584.262	37360.92
584.459	37784.85
584.657	37336.35
584.854	37643.54
585.052	36904.23
585.249	36945.19
585.447	37379.35
585.644	36445.48
585.841	36767.01
586.039	37057.82
586.236	36359.47
586.434	36371.75
586.631	36257.07
586.828	36457.77
587.026	36379.95
587.223	36246.83
587.42	35847.47
587.618	35568.95
587.815	35802.42
588.012	35788.08
588.21	35325.24
588.407	35870
588.604	35378.49
588.801	35044.67
588.999	35073.34
589.196	35251.52
589.393	34846.02
589.59	35009.86
589.787	34395.46
589.984	34579.78
590.182	34225.48
590.379	34870.59
590.576	34297.16
590.773	34334.03
590.97	34078.03
591.167	34018.64
591.364	34118.99
591.561	33936.72
591.758	33811.79
591.955	33510.74
592.152	33758.55
592.349	33424.73
592.546	33697.11
592.743	33488.21
592.94	33095
593.137	33197.4
593.334	33086.81
593.531	32886.11
593.727	32826.72
593.924	33021.28
594.121	32327.02
594.318	32656.74
594.515	32460.13
594.712	32529.76
594.908	32290.15
595.105	32337.26
595.302	32046.44
595.499	32204.14
595.696	31802.74
595.892	31456.63
596.089	31925.61
596.286	31778.16
596.482	31753.58
596.679	31552.88
596.876	31786.35
597.072	31384.95
597.269	31274.36
597.466	31151.48
597.662	31044.99
597.859	31112.57
598.055	31208.83
598.252	30817.66
598.448	31108.47
598.645	30623.11
598.841	30512.52
599.038	30539.14
599.234	30594.43
599.431	30350.73
599.627	30186.89
599.824	30209.42
600.02	29889.93
600.217	29924.75
600.413	29840.78
600.609	29570.45
600.806	29814.16
601.002	29734.29
601.198	29207.96
601.395	29349.27
601.591	29433.24
601.787	29521.3
601.984	29017.5
602.18	29298.07
602.376	28874.14
602.572	28753.31
602.769	28833.18
602.965	28538.27
603.161	28730.78
603.357	28601.76
603.553	28487.07
603.75	28392.87
603.946	28222.89
604.142	28517.79
604.338	27792.81
604.534	27837.87
604.73	27575.73
604.926	27463.09
605.122	28042.67
605.318	27661.74
605.514	27200.95
605.71	27395.51
605.906	27514.29
606.102	27321.78
606.298	27119.03
606.494	26848.7
606.69	27018.68
606.886	27133.37
607.082	26537.41
607.278	26987.96
607.474	26326.47
607.67	26740.16
607.866	26066.38
608.062	26543.55
608.257	26025.42
608.453	26199.49
608.649	26389.95
608.845	26062.28
609.041	26060.23
609.236	26029.51
609.432	25884.11
609.628	25923.02
609.824	25521.62
610.019	25417.17
610.215	25427.41
610.411	26031.56
610.606	25224.66
610.802	25318.87
610.998	25239
611.193	25365.97
611.389	25376.21
611.584	24960.47
611.78	24643.04
611.976	24921.56
612.171	24792.54
612.367	24509.92
612.562	24542.69
612.758	24376.8
612.953	24468.96
613.149	24440.29
613.344	24104.42
613.539	24759.77
613.735	24403.42
613.93	24282.59
614.126	23987.69
614.321	24337.89
614.517	24135.14
614.712	23911.91
614.907	23873
615.103	23969.26
615.298	23668.2
615.493	23969.26
615.688	23305.71
615.884	24034.79
616.079	23070.2
616.274	23496.17
616.47	23530.99
616.665	23326.19
616.86	23506.41
617.055	23027.19
617.25	22969.85
617.445	23180.79
617.641	23371.25
617.836	23172.6
618.031	22515.2
618.226	22668.8
618.421	22556.16
618.616	22785.53
618.811	22464
619.006	22296.07
619.201	22085.12
619.396	22056.45
619.591	21980.68
619.786	21990.92
619.981	21796.36
620.176	21843.46
620.371	21456.4
620.566	21720.59
620.761	21392.91
620.956	21716.49
621.151	21343.76
621.346	21233.17
621.541	20803.1
621.735	21284.37
621.93	20872.73
622.125	20919.83
622.32	20555.29
622.515	20473.37
622.709	20436.51
622.904	20366.88
623.099	20393.5
623.294	20155.94
623.488	20016.68
623.683	20057.64
623.878	19752.49
624.072	19897.89
624.267	19654.19
624.462	19787.3
624.656	19420.72
624.851	19449.39
625.046	19039.79
625.24	18937.4
625.435	19213.87
625.629	19047.99
625.824	18898.48
626.018	18921.01
626.213	18198.08
626.407	18542.14
626.602	18390.59
626.796	18341.44
626.991	18533.95
627.185	18406.97
627.38	18302.53
627.574	17909.32
627.768	18032.19
627.963	17708.62
628.157	17423.95
628.352	17925.7
628.546	17247.82
628.74	17700.42
628.935	17237.58
629.129	17256.01
629.323	16997.97
629.517	16916.05
629.712	16954.96
629.906	16817.75
630.1	16520.79
630.294	16651.86
630.489	16662.1
630.683	16586.33
630.877	16092.77
631.071	16203.36
631.265	16541.27
631.459	16234.08
631.653	15996.51
631.848	15967.84
632.042	15771.24
632.236	15625.83
632.43	15609.45
632.624	15844.96
632.818	15566.44
633.012	15443.56
633.206	15459.95
633.4	15537.77
633.594	15165.04
633.788	15386.22
633.982	15038.06
634.176	15224.43
634.369	15027.82
634.563	14878.32
634.757	14925.43
634.951	14773.88
635.145	14843.51
635.339	15083.12
635.533	14558.84
635.726	14626.42
635.92	14540.41
636.114	14575.22
636.308	14499.45
636.501	14282.36
636.695	14405.24
636.889	14110.33
637.083	14182.01
637.276	13985.41
637.47	13893.25
637.664	13858.43
637.857	13649.54
638.051	13737.6
638.244	13559.43
638.438	13541
638.632	13493.9
638.825	13569.67
639.019	13360.78
639.212	13280.91
639.406	13172.36
639.599	13239.95
639.793	13311.63
639.986	12773.01
640.18	12887.7
640.373	12777.11
640.567	12672.66
640.76	12623.51
640.954	12514.97
641.147	12619.41
641.34	12566.17
641.534	12615.32
641.727	12428.95
641.92	12349.08
642.114	12240.54
642.307	12211.87
642.5	12078.75
642.694	11849.38
642.887	11771.55
643.08	12060.32
643.273	11603.62
643.467	11804.32
643.66	11640.48
643.853	11783.84
644.046	11394.73
644.239	11445.93
644.432	11515.56
644.626	11198.12
644.819	11040.43
645.012	11075.24
645.205	11069.1
645.398	11030.19
645.591	10919.6
645.784	10833.58
645.977	10872.5
646.17	10874.54
646.363	10610.36
646.556	10608.31
646.749	10852.02
646.942	10735.28
647.135	10438.33
647.328	10534.58
647.521	10548.92
647.714	10116.79
647.907	10456.76
648.099	10292.92
648.292	10194.62
648.485	10170.04
648.678	10026.68
648.871	9981.63
649.064	9770.69
649.256	9889.47
649.449	9699.01
649.642	9641.67
649.835	9557.7
650.027	9541.32
650.22	9391.81
650.413	9375.43
650.605	9451.21
650.798	9250.5
650.991	9416.39
651.183	9299.66
651.376	9189.07
651.568	9164.49
651.761	9023.18
651.954	8879.82
652.146	8875.73
652.339	8988.36
652.531	8806.09
652.724	8758.99
652.916	8740.56
653.109	8679.12
653.301	8629.97
653.494	8648.4
653.686	8457.94
653.879	8453.84
654.071	8320.73
654.263	8447.7
654.456	8283.86
654.648	8208.09
654.84	8046.3
655.033	8167.13
655.225	7986.91
655.417	7974.62
655.61	7835.36
655.802	7935.71
655.994	7835.36
656.186	7868.13
656.379	7538.4
656.571	7847.65
656.763	7636.7
656.955	7603.94
657.148	7536.35
657.34	7620.32
657.532	7372.52
657.724	7304.93
657.916	7411.43
658.108	7331.56
658.3	7212.78
658.492	7349.99
658.684	7007.98
658.876	7007.98
659.068	6991.59
659.26	6948.59
659.452	7040.75
659.644	6848.24
659.836	6821.61
660.028	6702.83
660.22	6674.16
660.412	6706.93
660.604	6616.82
660.796	6672.11
660.988	6672.11
661.18	6452.98
661.372	6416.12
661.563	6326
661.755	6260.47
661.947	6235.89
662.139	6106.87
662.331	6029.05
662.522	6145.78
662.714	6276.85
662.906	6147.83
663.097	5934.84
663.289	5963.51
663.481	6033.15
663.673	5930.75
663.864	5758.72
664.056	5803.77
664.247	5713.66
664.439	5635.84
664.631	5834.49
664.822	5578.5
665.014	5467.91
665.205	5451.52
665.397	5590.78
665.588	5492.48
665.78	5431.04
665.971	5279.49
666.163	5381.89
666.354	5293.83
666.546	5355.27
666.737	5129.99
666.929	5140.23
667.12	5234.44
667.311	5035.78
667.503	5037.83
667.694	5080.84
667.885	4957.96
668.077	4894.47
668.268	4990.73
668.459	4898.57
668.651	4984.59
668.842	4871.95
669.033	4878.09
669.224	4751.12
669.416	4910.86
669.607	4884.23
669.798	4865.8
669.989	4884.23
670.18	4931.34
670.371	4687.63
670.563	4818.7
670.754	4673.29
670.945	4521.74
671.136	4538.13
671.327	4501.26
671.518	4593.42
671.709	4362
671.9	4505.36
672.091	4396.82
672.282	4345.62
672.473	4359.95
672.664	4488.98
672.855	4294.42
673.046	4427.54
673.237	4448.02
673.428	4325.14
673.619	4339.48
673.809	4185.88
674	4292.37
674.191	4245.27
674.382	4237.08
674.573	4257.56
674.764	4171.54
674.954	4235.03
675.145	4128.53
675.336	4198.17
675.527	4212.5
675.717	4099.86
675.908	4003.61
676.099	3946.27
676.289	4093.72
676.48	4046.62
676.671	4067.1
676.861	3972.89
677.052	3974.94
677.243	4048.66
677.433	3972.89
677.624	4048.66
677.814	3938.07
678.005	3886.87
678.195	3960.6
678.386	3878.68
678.576	3786.52
678.767	3917.59
678.957	4007.7
679.148	3940.12
679.338	3927.83
679.529	3764
679.719	3694.36
679.909	3872.54
680.1	3874.59
680.29	3704.6
680.481	3850.01
680.671	3825.43
680.861	3575.58
681.052	3682.08
681.242	3739.42
681.432	3852.06
681.622	3684.13
681.813	3686.17
682.003	3696.41
682.193	3639.07
682.383	3661.6
682.573	3641.12
682.764	3792.67
682.954	3735.32
683.144	3553.06
683.334	3667.74
683.524	3774.24
683.714	3690.27
683.904	3755.8
684.094	3591.97
684.284	3696.41
684.474	3569.44
684.664	3622.69
684.854	3710.75
685.044	3569.44
685.234	3639.07
685.424	3524.38
685.614	3540.77
685.804	3579.68
685.994	3481.38
686.184	3469.09
686.374	3565.34
686.564	3602.21
686.753	3473.18
686.943	3491.62
687.133	3526.43
687.323	3489.57
687.513	3475.23
687.702	3514.14
687.892	3487.52
688.082	3497.76
688.272	3524.38
688.461	3401.51
688.651	3585.82
688.841	3327.78
689.03	3524.38
689.22	3514.14
689.41	3477.28
689.599	3368.74
689.789	3497.76
689.979	3368.74
690.168	3378.98
690.358	3475.23
690.547	3477.28
690.737	3438.37
690.926	3344.16
691.116	3378.98
691.305	3448.61
691.495	3432.22
691.684	3417.89
691.874	3350.31
692.063	3516.19
692.252	3487.52
692.442	3424.03
692.631	3366.69
692.82	3315.49
693.01	3462.94
693.199	3464.99
693.388	3440.42
693.578	3372.83
693.767	3239.72
693.956	3319.59
694.146	3473.18
694.335	3374.88
694.524	3235.62
694.713	3307.3
694.902	3350.31
695.092	3405.6
695.281	3227.43
695.47	3374.88
695.659	3292.96
695.848	3260.2
696.037	3239.72
696.226	3180.32
696.415	3245.86
696.604	3426.08
696.793	3301.15
696.982	3303.2
697.171	3223.33
697.36	3319.59
697.549	3381.03
697.738	3346.21
697.927	3170.08
698.116	3223.33
698.305	3092.26
698.494	3397.41
698.683	3215.14
698.872	3233.57
699.061	3243.81
699.25	3202.85
699.438	3249.96
699.627	3204.9
699.816	3280.68
700.005	3192.61
700.193	3284.77
700.382	3225.38
700.571	3252
700.76	3225.38
700.948	3122.98
701.137	3198.76
701.326	3047.21
701.514	3223.33
701.703	3268.39
701.892	3194.66
702.08	2985.77
702.269	3245.86
702.457	3145.51
702.646	3069.73
702.834	3010.34
703.023	3096.36
703.212	3129.13
703.4	3043.11
703.589	3063.59
703.777	3008.3
703.965	3071.78
704.154	3016.49
704.342	3079.97
704.531	3012.39
704.719	2840.36
704.907	2981.67
705.096	2866.99
705.284	2944.81
705.472	2918.18
705.661	2905.9
705.849	2895.66
706.037	3012.39
706.226	2862.89
706.414	2961.19
706.602	2834.22
706.79	2844.46
706.979	2854.7
707.167	2889.51
707.355	2680.62
707.543	2785.07
707.731	2668.33
707.919	2731.82
708.107	2713.39
708.296	2811.69
708.484	2787.11
708.672	2748.2
708.86	2723.63
709.048	2750.25
709.236	2721.58
709.424	2780.97
709.612	2719.53
709.8	2737.96
709.988	2682.67
710.176	2709.29
710.364	2559.79
710.551	2756.4
710.739	2643.76
710.927	2641.71
711.115	2606.89
711.303	2522.93
711.491	2602.8
711.679	2527.02
711.866	2551.6
712.054	2559.79
712.242	2498.35
712.43	2533.17
712.617	2498.35
712.805	2455.34
712.993	2498.35
713.181	2377.52
713.368	2541.36
713.556	2373.43
713.744	2307.89
713.931	2496.3
714.119	2375.47
714.306	2344.75
714.494	2314.03
714.682	2230.07
714.869	2340.66
715.057	2391.86
715.244	2395.95
715.432	2318.13
715.619	2389.81
715.807	2338.61
715.994	2191.16
716.182	2189.11
716.369	2271.03
716.556	2357.04
716.744	2246.45
716.931	2275.12
717.119	2230.07
717.306	2182.96
717.493	2303.79
717.681	2099
717.868	2246.45
718.055	2211.64
718.242	2182.96
718.43	2182.96
718.617	2178.87
718.804	2086.71
718.991	2162.48
719.179	2187.06
719.366	2154.29
719.553	2058.04
719.74	2082.61
719.927	2137.91
720.114	2092.85
720.301	2076.47
720.488	1992.5
720.676	2033.46
720.863	2000.69
721.05	2023.22
721.237	2004.79
721.424	1892.15
721.611	1998.65
721.798	1976.12
721.985	1957.69
722.172	1861.43
722.358	1912.63
722.545	1910.58
722.732	1814.33
722.919	1945.4
723.106	1851.19
723.293	1916.73
723.48	1849.15
723.667	1972.02
723.853	1941.3
724.04	1896.25
724.227	1894.2
724.414	1851.19
724.6	1789.75
724.787	1822.52
724.974	1843
725.161	1808.19
725.347	1824.57
725.534	1775.42
725.72	1703.74
725.907	1726.27
726.094	1775.42
726.28	1754.94
726.467	1707.84
726.653	1787.71
726.84	1670.97
727.027	1765.18
727.213	1693.5
727.4	1697.6
727.586	1630.01
727.773	1601.34
727.959	1689.4
728.145	1601.34
728.332	1654.59
728.518	1603.39
728.705	1605.44
728.891	1691.45
729.077	1658.68
729.264	1593.15
729.45	1558.33
729.636	1584.96
729.823	1582.91
730.009	1673.02
730.195	1560.38
730.382	1613.63
730.568	1662.78
730.754	1650.49
730.94	1527.61
731.126	1601.34
731.313	1597.24
731.499	1490.75
731.685	1511.23
731.871	1535.81
732.057	1476.41
732.243	1478.46
732.429	1523.52
732.615	1531.71
732.801	1457.98
732.987	1427.26
733.173	1412.93
733.359	1537.85
733.545	1433.41
733.731	1447.74
733.917	1371.97
734.103	1433.41
734.289	1380.16
734.475	1363.78
734.661	1439.55
734.847	1412.93
735.033	1419.07
735.219	1369.92
735.404	1355.58
735.59	1351.49
735.776	1392.45
735.962	1361.73
736.148	1441.6
736.333	1310.53
736.519	1320.77
736.705	1417.02
736.89	1322.82
737.076	1361.73
737.262	1249.09
737.447	1341.25
737.633	1230.66
737.819	1189.7
738.004	1296.19
738.19	1275.71
738.375	1222.47
738.561	1341.25
738.747	1240.9
738.932	1183.56
739.118	1296.19
739.303	1267.52
739.489	1302.34
739.674	1306.43
739.859	1275.71
740.045	1234.75
740.23	1269.57
740.416	1206.08
740.601	1187.65
740.786	1165.12
740.972	1154.88
741.157	1187.65
741.342	1163.08
741.528	1253.19
741.713	1236.8
741.898	1212.23
742.084	1173.32
742.269	1107.78
742.454	1169.22
742.639	1109.83
742.824	1175.36
743.01	1089.35
743.195	1113.92
743.38	1105.73
743.565	1101.64
743.75	1101.64
743.935	1130.31
744.12	1001.29
744.305	1144.64
744.49	1134.4
744.675	1165.12
744.86	1171.27
745.045	1103.68
745.23	1089.35
745.415	1111.88
745.6	1021.77
745.785	958.28
745.97	993.09
746.155	1064.77
746.34	962.37
746.525	989
746.71	1027.91
746.895	960.33
747.079	1007.43
747.264	960.33
747.449	927.56
747.634	925.51
747.819	1025.86
748.003	964.42
748.188	859.98
748.373	929.61
748.557	1021.77
748.742	1007.43
748.927	927.56
749.111	1017.67
749.296	892.74
749.481	933.7
749.665	853.83
749.85	917.32
750.034	868.17
750.219	868.17
750.404	892.74
750.588	859.98
750.773	837.45
750.957	966.47
751.141	831.3
751.326	900.94
751.51	896.84
751.695	745.29
751.879	827.21
752.064	874.31
752.248	841.54
752.432	862.02
752.617	825.16
752.801	839.5
752.985	849.74
753.17	833.35
753.354	737.1
753.538	788.3
753.722	780.11
753.907	749.39
754.091	788.3
754.275	761.67
754.459	853.83
754.643	780.11
754.828	657.23
755.012	802.63
755.196	681.8
755.38	823.11
755.564	681.8
755.748	765.77
755.932	679.75
756.116	763.72
756.3	708.43
756.484	671.56
756.668	696.14
756.852	649.04
757.036	712.52
757.22	722.76
757.404	677.71
757.588	622.41
757.772	683.85
757.956	642.89
758.14	696.14
758.323	659.28
758.507	552.78
758.691	657.23
758.875	681.8
759.059	655.18
759.242	624.46
759.426	628.56
759.61	636.75
759.794	597.84
759.977	665.42
760.161	683.85
760.345	618.32
760.528	638.8
760.712	657.23
760.895	556.88
761.079	612.17
761.263	673.61
761.446	603.98
761.63	575.31
761.813	565.07
761.997	575.31
762.18	581.45
762.364	556.88
762.547	552.78
762.731	610.12
762.914	630.6
763.098	624.46
763.281	579.4
763.464	646.99
763.648	667.47
763.831	567.12
764.015	540.49
764.198	540.49
764.381	573.26
764.564	550.73
764.748	610.12
764.931	606.03
765.114	511.82
765.297	579.4
765.481	573.26
765.664	575.31
765.847	513.87
766.03	544.59
766.213	522.06
766.397	585.55
766.58	509.77
766.763	556.88
766.946	503.63
767.129	507.73
767.312	577.36
767.495	524.11
767.678	601.93
767.861	548.68
768.044	556.88
768.227	481.1
768.41	528.21
768.593	606.03
768.776	515.92
768.959	532.3
769.142	544.59
769.324	485.2
769.507	520.01
769.69	542.54
769.873	589.64
770.056	546.64
770.239	434
770.421	536.4
770.604	495.44
770.787	429.9
770.97	515.92
771.152	483.15
771.335	483.15
771.518	511.82
771.7	487.25
771.883	431.95
772.066	458.57
772.248	468.81
772.431	452.43
772.613	477.01
772.796	442.19
772.978	446.29
773.161	509.77
773.343	479.05
773.526	499.53
773.708	499.53
773.891	421.71
774.073	487.25
774.256	446.29
774.438	526.16
774.621	479.05
774.803	409.42
774.985	511.82
775.168	429.9
775.35	362.32
775.532	442.19
775.715	409.42
775.897	347.98
776.079	403.28
776.261	352.08
776.444	368.46
776.626	415.57
776.808	415.57
776.99	409.42
777.173	415.57
777.355	454.48
777.537	368.46
777.719	485.2
777.901	368.46
778.083	436.05
778.265	401.23
778.447	390.99
778.629	399.18
778.811	388.94
778.993	352.08
779.175	438.09
779.357	354.13
779.539	378.7
779.721	444.24
779.903	403.28
780.085	309.07
780.267	378.7
780.449	376.66
780.631	360.27
780.812	362.32
780.994	327.5
781.176	354.13
781.358	436.05
781.54	343.89
781.721	362.32
781.903	321.36
782.085	368.46
782.267	368.46
782.448	311.12
782.63	341.84
782.812	251.73
782.993	317.26
783.175	286.54
783.357	317.26
783.538	251.73
783.72	323.41
783.901	350.03
784.083	339.79
784.264	319.31
784.446	352.08
784.627	270.16
784.809	360.27
784.99	294.74
785.172	313.17
785.353	151.38
785.535	268.11
785.716	253.78
785.897	235.35
786.079	268.11
786.26	261.97
786.441	278.35
786.623	241.49
786.804	272.21
786.985	200.53
787.167	286.54
787.348	253.78
787.529	253.78
787.71	221.01
787.891	194.39
788.073	239.44
788.254	241.49
788.435	225.11
788.616	212.82
788.797	194.39
788.978	257.87
789.159	212.82
789.34	196.43
789.522	270.16
789.703	161.62
789.884	247.63
790.065	237.39
790.246	288.59
790.427	251.73
790.607	311.12
790.788	214.87
790.969	259.92
791.15	255.83
791.331	255.83
791.512	235.35
791.693	253.78
791.874	243.54
792.054	182.1
792.235	208.72
792.416	202.58
792.597	241.49
792.778	194.39
792.958	194.39
793.139	124.76
793.32	175.95
793.5	145.24
793.681	311.12
793.862	188.24
794.042	255.83
794.223	130.9
794.404	198.48
794.584	114.52
794.765	274.26
794.945	157.52
795.126	196.43
795.306	218.96
795.487	91.99
795.667	169.81
795.848	278.35
796.028	102.23
796.209	163.67
796.389	218.96
796.57	91.99
796.75	147.28
796.93	175.95
797.111	157.52
797.291	143.19
797.471	159.57
797.652	135
797.832	159.57
798.012	208.72
798.192	178
798.373	128.85
798.553	171.86
798.733	159.57
798.913	196.43
799.093	188.24
799.274	208.72
799.454	135
799.634	171.86
799.814	132.95
799.994	161.62
800.174	153.43
800.354	225.11
800.534	163.67
800.714	182.1
800.894	184.15
801.074	122.71
801.254	192.34
801.434	55.12
801.614	182.1
801.794	149.33
801.974	438.09
802.154	141.14
802.334	212.82
802.514	178
802.693	190.29
802.873	147.28
803.053	122.71
803.233	73.56
803.413	178
803.592	184.15
803.772	130.9
803.952	157.52
804.131	98.13
804.311	108.37
804.491	106.32
804.67	165.71
804.85	165.71
805.03	81.75
805.209	143.19
805.389	114.52
805.568	104.28
805.748	108.37
805.928	63.32
806.107	116.56
806.287	132.95
806.466	112.47
806.646	128.85
806.825	124.76
807.004	214.87
807.184	75.6
807.363	175.95
807.543	83.8
807.722	184.15
807.901	83.8
808.081	108.37
808.26	231.25
808.439	63.32
808.619	149.33
808.798	122.71
808.977	155.47
809.156	192.34
809.336	69.46
809.515	44.88
809.694	77.65
809.873	59.22
810.052	85.84
810.231	141.14
810.411	91.99
810.59	155.47
810.769	77.65
810.948	135
811.127	69.46
811.306	61.27
811.485	73.56
811.664	169.81
811.843	122.71
812.022	89.94
812.201	81.75
812.38	75.6
812.559	126.8
812.737	135
812.916	75.6
813.095	8.02
813.274	130.9
813.453	104.28
813.632	122.71
813.811	94.04
813.989	104.28
814.168	96.08
814.347	120.66
814.526	-8.36
814.704	77.65
814.883	65.36
815.062	102.23
815.24	89.94
815.419	112.47
815.598	85.84
815.776	147.28
815.955	108.37
816.133	85.84
816.312	79.7
816.49	77.65
816.669	63.32
816.847	48.98
817.026	94.04
817.204	106.32
817.383	85.84
817.561	67.41
817.74	114.52
817.918	44.88
818.097	71.51
818.275	112.47
818.453	36.69
818.632	42.84
818.81	77.65
818.988	130.9
819.167	46.93
819.345	120.66
819.523	102.23
819.701	108.37
819.879	63.32
820.058	114.52
820.236	69.46
820.414	53.08
820.592	61.27
820.77	46.93
820.948	73.56
821.127	98.13
821.305	16.21
821.483	175.95
821.661	122.71
821.839	14.17
822.017	34.64
822.195	75.6
822.373	85.84
822.551	118.61
822.729	59.22
822.907	67.41
823.085	36.69
823.262	135
823.44	51.03
823.618	55.12
823.796	96.08
823.974	26.45
824.152	130.9
824.329	75.6
824.507	28.5
824.685	16.21
824.863	32.6
825.04	51.03
825.218	1.88
825.396	69.46
825.574	59.22
825.751	40.79
825.929	141.14
826.107	12.12
826.284	106.32
826.462	51.03
826.639	75.6
826.817	3.93
826.994	65.36
827.172	69.46
827.349	-8.36
827.527	-14.51
827.704	106.32
827.882	81.75
828.059	83.8
828.237	48.98
828.414	75.6
828.591	28.5
828.769	75.6
828.946	55.12
829.124	40.79
829.301	-18.6
829.478	67.41
829.655	22.36
829.833	59.22
830.01	46.93
830.187	63.32
830.364	44.88
830.542	65.36
830.719	40.79
830.896	51.03
831.073	79.7
831.25	57.17
831.427	-4.27
831.604	83.8
831.782	102.23
831.959	48.98
832.136	65.36
832.313	12.12
832.49	8.02
832.667	126.8
832.844	79.7
833.021	40.79
833.198	108.37
833.374	3.93
833.551	61.27
833.728	16.21
833.905	22.36
834.082	34.64
834.259	83.8
834.436	63.32
834.612	8.02
834.789	73.56
834.966	18.26
835.143	67.41
835.319	14.17
835.496	42.84
835.673	135
835.85	73.56
836.026	57.17
836.203	122.71
836.38	75.6
836.556	36.69
836.733	26.45
836.909	81.75
837.086	42.84
837.262	32.6
837.439	28.5
837.616	48.98
837.792	-8.36
837.968	87.89
838.145	-12.46
838.321	83.8
838.498	67.41
838.674	3.93
838.851	16.21
839.027	59.22
839.203	38.74
839.38	44.88
839.556	81.75
839.732	-53.42
839.909	-61.61
840.085	110.42
840.261	69.46
840.437	-0.17
840.614	5.97
840.79	22.36
840.966	46.93
841.142	67.41
841.318	51.03
841.494	1.88
841.671	-22.7
841.847	32.6
842.023	-6.31
842.199	40.79
842.375	12.12
842.551	-8.36
842.727	-4.27
842.903	30.55
843.079	51.03
843.255	40.79
843.431	85.84
843.607	36.69
843.783	12.12
843.959	135
844.134	87.89
844.31	59.22
844.486	44.88
844.662	-4.27
844.838	63.32
845.013	48.98
845.189	10.07
845.365	-24.75
845.541	24.4
845.716	-4.27
845.892	67.41
846.068	59.22
846.244	28.5
846.419	18.26
846.595	63.32
846.77	-8.36
846.946	20.31
847.122	18.26
847.297	81.75
847.473	91.99
847.648	-22.7
847.824	-53.42
847.999	14.17
848.175	18.26
848.35	48.98
848.526	132.95
848.701	85.84
848.876	8.02
849.052	51.03
849.227	-4.27
849.403	34.64
849.578	44.88
849.753	59.22
849.929	83.8
850.104	40.79
850.279	55.12
850.454	44.88
850.63	57.17
850.805	26.45
850.98	73.56
851.155	53.08
851.33	16.21
851.505	10.07
851.681	57.17
851.856	-4.27
852.031	22.36
852.206	130.9
852.381	24.4
852.556	30.55
852.731	77.65
852.906	18.26
853.081	53.08
853.256	-45.23
853.431	51.03
853.606	-34.99
853.781	42.84
853.956	46.93
854.131	48.98
854.305	14.17
854.48	3.93
854.655	122.71
854.83	65.36
855.005	32.6
855.18	87.89
855.354	42.84
855.529	20.31
855.704	57.17
855.879	16.21
856.053	-16.55
856.228	28.5
856.403	26.45
856.577	57.17
856.752	18.26
856.926	38.74
857.101	65.36
857.276	51.03
857.45	-0.17
857.625	51.03
857.799	24.4
857.974	20.31
858.148	-63.66
858.323	26.45
858.497	-55.47
858.672	36.69
858.846	-0.17
859.02	-16.55
859.195	98.13
859.369	32.6
859.543	-49.32
859.718	18.26
859.892	-20.65
860.066	-22.7
860.241	-12.46
860.415	-12.46
860.589	77.65
860.763	3.93
860.938	32.6
861.112	44.88
861.286	-45.23
861.46	-14.51
861.634	69.46
861.808	32.6
861.982	-0.17
862.157	-98.47
862.331	-10.41
862.505	40.79
862.679	-49.32
862.853	12.12
863.027	5.97
863.201	28.5
863.375	12.12
863.549	30.55
863.722	5.97
863.896	63.32
864.07	-12.46
864.244	-8.36
864.418	3.93
864.592	14.17
864.766	-37.03
864.939	-24.75
865.113	26.45
865.287	46.93
865.461	26.45
865.634	-2.22
865.808	42.84
865.982	32.6
866.156	-6.31
866.329	28.5
866.503	18.26
866.676	57.17
866.85	-51.37
867.024	20.31
867.197	83.8
867.371	-32.94
867.544	-30.89
867.718	5.97
867.891	46.93
868.065	55.12
868.238	48.98
868.412	-8.36
868.585	83.8
868.759	-12.46
868.932	-2.22
869.105	28.5
869.279	46.93
869.452	36.69
869.625	34.64
869.799	24.4
869.972	-45.23
870.145	28.5
870.319	-69.8
870.492	8.02
870.665	-28.84
870.838	65.36
871.011	-12.46
871.185	71.51
871.358	-26.79
871.531	-16.55
871.704	1.88
871.877	-6.31
872.05	-16.55
872.223	24.4
872.396	51.03
872.569	89.94
872.742	-39.08
872.915	8.02
873.088	-8.36
873.261	26.45
873.434	102.23
873.607	61.27
873.78	94.04
873.953	40.79
874.126	8.02
874.299	42.84
874.471	-61.61
874.644	-45.23
874.817	24.4
874.99	96.08
875.163	46.93
875.335	34.64
875.508	69.46
875.681	51.03
875.853	-6.31
876.026	-12.46
876.199	55.12
876.371	51.03
876.544	5.97
876.717	-0.17
876.889	5.97
877.062	18.26
877.234	-12.46
877.407	89.94
877.579	44.88
877.752	-26.79
877.924	3.93
878.097	-24.75
878.269	32.6
878.442	12.12
878.614	-47.27
878.786	12.12
878.959	59.22
879.131	-22.7
879.303	-34.99
879.476	102.23
879.648	51.03
879.82	28.5
879.993	40.79
880.165	-0.17
880.337	-43.18
880.509	32.6
880.681	12.12
880.854	-41.13
881.026	32.6
881.198	-12.46
881.37	12.12
881.542	-0.17
881.714	3.93
881.886	12.12
882.058	73.56
882.23	-12.46
882.402	-10.41
882.574	44.88
882.746	96.08
882.918	36.69
883.09	-32.94
883.262	67.41
883.434	-0.17
883.606	44.88
883.778	-63.66
883.95	61.27
884.122	46.93
884.293	18.26
884.465	12.12
884.637	30.55
884.809	36.69
884.98	12.12
885.152	-18.6
885.324	73.56
885.496	42.84
885.667	57.17
885.839	10.07
886.011	46.93
886.182	104.28
886.354	22.36
886.525	51.03
886.697	12.12
886.869	18.26
887.04	34.64
887.212	51.03
887.383	-6.31
887.555	71.51
887.726	-41.13
887.897	73.56
888.069	14.17
888.24	75.6
888.412	20.31
888.583	12.12
888.754	14.17
888.926	-4.27
889.097	65.36
889.268	10.07
889.44	-8.36
889.611	30.55
889.782	44.88
889.953	14.17
890.125	28.5
890.296	-10.41
890.467	10.07
890.638	-6.31
890.809	-8.36
890.98	44.88
891.151	-10.41
891.323	24.4
891.494	32.6
891.665	20.31
891.836	-43.18
892.007	14.17
892.178	32.6
892.349	10.07
892.52	34.64
892.691	-26.79
892.862	-0.17
893.032	-82.09
893.203	40.79
893.374	-6.31
893.545	-0.17
893.716	-14.51
893.887	32.6
894.057	22.36
894.228	106.32
894.399	-24.75
894.57	-18.6
894.74	24.4
894.911	5.97
895.082	28.5
895.253	-14.51
895.423	10.07
895.594	-6.31
895.764	10.07
895.935	77.65
896.106	89.94
896.276	18.26
896.447	10.07
896.617	24.4
896.788	51.03
896.958	73.56
897.129	-37.03
897.299	1.88
897.47	51.03
897.64	71.51
897.81	8.02
897.981	20.31
898.151	44.88
898.322	26.45
898.492	73.56
898.662	-10.41
898.832	-10.41
899.003	22.36
899.173	-51.37
899.343	122.71
899.513	3.93
