Data from USB4F104151__64__13-53-42-215.txt Node

Date: Thu Mar 13 13:53:42 EDT 2025
User: louis
Spectrometer: USB4F10415
Trigger mode: 4
Integration Time (sec): 1.000000E-2
Scans to average: 1
Electric dark correction enabled: true
Nonlinearity correction enabled: false
Boxcar width: 0
XAxis mode: Wavelengths
Number of Pixels in Spectrum: 3648
>>>>>Begin Spectral Data<<<<<
178.204	-21.67
178.424	-21.67
178.644	-21.67
178.864	-33.96
179.084	-74.92
179.304	-19.63
179.524	15.19
179.744	56.15
179.964	37.72
180.184	-13.48
180.404	-11.43
180.624	-64.68
180.844	-36.01
181.064	4.95
181.283	17.24
181.503	17.24
181.723	-3.24
181.943	-11.43
182.163	95.06
182.383	29.52
182.602	123.73
182.822	-42.15
183.042	72.53
183.262	11.09
183.482	39.76
183.701	2.9
183.921	41.81
184.141	58.2
184.361	68.44
184.58	56.15
184.8	11.09
185.02	-3.24
185.239	27.48
185.459	29.52
185.679	54.1
185.898	7
186.118	23.38
186.338	41.81
186.557	78.68
186.777	25.43
186.997	41.81
187.216	103.25
187.436	58.2
187.655	41.81
187.875	93.01
188.095	-38.06
188.314	-5.29
188.534	113.49
188.753	33.62
188.973	47.96
189.192	68.44
189.412	21.33
189.631	29.52
189.851	35.67
190.07	88.92
190.29	-11.43
190.509	-1.19
190.729	60.24
190.948	54.1
191.168	15.19
191.387	45.91
191.607	-5.29
191.826	62.29
192.045	37.72
192.265	15.19
192.484	17.24
192.704	66.39
192.923	-11.43
193.142	4.95
193.362	25.43
193.581	23.38
193.8	37.72
194.02	11.09
194.239	39.76
194.458	72.53
194.678	88.92
194.897	33.62
195.116	45.91
195.335	2.9
195.555	41.81
195.774	-21.67
195.993	-5.29
196.212	88.92
196.432	23.38
196.651	97.11
196.87	52.05
197.089	23.38
197.308	2.9
197.528	-5.29
197.747	-5.29
197.966	-1.19
198.185	4.95
198.404	33.62
198.623	-7.34
198.842	117.59
199.062	11.09
199.281	45.91
199.5	21.33
199.719	88.92
199.938	41.81
200.157	45.91
200.376	29.52
200.595	78.68
200.814	41.81
201.033	45.91
201.252	88.92
201.471	56.15
201.69	13.14
201.909	62.29
202.128	93.01
202.347	41.81
202.566	29.52
202.785	29.52
203.004	-1.19
203.223	33.62
203.442	13.14
203.661	37.72
203.879	37.72
204.098	15.19
204.317	17.24
204.536	-15.53
204.755	-15.53
204.974	62.29
205.193	31.57
205.411	33.62
205.63	76.63
205.849	54.1
206.068	-25.77
206.287	19.29
206.505	39.76
206.724	27.48
206.943	15.19
207.162	88.92
207.381	47.96
207.599	54.1
207.818	9.05
208.037	9.05
208.255	29.52
208.474	52.05
208.693	58.2
208.911	-27.82
209.13	-27.82
209.349	64.34
209.567	11.09
209.786	52.05
210.005	76.63
210.223	7
210.442	25.43
210.661	29.52
210.879	4.95
211.098	35.67
211.316	15.19
211.535	76.63
211.753	-46.25
211.972	64.34
212.191	-7.34
212.409	33.62
212.628	-9.39
212.846	13.14
213.065	-15.53
213.283	90.96
213.502	11.09
213.72	-7.34
213.938	19.29
214.157	47.96
214.375	115.54
214.594	-11.43
214.812	76.63
215.031	35.67
215.249	103.25
215.467	29.52
215.686	-13.48
215.904	64.34
216.122	21.33
216.341	45.91
216.559	31.57
216.778	4.95
216.996	21.33
217.214	19.29
217.432	88.92
217.651	72.53
217.869	82.77
218.087	41.81
218.306	15.19
218.524	47.96
218.742	56.15
218.96	86.87
219.179	-44.2
219.397	54.1
219.615	39.76
219.833	39.76
220.051	15.19
220.27	23.38
220.488	43.86
220.706	107.35
220.924	7
221.142	56.15
221.36	41.81
221.578	43.86
221.796	37.72
222.015	68.44
222.233	68.44
222.451	37.72
222.669	58.2
222.887	66.39
223.105	-62.63
223.323	58.2
223.541	19.29
223.759	31.57
223.977	4.95
224.195	21.33
224.413	4.95
224.631	70.48
224.849	33.62
225.067	90.96
225.285	47.96
225.503	15.19
225.721	47.96
225.939	47.96
226.157	76.63
226.375	140.12
226.592	103.25
226.81	45.91
227.028	117.59
227.246	84.82
227.464	29.52
227.682	35.67
227.9	-5.29
228.117	29.52
228.335	11.09
228.553	27.48
228.771	0.85
228.989	31.57
229.206	58.2
229.424	31.57
229.642	17.24
229.86	4.95
230.077	21.33
230.295	2.9
230.513	-17.58
230.731	33.62
230.948	39.76
231.166	-54.44
231.384	37.72
231.601	90.96
231.819	29.52
232.037	47.96
232.254	90.96
232.472	56.15
232.689	101.2
232.907	47.96
233.125	39.76
233.342	-17.58
233.56	-11.43
233.777	9.05
233.995	35.67
234.213	33.62
234.43	4.95
234.648	117.59
234.865	15.19
235.083	45.91
235.3	15.19
235.518	39.76
235.735	76.63
235.953	-25.77
236.17	31.57
236.388	39.76
236.605	-9.39
236.822	45.91
237.04	119.64
237.257	60.24
237.475	68.44
237.692	60.24
237.909	50
238.127	-7.34
238.344	72.53
238.562	37.72
238.779	62.29
238.996	37.72
239.214	29.52
239.431	27.48
239.648	21.33
239.865	23.38
240.083	37.72
240.3	107.35
240.517	29.52
240.735	84.82
240.952	52.05
241.169	127.83
241.386	4.95
241.603	7
241.821	13.14
242.038	82.77
242.255	56.15
242.472	9.05
242.689	-5.29
242.907	25.43
243.124	33.62
243.341	25.43
243.558	11.09
243.775	23.38
243.992	-1.19
244.209	82.77
244.426	78.68
244.643	58.2
244.86	35.67
245.078	115.54
245.295	-25.77
245.512	82.77
245.729	50
245.946	39.76
246.163	45.91
246.38	19.29
246.597	-9.39
246.814	60.24
247.031	64.34
247.248	66.39
247.464	25.43
247.681	13.14
247.898	-11.43
248.115	74.58
248.332	7
248.549	23.38
248.766	19.29
248.983	111.44
249.2	101.2
249.417	19.29
249.633	13.14
249.85	88.92
250.067	-21.67
250.284	82.77
250.501	25.43
250.717	58.2
250.934	45.91
251.151	80.72
251.368	60.24
251.585	37.72
251.801	39.76
252.018	82.77
252.235	9.05
252.451	13.14
252.668	90.96
252.885	84.82
253.102	93.01
253.318	41.81
253.535	-1.19
253.752	66.39
253.968	27.48
254.185	66.39
254.401	-3.24
254.618	23.38
254.835	76.63
255.051	4.95
255.268	66.39
255.484	43.86
255.701	17.24
255.917	-9.39
256.134	-5.29
256.351	9.05
256.567	-23.72
256.784	129.88
257	86.87
257.217	62.29
257.433	-7.34
257.65	-9.39
257.866	-27.82
258.082	25.43
258.299	37.72
258.515	33.62
258.732	13.14
258.948	-29.87
259.165	-15.53
259.381	15.19
259.597	50
259.814	52.05
260.03	35.67
260.246	37.72
260.463	17.24
260.679	50
260.895	52.05
261.112	4.95
261.328	4.95
261.544	21.33
261.761	78.68
261.977	47.96
262.193	152.4
262.409	11.09
262.626	82.77
262.842	103.25
263.058	21.33
263.274	88.92
263.49	23.38
263.707	15.19
263.923	68.44
264.139	37.72
264.355	29.52
264.571	66.39
264.787	31.57
265.004	84.82
265.22	115.54
265.436	35.67
265.652	82.77
265.868	33.62
266.084	-17.58
266.3	23.38
266.516	31.57
266.732	56.15
266.948	68.44
267.164	-7.34
267.38	-23.72
267.596	11.09
267.812	45.91
268.028	52.05
268.244	-1.19
268.46	9.05
268.676	11.09
268.892	-44.2
269.108	7
269.324	-13.48
269.54	33.62
269.756	41.81
269.972	45.91
270.188	29.52
270.403	33.62
270.619	45.91
270.835	56.15
271.051	84.82
271.267	4.95
271.483	111.44
271.698	58.2
271.914	37.72
272.13	78.68
272.346	68.44
272.562	80.72
272.777	35.67
272.993	19.29
273.209	-7.34
273.425	37.72
273.64	31.57
273.856	11.09
274.072	33.62
274.287	19.29
274.503	58.2
274.719	80.72
274.934	39.76
275.15	41.81
275.366	72.53
275.581	0.85
275.797	37.72
276.012	35.67
276.228	9.05
276.444	25.43
276.659	68.44
276.875	-7.34
277.09	72.53
277.306	72.53
277.521	86.87
277.737	45.91
277.952	7
278.168	2.9
278.383	-3.24
278.599	123.73
278.814	43.86
279.03	23.38
279.245	-13.48
279.461	-3.24
279.676	0.85
279.892	15.19
280.107	7
280.322	52.05
280.538	-11.43
280.753	84.82
280.969	2.9
281.184	-25.77
281.399	29.52
281.615	-3.24
281.83	-17.58
282.045	-5.29
282.26	78.68
282.476	41.81
282.691	47.96
282.906	35.67
283.122	35.67
283.337	-33.96
283.552	52.05
283.767	56.15
283.983	-27.82
284.198	2.9
284.413	-13.48
284.628	29.52
284.843	72.53
285.058	45.91
285.274	58.2
285.489	-31.91
285.704	72.53
285.919	27.48
286.134	39.76
286.349	35.67
286.564	-19.63
286.779	25.43
286.995	-13.48
287.21	0.85
287.425	33.62
287.64	33.62
287.855	93.01
288.07	66.39
288.285	80.72
288.5	56.15
288.715	88.92
288.93	43.86
289.145	35.67
289.36	-27.82
289.575	-36.01
289.79	97.11
290.004	7
290.219	50
290.434	13.14
290.649	7
290.864	29.52
291.079	33.62
291.294	64.34
291.509	-15.53
291.724	39.76
291.938	13.14
292.153	50
292.368	68.44
292.583	43.86
292.798	39.76
293.012	70.48
293.227	70.48
293.442	-27.82
293.657	-11.43
293.871	82.77
294.086	-19.63
294.301	144.21
294.516	-74.92
294.73	2.9
294.945	15.19
295.16	138.07
295.374	-13.48
295.589	27.48
295.804	39.76
296.018	54.1
296.233	76.63
296.447	-3.24
296.662	-3.24
296.877	76.63
297.091	99.16
297.306	-9.39
297.52	97.11
297.735	-19.63
297.949	33.62
298.164	-3.24
298.378	82.77
298.593	7
298.807	25.43
299.022	76.63
299.236	47.96
299.451	33.62
299.665	37.72
299.88	37.72
300.094	37.72
300.309	15.19
300.523	76.63
300.737	70.48
300.952	80.72
301.166	62.29
301.381	27.48
301.595	101.2
301.809	27.48
302.024	11.09
302.238	4.95
302.452	25.43
302.667	58.2
302.881	45.91
303.095	39.76
303.309	45.91
303.524	50
303.738	33.62
303.952	25.43
304.166	41.81
304.381	-5.29
304.595	58.2
304.809	47.96
305.023	88.92
305.237	31.57
305.452	68.44
305.666	111.44
305.88	70.48
306.094	144.21
306.308	45.91
306.522	7
306.736	-7.34
306.95	103.25
307.164	33.62
307.379	45.91
307.593	13.14
307.807	43.86
308.021	2.9
308.235	41.81
308.449	-3.24
308.663	45.91
308.877	43.86
309.091	19.29
309.305	25.43
309.519	-7.34
309.733	-31.91
309.947	19.29
310.161	52.05
310.374	11.09
310.588	50
310.802	7
311.016	52.05
311.23	50
311.444	52.05
311.658	27.48
311.872	39.76
312.085	88.92
312.299	103.25
312.513	45.91
312.727	47.96
312.941	23.38
313.154	31.57
313.368	0.85
313.582	-33.96
313.796	11.09
314.009	76.63
314.223	41.81
314.437	45.91
314.651	45.91
314.864	60.24
315.078	35.67
315.292	50
315.505	9.05
315.719	74.58
315.933	37.72
316.146	76.63
316.36	93.01
316.573	43.86
316.787	9.05
317.001	70.48
317.214	68.44
317.428	-7.34
317.641	82.77
317.855	-25.77
318.068	39.76
318.282	9.05
318.495	70.48
318.709	23.38
318.922	70.48
319.136	43.86
319.349	58.2
319.563	47.96
319.776	23.38
319.99	45.91
320.203	27.48
320.417	33.62
320.63	13.14
320.843	27.48
321.057	29.52
321.27	23.38
321.483	33.62
321.697	33.62
321.91	23.38
322.124	90.96
322.337	37.72
322.55	45.91
322.763	80.72
322.977	25.43
323.19	76.63
323.403	109.4
323.617	64.34
323.83	2.9
324.043	15.19
324.256	78.68
324.469	-1.19
324.683	37.72
324.896	-27.82
325.109	41.81
325.322	7
325.535	127.83
325.748	60.24
325.962	56.15
326.175	13.14
326.388	31.57
326.601	72.53
326.814	-7.34
327.027	7
327.24	164.69
327.453	15.19
327.666	144.21
327.879	-25.77
328.092	-21.67
328.305	15.19
328.518	56.15
328.731	72.53
328.944	11.09
329.157	-3.24
329.37	154.45
329.583	88.92
329.796	-11.43
330.009	50
330.222	82.77
330.435	31.57
330.648	33.62
330.861	15.19
331.073	29.52
331.286	23.38
331.499	-7.34
331.712	-9.39
331.925	9.05
332.138	7
332.35	76.63
332.563	-17.58
332.776	93.01
332.989	35.67
333.202	9.05
333.414	-17.58
333.627	78.68
333.84	76.63
334.053	33.62
334.265	-3.24
334.478	80.72
334.691	15.19
334.903	11.09
335.116	58.2
335.329	13.14
335.541	45.91
335.754	41.81
335.966	97.11
336.179	47.96
336.392	72.53
336.604	-36.01
336.817	88.92
337.029	93.01
337.242	19.29
337.454	11.09
337.667	-3.24
337.88	13.14
338.092	21.33
338.305	31.57
338.517	9.05
338.729	99.16
338.942	72.53
339.154	105.3
339.367	27.48
339.579	88.92
339.792	39.76
340.004	-13.48
340.217	70.48
340.429	33.62
340.641	-1.19
340.854	25.43
341.066	62.29
341.278	33.62
341.491	82.77
341.703	-5.29
341.915	27.48
342.128	13.14
342.34	-25.77
342.552	43.86
342.764	93.01
342.977	-21.67
343.189	-66.73
343.401	64.34
343.613	33.62
343.826	72.53
344.038	58.2
344.25	52.05
344.462	82.77
344.674	90.96
344.886	-13.48
345.099	95.06
345.311	31.57
345.523	84.82
345.735	56.15
345.947	76.63
346.159	7
346.371	78.68
346.583	37.72
346.795	119.64
347.007	76.63
347.219	84.82
347.431	17.24
347.643	37.72
347.855	25.43
348.067	97.11
348.279	52.05
348.491	45.91
348.703	-3.24
348.915	78.68
349.127	64.34
349.339	27.48
349.551	31.57
349.763	39.76
349.975	9.05
350.187	41.81
350.399	60.24
350.61	-15.53
350.822	62.29
351.034	13.14
351.246	54.1
351.458	35.67
351.669	50
351.881	11.09
352.093	-11.43
352.305	4.95
352.517	37.72
352.728	19.29
352.94	144.21
353.152	21.33
353.363	-1.19
353.575	33.62
353.787	9.05
353.999	47.96
354.21	21.33
354.422	50
354.633	74.58
354.845	4.95
355.057	39.76
355.268	27.48
355.48	4.95
355.692	54.1
355.903	52.05
356.115	4.95
356.326	54.1
356.538	103.25
356.749	50
356.961	9.05
357.172	15.19
357.384	39.76
357.595	52.05
357.807	58.2
358.018	68.44
358.23	129.88
358.441	99.16
358.653	54.1
358.864	56.15
359.075	43.86
359.287	86.87
359.498	7
359.709	109.4
359.921	35.67
360.132	7
360.344	31.57
360.555	33.62
360.766	17.24
360.977	43.86
361.189	74.58
361.4	-23.72
361.611	62.29
361.823	-72.87
362.034	70.48
362.245	-29.87
362.456	-3.24
362.667	76.63
362.879	66.39
363.09	78.68
363.301	21.33
363.512	9.05
363.723	97.11
363.935	60.24
364.146	64.34
364.357	50
364.568	107.35
364.779	37.72
364.99	47.96
365.201	-9.39
365.412	13.14
365.623	-42.15
365.834	39.76
366.045	43.86
366.256	113.49
366.467	39.76
366.678	52.05
366.889	31.57
367.1	68.44
367.311	-29.87
367.522	21.33
367.733	64.34
367.944	56.15
368.155	23.38
368.366	13.14
368.577	29.52
368.788	15.19
368.999	66.39
369.209	80.72
369.42	101.2
369.631	125.78
369.842	-29.87
370.053	29.52
370.264	41.81
370.474	45.91
370.685	103.25
370.896	113.49
371.107	-11.43
371.317	29.52
371.528	-3.24
371.739	-21.67
371.95	109.4
372.16	-15.53
372.371	123.73
372.582	19.29
372.792	47.96
373.003	21.33
373.214	47.96
373.424	17.24
373.635	-11.43
373.846	99.16
374.056	41.81
374.267	50
374.477	52.05
374.688	56.15
374.898	2.9
375.109	119.64
375.319	66.39
375.53	64.34
375.74	62.29
375.951	56.15
376.161	39.76
376.372	17.24
376.582	13.14
376.793	103.25
377.003	54.1
377.214	-11.43
377.424	9.05
377.635	7
377.845	113.49
378.055	107.35
378.266	54.1
378.476	52.05
378.686	19.29
378.897	72.53
379.107	25.43
379.317	66.39
379.528	45.91
379.738	60.24
379.948	35.67
380.158	21.33
380.369	70.48
380.579	140.12
380.789	60.24
380.999	93.01
381.21	62.29
381.42	37.72
381.63	-9.39
381.84	88.92
382.05	76.63
382.261	74.58
382.471	62.29
382.681	41.81
382.891	21.33
383.101	39.76
383.311	31.57
383.521	4.95
383.731	90.96
383.941	113.49
384.151	31.57
384.361	39.76
384.571	50
384.781	25.43
384.991	74.58
385.201	76.63
385.411	90.96
385.621	9.05
385.831	37.72
386.041	58.2
386.251	19.29
386.461	119.64
386.671	54.1
386.881	-17.58
387.091	64.34
387.301	64.34
387.511	7
387.72	-5.29
387.93	84.82
388.14	88.92
388.35	9.05
388.56	105.3
388.769	25.43
388.979	25.43
389.189	7
389.399	86.87
389.609	35.67
389.818	72.53
390.028	60.24
390.238	47.96
390.447	43.86
390.657	80.72
390.867	27.48
391.076	39.76
391.286	13.14
391.496	45.91
391.705	39.76
391.915	136.02
392.125	93.01
392.334	39.76
392.544	27.48
392.753	115.54
392.963	17.24
393.172	66.39
393.382	41.81
393.591	111.44
393.801	-3.24
394.01	78.68
394.22	60.24
394.429	111.44
394.639	84.82
394.848	76.63
395.058	138.07
395.267	99.16
395.477	0.85
395.686	-19.63
395.895	76.63
396.105	50
396.314	88.92
396.524	9.05
396.733	15.19
396.942	86.87
397.152	78.68
397.361	41.81
397.57	70.48
397.78	37.72
397.989	105.3
398.198	86.87
398.407	13.14
398.617	4.95
398.826	64.34
399.035	60.24
399.244	88.92
399.453	19.29
399.663	99.16
399.872	72.53
400.081	17.24
400.29	119.64
400.499	93.01
400.708	117.59
400.917	58.2
401.127	70.48
401.336	68.44
401.545	90.96
401.754	111.44
401.963	113.49
402.172	107.35
402.381	111.44
402.59	111.44
402.799	99.16
403.008	52.05
403.217	131.92
403.426	121.68
403.635	37.72
403.844	97.11
404.053	127.83
404.262	58.2
404.471	113.49
404.68	103.25
404.888	109.4
405.097	21.33
405.306	109.4
405.515	150.36
405.724	86.87
405.933	115.54
406.142	88.92
406.35	187.22
406.559	140.12
406.768	129.88
406.977	222.03
407.185	150.36
407.394	74.58
407.603	109.4
407.812	156.5
408.02	183.12
408.229	111.44
408.438	146.26
408.646	193.36
408.855	138.07
409.064	164.69
409.272	176.98
409.481	189.27
409.69	170.83
409.898	183.12
410.107	127.83
410.315	246.61
410.524	224.08
410.733	273.23
410.941	164.69
411.15	211.79
411.358	215.89
411.567	279.38
411.775	224.08
411.984	273.23
412.192	258.9
412.401	230.23
412.609	308.05
412.818	269.14
413.026	355.15
413.234	271.19
413.443	318.29
413.651	312.14
413.86	238.42
414.068	357.2
414.276	326.48
414.485	320.34
414.693	279.38
414.901	365.39
415.11	408.4
415.318	383.82
415.526	379.73
415.734	369.49
415.943	437.07
416.151	443.21
416.359	435.02
416.567	473.93
416.776	445.26
416.984	533.33
417.192	478.03
417.4	496.46
417.608	568.14
417.817	510.8
418.025	658.25
418.233	594.76
418.441	553.8
418.649	518.99
418.857	668.49
419.065	699.21
419.273	639.82
419.481	719.69
419.689	789.32
419.897	760.65
420.105	826.18
420.313	815.94
420.521	867.14
420.729	842.57
420.937	895.82
421.145	920.39
421.353	969.54
421.561	957.25
421.769	1049.41
421.977	1174.34
422.185	1205.06
422.393	1067.85
422.601	1084.23
422.809	1194.82
423.017	1137.48
423.224	1364.8
423.432	1350.46
423.64	1231.68
423.848	1508.16
424.056	1395.52
424.263	1571.65
424.471	1520.45
424.679	1495.87
424.887	1594.17
425.094	1598.27
425.302	1628.99
425.51	1596.22
425.718	1764.15
425.925	1786.68
426.133	1876.79
426.341	1942.33
426.548	1917.75
426.756	1985.34
426.964	2061.11
427.171	2095.93
427.379	2190.13
427.586	2267.95
427.794	2319.15
428.001	2427.7
428.209	2454.32
428.417	2501.42
428.624	2671.4
428.832	2673.45
429.039	2593.58
429.247	2591.53
429.454	2892.59
429.662	3027.75
429.869	2872.11
430.076	3056.42
430.284	3048.23
430.491	3095.33
430.699	3279.65
430.906	3275.56
431.114	3334.95
431.321	3478.3
431.528	3552.03
431.736	3705.63
431.943	3965.72
432.15	3787.55
432.358	3705.63
432.565	4147.99
432.772	4135.7
432.979	4299.54
433.187	4303.64
433.394	4309.78
433.601	4610.83
433.808	4801.29
434.016	4541.2
434.223	4623.12
434.43	5026.57
434.637	4942.6
434.844	5212.93
435.052	5296.9
435.259	5491.46
435.466	5491.46
435.673	5430.02
435.88	5686.01
436.087	6068.98
436.294	6003.45
436.501	5823.23
436.708	5853.95
436.915	6122.23
437.122	6439.67
437.329	6535.92
437.537	6771.44
437.743	6857.45
437.95	6671.09
438.157	7238.37
438.364	7293.67
438.571	7213.8
438.778	7406.31
438.985	7924.44
439.192	7830.24
439.399	7824.09
439.606	7711.46
439.813	8141.53
440.02	8762.06
440.227	8370.9
440.433	8563.41
440.64	8858.32
440.847	8862.41
441.054	8745.68
441.261	9237.19
441.467	9452.23
441.674	9474.76
441.881	9863.87
442.088	9867.97
442.294	9661.12
442.501	9927.36
442.708	10230.46
442.914	10543.8
443.121	11231.91
443.328	10824.37
443.534	11424.42
443.741	11301.54
443.948	11143.85
444.154	11969.18
444.361	11733.67
444.568	11803.3
444.774	11803.3
444.981	11917.98
445.187	12380.82
445.394	12796.56
445.6	12681.88
445.807	14105.21
446.013	13341.32
446.22	13785.73
446.426	14137.98
446.633	14080.64
446.839	14805.62
447.046	14156.41
447.252	14697.08
447.459	15022.7
447.665	15037.04
447.871	15610.47
448.078	16075.36
448.284	15360.62
448.491	15815.27
448.697	16290.4
448.903	16530.01
449.11	16876.12
449.316	16409.18
449.522	16820.82
449.728	17017.43
449.935	17091.15
450.141	17103.44
450.347	17613.38
450.553	16972.37
450.76	16994.9
450.966	18000.45
451.172	17689.16
451.378	17898.05
451.584	17728.07
451.791	17943.11
451.997	17945.16
452.203	18305.6
452.409	18346.56
452.615	17951.3
452.821	17556.04
453.027	17324.62
453.233	18082.37
453.44	17308.24
453.646	17678.92
453.852	17416.78
454.058	18307.65
454.264	17394.25
454.47	17685.06
454.676	17238.61
454.882	17691.21
455.088	16042.59
455.294	16589.4
455.5	16630.36
455.705	16794.2
455.911	16253.53
456.117	15936.1
456.323	15467.11
456.529	14811.76
456.735	15503.98
456.941	14905.97
457.147	14639.73
457.352	14146.17
457.558	14373.5
457.764	13939.33
457.97	13898.37
458.176	13480.58
458.381	13490.82
458.587	12888.72
458.793	13116.05
458.999	12241.56
459.204	12864.15
459.41	12628.63
459.616	11844.26
459.821	11977.37
460.027	11743.91
460.233	11563.68
460.438	11031.21
460.644	11115.18
460.85	10531.51
461.055	10715.83
461.261	10330.81
461.466	9775.81
461.672	9263.82
461.878	10046.14
462.083	9634.5
462.289	9206.47
462.494	9253.58
462.7	8661.71
462.905	8387.29
463.111	8800.98
463.316	9038.54
463.522	8635.09
463.727	8733.39
463.932	8598.23
464.138	8389.33
464.343	8602.32
464.549	8293.08
464.754	8532.69
464.959	8547.03
465.165	8547.03
465.37	8338.13
465.575	8014.56
465.781	8458.96
465.986	8190.68
466.191	8141.53
466.397	7832.29
466.602	7434.98
466.807	7826.14
467.012	7578.34
467.218	7727.84
467.423	7516.9
467.628	7787.23
467.833	8065.75
468.038	7705.31
468.244	7596.77
468.449	7963.36
468.654	7525.09
468.859	7451.36
469.064	7359.21
469.269	7234.28
469.474	7203.56
469.679	7371.49
469.885	7187.18
470.09	7246.57
470.295	7244.52
470.5	6974.19
470.705	7197.42
470.91	6947.56
471.115	6806.25
471.32	6986.47
471.525	6855.4
471.73	6666.99
471.935	6722.29
472.139	6357.75
472.344	6664.94
472.549	6568.69
472.754	6433.52
472.959	6173.43
473.164	6265.59
473.369	6222.58
473.574	6247.16
473.778	6228.73
473.983	6224.63
474.188	6159.1
474.393	6003.45
474.598	6005.5
474.802	5997.31
475.007	5810.94
475.212	5905.15
475.417	5538.56
475.621	5651.2
475.826	5559.04
476.031	5536.51
476.235	5397.25
476.44	5788.41
476.645	5536.51
476.849	5524.23
477.054	5360.39
477.259	5335.81
477.463	5241.61
477.668	5149.45
477.872	5102.34
478.077	5137.16
478.282	4692.75
478.486	4958.99
478.691	4805.39
478.895	4942.6
479.1	4915.98
479.304	4870.92
479.509	4786.96
479.713	4758.28
479.918	4856.59
480.122	4748.04
480.326	4639.5
480.531	4805.39
480.735	4698.89
480.94	4602.64
481.144	4735.76
481.348	4674.32
481.553	4623.12
481.757	4543.25
481.961	4713.23
482.166	4586.26
482.37	4602.64
482.574	4664.08
482.778	4446.99
482.983	4598.54
483.187	4606.74
483.391	4535.06
483.595	4578.06
483.8	4475.67
484.004	4516.62
484.208	4500.24
484.412	4459.28
484.616	4567.82
484.821	4582.16
485.025	4496.14
485.229	4711.18
485.433	4490
485.637	4516.62
485.841	4633.36
486.045	4449.04
486.249	4563.73
486.453	4514.58
486.657	4588.3
486.861	4565.78
487.065	4406.03
487.269	4569.87
487.473	4397.84
487.677	4549.39
487.881	4635.41
488.085	4533.01
488.289	4535.06
488.493	4490
488.697	4551.44
488.901	4614.93
489.105	4586.26
489.309	4737.81
489.512	4567.82
489.716	4549.39
489.92	4582.16
490.124	4639.5
490.328	4719.37
490.531	4649.74
490.735	4786.96
490.939	4786.96
491.143	4713.23
491.346	4649.74
491.55	4836.11
491.754	4768.52
491.958	4774.67
492.161	4829.96
492.365	4731.66
492.569	4698.89
492.772	4928.27
492.976	4924.17
493.18	4983.56
493.383	5018.38
493.587	5081.86
493.79	5040.9
493.994	4989.71
494.197	4948.75
494.401	5112.58
494.605	4967.18
494.808	5288.71
495.012	5233.41
495.215	5188.36
495.419	5311.24
495.622	5266.18
495.825	5331.72
496.029	5427.97
496.232	5483.27
496.436	5569.28
496.639	5485.31
496.843	5516.03
497.046	5794.56
497.249	5790.46
497.453	5745.41
497.656	5858.04
497.859	5841.66
498.063	6028.03
498.266	6093.56
498.469	6032.12
498.673	6159.1
498.876	6175.48
499.079	6130.42
499.282	6234.87
499.485	6363.89
499.689	6427.38
499.892	6519.54
500.095	6413.04
500.298	6611.7
500.501	6669.04
500.705	6871.79
500.908	6816.49
501.111	7086.83
501.314	7002.86
501.517	7199.46
501.72	7197.42
501.923	7277.29
502.126	7477.99
502.329	7469.8
502.532	7592.67
502.735	7705.31
502.938	7695.07
503.141	7828.19
503.344	7969.5
503.547	8014.56
503.75	8274.65
503.953	8166.1
504.156	8372.95
504.359	8454.87
504.562	8434.39
504.765	8559.31
504.968	8727.25
505.17	8856.27
505.373	8946.38
505.576	8915.66
505.779	9056.97
505.982	9091.79
506.185	9468.61
506.387	9343.69
506.59	9487.04
506.793	9693.89
506.996	9857.73
507.198	9919.17
507.401	9929.41
507.604	10160.83
507.807	10201.79
508.009	10384.05
508.212	10295.99
508.415	10586.8
508.617	10695.35
508.82	10703.54
509.022	10777.26
509.225	11020.97
509.428	11289.26
509.63	11348.65
509.833	11477.67
510.035	11582.12
510.238	11627.17
510.44	11766.43
510.643	11831.97
510.845	12130.97
511.048	12049.05
511.25	12253.85
511.453	12341.91
511.655	12862.1
511.858	12356.25
512.06	12767.89
512.262	12987.02
512.465	13134.48
512.667	13130.38
512.87	13283.98
513.072	13439.62
513.274	13535.88
513.477	13775.49
513.679	13984.38
513.881	14224
514.084	14287.48
514.286	14439.03
514.488	14412.41
514.69	14604.92
514.893	14889.59
515.095	14877.3
515.297	15141.49
515.499	15460.97
515.701	15436.39
515.904	15948.39
516.106	15995.49
516.308	16036.45
516.51	16374.36
516.712	16487
516.914	16478.81
517.116	16497.24
517.318	16996.95
517.52	17138.26
517.722	16878.16
517.925	17349.2
518.127	17906.24
518.329	17871.43
518.531	17625.67
518.733	18235.97
518.935	18291.26
519.136	18160.19
519.338	18528.83
519.54	18600.51
519.742	18659.9
519.944	18960.95
520.146	19307.05
520.348	19626.54
520.55	19563.05
520.752	19765.8
520.954	19894.82
521.155	20126.24
521.357	20056.61
521.559	20396.57
521.761	20765.21
521.963	20785.69
522.164	20910.61
522.366	21021.2
522.568	21381.65
522.77	21402.13
522.971	21670.41
523.173	21586.44
523.375	21889.54
523.576	21813.77
523.778	22037
523.98	22071.81
524.181	22278.66
524.383	22503.93
524.584	22768.12
524.786	23138.8
524.988	22751.74
525.189	23263.73
525.391	23204.34
525.592	23495.15
525.794	23558.64
525.995	23562.73
526.197	23759.34
526.398	23917.03
526.6	23796.2
526.801	23980.52
527.003	24179.17
527.204	24054.25
527.406	24404.45
527.607	24345.06
527.808	24633.82
528.01	23939.56
528.211	24338.91
528.412	25303.51
528.614	24781.28
528.815	24871.39
529.016	25137.62
529.218	24840.67
529.419	24914.39
529.62	24697.31
529.822	25102.81
530.023	25201.11
530.224	25213.4
530.425	25383.38
530.626	25029.08
530.828	25289.17
531.029	25756.11
531.23	25229.78
531.431	25670.09
531.632	25625.04
531.833	25768.4
532.035	25418.19
532.236	25694.67
532.437	25727.44
532.638	25823.69
532.839	25715.15
533.04	25938.38
533.241	25496.02
533.442	26048.97
533.643	25962.95
533.844	25704.91
534.045	26057.16
534.246	25598.41
534.447	26120.65
534.648	25932.23
534.849	26202.57
535.05	26042.82
535.251	26053.06
535.451	25934.28
535.652	26085.83
535.853	26128.84
536.054	26130.89
536.255	26083.78
536.456	26063.3
536.657	26593.73
536.857	25926.09
537.058	25835.98
537.259	26126.79
537.46	26216.9
537.66	26290.63
537.861	26010.06
538.062	26110.41
538.263	26288.58
538.463	26067.4
538.664	26354.12
538.865	26300.87
539.065	26395.07
539.266	26032.58
539.466	26423.75
539.667	26188.23
539.868	26345.92
540.068	25883.08
540.269	26397.12
540.469	26433.99
540.67	26100.17
540.87	26161.61
541.071	26134.98
541.271	26276.29
541.472	26233.29
541.672	26028.49
541.873	25840.08
542.073	25850.31
542.274	26102.22
542.474	26044.87
542.675	26032.58
542.875	26472.9
543.075	26149.32
543.276	26030.54
543.476	26331.59
543.676	26237.38
543.877	26177.99
544.077	26028.49
544.277	26057.16
544.478	26079.69
544.678	26116.55
544.878	26167.75
545.078	26008.01
545.279	25579.98
545.479	26020.3
545.679	26091.98
545.879	26008.01
546.079	26005.96
546.28	26018.25
546.48	25891.27
546.68	26198.47
546.88	26044.87
547.08	26032.58
547.28	26143.17
547.48	26044.87
547.68	26139.08
547.88	26024.39
548.081	26218.95
548.281	26032.58
548.481	25815.5
548.681	26231.24
548.881	25991.62
549.081	26012.1
549.28	25852.36
549.48	26327.49
549.68	25684.43
549.88	26134.98
550.08	26040.78
550.28	26024.39
550.48	25960.91
550.68	26079.69
550.88	25917.9
551.08	25788.88
551.279	26016.2
551.479	25778.64
551.679	26012.1
551.879	25921.99
552.079	26159.56
552.278	25991.62
552.478	25813.45
552.678	25815.5
552.878	26063.3
553.077	25913.8
553.277	25862.6
553.477	26130.89
553.676	25508.3
553.876	25700.81
554.076	26085.83
554.275	25860.55
554.475	25614.8
554.674	25737.68
554.874	25465.3
555.074	25993.67
555.273	25987.53
555.473	25622.99
555.672	25465.3
555.872	25197.01
556.071	25524.69
556.271	25440.72
556.47	25293.27
556.67	25323.99
556.869	25688.53
557.068	25539.02
557.268	25192.92
557.467	25399.76
557.667	25309.65
557.866	25453.01
558.065	25301.46
558.265	25055.7
558.464	25049.56
558.663	25299.41
558.863	25055.7
559.062	25319.89
559.261	24758.75
559.461	25113.05
559.66	24556
559.859	25209.3
560.058	24441.31
560.258	25119.19
560.457	24715.74
560.656	24764.89
560.855	24693.21
561.054	24619.49
561.253	24545.76
561.453	24603.1
561.652	24590.81
561.851	24725.98
562.05	24658.4
562.249	24175.08
562.448	24601.05
562.647	24619.49
562.846	24439.26
563.045	24158.69
563.244	24304.1
563.443	24750.56
563.642	23880.17
563.841	24031.72
564.04	23810.54
564.239	24383.97
564.438	24003.05
564.637	24103.4
564.836	23788.01
565.035	24132.07
565.234	24076.77
565.432	23955.94
565.631	23575.02
565.83	23923.18
566.029	23493.1
566.228	23583.21
566.427	23411.18
566.625	23390.7
566.824	23046.65
567.023	23431.66
567.222	22854.14
567.42	23634.41
567.619	23288.31
567.818	23089.65
568.016	22983.16
568.215	23134.71
568.414	22817.27
568.612	23130.61
568.811	22893.05
569.01	22895.1
569.208	22456.83
569.407	22731.26
569.605	22454.78
569.804	22862.33
570.002	22452.73
570.201	22850.04
570.4	22198.79
570.598	22389.25
570.797	22270.47
570.995	22553.09
571.193	21897.74
571.392	22272.51
571.59	22067.72
571.789	21985.8
571.987	22061.57
572.186	21944.84
572.384	21668.36
572.582	21950.98
572.781	21582.35
572.979	21365.26
573.177	21850.63
573.376	21594.64
573.574	21535.24
573.772	21512.72
573.971	21156.37
574.169	21164.56
574.367	20861.46
574.565	21262.86
574.763	21125.65
574.962	21000.72
575.16	20687.39
575.358	21172.75
575.556	20355.61
575.754	20914.71
575.952	20609.56
576.151	20701.72
576.349	20541.98
576.547	20492.83
576.745	20361.76
576.943	20294.18
577.141	20169.25
577.339	20449.82
577.537	20148.77
577.735	20253.22
577.933	20288.03
578.131	20015.65
578.329	19780.14
578.527	19749.42
578.725	19927.59
578.923	19866.15
579.121	19825.19
579.319	19632.68
579.516	19911.21
579.714	19624.49
579.912	19505.71
580.11	19661.35
580.308	19393.07
580.506	19167.79
580.704	18911.8
580.901	19139.12
581.099	19413.55
581.297	19008.05
581.495	19114.55
581.692	19042.87
581.89	18969.14
582.088	18956.85
582.285	18870.84
582.483	18993.72
582.681	18825.78
582.878	18526.78
583.076	18473.53
583.274	18711.1
583.471	18303.55
583.669	18469.44
583.866	18254.4
584.064	18379.32
584.262	18246.21
584.459	18451
584.657	18094.66
584.854	18242.11
585.052	17885.76
585.249	18008.64
585.447	18010.69
585.644	17732.17
585.841	17746.5
586.039	17791.56
586.236	17617.48
586.434	17553.99
586.631	17789.51
586.828	17461.83
587.026	17181.26
587.223	17603.14
587.42	17269.33
587.618	17408.59
587.815	17398.35
588.012	17154.64
588.21	17224.27
588.407	17226.32
588.604	17095.25
588.801	16972.37
588.999	17087.06
589.196	16841.3
589.393	16888.4
589.59	16812.63
589.787	16618.07
589.984	16951.89
590.182	16736.85
590.379	16714.33
590.576	16505.43
590.773	16575.06
590.97	16411.23
591.167	16525.91
591.364	16386.65
591.561	16423.51
591.758	16190.05
591.955	16495.19
592.152	16523.87
592.349	16091.74
592.546	16144.99
592.743	16267.87
592.94	16138.85
593.137	16079.46
593.334	15788.64
593.531	15817.32
593.727	16151.13
593.924	15856.23
594.121	15727.21
594.318	15839.84
594.515	15436.39
594.712	15739.49
594.908	15657.57
595.105	15817.32
595.302	15309.42
595.499	15475.31
595.696	15458.92
595.892	15295.08
596.089	15536.74
596.286	15350.38
596.482	15090.29
596.679	15313.52
596.876	15121.01
597.072	15231.6
597.269	15034.99
597.466	14750.32
597.662	15047.28
597.859	14885.49
598.055	15063.66
598.252	14695.03
598.448	14873.2
598.645	14940.79
598.841	14549.62
599.038	14735.99
599.234	14664.31
599.431	14439.03
599.627	14328.44
599.824	14525.05
600.02	14217.85
600.217	14363.26
600.413	14271.1
600.609	14135.93
600.806	14234.24
601.002	14463.61
601.198	14045.82
601.395	13990.53
601.591	13920.9
601.787	14068.35
601.984	13812.35
602.18	14090.88
602.376	13890.18
602.572	13859.46
602.769	13742.72
602.965	13890.18
603.161	13640.33
603.357	13755.01
603.553	13806.21
603.75	13525.64
603.946	13304.46
604.142	13349.51
604.338	13320.84
604.534	13326.99
604.73	13243.02
604.926	13247.12
605.122	13300.36
605.318	13202.06
605.514	12970.64
605.71	13032.08
605.906	12980.88
606.102	13075.09
606.298	13032.08
606.494	12812.95
606.69	12749.46
606.886	12864.15
607.082	12759.7
607.278	12833.43
607.474	12833.43
607.67	12923.54
607.866	12325.53
608.062	12724.88
608.257	12753.55
608.453	12536.47
608.649	12700.31
608.845	12567.19
609.041	12401.3
609.236	12313.24
609.432	12477.08
609.628	12362.39
609.824	12049.05
610.019	12163.74
610.215	12176.03
610.411	12143.26
610.606	12108.44
610.802	12171.93
610.998	12083.87
611.193	12073.63
611.389	12006.05
611.584	11942.56
611.78	11870.88
611.976	11975.33
612.171	11971.23
612.367	11952.8
612.562	11913.89
612.758	11612.84
612.953	11840.16
613.149	11807.39
613.344	11707.04
613.539	11887.26
613.735	11940.51
613.93	11731.62
614.126	11522.73
614.321	11846.3
614.517	11475.62
614.712	11561.64
614.907	11408.04
615.103	11684.52
615.298	11098.8
615.493	11289.26
615.688	11420.33
615.884	11604.64
616.079	11276.97
616.274	11193
616.47	11272.87
616.665	11258.54
616.86	11311.78
617.055	11082.41
617.25	11125.42
617.445	11305.64
617.641	10869.42
617.836	11176.62
618.031	10879.66
618.226	11176.62
618.421	10924.72
618.616	11027.12
618.811	11016.88
619.006	10971.82
619.201	10764.98
619.396	10744.5
619.591	10740.4
619.786	10656.43
619.981	10638
620.176	10578.61
620.371	10400.44
620.566	10410.68
620.761	10490.55
620.956	10388.15
621.151	10408.63
621.346	10392.25
621.541	10191.55
621.735	10238.65
621.93	9949.89
622.125	10044.09
622.32	9919.17
622.515	10050.24
622.709	10169.02
622.904	9849.54
623.099	9806.53
623.294	9792.19
623.488	9630.4
623.683	9591.49
623.878	9493.19
624.072	9622.21
624.267	9550.53
624.462	9614.02
624.656	9431.75
624.851	9403.08
625.046	9312.97
625.24	9302.73
625.435	9040.59
625.629	9079.5
625.824	9028.3
626.018	9024.2
626.213	8841.93
626.407	8915.66
626.602	8897.23
626.796	8848.08
626.991	8753.87
627.185	8905.42
627.38	8698.58
627.574	8561.36
627.768	8516.31
627.963	8485.59
628.157	8501.97
628.352	8542.93
628.546	8420.05
628.74	8413.91
628.935	8342.23
629.129	8225.5
629.323	8196.82
629.517	8188.63
629.712	8241.88
629.906	7961.31
630.1	8088.28
630.294	8168.15
630.489	7987.93
630.683	8078.04
630.877	7805.66
631.071	7840.48
631.265	7940.83
631.459	8004.32
631.653	7717.6
631.848	7772.89
632.042	7627.49
632.236	7662.3
632.43	7488.23
632.624	7590.63
632.818	7471.84
633.012	7486.18
633.206	7258.85
633.4	7449.32
633.594	7248.61
633.788	7162.6
633.982	7375.59
634.176	7224.04
634.369	7316.2
634.563	7029.48
634.757	7140.07
634.951	7090.92
635.145	7054.06
635.339	7123.69
635.533	6949.61
635.726	6826.73
635.92	6824.69
636.114	6736.62
636.308	6875.88
636.501	6677.23
636.695	6691.57
636.889	6644.46
637.083	6759.15
637.276	6707.95
637.47	6705.9
637.664	6396.66
637.857	6517.49
638.051	6628.08
638.244	6441.72
638.438	6367.99
638.632	6494.96
638.825	6308.6
639.019	6247.16
639.212	6304.5
639.406	6216.44
639.599	6189.81
639.793	6251.25
639.986	6118.14
640.18	6269.69
640.373	6028.03
640.567	5939.96
640.76	6089.46
640.954	6087.42
641.147	6056.7
641.34	5743.36
641.534	5964.54
641.727	5659.39
641.92	5933.82
642.114	5686.01
642.307	5776.13
642.5	5663.49
642.694	5509.89
642.887	5657.34
643.08	5638.91
643.273	5624.58
643.467	5460.74
643.66	5622.53
643.853	5370.63
644.046	5403.39
644.239	5403.39
644.432	5284.61
644.626	5360.39
644.819	5307.14
645.012	5182.21
645.205	5362.44
645.398	5290.76
645.591	5106.44
645.784	5210.89
645.977	5010.18
646.17	5196.55
646.363	4975.37
646.556	4819.72
646.749	4938.51
646.942	4958.99
647.135	4942.6
647.328	5004.04
647.521	4817.68
647.714	4918.03
647.907	4846.35
648.099	4813.58
648.292	4705.04
648.485	4514.58
648.678	4702.99
648.871	4633.36
649.064	4459.28
649.256	4576.02
649.449	4530.96
649.642	4584.21
649.835	4465.43
650.027	4555.54
650.22	4436.75
650.413	4526.86
650.605	4498.19
650.798	4492.05
650.991	4334.36
651.183	4342.55
651.376	4250.39
651.568	4313.88
651.761	4377.36
651.954	4113.17
652.146	4158.23
652.339	4082.46
652.531	4238.1
652.724	4180.76
652.916	4049.69
653.109	4162.33
653.301	4156.18
653.494	4147.99
653.686	4014.87
653.879	4076.31
654.071	4098.84
654.263	3863.32
654.456	3943.19
654.648	3851.03
654.84	3853.08
655.033	3932.95
655.225	4084.5
655.417	3752.73
655.61	3793.69
655.802	3717.92
655.994	3740.44
656.186	3779.36
656.379	3859.23
656.571	3662.62
656.763	3633.95
656.955	3592.99
657.148	3740.44
657.34	3715.87
657.532	3584.8
657.724	3554.08
657.916	3527.46
658.108	3461.92
658.3	3576.61
658.492	3388.19
658.684	3549.98
658.876	3402.53
659.068	3390.24
659.26	3496.74
659.452	3349.28
659.644	3293.99
659.836	3167.01
660.028	3414.82
660.22	3306.27
660.412	3308.32
660.604	3228.45
660.796	3371.81
660.988	3066.66
661.18	3146.53
661.372	3240.74
661.563	3148.58
661.755	3089.19
661.947	3083.05
662.139	3074.85
662.331	3021.61
662.522	3072.81
662.714	3031.85
662.906	2925.35
663.097	2966.31
663.289	2956.07
663.481	2913.06
663.673	3054.37
663.864	2917.16
664.056	2923.3
664.247	2941.74
664.439	2892.59
664.631	2913.06
664.822	2935.59
665.014	2845.48
665.205	2874.15
665.397	2829.1
665.588	2822.95
665.78	2876.2
665.971	2689.84
666.163	2712.36
666.354	2757.42
666.546	2794.28
666.737	2642.73
666.929	2698.03
667.12	2863.91
667.311	2675.5
667.503	2683.69
667.694	2659.12
667.885	2636.59
668.077	2702.12
668.268	2581.29
668.459	2585.39
668.651	2466.61
668.842	2499.38
669.033	2540.33
669.224	2482.99
669.416	2612.01
669.607	2491.18
669.798	2470.7
669.989	2538.29
670.18	2616.11
670.371	2407.22
670.563	2513.71
670.754	2419.5
670.945	2388.78
671.136	2329.39
671.327	2431.79
671.518	2380.59
671.709	2454.32
671.9	2407.22
672.091	2392.88
672.282	2396.98
672.473	2267.95
672.664	2374.45
672.855	2368.31
673.046	2358.07
673.237	2319.15
673.428	2349.87
673.619	2245.43
673.809	2229.04
674	2417.46
674.191	2380.59
674.382	2349.87
674.573	2368.31
674.764	2347.83
674.954	2218.8
675.145	2227
675.336	2161.46
675.527	2241.33
675.717	2186.04
675.908	2284.34
676.099	2153.27
676.289	2149.17
676.48	2147.12
676.671	2153.27
676.861	2212.66
677.052	2159.41
677.243	2265.91
677.433	2095.93
677.624	2167.6
677.814	2151.22
678.005	2114.36
678.195	2048.82
678.386	2153.27
678.576	2102.07
678.767	2153.27
678.957	2095.93
679.148	2179.89
679.338	2128.69
679.529	2186.04
679.719	2087.73
679.909	2143.03
680.1	2192.18
680.29	2069.3
680.481	2032.44
680.671	2038.58
680.861	1973.05
681.052	1979.19
681.242	2102.07
681.432	2079.54
681.622	1932.09
681.813	2020.15
682.003	1923.9
682.193	1997.62
682.383	1993.53
682.573	2114.36
682.764	2065.21
682.954	1948.47
683.144	1991.48
683.334	2040.63
683.524	2114.36
683.714	2011.96
683.904	2114.36
684.094	1927.99
684.284	1899.32
684.474	2040.63
684.664	1991.48
684.854	1866.55
685.044	1995.57
685.234	1876.79
685.424	1940.28
685.614	1985.34
685.804	1975.1
685.994	1968.95
686.184	1882.94
686.374	1905.46
686.564	1948.47
686.753	1938.23
686.943	1897.27
687.133	1819.45
687.323	1925.94
687.513	1952.57
687.702	1870.65
687.892	1948.47
688.082	1878.84
688.272	1884.98
688.461	1903.42
688.651	1839.93
688.841	1901.37
689.03	1844.03
689.22	1846.07
689.41	1848.12
689.599	1864.5
689.789	1860.41
689.979	1909.56
690.168	1876.79
690.358	1751.87
690.547	1780.54
690.737	1833.79
690.926	1876.79
691.116	1860.41
691.305	1872.7
691.495	1850.17
691.684	1768.25
691.874	1964.86
692.063	1811.26
692.252	1901.37
692.442	1749.82
692.631	1809.21
692.82	1831.74
693.01	1819.45
693.199	1880.89
693.388	1768.25
693.578	1858.36
693.767	1905.46
693.956	1841.98
694.146	1919.8
694.335	1792.83
694.524	1839.93
694.713	1766.2
694.902	1866.55
695.092	1776.44
695.281	1778.49
695.47	1852.22
695.659	1917.75
695.848	1760.06
696.037	1768.25
696.226	1870.65
696.415	1729.34
696.604	1870.65
696.793	1729.34
696.982	1839.93
697.171	1827.64
697.36	1973.05
697.549	1833.79
697.738	1758.01
697.927	1721.15
698.116	1833.79
698.305	1811.26
698.494	1805.11
698.683	1745.72
698.872	1821.5
699.061	1807.16
699.25	1770.3
699.438	1911.61
699.627	1815.35
699.816	1798.97
700.005	1811.26
700.193	1747.77
700.382	1841.98
700.571	1923.9
700.76	1905.46
700.948	1927.99
701.137	1837.88
701.326	1745.72
701.514	1798.97
701.703	1841.98
701.892	1737.53
702.08	1887.03
702.269	1770.3
702.457	1835.83
702.646	1866.55
702.834	1674.04
703.023	1758.01
703.212	1700.67
703.4	1790.78
703.589	1733.43
703.777	1813.31
703.965	1823.55
704.154	1725.24
704.342	1741.63
704.531	1706.81
704.719	1727.29
704.907	1696.57
705.096	1764.15
705.284	1801.02
705.472	1776.44
705.661	1811.26
705.849	1784.63
706.037	1758.01
706.226	1760.06
706.414	1739.58
706.602	1710.91
706.79	1745.72
706.979	1635.13
707.167	1731.39
707.355	1667.9
707.543	1733.43
707.731	1731.39
707.919	1778.49
708.107	1731.39
708.296	1651.52
708.484	1645.37
708.672	1635.13
708.86	1579.84
709.048	1692.48
709.236	1751.87
709.424	1743.67
709.612	1749.82
709.8	1698.62
709.988	1678.14
710.176	1665.85
710.364	1659.71
710.551	1626.94
710.739	1696.57
710.927	1600.32
711.115	1559.36
711.303	1561.41
711.491	1583.93
711.679	1608.51
711.866	1622.84
712.054	1547.07
712.242	1608.51
712.43	1600.32
712.617	1600.32
712.805	1657.66
712.993	1612.6
713.181	1557.31
713.368	1643.32
713.556	1409.86
713.744	1555.26
713.931	1624.89
714.119	1710.91
714.306	1553.21
714.494	1575.74
714.682	1547.07
714.869	1512.25
715.057	1569.6
715.244	1448.77
715.432	1557.31
715.619	1528.64
715.807	1497.92
715.994	1553.21
716.182	1459.01
716.369	1497.92
716.556	1538.88
716.744	1542.97
716.931	1508.16
717.119	1461.06
717.306	1477.44
717.493	1452.86
717.681	1405.76
717.868	1471.29
718.055	1377.09
718.242	1463.1
718.43	1366.85
718.617	1432.38
718.804	1391.42
718.991	1506.11
719.179	1299.27
719.366	1387.33
719.553	1354.56
719.74	1528.64
719.927	1422.14
720.114	1387.33
720.301	1440.58
720.488	1313.6
720.676	1352.51
720.863	1446.72
721.05	1315.65
721.237	1395.52
721.424	1454.91
721.611	1389.38
721.798	1434.43
721.985	1327.94
722.172	1329.99
722.358	1403.71
722.545	1391.42
722.732	1336.13
722.919	1409.86
723.106	1268.55
723.293	1309.51
723.48	1432.38
723.667	1235.78
723.853	1323.84
724.04	1332.03
724.227	1291.07
724.414	1377.09
724.6	1299.27
724.787	1319.75
724.974	1291.07
725.161	1254.21
725.347	1207.11
725.534	1346.37
725.72	1405.76
725.907	1293.12
726.094	1350.46
726.28	1327.94
726.467	1317.7
726.653	1184.58
726.84	1233.73
727.027	1387.33
727.213	1278.79
727.4	1313.6
727.586	1278.79
727.773	1284.93
727.959	1243.97
728.145	1215.3
728.332	1280.83
728.518	1272.64
728.705	1295.17
728.891	1235.78
729.077	1166.15
729.264	1213.25
729.45	1270.59
729.636	1188.68
729.823	1205.06
730.009	1114.95
730.195	1243.97
730.382	1241.92
730.568	1211.2
730.754	1215.3
730.94	1227.59
731.126	1254.21
731.313	1106.76
731.499	1149.76
731.685	1248.07
731.871	1194.82
732.057	1143.62
732.243	1110.85
732.429	1166.15
732.615	1145.67
732.801	1246.02
732.987	1188.68
733.173	1344.32
733.359	1241.92
733.545	1076.04
733.731	1110.85
733.917	1082.18
734.103	1098.56
734.289	1231.68
734.475	1110.85
734.661	1203.01
734.847	1114.95
735.033	1106.76
735.219	1082.18
735.404	1039.17
735.59	1039.17
735.776	1168.2
735.962	1073.99
736.148	1024.84
736.333	1235.78
736.519	1037.13
736.705	1073.99
736.89	1110.85
737.076	1069.89
737.262	987.97
737.447	1094.47
737.633	1088.32
737.819	1047.37
738.004	1055.56
738.19	944.97
738.375	998.21
738.561	1080.13
738.747	1057.61
738.932	985.93
739.118	1016.65
739.303	1010.5
739.489	1024.84
739.674	994.12
739.859	1137.48
740.045	987.97
740.23	1020.74
740.416	940.87
740.601	1045.32
740.786	979.78
740.972	1006.41
741.157	924.49
741.342	920.39
741.528	906.06
741.713	981.83
741.898	932.68
742.084	951.11
742.269	916.3
742.454	985.93
742.639	1037.13
742.824	1020.74
743.01	1004.36
743.195	1014.6
743.38	881.48
743.565	906.06
743.75	916.3
743.935	901.96
744.12	957.25
744.305	867.14
744.49	893.77
744.675	969.54
744.86	904.01
745.045	944.97
745.23	908.1
745.415	936.78
745.6	881.48
745.785	920.39
745.97	951.11
746.155	951.11
746.34	926.54
746.525	891.72
746.71	865.1
746.895	817.99
747.079	803.66
747.264	852.81
747.449	867.14
747.634	774.99
747.819	846.66
748.003	811.85
748.188	785.23
748.373	789.32
748.557	879.43
748.742	817.99
748.927	797.51
749.111	803.66
749.296	865.1
749.481	758.6
749.665	861
749.85	740.17
750.034	801.61
750.219	824.14
750.404	793.42
750.588	785.23
750.773	779.08
750.957	836.42
751.141	877.38
751.326	742.22
751.51	764.75
751.695	680.78
751.879	750.41
752.064	793.42
752.248	758.6
752.432	873.29
752.617	746.31
752.801	762.7
752.985	592.72
753.17	693.07
753.354	781.13
753.538	621.39
753.722	678.73
753.907	680.78
754.091	701.26
754.275	715.59
754.459	670.54
754.643	592.72
754.828	686.92
755.012	627.53
755.196	643.92
755.38	734.03
755.564	545.61
755.748	592.72
755.932	660.3
756.116	660.3
756.3	602.96
756.484	596.81
756.668	580.43
756.852	574.28
757.036	662.35
757.22	678.73
757.404	623.44
757.588	680.78
757.772	580.43
757.956	613.2
758.14	699.21
758.323	592.72
758.507	641.87
758.691	547.66
758.875	559.95
759.059	607.05
759.242	555.85
759.426	523.09
759.61	592.72
759.794	557.9
759.977	510.8
760.161	598.86
760.345	570.19
760.528	553.8
760.712	562
760.895	529.23
761.079	555.85
761.263	512.85
761.446	484.17
761.63	633.68
761.813	469.84
761.997	521.04
762.18	486.22
762.364	518.99
762.547	475.98
762.731	514.89
762.914	549.71
763.098	496.46
763.281	437.07
763.464	435.02
763.648	463.69
763.831	467.79
764.015	572.24
764.198	619.34
764.381	461.65
764.564	516.94
764.748	564.04
764.931	463.69
765.114	412.5
765.297	463.69
765.481	447.31
765.664	518.99
765.847	527.18
766.03	518.99
766.213	484.17
766.397	480.08
766.58	461.65
766.763	484.17
766.946	486.22
767.129	441.17
767.312	498.51
767.495	432.97
767.678	484.17
767.861	482.13
768.044	475.98
768.227	514.89
768.41	455.5
768.593	508.75
768.776	455.5
768.959	445.26
769.142	490.32
769.324	457.55
769.507	449.36
769.69	549.71
769.873	430.93
770.056	514.89
770.239	453.45
770.421	432.97
770.604	445.26
770.787	504.65
770.97	400.21
771.152	480.08
771.335	502.61
771.518	426.83
771.7	457.55
771.883	469.84
772.066	426.83
772.248	363.34
772.431	412.5
772.613	439.12
772.796	392.02
772.978	404.3
773.161	365.39
773.343	367.44
773.526	416.59
773.708	445.26
773.891	396.11
774.073	437.07
774.256	363.34
774.438	400.21
774.621	387.92
774.803	375.63
774.985	404.3
775.168	451.41
775.35	308.05
775.532	439.12
775.715	432.97
775.897	414.54
776.079	361.3
776.261	408.4
776.444	306
776.626	318.29
776.808	320.34
776.99	396.11
777.173	367.44
777.355	357.2
777.537	324.43
777.719	365.39
777.901	355.15
778.083	289.62
778.265	324.43
778.447	373.58
778.629	330.58
778.811	346.96
778.993	353.1
779.175	363.34
779.357	353.1
779.539	412.5
779.721	332.62
779.903	320.34
780.085	314.19
780.267	318.29
780.449	320.34
780.631	291.66
780.812	230.23
780.994	269.14
781.176	320.34
781.358	336.72
781.54	289.62
781.721	344.91
781.903	314.19
782.085	293.71
782.267	244.56
782.448	275.28
782.63	408.4
782.812	287.57
782.993	303.95
783.175	224.08
783.357	293.71
783.538	322.38
783.72	291.66
783.901	260.95
784.083	279.38
784.264	250.71
784.446	267.09
784.627	213.84
784.809	244.56
784.99	222.03
785.172	291.66
785.353	267.09
785.535	250.71
785.716	322.38
785.897	240.47
786.079	277.33
786.26	299.86
786.441	265.04
786.623	279.38
786.804	236.37
786.985	285.52
787.167	277.33
787.348	244.56
787.529	179.03
787.71	164.69
787.891	277.33
788.073	193.36
788.254	260.95
788.435	189.27
788.616	250.71
788.797	199.51
788.978	129.88
789.159	226.13
789.34	273.23
789.522	269.14
789.703	217.94
789.884	142.16
790.065	267.09
790.246	203.6
790.427	191.31
790.607	240.47
790.788	152.4
790.969	152.4
791.15	170.83
791.331	131.92
791.512	256.85
791.693	115.54
791.874	242.51
792.054	189.27
792.235	262.99
792.416	222.03
792.597	176.98
792.778	131.92
792.958	279.38
793.139	199.51
793.32	187.22
793.5	213.84
793.681	226.13
793.862	197.46
794.042	189.27
794.223	176.98
794.404	115.54
794.584	181.07
794.765	129.88
794.945	199.51
795.126	203.6
795.306	248.66
795.487	172.88
795.667	133.97
795.848	195.41
796.028	160.59
796.209	125.78
796.389	115.54
796.57	125.78
796.75	131.92
796.93	172.88
797.111	236.37
797.291	205.65
797.471	185.17
797.652	111.44
797.832	195.41
798.012	131.92
798.192	136.02
798.373	113.49
798.553	107.35
798.733	179.03
798.913	150.36
799.093	133.97
799.274	174.93
799.454	123.73
799.634	166.74
799.814	113.49
799.994	133.97
800.174	121.68
800.354	207.7
800.534	142.16
800.714	150.36
800.894	181.07
801.074	56.15
801.254	172.88
801.434	242.51
801.614	131.92
801.794	142.16
801.974	406.35
802.154	172.88
802.334	138.07
802.514	105.3
802.693	150.36
802.873	183.12
803.053	205.65
803.233	101.2
803.413	84.82
803.592	146.26
803.772	156.5
803.952	113.49
804.131	144.21
804.311	113.49
804.491	136.02
804.67	127.83
804.85	131.92
805.03	140.12
805.209	160.59
805.389	111.44
805.568	131.92
805.748	160.59
805.928	119.64
806.107	144.21
806.287	146.26
806.466	211.79
806.646	86.87
806.825	64.34
807.004	82.77
807.184	174.93
807.363	172.88
807.543	129.88
807.722	99.16
807.901	115.54
808.081	140.12
808.26	70.48
808.439	195.41
808.619	140.12
808.798	107.35
808.977	129.88
809.156	129.88
809.336	109.4
809.515	144.21
809.694	88.92
809.873	115.54
810.052	176.98
810.231	121.68
810.411	115.54
810.59	162.64
810.769	88.92
810.948	107.35
811.127	101.2
811.306	99.16
811.485	168.79
811.664	109.4
811.843	129.88
812.022	99.16
812.201	33.62
812.38	152.4
812.559	17.24
812.737	93.01
812.916	78.68
813.095	109.4
813.274	31.57
813.453	105.3
813.632	52.05
813.811	121.68
813.989	142.16
814.168	103.25
814.347	54.1
814.526	50
814.704	101.2
814.883	148.31
815.062	76.63
815.24	76.63
815.419	121.68
815.598	146.26
815.776	109.4
815.955	144.21
816.133	39.76
816.312	76.63
816.49	70.48
816.669	97.11
816.847	148.31
817.026	52.05
817.204	47.96
817.383	58.2
817.561	76.63
817.74	140.12
817.918	113.49
818.097	121.68
818.275	109.4
818.453	176.98
818.632	93.01
818.81	43.86
818.988	60.24
819.167	62.29
819.345	136.02
819.523	99.16
819.701	27.48
819.879	93.01
820.058	43.86
820.236	127.83
820.414	103.25
820.592	47.96
820.77	117.59
820.948	72.53
821.127	129.88
821.305	133.97
821.483	80.72
821.661	88.92
821.839	54.1
822.017	19.29
822.195	62.29
822.373	119.64
822.551	58.2
822.729	86.87
822.907	37.72
823.085	86.87
823.262	33.62
823.44	113.49
823.618	103.25
823.796	68.44
823.974	47.96
824.152	115.54
824.329	66.39
824.507	152.4
824.685	50
824.863	41.81
825.04	88.92
825.218	56.15
825.396	41.81
825.574	115.54
825.751	82.77
825.929	95.06
826.107	84.82
826.284	103.25
826.462	4.95
826.639	29.52
826.817	78.68
826.994	76.63
827.172	9.05
827.349	68.44
827.527	86.87
827.704	121.68
827.882	84.82
828.059	33.62
828.237	39.76
828.414	50
828.591	56.15
828.769	70.48
828.946	37.72
829.124	37.72
829.301	138.07
829.478	43.86
829.655	45.91
829.833	86.87
830.01	78.68
830.187	82.77
830.364	52.05
830.542	131.92
830.719	107.35
830.896	133.97
831.073	70.48
831.25	111.44
831.427	117.59
831.604	29.52
831.782	68.44
831.959	95.06
832.136	80.72
832.313	56.15
832.49	4.95
832.667	47.96
832.844	43.86
833.021	84.82
833.198	47.96
833.374	47.96
833.551	52.05
833.728	72.53
833.905	58.2
834.082	162.64
834.259	31.57
834.436	80.72
834.612	15.19
834.789	113.49
834.966	31.57
835.143	95.06
835.319	78.68
835.496	23.38
835.673	74.58
835.85	99.16
836.026	9.05
836.203	80.72
836.38	7
836.556	47.96
836.733	78.68
836.909	54.1
837.086	50
837.262	43.86
837.439	39.76
837.616	-7.34
837.792	72.53
837.968	88.92
838.145	35.67
838.321	9.05
838.498	99.16
838.674	86.87
838.851	66.39
839.027	15.19
839.203	17.24
839.38	68.44
839.556	72.53
839.732	43.86
839.909	66.39
840.085	72.53
840.261	39.76
840.437	56.15
840.614	136.02
840.79	4.95
840.966	70.48
841.142	58.2
841.318	66.39
841.494	107.35
841.671	84.82
841.847	123.73
842.023	25.43
842.199	82.77
842.375	37.72
842.551	72.53
842.727	-3.24
842.903	64.34
843.079	29.52
843.255	90.96
843.431	45.91
843.607	-9.39
843.783	-5.29
843.959	95.06
844.134	37.72
844.31	60.24
844.486	54.1
844.662	27.48
844.838	88.92
845.013	21.33
845.189	58.2
845.365	-3.24
845.541	56.15
845.716	99.16
845.892	27.48
846.068	47.96
846.244	72.53
846.419	17.24
846.595	82.77
846.77	111.44
846.946	17.24
847.122	68.44
847.297	74.58
847.473	47.96
847.648	103.25
847.824	74.58
847.999	-23.72
848.175	60.24
848.35	29.52
848.526	58.2
848.701	47.96
848.876	21.33
849.052	66.39
849.227	86.87
849.403	-1.19
849.578	47.96
849.753	45.91
849.929	15.19
850.104	70.48
850.279	115.54
850.454	101.2
850.63	45.91
850.805	72.53
850.98	105.3
851.155	35.67
851.33	78.68
851.505	-1.19
851.681	23.38
851.856	-23.72
852.031	68.44
852.206	23.38
852.381	60.24
852.556	68.44
852.731	62.29
852.906	17.24
853.081	68.44
853.256	62.29
853.431	95.06
853.606	4.95
853.781	43.86
853.956	50
854.131	-17.58
854.305	-1.19
854.48	15.19
854.655	90.96
854.83	17.24
855.005	-11.43
855.18	35.67
855.354	13.14
855.529	78.68
855.704	68.44
855.879	107.35
856.053	99.16
856.228	0.85
856.403	56.15
856.577	54.1
856.752	47.96
856.926	7
857.101	54.1
857.276	66.39
857.45	60.24
857.625	37.72
857.799	68.44
857.974	62.29
858.148	29.52
858.323	27.48
858.497	66.39
858.672	58.2
858.846	58.2
859.02	41.81
859.195	52.05
859.369	66.39
859.543	99.16
859.718	99.16
859.892	-5.29
860.066	-9.39
860.241	72.53
860.415	13.14
860.589	13.14
860.763	72.53
860.938	11.09
861.112	39.76
861.286	41.81
861.46	68.44
861.634	35.67
861.808	62.29
861.982	103.25
862.157	54.1
862.331	-15.53
862.505	45.91
862.679	-11.43
862.853	54.1
863.027	-97.45
863.201	17.24
863.375	64.34
863.549	-25.77
863.722	64.34
863.896	52.05
864.07	56.15
864.244	33.62
864.418	88.92
864.592	35.67
864.766	7
864.939	68.44
865.113	11.09
865.287	37.72
865.461	-27.82
865.634	80.72
865.808	64.34
865.982	95.06
866.156	56.15
866.329	-11.43
866.503	82.77
866.676	39.76
866.85	33.62
867.024	-9.39
867.197	93.01
867.371	15.19
867.544	80.72
867.718	31.57
867.891	58.2
868.065	13.14
868.238	15.19
868.412	62.29
868.585	4.95
868.759	-27.82
868.932	33.62
869.105	70.48
869.279	50
869.452	62.29
869.625	-11.43
869.799	21.33
869.972	35.67
870.145	84.82
870.319	58.2
870.492	58.2
870.665	39.76
870.838	-44.2
871.011	64.34
871.185	27.48
871.358	15.19
871.531	93.01
871.704	52.05
871.877	25.43
872.05	17.24
872.223	47.96
872.396	78.68
872.569	21.33
872.742	-15.53
872.915	-9.39
873.088	31.57
873.261	23.38
873.434	17.24
873.607	19.29
873.78	13.14
873.953	23.38
874.126	17.24
874.299	146.26
874.471	37.72
874.644	17.24
874.817	-31.91
874.99	86.87
875.163	21.33
875.335	58.2
875.508	64.34
875.681	62.29
875.853	66.39
876.026	13.14
876.199	19.29
876.371	41.81
876.544	13.14
876.717	7
876.889	-23.72
877.062	33.62
877.234	-23.72
877.407	37.72
877.579	62.29
877.752	56.15
877.924	-17.58
878.097	54.1
878.269	9.05
878.442	52.05
878.614	103.25
878.786	58.2
878.959	-48.3
879.131	-13.48
879.303	-5.29
879.476	25.43
879.648	35.67
879.82	93.01
879.993	39.76
880.165	23.38
880.337	7
880.509	76.63
880.681	19.29
880.854	37.72
881.026	0.85
881.198	72.53
881.37	66.39
881.542	31.57
881.714	97.11
881.886	15.19
882.058	64.34
882.23	35.67
882.402	-13.48
882.574	58.2
882.746	-15.53
882.918	23.38
883.09	84.82
883.262	4.95
883.434	23.38
883.606	27.48
883.778	68.44
883.95	4.95
884.122	43.86
884.293	-15.53
884.465	-7.34
884.637	23.38
884.809	0.85
884.98	43.86
885.152	13.14
885.324	41.81
885.496	19.29
885.667	15.19
885.839	50
886.011	27.48
886.182	9.05
886.354	90.96
886.525	-7.34
886.697	54.1
886.869	11.09
887.04	90.96
887.212	93.01
887.383	27.48
887.555	25.43
887.726	11.09
887.897	111.44
888.069	74.58
888.24	90.96
888.412	-3.24
888.583	21.33
888.754	0.85
888.926	21.33
889.097	11.09
889.268	93.01
889.44	45.91
889.611	50
889.782	-17.58
889.953	-31.91
890.125	25.43
890.296	-11.43
890.467	29.52
890.638	41.81
890.809	27.48
890.98	21.33
891.151	84.82
891.323	103.25
891.494	29.52
891.665	21.33
891.836	-9.39
892.007	29.52
892.178	31.57
892.349	56.15
892.52	-74.92
892.691	9.05
892.862	52.05
893.032	58.2
893.203	62.29
893.374	0.85
893.545	86.87
893.716	45.91
893.887	45.91
894.057	103.25
894.228	64.34
894.399	9.05
894.57	45.91
894.74	-3.24
894.911	-27.82
895.082	-13.48
895.253	62.29
895.423	56.15
895.594	35.67
895.764	54.1
895.935	21.33
896.106	35.67
896.276	84.82
896.447	35.67
896.617	31.57
896.788	2.9
896.958	-3.24
897.129	88.92
897.299	39.76
897.47	13.14
897.64	-11.43
897.81	68.44
897.981	90.96
898.151	-3.24
898.322	19.29
898.492	31.57
898.662	68.44
898.832	-17.58
899.003	0.85
899.173	80.72
899.343	93.01
899.513	33.62
