Data from USB4F104151__225__14-00-17-322.txt Node

Date: Thu Mar 13 14:00:17 EDT 2025
User: louis
Spectrometer: USB4F10415
Trigger mode: 4
Integration Time (sec): 1.000000E-2
Scans to average: 1
Electric dark correction enabled: true
Nonlinearity correction enabled: false
Boxcar width: 0
XAxis mode: Wavelengths
Number of Pixels in Spectrum: 3648
>>>>>Begin Spectral Data<<<<<
178.204	-127.83
178.424	-127.83
178.644	-127.83
178.864	-97.11
179.084	-103.25
179.304	-29.52
179.524	-64.34
179.744	-17.24
179.964	21.67
180.184	36.01
180.404	-19.29
180.624	-41.81
180.844	58.54
181.064	50.35
181.283	31.91
181.503	-17.24
181.723	-9.05
181.943	-4.95
182.163	19.63
182.383	50.35
182.602	66.73
182.822	-4.95
183.042	13.48
183.262	-25.43
183.482	-19.29
183.701	-29.52
183.921	-7
184.141	-19.29
184.361	25.77
184.58	48.3
184.8	9.39
185.02	-37.72
185.239	68.78
185.459	-0.85
185.679	-39.76
185.898	-47.96
186.118	54.44
186.338	-35.67
186.557	17.58
186.777	-47.96
186.997	25.77
187.216	29.87
187.436	58.54
187.655	-62.29
187.875	62.63
188.095	-52.05
188.314	-43.86
188.534	93.35
188.753	36.01
188.973	13.48
189.192	38.06
189.412	-4.95
189.631	25.77
189.851	-41.81
190.07	-2.9
190.29	-13.14
190.509	-4.95
190.729	42.15
190.948	9.39
191.168	70.83
191.387	3.24
191.607	-68.44
191.826	-13.14
192.045	-45.91
192.265	132.26
192.484	-15.19
192.704	-2.9
192.923	-35.67
193.142	-31.57
193.362	-15.19
193.581	25.77
193.8	-78.68
194.02	46.25
194.239	-25.43
194.458	52.39
194.678	-29.52
194.897	-29.52
195.116	-17.24
195.335	-35.67
195.555	9.39
195.774	23.72
195.993	-4.95
196.212	7.34
196.432	11.43
196.651	19.63
196.87	1.19
197.089	46.25
197.308	3.24
197.528	1.19
197.747	19.63
197.966	3.24
198.185	-47.96
198.404	13.48
198.623	-60.24
198.842	-13.14
199.062	-23.38
199.281	-19.29
199.5	-19.29
199.719	-21.33
199.938	11.43
200.157	46.25
200.376	3.24
200.595	-23.38
200.814	-7
201.033	58.54
201.252	40.11
201.471	79.02
201.69	-21.33
201.909	3.24
202.128	31.91
202.347	48.3
202.566	9.39
202.785	-68.44
203.004	1.19
203.223	27.82
203.442	19.63
203.661	-56.15
203.879	87.21
204.098	-0.85
204.317	44.2
204.536	36.01
204.755	-11.09
204.974	1.19
205.193	-27.48
205.411	17.58
205.63	-31.57
205.849	9.39
206.068	58.54
206.287	-60.24
206.505	-15.19
206.724	-2.9
206.943	-29.52
207.162	-19.29
207.381	-7
207.599	-56.15
207.818	3.24
208.037	58.54
208.255	42.15
208.474	31.91
208.693	-54.1
208.911	1.19
209.13	13.48
209.349	11.43
209.567	33.96
209.786	38.06
210.005	60.59
210.223	-0.85
210.442	-27.48
210.661	19.63
210.879	-11.09
211.098	-7
211.316	70.83
211.535	17.58
211.753	38.06
211.972	48.3
212.191	-13.14
212.409	25.77
212.628	17.58
212.846	-19.29
213.065	-13.14
213.283	79.02
213.502	-9.05
213.72	1.19
213.938	1.19
214.157	17.58
214.375	23.72
214.594	7.34
214.812	9.39
215.031	3.24
215.249	-27.48
215.467	25.77
215.686	17.58
215.904	17.58
216.122	-7
216.341	-7
216.559	42.15
216.778	-13.14
216.996	36.01
217.214	25.77
217.432	-0.85
217.651	42.15
217.869	-76.63
218.087	9.39
218.306	19.63
218.524	36.01
218.742	-52.05
218.96	48.3
219.179	-52.05
219.397	9.39
219.615	60.59
219.833	25.77
220.051	25.77
220.27	-11.09
220.488	3.24
220.706	79.02
220.924	-47.96
221.142	21.67
221.36	-25.43
221.578	-68.44
221.796	-33.62
222.015	9.39
222.233	19.63
222.451	19.63
222.669	-13.14
222.887	31.91
223.105	62.63
223.323	46.25
223.541	-19.29
223.759	58.54
223.977	-15.19
224.195	29.87
224.413	50.35
224.631	-52.05
224.849	3.24
225.067	68.78
225.285	-13.14
225.503	11.43
225.721	-23.38
225.939	-7
226.157	11.43
226.375	58.54
226.592	-2.9
226.81	85.16
227.028	36.01
227.246	3.24
227.464	11.43
227.682	3.24
227.9	25.77
228.117	42.15
228.335	66.73
228.553	-13.14
228.771	13.48
228.989	42.15
229.206	3.24
229.424	-7
229.642	1.19
229.86	42.15
230.077	52.39
230.295	33.96
230.513	-31.57
230.731	9.39
230.948	-41.81
231.166	1.19
231.384	-72.53
231.601	29.87
231.819	9.39
232.037	29.87
232.254	-21.33
232.472	40.11
232.689	99.5
232.907	99.5
233.125	-41.81
233.342	27.82
233.56	-11.09
233.777	-56.15
233.995	3.24
234.213	-4.95
234.43	31.91
234.648	-13.14
234.865	21.67
235.083	9.39
235.3	-7
235.518	46.25
235.735	-25.43
235.953	25.77
236.17	21.67
236.388	64.68
236.605	23.72
236.822	52.39
237.04	9.39
237.257	-31.57
237.475	25.77
237.692	25.77
237.909	33.96
238.127	-2.9
238.344	-17.24
238.562	36.01
238.779	-64.34
238.996	-11.09
239.214	-2.9
239.431	66.73
239.648	-41.81
239.865	-31.57
240.083	52.39
240.3	-78.68
240.517	-33.62
240.735	87.21
240.952	29.87
241.169	44.2
241.386	-88.92
241.603	15.53
241.821	-9.05
242.038	70.83
242.255	-47.96
242.472	-11.09
242.689	3.24
242.907	50.35
243.124	-19.29
243.341	25.77
243.558	-2.9
243.775	25.77
243.992	-4.95
244.209	-11.09
244.426	56.49
244.643	19.63
244.86	-13.14
245.078	9.39
245.295	13.48
245.512	36.01
245.729	15.53
245.946	19.63
246.163	-9.05
246.38	21.67
246.597	-4.95
246.814	3.24
247.031	1.19
247.248	21.67
247.464	21.67
247.681	33.96
247.898	13.48
248.115	13.48
248.332	-25.43
248.549	128.17
248.766	13.48
248.983	-2.9
249.2	31.91
249.417	33.96
249.633	-35.67
249.85	40.11
250.067	91.31
250.284	48.3
250.501	-13.14
250.717	1.19
250.934	-107.35
251.151	62.63
251.368	-47.96
251.585	68.78
251.801	58.54
252.018	33.96
252.235	1.19
252.451	44.2
252.668	33.96
252.885	-0.85
253.102	7.34
253.318	-70.48
253.535	5.29
253.752	-19.29
253.968	-15.19
254.185	44.2
254.401	3.24
254.618	23.72
254.835	-90.96
255.051	38.06
255.268	-39.76
255.484	36.01
255.701	-11.09
255.917	7.34
256.134	-31.57
256.351	79.02
256.567	48.3
256.784	103.59
257	-7
257.217	25.77
257.433	58.54
257.65	70.83
257.866	-2.9
258.082	-54.1
258.299	13.48
258.515	-19.29
258.732	-29.52
258.948	-21.33
259.165	-41.81
259.381	58.54
259.597	9.39
259.814	29.87
260.03	-13.14
260.246	-23.38
260.463	46.25
260.679	101.55
260.895	5.29
261.112	-4.95
261.328	-78.68
261.544	-80.72
261.761	66.73
261.977	66.73
262.193	11.43
262.409	9.39
262.626	42.15
262.842	13.48
263.058	-15.19
263.274	72.87
263.49	42.15
263.707	9.39
263.923	-27.48
264.139	7.34
264.355	19.63
264.571	42.15
264.787	48.3
265.004	-72.53
265.22	-80.72
265.436	5.29
265.652	9.39
265.868	52.39
266.084	29.87
266.3	54.44
266.516	1.19
266.732	46.25
266.948	-2.9
267.164	3.24
267.38	-31.57
267.596	11.43
267.812	27.82
268.028	13.48
268.244	-7
268.46	-7
268.676	-11.09
268.892	-31.57
269.108	-19.29
269.324	17.58
269.54	62.63
269.756	5.29
269.972	-11.09
270.188	19.63
270.403	50.35
270.619	27.82
270.835	58.54
271.051	7.34
271.267	-47.96
271.483	-33.62
271.698	-27.48
271.914	31.91
272.13	-0.85
272.346	-39.76
272.562	11.43
272.777	29.87
272.993	5.29
273.209	-72.53
273.425	50.35
273.64	-39.76
273.856	50.35
274.072	-2.9
274.287	83.11
274.503	7.34
274.719	-60.24
274.934	-19.29
275.15	7.34
275.366	50.35
275.581	-54.1
275.797	-4.95
276.012	-0.85
276.228	46.25
276.444	-4.95
276.659	64.68
276.875	13.48
277.09	46.25
277.306	-19.29
277.521	91.31
277.737	-29.52
277.952	17.58
278.168	42.15
278.383	-4.95
278.599	74.92
278.814	17.58
279.03	38.06
279.245	-7
279.461	52.39
279.676	-70.48
279.892	-101.2
280.107	1.19
280.322	17.58
280.538	1.19
280.753	-0.85
280.969	79.02
281.184	13.48
281.399	27.82
281.615	-21.33
281.83	17.58
282.045	-19.29
282.26	-31.57
282.476	13.48
282.691	42.15
282.906	17.58
283.122	48.3
283.337	38.06
283.552	42.15
283.767	25.77
283.983	-11.09
284.198	17.58
284.413	36.01
284.628	-45.91
284.843	60.59
285.058	1.19
285.274	29.87
285.489	-39.76
285.704	-13.14
285.919	-64.34
286.134	-11.09
286.349	-39.76
286.564	36.01
286.779	83.11
286.995	50.35
287.21	-7
287.425	25.77
287.64	36.01
287.855	17.58
288.07	-56.15
288.285	85.16
288.5	21.67
288.715	-23.38
288.93	27.82
289.145	-39.76
289.36	17.58
289.575	17.58
289.79	-21.33
290.004	15.53
290.219	15.53
290.434	58.54
290.649	-37.72
290.864	50.35
291.079	42.15
291.294	64.68
291.509	48.3
291.724	-0.85
291.938	5.29
292.153	42.15
292.368	5.29
292.583	-7
292.798	-4.95
293.012	-29.52
293.227	76.97
293.442	3.24
293.657	33.96
293.871	-11.09
294.086	21.67
294.301	74.92
294.516	64.68
294.73	3.24
294.945	44.2
295.16	19.63
295.374	11.43
295.589	44.2
295.804	9.39
296.018	27.82
296.233	-47.96
296.447	19.63
296.662	25.77
296.877	70.83
297.091	-4.95
297.306	31.91
297.52	15.53
297.735	56.49
297.949	33.96
298.164	95.4
298.378	7.34
298.593	64.68
298.807	-7
299.022	42.15
299.236	42.15
299.451	-31.57
299.665	23.72
299.88	33.96
300.094	-58.2
300.309	103.59
300.523	44.2
300.737	-11.09
300.952	33.96
301.166	33.96
301.381	23.72
301.595	126.12
301.809	-7
302.024	-27.48
302.238	-23.38
302.452	142.5
302.667	-27.48
302.881	5.29
303.095	62.63
303.309	38.06
303.524	17.58
303.738	-29.52
303.952	-2.9
304.166	1.19
304.381	-56.15
304.595	74.92
304.809	11.43
305.023	-21.33
305.237	-13.14
305.452	27.82
305.666	-0.85
305.88	56.49
306.094	5.29
306.308	58.54
306.522	25.77
306.736	11.43
306.95	17.58
307.164	70.83
307.379	-7
307.593	70.83
307.807	36.01
308.021	-25.43
308.235	79.02
308.449	11.43
308.663	76.97
308.877	17.58
309.091	44.2
309.305	95.4
309.519	52.39
309.733	-70.48
309.947	-25.43
310.161	19.63
310.374	13.48
310.588	21.67
310.802	-4.95
311.016	-13.14
311.23	-4.95
311.444	-64.34
311.658	58.54
311.872	-15.19
312.085	-2.9
312.299	31.91
312.513	33.96
312.727	52.39
312.941	-54.1
313.154	48.3
313.368	52.39
313.582	44.2
313.796	33.96
314.009	23.72
314.223	27.82
314.437	87.21
314.651	3.24
314.864	13.48
315.078	-31.57
315.292	9.39
315.505	-56.15
315.719	-7
315.933	38.06
316.146	62.63
316.36	-15.19
316.573	-7
316.787	17.58
317.001	17.58
317.214	46.25
317.428	25.77
317.641	36.01
317.855	58.54
318.068	68.78
318.282	-4.95
318.495	9.39
318.709	-4.95
318.922	-27.48
319.136	15.53
319.349	99.5
319.563	52.39
319.776	-29.52
319.99	66.73
320.203	-45.91
320.417	-13.14
320.63	38.06
320.843	-7
321.057	-101.2
321.27	42.15
321.483	-23.38
321.697	23.72
321.91	11.43
322.124	25.77
322.337	11.43
322.55	36.01
322.763	60.59
322.977	58.54
323.19	-15.19
323.403	23.72
323.617	21.67
323.83	62.63
324.043	9.39
324.256	21.67
324.469	74.92
324.683	23.72
324.896	31.91
325.109	-21.33
325.322	72.87
325.535	62.63
325.748	42.15
325.962	33.96
326.175	29.87
326.388	29.87
326.601	23.72
326.814	1.19
327.027	5.29
327.24	95.4
327.453	3.24
327.666	29.87
327.879	52.39
328.092	44.2
328.305	25.77
328.518	13.48
328.731	-31.57
328.944	52.39
329.157	9.39
329.37	42.15
329.583	66.73
329.796	74.92
330.009	38.06
330.222	19.63
330.435	5.29
330.648	-23.38
330.861	-25.43
331.073	48.3
331.286	58.54
331.499	-11.09
331.712	33.96
331.925	50.35
332.138	9.39
332.35	27.82
332.563	44.2
332.776	105.64
332.989	1.19
333.202	33.96
333.414	-47.96
333.627	42.15
333.84	19.63
334.053	70.83
334.265	1.19
334.478	38.06
334.691	54.44
334.903	31.91
335.116	33.96
335.329	-21.33
335.541	-88.92
335.754	13.48
335.966	-15.19
336.179	27.82
336.392	42.15
336.604	-7
336.817	60.59
337.029	95.4
337.242	15.53
337.454	-2.9
337.667	-21.33
337.88	-39.76
338.092	105.64
338.305	91.31
338.517	-15.19
338.729	89.26
338.942	5.29
339.154	68.78
339.367	3.24
339.579	-13.14
339.792	23.72
340.004	54.44
340.217	29.87
340.429	5.29
340.641	52.39
340.854	50.35
341.066	38.06
341.278	62.63
341.491	76.97
341.703	-15.19
341.915	29.87
342.128	19.63
342.34	54.44
342.552	5.29
342.764	15.53
342.977	-31.57
343.189	54.44
343.401	38.06
343.613	40.11
343.826	36.01
344.038	-78.68
344.25	74.92
344.462	-0.85
344.674	1.19
344.886	105.64
345.099	101.55
345.311	15.53
345.523	-7
345.735	-37.72
345.947	38.06
346.159	44.2
346.371	42.15
346.583	50.35
346.795	132.26
347.007	-64.34
347.219	44.2
347.431	-0.85
347.643	44.2
347.855	62.63
348.067	19.63
348.279	76.97
348.491	89.26
348.703	13.48
348.915	-27.48
349.127	62.63
349.339	13.48
349.551	-99.16
349.763	15.53
349.975	42.15
350.187	1.19
350.399	52.39
350.61	50.35
350.822	-19.29
351.034	-0.85
351.246	27.82
351.458	17.58
351.669	17.58
351.881	11.43
352.093	29.87
352.305	115.88
352.517	31.91
352.728	99.5
352.94	76.97
353.152	33.96
353.363	-0.85
353.575	-15.19
353.787	85.16
353.999	87.21
354.21	-27.48
354.422	25.77
354.633	36.01
354.845	11.43
355.057	42.15
355.268	62.63
355.48	-23.38
355.692	-23.38
355.903	58.54
356.115	-15.19
356.326	83.11
356.538	-15.19
356.749	81.07
356.961	27.82
357.172	33.96
357.384	23.72
357.595	17.58
357.807	40.11
358.018	15.53
358.23	-2.9
358.441	36.01
358.653	11.43
358.864	3.24
359.075	93.35
359.287	68.78
359.498	62.63
359.709	44.2
359.921	-7
360.132	21.67
360.344	1.19
360.555	21.67
360.766	101.55
360.977	89.26
361.189	91.31
361.4	33.96
361.611	60.59
361.823	56.49
362.034	31.91
362.245	-47.96
362.456	-29.52
362.667	-27.48
362.879	1.19
363.09	42.15
363.301	42.15
363.512	44.2
363.723	70.83
363.935	81.07
364.146	21.67
364.357	76.97
364.568	70.83
364.779	9.39
364.99	9.39
365.201	-4.95
365.412	31.91
365.623	44.2
365.834	29.87
366.045	-7
366.256	-2.9
366.467	40.11
366.678	23.72
366.889	52.39
367.1	5.29
367.311	105.64
367.522	66.73
367.733	11.43
367.944	72.87
368.155	38.06
368.366	52.39
368.577	19.63
368.788	58.54
368.999	-62.29
369.209	-31.57
369.42	70.83
369.631	62.63
369.842	-54.1
370.053	29.87
370.264	-4.95
370.474	-47.96
370.685	58.54
370.896	52.39
371.107	23.72
371.317	60.59
371.528	23.72
371.739	33.96
371.95	52.39
372.16	74.92
372.371	1.19
372.582	23.72
372.792	15.53
373.003	44.2
373.214	17.58
373.424	19.63
373.635	33.96
373.846	122.02
374.056	15.53
374.267	36.01
374.477	-7
374.688	-2.9
374.898	44.2
375.109	89.26
375.319	-56.15
375.53	44.2
375.74	85.16
375.951	68.78
376.161	1.19
376.372	44.2
376.582	9.39
376.793	52.39
377.003	79.02
377.214	85.16
377.424	64.68
377.635	-15.19
377.845	-11.09
378.055	87.21
378.266	62.63
378.476	42.15
378.686	-11.09
378.897	19.63
379.107	91.31
379.317	87.21
379.528	58.54
379.738	74.92
379.948	-31.57
380.158	-7
380.369	15.53
380.579	-25.43
380.789	40.11
380.999	40.11
381.21	58.54
381.42	56.49
381.63	-13.14
381.84	31.91
382.05	68.78
382.261	25.77
382.471	97.45
382.681	52.39
382.891	50.35
383.101	33.96
383.311	25.77
383.521	25.77
383.731	23.72
383.941	-2.9
384.151	3.24
384.361	33.96
384.571	89.26
384.781	76.97
384.991	52.39
385.201	-19.29
385.411	60.59
385.621	83.11
385.831	70.83
386.041	17.58
386.251	60.59
386.461	13.48
386.671	93.35
386.881	126.12
387.091	36.01
387.301	93.35
387.511	25.77
387.72	60.59
387.93	7.34
388.14	17.58
388.35	29.87
388.56	42.15
388.769	9.39
388.979	56.49
389.189	60.59
389.399	79.02
389.609	-29.52
389.818	48.3
390.028	68.78
390.238	81.07
390.447	97.45
390.657	50.35
390.867	46.25
391.076	33.96
391.286	64.68
391.496	46.25
391.705	-15.19
391.915	66.73
392.125	7.34
392.334	81.07
392.544	68.78
392.753	27.82
392.963	31.91
393.172	62.63
393.382	66.73
393.591	21.67
393.801	66.73
394.01	56.49
394.22	74.92
394.429	27.82
394.639	93.35
394.848	122.02
395.058	50.35
395.267	111.78
395.477	81.07
395.686	146.6
395.895	97.45
396.105	99.5
396.314	140.46
396.524	38.06
396.733	95.4
396.942	85.16
397.152	42.15
397.361	107.69
397.57	54.44
397.78	25.77
397.989	115.88
398.198	134.31
398.407	11.43
398.617	52.39
398.826	46.25
399.035	87.21
399.244	72.87
399.453	46.25
399.663	107.69
399.872	136.36
400.081	50.35
400.29	113.83
400.499	105.64
400.708	87.21
400.917	140.46
401.127	144.55
401.336	117.93
401.545	144.55
401.754	19.63
401.963	156.84
402.172	99.5
402.381	87.21
402.59	119.98
402.799	134.31
403.008	111.78
403.217	72.87
403.426	148.65
403.635	128.17
403.844	160.94
404.053	138.41
404.262	158.89
404.471	115.88
404.68	83.11
404.888	76.97
405.097	138.41
405.306	132.26
405.515	148.65
405.724	101.55
405.933	238.76
406.142	122.02
406.35	115.88
406.559	144.55
406.768	162.98
406.977	212.14
407.185	226.47
407.394	193.7
407.603	175.27
407.812	216.23
408.02	126.12
408.229	224.42
408.438	189.61
408.646	251.05
408.855	150.7
409.064	119.98
409.272	279.72
409.481	246.95
409.69	279.72
409.898	238.76
410.107	285.86
410.315	269.48
410.524	251.05
410.733	255.14
410.941	398.5
411.15	470.18
411.358	400.55
411.567	339.11
411.775	461.99
411.984	408.74
412.192	359.59
412.401	386.21
412.609	431.27
412.818	435.36
413.026	474.28
413.234	517.28
413.443	541.86
413.651	529.57
413.86	517.28
414.068	552.1
414.276	580.77
414.485	550.05
414.693	687.26
414.901	679.07
415.11	603.3
415.318	660.64
415.526	679.07
415.734	746.66
415.943	722.08
416.151	756.9
416.359	713.89
416.567	773.28
416.776	912.54
416.984	912.54
417.192	922.78
417.4	941.21
417.608	881.82
417.817	1014.94
418.025	1012.89
418.233	1082.52
418.441	1080.47
418.649	1152.15
418.857	1260.7
419.065	1215.64
419.273	1164.44
419.481	1262.74
419.689	1361.05
419.897	1438.87
420.105	1490.07
420.313	1375.38
420.521	1598.61
420.729	1569.94
420.937	1658
421.145	1705.1
421.353	1729.68
421.561	1930.38
421.769	1946.76
421.977	1940.62
422.185	1909.9
422.393	2094.22
422.601	2137.23
422.809	2210.95
423.017	2184.33
423.224	2278.54
423.432	2331.78
423.64	2354.31
423.848	2614.4
424.056	2475.14
424.263	2745.47
424.471	2765.95
424.679	2753.66
424.887	2927.74
425.094	2952.32
425.302	2937.98
425.51	3277.94
425.718	3318.9
425.925	3261.56
426.133	3337.34
426.341	3540.08
426.548	3753.07
426.756	3740.79
426.964	3728.5
427.171	3988.59
427.379	4191.34
427.586	4179.05
427.794	4148.33
428.001	4531.3
428.209	4602.98
428.417	4654.18
428.624	4830.3
428.832	4983.9
429.039	4912.22
429.247	4881.5
429.454	5465.18
429.662	5958.74
429.869	5301.34
430.076	5762.13
430.284	5590.1
430.491	5825.62
430.699	6198.35
430.906	6208.59
431.114	6247.5
431.321	6509.64
431.528	6550.6
431.736	6966.34
431.943	7226.43
432.15	7124.03
432.358	7236.67
432.565	7564.34
432.772	7654.45
432.979	8045.62
433.187	8016.94
433.394	8066.1
433.601	8610.86
433.808	8741.93
434.016	8703.01
434.223	8963.11
434.43	9647.13
434.637	9475.1
434.844	10064.91
435.052	9968.66
435.259	10114.06
435.466	10155.02
435.673	10220.56
435.88	10787.85
436.087	11209.73
436.294	11344.89
436.501	11035.65
436.708	11430.91
436.915	11760.63
437.122	12278.77
437.329	12256.24
437.537	12518.38
437.743	12831.72
437.95	12762.09
438.157	13288.42
438.364	13585.37
438.571	13689.82
438.778	13788.12
438.985	14883.78
439.192	14445.52
439.399	14726.09
439.606	14736.33
439.813	15401.92
440.02	16626.6
440.227	15776.7
440.433	15940.54
440.64	16532.4
440.847	16415.66
441.054	16599.98
441.261	17669.02
441.467	17494.94
441.674	17824.67
441.881	18807.69
442.088	18170.77
442.294	18615.18
442.501	19035.02
442.708	19501.95
442.914	20196.21
443.121	20835.18
443.328	20259.7
443.534	21996.38
443.741	21164.9
443.948	20808.56
444.154	22436.69
444.361	21973.85
444.568	22365.01
444.774	22166.36
444.981	22614.87
445.187	23305.03
445.394	24099.64
445.6	24103.74
445.807	26444.57
446.013	25146.15
446.22	25621.28
446.426	26546.97
446.633	26733.33
446.839	27861.76
447.046	26647.32
447.252	28254.97
447.459	28107.52
447.665	27935.49
447.871	28979.95
448.078	30272.22
448.284	29025.01
448.491	29919.97
448.697	30786.26
448.903	31488.71
449.11	31333.07
449.316	31253.2
449.522	31767.24
449.728	32312
449.935	32596.67
450.141	32715.45
450.347	32965.3
450.553	32510.65
450.76	32848.57
450.966	33694.38
451.172	33100.47
451.378	34249.38
451.584	33569.45
451.791	34167.46
451.997	34083.49
452.203	34826.9
452.409	34620.06
452.615	34427.55
452.821	33454.76
453.027	33004.21
453.233	34878.1
453.44	33350.32
453.646	33837.73
453.852	33655.47
454.058	34386.59
454.264	33043.12
454.47	33946.28
454.676	33260.21
454.882	33952.42
455.088	31105.74
455.294	31775.43
455.5	32180.93
455.705	32541.37
455.911	31097.55
456.117	30548.7
456.323	29983.46
456.529	28867.31
456.735	29838.05
456.941	29213.42
457.147	28812.02
457.352	27507.46
457.558	27663.11
457.764	27570.95
457.97	27101.97
458.176	26399.51
458.381	26168.09
458.587	25217.83
458.793	25250.6
458.999	23784.26
459.204	25570.08
459.41	24955.69
459.616	23319.37
459.821	23165.77
460.027	23282.5
460.233	22645.59
460.438	21527.39
460.644	21611.36
460.85	21031.79
461.055	20593.52
461.261	20290.42
461.466	18932.62
461.672	18350.99
461.878	19665.79
462.083	18262.93
462.289	17974.17
462.494	18004.89
462.7	17187.75
462.905	16790.44
463.111	17249.19
463.316	17388.45
463.522	17146.79
463.727	17089.45
463.932	17017.77
464.138	16860.07
464.343	16954.28
464.549	16518.06
464.754	17068.97
464.959	16845.74
465.165	16759.72
465.37	16149.43
465.575	15633.34
465.781	16114.61
465.986	16544.69
466.191	15840.18
466.397	15547.33
466.602	14701.51
466.807	15061.96
467.012	15334.34
467.218	15270.85
467.423	15029.19
467.628	14883.78
467.833	15444.93
468.038	15188.93
468.244	14701.51
468.449	15266.75
468.654	14920.65
468.859	14644.17
469.064	14717.9
469.269	14066.64
469.474	14240.72
469.679	14316.5
469.885	14068.69
470.09	14255.06
470.295	14203.86
470.5	13736.92
470.705	13659.1
470.91	13589.47
471.115	13476.83
471.32	13759.45
471.525	13298.66
471.73	13239.26
471.935	13312.99
472.139	12469.23
472.344	13067.24
472.549	12796.9
472.754	12723.18
472.959	12299.25
473.164	12028.92
473.369	11828.21
473.574	12454.89
473.778	12372.97
473.983	12329.97
474.188	12078.07
474.393	11701.24
474.598	11609.08
474.802	11355.13
475.007	11564.03
475.212	11326.46
475.417	10968.07
475.621	11144.19
475.826	10900.48
476.031	10949.64
476.235	10462.22
476.44	10945.54
476.645	10632.2
476.849	10640.39
477.054	10583.05
477.259	10253.33
477.463	10392.59
477.668	10179.6
477.872	10118.16
478.077	10112.02
478.282	9817.11
478.486	9882.64
478.691	9606.17
478.895	9716.76
479.1	9511.96
479.304	9636.89
479.509	9403.42
479.713	9423.9
479.918	9378.84
480.122	9180.19
480.326	9301.02
480.531	9307.16
480.735	9149.47
480.94	9255.97
481.144	9427.99
481.348	9108.51
481.553	9116.7
481.757	8913.95
481.961	9036.83
482.166	9131.04
482.37	8823.84
482.574	8858.66
482.778	8918.05
482.983	9118.75
483.187	8922.15
483.391	9161.76
483.595	8891.43
483.8	9002.02
484.004	8799.27
484.208	9126.94
484.412	9112.61
484.616	9002.02
484.821	9149.47
485.025	8911.91
485.229	9008.16
485.433	8883.24
485.637	8965.15
485.841	8795.17
486.045	8848.42
486.249	9018.4
486.453	8813.6
486.657	8905.76
486.861	8993.83
487.065	8737.83
487.269	8827.94
487.473	8801.32
487.677	9024.54
487.881	8946.72
488.085	8868.9
488.289	8924.19
488.493	8868.9
488.697	8926.24
488.901	8979.49
489.105	9057.31
489.309	9073.7
489.512	8877.09
489.716	9059.36
489.92	9049.12
490.124	9161.76
490.328	9325.6
490.531	9145.38
490.735	9020.45
490.939	9333.79
491.143	9235.49
491.346	9227.29
491.55	9370.65
491.754	9362.46
491.958	9464.86
492.161	9452.57
492.365	9530.39
492.569	9438.23
492.772	9667.61
492.976	9503.77
493.18	9528.35
493.383	9690.13
493.587	9720.85
493.79	9800.73
493.994	9739.29
494.197	9993.23
494.401	10005.52
494.605	10021.91
494.808	10167.31
495.012	10408.97
495.215	10365.96
495.419	10363.92
495.622	10380.3
495.825	10630.15
496.029	10595.34
496.232	10837
496.436	10855.43
496.639	10920.96
496.843	11133.95
497.046	11348.99
497.249	11269.12
497.453	11316.22
497.656	11584.51
497.859	11686.9
498.063	11658.23
498.266	11791.35
498.469	11920.37
498.673	11795.45
498.876	12143.6
499.079	12499.95
499.282	12370.93
499.485	12538.86
499.689	12903.4
499.892	12870.63
500.095	12839.91
500.298	13120.48
500.501	13013.99
500.705	13536.22
500.908	13609.95
501.111	13937.62
501.314	14015.44
501.517	14109.65
501.72	14420.94
501.923	14148.56
502.126	14574.54
502.329	14765
502.532	14973.89
502.735	15076.29
502.938	15223.75
503.141	15408.06
503.344	15715.26
503.547	15696.83
503.75	15967.16
503.953	16159.67
504.156	16448.43
504.359	16399.28
504.562	16636.84
504.765	17081.25
504.968	17292.19
505.17	17265.57
505.373	17284
505.576	17875.87
505.779	18131.86
505.982	18174.87
506.185	18475.92
506.387	18359.19
506.59	18678.67
506.793	19024.78
506.996	19071.88
507.198	19657.6
507.401	19704.7
507.604	19630.98
507.807	20323.19
508.009	20482.93
508.212	20517.75
508.415	21021.55
508.617	21273.45
508.82	21236.58
509.022	21515.11
509.225	21834.59
509.428	22027.1
509.63	22111.07
509.833	22332.25
510.035	22922.06
510.238	22674.26
510.44	23124.81
510.643	23638.85
510.845	23761.73
511.048	23812.93
511.25	24142.65
511.453	24247.1
511.655	25305.9
511.858	25013.04
512.06	25473.83
512.262	25604.9
512.465	25703.2
512.667	26288.92
512.87	26661.65
513.072	26708.76
513.274	27028.24
513.477	27675.4
513.679	27575.05
513.881	27927.3
514.084	28467.96
514.286	28306.17
514.488	28214.01
514.69	29225.71
514.893	29330.16
515.095	29885.15
515.297	29848.29
515.499	29975.27
515.701	30642.9
515.904	31154.9
516.106	31208.14
516.308	31568.58
516.51	32150.21
516.712	32080.58
516.914	32658.1
517.116	33184.43
517.318	32946.87
517.52	33315.5
517.722	33346.22
517.925	34282.14
518.127	34685.59
518.329	34300.58
518.531	34728.6
518.733	35322.51
518.935	35691.15
519.136	35857.03
519.338	36129.41
519.54	36442.75
519.742	36872.82
519.944	37229.17
520.146	37536.37
520.348	38263.39
520.55	37966.44
520.752	38341.22
520.954	38795.87
521.155	38777.43
521.357	39688.78
521.559	39469.65
521.761	40546.88
521.963	40174.15
522.164	40587.84
522.366	40563.26
522.568	40968.76
522.77	41069.11
522.971	41916.97
523.173	41865.77
523.375	42203.69
523.576	42215.97
523.778	42330.66
523.98	42865.18
524.181	43168.28
524.383	43571.73
524.584	43999.76
524.786	43571.73
524.988	43960.84
525.189	44227.08
525.391	44575.23
525.592	44907.01
525.794	44825.09
525.995	45277.69
526.197	45437.43
526.398	45545.97
526.6	45654.51
526.801	46043.63
527.003	46170.6
527.204	46113.26
527.406	46600.68
527.607	46529
527.808	46877.15
528.01	46350.82
528.211	46883.3
528.412	47636.95
528.614	47395.29
528.815	47401.43
529.016	47610.32
529.218	47253.98
529.419	47575.51
529.62	47481.3
529.822	47677.91
530.023	47811.03
530.224	48019.92
530.425	48310.73
530.626	47860.18
530.828	47813.07
531.029	49142.2
531.23	48239.05
531.431	48288.2
531.632	48353.74
531.833	48777.67
532.035	48458.18
532.236	48734.66
532.437	49113.53
532.638	48910.78
532.839	49195.45
533.04	49349.05
533.241	48378.31
533.442	50002.35
533.643	49246.65
533.844	49160.64
534.045	49478.07
534.246	49103.29
534.447	49289.66
534.648	49295.8
534.849	49473.98
535.05	48857.54
535.251	49465.78
535.451	49058.24
535.652	49396.15
535.853	49385.91
536.054	49562.04
536.255	50069.93
536.456	48966.08
536.657	49975.73
536.857	49619.38
537.058	49607.09
537.259	49887.67
537.46	50016.69
537.66	49138.11
537.861	49869.23
538.062	49576.37
538.263	49643.96
538.463	49541.56
538.664	49312.19
538.865	49758.64
539.065	49789.36
539.266	49213.88
539.466	49754.55
539.667	49297.85
539.868	49856.95
540.068	49738.16
540.269	49390.01
540.469	49863.09
540.67	49365.43
540.87	49533.37
541.071	49527.22
541.271	49740.21
541.472	50039.22
541.672	49322.43
541.873	49328.57
542.073	48964.03
542.274	50074.03
542.474	49213.88
542.675	49158.59
542.875	49805.75
543.075	49340.86
543.276	49234.36
543.476	49881.52
543.676	49541.56
543.877	49680.82
544.077	49125.82
544.277	49805.75
544.478	49555.89
544.678	49676.72
544.878	49842.61
545.078	49463.74
545.279	49158.59
545.479	49201.6
545.679	49988.02
545.879	49533.37
546.079	49715.64
546.28	49574.33
546.48	48990.66
546.68	49795.51
546.88	49402.3
547.08	49471.93
547.28	49443.26
547.48	48986.56
547.68	49713.59
547.88	48992.7
548.081	49469.88
548.281	49125.82
548.481	49322.43
548.681	49650.1
548.881	49385.91
549.081	49306.04
549.28	49283.51
549.48	49379.77
549.68	49037.76
549.88	49830.32
550.08	49017.28
550.28	49338.81
550.48	49285.56
550.68	49752.5
550.88	49160.64
551.08	49209.79
551.279	49365.43
551.479	48892.35
551.679	49115.58
551.879	49052.09
552.079	49428.92
552.278	48826.82
552.478	49050.05
552.678	49668.53
552.878	49535.41
553.077	49070.53
553.277	49117.63
553.477	49592.76
553.676	48921.02
553.876	49303.99
554.076	48525.77
554.275	48818.63
554.475	48548.29
554.674	48859.59
554.874	48687.56
555.074	49269.18
555.273	49072.57
555.473	49134.01
555.672	48548.29
555.872	48660.93
556.071	48345.54
556.271	48832.96
556.47	48744.9
556.67	47827.41
556.869	48349.64
557.068	48591.3
557.268	48089.55
557.467	48667.08
557.667	48312.78
557.866	48361.93
558.065	48153.04
558.265	47739.35
558.464	47565.27
558.663	48382.41
558.863	48003.53
559.062	48167.37
559.261	47854.03
559.461	48056.78
559.66	47294.94
559.859	47876.56
560.058	47323.61
560.258	47665.62
560.457	47686.1
560.656	47595.99
560.855	47337.94
561.054	47575.51
561.253	46965.21
561.453	47204.83
561.652	47772.11
561.851	47186.39
562.05	47348.18
562.249	47296.98
562.448	47636.95
562.647	47149.53
562.846	47129.05
563.045	46948.83
563.244	46668.26
563.443	47278.55
563.642	46778.85
563.841	46555.62
564.04	46451.17
564.239	47067.61
564.438	46365.16
564.637	46428.65
564.836	46660.07
565.035	46137.83
565.234	46430.69
565.432	45943.28
565.631	46203.37
565.83	46551.52
566.029	45982.19
566.228	46117.35
566.427	45988.33
566.625	45769.2
566.824	45046.27
567.023	45908.46
567.222	45064.7
567.42	45890.03
567.619	45355.51
567.818	45593.07
568.016	45292.02
568.215	45685.23
568.414	45150.71
568.612	45367.8
568.811	45318.65
569.01	44896.77
569.208	44128.78
569.407	45126.14
569.605	44356.1
569.804	44995.07
570.002	44233.22
570.201	44450.31
570.4	44206.6
570.598	43545.11
570.797	43725.33
570.995	44339.72
571.193	43536.91
571.392	43827.73
571.59	43655.7
571.789	43721.23
571.987	43678.22
572.186	43358.74
572.384	42922.52
572.582	43532.82
572.781	43463.19
572.979	42709.53
573.177	43336.21
573.376	43266.58
573.574	42576.42
573.772	42945.05
573.971	42453.54
574.169	42564.13
574.367	42457.63
574.565	42566.18
574.763	42031.66
574.962	41812.52
575.16	41607.73
575.358	41732.65
575.556	41435.7
575.754	41724.46
575.952	41019.96
576.151	41724.46
576.349	41015.86
576.547	41185.85
576.745	41204.28
576.943	41280.05
577.141	40712.77
577.339	41144.89
577.537	40718.91
577.735	41040.44
577.933	40673.85
578.131	40608.32
578.329	40458.82
578.527	40342.08
578.725	40112.71
578.923	40157.77
579.121	39666.25
579.319	39526.99
579.516	40084.04
579.714	40014.41
579.912	39408.21
580.11	39621.2
580.308	39260.76
580.506	39330.39
580.704	38879.83
580.901	39002.71
581.099	39332.43
581.297	38677.08
581.495	38216.29
581.692	38496.86
581.89	38218.34
582.088	38611.55
582.285	38283.87
582.483	38144.61
582.681	38126.18
582.878	38226.53
583.076	37986.92
583.274	38273.63
583.471	37794.41
583.669	37821.03
583.866	37331.57
584.064	37698.16
584.262	36987.51
584.459	37823.08
584.657	37272.18
584.854	37556.85
585.052	36704.89
585.249	37286.51
585.447	37266.03
585.644	36442.75
585.841	36719.23
586.039	36956.79
586.236	36559.48
586.434	36362.88
586.631	36119.17
586.828	36123.27
587.026	36289.15
587.223	35820.17
587.42	35807.88
587.618	35547.79
587.815	35324.56
588.012	35373.71
588.21	35402.38
588.407	35807.88
588.604	35525.26
588.801	34996.88
588.999	35056.28
589.196	35009.17
589.393	35201.68
589.59	35087
589.787	34833.05
589.984	34648.73
590.182	34308.77
590.379	34343.58
590.576	34534.04
590.773	34343.58
590.97	34136.74
591.167	33981.09
591.364	34073.25
591.561	34050.72
591.758	33503.92
591.955	33692.33
592.152	33585.83
592.349	33362.61
592.546	33516.2
592.743	33645.23
592.94	33026.74
593.137	33071.79
593.334	33282.73
593.531	32674.49
593.727	33147.57
593.924	32803.51
594.121	32742.07
594.318	33036.98
594.515	32527.03
594.712	32850.61
594.908	32217.79
595.105	32391.87
595.302	32119.49
595.499	32019.14
595.696	31707.85
595.892	31603.4
596.089	32111.3
596.286	31992.51
596.482	31869.64
596.679	31806.15
596.876	31531.72
597.072	31517.39
597.269	31273.68
597.466	31152.85
597.662	31267.53
597.859	31298.25
598.055	31134.42
598.252	30595.8
598.448	31081.17
598.645	30835.41
598.841	30335.71
599.038	30532.31
599.234	30438.11
599.431	30235.36
599.627	30042.85
599.824	30685.91
600.02	29983.46
600.217	29825.76
600.413	29713.13
600.609	29706.98
600.806	29592.3
601.002	29809.38
601.198	29440.75
601.395	29258.48
601.591	29328.11
601.787	29248.24
601.984	29283.05
602.18	29278.96
602.376	29190.89
602.572	28914.42
602.769	28678.9
602.965	28736.24
603.161	28877.55
603.357	28582.65
603.553	28572.41
603.75	28326.65
603.946	28181.24
604.142	28216.06
604.338	27849.47
604.534	28205.82
604.73	28005.12
604.926	27665.16
605.122	27618.05
605.318	27609.86
605.514	27482.89
605.71	27308.81
605.906	27394.82
606.102	27290.38
606.298	27241.23
606.494	27235.08
606.69	26747.67
606.886	27224.84
607.082	26694.42
607.278	26977.04
607.474	26417.94
607.67	27081.49
607.866	26364.7
608.062	26399.51
608.257	26407.7
608.453	26530.58
608.649	26419.99
608.845	26207
609.041	26135.32
609.236	26241.82
609.432	26172.19
609.628	26422.04
609.824	25867.04
610.019	25574.18
610.215	25914.14
610.411	25842.46
610.606	25508.65
610.802	25701.15
610.998	25420.58
611.193	25338.66
611.389	25398.06
611.584	25223.98
611.78	24945.45
611.976	25451.3
612.171	25467.69
612.367	25275.18
612.562	24865.58
612.758	24599.35
612.953	24535.86
613.149	25111.34
613.344	24533.81
613.539	25228.07
613.735	24724.27
613.93	24646.45
614.126	24105.79
614.321	24499
614.517	24535.86
614.712	24214.33
614.907	24146.75
615.103	24214.33
615.298	24249.14
615.493	24415.03
615.688	23882.56
615.884	24220.47
616.079	23712.58
616.274	23860.03
616.47	23651.14
616.665	23710.53
616.86	23284.55
617.055	23814.98
617.25	23593.79
617.445	23491.4
617.641	23249.74
617.836	23268.17
618.031	23057.23
618.226	23544.64
618.421	23173.96
618.616	23274.31
618.811	22913.87
619.006	23141.19
619.201	22704.98
619.396	22836.05
619.591	22573.91
619.786	22801.23
619.981	22324.05
620.176	22270.81
620.371	21957.47
620.566	22223.7
620.761	22330.2
620.956	21943.13
621.151	21926.75
621.346	21865.31
621.541	21465.96
621.735	21498.72
621.93	21347.17
622.125	21259.11
622.32	21107.56
622.515	21121.9
622.709	20943.72
622.904	20996.97
623.099	20904.81
623.294	20687.73
623.488	20454.26
623.683	20673.39
623.878	19966.84
624.072	20112.25
624.267	20200.31
624.462	19870.59
624.656	19852.16
624.851	19872.64
625.046	19645.31
625.24	19803
625.435	19526.53
625.629	19471.23
625.824	19407.75
626.018	19252.1
626.213	19125.13
626.407	19022.73
626.602	18742.16
626.796	18992.01
626.991	18719.63
627.185	18748.3
627.38	18574.22
627.574	18699.15
627.768	18244.5
627.963	17943.45
628.157	17974.17
628.352	17992.6
628.546	18027.42
628.74	18060.18
628.935	17744.8
629.129	17675.16
629.323	17449.89
629.517	17564.57
629.712	17406.88
629.906	17425.31
630.1	16989.1
630.294	17210.28
630.489	17163.17
630.683	17146.79
630.877	16737.2
631.071	16565.17
631.265	17058.73
631.459	16448.43
631.653	16411.57
631.848	16257.97
632.042	15987.64
632.236	16223.16
632.43	16174
632.624	16491.44
632.818	15717.31
633.012	15823.8
633.206	15791.03
633.4	15756.22
633.594	15811.51
633.788	15629.24
633.982	15709.11
634.176	15770.55
634.369	15444.93
634.563	15322.05
634.757	15287.23
634.951	15104.96
635.145	15021
635.339	15197.12
635.533	15039.43
635.726	15047.62
635.92	14705.61
636.114	14908.36
636.308	14674.89
636.501	14609.36
636.695	14601.16
636.889	14627.79
637.083	14154.71
637.276	14336.98
637.47	14308.3
637.664	14236.63
637.857	14201.81
638.051	14076.88
638.244	14148.56
638.438	13884.37
638.632	13808.6
638.825	13474.78
639.019	13546.46
639.212	13636.57
639.406	13349.85
639.599	13505.5
639.793	13388.77
639.986	13458.4
640.18	13190.11
640.373	13204.45
640.567	13018.08
640.76	13081.57
640.954	12985.32
641.147	12739.56
641.34	12948.45
641.534	12686.31
641.727	12870.63
641.92	12635.11
642.114	12641.26
642.307	12489.71
642.5	12512.24
642.694	12205.04
642.887	12264.43
643.08	12377.07
643.273	12354.54
643.467	12207.09
643.66	12004.34
643.853	11813.88
644.046	11779.06
644.239	11940.85
644.432	11770.87
644.626	11566.07
644.819	11629.56
645.012	11521.02
645.205	11533.31
645.398	11541.5
645.591	11041.79
645.784	11101.19
645.977	10851.33
646.17	11043.84
646.363	11254.78
646.556	10814.47
646.749	10712.07
646.942	10849.29
647.135	10761.22
647.328	10865.67
647.521	10603.53
647.714	10460.17
647.907	10568.71
648.099	10517.51
648.292	10445.84
648.485	10320.91
648.678	10099.73
648.871	10357.77
649.064	10251.28
649.256	10169.36
649.449	10097.68
649.642	9921.56
649.835	9821.2
650.027	9804.82
650.22	9683.99
650.413	9675.8
650.605	9804.82
650.798	9665.56
650.991	9479.19
651.183	9645.08
651.376	9466.91
651.568	9473.05
651.761	9505.82
651.954	9397.28
652.146	9432.09
652.339	9288.73
652.531	9298.97
652.724	9026.59
652.916	8909.86
653.109	8846.37
653.301	8920.1
653.494	8836.13
653.686	8629.29
653.879	8766.5
654.071	8762.4
654.263	8549.42
654.456	8547.37
654.648	8555.56
654.84	8350.76
655.033	8561.7
655.225	8399.91
655.417	8338.48
655.61	8201.26
655.802	8344.62
655.994	8201.26
656.186	8111.15
656.379	8176.69
656.571	8152.11
656.763	7826.48
656.955	7935.03
657.148	7865.39
657.34	7808.05
657.532	7834.68
657.724	7658.55
657.916	7719.99
658.108	7726.13
658.3	7474.23
658.492	7652.41
658.684	7570.49
658.876	7412.79
659.068	7451.7
659.26	7234.62
659.452	7384.12
659.644	7193.66
659.836	7148.61
660.028	7228.48
660.22	7087.17
660.412	7093.31
660.604	6997.06
660.796	7099.45
660.988	7056.45
661.18	6847.55
661.372	6865.99
661.563	6921.28
661.755	6714.44
661.947	6710.34
662.139	6667.33
662.331	6509.64
662.522	6409.29
662.714	6515.78
662.906	6298.7
663.097	6489.16
663.289	6353.99
663.481	6427.72
663.673	6263.88
663.864	6188.11
664.056	6339.66
664.247	6177.87
664.439	6169.68
664.631	6218.83
664.822	6155.34
665.014	6143.05
665.205	5964.88
665.397	6026.32
665.588	5973.07
665.78	5917.78
665.971	5854.29
666.163	5850.19
666.354	5901.39
666.546	5581.91
666.737	5637.2
666.929	5721.17
667.12	5618.77
667.311	5655.64
667.503	5493.85
667.694	5659.73
667.885	5456.98
668.077	5530.71
668.268	5465.18
668.459	5594.2
668.651	5426.26
668.842	5289.05
669.033	5497.94
669.224	5317.72
669.416	5311.58
669.607	5264.47
669.798	5246.04
669.989	5200.99
670.18	5149.79
670.371	5172.32
670.563	5106.78
670.754	5231.71
670.945	4961.37
671.136	5080.16
671.327	5055.58
671.518	4936.8
671.709	5022.81
671.9	4957.28
672.091	4940.9
672.282	4957.28
672.473	4899.94
672.664	4918.37
672.855	4861.02
673.046	4818.02
673.237	4666.47
673.428	4826.21
673.619	4686.95
673.809	4680.8
674	4703.33
674.191	4693.09
674.382	4709.47
674.573	4650.08
674.764	4533.35
674.954	4525.16
675.145	4598.88
675.336	4422.76
675.527	4539.49
675.717	4396.14
675.908	4555.88
676.099	4449.38
676.289	4461.67
676.48	4451.43
676.671	4490.34
676.861	4420.71
677.052	4385.9
677.243	4420.71
677.433	4293.74
677.624	4308.07
677.814	4279.4
678.005	4310.12
678.195	4240.49
678.386	4248.68
678.576	4158.57
678.767	4312.17
678.957	4154.48
679.148	4217.96
679.338	4197.48
679.529	4056.17
679.719	4248.68
679.909	4299.88
680.1	4119.66
680.29	4129.9
680.481	3998.83
680.671	4041.84
680.861	4029.55
681.052	4074.6
681.242	4000.88
681.432	4090.99
681.622	4062.32
681.813	4115.56
682.003	3976.3
682.193	3892.34
682.383	3935.34
682.573	4035.69
682.764	3937.39
682.954	4064.36
683.144	3941.49
683.334	3798.13
683.524	3927.15
683.714	3761.27
683.904	3695.73
684.094	3849.33
684.284	3777.65
684.474	3882.1
684.664	3755.12
684.854	3871.86
685.044	3859.57
685.234	3781.74
685.424	3816.56
685.614	3699.83
685.804	3871.86
685.994	3798.13
686.184	3761.27
686.374	3828.85
686.564	3777.65
686.753	3722.35
686.943	3654.77
687.133	3712.11
687.323	3728.5
687.513	3826.8
687.702	3695.73
687.892	3634.29
688.082	3601.52
688.272	3636.34
688.461	3583.09
688.651	3746.93
688.841	3679.35
689.03	3574.9
689.22	3544.18
689.41	3548.28
689.599	3638.39
689.789	3652.72
689.979	3619.96
690.168	3591.28
690.358	3576.95
690.547	3564.66
690.737	3497.08
690.926	3497.08
691.116	3474.55
691.305	3468.41
691.495	3585.14
691.684	3548.28
691.874	3468.41
692.063	3607.67
692.252	3542.13
692.442	3468.41
692.631	3595.38
692.82	3591.28
693.01	3374.2
693.199	3511.41
693.388	3421.3
693.578	3417.21
693.767	3445.88
693.956	3540.08
694.146	3325.05
694.335	3220.6
694.524	3386.49
694.713	3400.82
694.902	3425.4
695.092	3501.17
695.281	3279.99
695.47	3300.47
695.659	3318.9
695.848	3206.27
696.037	3425.4
696.226	3409.01
696.415	3300.47
696.604	3345.53
696.793	3368.06
696.982	3409.01
697.171	3435.64
697.36	3449.97
697.549	3368.06
697.738	3325.05
697.927	3357.82
698.116	3374.2
698.305	3316.86
698.494	3261.56
698.683	3339.38
698.872	3341.43
699.061	3220.6
699.25	3329.14
699.438	3187.83
699.627	3204.22
699.816	3241.08
700.005	3259.51
700.193	3247.23
700.382	3243.13
700.571	3124.35
700.76	3153.02
700.948	3265.66
701.137	3185.79
701.326	3155.07
701.514	3021.95
701.703	3212.41
701.892	3091.58
702.08	3202.17
702.269	3155.07
702.457	3122.3
702.646	3179.64
702.834	3105.92
703.023	3083.39
703.212	3112.06
703.4	3185.79
703.589	3146.87
703.777	3038.33
703.965	3093.63
704.154	3067
704.342	2974.85
704.531	3148.92
704.719	2987.13
704.907	2946.17
705.096	2960.51
705.284	3034.24
705.472	3163.26
705.661	3015.8
705.849	3017.85
706.037	2780.29
706.226	2880.64
706.414	2907.26
706.602	2901.12
706.79	2770.05
706.979	2815.1
707.167	2899.07
707.355	2804.86
707.543	2835.58
707.731	2761.86
707.919	2868.35
708.107	2765.95
708.296	2874.49
708.484	2714.75
708.672	2796.67
708.86	2778.24
709.048	2704.51
709.236	2692.23
709.424	2745.47
709.612	2763.9
709.8	2757.76
709.988	2632.83
710.176	2819.2
710.364	2610.31
710.551	2593.92
710.739	2729.09
710.927	2618.5
711.115	2694.27
711.303	2540.68
711.491	2514.05
711.679	2616.45
711.866	2485.38
712.054	2598.02
712.242	2512
712.43	2501.76
712.617	2598.02
712.805	2524.29
712.993	2469
713.181	2489.48
713.368	2425.99
713.556	2512
713.744	2358.41
713.931	2438.28
714.119	2415.75
714.306	2344.07
714.494	2460.81
714.682	2475.14
714.869	2249.86
715.057	2374.79
715.244	2247.82
715.432	2362.5
715.619	2366.6
715.807	2307.21
715.994	2256.01
716.182	2270.34
716.369	2321.54
716.556	2256.01
716.744	2344.07
716.931	2213
717.119	2176.14
717.306	2296.97
717.493	2200.71
717.681	2245.77
717.868	2223.24
718.055	2124.94
718.242	2223.24
718.43	2081.93
718.617	2192.52
718.804	2122.89
718.991	2153.61
719.179	2229.38
719.366	2120.84
719.553	2098.31
719.74	2129.03
719.927	2098.31
720.114	2018.44
720.301	2114.7
720.488	2067.6
720.676	2116.75
720.863	2073.74
721.05	2094.22
721.237	2073.74
721.424	2028.68
721.611	2057.36
721.798	1932.43
721.985	1862.8
722.172	1975.44
722.358	2020.49
722.545	1985.68
722.732	1889.42
722.919	1940.62
723.106	1832.08
723.293	1842.32
723.48	1936.53
723.667	1772.69
723.853	1930.38
724.04	1760.4
724.227	1811.6
724.414	1840.27
724.6	1830.03
724.787	1778.83
724.974	1817.74
725.161	1852.56
725.347	1762.45
725.534	1819.79
725.72	1825.93
725.907	1815.69
726.094	1780.88
726.28	1731.73
726.467	1807.5
726.653	1690.77
726.84	1641.62
727.027	1655.95
727.213	1668.24
727.4	1715.34
727.586	1703.06
727.773	1631.38
727.959	1651.86
728.145	1645.71
728.332	1651.86
728.518	1614.99
728.705	1621.14
728.891	1588.37
729.077	1660.05
729.264	1606.8
729.45	1602.71
729.636	1635.47
729.823	1621.14
730.009	1600.66
730.195	1598.61
730.382	1619.09
730.568	1574.03
730.754	1598.61
730.94	1547.41
731.126	1508.5
731.313	1428.63
731.499	1606.8
731.685	1641.62
731.871	1463.44
732.057	1535.12
732.243	1492.12
732.429	1467.54
732.615	1571.99
732.801	1467.54
732.987	1483.92
733.173	1510.55
733.359	1500.31
733.545	1508.5
733.731	1537.17
733.917	1440.92
734.103	1563.79
734.289	1434.77
734.475	1463.44
734.661	1434.77
734.847	1475.73
735.033	1461.4
735.219	1467.54
735.404	1483.92
735.59	1453.2
735.776	1373.33
735.962	1307.8
736.148	1399.96
736.333	1412.25
736.519	1453.2
736.705	1217.69
736.89	1391.77
737.076	1363.09
737.262	1281.18
737.447	1285.27
737.633	1258.65
737.819	1307.8
738.004	1332.37
738.19	1240.22
738.375	1336.47
738.561	1334.42
738.747	1383.57
738.932	1250.46
739.118	1281.18
739.303	1201.3
739.489	1229.98
739.674	1148.06
739.859	1268.89
740.045	1211.54
740.23	1289.37
740.416	1158.3
740.601	1260.7
740.786	1213.59
740.972	1250.46
741.157	1205.4
741.342	1256.6
741.528	1229.98
741.713	1203.35
741.898	1127.58
742.084	1193.11
742.269	1164.44
742.454	1066.14
742.639	1189.02
742.824	1131.67
743.01	1127.58
743.195	1195.16
743.38	1086.62
743.565	1146.01
743.75	1100.95
743.935	963.74
744.12	1100.95
744.305	1174.68
744.49	1016.99
744.675	1103
744.86	1043.61
745.045	1045.66
745.23	1066.14
745.415	1074.33
745.6	986.27
745.785	1039.51
745.97	982.17
746.155	1137.82
746.34	1025.18
746.525	1062.04
746.71	1004.7
746.895	947.36
747.079	941.21
747.264	988.32
747.449	957.6
747.634	1078.43
747.819	910.49
748.003	1027.23
748.188	894.11
748.373	965.79
748.557	945.31
748.742	961.69
748.927	910.49
749.111	982.17
749.296	894.11
749.481	920.73
749.665	851.1
749.85	814.24
750.034	1012.89
750.219	912.54
750.404	824.48
750.588	853.15
750.773	842.91
750.957	832.67
751.141	920.73
751.326	871.58
751.51	910.49
751.695	863.39
751.879	836.77
752.064	822.43
752.248	849.05
752.432	838.81
752.617	844.96
752.801	789.66
752.985	814.24
753.17	787.61
753.354	740.51
753.538	767.13
753.722	732.32
753.907	752.8
754.091	808.09
754.275	763.04
754.459	781.47
754.643	752.8
754.828	734.37
755.012	713.89
755.196	750.75
755.38	801.95
755.564	742.56
755.748	685.22
755.932	654.5
756.116	773.28
756.3	709.79
756.484	691.36
756.668	625.83
756.852	650.4
757.036	681.12
757.22	681.12
757.404	783.52
757.588	654.5
757.772	619.68
757.956	734.37
758.14	656.54
758.323	650.4
758.507	693.41
758.691	705.7
758.875	713.89
759.059	634.02
759.242	582.82
759.426	656.54
759.61	658.59
759.794	677.02
759.977	668.83
760.161	654.5
760.345	609.44
760.528	683.17
760.712	689.31
760.895	607.39
761.079	591.01
761.263	613.54
761.446	580.77
761.63	550.05
761.813	539.81
761.997	539.81
762.18	586.91
762.364	593.06
762.547	568.48
762.731	554.15
762.914	578.72
763.098	572.58
763.281	593.06
763.464	566.43
763.648	562.34
763.831	586.91
764.015	525.47
764.198	560.29
764.381	578.72
764.564	504.99
764.748	636.06
764.931	623.78
765.114	523.43
765.297	566.43
765.481	511.14
765.664	574.63
765.847	548
766.03	599.2
766.213	548
766.397	578.72
766.58	502.95
766.763	560.29
766.946	548
767.129	543.91
767.312	574.63
767.495	507.04
767.678	486.56
767.861	550.05
768.044	459.94
768.227	476.32
768.41	574.63
768.593	511.14
768.776	461.99
768.959	500.9
769.142	539.81
769.324	502.95
769.507	531.62
769.69	556.19
769.873	492.71
770.056	468.13
770.239	509.09
770.421	511.14
770.604	543.91
770.787	515.23
770.97	519.33
771.152	511.14
771.335	511.14
771.518	507.04
771.7	539.81
771.883	490.66
772.066	472.23
772.248	470.18
772.431	476.32
772.613	466.08
772.796	427.17
772.978	476.32
773.161	445.6
773.343	414.88
773.526	421.03
773.708	459.94
773.891	408.74
774.073	533.67
774.256	451.75
774.438	527.52
774.621	404.64
774.803	459.94
774.985	504.99
775.168	478.37
775.35	386.21
775.532	410.79
775.715	494.76
775.897	494.76
776.079	537.76
776.261	449.7
776.444	437.41
776.626	365.73
776.808	410.79
776.99	398.5
777.173	380.07
777.355	341.16
777.537	406.69
777.719	373.92
777.901	318.63
778.083	412.84
778.265	335.01
778.447	394.4
778.629	437.41
778.811	421.03
778.993	464.04
779.175	380.07
779.357	306.34
779.539	386.21
779.721	343.21
779.903	427.17
780.085	357.54
780.267	378.02
780.449	371.88
780.631	273.57
780.812	347.3
780.994	398.5
781.176	398.5
781.358	345.25
781.54	345.25
781.721	320.68
781.903	296.1
782.085	308.39
782.267	394.4
782.448	306.34
782.63	351.4
782.812	349.35
782.993	300.2
783.175	349.35
783.357	341.16
783.538	277.67
783.72	244.9
783.901	294.05
784.083	279.72
784.264	320.68
784.446	238.76
784.627	249
784.809	314.53
784.99	328.87
785.172	275.62
785.353	300.2
785.535	341.16
785.716	310.44
785.897	263.33
786.079	275.62
786.26	369.83
786.441	330.92
786.623	232.62
786.804	257.19
786.985	234.66
787.167	230.57
787.348	261.29
787.529	304.29
787.71	255.14
787.891	222.38
788.073	265.38
788.254	222.38
788.435	177.32
788.616	289.96
788.797	249
788.978	230.57
789.159	212.14
789.34	218.28
789.522	187.56
789.703	212.14
789.884	289.96
790.065	226.47
790.246	191.66
790.427	279.72
790.607	257.19
790.788	165.03
790.969	165.03
791.15	216.23
791.331	263.33
791.512	132.26
791.693	244.9
791.874	189.61
792.054	191.66
792.235	261.29
792.416	179.37
792.597	189.61
792.778	205.99
792.958	232.62
793.139	167.08
793.32	171.18
793.5	162.98
793.681	197.8
793.862	263.33
794.042	232.62
794.223	185.51
794.404	222.38
794.584	222.38
794.765	197.8
794.945	109.74
795.126	230.57
795.306	134.31
795.487	234.66
795.667	189.61
795.848	160.94
796.028	189.61
796.209	224.42
796.389	240.81
796.57	226.47
796.75	130.22
796.93	218.28
797.111	150.7
797.291	193.7
797.471	138.41
797.652	189.61
797.832	230.57
798.012	191.66
798.192	89.26
798.373	128.17
798.553	152.74
798.733	162.98
798.913	85.16
799.093	158.89
799.274	150.7
799.454	136.36
799.634	124.07
799.814	195.75
799.994	124.07
800.174	189.61
800.354	115.88
800.534	126.12
800.714	169.13
800.894	203.94
801.074	130.22
801.254	54.44
801.434	79.02
801.614	173.22
801.794	126.12
801.974	339.11
802.154	195.75
802.334	95.4
802.514	203.94
802.693	165.03
802.873	148.65
803.053	74.92
803.233	95.4
803.413	126.12
803.592	134.31
803.772	66.73
803.952	79.02
804.131	107.69
804.311	136.36
804.491	95.4
804.67	31.91
804.85	56.49
805.03	183.46
805.209	126.12
805.389	42.15
805.568	103.59
805.748	107.69
805.928	128.17
806.107	138.41
806.287	50.35
806.466	74.92
806.646	91.31
806.825	140.46
807.004	115.88
807.184	158.89
807.363	162.98
807.543	83.11
807.722	85.16
807.901	113.83
808.081	158.89
808.26	83.11
808.439	115.88
808.619	99.5
808.798	115.88
808.977	113.83
809.156	87.21
809.336	130.22
809.515	93.35
809.694	38.06
809.873	66.73
810.052	25.77
810.231	148.65
810.411	113.83
810.59	138.41
810.769	27.82
810.948	136.36
811.127	117.93
811.306	60.59
811.485	119.98
811.664	167.08
811.843	54.44
812.022	66.73
812.201	62.63
812.38	111.78
812.559	109.74
812.737	103.59
812.916	40.11
813.095	68.78
813.274	42.15
813.453	111.78
813.632	42.15
813.811	25.77
813.989	56.49
814.168	93.35
814.347	62.63
814.526	56.49
814.704	130.22
814.883	99.5
815.062	83.11
815.24	117.93
815.419	85.16
815.598	136.36
815.776	79.02
815.955	105.64
816.133	85.16
816.312	126.12
816.49	46.25
816.669	36.01
816.847	36.01
817.026	89.26
817.204	5.29
817.383	128.17
817.561	46.25
817.74	87.21
817.918	95.4
818.097	46.25
818.275	17.58
818.453	50.35
818.632	128.17
818.81	52.39
818.988	146.6
819.167	89.26
819.345	83.11
819.523	99.5
819.701	42.15
819.879	58.54
820.058	87.21
820.236	60.59
820.414	13.48
820.592	42.15
820.77	29.87
820.948	76.97
821.127	-19.29
821.305	58.54
821.483	42.15
821.661	105.64
821.839	99.5
822.017	27.82
822.195	40.11
822.373	85.16
822.551	66.73
822.729	76.97
822.907	68.78
823.085	17.58
823.262	42.15
823.44	97.45
823.618	79.02
823.796	-11.09
823.974	83.11
824.152	36.01
824.329	66.73
824.507	119.98
824.685	115.88
824.863	-39.76
825.04	-9.05
825.218	1.19
825.396	-15.19
825.574	-7
825.751	-23.38
825.929	-52.05
826.107	38.06
826.284	17.58
826.462	115.88
826.639	83.11
826.817	17.58
826.994	68.78
827.172	-2.9
827.349	91.31
827.527	-0.85
827.704	56.49
827.882	52.39
828.059	42.15
828.237	56.49
828.414	54.44
828.591	27.82
828.769	-11.09
828.946	21.67
829.124	50.35
829.301	58.54
829.478	-25.43
829.655	-45.91
829.833	29.87
830.01	21.67
830.187	5.29
830.364	-13.14
830.542	66.73
830.719	31.91
830.896	29.87
831.073	42.15
831.25	3.24
831.427	15.53
831.604	21.67
831.782	38.06
831.959	93.35
832.136	-29.52
832.313	-9.05
832.49	15.53
832.667	33.96
832.844	-62.29
833.021	124.07
833.198	58.54
833.374	21.67
833.551	-47.96
833.728	36.01
833.905	-7
834.082	-50
834.259	68.78
834.436	42.15
834.612	9.39
834.789	13.48
834.966	-41.81
835.143	52.39
835.319	-7
835.496	23.72
835.673	15.53
835.85	56.49
836.026	-9.05
836.203	76.97
836.38	9.39
836.556	50.35
836.733	33.96
836.909	52.39
837.086	-21.33
837.262	17.58
837.439	-2.9
837.616	29.87
837.792	36.01
837.968	95.4
838.145	29.87
838.321	-7
838.498	54.44
838.674	124.07
838.851	23.72
839.027	-60.24
839.203	33.96
839.38	50.35
839.556	70.83
839.732	13.48
839.909	52.39
840.085	19.63
840.261	-4.95
840.437	25.77
840.614	9.39
840.79	5.29
840.966	-52.05
841.142	-4.95
841.318	29.87
841.494	33.96
841.671	-33.62
841.847	-23.38
842.023	72.87
842.199	-15.19
842.375	13.48
842.551	31.91
842.727	66.73
842.903	-13.14
843.079	-56.15
843.255	33.96
843.431	40.11
843.607	40.11
843.783	-15.19
843.959	11.43
844.134	-88.92
844.31	27.82
844.486	11.43
844.662	7.34
844.838	7.34
845.013	13.48
845.189	15.53
845.365	68.78
845.541	21.67
845.716	85.16
845.892	72.87
846.068	-29.52
846.244	-31.57
846.419	-15.19
846.595	95.4
846.77	21.67
846.946	25.77
847.122	27.82
847.297	-31.57
847.473	83.11
847.648	31.91
847.824	-27.48
847.999	33.96
848.175	42.15
848.35	85.16
848.526	5.29
848.701	11.43
848.876	36.01
849.052	-2.9
849.227	-23.38
849.403	11.43
849.578	40.11
849.753	23.72
849.929	91.31
850.104	15.53
850.279	-11.09
850.454	44.2
850.63	13.48
850.805	-29.52
850.98	27.82
851.155	17.58
851.33	36.01
851.505	7.34
851.681	44.2
851.856	38.06
852.031	83.11
852.206	54.44
852.381	36.01
852.556	42.15
852.731	36.01
852.906	9.39
853.081	27.82
853.256	15.53
853.431	48.3
853.606	-19.29
853.781	66.73
853.956	-80.72
854.131	-13.14
854.305	-33.62
854.48	46.25
854.655	-47.96
854.83	27.82
855.005	-7
855.18	-4.95
855.354	-0.85
855.529	29.87
855.704	-21.33
855.879	9.39
856.053	42.15
856.228	11.43
856.403	15.53
856.577	17.58
856.752	-25.43
856.926	40.11
857.101	15.53
857.276	-13.14
857.45	-13.14
857.625	23.72
857.799	72.87
857.974	54.44
858.148	-25.43
858.323	54.44
858.497	29.87
858.672	1.19
858.846	9.39
859.02	5.29
859.195	11.43
859.369	5.29
859.543	38.06
859.718	-37.72
859.892	-4.95
860.066	33.96
860.241	-13.14
860.415	-4.95
860.589	-47.96
860.763	19.63
860.938	66.73
861.112	29.87
861.286	-43.86
861.46	5.29
861.634	-84.82
861.808	44.2
861.982	56.49
862.157	58.54
862.331	3.24
862.505	46.25
862.679	-60.24
862.853	-2.9
863.027	19.63
863.201	-7
863.375	-88.92
863.549	-64.34
863.722	11.43
863.896	36.01
864.07	-56.15
864.244	9.39
864.418	-9.05
864.592	54.44
864.766	1.19
864.939	-0.85
865.113	21.67
865.287	9.39
865.461	-0.85
865.634	15.53
865.808	-11.09
865.982	9.39
866.156	-13.14
866.329	50.35
866.503	-9.05
866.676	19.63
866.85	-35.67
867.024	54.44
867.197	1.19
867.371	11.43
867.544	-7
867.718	19.63
867.891	-11.09
868.065	25.77
868.238	-13.14
868.412	5.29
868.585	-19.29
868.759	-7
868.932	11.43
869.105	-47.96
869.279	3.24
869.452	42.15
869.625	-0.85
869.799	-74.58
869.972	25.77
870.145	-39.76
870.319	33.96
870.492	-43.86
870.665	-11.09
870.838	5.29
871.011	-35.67
871.185	58.54
871.358	83.11
871.531	17.58
871.704	-17.24
871.877	25.77
872.05	-50
872.223	1.19
872.396	23.72
872.569	9.39
872.742	19.63
872.915	-56.15
873.088	11.43
873.261	42.15
873.434	21.67
873.607	-4.95
873.78	3.24
873.953	-29.52
874.126	-133.97
874.299	-4.95
874.471	-80.72
874.644	25.77
874.817	83.11
874.99	9.39
875.163	-19.29
875.335	1.19
875.508	-13.14
875.681	-13.14
875.853	-52.05
876.026	50.35
876.199	-7
876.371	-52.05
876.544	-29.52
876.717	11.43
876.889	-9.05
877.062	42.15
877.234	-2.9
877.407	-11.09
877.579	29.87
877.752	40.11
877.924	-39.76
878.097	7.34
878.269	-25.43
878.442	15.53
878.614	-2.9
878.786	1.19
878.959	15.53
879.131	68.78
879.303	-21.33
879.476	27.82
879.648	7.34
879.82	25.77
879.993	36.01
880.165	36.01
880.337	-4.95
880.509	-11.09
880.681	-47.96
880.854	11.43
881.026	-13.14
881.198	17.58
881.37	-19.29
881.542	1.19
881.714	-7
881.886	27.82
882.058	-60.24
882.23	-72.53
882.402	-47.96
882.574	-25.43
882.746	-9.05
882.918	-54.1
883.09	-58.2
883.262	25.77
883.434	-56.15
883.606	-64.34
883.778	-82.77
883.95	60.59
884.122	87.21
884.293	-33.62
884.465	-19.29
884.637	-31.57
884.809	23.72
884.98	9.39
885.152	-39.76
885.324	-11.09
885.496	-45.91
885.667	19.63
885.839	-47.96
886.011	46.25
886.182	-86.87
886.354	-39.76
886.525	3.24
886.697	-11.09
886.869	-23.38
887.04	-17.24
887.212	56.49
887.383	-39.76
887.555	19.63
887.726	19.63
887.897	-25.43
888.069	7.34
888.24	-39.76
888.412	-56.15
888.583	9.39
888.754	-21.33
888.926	-39.76
889.097	-33.62
889.268	25.77
889.44	-56.15
889.611	-64.34
889.782	21.67
889.953	19.63
890.125	-13.14
890.296	-43.86
890.467	-15.19
890.638	-13.14
890.809	1.19
890.98	-27.48
891.151	-4.95
891.323	-66.39
891.494	-35.67
891.665	-27.48
891.836	-37.72
892.007	-23.38
892.178	-11.09
892.349	-0.85
892.52	29.87
892.691	-0.85
892.862	5.29
893.032	-54.1
893.203	29.87
893.374	9.39
893.545	9.39
893.716	-11.09
893.887	40.11
894.057	-11.09
894.228	1.19
894.399	-64.34
894.57	13.48
894.74	17.58
894.911	-23.38
895.082	-17.24
895.253	15.53
895.423	46.25
895.594	-25.43
895.764	-27.48
895.935	-27.48
896.106	-64.34
896.276	40.11
896.447	-86.87
896.617	-78.68
896.788	-52.05
896.958	-37.72
897.129	-9.05
897.299	-7
897.47	-27.48
897.64	-17.24
897.81	-62.29
897.981	-4.95
898.151	-13.14
898.322	-70.48
898.492	-27.48
898.662	-2.9
898.832	-23.38
899.003	-15.19
899.173	-13.14
899.343	25.77
899.513	25.77
