Data from USB4F104151__190__13-59-12-449.txt Node

Date: Thu Mar 13 13:59:12 EDT 2025
User: louis
Spectrometer: USB4F10415
Trigger mode: 4
Integration Time (sec): 1.000000E-2
Scans to average: 1
Electric dark correction enabled: true
Nonlinearity correction enabled: false
Boxcar width: 0
XAxis mode: Wavelengths
Number of Pixels in Spectrum: 3648
>>>>>Begin Spectral Data<<<<<
178.204	-46.59
178.424	-46.59
178.644	-46.59
178.864	-5.63
179.084	-19.97
179.304	-28.16
179.524	-3.58
179.744	51.71
179.964	94.72
180.184	29.18
180.404	37.38
180.624	-46.59
180.844	-89.6
181.064	-17.92
181.283	-7.68
181.503	45.57
181.723	-65.02
181.943	25.09
182.163	6.66
182.383	2.56
182.602	12.8
182.822	10.75
183.042	57.86
183.262	27.14
183.482	35.33
183.701	68.09
183.921	-22.02
184.141	14.85
184.361	78.33
184.58	55.81
184.8	8.7
185.02	72.19
185.239	82.43
185.459	4.61
185.679	4.61
185.898	59.9
186.118	51.71
186.338	20.99
186.557	0.51
186.777	-93.69
186.997	59.9
187.216	45.57
187.436	80.38
187.655	39.42
187.875	43.52
188.095	27.14
188.314	23.04
188.534	0.51
188.753	-11.78
188.973	55.81
189.192	27.14
189.412	45.57
189.631	29.18
189.851	-22.02
190.07	68.09
190.29	-38.4
190.509	61.95
190.729	4.61
190.948	74.24
191.168	33.28
191.387	23.04
191.607	10.75
191.826	18.94
192.045	64
192.265	-32.26
192.484	29.18
192.704	90.62
192.923	96.77
193.142	41.47
193.362	55.81
193.581	37.38
193.8	92.67
194.02	64
194.239	-34.3
194.458	16.9
194.678	-30.21
194.897	35.33
195.116	-52.74
195.335	25.09
195.555	-3.58
195.774	-3.58
195.993	-13.82
196.212	18.94
196.432	-3.58
196.651	53.76
196.87	70.14
197.089	59.9
197.308	25.09
197.528	4.61
197.747	20.99
197.966	23.04
198.185	27.14
198.404	-34.3
198.623	59.9
198.842	57.86
199.062	27.14
199.281	74.24
199.5	39.42
199.719	45.57
199.938	2.56
200.157	43.52
200.376	35.33
200.595	35.33
200.814	6.66
201.033	-13.82
201.252	115.2
201.471	12.8
201.69	-3.58
201.909	49.66
202.128	64
202.347	29.18
202.566	18.94
202.785	-24.06
203.004	-46.59
203.223	35.33
203.442	45.57
203.661	47.62
203.879	45.57
204.098	68.09
204.317	-3.58
204.536	66.05
204.755	29.18
204.974	74.24
205.193	4.61
205.411	70.14
205.63	76.29
205.849	59.9
206.068	70.14
206.287	86.53
206.505	55.81
206.724	59.9
206.943	20.99
207.162	-3.58
207.381	-11.78
207.599	61.95
207.818	45.57
208.037	29.18
208.255	10.75
208.474	18.94
208.693	66.05
208.911	70.14
209.13	27.14
209.349	37.38
209.567	31.23
209.786	6.66
210.005	64
210.223	-19.97
210.442	45.57
210.661	35.33
210.879	29.18
211.098	51.71
211.316	49.66
211.535	47.62
211.753	-11.78
211.972	33.28
212.191	45.57
212.409	27.14
212.628	78.33
212.846	0.51
213.065	98.81
213.283	-5.63
213.502	16.9
213.72	27.14
213.938	39.42
214.157	-7.68
214.375	68.09
214.594	57.86
214.812	76.29
215.031	76.29
215.249	-36.35
215.467	51.71
215.686	6.66
215.904	4.61
216.122	61.95
216.341	12.8
216.559	55.81
216.778	51.71
216.996	2.56
217.214	29.18
217.432	84.48
217.651	16.9
217.869	68.09
218.087	31.23
218.306	8.7
218.524	29.18
218.742	90.62
218.96	78.33
219.179	27.14
219.397	111.1
219.615	4.61
219.833	37.38
220.051	92.67
220.27	-26.11
220.488	23.04
220.706	18.94
220.924	57.86
221.142	53.76
221.36	55.81
221.578	29.18
221.796	37.38
222.015	25.09
222.233	20.99
222.451	27.14
222.669	80.38
222.887	57.86
223.105	45.57
223.323	10.75
223.541	-9.73
223.759	53.76
223.977	-3.58
224.195	49.66
224.413	53.76
224.631	61.95
224.849	92.67
225.067	14.85
225.285	27.14
225.503	47.62
225.721	-36.35
225.939	59.9
226.157	-52.74
226.375	49.66
226.592	57.86
226.81	119.29
227.028	35.33
227.246	68.09
227.464	0.51
227.682	53.76
227.9	78.33
228.117	23.04
228.335	47.62
228.553	45.57
228.771	-19.97
228.989	37.38
229.206	43.52
229.424	25.09
229.642	31.23
229.86	61.95
230.077	74.24
230.295	43.52
230.513	37.38
230.731	94.72
230.948	107.01
231.166	10.75
231.384	-30.21
231.601	117.25
231.819	80.38
232.037	0.51
232.254	37.38
232.472	74.24
232.689	-44.54
232.907	43.52
233.125	55.81
233.342	53.76
233.56	6.66
233.777	41.47
233.995	47.62
234.213	51.71
234.43	23.04
234.648	-28.16
234.865	41.47
235.083	6.66
235.3	20.99
235.518	55.81
235.735	113.15
235.953	20.99
236.17	70.14
236.388	20.99
236.605	61.95
236.822	53.76
237.04	57.86
237.257	45.57
237.475	59.9
237.692	55.81
237.909	4.61
238.127	-11.78
238.344	-5.63
238.562	92.67
238.779	-11.78
238.996	55.81
239.214	55.81
239.431	-3.58
239.648	16.9
239.865	12.8
240.083	-3.58
240.3	55.81
240.517	31.23
240.735	-13.82
240.952	14.85
241.169	-38.4
241.386	55.81
241.603	-3.58
241.821	119.29
242.038	35.33
242.255	47.62
242.472	14.85
242.689	41.47
242.907	70.14
243.124	31.23
243.341	23.04
243.558	18.94
243.775	37.38
243.992	35.33
244.209	-73.21
244.426	2.56
244.643	111.1
244.86	25.09
245.078	61.95
245.295	29.18
245.512	-13.82
245.729	51.71
245.946	74.24
246.163	55.81
246.38	35.33
246.597	43.52
246.814	-13.82
247.031	-17.92
247.248	47.62
247.464	18.94
247.681	45.57
247.898	6.66
248.115	-1.54
248.332	-7.68
248.549	70.14
248.766	23.04
248.983	55.81
249.2	66.05
249.417	96.77
249.633	53.76
249.85	23.04
250.067	33.28
250.284	31.23
250.501	74.24
250.717	86.53
250.934	-34.3
251.151	45.57
251.368	39.42
251.585	16.9
251.801	47.62
252.018	-13.82
252.235	49.66
252.451	4.61
252.668	29.18
252.885	-42.5
253.102	10.75
253.318	70.14
253.535	-30.21
253.752	31.23
253.968	18.94
254.185	2.56
254.401	51.71
254.618	43.52
254.835	100.86
255.051	51.71
255.268	-3.58
255.484	45.57
255.701	8.7
255.917	90.62
256.134	-28.16
256.351	39.42
256.567	4.61
256.784	27.14
257	33.28
257.217	33.28
257.433	29.18
257.65	80.38
257.866	-5.63
258.082	43.52
258.299	68.09
258.515	8.7
258.732	-13.82
258.948	92.67
259.165	55.81
259.381	39.42
259.597	-9.73
259.814	51.71
260.03	78.33
260.246	27.14
260.463	111.1
260.679	64
260.895	-3.58
261.112	57.86
261.328	2.56
261.544	-40.45
261.761	88.57
261.977	45.57
262.193	74.24
262.409	47.62
262.626	39.42
262.842	55.81
263.058	23.04
263.274	27.14
263.49	-9.73
263.707	68.09
263.923	102.91
264.139	35.33
264.355	-22.02
264.571	76.29
264.787	100.86
265.004	115.2
265.22	39.42
265.436	23.04
265.652	14.85
265.868	25.09
266.084	18.94
266.3	33.28
266.516	23.04
266.732	14.85
266.948	-17.92
267.164	-13.82
267.38	92.67
267.596	-46.59
267.812	37.38
268.028	16.9
268.244	41.47
268.46	59.9
268.676	43.52
268.892	18.94
269.108	-1.54
269.324	41.47
269.54	14.85
269.756	6.66
269.972	-73.21
270.188	66.05
270.403	6.66
270.619	74.24
270.835	102.91
271.051	-5.63
271.267	4.61
271.483	29.18
271.698	18.94
271.914	18.94
272.13	92.67
272.346	70.14
272.562	76.29
272.777	-7.68
272.993	27.14
273.209	117.25
273.425	39.42
273.64	16.9
273.856	45.57
274.072	51.71
274.287	-5.63
274.503	76.29
274.719	53.76
274.934	59.9
275.15	-1.54
275.366	-13.82
275.581	33.28
275.797	-11.78
276.012	6.66
276.228	27.14
276.444	16.9
276.659	80.38
276.875	18.94
277.09	86.53
277.306	45.57
277.521	104.96
277.737	6.66
277.952	117.25
278.168	78.33
278.383	31.23
278.599	12.8
278.814	12.8
279.03	-11.78
279.245	33.28
279.461	43.52
279.676	94.72
279.892	59.9
280.107	20.99
280.322	14.85
280.538	68.09
280.753	43.52
280.969	-24.06
281.184	-11.78
281.399	90.62
281.615	86.53
281.83	27.14
282.045	86.53
282.26	57.86
282.476	12.8
282.691	39.42
282.906	68.09
283.122	35.33
283.337	-44.54
283.552	-36.35
283.767	12.8
283.983	16.9
284.198	72.19
284.413	23.04
284.628	49.66
284.843	117.25
285.058	61.95
285.274	78.33
285.489	53.76
285.704	41.47
285.919	2.56
286.134	6.66
286.349	-5.63
286.564	-3.58
286.779	57.86
286.995	-28.16
287.21	-34.3
287.425	0.51
287.64	6.66
287.855	47.62
288.07	-3.58
288.285	-1.54
288.5	-11.78
288.715	39.42
288.93	45.57
289.145	35.33
289.36	2.56
289.575	107.01
289.79	-1.54
290.004	18.94
290.219	23.04
290.434	49.66
290.649	49.66
290.864	166.4
291.079	-1.54
291.294	68.09
291.509	23.04
291.724	39.42
291.938	18.94
292.153	-5.63
292.368	-1.54
292.583	55.81
292.798	92.67
293.012	53.76
293.227	59.9
293.442	27.14
293.657	45.57
293.871	68.09
294.086	23.04
294.301	29.18
294.516	72.19
294.73	12.8
294.945	-7.68
295.16	39.42
295.374	-32.26
295.589	18.94
295.804	27.14
296.018	-9.73
296.233	61.95
296.447	64
296.662	109.05
296.877	55.81
297.091	51.71
297.306	96.77
297.52	35.33
297.735	98.81
297.949	53.76
298.164	-22.02
298.378	29.18
298.593	16.9
298.807	25.09
299.022	39.42
299.236	4.61
299.451	10.75
299.665	23.04
299.88	-17.92
300.094	64
300.309	76.29
300.523	82.43
300.737	115.2
300.952	-9.73
301.166	-3.58
301.381	29.18
301.595	35.33
301.809	33.28
302.024	88.57
302.238	31.23
302.452	51.71
302.667	94.72
302.881	51.71
303.095	20.99
303.309	86.53
303.524	8.7
303.738	-38.4
303.952	6.66
304.166	25.09
304.381	53.76
304.595	127.49
304.809	96.77
305.023	27.14
305.237	-11.78
305.452	8.7
305.666	14.85
305.88	43.52
306.094	33.28
306.308	-9.73
306.522	104.96
306.736	107.01
306.95	18.94
307.164	80.38
307.379	23.04
307.593	49.66
307.807	76.29
308.021	41.47
308.235	82.43
308.449	45.57
308.663	14.85
308.877	43.52
309.091	-3.58
309.305	33.28
309.519	47.62
309.733	39.42
309.947	45.57
310.161	-22.02
310.374	64
310.588	25.09
310.802	111.1
311.016	20.99
311.23	12.8
311.444	31.23
311.658	104.96
311.872	78.33
312.085	-26.11
312.299	37.38
312.513	23.04
312.727	51.71
312.941	68.09
313.154	45.57
313.368	47.62
313.582	61.95
313.796	18.94
314.009	53.76
314.223	70.14
314.437	55.81
314.651	27.14
314.864	70.14
315.078	-28.16
315.292	23.04
315.505	20.99
315.719	53.76
315.933	127.49
316.146	72.19
316.36	-22.02
316.573	35.33
316.787	74.24
317.001	27.14
317.214	27.14
317.428	139.77
317.641	45.57
317.855	-28.16
318.068	-13.82
318.282	49.66
318.495	49.66
318.709	86.53
318.922	25.09
319.136	35.33
319.349	-32.26
319.563	10.75
319.776	55.81
319.99	49.66
320.203	8.7
320.417	10.75
320.63	-13.82
320.843	53.76
321.057	43.52
321.27	51.71
321.483	27.14
321.697	-7.68
321.91	-5.63
322.124	107.01
322.337	59.9
322.55	25.09
322.763	59.9
322.977	88.57
323.19	43.52
323.403	-3.58
323.617	53.76
323.83	29.18
324.043	76.29
324.256	41.47
324.469	43.52
324.683	2.56
324.896	51.71
325.109	43.52
325.322	49.66
325.535	18.94
325.748	-7.68
325.962	47.62
326.175	20.99
326.388	51.71
326.601	-9.73
326.814	29.18
327.027	-52.74
327.24	43.52
327.453	64
327.666	59.9
327.879	53.76
328.092	84.48
328.305	4.61
328.518	23.04
328.731	57.86
328.944	-1.54
329.157	12.8
329.37	43.52
329.583	125.44
329.796	111.1
330.009	27.14
330.222	64
330.435	70.14
330.648	88.57
330.861	82.43
331.073	23.04
331.286	-32.26
331.499	6.66
331.712	33.28
331.925	18.94
332.138	18.94
332.35	102.91
332.563	109.05
332.776	31.23
332.989	113.15
333.202	57.86
333.414	72.19
333.627	25.09
333.84	37.38
334.053	8.7
334.265	96.77
334.478	47.62
334.691	76.29
334.903	35.33
335.116	6.66
335.329	37.38
335.541	4.61
335.754	72.19
335.966	23.04
336.179	53.76
336.392	96.77
336.604	37.38
336.817	78.33
337.029	27.14
337.242	51.71
337.454	53.76
337.667	-38.4
337.88	100.86
338.092	31.23
338.305	27.14
338.517	29.18
338.729	68.09
338.942	117.25
339.154	29.18
339.367	37.38
339.579	37.38
339.792	31.23
340.004	-28.16
340.217	2.56
340.429	37.38
340.641	88.57
340.854	123.39
341.066	31.23
341.278	141.82
341.491	84.48
341.703	-13.82
341.915	23.04
342.128	92.67
342.34	111.1
342.552	76.29
342.764	27.14
342.977	51.71
343.189	33.28
343.401	86.53
343.613	61.95
343.826	64
344.038	39.42
344.25	94.72
344.462	64
344.674	18.94
344.886	23.04
345.099	61.95
345.311	-30.21
345.523	27.14
345.735	35.33
345.947	84.48
346.159	41.47
346.371	8.7
346.583	41.47
346.795	82.43
347.007	27.14
347.219	92.67
347.431	76.29
347.643	104.96
347.855	55.81
348.067	96.77
348.279	35.33
348.491	90.62
348.703	41.47
348.915	88.57
349.127	53.76
349.339	25.09
349.551	20.99
349.763	43.52
349.975	92.67
350.187	18.94
350.399	43.52
350.61	57.86
350.822	-17.92
351.034	61.95
351.246	61.95
351.458	47.62
351.669	41.47
351.881	-9.73
352.093	39.42
352.305	23.04
352.517	86.53
352.728	72.19
352.94	68.09
353.152	47.62
353.363	76.29
353.575	41.47
353.787	27.14
353.999	45.57
354.21	51.71
354.422	2.56
354.633	100.86
354.845	107.01
355.057	125.44
355.268	109.05
355.48	18.94
355.692	51.71
355.903	51.71
356.115	14.85
356.326	100.86
356.538	76.29
356.749	-28.16
356.961	45.57
357.172	35.33
357.384	33.28
357.595	61.95
357.807	45.57
358.018	45.57
358.23	39.42
358.441	20.99
358.653	61.95
358.864	12.8
359.075	78.33
359.287	-1.54
359.498	82.43
359.709	113.15
359.921	6.66
360.132	78.33
360.344	35.33
360.555	68.09
360.766	68.09
360.977	78.33
361.189	94.72
361.4	80.38
361.611	70.14
361.823	74.24
362.034	70.14
362.245	49.66
362.456	47.62
362.667	107.01
362.879	94.72
363.09	61.95
363.301	59.9
363.512	86.53
363.723	-3.58
363.935	72.19
364.146	102.91
364.357	68.09
364.568	43.52
364.779	33.28
364.99	31.23
365.201	-1.54
365.412	102.91
365.623	-19.97
365.834	94.72
366.045	31.23
366.256	16.9
366.467	10.75
366.678	78.33
366.889	18.94
367.1	70.14
367.311	64
367.522	-5.63
367.733	39.42
367.944	8.7
368.155	66.05
368.366	78.33
368.577	33.28
368.788	68.09
368.999	115.2
369.209	76.29
369.42	70.14
369.631	88.57
369.842	-11.78
370.053	51.71
370.264	64
370.474	18.94
370.685	-30.21
370.896	64
371.107	143.87
371.317	68.09
371.528	33.28
371.739	35.33
371.95	92.67
372.16	78.33
372.371	-5.63
372.582	37.38
372.792	76.29
373.003	74.24
373.214	86.53
373.424	43.52
373.635	-3.58
373.846	39.42
374.056	35.33
374.267	31.23
374.477	57.86
374.688	43.52
374.898	51.71
375.109	129.53
375.319	100.86
375.53	72.19
375.74	100.86
375.951	35.33
376.161	49.66
376.372	55.81
376.582	29.18
376.793	86.53
377.003	33.28
377.214	59.9
377.424	109.05
377.635	39.42
377.845	-13.82
378.055	29.18
378.266	45.57
378.476	37.38
378.686	59.9
378.897	109.05
379.107	59.9
379.317	37.38
379.528	55.81
379.738	45.57
379.948	43.52
380.158	88.57
380.369	68.09
380.579	37.38
380.789	4.61
380.999	51.71
381.21	49.66
381.42	135.68
381.63	-5.63
381.84	66.05
382.05	143.87
382.261	66.05
382.471	78.33
382.681	27.14
382.891	96.77
383.101	72.19
383.311	98.81
383.521	96.77
383.731	35.33
383.941	94.72
384.151	35.33
384.361	82.43
384.571	45.57
384.781	43.52
384.991	31.23
385.201	16.9
385.411	33.28
385.621	84.48
385.831	45.57
386.041	115.2
386.251	-3.58
386.461	53.76
386.671	78.33
386.881	-3.58
387.091	20.99
387.301	80.38
387.511	141.82
387.72	96.77
387.93	43.52
388.14	76.29
388.35	88.57
388.56	88.57
388.769	10.75
388.979	72.19
389.189	55.81
389.399	49.66
389.609	6.66
389.818	76.29
390.028	86.53
390.238	51.71
390.447	66.05
390.657	-26.11
390.867	-1.54
391.076	41.47
391.286	78.33
391.496	20.99
391.705	49.66
391.915	70.14
392.125	6.66
392.334	8.7
392.544	76.29
392.753	35.33
392.963	64
393.172	119.29
393.382	35.33
393.591	53.76
393.801	74.24
394.01	61.95
394.22	160.25
394.429	113.15
394.639	-13.82
394.848	145.92
395.058	61.95
395.267	68.09
395.477	39.42
395.686	86.53
395.895	88.57
396.105	37.38
396.314	125.44
396.524	117.25
396.733	61.95
396.942	68.09
397.152	74.24
397.361	76.29
397.57	43.52
397.78	59.9
397.989	90.62
398.198	59.9
398.407	20.99
398.617	109.05
398.826	74.24
399.035	123.39
399.244	100.86
399.453	96.77
399.663	57.86
399.872	111.1
400.081	31.23
400.29	137.73
400.499	84.48
400.708	109.05
400.917	74.24
401.127	123.39
401.336	0.51
401.545	111.1
401.754	100.86
401.963	96.77
402.172	98.81
402.381	27.14
402.59	127.49
402.799	135.68
403.008	117.25
403.217	117.25
403.426	156.16
403.635	109.05
403.844	25.09
404.053	145.92
404.262	94.72
404.471	92.67
404.68	166.4
404.888	96.77
405.097	80.38
405.306	59.9
405.515	-15.87
405.724	145.92
405.933	170.49
406.142	143.87
406.35	129.53
406.559	168.45
406.768	250.36
406.977	113.15
407.185	96.77
407.394	164.35
407.603	92.67
407.812	215.55
408.02	162.3
408.229	152.06
408.438	170.49
408.646	193.02
408.855	160.25
409.064	115.2
409.272	139.77
409.481	160.25
409.69	193.02
409.898	213.5
410.107	215.55
410.315	203.26
410.524	186.88
410.733	215.55
410.941	180.73
411.15	219.64
411.358	242.17
411.567	256.51
411.775	248.32
411.984	215.55
412.192	258.56
412.401	250.36
412.609	295.42
412.818	279.04
413.026	369.15
413.234	276.99
413.443	350.71
413.651	334.33
413.86	354.81
414.068	371.19
414.276	379.39
414.485	381.43
414.693	414.2
414.901	395.77
415.11	442.87
415.318	420.35
415.526	469.5
415.734	461.3
415.943	526.84
416.151	485.88
416.359	502.26
416.567	522.74
416.776	514.55
416.984	543.22
417.192	582.14
417.4	600.57
417.608	649.72
417.817	674.29
418.025	600.57
418.233	700.92
418.441	684.53
418.649	715.25
418.857	670.2
419.065	799.22
419.273	731.64
419.481	788.98
419.689	877.04
419.897	903.67
420.105	887.28
420.313	866.8
420.521	1034.74
420.729	897.52
420.937	971.25
421.145	1085.94
421.353	1079.79
421.561	1217.01
421.769	1204.72
421.977	1176.05
422.185	1153.52
422.393	1270.25
422.601	1360.36
422.809	1368.56
423.017	1356.27
423.224	1438.19
423.432	1530.34
423.64	1397.23
423.848	1649.13
424.056	1493.48
424.263	1657.32
424.471	1632.74
424.679	1788.39
424.887	1796.58
425.094	1800.68
425.302	1890.79
425.51	1888.74
425.718	1919.46
425.925	2042.34
426.133	2001.38
426.341	2157.02
426.548	2273.76
426.756	2302.43
426.964	2327
427.171	2626.01
427.379	2554.33
427.586	2566.62
427.794	2595.29
428.001	2724.31
428.209	2808.28
428.417	2724.31
428.624	3068.37
428.832	3031.51
429.039	3025.36
429.247	3000.79
429.454	3260.88
429.662	3484.11
429.869	3273.17
430.076	3568.07
430.284	3389.9
430.491	3557.83
430.699	3822.02
430.906	3807.69
431.114	3852.74
431.321	3973.57
431.528	4135.36
431.736	4331.97
431.943	4565.43
432.15	4313.53
432.358	4450.75
432.565	4567.48
432.772	4620.73
432.979	4829.62
433.187	4960.69
433.394	4768.18
433.601	5347.76
433.808	5401.01
434.016	5374.38
434.223	5548.46
434.43	5732.78
434.637	5816.74
434.844	6058.4
435.052	6177.19
435.259	6134.18
435.466	6164.9
435.673	6042.02
435.88	6326.69
436.087	6902.17
436.294	6805.91
436.501	6621.59
436.708	6869.4
436.915	7080.34
437.122	7395.73
437.329	7430.54
437.537	7532.94
437.743	7717.26
437.95	7618.96
438.157	8266.11
438.364	8368.51
438.571	8333.7
438.778	8259.97
438.985	9081.21
439.192	8882.55
439.399	8999.29
439.606	8866.17
439.813	9386.35
440.02	9916.78
440.227	9652.59
440.433	9417.07
440.64	10074.47
440.847	10066.28
441.054	10135.91
441.261	10977.62
441.467	10701.15
441.674	10867.03
441.881	11293.01
442.088	11120.98
442.294	11092.31
442.501	11348.31
442.708	11794.76
442.914	11815.24
443.121	12775.74
443.328	12228.93
443.534	13195.57
443.741	12818.75
443.948	12446.02
444.154	13607.22
444.361	13269.3
444.568	13427
444.774	13742.38
444.981	13793.58
445.187	14131.5
445.394	14543.14
445.6	14643.49
445.807	15628.56
446.013	15307.03
446.22	15497.49
446.426	16191.75
446.633	16072.97
446.839	16890.11
447.046	15976.72
447.252	17025.28
447.459	17238.26
447.665	17035.52
447.871	17621.24
448.078	18307.3
448.284	17608.95
448.491	18186.47
448.697	18839.78
448.903	18976.99
449.11	18952.41
449.316	18852.06
449.522	19247.32
449.728	19597.52
449.935	19929.3
450.141	20060.37
450.347	20287.69
450.553	19609.81
450.76	19753.17
450.966	20598.98
451.172	20179.15
451.378	20875.46
451.584	20525.25
451.791	20857.03
451.997	20945.09
452.203	21383.35
452.409	21280.96
452.615	21412.03
452.821	20367.56
453.027	20232.4
453.233	21547.19
453.44	20388.04
453.646	20685
453.852	20811.97
454.058	20953.28
454.264	20750.53
454.47	21102.78
454.676	20361.42
454.882	20979.9
455.088	19122.4
455.294	19511.51
455.5	19749.07
455.705	19943.63
455.911	19257.56
456.117	18798.82
456.323	18639.08
456.529	17697.01
456.735	18469.09
456.941	18020.59
457.147	17862.9
457.352	17115.39
457.558	16779.52
457.764	16843.01
457.97	16769.28
458.176	16273.67
458.381	16253.19
458.587	15460.63
458.793	15542.55
458.999	14565.67
459.204	15778.06
459.41	15419.67
459.616	14344.49
459.821	14242.09
460.027	14268.71
460.233	14192.94
460.438	13322.55
460.644	13412.66
460.85	13005.11
461.055	12933.43
461.261	12562.75
461.466	11751.76
461.672	11348.31
461.878	12005.7
462.083	11317.59
462.289	10883.42
462.494	10994.01
462.7	10533.22
462.905	10391.91
463.111	10488.16
463.316	10889.56
463.522	10664.29
463.727	10621.28
463.932	10336.61
464.138	10451.3
464.343	10443.1
464.549	10119.53
464.754	10608.99
464.959	10162.53
465.165	10400.1
465.37	9701.74
465.575	9640.3
465.781	10039.65
465.986	10037.61
466.191	9664.88
466.397	9472.37
466.602	9062.77
466.807	9324.91
467.012	9271.67
467.218	9376.11
467.423	9253.23
467.628	9269.62
467.833	9734.51
468.038	9281.91
468.244	9050.49
468.449	9361.78
468.654	9027.96
468.859	9011.57
469.064	8862.07
469.269	8755.58
469.474	8874.36
469.679	8720.76
469.885	8653.18
470.09	8628.6
470.295	8597.88
470.5	8452.48
470.705	8722.81
470.91	8485.25
471.115	8253.83
471.32	8358.27
471.525	8288.64
471.73	8061.32
471.935	8022.41
472.139	7905.67
472.344	7983.49
472.549	7774.6
472.754	7719.31
472.959	7639.44
473.164	7524.75
473.369	7410.06
473.574	7713.16
473.778	7723.4
473.983	7586.19
474.188	7367.06
474.393	7082.39
474.598	7307.66
474.802	7100.82
475.007	7139.73
475.212	7119.25
475.417	6836.63
475.621	6869.4
475.826	6756.76
476.031	6668.7
476.235	6603.16
476.44	6631.83
476.645	6551.96
476.849	6498.72
477.054	6523.29
477.259	6375.84
477.463	6271.39
477.668	6234.53
477.872	6259.1
478.077	6185.38
478.282	6087.08
478.486	6072.74
478.691	5972.39
478.895	5898.66
479.1	5876.13
479.304	5902.76
479.509	5820.84
479.713	5837.22
479.918	5642.67
480.122	5548.46
480.326	5605.8
480.531	5767.59
480.735	5587.37
480.94	5579.18
481.144	5841.32
481.348	5378.48
481.553	5609.9
481.757	5392.81
481.961	5499.31
482.166	5554.6
482.37	5607.85
482.574	5468.59
482.778	5470.64
482.983	5446.06
483.187	5409.2
483.391	5566.89
483.595	5480.88
483.8	5290.42
484.004	5413.29
484.208	5544.36
484.412	5468.59
484.616	5484.97
484.821	5527.98
485.025	5241.26
485.229	5552.56
485.433	5409.2
485.637	5591.47
485.841	5388.72
486.045	5554.6
486.249	5403.05
486.453	5464.49
486.657	5525.93
486.861	5589.42
487.065	5431.73
487.269	5384.62
487.473	5462.44
487.677	5513.64
487.881	5499.31
488.085	5464.49
488.289	5441.96
488.493	5364.14
488.697	5423.53
488.901	5599.66
489.105	5544.36
489.309	5409.2
489.512	5396.91
489.716	5556.65
489.92	5509.55
490.124	5523.88
490.328	5740.97
490.531	5568.94
490.735	5814.7
490.939	5671.34
491.143	5597.61
491.346	5712.3
491.55	5697.96
491.754	5751.21
491.958	5794.22
492.161	5806.5
492.365	5826.98
492.569	5896.61
492.772	5976.48
492.976	5960.1
493.18	5949.86
493.383	6085.03
493.587	6029.73
493.79	6070.69
493.994	6074.79
494.197	6185.38
494.401	6318.5
494.605	6255.01
494.808	6166.95
495.012	6240.67
495.215	6293.92
495.419	6457.76
495.622	6343.07
495.825	6336.93
496.029	6633.88
496.232	6680.99
496.436	6640.03
496.639	6803.86
496.843	6646.17
497.046	6877.59
497.249	7059.86
497.453	7063.96
497.656	7143.83
497.859	6990.23
498.063	7127.44
498.266	7328.14
498.469	7360.91
498.673	7602.57
498.876	7606.67
499.079	7549.32
499.282	7766.41
499.485	7973.25
499.689	7870.86
499.892	8067.46
500.095	8077.7
500.298	8255.87
500.501	8292.74
500.705	8380.8
500.908	8558.97
501.111	8532.35
501.314	8882.55
501.517	9038.2
501.72	9021.81
501.923	8991.09
502.126	9081.21
502.329	9474.42
502.532	9529.71
502.735	9613.68
502.938	9687.4
503.141	9920.87
503.344	10107.24
503.547	10068.33
503.75	10217.83
503.953	10332.51
504.156	10410.34
504.359	10576.22
504.562	10520.93
504.765	10807.64
504.968	11196.76
505.17	11047.26
505.373	11381.07
505.576	11571.54
505.779	11698.51
505.982	11686.22
506.185	12214.6
506.387	12001.61
506.59	12069.19
506.793	12435.78
506.996	12175.69
507.198	12534.08
507.401	12831.04
507.604	12919.1
507.807	13316.4
508.009	13254.97
508.212	13570.35
508.415	13719.85
508.617	13848.88
508.82	13932.84
509.022	13900.08
509.225	14240.04
509.428	14483.75
509.63	14709.02
509.833	14733.6
510.035	15042.84
510.238	15016.22
510.44	15497.49
510.643	15761.68
510.845	16070.92
511.048	15952.14
511.25	16341.25
511.453	16265.48
511.655	17006.84
511.858	16713.98
512.06	16908.54
512.262	17254.65
512.465	17086.72
512.667	17586.42
512.87	17514.74
513.072	18002.16
513.274	18581.73
513.477	18800.87
513.679	18845.92
513.881	19040.48
514.084	19210.46
514.286	19384.54
514.488	19679.44
514.69	20130
514.893	20066.51
515.095	20371.66
515.297	20674.76
515.499	20838.59
515.701	20940.99
515.904	21569.72
516.106	21459.13
516.308	21526.71
516.51	22345.9
516.712	22046.9
516.914	22534.31
517.116	22878.37
517.318	23204
517.52	22966.43
517.722	23421.08
517.925	23806.1
518.127	24227.98
518.329	24438.92
518.531	24230.03
518.733	25067.65
518.935	25114.75
519.136	25387.13
519.338	25467
519.54	25618.55
519.742	26005.62
519.944	26466.41
520.146	26523.76
520.348	26937.44
520.55	27136.1
520.752	27033.7
520.954	27625.56
521.155	27492.44
521.357	28323.92
521.559	28186.71
521.761	28680.27
521.963	28610.64
522.164	28964.93
522.366	29014.09
522.568	29608
522.77	29552.7
522.971	29990.97
523.173	29878.33
523.375	30449.71
523.576	30537.77
523.778	30566.45
523.98	30910.5
524.181	31086.63
524.383	31432.74
524.584	31780.89
524.786	31588.38
524.988	31520.8
525.189	32051.22
525.391	32204.82
525.592	32485.39
525.794	32421.91
525.995	33050.63
526.197	33107.97
526.398	33105.93
526.6	33343.49
526.801	33540.1
527.003	33533.95
527.204	33818.62
527.406	33953.79
527.607	34121.72
527.808	34002.94
528.01	33796.09
528.211	33687.55
528.412	34543.6
528.614	34707.44
528.815	34768.88
529.016	35014.63
529.218	34529.27
529.419	34893.8
529.62	34873.32
529.822	34904.04
530.023	35098.6
530.224	35112.94
530.425	35225.57
530.626	35305.45
530.828	35426.28
531.029	36210.65
531.23	35813.34
531.431	35221.48
531.632	35721.18
531.833	35801.05
532.035	36159.45
532.236	35999.71
532.437	36181.98
532.638	35799.01
532.839	36011.99
533.04	36710.35
533.241	35712.99
533.442	36822.99
533.643	36376.53
533.844	36157.4
534.045	36487.12
534.246	35776.48
534.447	36814.8
534.648	36665.3
534.849	36448.21
535.05	36335.57
535.251	36261.85
535.451	36476.88
535.652	36415.44
535.853	36677.58
536.054	36472.79
536.255	36743.12
536.456	36583.38
536.657	36622.29
536.857	36534.23
537.058	36380.63
537.259	36863.95
537.46	36532.18
537.66	36704.21
537.861	37003.21
538.062	36550.61
538.263	36853.71
538.463	36718.54
538.664	36620.24
538.865	36454.36
539.065	37179.34
539.266	36714.45
539.466	36562.9
539.667	36216.79
539.868	37357.51
540.068	36538.32
540.269	37042.12
540.469	37029.83
540.67	36110.3
540.87	36513.75
541.071	36427.73
541.271	36437.97
541.472	36802.51
541.672	36587.47
541.873	36743.12
542.073	36415.44
542.274	36962.25
542.474	36397.01
542.675	36300.76
542.875	36784.08
543.075	36388.82
543.276	36145.11
543.476	37124.04
543.676	36597.71
543.877	36616.15
544.077	36777.93
544.277	36601.81
544.478	36513.75
544.678	36657.1
544.878	36777.93
545.078	36972.49
545.279	36335.57
545.479	36431.83
545.679	36775.89
545.879	36448.21
546.079	36964.3
546.28	36894.67
546.48	36294.61
546.68	36917.2
546.88	36517.84
547.08	36788.17
547.28	36423.64
547.48	36386.77
547.68	36577.23
547.88	36317.14
548.081	36923.34
548.281	36558.8
548.481	36401.11
548.681	36665.3
548.881	36354.01
549.081	36655.06
549.28	36415.44
549.48	36669.39
549.68	36452.31
549.88	36521.94
550.08	36145.11
550.28	36448.21
550.48	36530.13
550.68	36765.65
550.88	36347.86
551.08	36235.22
551.279	36360.15
551.479	36120.54
551.679	36632.53
551.879	36313.05
552.079	36501.46
552.278	36165.59
552.478	36655.06
552.678	36284.37
552.878	36235.22
553.077	36425.68
553.277	36290.52
553.477	36655.06
553.676	36335.57
553.876	36159.45
554.076	36040.67
554.275	35979.23
554.475	35747.81
554.674	36196.31
554.874	36198.36
555.074	36032.47
555.273	36136.92
555.473	35956.7
555.672	35815.39
555.872	35958.75
556.071	35966.94
556.271	35925.98
556.47	35962.84
556.67	35330.02
556.869	35729.37
557.068	35952.6
557.268	35397.6
557.467	35379.17
557.667	35786.72
557.866	35686.37
558.065	35561.44
558.265	35434.47
558.464	35622.88
558.663	35712.99
558.863	35131.37
559.062	35850.2
559.261	34893.8
559.461	35579.87
559.66	35002.35
559.859	35317.73
560.058	34770.93
560.258	35274.73
560.457	34889.71
560.656	34850.8
560.855	34752.49
561.054	34670.57
561.253	34975.72
561.453	34787.31
561.652	34783.21
561.851	35151.85
562.05	34500.59
562.249	34473.97
562.448	34824.17
562.647	34564.08
562.846	34537.46
563.045	34531.31
563.244	34148.34
563.443	34994.15
563.642	34072.57
563.841	34220.02
564.04	34179.06
564.239	34222.07
564.438	34101.24
564.637	34045.94
564.836	34000.89
565.035	34101.24
565.234	33757.18
565.432	33589.25
565.631	33613.82
565.83	33673.21
566.029	33693.69
566.228	33366.02
566.427	33554.43
566.625	33413.12
566.824	33138.69
567.023	33464.32
567.222	32747.53
567.42	33237
567.619	33302.53
567.818	33284.1
568.016	32999.43
568.215	33335.3
568.414	33019.91
568.612	33507.33
568.811	32618.51
569.01	32864.27
569.208	32538.64
569.407	32382.99
569.605	32145.43
569.804	32462.86
570.002	32151.57
570.201	32342.03
570.4	31875.1
570.598	31918.1
570.797	32159.77
570.995	32059.41
571.193	31705.12
571.392	32213.01
571.59	31852.57
571.789	31510.56
571.987	31285.28
572.186	31721.5
572.384	31526.94
572.582	31645.73
572.781	31406.11
572.979	30851.11
573.177	30922.79
573.376	31164.45
573.574	30607.4
573.772	31012.9
573.971	30658.6
574.169	30722.09
574.367	30318.64
574.565	31092.77
574.763	30339.12
574.962	30130.23
575.16	30167.09
575.358	30093.36
575.556	29796.41
575.754	30289.97
575.952	29796.41
576.151	30064.69
576.349	29759.55
576.547	29747.26
576.745	29198.4
576.943	29270.08
577.141	29206.59
577.339	29294.66
577.537	29067.33
577.735	29134.92
577.933	28889.16
578.131	28950.6
578.329	28956.74
578.527	28508.24
578.725	28627.02
578.923	28784.71
579.121	28385.36
579.319	28510.28
579.516	28252.24
579.714	28500.05
579.912	28135.51
580.11	28031.06
580.308	27965.53
580.506	27877.46
580.704	27580.51
580.901	27973.72
581.099	27836.5
581.297	27269.22
581.495	27643.99
581.692	27701.34
581.89	27506.78
582.088	27605.08
582.285	27117.67
582.483	26982.5
582.681	27142.24
582.878	27127.91
583.076	26800.23
583.274	27336.8
583.471	26546.28
583.669	26773.61
583.866	26548.33
584.064	26947.68
584.262	26185.84
584.459	26525.8
584.657	26388.59
584.854	26556.52
585.052	26077.3
585.249	26060.91
585.447	26019.95
585.644	25628.79
585.841	26142.83
586.039	26169.46
586.236	25659.51
586.434	25196.67
586.631	25411.71
586.828	25616.51
587.026	25364.6
587.223	25415.8
587.42	25069.7
587.618	25276.54
587.815	24957.06
588.012	25047.17
588.21	25159.81
588.407	24850.56
588.604	25223.3
588.801	24699.02
588.999	24746.12
589.196	24578.18
589.393	24680.58
589.59	24447.11
589.787	24174.74
589.984	23857.3
590.182	24344.72
590.379	24324.24
590.576	24256.65
590.773	24109.2
590.97	23775.38
591.167	23924.88
591.364	23873.68
591.561	23869.59
591.758	23617.69
591.955	23515.29
592.152	23695.51
592.349	23419.03
592.546	23476.38
592.743	23648.41
592.94	22911.14
593.137	22878.37
593.334	23412.89
593.531	23011.49
593.727	23173.28
593.924	23015.58
594.121	23097.5
594.318	23054.5
594.515	22804.64
594.712	22890.66
594.908	22587.56
595.105	22730.92
595.302	22816.93
595.499	22710.44
595.696	22376.62
595.892	22204.59
596.089	22460.59
596.286	22417.58
596.482	22208.69
596.679	22190.25
596.876	22128.81
597.072	21801.14
597.269	21805.24
597.466	21665.97
597.662	21835.95
597.859	21891.25
598.055	21694.64
598.252	21567.67
598.448	21700.79
598.645	21371.07
598.841	21149.89
599.038	21317.82
599.234	21209.28
599.431	20981.95
599.627	20984
599.824	21364.92
600.02	20981.95
600.217	21108.93
600.413	20977.86
600.609	20719.81
600.806	20596.93
601.002	20895.94
601.198	20379.85
601.395	20424.9
601.591	20560.07
601.787	20492.49
601.984	20371.66
602.18	20381.9
602.376	20105.42
602.572	20168.91
602.769	20109.52
602.965	19742.93
603.161	20236.49
603.357	19878.1
603.553	19587.29
603.75	19931.34
603.946	19521.75
604.142	19677.4
604.338	19538.13
604.534	19499.22
604.73	19103.96
604.926	19073.24
605.122	19298.52
605.318	19124.44
605.514	18878.69
605.71	18989.28
605.906	18929.89
606.102	19005.66
606.298	18880.74
606.494	18749.67
606.69	18665.7
606.886	18776.29
607.082	18409.7
607.278	18659.56
607.474	18307.3
607.67	18389.22
607.866	18172.14
608.062	18135.28
608.257	18331.88
608.453	18290.92
608.649	18229.48
608.845	18000.11
609.041	18000.11
609.236	18120.94
609.432	17897.71
609.628	17821.94
609.824	17676.53
610.019	17547.51
610.215	17709.3
610.411	17383.67
610.606	17567.99
610.802	17826.03
610.998	17428.73
611.193	17369.33
611.389	17473.78
611.584	17123.58
611.78	16898.3
611.976	17131.77
612.171	17060.09
612.367	17160.44
612.562	16740.61
612.758	16926.97
612.953	16773.38
613.149	16888.06
613.344	16896.25
613.539	17123.58
613.735	16636.16
613.93	16681.22
614.126	16484.61
614.321	16840.96
614.517	16677.12
614.712	16474.37
614.907	16472.32
615.103	16390.41
615.298	16306.44
615.493	16560.39
615.688	15958.28
615.884	16505.09
616.079	16050.44
616.274	16267.53
616.47	16066.83
616.665	16130.31
616.86	15827.21
617.055	15632.66
617.25	15681.81
617.445	15878.41
617.641	15509.78
617.836	16001.29
618.031	15239.45
618.226	15730.96
618.421	15614.23
618.616	15614.23
618.811	14983.45
619.006	15452.44
619.201	14889.24
619.396	15388.95
619.591	15137.05
619.786	14844.19
619.981	14823.71
620.176	15005.98
620.371	14864.67
620.566	14713.12
620.761	14467.36
620.956	14534.95
621.151	14385.44
621.346	14811.42
621.541	14381.35
621.735	14539.04
621.93	14219.56
622.125	14240.04
622.32	14002.47
622.515	13971.75
622.709	14170.41
622.904	13930.8
623.099	14004.52
623.294	13775.15
623.488	13599.02
623.683	13685.04
623.878	13416.76
624.072	13420.85
624.267	13635.89
624.462	13248.82
624.656	13363.51
624.851	13338.93
625.046	13113.66
625.24	13056.31
625.435	12863.8
625.629	12939.58
625.824	12964.15
626.018	12769.6
626.213	12380.48
626.407	12521.79
626.602	12290.37
626.796	12638.53
626.991	12478.79
627.185	12276.04
627.38	12435.78
627.574	12302.66
627.768	11919.69
627.963	11934.03
628.157	11893.07
628.352	12063.05
628.546	11811.15
628.74	11921.74
628.935	11712.85
629.129	11872.59
629.323	11499.86
629.517	11725.13
629.712	11694.41
629.906	11311.44
630.1	11376.98
630.294	11491.66
630.489	11219.28
630.683	11145.56
630.877	11258.2
631.071	11176.28
631.265	11032.92
631.459	11018.58
631.653	10916.19
631.848	10907.99
632.042	10772.83
632.236	10803.55
632.43	10803.55
632.624	10834.27
632.818	10496.35
633.012	10502.5
633.206	10594.65
633.4	10713.44
633.594	10418.53
633.788	10281.32
633.982	10369.38
634.176	10332.51
634.369	10213.73
634.563	10117.48
634.757	10058.09
634.951	10174.82
635.145	10006.89
635.339	10105.19
635.533	9734.51
635.726	9931.11
635.92	9630.06
636.114	9677.16
636.308	9867.63
636.501	9685.36
636.695	9642.35
636.889	9449.84
637.083	9419.12
637.276	9341.3
637.47	9496.94
637.664	9382.26
637.857	9230.71
638.051	9462.13
638.244	9249.14
638.438	9292.15
638.632	9159.03
638.825	9118.07
639.019	9130.36
639.212	9197.94
639.406	8896.89
639.599	8831.35
639.793	8702.33
639.986	8694.14
640.18	8757.63
640.373	8716.67
640.567	8495.49
640.76	8565.12
640.954	8669.56
641.147	8530.3
641.34	8464.77
641.534	8497.53
641.727	8370.56
641.92	8358.27
642.114	8079.75
642.307	8180.1
642.5	8063.36
642.694	7776.65
642.887	8079.75
643.08	8051.08
643.273	7920.01
643.467	7786.89
643.66	7932.29
643.853	7838.09
644.046	7838.09
644.239	7661.96
644.432	7807.37
644.626	7623.05
644.819	7661.96
645.012	7598.48
645.205	7539.08
645.398	7471.5
645.591	7395.73
645.784	7528.85
645.977	7229.84
646.17	7334.29
646.363	7139.73
646.556	7176.59
646.749	7147.92
646.942	7152.02
647.135	7127.44
647.328	7025.04
647.521	7023
647.714	6730.14
647.907	7066
648.099	6818.2
648.292	6844.82
648.485	6744.47
648.678	6513.05
648.871	6838.68
649.064	6773.14
649.256	6640.03
649.449	6613.4
649.642	6558.11
649.835	6404.51
650.027	6271.39
650.22	6316.45
650.413	6472.09
650.605	6189.47
650.798	6099.36
650.991	5992.87
651.183	6230.43
651.376	5925.29
651.568	5960.1
651.761	5992.87
651.954	5958.05
652.146	5771.69
652.339	5921.19
652.531	5896.61
652.724	5781.93
652.916	5855.65
653.109	5769.64
653.301	5697.96
653.494	5659.05
653.686	5648.81
653.879	5585.32
654.071	5532.08
654.263	5573.03
654.456	5435.82
654.648	5540.27
654.84	5401.01
655.033	5333.42
655.225	5294.51
655.417	5212.59
655.61	5241.26
655.802	5319.09
655.994	5310.89
656.186	5114.29
656.379	5134.77
656.571	5048.75
656.763	5155.25
656.955	4921.78
657.148	4983.22
657.34	4837.81
657.532	4884.92
657.724	4903.35
657.916	4819.38
658.108	4778.42
658.3	4731.32
658.492	4829.62
658.684	4610.49
658.876	4684.22
659.068	4600.25
659.26	4628.92
659.452	4450.75
659.644	4610.49
659.836	4479.42
660.028	4452.8
660.22	4401.6
660.412	4293.05
660.604	4313.53
660.796	4364.73
660.988	4334.01
661.18	4225.47
661.372	4239.81
661.563	4245.95
661.755	4186.56
661.947	4155.84
662.139	4049.35
662.331	3893.7
662.522	4039.11
662.714	3891.65
662.906	3934.66
663.097	3887.56
663.289	3787.21
663.481	3901.89
663.673	3928.52
663.864	3748.29
664.056	3766.73
664.247	3666.38
664.439	3684.81
664.631	3664.33
664.822	3725.77
665.014	3559.88
665.205	3631.56
665.397	3529.16
665.588	3654.09
665.78	3529.16
665.971	3551.69
666.163	3693
666.354	3434.96
666.546	3332.56
666.737	3264.97
666.929	3340.75
667.12	3303.89
667.311	3400.14
667.503	3322.32
667.694	3318.22
667.885	3346.89
668.077	3246.54
668.268	3084.75
668.459	3092.94
668.651	3183.06
668.842	3115.47
669.033	3154.38
669.224	3113.42
669.416	3166.67
669.607	3135.95
669.798	3113.42
669.989	3019.22
670.18	3105.23
670.371	2959.83
670.563	2974.16
670.754	3031.51
670.945	2978.26
671.136	2902.48
671.327	2937.3
671.518	2841.04
671.709	2953.68
671.9	2914.77
672.091	2916.82
672.282	2808.28
672.473	2757.08
672.664	2798.04
672.855	2830.8
673.046	2916.82
673.237	2691.54
673.428	2787.8
673.619	2800.09
673.809	2705.88
674	2660.82
674.191	2818.52
674.382	2757.08
674.573	2775.51
674.764	2771.41
674.954	2613.72
675.145	2650.58
675.336	2720.21
675.527	2666.97
675.717	2595.29
675.908	2566.62
676.099	2574.81
676.289	2773.46
676.48	2599.38
676.671	2607.58
676.861	2558.42
677.052	2673.11
677.243	2568.66
677.433	2640.34
677.624	2623.96
677.814	2554.33
678.005	2509.27
678.195	2527.71
678.386	2496.99
678.576	2458.07
678.767	2451.93
678.957	2486.75
679.148	2552.28
679.338	2548.19
679.529	2390.49
679.719	2537.95
679.909	2476.51
680.1	2507.23
680.29	2468.31
680.481	2431.45
680.671	2535.9
680.861	2386.4
681.052	2462.17
681.242	2435.55
681.432	2501.08
681.622	2384.35
681.813	2437.59
682.003	2386.4
682.193	2372.06
682.383	2415.07
682.573	2394.59
682.764	2386.4
682.954	2370.01
683.144	2443.74
683.334	2427.35
683.524	2378.2
683.714	2492.89
683.904	2394.59
684.094	2476.51
684.284	2425.31
684.474	2372.06
684.664	2456.03
684.854	2259.42
685.044	2247.13
685.234	2372.06
685.424	2386.4
685.614	2333.15
685.804	2402.78
685.994	2484.7
686.184	2435.55
686.374	2310.62
686.564	2398.68
686.753	2394.59
686.943	2365.92
687.133	2372.06
687.323	2343.39
687.513	2363.87
687.702	2374.11
687.892	2355.68
688.082	2279.9
688.272	2370.01
688.461	2394.59
688.651	2316.76
688.841	2439.64
689.03	2419.16
689.22	2320.86
689.41	2386.4
689.599	2351.58
689.789	2386.4
689.979	2408.92
690.168	2421.21
690.358	2363.87
690.547	2367.96
690.737	2370.01
690.926	2337.24
691.116	2273.76
691.305	2468.31
691.495	2341.34
691.684	2402.78
691.874	2404.83
692.063	2384.35
692.252	2318.81
692.442	2384.35
692.631	2410.97
692.82	2406.88
693.01	2327
693.199	2372.06
693.388	2236.89
693.578	2408.92
693.767	2378.2
693.956	2402.78
694.146	2322.91
694.335	2324.96
694.524	2433.5
694.713	2470.36
694.902	2390.49
695.092	2410.97
695.281	2388.44
695.47	2353.63
695.659	2345.44
695.848	2353.63
696.037	2329.05
696.226	2306.52
696.415	2384.35
696.604	2386.4
696.793	2419.16
696.982	2476.51
697.171	2269.66
697.36	2363.87
697.549	2386.4
697.738	2419.16
697.927	2331.1
698.116	2386.4
698.305	2404.83
698.494	2292.19
698.683	2456.03
698.872	2304.48
699.061	2386.4
699.25	2294.24
699.438	2284
699.627	2267.61
699.816	2435.55
700.005	2355.68
700.193	2451.93
700.382	2302.43
700.571	2382.3
700.76	2335.2
700.948	2374.11
701.137	2337.24
701.326	2302.43
701.514	2415.07
701.703	2261.47
701.892	2372.06
702.08	2284
702.269	2429.4
702.457	2357.72
702.646	2265.57
702.834	2316.76
703.023	2271.71
703.212	2294.24
703.4	2218.46
703.589	2134.5
703.777	2263.52
703.965	2212.32
704.154	2214.37
704.342	2165.21
704.531	2181.6
704.719	2132.45
704.907	2255.33
705.096	2120.16
705.284	2173.41
705.472	2232.8
705.661	2157.02
705.849	2124.26
706.037	2169.31
706.226	2177.5
706.414	2073.06
706.602	2120.16
706.79	2171.36
706.979	2050.53
707.167	2093.54
707.355	2083.3
707.543	2136.54
707.731	1999.33
707.919	2101.73
708.107	2058.72
708.296	2060.77
708.484	1964.51
708.672	2046.43
708.86	1987.04
709.048	2095.58
709.236	1870.31
709.424	2075.1
709.612	2066.91
709.8	1978.85
709.988	2073.06
710.176	2066.91
710.364	1937.89
710.551	1966.56
710.739	1913.31
710.927	2021.86
711.115	1950.18
711.303	1892.84
711.491	1913.31
711.679	1810.92
711.866	1862.12
712.054	1888.74
712.242	1929.7
712.43	1898.98
712.617	1841.64
712.805	1837.54
712.993	1901.03
713.181	1782.24
713.368	1767.91
713.556	1829.35
713.744	1788.39
713.931	1872.36
714.119	1833.44
714.306	1757.67
714.494	1804.77
714.682	1845.73
714.869	1755.62
715.057	1755.62
715.244	1790.44
715.432	1753.57
715.619	1704.42
715.807	1757.67
715.994	1704.42
716.182	1812.96
716.369	1632.74
716.556	1681.89
716.744	1628.65
716.931	1657.32
717.119	1651.17
717.306	1571.3
717.493	1612.26
717.681	1763.81
717.868	1649.13
718.055	1663.46
718.242	1573.35
718.43	1651.17
718.617	1569.26
718.804	1620.46
718.991	1616.36
719.179	1546.73
719.366	1575.4
719.553	1559.02
719.74	1649.13
719.927	1591.78
720.114	1536.49
720.301	1608.17
720.488	1602.02
720.676	1575.4
720.863	1518.06
721.05	1509.86
721.237	1567.21
721.424	1462.76
721.611	1497.58
721.798	1403.37
721.985	1534.44
722.172	1552.87
722.358	1470.95
722.545	1395.18
722.732	1354.22
722.919	1378.79
723.106	1366.51
723.293	1386.99
723.48	1462.76
723.667	1292.78
723.853	1403.37
724.04	1421.8
724.227	1309.16
724.414	1374.7
724.6	1386.99
724.787	1268.2
724.974	1454.57
725.161	1313.26
725.347	1286.64
725.534	1327.6
725.72	1370.6
725.907	1290.73
726.094	1315.31
726.28	1272.3
726.467	1405.42
726.653	1214.96
726.84	1305.07
727.027	1325.55
727.213	1251.82
727.4	1120.75
727.586	1292.78
727.773	1255.92
727.959	1235.44
728.145	1288.68
728.332	1325.55
728.518	1245.68
728.705	1167.85
728.891	1239.53
729.077	1190.38
729.264	1184.24
729.45	1251.82
729.636	1210.86
729.823	1288.68
730.009	1169.9
730.195	1239.53
730.382	1210.86
730.568	1233.39
730.754	1188.33
730.94	1264.11
731.126	1139.18
731.313	1217.01
731.499	1153.52
731.685	1212.91
731.871	1165.81
732.057	1190.38
732.243	1204.72
732.429	1174
732.615	1208.81
732.801	1120.75
732.987	1196.53
733.173	1149.42
733.359	1143.28
733.545	1198.57
733.731	1227.25
733.917	1118.7
734.103	1137.13
734.289	1065.46
734.475	1126.89
734.661	1001.97
734.847	1165.81
735.033	1087.98
735.219	1040.88
735.404	1026.54
735.59	1051.12
735.776	1044.98
735.962	924.15
736.148	1114.61
736.333	1028.59
736.519	1100.27
736.705	993.78
736.89	1092.08
737.076	940.53
737.262	973.3
737.447	981.49
737.633	989.68
737.819	948.72
738.004	977.39
738.19	1028.59
738.375	930.29
738.561	1014.26
738.747	903.67
738.932	932.34
739.118	1028.59
739.303	907.76
739.489	969.2
739.674	1022.45
739.859	936.43
740.045	958.96
740.23	909.81
740.416	1020.4
740.601	991.73
740.786	911.86
740.972	954.87
741.157	852.47
741.342	948.72
741.528	944.63
741.713	891.38
741.898	821.75
742.084	877.04
742.269	952.82
742.454	821.75
742.639	891.38
742.824	858.61
743.01	905.71
743.195	977.39
743.38	881.14
743.565	891.38
743.75	846.32
743.935	784.88
744.12	891.38
744.305	819.7
744.49	831.99
744.675	862.71
744.86	844.28
745.045	848.37
745.23	780.79
745.415	881.14
745.6	848.37
745.785	930.29
745.97	815.6
746.155	850.42
746.34	817.65
746.525	766.45
746.71	774.64
746.895	723.44
747.079	727.54
747.264	774.64
747.449	786.93
747.634	758.26
747.819	731.64
748.003	707.06
748.188	766.45
748.373	727.54
748.557	805.36
748.742	707.06
748.927	715.25
749.111	709.11
749.296	717.3
749.481	723.44
749.665	682.49
749.85	700.92
750.034	676.34
750.219	741.88
750.404	662.01
750.588	715.25
750.773	674.29
750.957	733.68
751.141	752.12
751.326	616.95
751.51	723.44
751.695	633.33
751.879	666.1
752.064	629.24
752.248	567.8
752.432	670.2
752.617	657.91
752.801	672.25
752.985	616.95
753.17	700.92
753.354	621.05
753.538	573.94
753.722	514.55
753.907	614.9
754.091	594.42
754.275	571.9
754.459	518.65
754.643	633.33
754.828	668.15
755.012	543.22
755.196	596.47
755.38	553.46
755.564	569.85
755.748	586.23
755.932	606.71
756.116	606.71
756.3	651.77
756.484	569.85
756.668	528.89
756.852	512.5
757.036	586.23
757.22	451.07
757.404	535.03
757.588	547.32
757.772	494.07
757.956	569.85
758.14	524.79
758.323	457.21
758.507	508.41
758.691	485.88
758.875	504.31
759.059	520.7
759.242	502.26
759.426	483.83
759.61	510.46
759.794	492.02
759.977	518.65
760.161	461.3
760.345	440.83
760.528	487.93
760.712	543.22
760.895	469.5
761.079	514.55
761.263	492.02
761.446	473.59
761.63	526.84
761.813	516.6
761.997	412.15
762.18	420.35
762.364	442.87
762.547	512.5
762.731	504.31
762.914	518.65
763.098	449.02
763.281	453.11
763.464	465.4
763.648	424.44
763.831	451.07
764.015	469.5
764.198	516.6
764.381	424.44
764.564	432.63
764.748	494.07
764.931	487.93
765.114	391.67
765.297	358.91
765.481	444.92
765.664	414.2
765.847	381.43
766.03	322.04
766.213	395.77
766.397	496.12
766.58	295.42
766.763	371.19
766.946	365.05
767.129	379.39
767.312	391.67
767.495	406.01
767.678	348.67
767.861	459.26
768.044	397.82
768.227	457.21
768.41	440.83
768.593	375.29
768.776	463.35
768.959	422.39
769.142	446.97
769.324	391.67
769.507	326.14
769.69	393.72
769.873	367.1
770.056	406.01
770.239	455.16
770.421	424.44
770.604	393.72
770.787	387.58
770.97	422.39
771.152	348.67
771.335	346.62
771.518	338.43
771.7	346.62
771.883	428.54
772.066	342.52
772.248	418.3
772.431	371.19
772.613	379.39
772.796	324.09
772.978	379.39
773.161	395.77
773.343	375.29
773.526	315.9
773.708	379.39
773.891	332.28
774.073	387.58
774.256	264.7
774.438	309.76
774.621	317.95
774.803	403.96
774.985	348.67
775.168	346.62
775.35	360.95
775.532	358.91
775.715	389.63
775.897	264.7
776.079	356.86
776.261	320
776.444	317.95
776.626	317.95
776.808	373.24
776.99	291.32
777.173	213.5
777.355	344.57
777.537	285.18
777.719	276.99
777.901	420.35
778.083	346.62
778.265	369.15
778.447	268.8
778.629	252.41
778.811	274.94
778.993	291.32
779.175	283.13
779.357	315.9
779.539	346.62
779.721	258.56
779.903	279.04
780.085	289.28
780.267	342.52
780.449	285.18
780.631	270.84
780.812	301.56
780.994	272.89
781.176	270.84
781.358	311.8
781.54	295.42
781.721	268.8
781.903	193.02
782.085	250.36
782.267	231.93
782.448	217.6
782.63	326.14
782.812	250.36
782.993	190.97
783.175	190.97
783.357	254.46
783.538	193.02
783.72	219.64
783.901	283.13
784.083	240.12
784.264	207.36
784.446	188.93
784.627	223.74
784.809	274.94
784.99	172.54
785.172	293.37
785.353	219.64
785.535	281.08
785.716	166.4
785.897	176.64
786.079	256.51
786.26	219.64
786.441	231.93
786.623	221.69
786.804	209.4
786.985	201.21
787.167	248.32
787.348	240.12
787.529	242.17
787.71	170.49
787.891	227.84
788.073	143.87
788.254	223.74
788.435	219.64
788.616	221.69
788.797	203.26
788.978	227.84
789.159	195.07
789.34	176.64
789.522	180.73
789.703	264.7
789.884	201.21
790.065	193.02
790.246	244.22
790.427	223.74
790.607	274.94
790.788	176.64
790.969	174.59
791.15	100.86
791.331	199.16
791.512	133.63
791.693	225.79
791.874	133.63
792.054	215.55
792.235	258.56
792.416	158.21
792.597	231.93
792.778	113.15
792.958	190.97
793.139	158.21
793.32	223.74
793.5	190.97
793.681	217.6
793.862	154.11
794.042	160.25
794.223	168.45
794.404	174.59
794.584	180.73
794.765	135.68
794.945	195.07
795.126	176.64
795.306	225.79
795.487	137.73
795.667	115.2
795.848	150.01
796.028	121.34
796.209	137.73
796.389	170.49
796.57	170.49
796.75	170.49
796.93	207.36
797.111	129.53
797.291	188.93
797.471	88.57
797.652	111.1
797.832	158.21
798.012	119.29
798.192	139.77
798.373	133.63
798.553	92.67
798.733	160.25
798.913	145.92
799.093	166.4
799.274	152.06
799.454	92.67
799.634	164.35
799.814	231.93
799.994	109.05
800.174	203.26
800.354	127.49
800.534	201.21
800.714	193.02
800.894	94.72
801.074	156.16
801.254	98.81
801.434	119.29
801.614	88.57
801.794	158.21
801.974	352.76
802.154	68.09
802.334	131.58
802.514	147.97
802.693	74.24
802.873	53.76
803.053	113.15
803.233	96.77
803.413	102.91
803.592	199.16
803.772	102.91
803.952	104.96
804.131	45.57
804.311	137.73
804.491	86.53
804.67	102.91
804.85	49.66
805.03	84.48
805.209	193.02
805.389	162.3
805.568	84.48
805.748	160.25
805.928	133.63
806.107	84.48
806.287	6.66
806.466	68.09
806.646	68.09
806.825	100.86
807.004	57.86
807.184	98.81
807.363	150.01
807.543	78.33
807.722	127.49
807.901	94.72
808.081	154.11
808.26	76.29
808.439	53.76
808.619	111.1
808.798	57.86
808.977	131.58
809.156	104.96
809.336	145.92
809.515	113.15
809.694	143.87
809.873	88.57
810.052	90.62
810.231	84.48
810.411	129.53
810.59	104.96
810.769	109.05
810.948	94.72
811.127	115.2
811.306	123.39
811.485	94.72
811.664	49.66
811.843	29.18
812.022	74.24
812.201	53.76
812.38	150.01
812.559	82.43
812.737	94.72
812.916	55.81
813.095	70.14
813.274	100.86
813.453	119.29
813.632	59.9
813.811	37.38
813.989	72.19
814.168	100.86
814.347	51.71
814.526	78.33
814.704	49.66
814.883	29.18
815.062	86.53
815.24	119.29
815.419	104.96
815.598	61.95
815.776	115.2
815.955	59.9
816.133	78.33
816.312	82.43
816.49	123.39
816.669	111.1
816.847	61.95
817.026	-19.97
817.204	80.38
817.383	111.1
817.561	154.11
817.74	61.95
817.918	129.53
818.097	78.33
818.275	-50.69
818.453	92.67
818.632	88.57
818.81	104.96
818.988	59.9
819.167	78.33
819.345	72.19
819.523	88.57
819.701	27.14
819.879	59.9
820.058	88.57
820.236	80.38
820.414	51.71
820.592	25.09
820.77	43.52
820.948	25.09
821.127	31.23
821.305	51.71
821.483	76.29
821.661	68.09
821.839	-5.63
822.017	78.33
822.195	29.18
822.373	90.62
822.551	35.33
822.729	162.3
822.907	43.52
823.085	72.19
823.262	107.01
823.44	49.66
823.618	78.33
823.796	98.81
823.974	41.47
824.152	35.33
824.329	14.85
824.507	12.8
824.685	80.38
824.863	49.66
825.04	76.29
825.218	29.18
825.396	104.96
825.574	25.09
825.751	94.72
825.929	109.05
826.107	20.99
826.284	45.57
826.462	59.9
826.639	68.09
826.817	109.05
826.994	35.33
827.172	49.66
827.349	143.87
827.527	20.99
827.704	27.14
827.882	102.91
828.059	107.01
828.237	76.29
828.414	86.53
828.591	10.75
828.769	61.95
828.946	35.33
829.124	100.86
829.301	35.33
829.478	80.38
829.655	82.43
829.833	49.66
830.01	102.91
830.187	35.33
830.364	98.81
830.542	121.34
830.719	31.23
830.896	80.38
831.073	27.14
831.25	23.04
831.427	31.23
831.604	88.57
831.782	31.23
831.959	51.71
832.136	45.57
832.313	117.25
832.49	96.77
832.667	49.66
832.844	16.9
833.021	98.81
833.198	107.01
833.374	-22.02
833.551	18.94
833.728	92.67
833.905	10.75
834.082	18.94
834.259	35.33
834.436	41.47
834.612	57.86
834.789	20.99
834.966	31.23
835.143	53.76
835.319	68.09
835.496	109.05
835.673	35.33
835.85	82.43
836.026	49.66
836.203	29.18
836.38	25.09
836.556	59.9
836.733	107.01
836.909	20.99
837.086	70.14
837.262	25.09
837.439	14.85
837.616	94.72
837.792	88.57
837.968	-17.92
838.145	55.81
838.321	156.16
838.498	107.01
838.674	74.24
838.851	70.14
839.027	4.61
839.203	80.38
839.38	-34.3
839.556	35.33
839.732	55.81
839.909	82.43
840.085	74.24
840.261	43.52
840.437	55.81
840.614	100.86
840.79	41.47
840.966	41.47
841.142	35.33
841.318	41.47
841.494	100.86
841.671	12.8
841.847	104.96
842.023	51.71
842.199	37.38
842.375	12.8
842.551	76.29
842.727	96.77
842.903	43.52
843.079	76.29
843.255	72.19
843.431	82.43
843.607	35.33
843.783	86.53
843.959	-3.58
844.134	154.11
844.31	82.43
844.486	76.29
844.662	-26.11
844.838	76.29
845.013	-9.73
845.189	-17.92
845.365	12.8
845.541	27.14
845.716	27.14
845.892	12.8
846.068	10.75
846.244	18.94
846.419	84.48
846.595	31.23
846.77	20.99
846.946	49.66
847.122	39.42
847.297	-30.21
847.473	49.66
847.648	-34.3
847.824	53.76
847.999	39.42
848.175	29.18
848.35	59.9
848.526	2.56
848.701	51.71
848.876	162.3
849.052	8.7
849.227	57.86
849.403	18.94
849.578	37.38
849.753	43.52
849.929	107.01
850.104	41.47
850.279	35.33
850.454	20.99
850.63	27.14
850.805	12.8
850.98	57.86
851.155	47.62
851.33	41.47
851.505	25.09
851.681	59.9
851.856	37.38
852.031	94.72
852.206	96.77
852.381	29.18
852.556	-13.82
852.731	-15.87
852.906	80.38
853.081	-17.92
853.256	6.66
853.431	86.53
853.606	90.62
853.781	55.81
853.956	23.04
854.131	-7.68
854.305	27.14
854.48	76.29
854.655	84.48
854.83	6.66
855.005	8.7
855.18	6.66
855.354	31.23
855.529	59.9
855.704	0.51
855.879	27.14
856.053	72.19
856.228	27.14
856.403	51.71
856.577	10.75
856.752	-26.11
856.926	-17.92
857.101	104.96
857.276	45.57
857.45	20.99
857.625	-32.26
857.799	-15.87
857.974	37.38
858.148	35.33
858.323	43.52
858.497	-9.73
858.672	12.8
858.846	47.62
859.02	45.57
859.195	-40.45
859.369	125.44
859.543	10.75
859.718	61.95
859.892	109.05
860.066	51.71
860.241	23.04
860.415	20.99
860.589	84.48
860.763	10.75
860.938	-17.92
861.112	70.14
861.286	31.23
861.46	8.7
861.634	-34.3
861.808	31.23
861.982	35.33
862.157	37.38
862.331	57.86
862.505	33.28
862.679	-30.21
862.853	33.28
863.027	31.23
863.201	20.99
863.375	27.14
863.549	135.68
863.722	-7.68
863.896	-1.54
864.07	-11.78
864.244	39.42
864.418	8.7
864.592	0.51
864.766	57.86
864.939	25.09
865.113	-5.63
865.287	6.66
865.461	4.61
865.634	25.09
865.808	72.19
865.982	121.34
866.156	33.28
866.329	18.94
866.503	-5.63
866.676	51.71
866.85	76.29
867.024	59.9
867.197	64
867.371	33.28
867.544	57.86
867.718	25.09
867.891	2.56
868.065	18.94
868.238	2.56
868.412	55.81
868.585	-11.78
868.759	41.47
868.932	-5.63
869.105	74.24
869.279	43.52
869.452	25.09
869.625	-46.59
869.799	4.61
869.972	49.66
870.145	39.42
870.319	51.71
870.492	74.24
870.665	55.81
870.838	-1.54
871.011	29.18
871.185	59.9
871.358	0.51
871.531	4.61
871.704	82.43
871.877	27.14
872.05	-28.16
872.223	18.94
872.396	29.18
872.569	33.28
872.742	25.09
872.915	-50.69
873.088	-1.54
873.261	59.9
873.434	-5.63
873.607	-11.78
873.78	27.14
873.953	61.95
874.126	41.47
874.299	4.61
874.471	-69.12
874.644	-11.78
874.817	59.9
874.99	14.85
875.163	70.14
875.335	4.61
875.508	-44.54
875.681	37.38
875.853	-26.11
876.026	102.91
876.199	8.7
876.371	55.81
876.544	8.7
876.717	-5.63
876.889	18.94
877.062	53.76
877.234	-26.11
877.407	4.61
877.579	8.7
877.752	35.33
877.924	27.14
878.097	10.75
878.269	12.8
878.442	-19.97
878.614	20.99
878.786	8.7
878.959	-22.02
879.131	-11.78
879.303	8.7
879.476	86.53
879.648	12.8
879.82	35.33
879.993	2.56
880.165	68.09
880.337	12.8
880.509	64
880.681	23.04
880.854	70.14
881.026	70.14
881.198	43.52
881.37	-36.35
881.542	-36.35
881.714	4.61
881.886	14.85
882.058	57.86
882.23	55.81
882.402	-38.4
882.574	68.09
882.746	6.66
882.918	6.66
883.09	14.85
883.262	-38.4
883.434	43.52
883.606	2.56
883.778	2.56
883.95	-7.68
884.122	35.33
884.293	68.09
884.465	14.85
884.637	23.04
884.809	43.52
884.98	2.56
885.152	14.85
885.324	18.94
885.496	27.14
885.667	27.14
885.839	-28.16
886.011	37.38
886.182	61.95
886.354	37.38
886.525	18.94
886.697	-22.02
886.869	45.57
887.04	31.23
887.212	111.1
887.383	8.7
887.555	18.94
887.726	59.9
887.897	-52.74
888.069	27.14
888.24	2.56
888.412	-13.82
888.583	-52.74
888.754	12.8
888.926	2.56
889.097	55.81
889.268	4.61
889.44	59.9
889.611	-11.78
889.782	-22.02
889.953	-22.02
890.125	41.47
890.296	-50.69
890.467	-9.73
890.638	-3.58
890.809	41.47
890.98	-67.07
891.151	4.61
891.323	-13.82
891.494	102.91
891.665	33.28
891.836	53.76
892.007	12.8
892.178	31.23
892.349	84.48
892.52	55.81
892.691	45.57
892.862	-26.11
893.032	-50.69
893.203	51.71
893.374	51.71
893.545	2.56
893.716	16.9
893.887	-9.73
894.057	33.28
894.228	6.66
894.399	-15.87
894.57	20.99
894.74	45.57
894.911	2.56
895.082	-3.58
895.253	-19.97
895.423	76.29
895.594	27.14
895.764	20.99
895.935	-75.26
896.106	107.01
896.276	18.94
896.447	55.81
896.617	61.95
896.788	20.99
896.958	23.04
897.129	39.42
897.299	4.61
897.47	-11.78
897.64	68.09
897.81	33.28
897.981	12.8
898.151	10.75
898.322	-19.97
898.492	31.23
898.662	14.85
898.832	88.57
899.003	92.67
899.173	-3.58
899.343	23.04
899.513	41.47
