Data from USB4F104151__123__13-57-53-338.txt Node

Date: Thu Mar 13 13:57:53 EDT 2025
User: louis
Spectrometer: USB4F10415
Trigger mode: 4
Integration Time (sec): 1.000000E-2
Scans to average: 1
Electric dark correction enabled: true
Nonlinearity correction enabled: false
Boxcar width: 0
XAxis mode: Wavelengths
Number of Pixels in Spectrum: 3648
>>>>>Begin Spectral Data<<<<<
178.204	-44.2
178.424	-44.2
178.644	-44.2
178.864	-60.59
179.084	-83.11
179.304	-62.63
179.524	47.96
179.744	17.24
179.964	-7.34
180.184	4.95
180.404	72.53
180.624	-58.54
180.844	-7.34
181.064	-15.53
181.283	54.1
181.503	-1.19
181.723	-44.2
181.943	-11.43
182.163	-33.96
182.383	7
182.602	4.95
182.822	-19.63
183.042	19.29
183.262	13.14
183.482	-9.39
183.701	0.85
183.921	17.24
184.141	-50.35
184.361	-44.2
184.58	64.34
184.8	-25.77
185.02	-36.01
185.239	19.29
185.459	-60.59
185.679	-48.3
185.898	-48.3
186.118	11.09
186.338	-9.39
186.557	15.19
186.777	-7.34
186.997	-27.82
187.216	-56.49
187.436	37.72
187.655	-50.35
187.875	60.24
188.095	-1.19
188.314	41.81
188.534	-7.34
188.753	60.24
188.973	-17.58
189.192	25.43
189.412	-11.43
189.631	-29.87
189.851	0.85
190.07	-19.63
190.29	-15.53
190.509	-44.2
190.729	-46.25
190.948	41.81
191.168	11.09
191.387	-38.06
191.607	-72.87
191.826	-42.15
192.045	15.19
192.265	-62.63
192.484	-36.01
192.704	-64.68
192.923	-44.2
193.142	56.15
193.362	-40.11
193.581	0.85
193.8	-50.35
194.02	-1.19
194.239	-40.11
194.458	-60.59
194.678	33.62
194.897	35.67
195.116	-23.72
195.335	-25.77
195.555	-83.11
195.774	11.09
195.993	-29.87
196.212	-11.43
196.432	-109.74
196.651	37.72
196.87	-70.83
197.089	39.76
197.308	2.9
197.528	-52.39
197.747	-38.06
197.966	-13.48
198.185	27.48
198.404	-13.48
198.623	-27.82
198.842	72.53
199.062	15.19
199.281	-33.96
199.5	-58.54
199.719	-11.43
199.938	4.95
200.157	33.62
200.376	52.05
200.595	-21.67
200.814	25.43
201.033	33.62
201.252	-23.72
201.471	-27.82
201.69	-36.01
201.909	-52.39
202.128	47.96
202.347	2.9
202.566	47.96
202.785	-11.43
203.004	35.67
203.223	45.91
203.442	21.33
203.661	2.9
203.879	-9.39
204.098	74.58
204.317	-62.63
204.536	80.72
204.755	33.62
204.974	13.14
205.193	-74.92
205.411	0.85
205.63	-15.53
205.849	29.52
206.068	35.67
206.287	11.09
206.505	25.43
206.724	17.24
206.943	23.38
207.162	-62.63
207.381	25.43
207.599	13.14
207.818	23.38
208.037	2.9
208.255	-68.78
208.474	-19.63
208.693	-5.29
208.911	29.52
209.13	2.9
209.349	-9.39
209.567	-21.67
209.786	-48.3
210.005	-54.44
210.223	-21.67
210.442	97.11
210.661	9.05
210.879	2.9
211.098	15.19
211.316	33.62
211.535	37.72
211.753	-19.63
211.972	-23.72
212.191	29.52
212.409	17.24
212.628	-31.91
212.846	-9.39
213.065	-7.34
213.283	25.43
213.502	-46.25
213.72	41.81
213.938	17.24
214.157	-11.43
214.375	7
214.594	31.57
214.812	-7.34
215.031	25.43
215.249	-44.2
215.467	54.1
215.686	25.43
215.904	45.91
216.122	7
216.341	33.62
216.559	-50.35
216.778	9.05
216.996	-3.24
217.214	-23.72
217.432	-38.06
217.651	-31.91
217.869	11.09
218.087	17.24
218.306	7
218.524	23.38
218.742	-3.24
218.96	23.38
219.179	-23.72
219.397	-3.24
219.615	-13.48
219.833	27.48
220.051	19.29
220.27	64.34
220.488	45.91
220.706	-11.43
220.924	23.38
221.142	-9.39
221.36	-70.83
221.578	-13.48
221.796	4.95
222.015	4.95
222.233	39.76
222.451	84.82
222.669	-1.19
222.887	33.62
223.105	-42.15
223.323	-3.24
223.541	-48.3
223.759	-11.43
223.977	4.95
224.195	52.05
224.413	7
224.631	-25.77
224.849	-44.2
225.067	31.57
225.285	15.19
225.503	45.91
225.721	29.52
225.939	31.57
226.157	72.53
226.375	70.48
226.592	-52.39
226.81	9.05
227.028	15.19
227.246	-27.82
227.464	-89.26
227.682	-54.44
227.9	-3.24
228.117	23.38
228.335	-5.29
228.553	-27.82
228.771	101.2
228.989	-81.07
229.206	23.38
229.424	27.48
229.642	4.95
229.86	-36.01
230.077	25.43
230.295	-23.72
230.513	23.38
230.731	15.19
230.948	56.15
231.166	-5.29
231.384	-17.58
231.601	-64.68
231.819	11.09
232.037	-81.07
232.254	-58.54
232.472	21.33
232.689	54.1
232.907	43.86
233.125	11.09
233.342	-19.63
233.56	-46.25
233.777	31.57
233.995	-13.48
234.213	-58.54
234.43	-89.26
234.648	-83.11
234.865	-7.34
235.083	-33.96
235.3	-7.34
235.518	9.05
235.735	-38.06
235.953	99.16
236.17	-3.24
236.388	-3.24
236.605	0.85
236.822	-36.01
237.04	31.57
237.257	4.95
237.475	-17.58
237.692	72.53
237.909	13.14
238.127	-1.19
238.344	23.38
238.562	45.91
238.779	-25.77
238.996	35.67
239.214	-33.96
239.431	-25.77
239.648	33.62
239.865	-1.19
240.083	9.05
240.3	-1.19
240.517	-19.63
240.735	-36.01
240.952	-83.11
241.169	-19.63
241.386	-99.5
241.603	-29.87
241.821	-19.63
242.038	35.67
242.255	72.53
242.472	-3.24
242.689	-48.3
242.907	37.72
243.124	-15.53
243.341	-27.82
243.558	-62.63
243.775	43.86
243.992	-25.77
244.209	2.9
244.426	11.09
244.643	-3.24
244.86	-25.77
245.078	56.15
245.295	-19.63
245.512	25.43
245.729	-52.39
245.946	-50.35
246.163	-3.24
246.38	-3.24
246.597	-40.11
246.814	-76.97
247.031	39.76
247.248	-36.01
247.464	-44.2
247.681	33.62
247.898	-54.44
248.115	-33.96
248.332	-44.2
248.549	64.34
248.766	4.95
248.983	-23.72
249.2	88.92
249.417	9.05
249.633	-19.63
249.85	-33.96
250.067	-36.01
250.284	-72.87
250.501	29.52
250.717	50
250.934	13.14
251.151	-3.24
251.368	11.09
251.585	19.29
251.801	-23.72
252.018	-25.77
252.235	-1.19
252.451	-17.58
252.668	4.95
252.885	4.95
253.102	7
253.318	-23.72
253.535	-9.39
253.752	19.29
253.968	-17.58
254.185	-19.63
254.401	-42.15
254.618	11.09
254.835	-31.91
255.051	-19.63
255.268	4.95
255.484	17.24
255.701	7
255.917	35.67
256.134	29.52
256.351	-58.54
256.567	25.43
256.784	-19.63
257	-79.02
257.217	-29.87
257.433	17.24
257.65	-15.53
257.866	0.85
258.082	23.38
258.299	-19.63
258.515	41.81
258.732	-52.39
258.948	29.52
259.165	45.91
259.381	7
259.597	-1.19
259.814	105.3
260.03	-25.77
260.246	45.91
260.463	31.57
260.679	99.16
260.895	4.95
261.112	-29.87
261.328	15.19
261.544	29.52
261.761	13.14
261.977	37.72
262.193	-81.07
262.409	21.33
262.626	-38.06
262.842	-64.68
263.058	4.95
263.274	64.34
263.49	35.67
263.707	0.85
263.923	33.62
264.139	-27.82
264.355	23.38
264.571	47.96
264.787	-64.68
265.004	13.14
265.22	17.24
265.436	-21.67
265.652	-5.29
265.868	43.86
266.084	50
266.3	-17.58
266.516	37.72
266.732	4.95
266.948	9.05
267.164	70.48
267.38	31.57
267.596	17.24
267.812	76.63
268.028	7
268.244	-66.73
268.46	-9.39
268.676	0.85
268.892	-1.19
269.108	-29.87
269.324	-76.97
269.54	13.14
269.756	-9.39
269.972	-19.63
270.188	31.57
270.403	-3.24
270.619	17.24
270.835	-23.72
271.051	-21.67
271.267	-27.82
271.483	-62.63
271.698	7
271.914	39.76
272.13	4.95
272.346	84.82
272.562	13.14
272.777	-27.82
272.993	-40.11
273.209	-3.24
273.425	-66.73
273.64	-7.34
273.856	43.86
274.072	4.95
274.287	19.29
274.503	54.1
274.719	11.09
274.934	25.43
275.15	-52.39
275.366	0.85
275.581	-5.29
275.797	-1.19
276.012	64.34
276.228	-3.24
276.444	-11.43
276.659	50
276.875	-40.11
277.09	-1.19
277.306	21.33
277.521	21.33
277.737	-11.43
277.952	-31.91
278.168	23.38
278.383	-31.91
278.599	17.24
278.814	-25.77
279.03	-3.24
279.245	-17.58
279.461	39.76
279.676	-13.48
279.892	-46.25
280.107	101.2
280.322	50
280.538	0.85
280.753	-46.25
280.969	70.48
281.184	56.15
281.399	-3.24
281.615	70.48
281.83	-11.43
282.045	-25.77
282.26	21.33
282.476	-17.58
282.691	33.62
282.906	-31.91
283.122	39.76
283.337	0.85
283.552	-27.82
283.767	-15.53
283.983	-33.96
284.198	-17.58
284.413	-33.96
284.628	-40.11
284.843	9.05
285.058	52.05
285.274	-31.91
285.489	-52.39
285.704	21.33
285.919	-25.77
286.134	-40.11
286.349	-83.11
286.564	-44.2
286.779	-74.92
286.995	-5.29
287.21	2.9
287.425	-5.29
287.64	-85.16
287.855	-44.2
288.07	25.43
288.285	39.76
288.5	56.15
288.715	2.9
288.93	-52.39
289.145	97.11
289.36	-46.25
289.575	17.24
289.79	-11.43
290.004	-25.77
290.219	37.72
290.434	-15.53
290.649	-19.63
290.864	-19.63
291.079	35.67
291.294	-87.21
291.509	33.62
291.724	39.76
291.938	-33.96
292.153	15.19
292.368	-33.96
292.583	50
292.798	11.09
293.012	-36.01
293.227	13.14
293.442	-52.39
293.657	9.05
293.871	74.58
294.086	142.16
294.301	21.33
294.516	9.05
294.73	-3.24
294.945	-7.34
295.16	52.05
295.374	56.15
295.589	-9.39
295.804	2.9
296.018	-9.39
296.233	64.34
296.447	-3.24
296.662	21.33
296.877	-25.77
297.091	19.29
297.306	-29.87
297.52	-91.31
297.735	15.19
297.949	-7.34
298.164	21.33
298.378	29.52
298.593	-23.72
298.807	-103.59
299.022	-62.63
299.236	-29.87
299.451	39.76
299.665	-3.24
299.88	-101.55
300.094	-29.87
300.309	78.68
300.523	33.62
300.737	56.15
300.952	-29.87
301.166	0.85
301.381	43.86
301.595	25.43
301.809	27.48
302.024	-5.29
302.238	-42.15
302.452	-54.44
302.667	66.39
302.881	7
303.095	21.33
303.309	0.85
303.524	-17.58
303.738	-3.24
303.952	0.85
304.166	-3.24
304.381	-93.35
304.595	2.9
304.809	-1.19
305.023	-27.82
305.237	-13.48
305.452	29.52
305.666	9.05
305.88	47.96
306.094	54.1
306.308	-3.24
306.522	27.48
306.736	29.52
306.95	31.57
307.164	17.24
307.379	-19.63
307.593	35.67
307.807	2.9
308.021	45.91
308.235	4.95
308.449	-3.24
308.663	0.85
308.877	-74.92
309.091	37.72
309.305	35.67
309.519	-50.35
309.733	-50.35
309.947	7
310.161	-50.35
310.374	-42.15
310.588	64.34
310.802	23.38
311.016	23.38
311.23	29.52
311.444	-52.39
311.658	-7.34
311.872	47.96
312.085	2.9
312.299	-7.34
312.513	31.57
312.727	11.09
312.941	39.76
313.154	33.62
313.368	-19.63
313.582	37.72
313.796	43.86
314.009	27.48
314.223	-5.29
314.437	21.33
314.651	88.92
314.864	29.52
315.078	0.85
315.292	-60.59
315.505	-9.39
315.719	78.68
315.933	45.91
316.146	-17.58
316.36	-33.96
316.573	37.72
316.787	-5.29
317.001	17.24
317.214	-13.48
317.428	-23.72
317.641	-29.87
317.855	-9.39
318.068	47.96
318.282	86.87
318.495	-17.58
318.709	70.48
318.922	-15.53
319.136	11.09
319.349	7
319.563	-15.53
319.776	-27.82
319.99	-58.54
320.203	0.85
320.417	-1.19
320.63	27.48
320.843	45.91
321.057	-21.67
321.27	-15.53
321.483	21.33
321.697	4.95
321.91	-9.39
322.124	70.48
322.337	4.95
322.55	-81.07
322.763	37.72
322.977	25.43
323.19	-40.11
323.403	60.24
323.617	-58.54
323.83	-5.29
324.043	-15.53
324.256	0.85
324.469	-21.67
324.683	86.87
324.896	-23.72
325.109	13.14
325.322	9.05
325.535	-1.19
325.748	-1.19
325.962	-36.01
326.175	39.76
326.388	17.24
326.601	-42.15
326.814	-36.01
327.027	-68.78
327.24	33.62
327.453	-1.19
327.666	-7.34
327.879	72.53
328.092	7
328.305	25.43
328.518	29.52
328.731	13.14
328.944	-3.24
329.157	35.67
329.37	17.24
329.583	13.14
329.796	101.2
330.009	27.48
330.222	-52.39
330.435	31.57
330.648	-64.68
330.861	-1.19
331.073	58.2
331.286	33.62
331.499	-19.63
331.712	-15.53
331.925	84.82
332.138	62.29
332.35	17.24
332.563	-19.63
332.776	-5.29
332.989	72.53
333.202	23.38
333.414	-58.54
333.627	70.48
333.84	60.24
334.053	7
334.265	-40.11
334.478	86.87
334.691	9.05
334.903	21.33
335.116	7
335.329	13.14
335.541	-66.73
335.754	4.95
335.966	-44.2
336.179	-21.67
336.392	-15.53
336.604	-33.96
336.817	35.67
337.029	52.05
337.242	35.67
337.454	50
337.667	-13.48
337.88	-5.29
338.092	4.95
338.305	35.67
338.517	-48.3
338.729	39.76
338.942	4.95
339.154	-13.48
339.367	-50.35
339.579	103.25
339.792	-25.77
340.004	31.57
340.217	-19.63
340.429	21.33
340.641	37.72
340.854	25.43
341.066	0.85
341.278	23.38
341.491	66.39
341.703	7
341.915	-9.39
342.128	76.63
342.34	-36.01
342.552	-11.43
342.764	11.09
342.977	78.68
343.189	-33.96
343.401	17.24
343.613	-31.91
343.826	52.05
344.038	72.53
344.25	4.95
344.462	17.24
344.674	9.05
344.886	-15.53
345.099	-27.82
345.311	-48.3
345.523	-66.73
345.735	-64.68
345.947	-1.19
346.159	-36.01
346.371	2.9
346.583	64.34
346.795	23.38
347.007	56.15
347.219	33.62
347.431	-1.19
347.643	47.96
347.855	13.14
348.067	50
348.279	-11.43
348.491	4.95
348.703	54.1
348.915	39.76
349.127	-11.43
349.339	35.67
349.551	45.91
349.763	-9.39
349.975	64.34
350.187	70.48
350.399	41.81
350.61	37.72
350.822	-1.19
351.034	4.95
351.246	54.1
351.458	-25.77
351.669	-25.77
351.881	56.15
352.093	-9.39
352.305	82.77
352.517	21.33
352.728	7
352.94	45.91
353.152	4.95
353.363	-48.3
353.575	2.9
353.787	27.48
353.999	15.19
354.21	39.76
354.422	11.09
354.633	-13.48
354.845	-21.67
355.057	-44.2
355.268	25.43
355.48	21.33
355.692	-3.24
355.903	9.05
356.115	58.2
356.326	-7.34
356.538	31.57
356.749	70.48
356.961	-40.11
357.172	-15.53
357.384	2.9
357.595	-19.63
357.807	19.29
358.018	-9.39
358.23	21.33
358.441	-1.19
358.653	19.29
358.864	54.1
359.075	15.19
359.287	-19.63
359.498	-9.39
359.709	33.62
359.921	19.29
360.132	-13.48
360.344	27.48
360.555	7
360.766	21.33
360.977	-21.67
361.189	45.91
361.4	-68.78
361.611	23.38
361.823	41.81
362.034	37.72
362.245	-40.11
362.456	15.19
362.667	-50.35
362.879	-68.78
363.09	13.14
363.301	9.05
363.512	-42.15
363.723	-29.87
363.935	23.38
364.146	66.39
364.357	-5.29
364.568	-7.34
364.779	21.33
364.99	0.85
365.201	27.48
365.412	-7.34
365.623	43.86
365.834	41.81
366.045	43.86
366.256	37.72
366.467	-13.48
366.678	41.81
366.889	-46.25
367.1	25.43
367.311	13.14
367.522	-60.59
367.733	-3.24
367.944	-19.63
368.155	97.11
368.366	60.24
368.577	45.91
368.788	7
368.999	-3.24
369.209	62.29
369.42	-1.19
369.631	66.39
369.842	-46.25
370.053	-15.53
370.264	60.24
370.474	-38.06
370.685	17.24
370.896	11.09
371.107	9.05
371.317	11.09
371.528	37.72
371.739	35.67
371.95	-13.48
372.16	19.29
372.371	4.95
372.582	-25.77
372.792	7
373.003	62.29
373.214	101.2
373.424	-3.24
373.635	39.76
373.846	33.62
374.056	0.85
374.267	45.91
374.477	50
374.688	39.76
374.898	7
375.109	37.72
375.319	66.39
375.53	31.57
375.74	50
375.951	111.44
376.161	45.91
376.372	11.09
376.582	82.77
376.793	-15.53
377.003	-15.53
377.214	25.43
377.424	17.24
377.635	31.57
377.845	4.95
378.055	-7.34
378.266	-21.67
378.476	-27.82
378.686	-66.73
378.897	80.72
379.107	21.33
379.317	2.9
379.528	-62.63
379.738	45.91
379.948	105.3
380.158	29.52
380.369	-15.53
380.579	25.43
380.789	-5.29
380.999	9.05
381.21	29.52
381.42	43.86
381.63	39.76
381.84	41.81
382.05	17.24
382.261	9.05
382.471	56.15
382.681	41.81
382.891	0.85
383.101	76.63
383.311	56.15
383.521	-15.53
383.731	-27.82
383.941	54.1
384.151	54.1
384.361	-13.48
384.571	-74.92
384.781	21.33
384.991	2.9
385.201	43.86
385.411	29.52
385.621	2.9
385.831	-44.2
386.041	-36.01
386.251	0.85
386.461	47.96
386.671	86.87
386.881	15.19
387.091	-5.29
387.301	-11.43
387.511	9.05
387.72	23.38
387.93	45.91
388.14	47.96
388.35	25.43
388.56	-17.58
388.769	23.38
388.979	101.2
389.189	17.24
389.399	58.2
389.609	62.29
389.818	78.68
390.028	13.14
390.238	23.38
390.447	64.34
390.657	45.91
390.867	43.86
391.076	-29.87
391.286	13.14
391.496	41.81
391.705	-58.54
391.915	119.64
392.125	50
392.334	-5.29
392.544	23.38
392.753	47.96
392.963	23.38
393.172	62.29
393.382	58.2
393.591	82.77
393.801	56.15
394.01	31.57
394.22	109.4
394.429	88.92
394.639	23.38
394.848	21.33
395.058	105.3
395.267	9.05
395.477	23.38
395.686	-25.77
395.895	7
396.105	103.25
396.314	82.77
396.524	-38.06
396.733	-7.34
396.942	97.11
397.152	62.29
397.361	50
397.57	27.48
397.78	-3.24
397.989	-1.19
398.198	84.82
398.407	52.05
398.617	41.81
398.826	64.34
399.035	31.57
399.244	62.29
399.453	80.72
399.663	103.25
399.872	158.55
400.081	7
400.29	88.92
400.499	9.05
400.708	78.68
400.917	37.72
401.127	76.63
401.336	-36.01
401.545	146.26
401.754	113.49
401.963	107.35
402.172	109.4
402.381	4.95
402.59	66.39
402.799	35.67
403.008	70.48
403.217	60.24
403.426	62.29
403.635	58.2
403.844	95.06
404.053	129.88
404.262	86.87
404.471	113.49
404.68	47.96
404.888	78.68
405.097	50
405.306	129.88
405.515	121.68
405.724	105.3
405.933	148.31
406.142	105.3
406.35	115.54
406.559	138.07
406.768	179.03
406.977	209.75
407.185	187.22
407.394	160.59
407.603	148.31
407.812	164.69
408.02	136.02
408.229	142.16
408.438	138.07
408.646	154.45
408.855	148.31
409.064	197.46
409.272	107.35
409.481	217.94
409.69	246.61
409.898	244.56
410.107	273.23
410.315	318.29
410.524	291.66
410.733	283.47
410.941	312.14
411.15	248.66
411.358	310.1
411.567	262.99
411.775	324.43
411.984	361.3
412.192	328.53
412.401	293.71
412.609	367.44
412.818	369.49
413.026	430.93
413.234	394.06
413.443	428.88
413.651	416.59
413.86	422.73
414.068	504.65
414.276	445.26
414.485	514.89
414.693	451.41
414.901	576.33
415.11	564.04
415.318	549.71
415.526	570.19
415.734	510.8
415.943	631.63
416.151	695.11
416.359	678.73
416.567	648.01
416.776	695.11
416.984	660.3
417.192	746.31
417.4	762.7
417.608	672.59
417.817	787.27
418.025	924.49
418.233	832.33
418.441	904.01
418.649	983.88
418.857	928.58
419.065	963.4
419.273	1086.28
419.481	1016.65
419.689	1037.13
419.897	1153.86
420.105	1219.39
420.313	1200.96
420.521	1168.2
420.729	1258.31
420.937	1372.99
421.145	1540.93
421.353	1475.39
421.561	1432.38
421.769	1459.01
421.977	1643.32
422.185	1585.98
422.393	1712.96
422.601	1688.38
422.809	1815.35
423.017	1817.4
423.224	1919.8
423.432	2030.39
423.64	2009.91
423.848	1993.53
424.056	2173.75
424.263	2327.35
424.471	2282.29
424.679	2304.82
424.887	2386.74
425.094	2466.61
425.302	2519.85
425.51	2579.25
425.718	2724.65
425.925	2628.4
426.133	2863.91
426.341	2951.98
426.548	3025.7
426.756	3138.34
426.964	3205.92
427.171	3238.69
427.379	3435.3
427.586	3414.82
427.794	3416.87
428.001	3816.22
428.209	4004.63
428.417	3791.64
428.624	4156.18
428.832	4147.99
429.039	4086.55
429.247	4072.22
429.454	4510.48
429.662	4741.9
429.869	4584.21
430.076	4723.47
430.284	4518.67
430.491	4893.45
430.699	5149.45
430.906	5016.33
431.114	5194.5
431.321	5436.16
431.528	5464.83
431.736	5868.28
431.943	6138.62
432.15	5755.65
432.358	5888.76
432.565	6382.32
432.772	6175.48
432.979	6408.95
433.187	6681.33
433.394	6740.72
433.601	7185.13
433.808	7369.44
434.016	7275.24
434.223	7504.61
434.43	7944.92
434.637	7768.8
434.844	8229.59
435.052	8510.16
435.259	8434.39
435.466	8504.02
435.673	8534.74
435.88	8696.53
436.087	9437.89
436.294	9353.93
436.501	9304.78
436.708	9292.49
436.915	9654.98
437.122	10042.04
437.329	10146.49
437.537	10494.65
437.743	10566.32
437.95	10418.87
438.157	11162.28
438.364	11039.4
438.571	11145.9
438.778	11279.02
438.985	12339.87
439.192	11770.53
439.399	12464.79
439.606	12288.67
439.813	12874.38
440.02	13580.93
440.227	13374.09
440.433	13165.2
440.64	13570.69
440.847	13507.21
441.054	13896.32
441.261	14754.42
441.467	14410.36
441.674	14946.93
441.881	15493.74
442.088	15370.86
442.294	15483.5
442.501	15606.38
442.708	15981.15
442.914	16573.02
443.121	17156.69
443.328	16867.92
443.534	17760.84
443.741	17298
443.948	17427.02
444.154	18616.89
444.361	18457.15
444.568	18379.32
444.774	18618.94
444.981	18672.18
445.187	19132.98
445.394	20015.65
445.6	19730.98
445.807	21557.77
446.013	20951.57
446.22	21125.65
446.426	22049.28
446.633	22049.28
446.839	22819.32
447.046	21979.65
447.252	23325.17
447.459	23196.15
447.665	23226.87
447.871	24433.12
448.078	25018.84
448.284	24017.38
448.491	24637.92
448.697	25477.58
448.903	26190.28
449.11	26020.3
449.316	25704.91
449.522	26153.41
449.728	26638.78
449.935	26948.03
450.141	27109.82
450.347	27339.19
450.553	26661.31
450.76	27306.42
450.966	27845.04
451.172	27589.04
451.378	28103.08
451.584	27537.84
451.791	28389.8
451.997	28359.08
452.203	28791.2
452.409	28854.69
452.615	28905.88
452.821	27361.72
453.027	27312.56
453.233	28793.25
453.44	27482.55
453.646	27730.35
453.852	27496.88
454.058	28676.51
454.264	27197.88
454.47	28064.17
454.676	27316.66
454.882	28408.23
455.088	25981.38
455.294	26241.48
455.5	26724.8
455.705	26907.07
455.911	25856.46
456.117	24979.93
456.323	24984.02
456.529	23607.79
456.735	24840.67
456.941	23966.18
457.147	23597.55
457.352	22759.93
457.558	22868.47
457.764	22864.38
457.97	22278.66
458.176	21783.05
458.381	21793.29
458.587	20517.4
458.793	20830.74
458.999	19765.8
459.204	21066.26
459.41	20619.8
459.616	19116.59
459.821	19337.77
460.027	19374.64
460.233	18823.73
460.438	17928.77
460.644	17986.11
460.85	17334.86
461.055	16958.03
461.261	16716.37
461.466	15776.36
461.672	15143.53
461.878	16194.14
462.083	15415.91
462.289	14797.43
462.494	14674.55
462.7	14262.91
462.905	13712
463.111	14113.41
463.316	14103.17
463.522	13877.89
463.727	13965.95
463.932	14078.59
464.138	13890.18
464.343	14062.21
464.549	13507.21
464.754	13863.55
464.959	13761.16
465.165	13587.08
465.37	13275.79
465.575	12667.54
465.781	13349.51
465.986	13415.05
466.191	12987.02
466.397	12509.85
466.602	12012.19
466.807	12472.98
467.012	12460.7
467.218	12436.12
467.423	12122.78
467.628	12505.75
467.833	12827.28
468.038	12399.26
468.244	12044.96
468.449	12487.32
468.654	11776.67
468.859	12108.44
469.064	11874.98
469.269	11782.82
469.474	11709.09
469.679	11784.87
469.885	11287.21
470.09	11743.91
470.295	11700.9
470.5	11262.63
470.705	11248.3
470.91	11074.22
471.115	10928.81
471.32	11158.19
471.525	10965.68
471.73	10738.35
471.935	10660.53
472.139	10482.36
472.344	10355.38
472.549	10627.76
472.754	10298.04
472.959	10154.68
473.164	9925.31
473.369	9747.14
473.574	10173.11
473.778	9884.35
473.983	9949.89
474.188	9976.51
474.393	9530.05
474.598	9554.63
474.802	9366.21
475.007	9480.9
475.212	9280.2
475.417	8919.76
475.621	9224.9
475.826	9106.12
476.031	8719.06
476.235	8700.62
476.44	8778.45
476.645	8592.08
476.849	8688.34
477.054	8463.06
477.259	8524.5
477.463	8276.7
477.668	8147.67
477.872	8407.77
478.077	8086.23
478.282	8010.46
478.486	8082.14
478.691	7895.77
478.895	7971.55
479.1	7650.02
479.304	7811.81
479.509	7568.1
479.713	7658.21
479.918	7502.56
480.122	7498.47
480.326	7561.95
480.531	7666.4
480.735	7541.47
480.94	7338.73
481.144	7561.95
481.348	7379.68
481.553	7391.97
481.757	7234.28
481.961	7385.83
482.166	7252.71
482.37	7299.81
482.574	7168.74
482.778	7373.54
482.983	7379.68
483.187	7301.86
483.391	7416.55
483.595	7201.51
483.8	7262.95
484.004	7281.38
484.208	7394.02
484.412	7271.14
484.616	7299.81
484.821	7394.02
485.025	7193.32
485.229	7328.49
485.433	7295.72
485.637	7150.31
485.841	7269.09
486.045	7203.56
486.249	7262.95
486.453	7236.33
486.657	7387.88
486.861	7344.87
487.065	7148.26
487.269	7078.63
487.473	6974.19
487.677	7379.68
487.881	7387.88
488.085	7295.72
488.289	7197.42
488.493	7256.81
488.697	7365.35
488.901	7189.22
489.105	7246.57
489.309	7348.97
489.512	7426.79
489.716	7289.57
489.92	7324.39
490.124	7320.29
490.328	7568.1
490.531	7510.75
490.735	7424.74
490.939	7459.56
491.143	7426.79
491.346	7455.46
491.55	7504.61
491.754	7531.23
491.958	7686.88
492.161	7574.24
492.365	7844.57
492.569	7680.74
492.772	7695.07
492.976	7946.97
493.18	7924.44
493.383	7756.51
493.587	7922.4
493.79	8106.71
493.994	7918.3
494.197	8116.95
494.401	8035.03
494.605	8073.95
494.808	8454.87
495.012	8164.06
495.215	8317.65
495.419	8487.64
495.622	8225.5
495.825	8606.42
496.029	8561.36
496.232	8727.25
496.436	8530.64
496.639	8874.7
496.843	8809.17
497.046	8977.1
497.249	9036.49
497.453	9292.49
497.656	9159.37
497.859	9222.86
498.063	9482.95
498.266	9634.5
498.469	9523.91
498.673	9614.02
498.876	9910.97
499.079	9933.5
499.282	9947.84
499.485	10283.7
499.689	10091.2
499.892	10476.21
500.095	10494.65
500.298	10691.25
500.501	10496.69
500.705	10914.48
500.908	11154.09
501.111	11098.8
501.314	11115.18
501.517	11432.61
501.72	11403.94
501.923	11561.64
502.126	11797.15
502.329	11805.35
502.532	12126.88
502.735	12151.45
502.938	12112.54
503.141	12323.48
503.344	12561.05
503.547	12413.59
503.75	12509.85
503.953	12958.35
504.156	13181.58
504.359	13146.76
504.562	13150.86
504.765	13589.13
504.968	13777.54
505.17	13937.28
505.373	14082.69
505.576	14183.04
505.779	14236.28
505.982	14447.22
506.185	14840.43
506.387	14918.26
506.59	15131.25
506.793	15270.51
506.996	15239.79
507.198	15774.31
507.401	15716.97
507.604	15678.05
507.807	16091.74
508.009	16271.97
508.212	16210.53
508.415	16509.53
508.617	16802.39
508.82	16974.42
509.022	16775.77
509.225	17283.66
509.428	17642.06
509.63	17599.05
509.833	17617.48
510.035	18219.58
510.238	18000.45
510.44	18430.52
510.643	18782.77
510.845	18776.63
511.048	18836.02
511.25	19380.78
511.453	19534.38
511.655	20132.39
511.858	19757.61
512.06	19972.64
512.262	20560.41
512.465	20406.81
512.667	20617.75
512.87	21041.68
513.072	21133.84
513.274	21430.8
513.477	21357.07
513.679	21967.37
513.881	22180.35
514.084	22499.84
514.286	22577.66
514.488	22827.51
514.69	23319.03
514.893	23269.87
515.095	23511.53
515.297	23962.09
515.499	23894.5
515.701	24146.4
515.904	24629.73
516.106	24674.78
516.308	24900.06
516.51	25260.5
516.712	25319.89
516.914	25565.65
517.116	25876.94
517.318	25981.38
517.52	26438.08
517.722	26573.25
517.925	26962.36
518.127	27122.1
518.329	27605.42
518.531	27677.1
518.733	28092.84
518.935	28230.05
519.136	28144.04
519.338	28615.07
519.54	28823.97
519.742	29450.64
519.944	29309.33
520.146	29649.3
520.348	29944.2
520.55	30181.77
520.752	30433.67
520.954	30769.54
521.155	30679.43
521.357	31244.66
521.559	31510.9
521.761	32119.15
521.963	31998.32
522.164	31932.78
522.366	32233.83
522.568	32502.12
522.77	32883.04
522.971	33274.2
523.173	33065.31
523.375	33509.72
523.576	33769.81
523.778	33673.56
523.98	33943.89
524.181	34459.98
524.383	34406.73
524.584	34720.07
524.786	34879.81
524.988	34990.4
525.189	35721.52
525.391	35670.33
525.592	35662.13
525.794	35764.53
525.995	35852.59
526.197	35973.42
526.398	36104.49
526.6	36344.11
526.801	36466.98
527.003	36581.67
527.204	36944.16
527.406	36923.68
527.607	37091.62
527.808	37437.72
528.01	36798.76
528.211	37159.2
528.412	37837.08
528.614	38037.78
528.815	37419.29
529.016	38146.32
529.218	37957.91
529.419	38082.83
529.62	38291.73
529.822	37947.67
530.023	38301.96
530.224	38517
530.425	38402.32
530.626	38238.48
530.828	38523.15
531.029	39139.58
531.23	38773
531.431	38863.11
531.632	38985.99
531.833	39004.42
532.035	39174.4
532.236	38934.79
532.437	39317.76
532.638	39102.72
532.839	39305.47
533.04	39393.53
533.241	38961.41
533.442	39590.14
533.643	39432.44
533.844	39473.4
534.045	39788.79
534.246	39274.75
534.447	39913.72
534.648	39262.46
534.849	39579.9
535.05	39690.49
535.251	39497.98
535.451	39411.96
535.652	39225.6
535.853	39272.7
536.054	39815.41
536.255	39799.03
536.456	39780.6
536.657	39911.67
536.857	39885.04
537.058	39704.82
537.259	40206.58
537.46	39995.64
537.66	39981.3
537.861	39598.33
538.062	39858.42
538.263	40136.94
538.463	39569.66
538.664	39835.89
538.865	39786.74
539.065	39860.47
539.266	39608.57
539.466	39864.57
539.667	39880.95
539.868	40370.41
540.068	39618.81
540.269	39678.2
540.469	40358.13
540.67	39842.04
540.87	39639.29
541.071	39641.34
541.271	40202.48
541.472	39938.29
541.672	39436.54
541.873	39903.48
542.073	39481.59
542.274	40038.64
542.474	39897.33
542.675	39700.73
542.875	39696.63
543.075	39878.9
543.276	39522.55
543.476	39549.18
543.676	39985.4
543.877	39993.59
544.077	39440.64
544.277	39350.52
544.478	39883
544.678	39819.51
544.878	39805.17
545.078	39909.62
545.279	39839.99
545.479	39676.15
545.679	39774.45
545.879	39708.92
546.079	40018.16
546.28	39624.95
546.48	39436.54
546.68	39616.76
546.88	39319.81
547.08	39684.34
547.28	39870.71
547.48	39221.5
547.68	39977.2
547.88	39422.2
548.081	40009.97
548.281	39741.69
548.481	39534.84
548.681	40292.59
548.881	39813.37
549.081	39852.28
549.28	39643.38
549.48	39747.83
549.68	39272.7
549.88	40124.66
550.08	39477.5
550.28	39608.57
550.48	39811.32
550.68	39936.24
550.88	39751.93
551.08	39354.62
551.279	39837.94
551.479	39444.73
551.679	39397.63
551.879	39592.19
552.079	39735.54
552.278	39772.41
552.478	39753.97
552.678	39741.69
552.878	40001.78
553.077	39667.96
553.277	39182.59
553.477	39790.84
553.676	39244.03
553.876	39368.96
554.076	39637.24
554.275	39287.04
554.475	38934.79
554.674	39207.17
554.874	39633.14
555.074	38930.69
555.273	39010.56
555.473	39225.6
555.672	39164.16
555.872	39274.75
556.071	38785.29
556.271	39055.62
556.47	38824.2
556.67	38453.51
556.869	38832.39
557.068	38965.51
557.268	38621.45
557.467	38899.97
557.667	38527.24
557.866	38715.65
558.065	39121.15
558.265	38435.08
558.464	38543.63
558.663	38807.81
558.863	38203.66
559.062	38850.82
559.261	37996.82
559.461	38525.19
559.66	37953.81
559.859	38088.98
560.058	37972.24
560.258	38166.8
560.457	37742.87
560.656	38373.64
560.855	38170.89
561.054	38312.2
561.253	37619.99
561.453	37820.69
561.652	37921.04
561.851	37787.92
562.05	37806.36
562.249	37632.28
562.448	37789.97
562.647	37857.56
562.846	37757.21
563.045	37284.12
563.244	37359.9
563.443	37628.18
563.642	37222.69
563.841	37069.09
564.04	37161.25
564.239	37267.74
564.438	36471.08
564.637	37359.9
564.836	36966.69
565.035	36704.55
565.234	36901.15
565.432	36639.01
565.631	36677.93
565.83	36866.34
566.029	36509.99
566.228	36905.25
566.427	36454.7
566.625	36714.79
566.824	36301.1
567.023	36571.43
567.222	35721.52
567.42	36262.19
567.619	35895.6
567.818	35701.04
568.016	35782.96
568.215	36184.37
568.414	35805.49
568.612	35889.46
568.811	35684.66
569.01	35574.07
569.208	35176.76
569.407	35551.54
569.605	35248.44
569.804	35416.38
570.002	35221.82
570.201	35383.61
570.4	34844.99
570.598	34666.82
570.797	34146.64
570.995	34851.14
571.193	34208.08
571.392	34804.03
571.59	34287.95
571.789	34419.02
571.987	34656.58
572.186	34021.71
572.384	34066.77
572.582	34257.23
572.781	34322.76
572.979	33724.75
573.177	33544.53
573.376	33902.93
573.574	33530.2
573.772	33769.81
573.971	33425.75
574.169	33382.74
574.367	33128.8
574.565	33442.14
574.763	33202.52
574.962	33116.51
575.16	32516.45
575.358	33278.3
575.556	32237.93
575.754	33007.97
575.952	32813.41
576.151	32622.95
576.349	32156.01
576.547	32414.05
576.745	32340.33
576.943	32418.15
577.141	32125.29
577.339	32018.8
577.537	32063.85
577.735	31805.81
577.933	31676.79
578.131	31770.99
578.329	31617.39
578.527	31347.06
578.725	31414.65
578.923	31535.48
579.121	31222.14
579.319	31506.8
579.516	31308.15
579.714	31234.42
579.912	30781.82
580.11	30740.86
580.308	30794.11
580.506	30822.78
580.704	30208.39
580.901	30644.61
581.099	30843.26
581.297	30316.93
581.495	30316.93
581.692	30513.54
581.89	29766.03
582.088	29979.02
582.285	29931.92
582.483	30169.48
582.681	29735.31
582.878	29454.74
583.076	29618.58
583.274	29583.76
583.471	29198.74
583.669	29507.99
583.866	29350.29
584.064	29245.85
584.262	28897.69
584.459	29389.2
584.657	28643.74
584.854	29387.16
585.052	28381.6
585.249	28842.4
585.447	29014.43
585.644	28420.52
585.841	28543.39
586.039	28826.01
586.236	28260.77
586.434	28164.52
586.631	28201.38
586.828	27951.53
587.026	27976.11
587.223	27611.57
587.42	27832.75
587.618	27986.35
587.815	27724.21
588.012	27695.53
588.21	27457.97
588.407	27984.3
588.604	27302.32
588.801	27204.02
588.999	27244.98
589.196	27001.27
589.393	27210.17
589.59	26923.45
589.787	26753.47
589.984	26968.51
590.182	26673.6
590.379	27204.02
590.576	26614.21
590.773	26806.72
590.97	26485.19
591.167	26573.25
591.364	26202.57
591.561	26339.78
591.758	25938.38
591.955	25985.48
592.152	26237.38
592.349	26075.59
592.546	25649.61
592.743	25694.67
592.94	25725.39
593.137	25485.78
593.334	25762.25
593.531	25256.4
593.727	25385.43
593.924	25407.95
594.121	25293.27
594.318	25563.6
594.515	25117.14
594.712	25194.96
594.908	24941.02
595.105	24979.93
595.302	24662.49
595.499	24889.82
595.696	24756.7
595.892	24410.59
596.089	24648.16
596.286	24797.66
596.482	24312.29
596.679	24267.24
596.876	24347.11
597.072	24056.29
597.269	24240.61
597.466	24046.05
597.662	23677.42
597.859	24039.91
598.055	23908.84
598.252	23812.59
598.448	23949.8
598.645	23532.01
598.841	23706.09
599.038	23523.82
599.234	23724.52
599.431	23398.9
599.627	23280.11
599.824	23435.76
600.02	22977.01
600.217	23249.39
600.413	23161.33
600.609	22987.25
600.806	23022.07
601.002	22800.89
601.198	22788.6
601.395	22813.18
601.591	22743.55
601.787	22606.33
601.984	22499.84
602.18	22450.69
602.376	22413.82
602.572	21953.03
602.769	22317.57
602.965	21953.03
603.161	22249.99
603.357	21858.82
603.553	21654.03
603.75	21805.58
603.946	21678.6
604.142	21758.47
604.338	21627.4
604.534	21475.85
604.73	21385.74
604.926	21277.2
605.122	21434.89
605.318	21506.57
605.514	21301.78
605.71	21144.08
605.906	21350.93
606.102	20836.89
606.298	21168.66
606.494	20879.89
606.69	21162.51
606.886	20902.42
607.082	20406.81
607.278	20888.09
607.474	20386.33
607.67	20455.97
607.866	20630.04
608.062	20601.37
608.257	20193.83
608.453	20140.58
608.649	20648.47
608.845	20288.03
609.041	20249.12
609.236	20376.09
609.432	19825.19
609.628	19874.34
609.824	20081.19
610.019	19866.15
610.215	19819.05
610.411	19614.25
610.606	19907.11
610.802	19722.79
610.998	19522.09
611.193	19757.61
611.389	19427.88
611.584	19583.53
611.78	19481.13
611.976	19171.89
612.171	19202.61
612.367	19173.94
612.562	19130.93
612.758	19104.31
612.953	18885.17
613.149	19175.98
613.344	18987.57
613.539	19358.25
613.735	18852.41
613.93	18842.17
614.126	18780.73
614.321	19175.98
614.517	18747.96
614.712	18901.56
614.907	18725.43
615.103	18737.72
615.298	18539.07
615.493	18588.22
615.688	18283.07
615.884	18543.16
616.079	18209.34
616.274	18512.44
616.47	18270.78
616.665	18022.98
616.86	18078.27
617.055	18285.12
617.25	17947.2
617.445	18334.27
617.641	17683.02
617.836	18152
618.031	17640.01
618.226	17699.4
618.421	17726.02
618.616	18123.33
618.811	17740.36
619.006	17945.16
619.201	17218.13
619.396	17556.04
619.591	17109.58
619.786	17535.56
619.981	17306.19
620.176	17338.96
620.371	16970.32
620.566	17203.79
620.761	16826.96
620.956	16962.13
621.151	16689.75
621.346	16603.74
621.541	16437.85
621.735	16736.85
621.93	16382.56
622.125	16419.42
622.32	16323.16
622.515	16396.89
622.709	16233.05
622.904	16024.16
623.099	15897.19
623.294	15911.52
623.488	15676.01
623.683	15776.36
623.878	15506.02
624.072	15438.44
624.267	15391.34
624.462	15639.14
624.656	15196.78
624.851	15403.63
625.046	15057.52
625.24	15159.92
625.435	14867.06
625.629	15082.1
625.824	14893.68
626.018	14774.9
626.213	14512.76
626.407	14561.91
626.602	14633.59
626.796	14316.15
626.991	14475.9
627.185	14185.08
627.38	14142.08
627.574	14008.96
627.768	13867.65
627.963	14027.39
628.157	13992.58
628.352	13830.79
628.546	13691.52
628.74	13425.29
628.935	13548.17
629.129	13623.94
629.323	13304.46
629.517	13144.72
629.712	13392.52
629.906	13400.71
630.1	12946.06
630.294	13140.62
630.489	13087.37
630.683	13050.51
630.877	12884.62
631.071	12808.85
631.265	12851.86
631.459	12849.81
631.653	12606.1
631.848	12673.68
632.042	12657.3
632.236	12661.4
632.43	12515.99
632.624	12214.94
632.818	12102.3
633.012	12198.56
633.206	12419.74
633.4	12139.16
633.594	11895.46
633.788	12124.83
633.982	12110.49
634.176	11858.59
634.369	11860.64
634.563	11899.55
634.757	11739.81
634.951	11621.03
635.145	11674.28
635.339	11782.82
635.533	11485.86
635.726	11569.83
635.92	11195.05
636.114	11313.83
636.308	11156.14
636.501	11096.75
636.695	11176.62
636.889	10881.71
637.083	10951.34
637.276	10973.87
637.47	10785.46
637.664	10773.17
637.857	10937.01
638.051	10801.84
638.244	10578.61
638.438	10801.84
638.632	10531.51
638.825	10451.64
639.019	10271.42
639.212	10478.26
639.406	10197.69
639.599	10234.55
639.793	10488.5
639.986	10185.4
640.18	10160.83
640.373	9945.79
640.567	9857.73
640.76	9810.62
640.954	9851.58
641.147	9839.3
641.34	9892.54
641.534	9546.44
641.727	9847.49
641.92	9462.47
642.114	9593.54
642.307	9413.32
642.5	9454.28
642.694	9259.72
642.887	9474.76
643.08	9171.66
643.273	9204.42
643.467	9134.79
643.66	9016.01
643.853	9061.07
644.046	8909.52
644.239	9034.44
644.432	8938.19
644.626	8813.26
644.819	8854.22
645.012	8835.79
645.205	8583.89
645.398	8790.74
645.591	8518.36
645.784	8471.25
645.977	8338.13
646.17	8583.89
646.363	8346.33
646.556	7983.84
646.749	8346.33
646.942	8393.43
647.135	8426.2
647.328	8059.61
647.521	8112.86
647.714	7824.09
647.907	7867.1
648.099	7959.26
648.292	7989.98
648.485	7820
648.678	7746.27
648.871	7705.31
649.064	7746.27
649.256	7686.88
649.449	7674.59
649.642	7670.5
649.835	7389.92
650.027	7385.83
650.22	7590.63
650.413	7340.77
650.605	7293.67
650.798	7449.32
650.991	7256.81
651.183	7418.6
651.376	7140.07
651.568	7267.05
651.761	7238.37
651.954	7062.25
652.146	7027.43
652.339	6939.37
652.531	6951.66
652.724	6828.78
652.916	6828.78
653.109	6931.18
653.301	6869.74
653.494	6744.81
653.686	6673.14
653.879	6857.45
654.071	6593.26
654.263	6454
654.456	6648.56
654.648	6628.08
654.84	6425.33
655.033	6501.11
655.225	6333.17
655.417	6460.15
655.61	6435.57
655.802	6247.16
655.994	6298.36
656.186	6333.17
656.379	6263.54
656.571	6085.37
656.763	6099.7
656.955	5939.96
657.148	6019.83
657.34	6017.79
657.532	5905.15
657.724	5753.6
657.916	5888.76
658.108	5755.65
658.3	5769.98
658.492	5886.72
658.684	5700.35
658.876	5714.69
659.068	5796.6
659.26	5528.32
659.452	5522.18
659.644	5374.72
659.836	5640.96
660.028	5718.78
660.22	5337.86
660.412	5595.9
660.604	5288.71
660.796	5434.11
660.988	5270.28
661.18	5348.1
661.372	5200.65
661.563	5327.62
661.755	5088.01
661.947	5243.65
662.139	5026.57
662.331	5221.13
662.522	5018.38
662.714	4934.41
662.906	4979.47
663.097	5012.23
663.289	4922.12
663.481	4928.27
663.673	4965.13
663.864	4877.07
664.056	4737.81
664.247	4922.12
664.439	4795.15
664.631	4901.64
664.822	4719.37
665.014	4625.17
665.205	4639.5
665.397	4707.09
665.588	4662.03
665.78	4657.93
665.971	4469.52
666.163	4559.63
666.354	4485.9
666.546	4498.19
666.737	4406.03
666.929	4438.8
667.12	4334.36
667.311	4410.13
667.503	4199.19
667.694	4328.21
667.885	4342.55
668.077	4328.21
668.268	4272.92
668.459	4381.46
668.651	4342.55
668.842	4219.67
669.033	4070.17
669.224	4080.41
669.416	4256.53
669.607	4074.26
669.798	4107.03
669.989	4295.44
670.18	4043.54
670.371	3941.15
670.563	3891.99
670.754	3920.67
670.945	3982.1
671.136	3906.33
671.327	3959.58
671.518	3969.82
671.709	3896.09
671.9	3818.27
672.091	3709.72
672.282	3793.69
672.473	3746.59
672.664	3793.69
672.855	3779.36
673.046	3758.88
673.237	3627.81
673.428	3748.64
673.619	3631.9
673.809	3619.61
674	3623.71
674.191	3652.38
674.382	3529.5
674.573	3666.72
674.764	3711.77
674.954	3588.89
675.145	3443.49
675.336	3509.02
675.527	3527.46
675.717	3509.02
675.908	3519.26
676.099	3521.31
676.289	3353.38
676.48	3408.67
676.671	3343.14
676.861	3334.95
677.052	3420.96
677.243	3365.67
677.433	3455.78
677.624	3318.56
677.814	3418.91
678.005	3304.23
678.195	3300.13
678.386	3322.66
678.576	3156.77
678.767	3232.55
678.957	3281.7
679.148	3197.73
679.338	3216.16
679.529	3197.73
679.719	3144.49
679.909	3263.27
680.1	3148.58
680.29	3037.99
680.481	3054.37
680.671	3097.38
680.861	3054.37
681.052	3205.92
681.242	3160.87
681.432	3111.72
681.622	3111.72
681.813	2933.54
682.003	3033.9
682.193	3095.33
682.383	3099.43
682.573	2931.5
682.764	2951.98
682.954	3175.2
683.144	2900.78
683.334	3027.75
683.524	3037.99
683.714	2900.78
683.904	2994.98
684.094	2945.83
684.284	2925.35
684.474	2841.39
684.664	2808.62
684.854	2792.23
685.044	2784.04
685.234	2835.24
685.424	2779.95
685.614	2892.59
685.804	2775.85
685.994	2724.65
686.184	2900.78
686.374	2859.82
686.564	2745.13
686.753	2757.42
686.943	2777.9
687.133	2741.04
687.323	2833.19
687.513	2638.64
687.702	2841.39
687.892	2632.49
688.082	2743.08
688.272	2751.28
688.461	2745.13
688.651	2655.02
688.841	2665.26
689.03	2679.6
689.22	2589.49
689.41	2689.84
689.599	2671.4
689.789	2675.5
689.979	2691.88
690.168	2718.51
690.358	2601.77
690.547	2659.12
690.737	2593.58
690.926	2599.73
691.116	2595.63
691.305	2634.54
691.495	2620.21
691.684	2599.73
691.874	2708.27
692.063	2573.1
692.252	2585.39
692.442	2644.78
692.631	2540.33
692.82	2503.47
693.01	2652.97
693.199	2501.42
693.388	2630.45
693.578	2702.12
693.767	2693.93
693.956	2575.15
694.146	2487.09
694.335	2468.66
694.524	2521.9
694.713	2513.71
694.902	2532.14
695.092	2587.44
695.281	2562.86
695.47	2644.78
695.659	2528.05
695.848	2595.63
696.037	2464.56
696.226	2532.14
696.415	2579.25
696.604	2562.86
696.793	2507.57
696.982	2501.42
697.171	2446.13
697.36	2609.97
697.549	2364.21
697.738	2460.46
697.927	2497.33
698.116	2556.72
698.305	2491.18
698.494	2554.67
698.683	2505.52
698.872	2511.66
699.061	2489.14
699.25	2571.05
699.438	2454.32
699.627	2452.27
699.816	2534.19
700.005	2485.04
700.193	2478.9
700.382	2528.05
700.571	2413.36
700.76	2429.74
700.948	2589.49
701.137	2409.26
701.326	2487.09
701.514	2464.56
701.703	2425.65
701.892	2415.41
702.08	2470.7
702.269	2521.9
702.457	2427.7
702.646	2493.23
702.834	2497.33
703.023	2470.7
703.212	2278.19
703.4	2435.89
703.589	2362.16
703.777	2409.26
703.965	2366.26
704.154	2425.65
704.342	2405.17
704.531	2282.29
704.719	2331.44
704.907	2362.16
705.096	2360.11
705.284	2282.29
705.472	2403.12
705.661	2259.76
705.849	2366.26
706.037	2452.27
706.226	2372.4
706.414	2198.32
706.602	2212.66
706.79	2282.29
706.979	2372.4
707.167	2198.32
707.355	2100.02
707.543	2222.9
707.731	2247.48
707.919	2145.08
708.107	2243.38
708.296	2220.85
708.484	2229.04
708.672	2118.45
708.86	2145.08
709.048	2247.48
709.236	2278.19
709.424	2251.57
709.612	2276.15
709.8	1997.62
709.988	2237.24
710.176	2315.06
710.364	2306.87
710.551	2061.11
710.739	1966.9
710.927	2204.47
711.115	2241.33
711.303	2089.78
711.491	1966.9
711.679	1958.71
711.866	2087.73
712.054	2151.22
712.242	2022.2
712.43	2009.91
712.617	1946.42
712.805	2087.73
712.993	1925.94
713.181	1979.19
713.368	1962.81
713.556	1993.53
713.744	1911.61
713.931	1973.05
714.119	2001.72
714.306	1899.32
714.494	2003.77
714.682	1983.29
714.869	1938.23
715.057	1862.46
715.244	1954.62
715.432	1950.52
715.619	1907.51
715.807	1966.9
715.994	1874.74
716.182	2003.77
716.369	1930.04
716.556	1952.57
716.744	1905.46
716.931	1719.1
717.119	1809.21
717.306	1874.74
717.493	1743.67
717.681	1862.46
717.868	1864.5
718.055	1833.79
718.242	1712.96
718.43	1821.5
718.617	1880.89
718.804	1819.45
718.991	1815.35
719.179	1831.74
719.366	1803.07
719.553	1622.84
719.74	1794.87
719.927	1727.29
720.114	1696.57
720.301	1663.8
720.488	1708.86
720.676	1708.86
720.863	1745.72
721.05	1692.48
721.237	1676.09
721.424	1669.95
721.611	1672
721.798	1737.53
721.985	1624.89
722.172	1628.99
722.358	1575.74
722.545	1626.94
722.732	1659.71
722.919	1612.6
723.106	1561.41
723.293	1530.69
723.48	1602.36
723.667	1553.21
723.853	1502.01
724.04	1553.21
724.227	1545.02
724.414	1594.17
724.6	1545.02
724.787	1579.84
724.974	1579.84
725.161	1487.68
725.347	1573.69
725.534	1499.97
725.72	1530.69
725.907	1555.26
726.094	1532.73
726.28	1454.91
726.467	1438.53
726.653	1442.62
726.84	1579.84
727.027	1393.47
727.213	1522.49
727.4	1422.14
727.586	1391.42
727.773	1434.43
727.959	1411.9
728.145	1456.96
728.332	1411.9
728.518	1426.24
728.705	1436.48
728.891	1356.61
729.077	1350.46
729.264	1399.62
729.45	1375.04
729.636	1416
729.823	1272.64
730.009	1334.08
730.195	1424.19
730.382	1301.31
730.568	1262.4
730.754	1385.28
730.94	1409.86
731.126	1264.45
731.313	1317.7
731.499	1291.07
731.685	1364.8
731.871	1289.03
732.057	1299.27
732.243	1329.99
732.429	1235.78
732.615	1340.22
732.801	1321.79
732.987	1289.03
733.173	1346.37
733.359	1254.21
733.545	1338.18
733.731	1317.7
733.917	1293.12
734.103	1250.11
734.289	1225.54
734.475	1258.31
734.661	1219.39
734.847	1258.31
735.033	1227.59
735.219	1221.44
735.404	1180.48
735.59	1184.58
735.776	1164.1
735.962	1241.92
736.148	1172.29
736.333	1213.25
736.519	1219.39
736.705	1137.48
736.89	1205.06
737.076	1172.29
737.262	1200.96
737.447	1190.72
737.633	1178.44
737.819	1260.35
738.004	1041.22
738.19	1135.43
738.375	1147.72
738.561	1065.8
738.747	1192.77
738.932	1207.11
739.118	1164.1
739.303	1182.53
739.489	1096.52
739.674	1043.27
739.859	1094.47
740.045	1092.42
740.23	1135.43
740.416	1030.98
740.601	1121.09
740.786	1149.76
740.972	1022.79
741.157	1008.45
741.342	1024.84
741.528	1137.48
741.713	940.87
741.898	985.93
742.084	1102.66
742.269	1035.08
742.454	1102.66
742.639	1076.04
742.824	1045.32
743.01	1059.65
743.195	1076.04
743.38	967.49
743.565	1024.84
743.75	1090.37
743.935	973.64
744.12	1016.65
744.305	992.07
744.49	967.49
744.675	963.4
744.86	934.73
745.045	1012.55
745.23	981.83
745.415	1051.46
745.6	967.49
745.785	969.54
745.97	883.53
746.155	920.39
746.34	863.05
746.525	942.92
746.71	904.01
746.895	963.4
747.079	981.83
747.264	865.1
747.449	928.58
747.634	867.14
747.819	916.3
748.003	867.14
748.188	770.89
748.373	846.66
748.557	854.86
748.742	807.75
748.927	787.27
749.111	850.76
749.296	842.57
749.481	904.01
749.665	820.04
749.85	797.51
750.034	768.84
750.219	891.72
750.404	719.69
750.588	813.9
750.773	783.18
750.957	815.94
751.141	693.07
751.326	691.02
751.51	674.64
751.695	801.61
751.879	865.1
752.064	729.93
752.248	650.06
752.432	779.08
752.617	803.66
752.801	738.12
752.985	713.55
753.17	717.64
753.354	688.97
753.538	605
753.722	699.21
753.907	664.4
754.091	652.11
754.275	656.2
754.459	650.06
754.643	639.82
754.828	758.6
755.012	633.68
755.196	703.31
755.38	680.78
755.564	654.16
755.748	623.44
755.932	650.06
756.116	715.59
756.3	623.44
756.484	635.72
756.668	596.81
756.852	676.68
757.036	668.49
757.22	623.44
757.404	529.23
757.588	545.61
757.772	611.15
757.956	623.44
758.14	545.61
758.323	588.62
758.507	580.43
758.691	572.24
758.875	623.44
759.059	652.11
759.242	592.72
759.426	621.39
759.61	592.72
759.794	533.33
759.977	494.41
760.161	562
760.345	496.46
760.528	568.14
760.712	590.67
760.895	564.04
761.079	658.25
761.263	494.41
761.446	582.48
761.63	564.04
761.813	590.67
761.997	500.56
762.18	547.66
762.364	566.09
762.547	508.75
762.731	469.84
762.914	508.75
763.098	482.13
763.281	471.89
763.464	521.04
763.648	549.71
763.831	516.94
764.015	473.93
764.198	533.33
764.381	521.04
764.564	496.46
764.748	605
764.931	512.85
765.114	525.13
765.297	557.9
765.481	435.02
765.664	441.17
765.847	508.75
766.03	504.65
766.213	494.41
766.397	525.13
766.58	521.04
766.763	498.51
766.946	435.02
767.129	426.83
767.312	500.56
767.495	459.6
767.678	449.36
767.861	562
768.044	416.59
768.227	414.54
768.41	459.6
768.593	527.18
768.776	404.3
768.959	525.13
769.142	402.26
769.324	383.82
769.507	435.02
769.69	525.13
769.873	449.36
770.056	447.31
770.239	432.97
770.421	529.23
770.604	367.44
770.787	494.41
770.97	449.36
771.152	508.75
771.335	482.13
771.518	330.58
771.7	445.26
771.883	449.36
772.066	471.89
772.248	422.73
772.431	475.98
772.613	402.26
772.796	410.45
772.978	437.07
773.161	455.5
773.343	447.31
773.526	473.93
773.708	451.41
773.891	400.21
774.073	531.28
774.256	418.64
774.438	389.97
774.621	426.83
774.803	445.26
774.985	469.84
775.168	371.54
775.35	355.15
775.532	455.5
775.715	381.78
775.897	349.01
776.079	332.62
776.261	373.58
776.444	398.16
776.626	387.92
776.808	420.69
776.99	293.71
777.173	375.63
777.355	367.44
777.537	283.47
777.719	277.33
777.901	359.25
778.083	344.91
778.265	265.04
778.447	363.34
778.629	316.24
778.811	381.78
778.993	326.48
779.175	308.05
779.357	262.99
779.539	314.19
779.721	332.62
779.903	316.24
780.085	283.47
780.267	299.86
780.449	330.58
780.631	312.14
780.812	306
780.994	332.62
781.176	340.82
781.358	230.23
781.54	201.55
781.721	238.42
781.903	262.99
782.085	281.43
782.267	269.14
782.448	262.99
782.63	283.47
782.812	224.08
782.993	271.19
783.175	299.86
783.357	346.96
783.538	277.33
783.72	303.95
783.901	185.17
784.083	271.19
784.264	193.36
784.446	111.44
784.627	320.34
784.809	228.18
784.99	226.13
785.172	226.13
785.353	277.33
785.535	297.81
785.716	211.79
785.897	234.32
786.079	207.7
786.26	291.66
786.441	209.75
786.623	183.12
786.804	226.13
786.985	187.22
787.167	306
787.348	232.27
787.529	183.12
787.71	193.36
787.891	240.47
788.073	168.79
788.254	252.75
788.435	168.79
788.616	219.99
788.797	193.36
788.978	299.86
789.159	144.21
789.34	217.94
789.522	154.45
789.703	211.79
789.884	152.4
790.065	160.59
790.246	215.89
790.427	246.61
790.607	166.74
790.788	222.03
790.969	162.64
791.15	197.46
791.331	271.19
791.512	164.69
791.693	226.13
791.874	228.18
792.054	219.99
792.235	201.55
792.416	127.83
792.597	144.21
792.778	154.45
792.958	166.74
793.139	156.5
793.32	215.89
793.5	123.73
793.681	203.6
793.862	148.31
794.042	222.03
794.223	152.4
794.404	129.88
794.584	99.16
794.765	195.41
794.945	93.01
795.126	193.36
795.306	109.4
795.487	152.4
795.667	158.55
795.848	176.98
796.028	176.98
796.209	119.64
796.389	121.68
796.57	144.21
796.75	195.41
796.93	74.58
797.111	209.75
797.291	179.03
797.471	142.16
797.652	138.07
797.832	50
798.012	148.31
798.192	119.64
798.373	58.2
798.553	99.16
798.733	144.21
798.913	103.25
799.093	203.6
799.274	129.88
799.454	140.12
799.634	183.12
799.814	142.16
799.994	109.4
800.174	162.64
800.354	113.49
800.534	117.59
800.714	172.88
800.894	129.88
801.074	80.72
801.254	74.58
801.434	133.97
801.614	95.06
801.794	107.35
801.974	322.38
802.154	162.64
802.334	107.35
802.514	70.48
802.693	23.38
802.873	185.17
803.053	150.36
803.233	111.44
803.413	86.87
803.592	115.54
803.772	99.16
803.952	117.59
804.131	101.2
804.311	162.64
804.491	146.26
804.67	142.16
804.85	127.83
805.03	54.1
805.209	160.59
805.389	109.4
805.568	133.97
805.748	131.92
805.928	88.92
806.107	119.64
806.287	129.88
806.466	127.83
806.646	123.73
806.825	97.11
807.004	156.5
807.184	66.39
807.363	140.12
807.543	50
807.722	133.97
807.901	107.35
808.081	74.58
808.26	70.48
808.439	95.06
808.619	68.44
808.798	111.44
808.977	58.2
809.156	148.31
809.336	144.21
809.515	95.06
809.694	109.4
809.873	70.48
810.052	19.29
810.231	66.39
810.411	70.48
810.59	47.96
810.769	76.63
810.948	37.72
811.127	136.02
811.306	56.15
811.485	43.86
811.664	70.48
811.843	54.1
812.022	54.1
812.201	107.35
812.38	27.48
812.559	35.67
812.737	66.39
812.916	90.96
813.095	39.76
813.274	43.86
813.453	109.4
813.632	41.81
813.811	101.2
813.989	19.29
814.168	74.58
814.347	95.06
814.526	142.16
814.704	117.59
814.883	142.16
815.062	56.15
815.24	35.67
815.419	-25.77
815.598	88.92
815.776	76.63
815.955	33.62
816.133	72.53
816.312	7
816.49	33.62
816.669	68.44
816.847	64.34
817.026	-11.43
817.204	-25.77
817.383	17.24
817.561	72.53
817.74	99.16
817.918	15.19
818.097	82.77
818.275	84.82
818.453	45.91
818.632	54.1
818.81	54.1
818.988	62.29
819.167	37.72
819.345	39.76
819.523	37.72
819.701	0.85
819.879	136.02
820.058	31.57
820.236	62.29
820.414	99.16
820.592	33.62
820.77	31.57
820.948	66.39
821.127	11.09
821.305	66.39
821.483	80.72
821.661	80.72
821.839	58.2
822.017	29.52
822.195	0.85
822.373	35.67
822.551	50
822.729	35.67
822.907	25.43
823.085	43.86
823.262	72.53
823.44	37.72
823.618	58.2
823.796	56.15
823.974	-27.82
824.152	17.24
824.329	54.1
824.507	35.67
824.685	80.72
824.863	19.29
825.04	60.24
825.218	-19.63
825.396	29.52
825.574	56.15
825.751	29.52
825.929	47.96
826.107	86.87
826.284	13.14
826.462	0.85
826.639	11.09
826.817	9.05
826.994	-5.29
827.172	105.3
827.349	99.16
827.527	33.62
827.704	78.68
827.882	-3.24
828.059	62.29
828.237	0.85
828.414	90.96
828.591	-27.82
828.769	62.29
828.946	11.09
829.124	86.87
829.301	50
829.478	11.09
829.655	-19.63
829.833	113.49
830.01	-11.43
830.187	-13.48
830.364	-79.02
830.542	117.59
830.719	72.53
830.896	13.14
831.073	39.76
831.25	58.2
831.427	74.58
831.604	-50.35
831.782	-56.49
831.959	-27.82
832.136	23.38
832.313	23.38
832.49	0.85
832.667	-17.58
832.844	72.53
833.021	119.64
833.198	105.3
833.374	7
833.551	27.48
833.728	58.2
833.905	43.86
834.082	19.29
834.259	9.05
834.436	50
834.612	-62.63
834.789	25.43
834.966	0.85
835.143	35.67
835.319	39.76
835.496	23.38
835.673	-48.3
835.85	-1.19
836.026	-23.72
836.203	21.33
836.38	-29.87
836.556	43.86
836.733	68.44
836.909	107.35
837.086	23.38
837.262	58.2
837.439	-42.15
837.616	21.33
837.792	35.67
837.968	29.52
838.145	37.72
838.321	50
838.498	15.19
838.674	0.85
838.851	29.52
839.027	13.14
839.203	-13.48
839.38	7
839.556	-7.34
839.732	15.19
839.909	-1.19
840.085	72.53
840.261	0.85
840.437	-9.39
840.614	-11.43
840.79	-25.77
840.966	37.72
841.142	56.15
841.318	43.86
841.494	39.76
841.671	21.33
841.847	56.15
842.023	7
842.199	68.44
842.375	-7.34
842.551	15.19
842.727	31.57
842.903	-50.35
843.079	-17.58
843.255	-11.43
843.431	66.39
843.607	-3.24
843.783	-27.82
843.959	-9.39
844.134	7
844.31	39.76
844.486	-9.39
844.662	43.86
844.838	2.9
845.013	109.4
845.189	7
845.365	-17.58
845.541	-1.19
845.716	-17.58
845.892	-11.43
846.068	27.48
846.244	-66.73
846.419	23.38
846.595	-7.34
846.77	-9.39
846.946	13.14
847.122	-44.2
847.297	-48.3
847.473	54.1
847.648	-15.53
847.824	17.24
847.999	123.73
848.175	4.95
848.35	-33.96
848.526	-25.77
848.701	4.95
848.876	88.92
849.052	-1.19
849.227	45.91
849.403	19.29
849.578	-64.68
849.753	-11.43
849.929	-11.43
850.104	-134.31
850.279	-1.19
850.454	-54.44
850.63	-27.82
850.805	23.38
850.98	33.62
851.155	-3.24
851.33	19.29
851.505	-42.15
851.681	25.43
851.856	29.52
852.031	-1.19
852.206	9.05
852.381	-21.67
852.556	25.43
852.731	21.33
852.906	2.9
853.081	-7.34
853.256	15.19
853.431	21.33
853.606	29.52
853.781	31.57
853.956	9.05
854.131	-17.58
854.305	-19.63
854.48	0.85
854.655	39.76
854.83	70.48
855.005	-58.54
855.18	11.09
855.354	7
855.529	-36.01
855.704	-13.48
855.879	37.72
856.053	-13.48
856.228	-31.91
856.403	31.57
856.577	13.14
856.752	-46.25
856.926	-52.39
857.101	-54.44
857.276	-15.53
857.45	4.95
857.625	41.81
857.799	-1.19
857.974	-13.48
858.148	7
858.323	37.72
858.497	37.72
858.672	-76.97
858.846	-9.39
859.02	-44.2
859.195	-3.24
859.369	-36.01
859.543	-29.87
859.718	62.29
859.892	-33.96
860.066	19.29
860.241	7
860.415	-3.24
860.589	7
860.763	27.48
860.938	-36.01
861.112	27.48
861.286	2.9
861.46	74.58
861.634	-50.35
861.808	-15.53
861.982	17.24
862.157	-17.58
862.331	-50.35
862.505	13.14
862.679	-79.02
862.853	60.24
863.027	19.29
863.201	9.05
863.375	-42.15
863.549	11.09
863.722	-38.06
863.896	35.67
864.07	9.05
864.244	43.86
864.418	25.43
864.592	41.81
864.766	52.05
864.939	-1.19
865.113	-13.48
865.287	37.72
865.461	-9.39
865.634	58.2
865.808	19.29
865.982	4.95
866.156	-95.4
866.329	-40.11
866.503	-33.96
866.676	29.52
866.85	-76.97
867.024	31.57
867.197	-58.54
867.371	-3.24
867.544	11.09
867.718	-17.58
867.891	19.29
868.065	-40.11
868.238	21.33
868.412	-5.29
868.585	-27.82
868.759	-1.19
868.932	-74.92
869.105	-1.19
869.279	-9.39
869.452	39.76
869.625	2.9
869.799	11.09
869.972	-58.54
870.145	66.39
870.319	-3.24
870.492	-15.53
870.665	7
870.838	-15.53
871.011	39.76
871.185	-36.01
871.358	11.09
871.531	37.72
871.704	31.57
871.877	54.1
872.05	-3.24
872.223	-19.63
872.396	-9.39
872.569	13.14
872.742	-72.87
872.915	19.29
873.088	-42.15
873.261	2.9
873.434	-7.34
873.607	0.85
873.78	-23.72
873.953	7
874.126	21.33
874.299	-31.91
874.471	15.19
874.644	-19.63
874.817	2.9
874.99	-1.19
875.163	-29.87
875.335	23.38
875.508	-31.91
875.681	-50.35
875.853	-29.87
876.026	-19.63
876.199	-9.39
876.371	-25.77
876.544	-33.96
876.717	-21.67
876.889	54.1
877.062	21.33
877.234	-29.87
877.407	7
877.579	-33.96
877.752	-19.63
877.924	66.39
878.097	-27.82
878.269	21.33
878.442	56.15
878.614	7
878.786	4.95
878.959	39.76
879.131	-15.53
879.303	-29.87
879.476	-40.11
879.648	-21.67
879.82	11.09
879.993	-54.44
880.165	-23.72
880.337	-101.55
880.509	7
880.681	-11.43
880.854	37.72
881.026	33.62
881.198	31.57
881.37	-31.91
881.542	19.29
881.714	7
881.886	-23.72
882.058	37.72
882.23	-15.53
882.402	-46.25
882.574	-3.24
882.746	-52.39
882.918	64.34
883.09	-5.29
883.262	62.29
883.434	-46.25
883.606	-60.59
883.778	64.34
883.95	31.57
884.122	4.95
884.293	-7.34
884.465	-23.72
884.637	19.29
884.809	-11.43
884.98	21.33
885.152	-13.48
885.324	0.85
885.496	13.14
885.667	-72.87
885.839	-50.35
886.011	19.29
886.182	-42.15
886.354	-9.39
886.525	0.85
886.697	39.76
886.869	15.19
887.04	13.14
887.212	23.38
887.383	25.43
887.555	-11.43
887.726	-79.02
887.897	-93.35
888.069	-48.3
888.24	-15.53
888.412	-54.44
888.583	7
888.754	-68.78
888.926	-5.29
889.097	0.85
889.268	-52.39
889.44	62.29
889.611	11.09
889.782	-27.82
889.953	-9.39
890.125	84.82
890.296	-9.39
890.467	9.05
890.638	52.05
890.809	-38.06
890.98	25.43
891.151	-3.24
891.323	23.38
891.494	-66.73
891.665	25.43
891.836	-23.72
892.007	-52.39
892.178	-13.48
892.349	0.85
892.52	-23.72
892.691	-23.72
892.862	39.76
893.032	-54.44
893.203	-31.91
893.374	-11.43
893.545	-52.39
893.716	-52.39
893.887	-19.63
894.057	-9.39
894.228	-5.29
894.399	-44.2
894.57	21.33
894.74	-25.77
894.911	35.67
895.082	27.48
895.253	-9.39
895.423	-1.19
895.594	4.95
895.764	-9.39
895.935	60.24
896.106	-70.83
896.276	-1.19
896.447	-13.48
896.617	37.72
896.788	-38.06
896.958	-60.59
897.129	-27.82
897.299	-40.11
897.47	9.05
897.64	21.33
897.81	-19.63
897.981	54.1
898.151	-62.63
898.322	50
898.492	64.34
898.662	-83.11
898.832	-58.54
899.003	-29.87
899.173	-25.77
899.343	-21.67
899.513	-72.87
