Data from USB4F104151__173__13-58-56-551.txt Node

Date: Thu Mar 13 13:58:56 EDT 2025
User: louis
Spectrometer: USB4F10415
Trigger mode: 4
Integration Time (sec): 1.000000E-2
Scans to average: 1
Electric dark correction enabled: true
Nonlinearity correction enabled: false
Boxcar width: 0
XAxis mode: Wavelengths
Number of Pixels in Spectrum: 3648
>>>>>Begin Spectral Data<<<<<
178.204	-43.18
178.424	-43.18
178.644	-43.18
178.864	-34.99
179.084	26.45
179.304	-20.65
179.524	-30.89
179.744	-16.55
179.964	-12.46
180.184	-0.17
180.404	28.5
180.624	12.12
180.844	69.46
181.064	-10.41
181.283	8.02
181.503	-26.79
181.723	-0.17
181.943	1.88
182.163	-22.7
182.383	-43.18
182.602	-22.7
182.822	51.03
183.042	77.65
183.262	16.21
183.482	3.93
183.701	12.12
183.921	-0.17
184.141	-65.71
184.361	-22.7
184.58	42.84
184.8	-26.79
185.02	81.75
185.239	22.36
185.459	-32.94
185.679	12.12
185.898	53.08
186.118	67.41
186.338	-32.94
186.557	65.36
186.777	-12.46
186.997	-16.55
187.216	5.97
187.436	-37.03
187.655	30.55
187.875	22.36
188.095	-10.41
188.314	-4.27
188.534	-20.65
188.753	3.93
188.973	38.74
189.192	-14.51
189.412	20.31
189.631	5.97
189.851	-8.36
190.07	-39.08
190.29	3.93
190.509	40.79
190.729	-63.66
190.948	46.93
191.168	63.32
191.387	75.6
191.607	28.5
191.826	96.08
192.045	-10.41
192.265	75.6
192.484	36.69
192.704	20.31
192.923	-22.7
193.142	-2.22
193.362	-4.27
193.581	-4.27
193.8	12.12
194.02	12.12
194.239	36.69
194.458	-18.6
194.678	-12.46
194.897	36.69
195.116	-51.37
195.335	-2.22
195.555	-2.22
195.774	-53.42
195.993	98.13
196.212	-34.99
196.432	89.94
196.651	16.21
196.87	67.41
197.089	-10.41
197.308	3.93
197.528	-4.27
197.747	44.88
197.966	28.5
198.185	-30.89
198.404	-37.03
198.623	36.69
198.842	20.31
199.062	22.36
199.281	20.31
199.5	8.02
199.719	20.31
199.938	55.12
200.157	28.5
200.376	24.4
200.595	-8.36
200.814	-26.79
201.033	55.12
201.252	3.93
201.471	28.5
201.69	26.45
201.909	12.12
202.128	-10.41
202.347	-12.46
202.566	-55.47
202.785	12.12
203.004	-8.36
203.223	-10.41
203.442	-28.84
203.661	26.45
203.879	20.31
204.098	16.21
204.317	3.93
204.536	36.69
204.755	8.02
204.974	-51.37
205.193	14.17
205.411	57.17
205.63	-18.6
205.849	-6.31
206.068	8.02
206.287	-14.51
206.505	20.31
206.724	12.12
206.943	34.64
207.162	-4.27
207.381	65.36
207.599	-51.37
207.818	-37.03
208.037	18.26
208.255	59.22
208.474	61.27
208.693	26.45
208.911	-26.79
209.13	-26.79
209.349	40.79
209.567	-2.22
209.786	28.5
210.005	-51.37
210.223	44.88
210.442	-6.31
210.661	-16.55
210.879	-16.55
211.098	-0.17
211.316	48.98
211.535	94.04
211.753	-28.84
211.972	34.64
212.191	34.64
212.409	8.02
212.628	-43.18
212.846	-32.94
213.065	14.17
213.283	-4.27
213.502	-45.23
213.72	14.17
213.938	26.45
214.157	-28.84
214.375	44.88
214.594	18.26
214.812	1.88
215.031	71.51
215.249	34.64
215.467	12.12
215.686	18.26
215.904	65.36
216.122	-6.31
216.341	8.02
216.559	8.02
216.778	40.79
216.996	57.17
217.214	8.02
217.432	28.5
217.651	8.02
217.869	42.84
218.087	5.97
218.306	-51.37
218.524	69.46
218.742	30.55
218.96	-18.6
219.179	22.36
219.397	3.93
219.615	-37.03
219.833	-10.41
220.051	-41.13
220.27	36.69
220.488	12.12
220.706	42.84
220.924	-43.18
221.142	-0.17
221.36	28.5
221.578	32.6
221.796	5.97
222.015	83.8
222.233	12.12
222.451	-28.84
222.669	18.26
222.887	69.46
223.105	-67.75
223.323	-6.31
223.541	12.12
223.759	-75.95
223.977	22.36
224.195	57.17
224.413	-77.99
224.631	-43.18
224.849	22.36
225.067	16.21
225.285	-26.79
225.503	36.69
225.721	-32.94
225.939	38.74
226.157	18.26
226.375	59.22
226.592	28.5
226.81	-2.22
227.028	-45.23
227.246	12.12
227.464	-53.42
227.682	-0.17
227.9	16.21
228.117	10.07
228.335	12.12
228.553	-22.7
228.771	-6.31
228.989	28.5
229.206	1.88
229.424	-8.36
229.642	-8.36
229.86	-4.27
230.077	-8.36
230.295	-32.94
230.513	55.12
230.731	38.74
230.948	44.88
231.166	-28.84
231.384	36.69
231.601	3.93
231.819	-0.17
232.037	63.32
232.254	-2.22
232.472	-20.65
232.689	71.51
232.907	10.07
233.125	96.08
233.342	30.55
233.56	12.12
233.777	24.4
233.995	28.5
234.213	24.4
234.43	24.4
234.648	1.88
234.865	24.4
235.083	22.36
235.3	-41.13
235.518	28.5
235.735	-4.27
235.953	63.32
236.17	-26.79
236.388	8.02
236.605	18.26
236.822	40.79
237.04	32.6
237.257	55.12
237.475	-20.65
237.692	-20.65
237.909	-41.13
238.127	12.12
238.344	63.32
238.562	67.41
238.779	-0.17
238.996	-14.51
239.214	-39.08
239.431	32.6
239.648	-24.75
239.865	38.74
240.083	79.7
240.3	-20.65
240.517	-16.55
240.735	55.12
240.952	16.21
241.169	12.12
241.386	18.26
241.603	-18.6
241.821	51.03
242.038	3.93
242.255	81.75
242.472	-65.71
242.689	42.84
242.907	36.69
243.124	3.93
243.341	79.7
243.558	-37.03
243.775	61.27
243.992	48.98
244.209	24.4
244.426	-51.37
244.643	59.22
244.86	30.55
245.078	34.64
245.295	-8.36
245.512	14.17
245.729	14.17
245.946	67.41
246.163	-2.22
246.38	-0.17
246.597	34.64
246.814	-45.23
247.031	61.27
247.248	-39.08
247.464	65.36
247.681	-69.8
247.898	-34.99
248.115	1.88
248.332	-16.55
248.549	14.17
248.766	3.93
248.983	40.79
249.2	-8.36
249.417	63.32
249.633	-49.32
249.85	73.56
250.067	-0.17
250.284	-0.17
250.501	-22.7
250.717	-4.27
250.934	-32.94
251.151	34.64
251.368	-47.27
251.585	44.88
251.801	8.02
252.018	51.03
252.235	79.7
252.451	40.79
252.668	-6.31
252.885	67.41
253.102	20.31
253.318	20.31
253.535	-8.36
253.752	-4.27
253.968	34.64
254.185	-26.79
254.401	34.64
254.618	14.17
254.835	71.51
255.051	8.02
255.268	-49.32
255.484	14.17
255.701	-43.18
255.917	46.93
256.134	36.69
256.351	-26.79
256.567	24.4
256.784	-4.27
257	-18.6
257.217	57.17
257.433	-26.79
257.65	61.27
257.866	20.31
258.082	22.36
258.299	3.93
258.515	34.64
258.732	-14.51
258.948	38.74
259.165	-8.36
259.381	1.88
259.597	-20.65
259.814	-18.6
260.03	-14.51
260.246	153.43
260.463	28.5
260.679	96.08
260.895	12.12
261.112	-49.32
261.328	-12.46
261.544	-8.36
261.761	59.22
261.977	-47.27
262.193	-4.27
262.409	36.69
262.626	22.36
262.842	48.98
263.058	28.5
263.274	30.55
263.49	5.97
263.707	71.51
263.923	-32.94
264.139	-24.75
264.355	16.21
264.571	36.69
264.787	-71.85
265.004	67.41
265.22	32.6
265.436	77.65
265.652	94.04
265.868	-12.46
266.084	8.02
266.3	46.93
266.516	-30.89
266.732	-20.65
266.948	18.26
267.164	24.4
267.38	-41.13
267.596	44.88
267.812	22.36
268.028	14.17
268.244	-0.17
268.46	79.7
268.676	-12.46
268.892	-10.41
269.108	-65.71
269.324	20.31
269.54	18.26
269.756	63.32
269.972	18.26
270.188	3.93
270.403	24.4
270.619	61.27
270.835	-22.7
271.051	20.31
271.267	38.74
271.483	28.5
271.698	-0.17
271.914	-45.23
272.13	61.27
272.346	69.46
272.562	-6.31
272.777	112.47
272.993	38.74
273.209	44.88
273.425	-4.27
273.64	-14.51
273.856	40.79
274.072	8.02
274.287	36.69
274.503	-8.36
274.719	-0.17
274.934	12.12
275.15	-30.89
275.366	-14.51
275.581	63.32
275.797	36.69
276.012	22.36
276.228	12.12
276.444	-12.46
276.659	22.36
276.875	28.5
277.09	-4.27
277.306	-10.41
277.521	51.03
277.737	-73.9
277.952	48.98
278.168	-10.41
278.383	-57.51
278.599	-8.36
278.814	20.31
279.03	65.36
279.245	-26.79
279.461	20.31
279.676	26.45
279.892	-49.32
280.107	-69.8
280.322	61.27
280.538	-22.7
280.753	22.36
280.969	42.84
281.184	5.97
281.399	40.79
281.615	36.69
281.83	-14.51
282.045	-2.22
282.26	-10.41
282.476	1.88
282.691	44.88
282.906	16.21
283.122	-2.22
283.337	-32.94
283.552	8.02
283.767	69.46
283.983	24.4
284.198	94.04
284.413	20.31
284.628	48.98
284.843	26.45
285.058	12.12
285.274	3.93
285.489	104.28
285.704	22.36
285.919	63.32
286.134	-49.32
286.349	-16.55
286.564	30.55
286.779	22.36
286.995	3.93
287.21	-30.89
287.425	28.5
287.64	-53.42
287.855	28.5
288.07	-8.36
288.285	16.21
288.5	114.52
288.715	8.02
288.93	-28.84
289.145	77.65
289.36	53.08
289.575	-49.32
289.79	40.79
290.004	67.41
290.219	26.45
290.434	-4.27
290.649	32.6
290.864	-8.36
291.079	32.6
291.294	1.88
291.509	-34.99
291.724	44.88
291.938	-22.7
292.153	-0.17
292.368	18.26
292.583	32.6
292.798	-63.66
293.012	-0.17
293.227	42.84
293.442	10.07
293.657	10.07
293.871	36.69
294.086	44.88
294.301	51.03
294.516	55.12
294.73	-20.65
294.945	-26.79
295.16	8.02
295.374	28.5
295.589	12.12
295.804	3.93
296.018	-24.75
296.233	38.74
296.447	59.22
296.662	22.36
296.877	71.51
297.091	28.5
297.306	71.51
297.52	48.98
297.735	55.12
297.949	28.5
298.164	24.4
298.378	24.4
298.593	20.31
298.807	-32.94
299.022	10.07
299.236	55.12
299.451	-43.18
299.665	63.32
299.88	16.21
300.094	16.21
300.309	16.21
300.523	10.07
300.737	12.12
300.952	18.26
301.166	59.22
301.381	46.93
301.595	-4.27
301.809	-32.94
302.024	3.93
302.238	1.88
302.452	10.07
302.667	30.55
302.881	1.88
303.095	38.74
303.309	26.45
303.524	14.17
303.738	8.02
303.952	-55.47
304.166	67.41
304.381	-45.23
304.595	81.75
304.809	-41.13
305.023	116.56
305.237	67.41
305.452	14.17
305.666	61.27
305.88	3.93
306.094	36.69
306.308	-22.7
306.522	-28.84
306.736	51.03
306.95	28.5
307.164	57.17
307.379	20.31
307.593	12.12
307.807	-16.55
308.021	30.55
308.235	3.93
308.449	48.98
308.663	-26.79
308.877	24.4
309.091	1.88
309.305	26.45
309.519	-59.56
309.733	-20.65
309.947	-32.94
310.161	-6.31
310.374	22.36
310.588	71.51
310.802	-4.27
311.016	79.7
311.23	-20.65
311.444	16.21
311.658	-2.22
311.872	36.69
312.085	32.6
312.299	-4.27
312.513	16.21
312.727	32.6
312.941	26.45
313.154	40.79
313.368	22.36
313.582	-4.27
313.796	55.12
314.009	65.36
314.223	48.98
314.437	26.45
314.651	77.65
314.864	51.03
315.078	-34.99
315.292	40.79
315.505	14.17
315.719	10.07
315.933	12.12
316.146	40.79
316.36	65.36
316.573	10.07
316.787	-4.27
317.001	-18.6
317.214	-22.7
317.428	61.27
317.641	-18.6
317.855	59.22
318.068	32.6
318.282	79.7
318.495	8.02
318.709	36.69
318.922	116.56
319.136	40.79
319.349	22.36
319.563	-26.79
319.776	16.21
319.99	22.36
320.203	-10.41
320.417	-28.84
320.63	65.36
320.843	51.03
321.057	36.69
321.27	36.69
321.483	26.45
321.697	28.5
321.91	77.65
322.124	32.6
322.337	34.64
322.55	10.07
322.763	-6.31
322.977	-2.22
323.19	8.02
323.403	53.08
323.617	55.12
323.83	-0.17
324.043	1.88
324.256	51.03
324.469	22.36
324.683	40.79
324.896	55.12
325.109	30.55
325.322	40.79
325.535	130.9
325.748	20.31
325.962	48.98
326.175	-49.32
326.388	10.07
326.601	16.21
326.814	-16.55
327.027	44.88
327.24	-2.22
327.453	-37.03
327.666	91.99
327.879	36.69
328.092	71.51
328.305	-10.41
328.518	44.88
328.731	-34.99
328.944	38.74
329.157	-8.36
329.37	40.79
329.583	22.36
329.796	61.27
330.009	24.4
330.222	94.04
330.435	5.97
330.648	38.74
330.861	44.88
331.073	77.65
331.286	-8.36
331.499	36.69
331.712	24.4
331.925	20.31
332.138	46.93
332.35	61.27
332.563	-51.37
332.776	85.84
332.989	87.89
333.202	22.36
333.414	-24.75
333.627	59.22
333.84	69.46
334.053	-10.41
334.265	30.55
334.478	69.46
334.691	5.97
334.903	-34.99
335.116	61.27
335.329	28.5
335.541	28.5
335.754	-4.27
335.966	8.02
336.179	28.5
336.392	-2.22
336.604	38.74
336.817	-14.51
337.029	77.65
337.242	-4.27
337.454	28.5
337.667	14.17
337.88	-26.79
338.092	-43.18
338.305	28.5
338.517	-4.27
338.729	-4.27
338.942	75.6
339.154	-26.79
339.367	-0.17
339.579	-2.22
339.792	51.03
340.004	40.79
340.217	-24.75
340.429	14.17
340.641	34.64
340.854	-6.31
341.066	-28.84
341.278	28.5
341.491	34.64
341.703	18.26
341.915	1.88
342.128	102.23
342.34	3.93
342.552	42.84
342.764	-18.6
342.977	-16.55
343.189	57.17
343.401	-10.41
343.613	-41.13
343.826	10.07
344.038	-65.71
344.25	12.12
344.462	18.26
344.674	102.23
344.886	96.08
345.099	-14.51
345.311	-51.37
345.523	108.37
345.735	-37.03
345.947	1.88
346.159	44.88
346.371	8.02
346.583	-24.75
346.795	85.84
347.007	3.93
347.219	46.93
347.431	44.88
347.643	8.02
347.855	24.4
348.067	20.31
348.279	20.31
348.491	5.97
348.703	-2.22
348.915	3.93
349.127	20.31
349.339	28.5
349.551	-22.7
349.763	91.99
349.975	8.02
350.187	30.55
350.399	48.98
350.61	-16.55
350.822	-28.84
351.034	53.08
351.246	-32.94
351.458	24.4
351.669	-24.75
351.881	-2.22
352.093	44.88
352.305	32.6
352.517	48.98
352.728	36.69
352.94	3.93
353.152	79.7
353.363	-14.51
353.575	28.5
353.787	16.21
353.999	14.17
354.21	81.75
354.422	16.21
354.633	-24.75
354.845	-32.94
355.057	24.4
355.268	-28.84
355.48	46.93
355.692	61.27
355.903	-39.08
356.115	-2.22
356.326	44.88
356.538	98.13
356.749	16.21
356.961	18.26
357.172	69.46
357.384	55.12
357.595	1.88
357.807	-26.79
358.018	-4.27
358.23	-0.17
358.441	79.7
358.653	22.36
358.864	-53.42
359.075	5.97
359.287	59.22
359.498	14.17
359.709	40.79
359.921	94.04
360.132	-2.22
360.344	-24.75
360.555	-8.36
360.766	-0.17
360.977	34.64
361.189	87.89
361.4	57.17
361.611	3.93
361.823	48.98
362.034	12.12
362.245	-12.46
362.456	28.5
362.667	32.6
362.879	67.41
363.09	-8.36
363.301	36.69
363.512	42.84
363.723	-22.7
363.935	51.03
364.146	46.93
364.357	-0.17
364.568	40.79
364.779	38.74
364.99	67.41
365.201	-28.84
365.412	38.74
365.623	40.79
365.834	-4.27
366.045	46.93
366.256	73.56
366.467	28.5
366.678	18.26
366.889	-22.7
367.1	20.31
367.311	12.12
367.522	26.45
367.733	8.02
367.944	32.6
368.155	12.12
368.366	65.36
368.577	-22.7
368.788	30.55
368.999	-22.7
369.209	-18.6
369.42	106.32
369.631	110.42
369.842	63.32
370.053	30.55
370.264	24.4
370.474	44.88
370.685	-20.65
370.896	38.74
371.107	20.31
371.317	85.84
371.528	55.12
371.739	16.21
371.95	42.84
372.16	-8.36
372.371	34.64
372.582	44.88
372.792	51.03
373.003	75.6
373.214	-34.99
373.424	-12.46
373.635	5.97
373.846	3.93
374.056	18.26
374.267	28.5
374.477	141.14
374.688	59.22
374.898	3.93
375.109	1.88
375.319	-14.51
375.53	42.84
375.74	-0.17
375.951	-45.23
376.161	44.88
376.372	40.79
376.582	20.31
376.793	79.7
377.003	14.17
377.214	30.55
377.424	-8.36
377.635	53.08
377.845	-14.51
378.055	12.12
378.266	8.02
378.476	77.65
378.686	20.31
378.897	-20.65
379.107	-45.23
379.317	3.93
379.528	44.88
379.738	-0.17
379.948	20.31
380.158	42.84
380.369	71.51
380.579	87.89
380.789	71.51
380.999	57.17
381.21	8.02
381.42	87.89
381.63	-6.31
381.84	48.98
382.05	20.31
382.261	-18.6
382.471	51.03
382.681	53.08
382.891	46.93
383.101	14.17
383.311	46.93
383.521	102.23
383.731	34.64
383.941	32.6
384.151	26.45
384.361	69.46
384.571	8.02
384.781	30.55
384.991	-2.22
385.201	51.03
385.411	30.55
385.621	-30.89
385.831	-43.18
386.041	36.69
386.251	85.84
386.461	14.17
386.671	30.55
386.881	61.27
387.091	42.84
387.301	73.56
387.511	14.17
387.72	24.4
387.93	24.4
388.14	32.6
388.35	57.17
388.56	51.03
388.769	69.46
388.979	30.55
389.189	14.17
389.399	-45.23
389.609	10.07
389.818	26.45
390.028	32.6
390.238	126.8
390.447	18.26
390.657	55.12
390.867	55.12
391.076	38.74
391.286	48.98
391.496	85.84
391.705	65.36
391.915	3.93
392.125	20.31
392.334	1.88
392.544	104.28
392.753	73.56
392.963	5.97
393.172	20.31
393.382	104.28
393.591	83.8
393.801	-12.46
394.01	53.08
394.22	40.79
394.429	116.56
394.639	53.08
394.848	14.17
395.058	53.08
395.267	89.94
395.477	42.84
395.686	46.93
395.895	18.26
396.105	67.41
396.314	98.13
396.524	48.98
396.733	87.89
396.942	98.13
397.152	145.24
397.361	77.65
397.57	-14.51
397.78	20.31
397.989	120.66
398.198	71.51
398.407	32.6
398.617	59.22
398.826	1.88
399.035	28.5
399.244	18.26
399.453	120.66
399.663	57.17
399.872	30.55
400.081	128.85
400.29	40.79
400.499	36.69
400.708	89.94
400.917	26.45
401.127	110.42
401.336	61.27
401.545	77.65
401.754	12.12
401.963	79.7
402.172	89.94
402.381	32.6
402.59	5.97
402.799	79.7
403.008	102.23
403.217	77.65
403.426	-4.27
403.635	12.12
403.844	57.17
404.053	57.17
404.262	51.03
404.471	100.18
404.68	145.24
404.888	118.61
405.097	94.04
405.306	110.42
405.515	38.74
405.724	91.99
405.933	112.47
406.142	77.65
406.35	110.42
406.559	69.46
406.768	102.23
406.977	196.43
407.185	63.32
407.394	87.89
407.603	155.47
407.812	149.33
408.02	178
408.229	104.28
408.438	106.32
408.646	171.86
408.855	143.19
409.064	161.62
409.272	180.05
409.481	212.82
409.69	139.09
409.898	261.97
410.107	261.97
410.315	255.83
410.524	151.38
410.733	153.43
410.941	167.76
411.15	249.68
411.358	153.43
411.567	317.26
411.775	259.92
411.984	233.3
412.192	290.64
412.401	284.5
412.609	235.35
412.818	317.26
413.026	253.78
413.234	317.26
413.443	307.02
413.651	329.55
413.86	337.74
414.068	401.23
414.276	386.9
414.485	356.18
414.693	407.38
414.901	407.38
415.11	462.67
415.318	413.52
415.526	427.85
415.734	466.77
415.943	485.2
416.151	505.68
416.359	544.59
416.567	546.64
416.776	534.35
416.984	583.5
417.192	644.94
417.4	610.12
417.608	667.47
417.817	548.68
418.025	622.41
418.233	702.28
418.441	667.47
418.649	692.04
418.857	808.78
419.065	790.35
419.273	814.92
419.481	845.64
419.689	878.41
419.897	989
420.105	954.18
420.313	896.84
420.521	1036.1
420.729	948.04
420.937	976.71
421.145	1111.88
421.353	1212.23
421.561	1144.64
421.769	1091.4
421.977	1380.16
422.185	1322.82
422.393	1351.49
422.601	1427.26
422.809	1419.07
423.017	1402.69
423.224	1468.22
423.432	1453.89
423.64	1550.14
423.848	1636.16
424.056	1601.34
424.263	1693.5
424.471	1797.95
424.679	1773.37
424.887	1726.27
425.094	1759.03
425.302	1838.91
425.51	1888.06
425.718	2096.95
425.925	2084.66
426.133	2109.24
426.341	2133.81
426.548	2264.88
426.756	2459.44
426.964	2518.83
427.171	2412.34
427.379	2631.47
427.586	2623.28
427.794	2744.11
428.001	2799.4
428.209	2987.82
428.417	2873.13
428.624	3141.41
428.832	3182.37
429.039	3047.21
429.247	3100.45
429.454	3413.79
429.662	3546.91
429.869	3436.32
430.076	3766.04
430.284	3460.9
430.491	3702.56
430.699	3901.21
430.906	3893.02
431.114	3921.69
431.321	3979.03
431.528	4175.64
431.736	4415.25
431.943	4648.72
432.15	4566.8
432.358	4511.5
432.565	4767.5
432.772	4718.35
432.979	5023.5
433.187	5093.13
433.394	5054.22
433.601	5332.74
433.808	5537.54
434.016	5334.79
434.223	5742.33
434.43	6020.86
434.637	5877.5
434.844	6348.53
435.052	6328.05
435.259	6291.19
435.466	6371.06
435.673	6461.17
435.88	6598.38
436.087	7093.99
436.294	6946.54
436.501	7100.14
436.708	7003.88
436.915	7177.96
437.122	7554.79
437.329	7556.83
437.537	7724.77
437.743	8079.07
437.95	7800.54
438.157	8308.44
438.364	8642.26
438.571	8713.94
438.778	8613.59
438.985	9404.1
439.192	8910.54
439.399	9342.66
439.606	8883.92
439.813	9623.23
440.02	10354.36
440.227	9875.13
440.433	9981.63
440.64	10278.58
440.847	10264.25
441.054	10526.39
441.261	11275.95
441.467	10874.54
441.674	11347.62
441.881	11648.68
442.088	11538.09
442.294	11562.66
442.501	11867.81
442.708	12263.07
442.914	12447.38
443.121	13000.33
443.328	12699.28
443.534	13653.64
443.741	13186.7
443.948	13047.44
444.154	13930.11
444.361	13661.83
444.568	13989.5
444.774	13944.45
444.981	14155.39
445.187	14593.65
445.394	15232.62
445.6	15064.69
445.807	16633.43
446.013	15711.85
446.22	16019.04
446.426	16787.03
446.633	16719.45
446.839	17186.38
447.046	16594.52
447.252	17657.42
447.459	17856.07
447.665	17344.08
447.871	18110.02
448.078	18923.06
448.284	18136.64
448.491	18579
448.697	19519.02
448.903	19621.42
449.11	19684.9
449.316	19297.84
449.522	19897.89
449.728	20393.5
449.935	20446.75
450.141	20403.74
450.347	21018.13
450.553	20143.65
450.76	20473.37
450.966	21204.5
451.172	20647.45
451.378	21282.32
451.584	20930.07
451.791	21415.44
451.997	21265.94
452.203	21702.15
452.409	21835.27
452.615	21528.08
452.821	20811.29
453.027	20512.28
453.233	21679.63
453.44	20770.33
453.646	21196.31
453.852	21272.08
454.058	21573.13
454.264	20930.07
454.47	21636.62
454.676	20801.05
454.882	21440.01
455.088	19723.82
455.294	19875.37
455.5	20205.09
455.705	20291.1
455.911	19516.97
456.117	19353.13
456.323	19009.08
456.529	17841.73
456.735	18959.92
456.941	18232.9
457.147	18007.62
457.352	17305.17
457.558	17190.48
457.764	17204.81
457.97	17235.53
458.176	16449.11
458.381	16596.57
458.587	15838.82
458.793	15722.09
458.999	15023.73
459.204	16039.52
459.41	15642.21
459.616	14397.05
459.821	14585.46
460.027	14583.41
460.233	14014.08
460.438	13807.23
460.644	13756.04
460.85	13022.86
461.055	12947.09
461.261	12838.55
461.466	11972.25
461.672	11460.26
461.878	12304.03
462.083	11665.06
462.289	11189.93
462.494	11155.12
462.7	10727.09
462.905	10591.92
463.111	10968.75
463.316	10946.22
463.522	10553.01
463.727	10622.64
463.932	10731.19
464.138	10522.29
464.343	10606.26
464.549	10266.3
464.754	10661.55
464.959	10690.23
465.165	10522.29
465.37	9942.72
465.575	9801.41
465.781	10278.58
465.986	10206.91
466.191	9805.5
466.397	9672.39
466.602	9227.98
466.807	9522.88
467.012	9502.4
467.218	9531.08
467.423	9408.2
467.628	9656
467.833	9805.5
468.038	9520.84
468.244	9330.37
468.449	9479.88
468.654	9172.68
468.859	9121.48
469.064	9137.87
469.269	8949.45
469.474	9002.7
469.679	8902.35
469.885	8750.8
470.09	9031.37
470.295	8957.64
470.5	8658.64
470.705	8736.46
470.91	8584.91
471.115	8431.32
471.32	8705.74
471.525	8451.8
471.73	8308.44
471.935	8236.76
472.139	8091.35
472.344	8249.05
472.549	8142.55
472.754	7941.85
472.959	7786.21
473.164	7605.99
473.369	7655.14
473.574	7835.36
473.778	7788.25
473.983	7589.6
474.188	7483.11
474.393	7286.5
474.598	7440.1
474.802	7253.73
475.007	7302.89
475.212	7128.81
475.417	7012.07
475.621	6936.3
475.826	6833.9
476.031	6831.85
476.235	6688.5
476.44	6848.24
476.645	6504.18
476.849	6645.49
477.054	6741.74
477.259	6524.66
477.463	6487.79
477.668	6395.64
477.872	6395.64
478.077	6526.71
478.282	6315.76
478.486	6147.83
478.691	6141.69
478.895	6149.88
479.1	6080.25
479.304	6043.39
479.509	5940.99
479.713	6117.11
479.918	5861.12
480.122	5838.59
480.326	5816.06
480.531	6053.62
480.735	5830.4
480.94	5795.58
481.144	5891.84
481.348	5682.94
481.553	5674.75
481.757	5631.74
481.961	5734.14
482.166	5728
482.37	5756.67
482.574	5592.83
482.778	5541.63
482.983	5605.12
483.187	5699.33
483.391	5783.29
483.595	5551.87
483.8	5582.59
484.004	5582.59
484.208	5660.41
484.412	5699.33
484.616	5758.72
484.821	5594.88
485.025	5691.13
485.229	5756.67
485.433	5730.05
485.637	5582.59
485.841	5486.34
486.045	5875.45
486.249	5666.56
486.453	5717.76
486.657	5648.13
486.861	5926.65
487.065	5490.43
487.269	5627.65
487.473	5615.36
487.677	5863.16
487.881	5840.64
488.085	5615.36
488.289	5744.38
488.493	5789.44
488.697	5574.4
488.901	5670.65
489.105	5596.93
489.309	5607.17
489.512	5752.57
489.716	5854.97
489.92	5893.88
490.124	5680.89
490.328	5910.27
490.531	5830.4
490.735	5791.48
490.939	5803.77
491.143	5697.28
491.346	5787.39
491.55	5959.42
491.754	5930.75
491.958	6125.3
492.161	5965.56
492.365	5965.56
492.569	6178.55
492.772	5957.37
492.976	6027
493.18	6274.81
493.383	6242.04
493.587	6188.79
493.79	6401.78
493.994	6153.98
494.197	6326
494.401	6360.82
494.605	6305.53
494.808	6514.42
495.012	6625.01
495.215	6526.71
495.419	6700.78
495.622	6659.82
495.825	6620.91
496.029	6909.68
496.232	6971.11
496.436	7005.93
496.639	7007.98
496.843	6985.45
497.046	7169.77
497.249	7098.09
497.453	7298.79
497.656	7483.11
497.859	7352.04
498.063	7524.07
498.266	7757.53
498.469	7724.77
498.673	7628.51
498.876	7692
499.079	8007.39
499.282	7775.97
499.485	8183.51
499.689	8275.67
499.892	8351.45
500.095	8312.53
500.298	8568.53
500.501	8568.53
500.705	8763.09
500.908	8892.11
501.111	9002.7
501.314	8912.59
501.517	9152.2
501.72	9346.76
501.923	9316.04
502.126	9617.09
502.329	9735.87
502.532	9733.82
502.735	9916.09
502.938	9940.67
503.141	10231.48
503.344	10358.46
503.547	10200.76
503.75	10530.48
503.953	10475.19
504.156	10753.71
504.359	10727.09
504.562	11101.87
504.765	11196.07
504.968	11237.03
505.17	11310.76
505.373	11536.04
505.576	11730.59
505.779	11777.7
505.982	11853.47
506.185	11998.88
506.387	12250.78
506.59	12293.79
506.793	12449.43
506.996	12740.24
507.198	12981.9
507.401	12949.14
507.604	13100.69
507.807	13629.06
508.009	13694.6
508.212	13786.75
508.415	13749.89
508.617	14134.91
508.82	14188.16
509.022	14177.92
509.225	14628.47
509.428	14720.63
509.63	14913.14
509.833	14823.03
510.035	15382.12
510.238	15263.34
510.44	15687.27
510.643	15797.86
510.845	16158.3
511.048	16127.58
511.25	16422.49
511.453	16189.02
511.655	16901.72
511.858	16809.56
512.06	17229.39
512.262	17473.1
512.465	17636.94
512.667	17831.49
512.87	17841.73
513.072	18079.3
513.274	18511.42
513.477	18587.19
513.679	19000.88
513.881	19146.29
514.084	19265.07
514.286	19410.48
514.488	19793.45
514.69	20450.85
514.893	20006.44
515.095	20592.16
515.297	20915.73
515.499	20850.2
515.701	21028.37
515.904	21370.38
516.106	21685.77
516.308	21947.91
516.51	21917.19
516.712	22058.5
516.914	22423.04
517.116	23016.95
517.318	23307.76
517.52	23268.85
517.722	23352.82
517.925	23844.33
518.127	23809.51
518.329	24045.03
518.531	24344.03
518.733	24792.54
518.935	24952.28
519.136	24894.94
519.338	25347.54
519.54	25494.99
519.742	25933.26
519.944	25865.67
520.146	26463.68
520.348	26717.63
520.55	26684.86
520.752	26875.32
520.954	27522.48
521.155	27080.12
521.357	27680.17
521.559	28009.9
521.761	28687.78
521.963	28347.81
522.164	28562.85
522.366	28587.43
522.568	29048.22
522.77	29189.53
522.971	29709.71
523.173	29347.22
523.375	29709.71
523.576	30031.24
523.778	30270.86
523.98	30553.48
524.181	30721.41
524.383	30518.66
524.584	31264.12
524.786	31126.91
524.988	31307.13
525.189	31997.29
525.391	31616.37
525.592	32144.75
525.794	31966.57
525.995	32036.2
526.197	32564.58
526.398	32255.34
526.6	32578.92
526.801	32456.04
527.003	33029.47
527.204	33008.99
527.406	33637.72
527.607	33760.59
527.808	33682.77
528.01	33426.78
528.211	33512.79
528.412	34504.01
528.614	34194.76
528.815	33983.82
529.016	34481.48
529.218	34352.46
529.419	34035.02
529.62	34182.48
529.822	34385.22
530.023	34721.09
530.224	34430.28
530.425	34286.92
530.626	34618.69
530.828	34407.75
531.029	35388.73
531.23	35081.53
531.431	35005.76
531.632	35384.63
531.833	35097.92
532.035	35204.41
532.236	35358.01
532.437	35654.97
532.638	35333.43
532.839	35577.14
533.04	35411.26
533.241	35247.42
533.442	35601.72
533.643	35460.41
533.844	35566.9
534.045	35628.34
534.246	35208.51
534.447	36023.6
534.648	35956.02
534.849	35974.45
535.05	35527.99
535.251	35855.67
535.451	35513.66
535.652	35953.97
535.853	35951.92
536.054	35978.54
536.255	35859.76
536.456	35601.72
536.657	36379.95
536.857	35851.57
537.058	35681.59
537.259	36252.97
537.46	36111.66
537.66	35829.04
537.861	35743.03
538.062	35716.4
538.263	36357.42
538.463	35845.43
538.664	35802.42
538.865	35929.39
539.065	35982.64
539.266	35902.77
539.466	36443.43
539.667	35630.39
539.868	36724
540.068	35898.67
540.269	35947.82
540.469	35956.02
540.67	35638.58
540.87	35847.47
541.071	36089.13
541.271	36281.64
541.472	35884.34
541.672	36267.31
541.873	35904.82
542.073	35360.06
542.274	35935.54
542.474	35984.69
542.675	35796.28
542.875	36226.35
543.075	36031.79
543.276	35560.76
543.476	36599.08
543.676	35814.71
543.877	36363.56
544.077	36252.97
544.277	35802.42
544.478	36113.71
544.678	35917.11
544.878	36316.46
545.078	35738.93
545.279	35802.42
545.479	35865.91
545.679	36048.18
545.879	35720.5
546.079	36130.09
546.28	36179.25
546.48	35902.77
546.68	36185.39
546.88	35947.82
547.08	35906.87
547.28	35857.71
547.48	35794.23
547.68	35910.96
547.88	35728.69
548.081	35855.67
548.281	35833.14
548.481	35964.21
548.681	35814.71
548.881	35917.11
549.081	35929.39
549.28	35878.19
549.48	36027.7
549.68	35927.35
549.88	35945.78
550.08	35972.4
550.28	35933.49
550.48	35974.45
550.68	36214.06
550.88	35366.2
551.08	35728.69
551.279	35863.86
551.479	35740.98
551.679	35597.62
551.879	35196.22
552.079	35999.02
552.278	35478.84
552.478	35710.26
552.678	35896.63
552.878	35788.08
553.077	35665.21
553.277	35474.74
553.477	36003.12
553.676	35415.35
553.876	35577.14
554.076	35304.76
554.275	35755.32
554.475	35456.31
554.674	35638.58
554.874	35466.55
555.074	35495.22
555.273	35538.23
555.473	35355.96
555.672	35302.71
555.872	35409.21
556.071	35370.3
556.271	35380.54
556.47	35214.65
556.67	34923.84
556.869	34983.23
557.068	35654.97
557.268	34944.32
557.467	35185.98
557.667	34905.41
557.866	35237.18
558.065	34751.81
558.265	34823.49
558.464	34663.75
558.663	34981.18
558.863	34403.66
559.062	34960.7
559.261	34530.63
559.461	35108.16
559.66	34389.32
559.859	34751.81
560.058	34196.81
560.258	34602.31
560.457	34121.04
560.656	34229.58
560.855	33840.46
561.054	34690.37
561.253	34241.87
561.453	34411.85
561.652	34176.33
561.851	34336.07
562.05	33910.1
562.249	34071.89
562.448	34426.18
562.647	34118.99
562.846	33949.01
563.045	33729.87
563.244	33953.1
563.443	34057.55
563.642	33662.29
563.841	33484.12
564.04	33623.38
564.239	34096.46
564.438	33854.8
564.637	33379.67
564.836	33627.48
565.035	33189.21
565.234	33525.08
565.432	33099.1
565.631	33209.69
565.83	33201.5
566.029	33344.86
566.228	32812.38
566.427	32925.02
566.625	32849.25
566.824	32423.27
567.023	33013.09
567.222	32388.46
567.42	32873.82
567.619	32730.47
567.818	32642.4
568.016	32372.07
568.215	32867.68
568.414	32404.84
568.612	32441.7
568.811	32390.5
569.01	32429.41
569.208	31880.56
569.407	32146.79
569.605	31704.43
569.804	32245.1
570.002	31329.66
570.201	31690.1
570.4	31522.16
570.598	31731.06
570.797	31237.5
570.995	31374.71
571.193	30834.05
571.392	31313.27
571.59	31036.8
571.789	31251.83
571.987	31069.56
572.186	31124.86
572.384	30915.97
572.582	30920.06
572.781	31061.37
572.979	30719.36
573.177	30690.69
573.376	30739.84
573.574	30201.22
573.772	30530.95
573.971	30182.79
574.169	29959.56
574.367	30170.5
574.565	30008.72
574.763	29842.83
574.962	29805.97
575.16	29177.24
575.358	29609.36
575.556	29670.8
575.754	29719.95
575.952	29257.11
576.151	29619.6
576.349	28999.07
576.547	29291.93
576.745	29425.04
576.943	29240.73
577.141	29187.48
577.339	29431.19
577.537	28786.08
577.735	28685.73
577.933	28523.94
578.131	28761.5
578.329	28642.72
578.527	28310.95
578.725	27946.41
578.923	28550.56
579.121	28147.11
579.319	28069.29
579.516	28120.49
579.714	27997.61
579.912	28069.29
580.11	27624.88
580.308	27805.1
580.506	27909.55
580.704	27123.13
580.901	27415.99
581.099	27671.98
581.297	27110.84
581.495	27164.09
581.692	27622.83
581.89	26584.51
582.088	27250.1
582.285	26850.75
582.483	27004.35
582.681	26965.43
582.878	26754.49
583.076	26381.76
583.274	26699.2
583.471	26928.57
583.669	26463.68
583.866	26254.79
584.064	26420.67
584.262	25896.39
584.459	26312.13
584.657	25937.35
584.854	26062.28
585.052	25486.8
585.249	25816.52
585.447	25970.12
585.644	25503.18
585.841	25613.77
586.039	25654.73
586.236	25224.66
586.434	25433.55
586.631	25279.96
586.828	25105.88
587.026	25071.06
587.223	25183.7
587.42	24911.32
587.618	25071.06
587.815	24364.51
588.012	24405.47
588.21	24772.06
588.407	24690.14
588.604	24557.02
588.801	24323.55
588.999	24423.9
589.196	24620.51
589.393	24055.27
589.59	24372.71
589.787	24346.08
589.984	23922.15
590.182	23801.32
590.379	24057.32
590.576	23893.48
590.773	23700.97
590.97	23928.3
591.167	23553.52
591.364	23260.66
591.561	23561.71
591.758	23498.22
591.955	23674.35
592.152	23231.99
592.349	23158.26
592.546	23047.67
592.743	23229.94
592.94	22734.33
593.137	23223.79
593.334	23064.05
593.531	22814.2
593.727	23059.96
593.924	22879.74
594.121	22519.29
594.318	22603.26
594.515	22455.81
594.712	22449.66
594.908	22621.69
595.105	22384.13
595.302	22588.92
595.499	22416.9
595.696	22478.33
595.892	22326.78
596.089	22175.23
596.286	22089.22
596.482	21833.22
596.679	22011.4
596.876	21734.92
597.072	21771.79
597.269	21859.85
597.466	21566.99
597.662	21503.5
597.859	21724.68
598.055	21190.16
598.252	21136.91
598.448	21646.86
598.645	21055
598.841	20837.91
599.038	21343.76
599.234	21095.96
599.431	20776.47
599.627	20747.8
599.824	20792.86
600.02	20891.16
600.217	20780.57
600.413	20762.14
600.609	20459.04
600.806	20438.56
601.002	20549.15
601.198	20287.01
601.395	20434.46
601.591	20094.5
601.787	20157.99
601.984	20143.65
602.18	20307.49
602.376	20172.32
602.572	19662.38
602.769	19957.28
602.965	19836.45
603.161	19914.28
603.357	19820.07
603.553	19533.36
603.75	19390
603.946	19265.07
604.142	19387.95
604.338	18980.4
604.534	19504.68
604.73	19140.15
604.926	19260.98
605.122	19562.03
605.318	19033.65
605.514	18832.95
605.71	18937.4
605.906	18783.8
606.102	18755.13
606.298	19017.27
606.494	18642.49
606.69	18566.71
606.886	18691.64
607.082	18351.68
607.278	18605.63
607.474	18120.26
607.67	18693.69
607.866	18122.3
608.062	18511.42
608.257	18347.58
608.453	18208.32
608.649	18167.36
608.845	17839.69
609.041	17821.25
609.236	17751.62
609.432	17888.84
609.628	17739.33
609.824	17604.17
610.019	17624.65
610.215	17722.95
610.411	17628.74
610.606	17505.87
610.802	17557.07
610.998	17374.8
611.193	17374.8
611.389	17356.36
611.584	17190.48
611.78	17223.25
611.976	17094.22
612.171	17143.38
612.367	17190.48
612.562	17102.42
612.758	16815.7
612.953	16899.67
613.149	17104.46
613.344	16787.03
613.539	17028.69
613.735	16502.36
613.93	16889.43
614.126	16473.69
614.321	17083.98
614.517	16606.81
614.712	16428.63
614.907	16316
615.103	16502.36
615.298	16272.99
615.493	16471.64
615.688	16045.66
615.884	16404.06
616.079	16098.91
616.274	16277.08
616.47	15814.24
616.665	16201.31
616.86	15810.15
617.055	15744.61
617.25	15982.18
617.445	15908.45
617.641	15689.32
617.836	15801.96
618.031	15443.56
618.226	15851.11
618.421	15431.27
618.616	15451.75
618.811	15279.72
619.006	15693.41
619.201	15300.2
619.396	15124.08
619.591	14913.14
619.786	15117.93
619.981	14945.91
620.176	15074.93
620.371	14687.86
620.566	14894.71
620.761	14528.12
620.956	14638.71
621.151	14474.87
621.346	14657.14
621.541	14450.3
621.735	14503.54
621.93	14337.66
622.125	14220.92
622.32	14022.27
622.515	14116.48
622.709	14243.45
622.904	14020.22
623.099	13973.12
623.294	14282.36
623.488	13792.9
623.683	13817.47
623.878	13395.59
624.072	13584.01
624.267	13584.01
624.462	13246.09
624.656	13127.31
624.851	13160.08
625.046	13084.3
625.24	13207.18
625.435	12746.39
625.629	13110.93
625.824	13045.39
626.018	12891.79
626.213	12408.47
626.407	12578.45
626.602	12711.57
626.796	12619.41
626.991	12457.62
627.185	12510.87
627.38	12353.18
627.574	12379.8
627.768	11988.64
627.963	11996.83
628.157	12007.07
628.352	12244.63
628.546	11798.18
628.74	11873.95
628.935	11841.18
629.129	11808.42
629.323	11712.16
629.517	11685.54
629.712	11730.59
629.906	11400.87
630.1	11335.34
630.294	11556.52
630.489	11447.97
630.683	11435.69
630.877	11069.1
631.071	11136.68
631.265	11138.73
631.459	11073.2
631.653	10942.13
631.848	11009.71
632.042	11048.62
632.236	10907.31
632.43	10872.5
632.624	10833.58
632.818	10921.65
633.012	10499.77
633.206	10530.48
633.4	10497.72
633.594	10542.77
633.788	10479.29
633.982	10389.17
634.176	10479.29
634.369	10403.51
634.563	10137.27
634.757	10167.99
634.951	10260.15
635.145	10086.08
635.339	9957.05
635.533	9891.52
635.726	9868.99
635.92	9707.2
636.114	9840.32
636.308	9838.27
636.501	9817.79
636.695	9789.12
636.889	9549.51
637.083	9510.6
637.276	9541.32
637.47	9629.38
637.664	9424.58
637.857	9443.01
638.051	9184.97
638.244	9285.32
638.438	9293.51
638.632	9244.36
638.825	8953.55
639.019	9158.35
639.212	8988.36
639.406	9064.14
639.599	8986.32
639.793	8871.63
639.986	8984.27
640.18	9029.32
640.373	8849.1
640.567	8740.56
640.76	8654.55
640.954	8550.1
641.147	8634.07
641.34	8464.08
641.534	8474.32
641.727	8625.87
641.92	8449.75
642.114	8574.67
642.307	8132.31
642.5	8195.8
642.694	8271.58
642.887	8003.29
643.08	8187.61
643.273	7958.24
643.467	8091.35
643.66	7945.95
643.853	8074.97
644.046	7962.33
644.239	7876.32
644.432	7821.02
644.626	7798.49
644.819	7663.33
645.012	7722.72
645.205	7536.35
645.398	7491.3
645.591	7444.2
645.784	7419.62
645.977	7311.08
646.17	7333.61
646.363	7419.62
646.556	7126.76
646.749	7118.57
646.942	7311.08
647.135	7249.64
647.328	7012.07
647.521	6878.96
647.714	6909.68
647.907	6878.96
648.099	6876.91
648.292	6903.53
648.485	6893.29
648.678	6635.25
648.871	6614.77
649.064	6534.9
649.256	6719.21
649.449	6573.81
649.642	6612.72
649.835	6500.08
650.027	6549.23
650.22	6377.2
650.413	6414.07
650.605	6340.34
650.798	6360.82
650.991	6106.87
651.183	6143.74
651.376	6229.75
651.568	6106.87
651.761	6133.5
651.954	6293.24
652.146	6059.77
652.339	6037.24
652.531	6059.77
652.724	5955.32
652.916	5820.16
653.109	5660.41
653.301	5732.09
653.494	5885.69
653.686	5646.08
653.879	5773.05
654.071	5748.48
654.263	5672.7
654.456	5707.52
654.648	5660.41
654.84	5598.98
655.033	5383.94
655.225	5345.03
655.417	5478.15
655.61	5336.84
655.802	5435.14
655.994	5363.46
656.186	5244.68
656.379	5160.71
656.571	5252.87
656.763	5148.42
656.955	5177.09
657.148	5142.28
657.34	5046.02
657.532	5080.84
657.724	4988.68
657.916	5109.51
658.108	4878.09
658.3	4796.17
658.492	4943.63
658.684	4747.02
658.876	4767.5
659.068	4808.46
659.26	4710.16
659.452	4814.6
659.644	4722.45
659.836	4734.73
660.028	4517.65
660.22	4507.41
660.412	4468.5
660.604	4435.73
660.796	4495.12
660.988	4476.69
661.18	4237.08
661.372	4421.39
661.563	4402.96
661.755	4091.67
661.947	4259.6
662.139	4310.8
662.331	4235.03
662.522	4196.12
662.714	4218.64
662.906	4048.66
663.097	4114.2
663.289	4058.9
663.481	4132.63
663.673	4063
663.864	3950.36
664.056	3950.36
664.247	3862.3
664.439	3835.67
664.631	3829.53
664.822	4085.53
665.014	3768.09
665.205	3753.76
665.397	3749.66
665.588	3915.55
665.78	3653.41
665.971	3862.3
666.163	3526.43
666.354	3598.11
666.546	3557.15
666.737	3624.73
666.929	3583.77
667.12	3569.44
667.311	3620.64
667.503	3419.94
667.694	3415.84
667.885	3454.75
668.077	3469.09
668.268	3440.42
668.459	3436.32
668.651	3329.83
668.842	3366.69
669.033	3309.35
669.224	3342.11
669.416	3235.62
669.607	3299.11
669.798	3315.49
669.989	3436.32
670.18	3223.33
670.371	3295.01
670.563	3061.54
670.754	3163.94
670.945	3258.15
671.136	3206.95
671.327	3002.15
671.518	3151.65
671.709	3006.25
671.9	3047.21
672.091	2979.62
672.282	3034.92
672.473	3075.88
672.664	2993.96
672.855	3006.25
673.046	3157.8
673.237	3139.37
673.428	3028.78
673.619	2776.87
673.809	2901.8
674	2973.48
674.191	2889.51
674.382	3028.78
674.573	2860.84
674.764	2850.6
674.954	2899.75
675.145	2862.89
675.336	2909.99
675.527	2959.14
675.717	2766.64
675.908	2813.74
676.099	2916.14
676.289	2832.17
676.48	2846.51
676.671	2754.35
676.861	2742.06
677.052	2862.89
677.243	2799.4
677.433	2748.2
677.624	2737.96
677.814	2645.8
678.005	2740.01
678.195	2735.92
678.386	2692.91
678.576	2557.74
678.767	2580.27
678.957	2658.09
679.148	2649.9
679.338	2602.8
679.529	2688.81
679.719	2694.96
679.909	2557.74
680.1	2455.34
680.29	2565.93
680.481	2516.78
680.671	2674.48
680.861	2506.54
681.052	2576.17
681.242	2596.65
681.432	2551.6
681.622	2656.04
681.813	2391.86
682.003	2502.45
682.193	2537.26
682.383	2567.98
682.573	2449.2
682.764	2498.35
682.954	2436.91
683.144	2498.35
683.334	2426.67
683.524	2549.55
683.714	2545.45
683.904	2402.1
684.094	2506.54
684.284	2502.45
684.474	2400.05
684.664	2400.05
684.854	2418.48
685.044	2412.34
685.234	2500.4
685.424	2529.07
685.614	2297.65
685.804	2481.97
685.994	2328.37
686.184	2494.26
686.374	2410.29
686.564	2402.1
686.753	2445.1
686.943	2311.99
687.133	2359.09
687.323	2463.54
687.513	2367.28
687.702	2365.23
687.892	2350.9
688.082	2445.1
688.272	2580.27
688.461	2434.86
688.651	2455.34
688.841	2344.75
689.03	2400.05
689.22	2338.61
689.41	2383.66
689.599	2449.2
689.789	2457.39
689.979	2395.95
690.168	2453.3
690.358	2336.56
690.547	2379.57
690.737	2346.8
690.926	2260.79
691.116	2299.7
691.305	2391.86
691.495	2395.95
691.684	2338.61
691.874	2379.57
692.063	2514.73
692.252	2393.9
692.442	2346.8
692.631	2344.75
692.82	2375.47
693.01	2459.44
693.199	2395.95
693.388	2297.65
693.578	2412.34
693.767	2373.43
693.956	2445.1
694.146	2324.27
694.335	2451.25
694.524	2373.43
694.713	2371.38
694.902	2416.43
695.092	2406.19
695.281	2365.23
695.47	2316.08
695.659	2316.08
695.848	2350.9
696.037	2424.62
696.226	2342.71
696.415	2389.81
696.604	2352.95
696.793	2379.57
696.982	2373.43
697.171	2371.38
697.36	2477.87
697.549	2307.89
697.738	2363.19
697.927	2291.51
698.116	2422.58
698.305	2408.24
698.494	2363.19
698.683	2334.51
698.872	2373.43
699.061	2283.31
699.25	2287.41
699.438	2297.65
699.627	2352.95
699.816	2391.86
700.005	2342.71
700.193	2293.55
700.382	2340.66
700.571	2350.9
700.76	2297.65
700.948	2324.27
701.137	2377.52
701.326	2332.47
701.514	2299.7
701.703	2252.59
701.892	2174.77
702.08	2283.31
702.269	2322.23
702.457	2371.38
702.646	2252.59
702.834	2178.87
703.023	2232.12
703.212	2318.13
703.4	2228.02
703.589	2352.95
703.777	2246.45
703.965	2142
704.154	2168.63
704.342	2156.34
704.531	2105.14
704.719	2201.4
704.907	2207.54
705.096	2047.8
705.284	2264.88
705.472	2055.99
705.661	2225.97
705.849	2142
706.037	2146.1
706.226	2113.33
706.414	2131.76
706.602	2105.14
706.79	2082.61
706.979	1972.02
707.167	2199.35
707.355	2043.7
707.543	2043.7
707.731	2080.57
707.919	2055.99
708.107	2055.99
708.296	1969.98
708.484	2072.37
708.672	2017.08
708.86	2031.41
709.048	2031.41
709.236	1978.17
709.424	1980.22
709.612	2109.24
709.8	1984.31
709.988	1939.26
710.176	1959.74
710.364	1978.17
710.551	1937.21
710.739	1965.88
710.927	1990.45
711.115	1896.25
711.303	1978.17
711.491	2027.32
711.679	1861.43
711.866	1972.02
712.054	1824.57
712.242	1908.54
712.43	1945.4
712.617	1920.82
712.805	1853.24
712.993	1824.57
713.181	1857.34
713.368	1828.67
713.556	1804.09
713.744	1795.9
713.931	1818.43
714.119	1756.99
714.306	1769.27
714.494	1718.08
714.682	1746.75
714.869	1728.31
715.057	1804.09
715.244	1777.47
715.432	1836.86
715.619	1724.22
715.807	1677.12
715.994	1799.99
716.182	1754.94
716.369	1587.01
716.556	1679.16
716.744	1767.23
716.931	1716.03
717.119	1720.12
717.306	1683.26
717.493	1650.49
717.681	1707.84
717.868	1630.01
718.055	1615.68
718.242	1605.44
718.43	1615.68
718.617	1627.96
718.804	1738.55
718.991	1640.25
719.179	1587.01
719.366	1523.52
719.553	1564.48
719.74	1494.85
719.927	1535.81
720.114	1560.38
720.301	1593.15
720.488	1537.85
720.676	1488.7
720.863	1470.27
721.05	1496.89
721.237	1511.23
721.424	1539.9
721.611	1494.85
721.798	1529.66
721.985	1494.85
722.172	1546.05
722.358	1470.27
722.545	1537.85
722.732	1476.41
722.919	1441.6
723.106	1539.9
723.293	1410.88
723.48	1447.74
723.667	1429.31
723.853	1427.26
724.04	1343.3
724.227	1355.58
724.414	1337.15
724.6	1357.63
724.787	1347.39
724.974	1439.55
725.161	1357.63
725.347	1285.95
725.534	1351.49
725.72	1394.5
725.907	1242.95
726.094	1318.72
726.28	1275.71
726.467	1333.06
726.653	1212.23
726.84	1232.71
727.027	1408.83
727.213	1224.51
727.4	1306.43
727.586	1308.48
727.773	1300.29
727.959	1363.78
728.145	1263.43
728.332	1306.43
728.518	1230.66
728.705	1251.14
728.891	1275.71
729.077	1210.18
729.264	1265.47
729.45	1210.18
729.636	1322.82
729.823	1191.75
730.009	1132.36
730.195	1226.56
730.382	1216.32
730.568	1242.95
730.754	1175.36
730.94	1183.56
731.126	1165.12
731.313	1171.27
731.499	1224.51
731.685	1199.94
731.871	1177.41
732.057	989
732.243	1118.02
732.429	1062.73
732.615	1232.71
732.801	1126.21
732.987	1120.07
733.173	1109.83
733.359	1134.4
733.545	1027.91
733.731	1099.59
733.917	1175.36
734.103	1085.25
734.289	1109.83
734.475	1093.44
734.661	1081.16
734.847	1050.44
735.033	1089.35
735.219	1128.26
735.404	1169.22
735.59	976.71
735.776	1085.25
735.962	1173.32
736.148	1070.92
736.333	991.05
736.519	1077.06
736.705	1038.15
736.89	1050.44
737.076	1009.48
737.262	1048.39
737.447	1097.54
737.633	954.18
737.819	1077.06
738.004	1124.16
738.19	948.04
738.375	1060.68
738.561	948.04
738.747	937.8
738.932	1007.43
739.118	1077.06
739.303	1027.91
739.489	1021.77
739.674	972.61
739.859	1007.43
740.045	849.74
740.23	939.85
740.416	1009.48
740.601	1017.67
740.786	913.22
740.972	859.98
741.157	948.04
741.342	941.89
741.528	892.74
741.713	900.94
741.898	941.89
742.084	798.54
742.269	929.61
742.454	968.52
742.639	931.66
742.824	970.57
743.01	880.46
743.195	925.51
743.38	859.98
743.565	917.32
743.75	896.84
743.935	898.89
744.12	804.68
744.305	866.12
744.49	833.35
744.675	812.87
744.86	808.78
745.045	931.66
745.23	874.31
745.415	843.59
745.6	794.44
745.785	853.83
745.97	857.93
746.155	837.45
746.34	857.93
746.525	800.59
746.71	778.06
746.895	728.91
747.079	808.78
747.264	702.28
747.449	718.67
747.634	741.19
747.819	767.82
748.003	782.15
748.188	685.9
748.373	726.86
748.557	819.02
748.742	743.24
748.927	687.95
749.111	743.24
749.296	735.05
749.481	790.35
749.665	679.75
749.85	724.81
750.034	714.57
750.219	804.68
750.404	700.23
750.588	687.95
750.773	661.32
750.957	683.85
751.141	698.19
751.326	733
751.51	636.75
751.695	700.23
751.879	626.51
752.064	632.65
752.248	673.61
752.432	698.19
752.617	667.47
752.801	667.47
752.985	698.19
753.17	620.36
753.354	581.45
753.538	511.82
753.722	636.75
753.907	642.89
754.091	628.56
754.275	587.6
754.459	616.27
754.643	593.74
754.828	548.68
755.012	571.21
755.196	614.22
755.38	626.51
755.564	517.97
755.748	646.99
755.932	655.18
756.116	669.52
756.3	538.45
756.484	552.78
756.668	479.05
756.852	462.67
757.036	536.4
757.22	499.53
757.404	517.97
757.588	509.77
757.772	534.35
757.956	563.02
758.14	509.77
758.323	536.4
758.507	474.96
758.691	544.59
758.875	542.54
759.059	456.53
759.242	515.92
759.426	415.57
759.61	528.21
759.794	485.2
759.977	491.34
760.161	548.68
760.345	472.91
760.528	536.4
760.712	462.67
760.895	495.44
761.079	495.44
761.263	456.53
761.446	440.14
761.63	548.68
761.813	409.42
761.997	503.63
762.18	405.33
762.364	460.62
762.547	352.08
762.731	474.96
762.914	483.15
763.098	380.75
763.281	382.8
763.464	374.61
763.648	407.38
763.831	493.39
764.015	462.67
764.198	434
764.381	450.38
764.564	427.85
764.748	489.29
764.931	446.29
765.114	425.81
765.297	436.05
765.481	427.85
765.664	434
765.847	429.9
766.03	434
766.213	376.66
766.397	497.49
766.58	429.9
766.763	436.05
766.946	368.46
767.129	393.04
767.312	360.27
767.495	364.37
767.678	442.19
767.861	397.14
768.044	458.57
768.227	259.92
768.41	384.85
768.593	468.81
768.776	425.81
768.959	376.66
769.142	434
769.324	438.09
769.507	388.94
769.69	352.08
769.873	386.9
770.056	382.8
770.239	466.77
770.421	417.61
770.604	393.04
770.787	429.9
770.97	298.83
771.152	413.52
771.335	388.94
771.518	431.95
771.7	440.14
771.883	382.8
772.066	390.99
772.248	413.52
772.431	388.94
772.613	362.32
772.796	380.75
772.978	403.28
773.161	399.18
773.343	440.14
773.526	372.56
773.708	438.09
773.891	407.38
774.073	290.64
774.256	302.93
774.438	393.04
774.621	339.79
774.803	253.78
774.985	382.8
775.168	317.26
775.35	280.4
775.532	347.98
775.715	347.98
775.897	358.22
776.079	417.61
776.261	315.22
776.444	366.42
776.626	347.98
776.808	364.37
776.99	317.26
777.173	268.11
777.355	317.26
777.537	368.46
777.719	335.7
777.901	323.41
778.083	304.98
778.265	212.82
778.447	368.46
778.629	286.54
778.811	302.93
778.993	288.59
779.175	270.16
779.357	278.35
779.539	290.64
779.721	253.78
779.903	321.36
780.085	327.5
780.267	249.68
780.449	233.3
780.631	307.02
780.812	253.78
780.994	253.78
781.176	241.49
781.358	282.45
781.54	259.92
781.721	288.59
781.903	257.87
782.085	327.5
782.267	259.92
782.448	259.92
782.63	290.64
782.812	223.06
782.993	253.78
783.175	218.96
783.357	233.3
783.538	225.11
783.72	104.28
783.901	282.45
784.083	249.68
784.264	212.82
784.446	231.25
784.627	223.06
784.809	173.91
784.99	274.26
785.172	251.73
785.353	210.77
785.535	206.67
785.716	247.63
785.897	208.72
786.079	200.53
786.26	233.3
786.441	243.54
786.623	198.48
786.804	241.49
786.985	212.82
787.167	155.47
787.348	200.53
787.529	167.76
787.71	122.71
787.891	208.72
788.073	171.86
788.254	159.57
788.435	163.67
788.616	221.01
788.797	202.58
788.978	249.68
789.159	120.66
789.34	208.72
789.522	116.56
789.703	104.28
789.884	173.91
790.065	198.48
790.246	141.14
790.427	151.38
790.607	165.71
790.788	210.77
790.969	137.04
791.15	210.77
791.331	114.52
791.512	151.38
791.693	137.04
791.874	159.57
792.054	159.57
792.235	210.77
792.416	178
792.597	208.72
792.778	87.89
792.958	167.76
793.139	167.76
793.32	178
793.5	153.43
793.681	167.76
793.862	137.04
794.042	264.02
794.223	169.81
794.404	192.34
794.584	122.71
794.765	114.52
794.945	126.8
795.126	132.95
795.306	110.42
795.487	184.15
795.667	141.14
795.848	204.63
796.028	65.36
796.209	106.32
796.389	231.25
796.57	161.62
796.75	175.95
796.93	178
797.111	106.32
797.291	184.15
797.471	159.57
797.652	110.42
797.832	61.27
798.012	192.34
798.192	165.71
798.373	112.47
798.553	139.09
798.733	163.67
798.913	79.7
799.093	130.9
799.274	108.37
799.454	137.04
799.634	143.19
799.814	153.43
799.994	167.76
800.174	118.61
800.354	141.14
800.534	130.9
800.714	120.66
800.894	147.28
801.074	163.67
801.254	114.52
801.434	241.49
801.614	104.28
801.794	77.65
801.974	401.23
802.154	112.47
802.334	130.9
802.514	94.04
802.693	40.79
802.873	81.75
803.053	139.09
803.233	85.84
803.413	139.09
803.592	139.09
803.772	81.75
803.952	63.32
804.131	87.89
804.311	104.28
804.491	55.12
804.67	108.37
804.85	85.84
805.03	69.46
805.209	151.38
805.389	124.76
805.568	128.85
805.748	46.93
805.928	135
806.107	77.65
806.287	65.36
806.466	118.61
806.646	104.28
806.825	126.8
807.004	57.17
807.184	124.76
807.363	110.42
807.543	65.36
807.722	128.85
807.901	120.66
808.081	161.62
808.26	145.24
808.439	85.84
808.619	120.66
808.798	149.33
808.977	69.46
809.156	83.8
809.336	126.8
809.515	137.04
809.694	36.69
809.873	61.27
810.052	118.61
810.231	32.6
810.411	59.22
810.59	89.94
810.769	89.94
810.948	38.74
811.127	51.03
811.306	46.93
811.485	46.93
811.664	63.32
811.843	79.7
812.022	53.08
812.201	135
812.38	63.32
812.559	94.04
812.737	94.04
812.916	61.27
813.095	110.42
813.274	100.18
813.453	-8.36
813.632	46.93
813.811	94.04
813.989	73.56
814.168	57.17
814.347	73.56
814.526	91.99
814.704	14.17
814.883	69.46
815.062	81.75
815.24	20.31
815.419	24.4
815.598	69.46
815.776	79.7
815.955	-26.79
816.133	55.12
816.312	44.88
816.49	38.74
816.669	65.36
816.847	100.18
817.026	91.99
817.204	-14.51
817.383	22.36
817.561	81.75
817.74	106.32
817.918	1.88
818.097	135
818.275	20.31
818.453	40.79
818.632	42.84
818.81	55.12
818.988	94.04
819.167	14.17
819.345	51.03
819.523	18.26
819.701	42.84
819.879	85.84
820.058	40.79
820.236	135
820.414	67.41
820.592	98.13
820.77	48.98
820.948	89.94
821.127	8.02
821.305	128.85
821.483	40.79
821.661	63.32
821.839	104.28
822.017	85.84
822.195	77.65
822.373	79.7
822.551	-45.23
822.729	87.89
822.907	83.8
823.085	65.36
823.262	42.84
823.44	46.93
823.618	118.61
823.796	18.26
823.974	53.08
824.152	14.17
824.329	36.69
824.507	53.08
824.685	63.32
824.863	46.93
825.04	36.69
825.218	94.04
825.396	59.22
825.574	61.27
825.751	-14.51
825.929	42.84
826.107	-28.84
826.284	44.88
826.462	12.12
826.639	44.88
826.817	18.26
826.994	28.5
827.172	30.55
827.349	36.69
827.527	10.07
827.704	22.36
827.882	44.88
828.059	73.56
828.237	57.17
828.414	-4.27
828.591	16.21
828.769	65.36
828.946	38.74
829.124	102.23
829.301	96.08
829.478	10.07
829.655	5.97
829.833	69.46
830.01	24.4
830.187	55.12
830.364	65.36
830.542	75.6
830.719	-12.46
830.896	73.56
831.073	77.65
831.25	81.75
831.427	71.51
831.604	-8.36
831.782	122.71
831.959	89.94
832.136	16.21
832.313	-12.46
832.49	57.17
832.667	114.52
832.844	3.93
833.021	12.12
833.198	20.31
833.374	8.02
833.551	40.79
833.728	8.02
833.905	-10.41
834.082	38.74
834.259	-61.61
834.436	40.79
834.612	8.02
834.789	38.74
834.966	42.84
835.143	53.08
835.319	46.93
835.496	30.55
835.673	79.7
835.85	94.04
836.026	89.94
836.203	91.99
836.38	34.64
836.556	36.69
836.733	-22.7
836.909	46.93
837.086	3.93
837.262	44.88
837.439	28.5
837.616	22.36
837.792	22.36
837.968	53.08
838.145	-10.41
838.321	-37.03
838.498	22.36
838.674	89.94
838.851	12.12
839.027	-18.6
839.203	16.21
839.38	20.31
839.556	-18.6
839.732	34.64
839.909	-67.75
840.085	169.81
840.261	-45.23
840.437	-6.31
840.614	16.21
840.79	24.4
840.966	20.31
841.142	77.65
841.318	12.12
841.494	40.79
841.671	-20.65
841.847	12.12
842.023	-22.7
842.199	36.69
842.375	102.23
842.551	-90.28
842.727	75.6
842.903	46.93
843.079	79.7
843.255	-41.13
843.431	18.26
843.607	28.5
843.783	32.6
843.959	110.42
844.134	18.26
844.31	24.4
844.486	32.6
844.662	-10.41
844.838	61.27
845.013	61.27
845.189	24.4
845.365	40.79
845.541	24.4
845.716	120.66
845.892	-18.6
846.068	114.52
846.244	-34.99
846.419	91.99
846.595	61.27
846.77	30.55
846.946	-14.51
847.122	32.6
847.297	-2.22
847.473	79.7
847.648	-2.22
847.824	18.26
847.999	-57.51
848.175	16.21
848.35	18.26
848.526	-53.42
848.701	77.65
848.876	26.45
849.052	-0.17
849.227	-32.94
849.403	-26.79
849.578	81.75
849.753	48.98
849.929	14.17
850.104	32.6
850.279	59.22
850.454	53.08
850.63	34.64
850.805	34.64
850.98	32.6
851.155	44.88
851.33	36.69
851.505	-2.22
851.681	71.51
851.856	24.4
852.031	-28.84
852.206	98.13
852.381	38.74
852.556	-0.17
852.731	65.36
852.906	73.56
853.081	73.56
853.256	16.21
853.431	48.98
853.606	10.07
853.781	10.07
853.956	22.36
854.131	3.93
854.305	10.07
854.48	63.32
854.655	-34.99
854.83	53.08
855.005	40.79
855.18	81.75
855.354	-47.27
855.529	32.6
855.704	-24.75
855.879	77.65
856.053	-34.99
856.228	-16.55
856.403	65.36
856.577	-16.55
856.752	-59.56
856.926	-4.27
857.101	14.17
857.276	30.55
857.45	-20.65
857.625	12.12
857.799	73.56
857.974	12.12
858.148	24.4
858.323	53.08
858.497	22.36
858.672	32.6
858.846	-6.31
859.02	30.55
859.195	1.88
859.369	1.88
859.543	16.21
859.718	63.32
859.892	46.93
860.066	16.21
860.241	-22.7
860.415	-2.22
860.589	77.65
860.763	24.4
860.938	-22.7
861.112	51.03
861.286	53.08
861.46	3.93
861.634	22.36
861.808	5.97
861.982	3.93
862.157	16.21
862.331	-2.22
862.505	24.4
862.679	32.6
862.853	12.12
863.027	-51.37
863.201	44.88
863.375	38.74
863.549	-2.22
863.722	-12.46
863.896	-24.75
864.07	20.31
864.244	32.6
864.418	1.88
864.592	48.98
864.766	40.79
864.939	53.08
865.113	36.69
865.287	53.08
865.461	16.21
865.634	44.88
865.808	-16.55
865.982	36.69
866.156	22.36
866.329	36.69
866.503	16.21
866.676	-22.7
866.85	71.51
867.024	-43.18
867.197	30.55
867.371	12.12
867.544	-4.27
867.718	-28.84
867.891	1.88
868.065	18.26
868.238	26.45
868.412	-14.51
868.585	-20.65
868.759	14.17
868.932	1.88
869.105	-20.65
869.279	-26.79
869.452	40.79
869.625	-14.51
869.799	-59.56
869.972	12.12
870.145	34.64
870.319	3.93
870.492	46.93
870.665	-16.55
870.838	-18.6
871.011	87.89
871.185	30.55
871.358	-30.89
871.531	10.07
871.704	14.17
871.877	26.45
872.05	34.64
872.223	-90.28
872.396	24.4
872.569	57.17
872.742	-26.79
872.915	-20.65
873.088	-4.27
873.261	-24.75
873.434	-12.46
873.607	22.36
873.78	53.08
873.953	-10.41
874.126	-26.79
874.299	42.84
874.471	-90.28
874.644	57.17
874.817	59.22
874.99	30.55
875.163	-8.36
875.335	30.55
875.508	57.17
875.681	46.93
875.853	-12.46
876.026	32.6
876.199	18.26
876.371	67.41
876.544	30.55
876.717	-4.27
876.889	38.74
877.062	42.84
877.234	-39.08
877.407	20.31
877.579	-8.36
877.752	30.55
877.924	-10.41
878.097	73.56
878.269	32.6
878.442	-2.22
878.614	8.02
878.786	22.36
878.959	-14.51
879.131	65.36
879.303	-26.79
879.476	-41.13
879.648	-16.55
879.82	38.74
879.993	-75.95
880.165	36.69
880.337	-98.47
880.509	55.12
880.681	-45.23
880.854	-10.41
881.026	-14.51
881.198	65.36
881.37	-39.08
881.542	-0.17
881.714	-16.55
881.886	-61.61
882.058	14.17
882.23	3.93
882.402	-51.37
882.574	-0.17
882.746	-2.22
882.918	8.02
883.09	-20.65
883.262	40.79
883.434	-53.42
883.606	-22.7
883.778	40.79
883.95	10.07
884.122	-22.7
884.293	12.12
884.465	12.12
884.637	73.56
884.809	-10.41
884.98	-14.51
885.152	-6.31
885.324	-26.79
885.496	-10.41
885.667	28.5
885.839	-41.13
886.011	10.07
886.182	12.12
886.354	-37.03
886.525	-0.17
886.697	-63.66
886.869	-49.32
887.04	40.79
887.212	14.17
887.383	38.74
887.555	53.08
887.726	8.02
887.897	5.97
888.069	36.69
888.24	36.69
888.412	-39.08
888.583	48.98
888.754	53.08
888.926	-12.46
889.097	-30.89
889.268	-82.09
889.44	57.17
889.611	-6.31
889.782	-37.03
889.953	61.27
890.125	-34.99
890.296	-18.6
890.467	-30.89
890.638	-51.37
890.809	26.45
890.98	-43.18
891.151	-22.7
891.323	69.46
891.494	-43.18
891.665	-6.31
891.836	77.65
892.007	-51.37
892.178	-61.61
892.349	-49.32
892.52	1.88
892.691	-20.65
892.862	-6.31
893.032	-39.08
893.203	-30.89
893.374	-34.99
893.545	-18.6
893.716	-26.79
893.887	61.27
894.057	36.69
894.228	-0.17
894.399	-20.65
894.57	65.36
894.74	81.75
894.911	22.36
895.082	-4.27
895.253	-14.51
895.423	36.69
895.594	-10.41
895.764	-43.18
895.935	-34.99
896.106	-14.51
896.276	-57.51
896.447	36.69
896.617	8.02
896.788	-26.79
896.958	61.27
897.129	-4.27
897.299	20.31
897.47	-0.17
897.64	-34.99
897.81	-12.46
897.981	-28.84
898.151	18.26
898.322	46.93
898.492	34.64
898.662	-24.75
898.832	-41.13
899.003	32.6
899.173	-34.99
899.343	12.12
899.513	36.69
