Data from USB4F104151__5__13-52-07-346.txt Node

Date: Thu Mar 13 13:52:07 EDT 2025
User: louis
Spectrometer: USB4F10415
Trigger mode: 4
Integration Time (sec): 1.000000E-2
Scans to average: 1
Electric dark correction enabled: true
Nonlinearity correction enabled: false
Boxcar width: 0
XAxis mode: Wavelengths
Number of Pixels in Spectrum: 3648
>>>>>Begin Spectral Data<<<<<
178.204	-18.77
178.424	-18.77
178.644	-18.77
178.864	-51.54
179.084	-37.2
179.304	20.14
179.524	-35.16
179.744	18.09
179.964	1.71
180.184	-0.34
180.404	-8.53
180.624	20.14
180.844	3.75
181.064	-33.11
181.283	-4.44
181.503	-16.73
181.723	34.47
181.943	-4.44
182.163	36.52
182.383	38.57
182.602	-26.96
182.822	77.48
183.042	18.09
183.262	34.47
183.482	7.85
183.701	-86.36
183.921	63.15
184.141	38.57
184.361	-0.34
184.58	38.57
184.8	-0.34
185.02	-12.63
185.239	-0.34
185.459	3.75
185.679	-35.16
185.898	13.99
186.118	9.9
186.338	-14.68
186.557	-37.2
186.777	1.71
186.997	63.15
187.216	-31.06
187.436	69.29
187.655	-24.92
187.875	83.63
188.095	-16.73
188.314	7.85
188.534	22.19
188.753	5.8
188.973	-33.11
189.192	42.67
189.412	20.14
189.631	-24.92
189.851	67.24
190.07	48.81
190.29	-20.82
190.509	28.33
190.729	16.04
190.948	38.57
191.168	54.95
191.387	-18.77
191.607	85.67
191.826	32.43
192.045	61.1
192.265	-8.53
192.484	26.28
192.704	1.71
192.923	-41.3
193.142	59.05
193.362	44.71
193.581	38.57
193.8	13.99
194.02	-0.34
194.239	-0.34
194.458	-29.01
194.678	52.91
194.897	20.14
195.116	71.34
195.335	5.8
195.555	54.95
195.774	18.09
195.993	-10.58
196.212	-31.06
196.432	-14.68
196.651	28.33
196.87	-26.96
197.089	13.99
197.308	67.24
197.528	104.11
197.747	13.99
197.966	-49.49
198.185	83.63
198.404	48.81
198.623	-53.59
198.842	13.99
199.062	5.8
199.281	59.05
199.5	28.33
199.719	48.81
199.938	36.52
200.157	52.91
200.376	-67.92
200.595	114.34
200.814	22.19
201.033	13.99
201.252	32.43
201.471	30.38
201.69	11.95
201.909	65.19
202.128	65.19
202.347	40.62
202.566	1.71
202.785	40.62
203.004	30.38
203.223	44.71
203.442	-20.82
203.661	40.62
203.879	16.04
204.098	65.19
204.317	38.57
204.536	11.95
204.755	38.57
204.974	-39.25
205.193	-43.35
205.411	61.1
205.63	63.15
205.849	7.85
206.068	-24.92
206.287	36.52
206.505	32.43
206.724	40.62
206.943	-0.34
207.162	16.04
207.381	28.33
207.599	20.14
207.818	11.95
208.037	-4.44
208.255	69.29
208.474	-0.34
208.693	50.86
208.911	13.99
209.13	34.47
209.349	-16.73
209.567	46.76
209.786	18.09
210.005	13.99
210.223	22.19
210.442	22.19
210.661	81.58
210.879	-8.53
211.098	-39.25
211.316	71.34
211.535	87.72
211.753	61.1
211.972	61.1
212.191	44.71
212.409	-2.39
212.628	-37.2
212.846	24.23
213.065	63.15
213.283	16.04
213.502	13.99
213.72	-35.16
213.938	-6.49
214.157	-6.49
214.375	16.04
214.594	57
214.812	3.75
215.031	18.09
215.249	-2.39
215.467	36.52
215.686	-24.92
215.904	73.39
216.122	3.75
216.341	-47.44
216.559	28.33
216.778	3.75
216.996	11.95
217.214	16.04
217.432	-14.68
217.651	5.8
217.869	26.28
218.087	126.63
218.306	59.05
218.524	61.1
218.742	-0.34
218.96	-4.44
219.179	13.99
219.397	40.62
219.615	36.52
219.833	22.19
220.051	-43.35
220.27	50.86
220.488	9.9
220.706	30.38
220.924	-8.53
221.142	-0.34
221.36	7.85
221.578	40.62
221.796	34.47
222.015	59.05
222.233	-14.68
222.451	26.28
222.669	61.1
222.887	44.71
223.105	-33.11
223.323	65.19
223.541	42.67
223.759	36.52
223.977	-0.34
224.195	46.76
224.413	40.62
224.631	69.29
224.849	-4.44
225.067	20.14
225.285	-8.53
225.503	50.86
225.721	36.52
225.939	77.48
226.157	73.39
226.375	71.34
226.592	38.57
226.81	13.99
227.028	34.47
227.246	32.43
227.464	-18.77
227.682	3.75
227.9	34.47
228.117	-4.44
228.335	7.85
228.553	-10.58
228.771	-18.77
228.989	106.15
229.206	30.38
229.424	-10.58
229.642	13.99
229.86	7.85
230.077	20.14
230.295	61.1
230.513	24.23
230.731	18.09
230.948	75.43
231.166	18.09
231.384	-22.87
231.601	-37.2
231.819	28.33
232.037	118.44
232.254	44.71
232.472	71.34
232.689	1.71
232.907	28.33
233.125	24.23
233.342	-33.11
233.56	5.8
233.777	7.85
233.995	77.48
234.213	22.19
234.43	-14.68
234.648	42.67
234.865	42.67
235.083	77.48
235.3	-45.4
235.518	16.04
235.735	26.28
235.953	36.52
236.17	67.24
236.388	-20.82
236.605	7.85
236.822	81.58
237.04	20.14
237.257	-26.96
237.475	-16.73
237.692	-4.44
237.909	57
238.127	20.14
238.344	61.1
238.562	57
238.779	11.95
238.996	28.33
239.214	40.62
239.431	65.19
239.648	57
239.865	52.91
240.083	-20.82
240.3	3.75
240.517	54.95
240.735	9.9
240.952	-20.82
241.169	24.23
241.386	97.96
241.603	-0.34
241.821	-0.34
242.038	97.96
242.255	57
242.472	38.57
242.689	-0.34
242.907	38.57
243.124	79.53
243.341	106.15
243.558	-18.77
243.775	-18.77
243.992	28.33
244.209	52.91
244.426	59.05
244.643	-0.34
244.86	-20.82
245.078	9.9
245.295	-8.53
245.512	-10.58
245.729	54.95
245.946	22.19
246.163	67.24
246.38	38.57
246.597	44.71
246.814	20.14
247.031	42.67
247.248	46.76
247.464	-8.53
247.681	32.43
247.898	65.19
248.115	28.33
248.332	18.09
248.549	46.76
248.766	40.62
248.983	-43.35
249.2	42.67
249.417	63.15
249.633	30.38
249.85	36.52
250.067	36.52
250.284	-12.63
250.501	18.09
250.717	85.67
250.934	40.62
251.151	-4.44
251.368	54.95
251.585	-2.39
251.801	34.47
252.018	-33.11
252.235	22.19
252.451	48.81
252.668	-24.92
252.885	46.76
253.102	-2.39
253.318	57
253.535	-18.77
253.752	-24.92
253.968	11.95
254.185	3.75
254.401	11.95
254.618	20.14
254.835	65.19
255.051	20.14
255.268	-12.63
255.484	-26.96
255.701	24.23
255.917	67.24
256.134	36.52
256.351	104.11
256.567	22.19
256.784	-39.25
257	30.38
257.217	-2.39
257.433	-29.01
257.65	20.14
257.866	5.8
258.082	40.62
258.299	75.43
258.515	13.99
258.732	-4.44
258.948	16.04
259.165	69.29
259.381	30.38
259.597	40.62
259.814	16.04
260.03	3.75
260.246	61.1
260.463	57
260.679	54.95
260.895	46.76
261.112	46.76
261.328	73.39
261.544	-49.49
261.761	46.76
261.977	20.14
262.193	28.33
262.409	46.76
262.626	73.39
262.842	1.71
263.058	-22.87
263.274	-26.96
263.49	75.43
263.707	7.85
263.923	-22.87
264.139	65.19
264.355	28.33
264.571	20.14
264.787	28.33
265.004	38.57
265.22	44.71
265.436	44.71
265.652	-14.68
265.868	52.91
266.084	-2.39
266.3	16.04
266.516	-2.39
266.732	22.19
266.948	-33.11
267.164	-26.96
267.38	5.8
267.596	36.52
267.812	85.67
268.028	42.67
268.244	-16.73
268.46	-0.34
268.676	65.19
268.892	1.71
269.108	44.71
269.324	57
269.54	-53.59
269.756	-45.4
269.972	28.33
270.188	26.28
270.403	32.43
270.619	85.67
270.835	13.99
271.051	-8.53
271.267	-2.39
271.483	85.67
271.698	26.28
271.914	-0.34
272.13	-10.58
272.346	-18.77
272.562	44.71
272.777	38.57
272.993	54.95
273.209	42.67
273.425	40.62
273.64	32.43
273.856	54.95
274.072	71.34
274.287	-47.44
274.503	65.19
274.719	5.8
274.934	18.09
275.15	3.75
275.366	-26.96
275.581	13.99
275.797	91.82
276.012	-12.63
276.228	-10.58
276.444	28.33
276.659	16.04
276.875	-6.49
277.09	89.77
277.306	24.23
277.521	-33.11
277.737	48.81
277.952	65.19
278.168	71.34
278.383	-0.34
278.599	11.95
278.814	73.39
279.03	67.24
279.245	-6.49
279.461	57
279.676	3.75
279.892	1.71
280.107	42.67
280.322	9.9
280.538	7.85
280.753	63.15
280.969	67.24
281.184	-4.44
281.399	44.71
281.615	-6.49
281.83	95.91
282.045	7.85
282.26	77.48
282.476	5.8
282.691	83.63
282.906	5.8
283.122	-2.39
283.337	32.43
283.552	3.75
283.767	-31.06
283.983	-8.53
284.198	48.81
284.413	-20.82
284.628	-8.53
284.843	24.23
285.058	79.53
285.274	65.19
285.489	24.23
285.704	-20.82
285.919	-4.44
286.134	-2.39
286.349	24.23
286.564	52.91
286.779	24.23
286.995	52.91
287.21	40.62
287.425	108.2
287.64	-41.3
287.855	-37.2
288.07	40.62
288.285	7.85
288.5	69.29
288.715	59.05
288.93	7.85
289.145	48.81
289.36	42.67
289.575	48.81
289.79	61.1
290.004	36.52
290.219	40.62
290.434	50.86
290.649	30.38
290.864	38.57
291.079	28.33
291.294	11.95
291.509	-10.58
291.724	9.9
291.938	20.14
292.153	16.04
292.368	-10.58
292.583	59.05
292.798	73.39
293.012	52.91
293.227	11.95
293.442	-31.06
293.657	54.95
293.871	85.67
294.086	28.33
294.301	3.75
294.516	44.71
294.73	40.62
294.945	11.95
295.16	36.52
295.374	-33.11
295.589	18.09
295.804	-22.87
296.018	67.24
296.233	65.19
296.447	79.53
296.662	-31.06
296.877	116.39
297.091	-22.87
297.306	28.33
297.52	9.9
297.735	52.91
297.949	16.04
298.164	5.8
298.378	-35.16
298.593	-47.44
298.807	36.52
299.022	46.76
299.236	-24.92
299.451	67.24
299.665	59.05
299.88	54.95
300.094	59.05
300.309	61.1
300.523	28.33
300.737	13.99
300.952	24.23
301.166	-37.2
301.381	26.28
301.595	24.23
301.809	1.71
302.024	48.81
302.238	16.04
302.452	79.53
302.667	3.75
302.881	7.85
303.095	30.38
303.309	-43.35
303.524	85.67
303.738	-2.39
303.952	59.05
304.166	52.91
304.381	20.14
304.595	52.91
304.809	-0.34
305.023	59.05
305.237	57
305.452	30.38
305.666	-10.58
305.88	-12.63
306.094	24.23
306.308	91.82
306.522	9.9
306.736	34.47
306.95	42.67
307.164	83.63
307.379	57
307.593	-12.63
307.807	-24.92
308.021	18.09
308.235	-31.06
308.449	71.34
308.663	48.81
308.877	22.19
309.091	67.24
309.305	34.47
309.519	18.09
309.733	71.34
309.947	30.38
310.161	81.58
310.374	30.38
310.588	52.91
310.802	75.43
311.016	18.09
311.23	16.04
311.444	16.04
311.658	100.01
311.872	22.19
312.085	44.71
312.299	24.23
312.513	-6.49
312.727	63.15
312.941	1.71
313.154	-29.01
313.368	-24.92
313.582	75.43
313.796	7.85
314.009	26.28
314.223	3.75
314.437	65.19
314.651	-2.39
314.864	75.43
315.078	18.09
315.292	16.04
315.505	38.57
315.719	26.28
315.933	-22.87
316.146	38.57
316.36	69.29
316.573	13.99
316.787	-26.96
317.001	46.76
317.214	-51.54
317.428	52.91
317.641	40.62
317.855	5.8
318.068	30.38
318.282	48.81
318.495	-18.77
318.709	46.76
318.922	34.47
319.136	67.24
319.349	61.1
319.563	1.71
319.776	89.77
319.99	67.24
320.203	30.38
320.417	40.62
320.63	85.67
320.843	-14.68
321.057	50.86
321.27	40.62
321.483	26.28
321.697	44.71
321.91	1.71
322.124	36.52
322.337	38.57
322.55	40.62
322.763	-31.06
322.977	36.52
323.19	7.85
323.403	81.58
323.617	-8.53
323.83	75.43
324.043	63.15
324.256	-22.87
324.469	26.28
324.683	67.24
324.896	32.43
325.109	54.95
325.322	-20.82
325.535	24.23
325.748	81.58
325.962	16.04
326.175	7.85
326.388	9.9
326.601	22.19
326.814	83.63
327.027	28.33
327.24	57
327.453	16.04
327.666	1.71
327.879	71.34
328.092	-0.34
328.305	30.38
328.518	26.28
328.731	57
328.944	24.23
329.157	13.99
329.37	87.72
329.583	63.15
329.796	71.34
330.009	44.71
330.222	67.24
330.435	9.9
330.648	26.28
330.861	-10.58
331.073	24.23
331.286	13.99
331.499	-8.53
331.712	71.34
331.925	7.85
332.138	13.99
332.35	30.38
332.563	-6.49
332.776	13.99
332.989	85.67
333.202	59.05
333.414	-14.68
333.627	-2.39
333.84	28.33
334.053	5.8
334.265	-57.68
334.478	38.57
334.691	-10.58
334.903	22.19
335.116	18.09
335.329	61.1
335.541	44.71
335.754	-4.44
335.966	-24.92
336.179	71.34
336.392	16.04
336.604	59.05
336.817	100.01
337.029	-26.96
337.242	1.71
337.454	75.43
337.667	30.38
337.88	26.28
338.092	-43.35
338.305	38.57
338.517	-14.68
338.729	-20.82
338.942	54.95
339.154	24.23
339.367	28.33
339.579	32.43
339.792	42.67
340.004	67.24
340.217	-4.44
340.429	40.62
340.641	44.71
340.854	28.33
341.066	-43.35
341.278	81.58
341.491	-29.01
341.703	87.72
341.915	5.8
342.128	44.71
342.34	-10.58
342.552	93.87
342.764	81.58
342.977	69.29
343.189	16.04
343.401	69.29
343.613	67.24
343.826	24.23
344.038	-2.39
344.25	54.95
344.462	-29.01
344.674	57
344.886	-10.58
345.099	1.71
345.311	-14.68
345.523	67.24
345.735	20.14
345.947	46.76
346.159	-53.59
346.371	3.75
346.583	-8.53
346.795	59.05
347.007	46.76
347.219	77.48
347.431	-18.77
347.643	48.81
347.855	18.09
348.067	28.33
348.279	26.28
348.491	112.3
348.703	65.19
348.915	102.06
349.127	13.99
349.339	91.82
349.551	67.24
349.763	-10.58
349.975	54.95
350.187	91.82
350.399	18.09
350.61	46.76
350.822	110.25
351.034	28.33
351.246	34.47
351.458	5.8
351.669	32.43
351.881	16.04
352.093	42.67
352.305	95.91
352.517	57
352.728	44.71
352.94	-8.53
353.152	34.47
353.363	40.62
353.575	-41.3
353.787	26.28
353.999	20.14
354.21	116.39
354.422	34.47
354.633	54.95
354.845	-8.53
355.057	16.04
355.268	13.99
355.48	67.24
355.692	11.95
355.903	79.53
356.115	52.91
356.326	24.23
356.538	16.04
356.749	34.47
356.961	73.39
357.172	36.52
357.384	77.48
357.595	1.71
357.807	18.09
358.018	57
358.23	36.52
358.441	22.19
358.653	134.82
358.864	87.72
359.075	63.15
359.287	54.95
359.498	40.62
359.709	-20.82
359.921	9.9
360.132	1.71
360.344	20.14
360.555	93.87
360.766	67.24
360.977	83.63
361.189	75.43
361.4	46.76
361.611	-6.49
361.823	77.48
362.034	63.15
362.245	-2.39
362.456	30.38
362.667	20.14
362.879	38.57
363.09	26.28
363.301	61.1
363.512	-16.73
363.723	3.75
363.935	26.28
364.146	71.34
364.357	36.52
364.568	-14.68
364.779	13.99
364.99	63.15
365.201	24.23
365.412	61.1
365.623	1.71
365.834	89.77
366.045	46.76
366.256	77.48
366.467	22.19
366.678	50.86
366.889	89.77
367.1	-6.49
367.311	30.38
367.522	11.95
367.733	44.71
367.944	52.91
368.155	-29.01
368.366	-35.16
368.577	7.85
368.788	30.38
368.999	63.15
369.209	-45.4
369.42	85.67
369.631	65.19
369.842	61.1
370.053	5.8
370.264	-10.58
370.474	-39.25
370.685	16.04
370.896	18.09
371.107	40.62
371.317	34.47
371.528	16.04
371.739	59.05
371.95	-4.44
372.16	124.58
372.371	59.05
372.582	61.1
372.792	57
373.003	-8.53
373.214	54.95
373.424	-24.92
373.635	5.8
373.846	54.95
374.056	16.04
374.267	32.43
374.477	1.71
374.688	44.71
374.898	-12.63
375.109	26.28
375.319	-16.73
375.53	18.09
375.74	77.48
375.951	59.05
376.161	40.62
376.372	30.38
376.582	136.87
376.793	-12.63
377.003	38.57
377.214	34.47
377.424	65.19
377.635	75.43
377.845	32.43
378.055	20.14
378.266	65.19
378.476	61.1
378.686	81.58
378.897	85.67
379.107	63.15
379.317	65.19
379.528	24.23
379.738	106.15
379.948	32.43
380.158	91.82
380.369	44.71
380.579	61.1
380.789	38.57
380.999	32.43
381.21	48.81
381.42	48.81
381.63	57
381.84	108.2
382.05	5.8
382.261	100.01
382.471	24.23
382.681	57
382.891	20.14
383.101	71.34
383.311	50.86
383.521	26.28
383.731	63.15
383.941	-8.53
384.151	22.19
384.361	5.8
384.571	126.63
384.781	65.19
384.991	116.39
385.201	97.96
385.411	71.34
385.621	36.52
385.831	3.75
386.041	9.9
386.251	81.58
386.461	114.34
386.671	36.52
386.881	130.73
387.091	-6.49
387.301	1.71
387.511	81.58
387.72	63.15
387.93	100.01
388.14	32.43
388.35	77.48
388.56	83.63
388.769	-4.44
388.979	57
389.189	40.62
389.399	122.54
389.609	50.86
389.818	7.85
390.028	48.81
390.238	100.01
390.447	36.52
390.657	42.67
390.867	32.43
391.076	46.76
391.286	7.85
391.496	126.63
391.705	50.86
391.915	20.14
392.125	22.19
392.334	11.95
392.544	59.05
392.753	65.19
392.963	13.99
393.172	75.43
393.382	28.33
393.591	59.05
393.801	69.29
394.01	112.3
394.22	124.58
394.429	-6.49
394.639	57
394.848	48.81
395.058	40.62
395.267	28.33
395.477	44.71
395.686	-0.34
395.895	63.15
396.105	128.68
396.314	83.63
396.524	28.33
396.733	3.75
396.942	32.43
397.152	59.05
397.361	95.91
397.57	91.82
397.78	32.43
397.989	18.09
398.198	183.98
398.407	112.3
398.617	87.72
398.826	71.34
399.035	67.24
399.244	91.82
399.453	122.54
399.663	85.67
399.872	126.63
400.081	118.44
400.29	91.82
400.499	54.95
400.708	112.3
400.917	91.82
401.127	114.34
401.336	87.72
401.545	151.21
401.754	110.25
401.963	132.78
402.172	52.91
402.381	30.38
402.59	44.71
402.799	136.87
403.008	46.76
403.217	110.25
403.426	87.72
403.635	57
403.844	59.05
404.053	54.95
404.262	89.77
404.471	167.59
404.68	22.19
404.888	175.78
405.097	132.78
405.306	161.45
405.515	151.21
405.724	173.74
405.933	153.26
406.142	104.11
406.35	122.54
406.559	165.54
406.768	155.3
406.977	177.83
407.185	202.41
407.394	308.9
407.603	161.45
407.812	169.64
408.02	229.03
408.229	214.7
408.438	149.16
408.646	196.26
408.855	192.17
409.064	175.78
409.272	263.85
409.481	188.07
409.69	216.74
409.898	224.94
410.107	229.03
410.315	296.61
410.524	239.27
410.733	315.05
410.941	239.27
411.15	282.28
411.358	339.62
411.567	353.96
411.775	298.66
411.984	310.95
412.192	362.15
412.401	321.19
412.609	353.96
412.818	353.96
413.026	366.25
413.234	433.83
413.443	390.82
413.651	448.16
413.86	507.55
414.068	382.63
414.276	513.7
414.485	528.03
414.693	564.9
414.901	501.41
415.11	530.08
415.318	581.28
415.526	612
415.734	630.43
415.943	591.52
416.151	751.26
416.359	689.82
416.567	728.74
416.776	689.82
416.984	765.6
417.192	765.6
417.4	796.32
417.608	816.8
417.817	872.09
418.025	878.24
418.233	857.76
418.441	886.43
418.649	935.58
418.857	1070.75
419.065	1037.98
419.273	1123.99
419.481	1085.08
419.689	1214.1
419.897	1255.06
420.105	1222.3
420.313	1281.69
420.521	1287.83
420.729	1261.21
420.937	1416.85
421.145	1361.56
421.353	1547.92
421.561	1652.37
421.769	1693.33
421.977	1687.18
422.185	1678.99
422.393	1709.71
422.601	1875.6
422.809	1908.37
423.017	1926.8
423.224	1896.08
423.432	1975.95
423.64	2094.73
423.848	2072.2
424.056	2111.11
424.263	2219.66
424.471	2317.96
424.679	2438.79
424.887	2524.8
425.094	2567.81
425.302	2524.8
425.51	2639.49
425.718	2784.9
425.925	2848.38
426.133	2961.02
426.341	2991.74
426.548	3180.15
426.756	3341.94
426.964	3294.84
427.171	3507.83
427.379	3612.28
427.586	3599.99
427.794	3714.67
428.001	3845.74
428.209	4046.44
428.417	4116.08
428.624	4212.33
428.832	4187.75
429.039	4281.96
429.247	4367.98
429.454	4714.08
429.662	4943.46
429.869	4777.57
430.076	5152.35
430.284	4796
430.491	4978.27
430.699	5351
430.906	5127.77
431.114	5516.89
431.321	5516.89
431.528	5801.55
431.736	6030.93
431.943	6368.84
432.15	6182.48
432.358	6319.69
432.565	6600.26
432.772	6651.46
432.979	6766.15
433.187	6932.03
433.394	6815.3
433.601	7450.17
433.808	7579.19
434.016	7550.52
434.223	7863.86
434.43	8230.45
434.637	8044.08
434.844	8590.89
435.052	8805.92
435.259	8545.83
435.466	8738.34
435.673	8853.03
435.88	9276.96
436.087	9985.55
436.294	9717.27
436.501	9451.03
436.708	9750.04
436.915	10096.14
437.122	10526.22
437.329	10610.18
437.537	10851.85
437.743	10810.89
437.95	10941.96
438.157	11509.24
438.364	11658.74
438.571	11613.69
438.778	11933.17
438.985	12930.53
439.192	12383.73
439.399	12799.46
439.606	12713.45
439.813	13110.75
440.02	14323.15
440.227	14190.03
440.433	13639.13
440.64	14433.74
440.847	14032.34
441.054	14589.39
441.261	15351.23
441.467	15179.2
441.674	15398.34
441.881	16113.08
442.088	16092.6
442.294	15984.05
442.501	16399.79
442.708	16692.65
442.914	17403.3
443.121	17659.29
443.328	17489.31
443.534	18898.31
443.741	18337.17
443.948	17966.49
444.154	19367.3
444.361	19187.08
444.568	19395.97
444.774	19369.35
444.981	19424.64
445.187	20008.31
445.394	20913.52
445.6	20712.81
445.807	22793.55
446.013	21769.57
446.22	22230.36
446.426	22854.99
446.633	23240.01
446.839	23823.68
447.046	22943.05
447.252	24198.46
447.459	24364.34
447.665	24030.52
447.871	25556.26
448.078	26570.01
448.284	25433.38
448.491	25576.74
448.697	26559.77
448.903	26836.24
449.11	27127.05
449.316	26637.59
449.522	27151.63
449.728	27612.42
449.935	28187.9
450.141	28130.56
450.347	28650.74
450.553	27854.08
450.76	28060.93
450.966	29142.25
451.172	28587.25
451.378	29416.68
451.584	28634.36
451.791	29492.46
451.997	29265.13
452.203	29828.32
452.409	29764.84
452.615	29410.54
452.821	28331.26
453.027	28024.06
453.233	29805.8
453.44	28228.86
453.646	28556.53
453.852	28857.59
454.058	29297.9
454.264	28263.68
454.47	28822.77
454.676	28017.92
454.882	28824.82
455.088	26414.36
455.294	26965.26
455.5	27268.36
455.705	27438.34
455.911	26330.39
456.117	25650.47
456.323	25576.74
456.529	23909.69
456.735	25183.53
456.941	24503.6
457.147	24188.22
457.352	23280.97
457.558	23000.4
457.764	23067.98
457.97	22406.48
458.176	22113.63
458.381	22127.96
458.587	21009.77
458.793	21099.88
458.999	19889.53
459.204	21216.61
459.41	21120.36
459.616	19430.79
459.821	19496.32
460.027	19385.73
460.233	18949.51
460.438	17995.16
460.644	18322.84
460.85	17481.12
461.055	17182.12
461.261	16958.89
461.466	15871.42
461.672	15367.62
461.878	16330.16
462.083	15191.49
462.289	15035.85
462.494	15011.27
462.7	14298.58
462.905	13587.93
463.111	14409.17
463.316	14390.74
463.522	14173.65
463.727	14296.53
463.932	14257.62
464.138	14026.2
464.343	14015.96
464.549	13753.82
464.754	14155.22
464.959	14196.18
465.165	13921.75
465.37	13217.25
465.575	12934.63
465.781	13284.83
465.986	13675.99
466.191	13104.61
466.397	12961.25
466.602	12015.09
466.807	12652.01
467.012	12865
467.218	12522.99
467.423	12439.02
467.628	12533.23
467.833	13055.46
468.038	12529.13
468.244	12178.93
468.449	12752.36
468.654	12346.86
468.859	12248.56
469.064	12076.53
469.269	11779.57
469.474	11773.43
469.679	11714.04
469.885	11511.29
470.09	11763.19
470.295	11945.46
470.5	11288.06
470.705	11415.04
470.91	11386.36
471.115	11152.9
471.32	11193.86
471.525	11128.32
471.73	10876.42
471.935	10759.69
472.139	10620.42
472.344	10591.75
472.549	10499.59
472.754	10368.52
472.959	10253.84
473.164	9803.29
473.369	10108.43
473.574	10176.02
473.778	10098.19
473.983	10083.86
474.188	9946.64
474.393	9641.5
474.598	9770.52
474.802	9686.55
475.007	9246.24
475.212	9291.29
475.417	9043.49
475.621	9184.8
475.826	9002.53
476.031	8736.29
476.235	8691.24
476.44	8775.2
476.645	8793.64
476.849	8898.08
477.054	8392.23
477.259	8277.55
477.463	8543.78
477.668	8277.55
477.872	8400.43
478.077	8209.97
478.282	8052.27
478.486	7806.52
478.691	8029.74
478.895	7921.2
479.1	7704.12
479.304	7919.15
479.509	7585.33
479.713	7902.77
479.918	7552.57
480.122	7628.34
480.326	7700.02
480.531	7712.31
480.735	7568.95
480.94	7575.1
481.144	7657.01
481.348	7591.48
481.553	7429.69
481.757	7323.19
481.961	7464.5
482.166	7437.88
482.37	7317.05
482.574	7220.8
482.778	7353.91
482.983	7372.35
483.187	7319.1
483.391	7251.52
483.595	7173.69
483.8	7261.76
484.004	7411.26
484.208	7614.01
484.412	7427.64
484.616	7355.96
484.821	7278.14
485.025	7247.42
485.229	7325.24
485.433	7386.68
485.637	7372.35
485.841	7218.75
486.045	7233.08
486.249	7169.6
486.453	7157.31
486.657	7343.67
486.861	7280.19
487.065	7124.54
487.269	7364.15
487.473	7372.35
487.677	7476.79
487.881	7362.11
488.085	7286.33
488.289	7226.94
488.493	7415.35
488.697	7327.29
488.901	7405.11
489.105	7288.38
489.309	7325.24
489.512	7458.36
489.716	7484.98
489.92	7329.34
490.124	7378.49
490.328	7515.7
490.531	7648.82
490.735	7501.37
490.939	7577.14
491.143	7417.4
491.346	7626.29
491.55	7525.94
491.754	7568.95
491.958	7691.83
492.161	7614.01
492.365	7542.33
492.569	7849.52
492.772	7607.86
492.976	7792.18
493.18	7835.19
493.383	7931.44
493.587	7978.54
493.79	8078.9
493.994	7867.95
494.197	8191.53
494.401	8117.81
494.605	8216.11
494.808	8478.25
495.012	8496.68
495.215	8463.91
495.419	8271.4
495.622	8285.74
495.825	8584.74
496.029	8646.18
496.232	8664.61
496.436	8603.18
496.639	8951.33
496.843	8822.31
497.046	9154.08
497.249	9057.82
497.453	9334.3
497.656	9438.75
497.859	9242.14
498.063	9496.09
498.266	9655.83
498.469	9631.26
498.673	9680.41
498.876	9850.39
499.079	10046.99
499.282	9983.51
499.485	10141.2
499.689	10169.87
499.892	10407.44
500.095	10456.59
500.298	10702.34
500.501	10661.38
500.705	11163.14
500.908	11261.44
501.111	11163.14
501.314	11361.79
501.517	11290.11
501.72	11552.25
501.923	11537.91
502.126	11886.07
502.329	12310
502.532	12090.87
502.735	12131.83
502.938	12525.04
503.141	12465.64
503.344	12574.19
503.547	12729.83
503.75	12936.68
503.953	13202.91
504.156	13084.13
504.359	13323.74
504.562	13483.48
504.765	13829.59
504.968	13860.31
505.17	14073.3
505.373	14046.68
505.576	14439.89
505.779	14622.16
505.982	14398.93
506.185	15017.41
506.387	14990.79
506.59	15123.91
506.793	15660.48
506.996	15334.85
507.198	15809.98
507.401	15758.78
507.604	16178.61
507.807	16219.57
508.009	16760.23
508.212	16696.75
508.415	16833.96
508.617	16999.85
508.82	17151.4
509.022	17192.36
509.225	17560.99
509.428	17808.79
509.63	17993.11
509.833	18218.39
510.035	18310.55
510.238	18304.4
510.44	18650.51
510.643	18967.95
510.845	19043.72
511.048	19072.39
511.25	19350.92
511.453	19752.32
511.655	20112.76
511.858	20092.28
512.06	20452.72
512.262	20483.44
512.465	20782.45
512.667	21097.83
512.87	21335.4
513.072	21458.28
513.274	21996.89
513.477	22007.13
513.679	22035.8
513.881	22451.54
514.084	22932.81
514.286	22906.19
514.488	23035.21
514.69	23561.54
514.893	23698.75
515.095	24069.44
515.297	24163.64
515.499	24227.13
515.701	24386.87
515.904	24931.63
516.106	25214.25
516.308	25572.64
516.51	25836.83
516.712	25627.94
516.914	25902.37
517.116	26402.07
517.318	26590.48
517.52	26998.03
517.722	26963.22
517.925	27196.68
518.127	27473.16
518.329	27712.77
518.531	27690.24
518.733	28396.79
518.935	28622.07
519.136	28857.59
519.338	29519.08
519.54	29543.66
519.742	29248.75
519.944	29848.8
520.146	30575.83
520.348	30483.67
520.55	30934.23
520.752	30559.45
520.954	31407.31
521.155	31419.6
521.357	31909.06
521.559	31913.16
521.761	32597.18
521.963	32650.42
522.164	33055.92
522.366	33238.19
522.568	33567.91
522.77	33676.46
522.971	34008.23
523.173	33717.42
523.375	34604.19
523.576	33920.17
523.778	34493.6
523.98	34985.11
524.181	35271.82
524.383	34741.4
524.584	35501.2
524.786	35390.61
524.988	35689.61
525.189	36209.79
525.391	36185.22
525.592	36682.87
525.794	36615.29
525.995	36768.89
526.197	36717.69
526.398	36815.99
526.6	37041.27
526.801	37426.29
527.003	37483.63
527.204	37446.77
527.406	37864.55
527.607	37823.59
527.808	38327.39
528.01	37600.36
528.211	38085.73
528.412	38618.21
528.614	38931.54
528.815	38581.34
529.016	38659.16
529.218	38540.38
529.419	39044.18
529.62	38931.54
529.822	38706.27
530.023	39025.75
530.224	39027.8
530.425	39255.12
530.626	38890.59
530.828	38876.25
531.029	39849.03
531.23	39027.8
531.431	39248.98
531.632	39707.72
531.833	39732.3
532.035	39597.13
532.236	40209.48
532.437	40365.12
532.638	39390.29
532.839	40105.03
533.04	40346.69
533.241	39969.86
533.442	40428.61
533.643	40291.4
533.844	40129.61
534.045	40514.62
534.246	39595.09
534.447	40676.41
534.648	40184.9
534.849	40068.17
535.05	40397.89
535.251	40047.69
535.451	40178.76
535.652	40471.62
535.853	40160.33
536.054	40283.2
536.255	40428.61
536.456	40092.74
536.657	40574.02
536.857	40485.95
537.058	40275.01
537.259	40293.44
537.46	40571.97
537.66	40420.42
537.861	40481.86
538.062	40397.89
538.263	40694.85
538.463	40610.88
538.664	40694.85
538.865	40178.76
539.065	40797.24
539.266	40145.99
539.466	41225.27
539.667	39883.85
539.868	40793.15
540.068	40385.6
540.269	40117.32
540.469	40780.86
540.67	40457.28
540.87	40189
541.071	40283.2
541.271	40526.91
541.472	40477.76
541.672	40305.73
541.873	40125.51
542.073	39988.3
542.274	40553.54
542.474	40121.41
542.675	40023.11
542.875	40528.96
543.075	40176.71
543.276	39754.83
543.476	40832.06
543.676	40211.53
543.877	40346.69
544.077	40078.41
544.277	40043.59
544.478	40311.88
544.678	40541.25
544.878	40358.98
545.078	40363.07
545.279	40176.71
545.479	40393.79
545.679	40148.04
545.879	40318.02
546.079	40326.21
546.28	40318.02
546.48	39793.74
546.68	40533.06
546.88	40080.46
547.08	40420.42
547.28	40121.41
547.48	39943.24
547.68	40035.4
547.88	40186.95
548.081	40270.92
548.281	40191.05
548.481	40088.65
548.681	40492.1
548.881	39918.67
549.081	40012.87
549.28	40260.68
549.48	40133.7
549.68	39881.8
549.88	40617.02
550.08	39545.94
550.28	40379.46
550.48	39580.75
550.68	40019.02
550.88	40336.45
551.08	39816.27
551.279	40252.48
551.479	39248.98
551.679	40102.98
551.879	39855.18
552.079	40121.41
552.278	39720.01
552.478	39933
552.678	39855.18
552.878	40373.31
553.077	39789.64
553.277	39732.3
553.477	40414.27
553.676	39580.75
553.876	39877.71
554.076	39484.5
554.275	39746.64
554.475	39318.61
554.674	39791.69
554.874	39609.42
555.074	39453.78
555.273	39683.15
555.473	39738.44
555.672	39480.4
555.872	39605.33
556.071	39584.85
556.271	39478.35
556.47	38849.63
556.67	38925.4
556.869	39124.05
557.068	39380.05
557.268	38992.98
557.467	38929.5
557.667	38544.48
557.866	39240.79
558.065	38587.49
558.265	38546.53
558.464	38620.25
558.663	38761.56
558.863	38792.28
559.062	39423.06
559.261	38567.01
559.461	38982.74
559.66	38143.08
559.859	38540.38
560.058	38075.49
560.258	38671.45
560.457	37977.19
560.656	38300.77
560.855	38298.72
561.054	38276.19
561.253	37878.89
561.453	37864.55
561.652	38507.62
561.851	38128.74
562.05	37827.69
562.249	37487.73
562.448	37977.19
562.647	38175.84
562.846	37987.43
563.045	37483.63
563.244	37465.2
563.443	37696.62
563.642	37254.26
563.841	37244.02
564.04	37031.03
564.239	37489.77
564.438	37352.56
564.637	37184.63
564.836	36863.1
565.035	36885.62
565.234	37092.47
565.432	36822.14
565.631	36656.25
565.83	36664.44
566.029	36656.25
566.228	36428.93
566.427	36371.58
566.625	36332.67
566.824	35873.93
567.023	36318.34
567.222	36066.44
567.42	36254.85
567.619	36105.35
567.818	36019.33
568.016	36097.16
568.215	36222.08
568.414	36064.39
568.612	35990.66
568.811	35681.42
569.01	35738.76
569.208	35232.91
569.407	35583.12
569.605	35122.32
569.804	35624.08
570.002	35017.88
570.201	35308.69
570.4	34763.93
570.598	34798.74
570.797	34630.81
570.995	34786.46
571.193	34692.25
571.392	34718.87
571.59	34778.26
571.789	34280.61
571.987	33983.65
572.186	34079.91
572.384	34135.2
572.582	34239.65
572.781	34301.09
572.979	33457.32
573.177	33721.51
573.376	34104.48
573.574	33768.62
573.772	33682.6
573.971	33391.79
574.169	33148.08
574.367	33297.58
574.565	33170.61
574.763	32912.56
574.962	32703.67
575.16	32376
575.358	32890.04
575.556	32412.86
575.754	32826.55
575.952	32345.28
576.151	32642.23
576.349	32332.99
576.547	32271.55
576.745	32177.34
576.943	32224.45
577.141	31696.07
577.339	31952.07
577.537	31749.32
577.735	31812.81
577.933	31548.62
578.131	31700.17
578.329	31241.42
578.527	31177.93
578.725	30991.57
578.923	31411.4
579.121	31155.41
579.319	31345.87
579.516	30770.39
579.714	30788.82
579.912	30758.1
580.11	30788.82
580.308	30659.8
580.506	30432.47
580.704	30262.49
580.901	30362.84
581.099	30516.44
581.297	30248.16
581.495	30094.56
581.692	30129.37
581.89	29658.34
582.088	29988.07
582.285	29598.95
582.483	29938.91
582.681	30029.02
582.878	29097.2
583.076	29297.9
583.274	29531.37
583.471	29027.57
583.669	29422.83
583.866	29052.14
584.064	29345
584.262	28640.5
584.459	29125.87
584.657	28978.42
584.854	28736.76
585.052	28427.51
585.249	28677.37
585.447	28331.26
585.644	28388.6
585.841	28523.77
586.039	28460.28
586.236	27999.49
586.434	28026.11
586.631	27913.47
586.828	27872.51
587.026	27974.91
587.223	27409.67
587.42	27690.24
587.618	27778.31
587.815	27073.81
588.012	27270.41
588.21	27082
588.407	27546.89
588.604	26959.12
588.801	27041.04
588.999	26936.59
589.196	27069.71
589.393	26981.65
589.59	26936.59
589.787	26731.79
589.984	26551.57
590.182	26426.65
590.379	26625.3
590.576	26268.95
590.773	26238.23
590.97	26459.41
591.167	26281.24
591.364	26072.35
591.561	25881.89
591.758	25668.9
591.955	25525.54
592.152	25793.83
592.349	25918.75
592.546	25722.15
592.743	25636.13
592.94	25107.76
593.137	25527.59
593.334	25842.98
593.531	25287.98
593.727	25253.16
593.924	25224.49
594.121	24679.73
594.318	25273.64
594.515	24941.87
594.712	25095.47
594.908	24862
595.105	24952.11
595.302	24591.67
595.499	24771.89
595.696	24483.13
595.892	24134.97
596.089	24436.02
596.286	24575.28
596.482	24010.04
596.679	24134.97
596.876	24134.97
597.072	23987.52
597.269	24018.24
597.466	23932.22
597.662	23905.6
597.859	23659.84
598.055	23604.55
598.252	23547.2
598.448	23803.2
598.645	23299.4
598.841	23180.62
599.038	23610.69
599.234	23076.17
599.431	23133.51
599.627	23244.1
599.824	23227.72
600.02	22701.39
600.217	22957.39
600.413	22705.49
600.609	22842.7
600.806	22754.64
601.002	22811.98
601.198	22762.83
601.395	22332.76
601.591	22343
601.787	22150.49
601.984	22259.03
602.18	22332.76
602.376	22254.94
602.572	21874.01
602.769	22553.94
602.965	21599.59
603.161	22107.48
603.357	21581.15
603.553	21953.88
603.75	21839.2
603.946	21233
604.142	21425.51
604.338	21140.84
604.534	21228.9
604.73	21157.22
604.926	21169.51
605.122	21245.29
605.318	21241.19
605.514	20682.1
605.71	20684.14
605.906	20903.28
606.102	20999.53
606.298	20807.02
606.494	20833.64
606.69	20786.54
606.886	20395.38
607.082	20129.14
607.278	20811.12
607.474	20063.61
607.67	20440.43
607.866	19957.11
608.062	20356.47
608.257	20102.52
608.453	20069.75
608.649	20057.46
608.845	19928.44
609.041	19873.15
609.236	19742.08
609.432	19953.02
609.628	19760.51
609.824	19500.42
610.019	19447.17
610.215	19580.29
610.411	19867
610.606	19400.07
610.802	19404.16
610.998	19504.51
611.193	19332.48
611.389	19316.1
611.584	19033.48
611.78	19221.89
611.976	19158.41
612.171	19131.78
612.367	19037.58
612.562	18777.48
612.758	18771.34
612.953	18908.55
613.149	18691.47
613.344	18662.8
613.539	19047.82
613.735	18716.05
613.93	18754.96
614.126	18484.62
614.321	18630.03
614.517	18767.24
614.712	18474.38
614.907	18214.29
615.103	18445.71
615.298	18431.38
615.493	18531.73
615.688	18072.98
615.884	18449.81
616.079	18132.37
616.274	18193.81
616.47	18042.26
616.665	18204.05
616.86	17948.06
617.055	18130.33
617.25	17950.1
617.445	18052.5
617.641	17554.85
617.836	17608.09
618.031	17663.39
618.226	17749.4
618.421	17380.77
618.616	17554.85
618.811	17399.2
619.006	17554.85
619.201	17202.6
619.396	17118.63
619.591	16942.5
619.786	16956.84
619.981	16938.41
620.176	17137.06
620.371	16756.14
620.566	16829.87
620.761	16766.38
620.956	16545.2
621.151	16373.17
621.346	16403.89
621.541	16151.99
621.735	16369.07
621.93	16010.68
622.125	16174.52
622.32	15822.27
622.515	15996.34
622.709	15771.07
622.904	15678.91
623.099	15721.91
623.294	15300.03
623.488	15412.67
623.683	15558.08
623.878	15236.55
624.072	15429.06
624.267	15189.44
624.462	15035.85
624.656	15107.52
624.851	14915.02
625.046	14765.51
625.24	14738.89
625.435	14630.35
625.629	14681.55
625.824	14482.89
626.018	14357.97
626.213	14181.84
626.407	14382.54
626.602	14183.89
626.796	14206.42
626.991	14036.44
627.185	13809.11
627.38	14011.86
627.574	13768.15
627.768	13698.52
627.963	13567.45
628.157	13411.81
628.352	13604.32
628.546	13417.95
628.74	13508.06
628.935	13315.55
629.129	13276.64
629.323	13141.47
629.517	13108.71
629.712	13379.04
629.906	13112.8
630.1	12877.29
630.294	12748.26
630.489	12594.67
630.683	12828.13
630.877	12477.93
631.071	12545.52
631.265	12666.35
631.459	12353.01
631.653	12168.69
631.848	12424.69
632.042	12144.11
632.236	12240.37
632.43	12123.63
632.624	12178.93
632.818	12129.78
633.012	11961.84
633.206	11912.69
633.4	11873.78
633.594	11699.7
633.788	11705.85
633.982	11681.27
634.176	11810.29
634.369	11464.19
634.563	11402.75
634.757	11214.34
634.951	11283.97
635.145	11351.55
635.339	11228.67
635.533	11095.55
635.726	11220.48
635.92	10952.2
636.114	11027.97
636.308	10907.14
636.501	10909.19
636.695	10839.56
636.889	10733.06
637.083	10759.69
637.276	10798.6
637.47	10352.14
637.664	10407.44
637.857	10423.82
638.051	10522.12
638.244	10192.4
638.438	10114.58
638.632	10124.82
638.825	10192.4
639.019	10253.84
639.212	10192.4
639.406	10137.1
639.599	9944.59
639.793	9948.69
639.986	9817.62
640.18	9991.7
640.373	9817.62
640.567	9612.82
640.76	9676.31
640.954	9438.75
641.147	9338.4
641.34	9539.1
641.534	9436.7
641.727	9496.09
641.92	9426.46
642.114	9254.43
642.307	9283.1
642.5	9164.32
642.694	8916.51
642.887	8906.27
643.08	9125.41
643.273	9117.22
643.467	9033.25
643.66	8986.15
643.853	8793.64
644.046	8635.94
644.239	8738.34
644.432	8699.43
644.626	8425
644.819	8508.97
645.012	8308.27
645.205	8586.79
645.398	8406.57
645.591	8336.94
645.784	8271.4
645.977	8201.77
646.17	8304.17
646.363	7972.4
646.556	7857.71
646.749	8105.52
646.942	8054.32
647.135	8109.61
647.328	7824.95
647.521	7962.16
647.714	7804.47
647.907	7685.69
648.099	7800.37
648.292	7642.68
648.485	7732.79
648.678	7562.81
648.871	7534.14
649.064	7458.36
649.256	7480.89
649.449	7360.06
649.642	7421.5
649.835	7050.82
650.027	7214.65
650.22	7161.41
650.413	7077.44
650.605	7140.93
650.798	7067.2
650.991	7175.74
651.183	7089.73
651.376	6895.17
651.568	6983.23
651.761	6827.59
651.954	6800.96
652.146	6819.39
652.339	6784.58
652.531	6784.58
652.724	6780.48
652.916	6680.13
653.109	6653.51
653.301	6424.14
653.494	6641.22
653.686	6331.98
653.879	6520.39
654.071	6520.39
654.263	6536.77
654.456	6284.87
654.648	6461
654.84	6319.69
655.033	6153.8
655.225	6213.2
655.417	6211.15
655.61	6162
655.802	6059.6
655.994	6010.45
656.186	5930.58
656.379	6016.59
656.571	6248.01
656.763	5996.11
656.955	5783.12
657.148	5918.29
657.34	5871.19
657.532	5654.1
657.724	5731.92
657.916	5713.49
658.108	5609.05
658.3	5557.85
658.492	5666.39
658.684	5520.98
658.876	5676.63
659.068	5432.92
659.26	5379.67
659.452	5340.76
659.644	5486.17
659.836	5328.47
660.028	5373.53
660.22	5291.61
660.412	5105.24
660.604	5201.5
660.796	5236.31
660.988	5146.2
661.18	5221.98
661.372	5178.97
661.563	4959.84
661.755	4916.83
661.947	5043.81
662.139	4863.58
662.331	4783.71
662.522	4728.42
662.714	5092.96
662.906	4781.67
663.097	4847.2
663.289	4791.91
663.481	4675.17
663.673	4761.19
663.864	4769.38
664.056	4630.12
664.247	4683.36
664.439	4433.51
664.631	4546.15
664.822	4533.86
665.014	4603.49
665.205	4556.39
665.397	4544.1
665.588	4523.62
665.78	4331.11
665.971	4331.11
666.163	4462.18
666.354	4386.41
666.546	4359.78
666.737	4394.6
666.929	4228.71
667.12	4138.6
667.311	4204.14
667.503	4292.2
667.694	4111.98
667.885	4220.52
668.077	4214.38
668.268	4101.74
668.459	4161.13
668.651	4068.97
668.842	4124.27
669.033	3989.1
669.224	4150.89
669.416	4054.64
669.607	4140.65
669.798	3989.1
669.989	3847.79
670.18	3925.61
670.371	3948.14
670.563	3878.51
670.754	3946.09
670.945	3919.47
671.136	3933.81
671.327	3796.59
671.518	3858.03
671.709	3808.88
671.9	3675.76
672.091	3747.44
672.282	3649.14
672.473	3649.14
672.664	3589.75
672.855	3530.36
673.046	3724.91
673.237	3616.37
673.428	3583.6
673.619	3653.23
673.809	3630.71
674	3526.26
674.191	3352.18
674.382	3595.89
674.573	3634.8
674.764	3493.49
674.954	3378.81
675.145	3366.52
675.336	3501.69
675.527	3526.26
675.717	3491.45
675.908	3489.4
676.099	3438.2
676.289	3530.36
676.48	3387
676.671	3446.39
676.861	3298.94
677.052	3288.7
677.243	3391.09
677.433	3374.71
677.624	3399.29
677.814	3235.45
678.005	3343.99
678.195	3294.84
678.386	3384.95
678.576	3249.79
678.767	3348.09
678.957	3303.03
679.148	3309.18
679.338	3223.16
679.529	3266.17
679.719	3198.59
679.909	3214.97
680.1	3155.58
680.29	3063.42
680.481	3192.44
680.671	3178.11
680.861	3024.51
681.052	3186.3
681.242	3262.07
681.432	3190.39
681.622	3102.33
681.813	3237.5
682.003	3059.32
682.193	3014.27
682.383	3063.42
682.573	2997.88
682.764	3059.32
682.954	3155.58
683.144	3108.48
683.334	3055.23
683.524	3051.13
683.714	3038.84
683.904	2930.3
684.094	3024.51
684.284	2961.02
684.474	2926.21
684.664	2928.25
684.854	2975.36
685.044	2983.55
685.234	2901.63
685.424	3049.08
685.614	2928.25
685.804	2965.12
685.994	2981.5
686.184	2950.78
686.374	2989.69
686.564	2772.61
686.753	2971.26
686.943	2840.19
687.133	3038.84
687.323	2934.4
687.513	2924.16
687.702	2772.61
687.892	2817.66
688.082	2715.27
688.272	2885.25
688.461	2827.9
688.651	2854.53
688.841	2862.72
689.03	2764.42
689.22	2821.76
689.41	2717.31
689.599	2817.66
689.789	2698.88
689.979	2731.65
690.168	2688.64
690.358	2651.78
690.547	2784.9
690.737	2754.18
690.926	2877.05
691.116	2616.96
691.305	2606.72
691.495	2696.83
691.684	2748.03
691.874	2725.51
692.063	2727.55
692.252	2813.57
692.442	2772.61
692.631	2758.27
692.82	2768.51
693.01	2709.12
693.199	2639.49
693.388	2682.5
693.578	2727.55
693.767	2782.85
693.956	2610.82
694.146	2768.51
694.335	2657.92
694.524	2715.27
694.713	2711.17
694.902	2784.9
695.092	2707.07
695.281	2633.35
695.47	2688.64
695.659	2592.39
695.848	2578.05
696.037	2612.87
696.226	2719.36
696.415	2688.64
696.604	2682.5
696.793	2588.29
696.982	2657.92
697.171	2633.35
697.36	2698.88
697.549	2619.01
697.738	2578.05
697.927	2655.87
698.116	2739.84
698.305	2616.96
698.494	2678.4
698.683	2606.72
698.872	2735.74
699.061	2657.92
699.25	2678.4
699.438	2616.96
699.627	2586.24
699.816	2672.26
700.005	2633.35
700.193	2711.17
700.382	2653.83
700.571	2832
700.76	2612.87
700.948	2672.26
701.137	2651.78
701.326	2516.61
701.514	2547.33
701.703	2608.77
701.892	2545.28
702.08	2522.76
702.269	2614.91
702.457	2506.37
702.646	2555.52
702.834	2453.13
703.023	2553.48
703.212	2555.52
703.4	2526.85
703.589	2510.47
703.777	2426.5
703.965	2473.6
704.154	2549.38
704.342	2514.56
704.531	2471.56
704.719	2545.28
704.907	2520.71
705.096	2406.02
705.284	2545.28
705.472	2451.08
705.661	2459.27
705.849	2354.82
706.037	2403.97
706.226	2463.37
706.414	2481.8
706.602	2551.43
706.79	2487.94
706.979	2410.12
707.167	2377.35
707.355	2346.63
707.543	2346.63
707.731	2461.32
707.919	2305.67
708.107	2297.48
708.296	2250.38
708.484	2346.63
708.672	2336.39
708.86	2344.58
709.048	2291.34
709.236	2408.07
709.424	2338.44
709.612	2299.53
709.8	2240.14
709.988	2301.58
710.176	2332.3
710.364	2213.51
710.551	2178.7
710.739	2270.86
710.927	2268.81
711.115	2246.28
711.303	2252.42
711.491	2184.84
711.679	2168.46
711.866	2190.99
712.054	2299.53
712.242	2252.42
712.43	2180.75
712.617	2092.68
712.805	2188.94
712.993	2176.65
713.181	2107.02
713.368	2162.31
713.556	2092.68
713.744	2094.73
713.931	1984.14
714.119	2016.91
714.306	2104.97
714.494	2086.54
714.682	2037.39
714.869	2084.49
715.057	2068.11
715.244	1887.89
715.432	1998.48
715.619	2004.62
715.807	1926.8
715.994	1961.61
716.182	1973.9
716.369	2016.91
716.556	2021
716.744	1928.85
716.931	1920.65
717.119	2064.01
717.306	1992.33
717.493	1795.73
717.681	1904.27
717.868	1934.99
718.055	1934.99
718.242	1881.74
718.43	1945.23
718.617	1918.61
718.804	1947.28
718.991	1922.7
719.179	1781.39
719.366	1822.35
719.553	1844.88
719.74	1752.72
719.927	1887.89
720.114	1822.35
720.301	1838.73
720.488	1816.21
720.676	1722
720.863	1736.34
721.05	1730.19
721.237	1762.96
721.424	1836.69
721.611	1838.73
721.798	1869.45
721.985	1773.2
722.172	1830.54
722.358	1795.73
722.545	1779.34
722.732	1693.33
722.919	1625.75
723.106	1685.14
723.293	1685.14
723.48	1697.42
723.667	1625.75
723.853	1586.83
724.04	1728.14
724.227	1681.04
724.414	1697.42
724.6	1691.28
724.787	1562.26
724.974	1676.95
725.161	1648.27
725.347	1670.8
725.534	1590.93
725.72	1564.31
725.907	1547.92
726.094	1627.79
726.28	1672.85
726.467	1627.79
726.653	1601.17
726.84	1529.49
727.027	1545.88
727.213	1509.01
727.4	1572.5
727.586	1486.48
727.773	1500.82
727.959	1519.25
728.145	1537.68
728.332	1595.03
728.518	1543.83
728.705	1586.83
728.891	1541.78
729.077	1595.03
729.264	1504.92
729.45	1584.79
729.636	1506.96
729.823	1457.81
730.009	1461.91
730.195	1564.31
730.382	1433.24
730.568	1486.48
730.754	1519.25
730.94	1306.26
731.126	1486.48
731.313	1472.15
731.499	1375.89
731.685	1531.54
731.871	1535.64
732.057	1416.85
732.243	1556.11
732.429	1404.57
732.615	1461.91
732.801	1418.9
732.987	1427.09
733.173	1431.19
733.359	1332.89
733.545	1443.48
733.731	1375.89
733.917	1492.63
734.103	1412.76
734.289	1369.75
734.475	1359.51
734.661	1379.99
734.847	1371.8
735.033	1359.51
735.219	1347.22
735.404	1445.52
735.59	1351.32
735.776	1384.09
735.962	1257.11
736.148	1367.7
736.333	1316.5
736.519	1285.78
736.705	1332.89
736.89	1248.92
737.076	1242.78
737.262	1281.69
737.447	1275.54
737.633	1250.97
737.819	1253.02
738.004	1238.68
738.19	1300.12
738.375	1281.69
738.561	1257.11
738.747	1285.78
738.932	1222.3
739.118	1238.68
739.303	1175.19
739.489	1298.07
739.674	1140.38
739.859	1195.67
740.045	1181.34
740.23	1273.5
740.416	1234.58
740.601	1164.95
740.786	1130.14
740.972	1173.14
741.157	1183.38
741.342	1083.03
741.528	1216.15
741.713	1167
741.898	1148.57
742.084	1097.37
742.269	1185.43
742.454	1162.9
742.639	1128.09
742.824	1142.43
743.01	1152.67
743.195	1160.86
743.38	1123.99
743.565	1097.37
743.75	1148.57
743.935	1074.84
744.12	1169.05
744.305	1064.6
744.49	1109.66
744.675	1042.07
744.86	1072.79
745.045	1136.28
745.23	1128.09
745.415	1117.85
745.6	1087.13
745.785	1119.9
745.97	1101.47
746.155	1003.16
746.34	1023.64
746.525	1029.79
746.71	1044.12
746.895	970.4
747.079	962.2
747.264	1009.31
747.449	1052.31
747.634	1132.19
747.819	1029.79
748.003	988.83
748.188	937.63
748.373	880.29
748.557	1050.27
748.742	976.54
748.927	949.92
749.111	888.48
749.296	904.86
749.481	945.82
749.665	937.63
749.85	962.2
750.034	917.15
750.219	906.91
750.404	874.14
750.588	911
750.773	853.66
750.957	888.48
751.141	859.81
751.326	794.27
751.51	829.09
751.695	859.81
751.879	863.9
752.064	876.19
752.248	847.52
752.432	904.86
752.617	773.79
752.801	851.61
752.985	796.32
753.17	751.26
753.354	751.26
753.538	853.66
753.722	827.04
753.907	761.5
754.091	794.27
754.275	812.7
754.459	777.89
754.643	753.31
754.828	728.74
755.012	767.65
755.196	781.98
755.38	784.03
755.564	777.89
755.748	792.22
755.932	829.09
756.116	691.87
756.3	732.83
756.484	763.55
756.668	683.68
756.852	761.5
757.036	741.02
757.22	644.77
757.404	730.78
757.588	685.73
757.772	734.88
757.956	687.78
758.14	730.78
758.323	669.34
758.507	618.15
758.691	675.49
758.875	698.02
759.059	759.46
759.242	679.58
759.426	566.95
759.61	671.39
759.794	671.39
759.977	634.53
760.161	720.54
760.345	626.34
760.528	675.49
760.712	667.3
760.895	624.29
761.079	644.77
761.263	702.11
761.446	612
761.63	566.95
761.813	640.67
761.997	620.19
762.18	575.14
762.364	568.99
762.547	534.18
762.731	587.43
762.914	554.66
763.098	593.57
763.281	573.09
763.464	616.1
763.648	618.15
763.831	556.71
764.015	603.81
764.198	634.53
764.381	568.99
764.564	501.41
764.748	552.61
764.931	568.99
765.114	597.67
765.297	603.81
765.481	548.51
765.664	482.98
765.847	480.93
766.03	614.05
766.213	556.71
766.397	575.14
766.58	528.03
766.763	513.7
766.946	536.23
767.129	546.47
767.312	501.41
767.495	480.93
767.678	528.03
767.861	493.22
768.044	577.19
768.227	589.47
768.41	523.94
768.593	544.42
768.776	495.27
768.959	507.55
769.142	556.71
769.324	597.67
769.507	568.99
769.69	552.61
769.873	558.75
770.056	558.75
770.239	485.03
770.421	521.89
770.604	605.86
770.787	513.7
770.97	482.98
771.152	519.84
771.335	456.36
771.518	450.21
771.7	509.6
771.883	542.37
772.066	585.38
772.248	491.17
772.431	495.27
772.613	501.41
772.796	413.35
772.978	474.79
773.161	442.02
773.343	466.6
773.526	478.88
773.708	433.83
773.891	513.7
774.073	386.72
774.256	442.02
774.438	509.6
774.621	419.49
774.803	450.21
774.985	460.45
775.168	491.17
775.35	462.5
775.532	474.79
775.715	480.93
775.897	442.02
776.079	417.44
776.261	442.02
776.444	390.82
776.626	456.36
776.808	405.16
776.99	444.07
777.173	356.01
777.355	425.64
777.537	460.45
777.719	382.63
777.901	358.05
778.083	407.2
778.265	368.29
778.447	454.31
778.629	366.25
778.811	396.96
778.993	308.9
779.175	325.29
779.357	302.76
779.539	308.9
779.721	392.87
779.903	364.2
780.085	399.01
780.267	394.92
780.449	413.35
780.631	319.14
780.812	368.29
780.994	339.62
781.176	360.1
781.358	327.33
781.54	280.23
781.721	403.11
781.903	257.7
782.085	370.34
782.267	345.77
782.448	396.96
782.63	368.29
782.812	276.13
782.993	323.24
783.175	333.48
783.357	249.51
783.538	294.57
783.72	300.71
783.901	247.46
784.083	296.61
784.264	358.05
784.446	308.9
784.627	296.61
784.809	245.41
784.99	257.7
785.172	231.08
785.353	288.42
785.535	304.81
785.716	325.29
785.897	335.53
786.079	231.08
786.26	265.89
786.441	237.22
786.623	177.83
786.804	292.52
786.985	294.57
787.167	274.09
787.348	288.42
787.529	198.31
787.71	233.13
787.891	229.03
788.073	224.94
788.254	183.98
788.435	290.47
788.616	196.26
788.797	226.98
788.978	183.98
789.159	259.75
789.34	300.71
789.522	249.51
789.703	278.18
789.884	200.36
790.065	210.6
790.246	204.46
790.427	222.89
790.607	130.73
790.788	220.84
790.969	231.08
791.15	226.98
791.331	245.41
791.512	196.26
791.693	149.16
791.874	231.08
792.054	202.41
792.235	194.22
792.416	130.73
792.597	179.88
792.778	229.03
792.958	229.03
793.139	151.21
793.32	175.78
793.5	202.41
793.681	257.7
793.862	208.55
794.042	249.51
794.223	177.83
794.404	218.79
794.584	120.49
794.765	167.59
794.945	229.03
795.126	261.8
795.306	186.02
795.487	192.17
795.667	200.36
795.848	159.4
796.028	161.45
796.209	188.07
796.389	200.36
796.57	173.74
796.75	161.45
796.93	202.41
797.111	155.3
797.291	153.26
797.471	198.31
797.652	235.18
797.832	91.82
798.012	161.45
798.192	171.69
798.373	200.36
798.553	108.2
798.733	220.84
798.913	157.35
799.093	173.74
799.274	192.17
799.454	54.95
799.634	153.26
799.814	147.11
799.994	132.78
800.174	214.7
800.354	145.06
800.534	149.16
800.714	208.55
800.894	143.02
801.074	83.63
801.254	175.78
801.434	177.83
801.614	194.22
801.794	138.92
801.974	282.28
802.154	110.25
802.334	208.55
802.514	145.06
802.693	163.5
802.873	136.87
803.053	122.54
803.233	190.12
803.413	163.5
803.592	192.17
803.772	173.74
803.952	134.82
804.131	196.26
804.311	132.78
804.491	110.25
804.67	151.21
804.85	106.15
805.03	73.39
805.209	220.84
805.389	91.82
805.568	212.65
805.748	63.15
805.928	143.02
806.107	126.63
806.287	122.54
806.466	102.06
806.646	48.81
806.825	151.21
807.004	134.82
807.184	114.34
807.363	157.35
807.543	124.58
807.722	75.43
807.901	95.91
808.081	149.16
808.26	108.2
808.439	134.82
808.619	112.3
808.798	114.34
808.977	116.39
809.156	167.59
809.336	54.95
809.515	89.77
809.694	147.11
809.873	89.77
810.052	100.01
810.231	171.69
810.411	61.1
810.59	48.81
810.769	95.91
810.948	155.3
811.127	61.1
811.306	81.58
811.485	110.25
811.664	128.68
811.843	124.58
812.022	89.77
812.201	106.15
812.38	149.16
812.559	93.87
812.737	124.58
812.916	57
813.095	77.48
813.274	112.3
813.453	114.34
813.632	102.06
813.811	79.53
813.989	57
814.168	97.96
814.347	73.39
814.526	114.34
814.704	171.69
814.883	138.92
815.062	73.39
815.24	190.12
815.419	102.06
815.598	116.39
815.776	30.38
815.955	130.73
816.133	46.76
816.312	9.9
816.49	61.1
816.669	134.82
816.847	120.49
817.026	59.05
817.204	110.25
817.383	108.2
817.561	54.95
817.74	108.2
817.918	95.91
818.097	91.82
818.275	46.76
818.453	-0.34
818.632	102.06
818.81	106.15
818.988	67.24
819.167	77.48
819.345	97.96
819.523	128.68
819.701	140.97
819.879	59.05
820.058	57
820.236	57
820.414	61.1
820.592	110.25
820.77	52.91
820.948	100.01
821.127	118.44
821.305	57
821.483	71.34
821.661	40.62
821.839	93.87
822.017	83.63
822.195	28.33
822.373	102.06
822.551	89.77
822.729	61.1
822.907	34.47
823.085	77.48
823.262	73.39
823.44	114.34
823.618	40.62
823.796	69.29
823.974	85.67
824.152	50.86
824.329	32.43
824.507	83.63
824.685	44.71
824.863	-0.34
825.04	81.58
825.218	36.52
825.396	54.95
825.574	110.25
825.751	9.9
825.929	91.82
826.107	7.85
826.284	108.2
826.462	5.8
826.639	83.63
826.817	40.62
826.994	114.34
827.172	48.81
827.349	128.68
827.527	54.95
827.704	73.39
827.882	59.05
828.059	57
828.237	38.57
828.414	110.25
828.591	69.29
828.769	34.47
828.946	79.53
829.124	81.58
829.301	91.82
829.478	73.39
829.655	40.62
829.833	-18.77
830.01	48.81
830.187	124.58
830.364	-4.44
830.542	93.87
830.719	22.19
830.896	40.62
831.073	79.53
831.25	122.54
831.427	28.33
831.604	85.67
831.782	-4.44
831.959	44.71
832.136	44.71
832.313	57
832.49	69.29
832.667	57
832.844	11.95
833.021	57
833.198	95.91
833.374	95.91
833.551	32.43
833.728	22.19
833.905	93.87
834.082	28.33
834.259	7.85
834.436	57
834.612	38.57
834.789	112.3
834.966	34.47
835.143	89.77
835.319	69.29
835.496	54.95
835.673	26.28
835.85	30.38
836.026	28.33
836.203	16.04
836.38	77.48
836.556	138.92
836.733	20.14
836.909	44.71
837.086	65.19
837.262	13.99
837.439	73.39
837.616	13.99
837.792	20.14
837.968	100.01
838.145	34.47
838.321	40.62
838.498	54.95
838.674	91.82
838.851	5.8
839.027	20.14
839.203	44.71
839.38	5.8
839.556	-4.44
839.732	102.06
839.909	34.47
840.085	38.57
840.261	-8.53
840.437	93.87
840.614	-4.44
840.79	114.34
840.966	77.48
841.142	34.47
841.318	61.1
841.494	-4.44
841.671	20.14
841.847	89.77
842.023	20.14
842.199	81.58
842.375	28.33
842.551	61.1
842.727	75.43
842.903	11.95
843.079	-8.53
843.255	46.76
843.431	85.67
843.607	83.63
843.783	-14.68
843.959	79.53
844.134	7.85
844.31	34.47
844.486	7.85
844.662	93.87
844.838	69.29
845.013	44.71
845.189	7.85
845.365	3.75
845.541	-29.01
845.716	77.48
845.892	22.19
846.068	50.86
846.244	32.43
846.419	28.33
846.595	48.81
846.77	87.72
846.946	22.19
847.122	24.23
847.297	9.9
847.473	69.29
847.648	16.04
847.824	34.47
847.999	83.63
848.175	9.9
848.35	81.58
848.526	54.95
848.701	18.09
848.876	59.05
849.052	13.99
849.227	28.33
849.403	-35.16
849.578	-29.01
849.753	77.48
849.929	93.87
850.104	42.67
850.279	11.95
850.454	-22.87
850.63	91.82
850.805	11.95
850.98	16.04
851.155	48.81
851.33	42.67
851.505	-6.49
851.681	24.23
851.856	-35.16
852.031	-43.35
852.206	28.33
852.381	50.86
852.556	69.29
852.731	36.52
852.906	57
853.081	36.52
853.256	7.85
853.431	63.15
853.606	24.23
853.781	75.43
853.956	-16.73
854.131	42.67
854.305	16.04
854.48	36.52
854.655	-14.68
854.83	-14.68
855.005	36.52
855.18	44.71
855.354	79.53
855.529	7.85
855.704	40.62
855.879	20.14
856.053	30.38
856.228	89.77
856.403	79.53
856.577	1.71
856.752	20.14
856.926	54.95
857.101	-45.4
857.276	22.19
857.45	57
857.625	138.92
857.799	11.95
857.974	1.71
858.148	-31.06
858.323	46.76
858.497	38.57
858.672	-10.58
858.846	-2.39
859.02	46.76
859.195	-41.3
859.369	38.57
859.543	5.8
859.718	-31.06
859.892	40.62
860.066	40.62
860.241	-2.39
860.415	9.9
860.589	-4.44
860.763	30.38
860.938	1.71
861.112	65.19
861.286	24.23
861.46	52.91
861.634	-31.06
861.808	59.05
861.982	5.8
862.157	-18.77
862.331	36.52
862.505	67.24
862.679	-20.82
862.853	-12.63
863.027	-10.58
863.201	28.33
863.375	44.71
863.549	11.95
863.722	3.75
863.896	22.19
864.07	18.09
864.244	-29.01
864.418	18.09
864.592	-31.06
864.766	42.67
864.939	7.85
865.113	30.38
865.287	30.38
865.461	-14.68
865.634	-20.82
865.808	-2.39
865.982	36.52
866.156	-0.34
866.329	32.43
866.503	18.09
866.676	102.06
866.85	13.99
867.024	-26.96
867.197	-53.59
867.371	54.95
867.544	-43.35
867.718	40.62
867.891	79.53
868.065	-14.68
868.238	52.91
868.412	26.28
868.585	44.71
868.759	50.86
868.932	57
869.105	34.47
869.279	44.71
869.452	61.1
869.625	34.47
869.799	38.57
869.972	7.85
870.145	-8.53
870.319	13.99
870.492	-2.39
870.665	13.99
870.838	-12.63
871.011	-29.01
871.185	-14.68
871.358	28.33
871.531	9.9
871.704	-6.49
871.877	9.9
872.05	-6.49
872.223	-24.92
872.396	11.95
872.569	36.52
872.742	-6.49
872.915	-18.77
873.088	-4.44
873.261	24.23
873.434	-8.53
873.607	-18.77
873.78	28.33
873.953	67.24
874.126	-31.06
874.299	36.52
874.471	9.9
874.644	-16.73
874.817	-6.49
874.99	57
875.163	-31.06
875.335	9.9
875.508	77.48
875.681	-20.82
875.853	11.95
876.026	71.34
876.199	24.23
876.371	7.85
876.544	-0.34
876.717	30.38
876.889	59.05
877.062	30.38
877.234	-14.68
877.407	18.09
877.579	42.67
877.752	-18.77
877.924	13.99
878.097	7.85
878.269	83.63
878.442	65.19
878.614	18.09
878.786	22.19
878.959	-69.97
879.131	54.95
879.303	13.99
879.476	-10.58
879.648	46.76
879.82	44.71
879.993	-33.11
880.165	7.85
880.337	-59.73
880.509	44.71
880.681	63.15
880.854	24.23
881.026	42.67
881.198	24.23
881.37	-10.58
881.542	-49.49
881.714	-35.16
881.886	97.96
882.058	-0.34
882.23	-4.44
882.402	24.23
882.574	-6.49
882.746	65.19
882.918	65.19
883.09	36.52
883.262	1.71
883.434	16.04
883.606	-8.53
883.778	-20.82
883.95	-16.73
884.122	40.62
884.293	-45.4
884.465	40.62
884.637	22.19
884.809	3.75
884.98	34.47
885.152	-47.44
885.324	-6.49
885.496	11.95
885.667	75.43
885.839	-51.54
886.011	-8.53
886.182	-76.12
886.354	30.38
886.525	24.23
886.697	5.8
886.869	-22.87
887.04	-6.49
887.212	7.85
887.383	54.95
887.555	11.95
887.726	-74.07
887.897	13.99
888.069	40.62
888.24	-20.82
888.412	30.38
888.583	-18.77
888.754	1.71
888.926	34.47
889.097	-69.97
889.268	-26.96
889.44	46.76
889.611	81.58
889.782	-22.87
889.953	34.47
890.125	69.29
890.296	-14.68
890.467	-10.58
890.638	-41.3
890.809	34.47
890.98	73.39
891.151	40.62
891.323	28.33
891.494	20.14
891.665	-26.96
891.836	-49.49
892.007	3.75
892.178	-0.34
892.349	13.99
892.52	-24.92
892.691	18.09
892.862	-4.44
893.032	-4.44
893.203	24.23
893.374	18.09
893.545	36.52
893.716	13.99
893.887	28.33
894.057	-43.35
894.228	20.14
894.399	7.85
894.57	30.38
894.74	-67.92
894.911	-18.77
895.082	-90.45
895.253	128.68
895.423	-10.58
895.594	18.09
895.764	46.76
895.935	50.86
896.106	69.29
896.276	26.28
896.447	71.34
896.617	91.82
896.788	-0.34
896.958	13.99
897.129	-10.58
897.299	42.67
897.47	73.39
897.64	-18.77
897.81	-18.77
897.981	-37.2
898.151	9.9
898.322	-20.82
898.492	52.91
898.662	16.04
898.832	-24.92
899.003	-76.12
899.173	46.76
899.343	-41.3
899.513	-33.11
