Data from USB4F104151__6__13-52-08-085.txt Node

Date: Thu Mar 13 13:52:08 EDT 2025
User: louis
Spectrometer: USB4F10415
Trigger mode: 4
Integration Time (sec): 1.000000E-2
Scans to average: 1
Electric dark correction enabled: true
Nonlinearity correction enabled: false
Boxcar width: 0
XAxis mode: Wavelengths
Number of Pixels in Spectrum: 3648
>>>>>Begin Spectral Data<<<<<
178.204	-26.79
178.424	-26.79
178.644	-26.79
178.864	-30.89
179.084	-18.6
179.304	-24.75
179.524	5.97
179.744	1.88
179.964	10.07
180.184	5.97
180.404	18.26
180.624	-20.65
180.844	28.5
181.064	5.97
181.283	-4.27
181.503	-65.71
181.723	38.74
181.943	22.36
182.163	126.8
182.383	10.07
182.602	34.64
182.822	14.17
183.042	18.26
183.262	59.22
183.482	44.88
183.701	26.45
183.921	61.27
184.141	22.36
184.361	87.89
184.58	22.36
184.8	44.88
185.02	-0.17
185.239	28.5
185.459	65.36
185.679	61.27
185.898	-26.79
186.118	75.6
186.338	3.93
186.557	20.31
186.777	28.5
186.997	42.84
187.216	-26.79
187.436	-22.7
187.655	38.74
187.875	-24.75
188.095	48.98
188.314	-4.27
188.534	16.21
188.753	40.79
188.973	18.26
189.192	38.74
189.412	59.22
189.631	46.93
189.851	42.84
190.07	-28.84
190.29	-22.7
190.509	44.88
190.729	12.12
190.948	10.07
191.168	5.97
191.387	16.21
191.607	24.4
191.826	-0.17
192.045	71.51
192.265	61.27
192.484	-6.31
192.704	34.64
192.923	55.12
193.142	5.97
193.362	28.5
193.581	-10.41
193.8	-10.41
194.02	30.55
194.239	32.6
194.458	-22.7
194.678	34.64
194.897	8.02
195.116	32.6
195.335	-12.46
195.555	10.07
195.774	22.36
195.993	28.5
196.212	53.08
196.432	3.93
196.651	28.5
196.87	36.69
197.089	32.6
197.308	-4.27
197.528	51.03
197.747	30.55
197.966	24.4
198.185	81.75
198.404	18.26
198.623	67.41
198.842	30.55
199.062	12.12
199.281	89.94
199.5	32.6
199.719	20.31
199.938	79.7
200.157	46.93
200.376	24.4
200.595	30.55
200.814	-4.27
201.033	14.17
201.252	-2.22
201.471	-8.36
201.69	28.5
201.909	5.97
202.128	69.46
202.347	22.36
202.566	28.5
202.785	-34.99
203.004	30.55
203.223	12.12
203.442	79.7
203.661	-22.7
203.879	-30.89
204.098	-22.7
204.317	53.08
204.536	-2.22
204.755	75.6
204.974	-8.36
205.193	-6.31
205.411	106.32
205.63	20.31
205.849	-30.89
206.068	81.75
206.287	-4.27
206.505	24.4
206.724	79.7
206.943	-63.66
207.162	10.07
207.381	-49.32
207.599	34.64
207.818	-0.17
208.037	-16.55
208.255	51.03
208.474	1.88
208.693	18.26
208.911	8.02
209.13	22.36
209.349	-34.99
209.567	122.71
209.786	122.71
210.005	20.31
210.223	-2.22
210.442	-8.36
210.661	10.07
210.879	30.55
211.098	18.26
211.316	34.64
211.535	-67.75
211.753	59.22
211.972	83.8
212.191	1.88
212.409	14.17
212.628	71.51
212.846	20.31
213.065	71.51
213.283	-14.51
213.502	69.46
213.72	-10.41
213.938	-10.41
214.157	3.93
214.375	75.6
214.594	55.12
214.812	-10.41
215.031	30.55
215.249	26.45
215.467	32.6
215.686	48.98
215.904	32.6
216.122	26.45
216.341	-20.65
216.559	1.88
216.778	44.88
216.996	-8.36
217.214	73.56
217.432	-45.23
217.651	10.07
217.869	-53.42
218.087	16.21
218.306	5.97
218.524	32.6
218.742	5.97
218.96	3.93
219.179	96.08
219.397	-45.23
219.615	73.56
219.833	67.41
220.051	10.07
220.27	14.17
220.488	-18.6
220.706	8.02
220.924	44.88
221.142	18.26
221.36	-41.13
221.578	-8.36
221.796	59.22
222.015	28.5
222.233	-18.6
222.451	34.64
222.669	-18.6
222.887	10.07
223.105	100.18
223.323	57.17
223.541	20.31
223.759	87.89
223.977	-0.17
224.195	32.6
224.413	-16.55
224.631	-10.41
224.849	53.08
225.067	44.88
225.285	-12.46
225.503	-6.31
225.721	-34.99
225.939	57.17
226.157	53.08
226.375	87.89
226.592	32.6
226.81	36.69
227.028	-8.36
227.246	65.36
227.464	-18.6
227.682	22.36
227.9	51.03
228.117	55.12
228.335	-28.84
228.553	32.6
228.771	-88.23
228.989	28.5
229.206	26.45
229.424	36.69
229.642	71.51
229.86	20.31
230.077	48.98
230.295	85.84
230.513	77.65
230.731	26.45
230.948	36.69
231.166	24.4
231.384	53.08
231.601	67.41
231.819	114.52
232.037	38.74
232.254	59.22
232.472	38.74
232.689	10.07
232.907	5.97
233.125	-22.7
233.342	-14.51
233.56	46.93
233.777	-10.41
233.995	-37.03
234.213	44.88
234.43	16.21
234.648	16.21
234.865	55.12
235.083	51.03
235.3	-10.41
235.518	100.18
235.735	16.21
235.953	69.46
236.17	-14.51
236.388	22.36
236.605	61.27
236.822	77.65
237.04	-2.22
237.257	8.02
237.475	26.45
237.692	-4.27
237.909	104.28
238.127	14.17
238.344	65.36
238.562	59.22
238.779	40.79
238.996	-61.61
239.214	-32.94
239.431	22.36
239.648	1.88
239.865	73.56
240.083	-0.17
240.3	34.64
240.517	69.46
240.735	38.74
240.952	42.84
241.169	-32.94
241.386	-20.65
241.603	34.64
241.821	26.45
242.038	20.31
242.255	28.5
242.472	79.7
242.689	10.07
242.907	69.46
243.124	42.84
243.341	59.22
243.558	8.02
243.775	46.93
243.992	-20.65
244.209	94.04
244.426	51.03
244.643	20.31
244.86	67.41
245.078	71.51
245.295	122.71
245.512	87.89
245.729	40.79
245.946	53.08
246.163	28.5
246.38	69.46
246.597	51.03
246.814	-12.46
247.031	-10.41
247.248	34.64
247.464	57.17
247.681	8.02
247.898	14.17
248.115	-2.22
248.332	48.98
248.549	46.93
248.766	53.08
248.983	108.37
249.2	-24.75
249.417	16.21
249.633	5.97
249.85	69.46
250.067	-2.22
250.284	14.17
250.501	73.56
250.717	85.84
250.934	-12.46
251.151	5.97
251.368	-10.41
251.585	120.66
251.801	-10.41
252.018	63.32
252.235	-22.7
252.451	30.55
252.668	83.8
252.885	75.6
253.102	51.03
253.318	112.47
253.535	-16.55
253.752	8.02
253.968	3.93
254.185	59.22
254.401	5.97
254.618	65.36
254.835	32.6
255.051	16.21
255.268	36.69
255.484	10.07
255.701	34.64
255.917	32.6
256.134	-61.61
256.351	63.32
256.567	24.4
256.784	114.52
257	-0.17
257.217	87.89
257.433	34.64
257.65	79.7
257.866	12.12
258.082	63.32
258.299	-14.51
258.515	77.65
258.732	12.12
258.948	-8.36
259.165	71.51
259.381	5.97
259.597	71.51
259.814	83.8
260.03	79.7
260.246	55.12
260.463	79.7
260.679	85.84
260.895	5.97
261.112	-8.36
261.328	32.6
261.544	48.98
261.761	-2.22
261.977	42.84
262.193	22.36
262.409	104.28
262.626	55.12
262.842	26.45
263.058	24.4
263.274	77.65
263.49	-0.17
263.707	48.98
263.923	167.76
264.139	3.93
264.355	-43.18
264.571	65.36
264.787	-4.27
265.004	57.17
265.22	69.46
265.436	28.5
265.652	28.5
265.868	1.88
266.084	38.74
266.3	36.69
266.516	-47.27
266.732	28.5
266.948	73.56
267.164	40.79
267.38	-14.51
267.596	51.03
267.812	16.21
268.028	100.18
268.244	-45.23
268.46	130.9
268.676	-4.27
268.892	51.03
269.108	18.26
269.324	42.84
269.54	26.45
269.756	42.84
269.972	108.37
270.188	46.93
270.403	10.07
270.619	40.79
270.835	-20.65
271.051	24.4
271.267	3.93
271.483	57.17
271.698	-0.17
271.914	42.84
272.13	3.93
272.346	59.22
272.562	-10.41
272.777	79.7
272.993	-43.18
273.209	-10.41
273.425	26.45
273.64	91.99
273.856	42.84
274.072	34.64
274.287	22.36
274.503	85.84
274.719	38.74
274.934	44.88
275.15	-18.6
275.366	77.65
275.581	137.04
275.797	51.03
276.012	32.6
276.228	-6.31
276.444	18.26
276.659	69.46
276.875	22.36
277.09	16.21
277.306	53.08
277.521	3.93
277.737	-57.51
277.952	36.69
278.168	30.55
278.383	-34.99
278.599	46.93
278.814	91.99
279.03	46.93
279.245	18.26
279.461	42.84
279.676	42.84
279.892	42.84
280.107	42.84
280.322	67.41
280.538	5.97
280.753	53.08
280.969	53.08
281.184	-10.41
281.399	38.74
281.615	12.12
281.83	79.7
282.045	42.84
282.26	110.42
282.476	75.6
282.691	36.69
282.906	30.55
283.122	44.88
283.337	28.5
283.552	91.99
283.767	18.26
283.983	30.55
284.198	-4.27
284.413	42.84
284.628	-43.18
284.843	98.13
285.058	14.17
285.274	-10.41
285.489	-2.22
285.704	114.52
285.919	24.4
286.134	132.95
286.349	51.03
286.564	40.79
286.779	57.17
286.995	40.79
287.21	3.93
287.425	20.31
287.64	-28.84
287.855	1.88
288.07	57.17
288.285	75.6
288.5	20.31
288.715	32.6
288.93	24.4
289.145	42.84
289.36	-12.46
289.575	24.4
289.79	77.65
290.004	135
290.219	87.89
290.434	48.98
290.649	-30.89
290.864	83.8
291.079	46.93
291.294	75.6
291.509	36.69
291.724	87.89
291.938	8.02
292.153	1.88
292.368	-30.89
292.583	65.36
292.798	24.4
293.012	30.55
293.227	-16.55
293.442	48.98
293.657	-0.17
293.871	53.08
294.086	71.51
294.301	98.13
294.516	3.93
294.73	12.12
294.945	38.74
295.16	51.03
295.374	40.79
295.589	3.93
295.804	-8.36
296.018	51.03
296.233	10.07
296.447	53.08
296.662	18.26
296.877	20.31
297.091	-51.37
297.306	-34.99
297.52	-49.32
297.735	38.74
297.949	5.97
298.164	98.13
298.378	81.75
298.593	34.64
298.807	14.17
299.022	79.7
299.236	65.36
299.451	-12.46
299.665	10.07
299.88	14.17
300.094	-16.55
300.309	55.12
300.523	30.55
300.737	67.41
300.952	-30.89
301.166	34.64
301.381	18.26
301.595	-34.99
301.809	-14.51
302.024	81.75
302.238	85.84
302.452	30.55
302.667	51.03
302.881	44.88
303.095	85.84
303.309	36.69
303.524	28.5
303.738	26.45
303.952	20.31
304.166	75.6
304.381	-12.46
304.595	83.8
304.809	126.8
305.023	77.65
305.237	24.4
305.452	102.23
305.666	-71.85
305.88	42.84
306.094	14.17
306.308	44.88
306.522	-6.31
306.736	61.27
306.95	-4.27
307.164	81.75
307.379	14.17
307.593	63.32
307.807	20.31
308.021	53.08
308.235	26.45
308.449	48.98
308.663	14.17
308.877	75.6
309.091	-0.17
309.305	59.22
309.519	14.17
309.733	73.56
309.947	12.12
310.161	112.47
310.374	36.69
310.588	104.28
310.802	-0.17
311.016	77.65
311.23	-59.56
311.444	59.22
311.658	-14.51
311.872	59.22
312.085	30.55
312.299	65.36
312.513	83.8
312.727	98.13
312.941	87.89
313.154	38.74
313.368	26.45
313.582	22.36
313.796	71.51
314.009	3.93
314.223	59.22
314.437	36.69
314.651	-8.36
314.864	59.22
315.078	89.94
315.292	3.93
315.505	12.12
315.719	36.69
315.933	71.51
316.146	8.02
316.36	-55.47
316.573	32.6
316.787	-0.17
317.001	48.98
317.214	48.98
317.428	3.93
317.641	59.22
317.855	-6.31
318.068	10.07
318.282	46.93
318.495	53.08
318.709	-2.22
318.922	38.74
319.136	73.56
319.349	28.5
319.563	110.42
319.776	40.79
319.99	57.17
320.203	40.79
320.417	75.6
320.63	44.88
320.843	51.03
321.057	79.7
321.27	26.45
321.483	59.22
321.697	34.64
321.91	61.27
322.124	22.36
322.337	36.69
322.55	89.94
322.763	73.56
322.977	5.97
323.19	104.28
323.403	26.45
323.617	32.6
323.83	102.23
324.043	32.6
324.256	26.45
324.469	75.6
324.683	59.22
324.896	-22.7
325.109	44.88
325.322	3.93
325.535	98.13
325.748	26.45
325.962	55.12
326.175	67.41
326.388	100.18
326.601	46.93
326.814	1.88
327.027	14.17
327.24	94.04
327.453	30.55
327.666	42.84
327.879	40.79
328.092	46.93
328.305	79.7
328.518	42.84
328.731	14.17
328.944	59.22
329.157	-6.31
329.37	75.6
329.583	-0.17
329.796	57.17
330.009	14.17
330.222	53.08
330.435	87.89
330.648	26.45
330.861	42.84
331.073	46.93
331.286	75.6
331.499	38.74
331.712	44.88
331.925	30.55
332.138	73.56
332.35	-8.36
332.563	69.46
332.776	87.89
332.989	-12.46
333.202	38.74
333.414	-16.55
333.627	8.02
333.84	32.6
334.053	104.28
334.265	24.4
334.478	57.17
334.691	1.88
334.903	120.66
335.116	94.04
335.329	-24.75
335.541	65.36
335.754	22.36
335.966	-14.51
336.179	3.93
336.392	61.27
336.604	51.03
336.817	22.36
337.029	83.8
337.242	67.41
337.454	83.8
337.667	-32.94
337.88	12.12
338.092	46.93
338.305	114.52
338.517	16.21
338.729	53.08
338.942	-20.65
339.154	59.22
339.367	89.94
339.579	65.36
339.792	16.21
340.004	44.88
340.217	22.36
340.429	42.84
340.641	-55.47
340.854	10.07
341.066	71.51
341.278	94.04
341.491	98.13
341.703	51.03
341.915	8.02
342.128	36.69
342.34	91.99
342.552	-0.17
342.764	20.31
342.977	30.55
343.189	61.27
343.401	20.31
343.613	12.12
343.826	42.84
344.038	71.51
344.25	3.93
344.462	-0.17
344.674	55.12
344.886	-8.36
345.099	-4.27
345.311	32.6
345.523	65.36
345.735	-20.65
345.947	20.31
346.159	-45.23
346.371	44.88
346.583	65.36
346.795	22.36
347.007	34.64
347.219	63.32
347.431	10.07
347.643	36.69
347.855	48.98
348.067	53.08
348.279	63.32
348.491	48.98
348.703	-14.51
348.915	118.61
349.127	73.56
349.339	87.89
349.551	-30.89
349.763	38.74
349.975	67.41
350.187	83.8
350.399	55.12
350.61	30.55
350.822	71.51
351.034	42.84
351.246	100.18
351.458	20.31
351.669	51.03
351.881	16.21
352.093	96.08
352.305	10.07
352.517	108.37
352.728	108.37
352.94	-10.41
353.152	42.84
353.363	28.5
353.575	108.37
353.787	38.74
353.999	77.65
354.21	8.02
354.422	36.69
354.633	14.17
354.845	102.23
355.057	63.32
355.268	38.74
355.48	30.55
355.692	44.88
355.903	104.28
356.115	18.26
356.326	40.79
356.538	65.36
356.749	-59.56
356.961	98.13
357.172	28.5
357.384	65.36
357.595	79.7
357.807	22.36
358.018	79.7
358.23	83.8
358.441	79.7
358.653	32.6
358.864	34.64
359.075	57.17
359.287	71.51
359.498	118.61
359.709	-37.03
359.921	-0.17
360.132	38.74
360.344	20.31
360.555	63.32
360.766	26.45
360.977	89.94
361.189	24.4
361.4	75.6
361.611	44.88
361.823	81.75
362.034	20.31
362.245	81.75
362.456	69.46
362.667	46.93
362.879	48.98
363.09	77.65
363.301	53.08
363.512	40.79
363.723	57.17
363.935	20.31
364.146	36.69
364.357	24.4
364.568	32.6
364.779	53.08
364.99	110.42
365.201	28.5
365.412	10.07
365.623	-26.79
365.834	46.93
366.045	53.08
366.256	-22.7
366.467	57.17
366.678	32.6
366.889	77.65
367.1	89.94
367.311	81.75
367.522	36.69
367.733	67.41
367.944	106.32
368.155	61.27
368.366	87.89
368.577	73.56
368.788	-10.41
368.999	81.75
369.209	57.17
369.42	71.51
369.631	5.97
369.842	108.37
370.053	14.17
370.264	-14.51
370.474	26.45
370.685	28.5
370.896	-6.31
371.107	81.75
371.317	32.6
371.528	34.64
371.739	28.5
371.95	51.03
372.16	118.61
372.371	69.46
372.582	51.03
372.792	18.26
373.003	98.13
373.214	85.84
373.424	91.99
373.635	67.41
373.846	46.93
374.056	30.55
374.267	32.6
374.477	87.89
374.688	71.51
374.898	59.22
375.109	63.32
375.319	51.03
375.53	59.22
375.74	67.41
375.951	61.27
376.161	114.52
376.372	-14.51
376.582	10.07
376.793	65.36
377.003	42.84
377.214	85.84
377.424	16.21
377.635	38.74
377.845	42.84
378.055	-4.27
378.266	20.31
378.476	44.88
378.686	83.8
378.897	30.55
379.107	75.6
379.317	12.12
379.528	59.22
379.738	16.21
379.948	79.7
380.158	128.85
380.369	63.32
380.579	102.23
380.789	36.69
380.999	83.8
381.21	55.12
381.42	61.27
381.63	-8.36
381.84	16.21
382.05	12.12
382.261	73.56
382.471	8.02
382.681	20.31
382.891	61.27
383.101	71.51
383.311	71.51
383.521	69.46
383.731	59.22
383.941	53.08
384.151	85.84
384.361	57.17
384.571	85.84
384.781	135
384.991	57.17
385.201	32.6
385.411	71.51
385.621	112.47
385.831	42.84
386.041	100.18
386.251	16.21
386.461	51.03
386.671	42.84
386.881	77.65
387.091	55.12
387.301	55.12
387.511	89.94
387.72	71.51
387.93	81.75
388.14	32.6
388.35	151.38
388.56	96.08
388.769	42.84
388.979	36.69
389.189	3.93
389.399	77.65
389.609	46.93
389.818	149.33
390.028	71.51
390.238	42.84
390.447	26.45
390.657	32.6
390.867	98.13
391.076	8.02
391.286	44.88
391.496	89.94
391.705	112.47
391.915	126.8
392.125	40.79
392.334	85.84
392.544	30.55
392.753	16.21
392.963	46.93
393.172	22.36
393.382	32.6
393.591	77.65
393.801	65.36
394.01	98.13
394.22	28.5
394.429	96.08
394.639	42.84
394.848	63.32
395.058	51.03
395.267	46.93
395.477	94.04
395.686	96.08
395.895	73.56
396.105	155.47
396.314	46.93
396.524	137.04
396.733	40.79
396.942	98.13
397.152	104.28
397.361	102.23
397.57	46.93
397.78	77.65
397.989	104.28
398.198	75.6
398.407	75.6
398.617	73.56
398.826	126.8
399.035	36.69
399.244	110.42
399.453	-16.55
399.663	143.19
399.872	96.08
400.081	55.12
400.29	120.66
400.499	81.75
400.708	147.28
400.917	77.65
401.127	106.32
401.336	147.28
401.545	122.71
401.754	106.32
401.963	108.37
402.172	61.27
402.381	110.42
402.59	53.08
402.799	55.12
403.008	102.23
403.217	151.38
403.426	73.56
403.635	120.66
403.844	40.79
404.053	110.42
404.262	120.66
404.471	118.61
404.68	73.56
404.888	147.28
405.097	132.95
405.306	165.71
405.515	132.95
405.724	210.77
405.933	130.9
406.142	81.75
406.35	157.52
406.559	190.29
406.768	143.19
406.977	163.67
407.185	194.39
407.394	167.76
407.603	141.14
407.812	229.2
408.02	171.86
408.229	216.91
408.438	229.2
408.646	153.43
408.855	233.3
409.064	214.87
409.272	241.49
409.481	225.11
409.69	257.87
409.898	251.73
410.107	239.44
410.315	272.21
410.524	241.49
410.733	309.07
410.941	341.84
411.15	290.64
411.358	274.26
411.567	415.57
411.775	350.03
411.984	345.94
412.192	345.94
412.401	395.09
412.609	362.32
412.818	423.76
413.026	374.61
413.234	466.77
413.443	454.48
413.651	417.61
413.86	462.67
414.068	515.92
414.276	472.91
414.485	501.58
414.693	571.21
414.901	599.88
415.11	546.64
415.318	612.17
415.526	622.41
415.734	567.12
415.943	714.57
416.151	704.33
416.359	687.95
416.567	704.33
416.776	733
416.984	831.3
417.192	763.72
417.4	821.06
417.608	870.22
417.817	761.67
418.025	859.98
418.233	882.5
418.441	941.89
418.649	1013.57
418.857	1124.16
419.065	1075.01
419.273	1017.67
419.481	1099.59
419.689	1150.79
419.897	1259.33
420.105	1265.47
420.313	1259.33
420.521	1236.8
420.729	1283.91
420.937	1310.53
421.145	1365.82
421.353	1527.61
421.561	1654.59
421.769	1556.29
421.977	1660.73
422.185	1722.17
422.393	1836.86
422.601	1775.42
422.809	1744.7
423.017	1947.45
423.224	1914.68
423.432	2000.69
423.64	2051.89
423.848	2170.68
424.056	2111.29
424.263	2350.9
424.471	2334.51
424.679	2213.68
424.887	2541.36
425.094	2467.63
425.302	2488.11
425.51	2793.26
425.718	2770.73
425.925	2764.59
426.133	2901.8
426.341	2991.91
426.548	3147.56
426.756	3182.37
426.964	3235.62
427.171	3260.2
427.379	3518.24
427.586	3647.26
427.794	3671.84
428.001	3792.67
428.209	4026.14
428.417	3809.05
428.624	4228.88
428.832	4200.21
429.039	4130.58
429.247	4200.21
429.454	4624.14
429.662	4992.78
429.869	4654.86
430.076	4849.42
430.284	4753.16
430.491	4861.71
430.699	5295.88
430.906	5304.07
431.114	5414.66
431.321	5385.99
431.528	5680.89
431.736	5926.65
431.943	6117.11
432.15	5799.68
432.358	6244.09
432.565	6469.36
432.772	6366.96
432.979	6854.38
433.187	6825.71
433.394	6967.02
433.601	7470.82
433.808	7327.46
434.016	7218.92
434.223	7644.9
434.43	8216.28
434.637	7980.76
434.844	8443.6
435.052	8660.69
435.259	8449.75
435.466	8589.01
435.673	8625.87
435.88	9103.05
436.087	9506.5
436.294	9782.98
436.501	9332.42
436.708	9608.9
436.915	9813.7
437.122	10405.56
437.329	10473.14
437.537	10399.41
437.743	10925.74
437.95	10622.64
438.157	11310.76
438.364	11701.92
438.571	11624.1
438.778	11599.52
438.985	12619.41
439.192	12205.72
439.399	12592.79
439.606	12400.28
439.813	12871.31
440.02	13964.93
440.227	13581.96
440.433	13637.25
440.64	14046.85
440.847	13958.78
441.054	14136.96
441.261	15038.06
441.467	15044.21
441.674	15259.24
441.881	15910.5
442.088	15677.03
442.294	15724.13
442.501	16146.01
442.708	16369.24
442.914	16922.2
443.121	17663.56
443.328	17081.94
443.534	18591.29
443.741	18005.57
443.948	17559.11
444.154	19047.99
444.361	18806.33
444.568	18884.15
444.774	19054.13
444.981	19258.93
445.187	19748.39
445.394	20712.99
445.6	20282.91
445.807	22093.32
446.013	21343.76
446.22	21894.66
446.426	22713.85
446.633	22824.44
446.839	23506.41
447.046	22257.15
447.252	23862.76
447.459	23475.7
447.665	23881.19
447.871	24798.68
448.078	25908.68
448.284	24679.9
448.491	25075.16
448.697	26000.84
448.903	26516.93
449.11	26756.54
449.316	26062.28
449.522	26383.81
449.728	27680.17
449.935	27717.04
450.141	27796.91
450.347	28286.37
450.553	27264.44
450.76	27458.99
450.966	28204.45
451.172	28009.9
451.378	28865.95
451.584	27909.55
451.791	29068.7
451.997	28734.88
452.203	29369.75
452.409	28849.57
452.615	28925.34
452.821	27645.36
453.027	27637.17
453.233	29152.66
453.44	28046.76
453.646	28085.67
453.852	28194.22
454.058	28693.92
454.264	28132.78
454.47	28446.12
454.676	27721.13
454.882	28241.32
455.088	25906.63
455.294	26318.28
455.5	26555.84
455.705	27225.53
455.911	25820.62
456.117	25359.83
456.323	25021.91
456.529	23672.3
456.735	24585.69
456.941	23852.52
457.147	23401.97
457.352	22828.54
457.558	22672.89
457.764	22627.84
457.97	22193.67
458.176	21534.22
458.381	21954.05
458.587	20612.63
458.793	20737.56
458.999	19516.97
459.204	21163.54
459.41	20076.07
459.616	19207.73
459.821	19111.47
460.027	19131.95
460.233	18568.76
460.438	17790.53
460.644	17665.61
460.85	16883.28
461.055	17032.79
461.261	16827.99
461.466	15601.26
461.672	14866.03
461.878	16270.94
462.083	15060.59
462.289	14866.03
462.494	14757.49
462.7	13837.95
462.905	13708.93
463.111	14290.56
463.316	14081.66
463.522	13819.52
463.727	13829.76
463.932	13989.5
464.138	13825.67
464.343	13936.26
464.549	13381.26
464.754	13907.59
464.959	13852.29
465.165	13723.27
465.37	13225.61
465.575	12836.5
465.781	13397.64
465.986	13186.7
466.191	12746.39
466.397	12517.01
466.602	11925.15
466.807	12299.93
467.012	12408.47
467.218	12508.82
467.423	12236.44
467.628	12312.22
467.833	12887.7
468.038	12320.41
468.244	12101.28
468.449	12162.72
468.654	11841.18
468.859	11927.2
469.064	11937.44
469.269	11296.42
469.474	11476.65
469.679	11603.62
469.885	11384.49
470.09	11540.13
470.295	11341.48
470.5	11083.44
470.705	11298.47
470.91	11105.96
471.115	10923.69
471.32	11040.43
471.525	10942.13
471.73	10747.57
471.935	10665.65
472.139	10380.98
472.344	10507.96
472.549	10184.38
472.754	10241.72
472.959	9967.29
473.164	10055.36
473.369	9649.86
473.574	9940.67
473.778	9993.92
473.983	9780.93
474.188	9586.37
474.393	9387.72
474.598	9322.18
474.802	9379.53
475.007	9170.63
475.212	9352.9
475.417	8900.3
475.621	8623.83
475.826	8675.02
476.031	8773.33
476.235	8621.78
476.44	8777.42
476.645	8494.8
476.849	8451.8
477.054	8369.88
477.259	8392.41
477.463	8419.03
477.668	8238.81
477.872	8220.38
478.077	8251.1
478.282	7751.39
478.486	7763.68
478.691	7812.83
478.895	7962.33
479.1	7696.1
479.304	7773.92
479.509	7491.3
479.713	7689.95
479.918	7436
480.122	7276.26
480.326	7689.95
480.531	7499.49
480.735	7376.61
480.94	7288.55
481.144	7534.31
481.348	7284.45
481.553	7376.61
481.757	7120.62
481.961	7266.02
482.166	7272.17
482.37	7245.54
482.574	6964.97
482.778	7081.71
482.983	7335.65
483.187	7276.26
483.391	7091.95
483.595	7120.62
483.8	7104.23
484.004	7177.96
484.208	7235.3
484.412	7190.25
484.616	7196.39
484.821	7196.39
485.025	7030.51
485.229	7284.45
485.433	6997.74
485.637	7325.41
485.841	7087.85
486.045	6997.74
486.249	7155.43
486.453	7038.7
486.657	7171.82
486.861	7118.57
487.065	6915.82
487.269	7098.09
487.473	6964.97
487.677	7134.95
487.881	7345.89
488.085	7173.86
488.289	7325.41
488.493	7212.78
488.697	7212.78
488.901	7390.95
489.105	7067.37
489.309	7339.75
489.512	7356.13
489.716	7120.62
489.92	7229.16
490.124	7225.06
490.328	7188.2
490.531	7165.67
490.735	7395.04
490.939	7390.95
491.143	7352.04
491.346	7270.12
491.55	7620.32
491.754	7388.9
491.958	7530.21
492.161	7388.9
492.365	7585.51
492.569	7648.99
492.772	7567.07
492.976	7810.78
493.18	7638.75
493.383	8003.29
493.587	7800.54
493.79	7732.96
493.994	7878.37
494.197	7864.03
494.401	7984.86
494.605	7956.19
494.808	8095.45
495.012	8040.15
495.215	8187.61
495.419	8373.97
495.622	8253.14
495.825	8490.71
496.029	8455.89
496.232	8519.38
496.436	8541.91
496.639	8912.59
496.843	8683.22
497.046	8672.98
497.249	9137.87
497.453	8881.87
497.656	9381.57
497.859	9324.23
498.063	9395.91
498.266	9459.4
498.469	9426.63
498.673	9594.56
498.876	9563.84
499.079	9828.03
499.282	9840.32
499.485	10088.12
499.689	10030.78
499.892	10149.56
500.095	10288.82
500.298	10536.63
500.501	10499.77
500.705	10878.64
500.908	11163.31
501.111	11130.54
501.314	11022
501.517	11282.09
501.72	11411.11
501.923	11607.72
502.126	11527.85
502.329	12093.08
502.532	11781.79
502.735	11869.86
502.938	12119.71
503.141	12261.02
503.344	12555.93
503.547	12326.55
503.75	12584.6
503.953	12705.43
504.156	12859.03
504.359	12916.37
504.562	13164.17
504.765	13510.28
504.968	13590.15
505.17	13770.37
505.373	14009.98
505.576	14098.05
505.779	14063.23
505.982	14323.32
506.185	14689.91
506.387	14589.56
506.59	14931.57
506.793	15175.28
506.996	15277.68
507.198	15572.58
507.401	15566.44
507.604	15543.91
507.807	16019.04
508.009	16199.26
508.212	16098.91
508.415	16463.45
508.617	16649.82
508.82	16772.69
509.022	16666.2
509.225	17196.62
509.428	17528.39
509.63	17647.18
509.833	17675.85
510.035	18136.64
510.238	18331.2
510.44	18357.82
510.643	18236.99
510.845	18759.22
511.048	18845.24
511.25	19367.47
511.453	19199.54
511.655	20069.92
511.858	19906.09
512.06	19971.62
512.262	20200.99
512.465	20164.13
512.667	20799
512.87	20964.89
513.072	20964.89
513.274	21339.66
513.477	21759.5
513.679	21693.96
513.881	21978.63
514.084	22210.05
514.286	22302.21
514.488	22752.76
514.69	23375.34
514.893	23447.02
515.095	23377.39
515.297	23791.08
515.499	23903.72
515.701	23985.64
515.904	24202.72
516.106	24720.86
516.308	24477.15
516.51	25107.93
516.712	25396.69
516.914	25699.79
517.116	26039.75
517.318	26043.85
517.52	26076.62
517.722	26447.3
517.925	27110.84
518.127	27317.68
518.329	27166.13
518.531	27573.68
518.733	28106.15
518.935	28018.09
519.136	28421.54
519.338	28497.31
519.54	28687.78
519.742	29371.8
519.944	29447.57
520.146	29932.94
520.348	29848.97
520.55	30059.91
520.752	30547.33
520.954	30631.3
521.155	30567.81
521.357	31059.32
521.559	31475.06
521.761	32152.94
521.963	32015.72
522.164	32243.05
522.366	32116.08
522.568	33172.83
522.77	32599.4
522.971	33457.49
523.173	33238.36
523.375	33561.94
523.576	33639.76
523.778	33615.19
523.98	34346.31
524.181	34483.53
524.383	34374.98
524.584	35251.52
524.786	35077.44
524.988	35016
525.189	35470.65
525.391	35630.39
525.592	36060.46
525.794	35798.32
525.995	35691.83
526.197	36166.96
526.398	36117.81
526.6	36648.23
526.801	36869.41
527.003	36797.73
527.204	36744.48
527.406	37332.25
527.607	37137.69
527.808	37502.23
528.01	37332.25
528.211	37471.51
528.412	38139.15
528.614	37864.72
528.815	37768.47
529.016	38448.39
529.218	37981.46
529.419	38513.93
529.62	38307.08
529.822	38542.6
530.023	38452.49
530.224	38714.63
530.425	38401.29
530.626	38450.44
530.828	38550.79
531.029	39486.71
531.23	38999.3
531.431	38731.01
531.632	38763.78
531.833	39058.69
532.035	38960.39
532.236	39533.82
532.437	39349.5
532.638	39494.91
532.839	39724.28
533.04	39353.6
533.241	39144.7
533.442	39884.02
533.643	39464.19
533.844	39120.13
534.045	39689.46
534.246	39472.38
534.447	39458.04
534.648	39091.46
534.849	39691.51
535.05	39568.63
535.251	39523.58
535.451	39675.13
535.652	39904.5
535.853	39548.15
536.054	39843.06
536.255	39906.55
536.456	39095.55
536.657	40045.81
536.857	39939.32
537.058	39507.19
537.259	40066.29
537.46	40013.04
537.66	39439.61
537.861	39621.88
538.062	39714.04
538.263	39875.83
538.463	39689.46
538.664	39767.29
538.865	39787.77
539.065	40004.85
539.266	39263.49
539.466	40357.1
539.667	39519.48
539.868	39605.5
540.068	39838.97
540.269	39785.72
540.469	40266.99
540.67	39380.22
540.87	39619.83
541.071	39456
541.271	39884.02
541.472	39605.5
541.672	39924.98
541.873	39830.77
542.073	39185.66
542.274	40027.38
542.474	39462.14
542.675	39202.05
542.875	39978.23
543.075	39607.54
543.276	39353.6
543.476	39900.4
543.676	39425.28
543.877	40168.69
544.077	39652.6
544.277	39826.68
544.478	39288.06
544.678	39705.85
544.878	39369.98
545.078	39699.7
545.279	39562.49
545.479	39361.79
545.679	39603.45
545.879	39447.8
546.079	39476.47
546.28	39404.8
546.48	39132.42
546.68	39509.24
546.88	39449.85
547.08	39861.49
547.28	39134.46
547.48	39001.35
547.68	39648.5
547.88	39200
548.081	39509.24
548.281	39462.14
548.481	39439.61
548.681	39687.42
548.881	39548.15
549.081	39423.23
549.28	39142.66
549.48	39736.57
549.68	39261.44
549.88	39855.35
550.08	39243.01
550.28	39316.73
550.48	39462.14
550.68	39537.91
550.88	39341.31
551.08	39400.7
551.279	39476.47
551.479	38962.43
551.679	39421.18
551.879	39169.28
552.079	39386.36
552.278	39111.94
552.478	39218.43
552.678	39173.38
552.878	39343.36
553.077	38993.15
553.277	39169.28
553.477	39322.88
553.676	39204.1
553.876	39030.02
554.076	38931.72
554.275	38987.01
554.475	38700.29
554.674	39234.81
554.874	38829.32
555.074	38911.24
555.273	39197.95
555.473	39099.65
555.672	38964.48
555.872	38690.05
556.071	38817.03
556.271	39134.46
556.47	38530.31
556.67	38495.5
556.869	38229.26
557.068	38522.12
557.268	38036.75
557.467	38479.11
557.667	38384.91
557.866	38329.61
558.065	38257.93
558.265	38331.66
558.464	37981.46
558.663	38763.78
558.863	37518.62
559.062	38296.84
559.261	37762.33
559.461	38268.17
559.66	37747.99
559.859	37860.63
560.058	37567.77
560.258	37907.73
560.457	37666.07
560.656	38141.2
560.855	37395.74
561.054	37604.63
561.253	37149.98
561.453	37469.47
561.652	37594.39
561.851	37684.5
562.05	37145.89
562.249	36711.72
562.448	37360.92
562.647	36885.79
562.846	37311.77
563.045	36936.99
563.244	36898.08
563.443	37205.28
563.642	36230.44
563.841	36736.29
564.04	36562.22
564.239	37020.96
564.438	36562.22
564.637	36752.68
564.836	36656.42
565.035	35966.26
565.234	36791.59
565.432	36644.13
565.631	36224.3
565.83	36214.06
566.029	36433.19
566.228	36107.57
566.427	36044.08
566.625	35880.24
566.824	35616.05
567.023	35577.14
567.222	35220.8
567.42	35702.07
567.619	35616.05
567.818	35777.84
568.016	35247.42
568.215	35605.81
568.414	35259.71
568.612	35491.13
568.811	35102.01
569.01	35382.59
569.208	34635.08
569.407	34768.19
569.605	34600.26
569.804	34712.9
570.002	34442.57
570.201	34538.82
570.4	34407.75
570.598	34440.52
570.797	34026.83
570.995	34254.15
571.193	33844.56
571.392	33901.9
571.59	33981.77
571.789	34215.24
571.987	33602.9
572.186	34088.27
572.384	33496.41
572.582	33963.34
572.781	33414.49
572.979	33312.09
573.177	33656.15
573.376	33486.17
573.574	33121.63
573.772	32980.32
573.971	32550.24
574.169	32937.31
574.367	32720.23
574.565	32757.09
574.763	32675.17
574.962	32427.37
575.16	32157.03
575.358	32613.73
575.556	31845.74
575.754	32361.83
575.952	32275.82
576.151	32470.37
576.349	31513.97
576.547	31942
576.745	31778.16
576.943	31786.35
577.141	31569.27
577.339	31489.4
577.537	31413.62
577.735	31188.35
577.933	30956.92
578.131	30950.78
578.329	30772.61
578.527	30954.88
578.725	30799.23
578.923	30809.47
579.121	30412.17
579.319	30379.4
579.516	30741.89
579.714	30580.1
579.912	30522.76
580.11	30211.46
580.308	30055.82
580.506	30291.34
580.704	29502.87
580.901	29949.32
581.099	29803.92
581.297	29414.8
581.495	29654.42
581.692	29738.38
581.89	29343.13
582.088	29767.06
582.285	29130.14
582.483	29613.46
582.681	28947.87
582.878	29101.47
583.076	29033.88
583.274	28976.54
583.471	28417.44
583.669	28327.33
583.866	28339.62
584.064	28759.45
584.262	28349.86
584.459	28552.61
584.657	28087.72
584.854	28247.46
585.052	28110.25
585.249	28331.43
585.447	28089.77
585.644	27803.05
585.841	27901.36
586.039	28065.19
586.236	27403.7
586.434	27305.4
586.631	27448.75
586.828	27528.63
587.026	27485.62
587.223	27405.75
587.42	27102.65
587.618	27053.5
587.815	26836.41
588.012	26838.46
588.21	26615.23
588.407	26815.93
588.604	26308.04
588.801	26699.2
588.999	26840.51
589.196	26611.14
589.393	26138.05
589.59	26289.6
589.787	26402.24
589.984	26105.29
590.182	25968.07
590.379	26349
590.576	25775.56
590.773	26176.97
590.97	25867.72
591.167	25957.83
591.364	25505.23
591.561	25519.57
591.758	25187.8
591.955	25658.83
592.152	25744.84
592.349	24985.05
592.546	25021.91
592.743	24968.66
592.94	24923.61
593.137	24966.62
593.334	25093.59
593.531	24776.16
593.727	25368.02
593.924	24987.1
594.121	24456.67
594.318	24677.85
594.515	24296.93
594.712	24563.17
594.908	24321.51
595.105	24384.99
595.302	24182.24
595.499	24290.79
595.696	23920.1
595.892	23866.86
596.089	24016.36
596.286	24024.55
596.482	23717.36
596.679	24038.89
596.876	23944.68
597.072	23551.47
597.269	23643.63
597.466	23391.73
597.662	23625.2
597.859	23373.3
598.055	23389.68
598.252	23227.89
598.448	23010.81
598.645	23156.21
598.841	22930.94
599.038	22787.58
599.234	23070.2
599.431	22666.75
599.627	22691.32
599.824	22849.02
600.02	22572.54
600.217	22619.64
600.413	22679.04
600.609	22195.71
600.806	22375.94
601.002	22367.74
601.198	21925.38
601.395	22078.98
601.591	22240.77
601.787	21972.49
601.984	21949.96
602.18	21992.97
602.376	21696.01
602.572	21257.74
602.769	21595.66
602.965	21724.68
603.161	21517.84
603.357	21450.25
603.553	21345.81
603.75	21243.41
603.946	21063.19
604.142	21110.29
604.338	20751.9
604.534	20950.55
604.73	20956.69
604.926	20747.8
605.122	20874.77
605.318	20606.49
605.514	20616.73
605.71	20565.53
605.906	20448.8
606.102	20151.84
606.298	20250.14
606.494	20207.14
606.69	20100.64
606.886	20262.43
607.082	20172.32
607.278	20037.16
607.474	19656.23
607.67	20057.64
607.866	19820.07
608.062	19940.9
608.257	19770.92
608.453	19805.74
608.649	19598.89
608.845	19525.16
609.041	19504.68
609.236	19369.52
609.432	19508.78
609.628	19426.86
609.824	19154.48
610.019	19363.37
610.215	18988.6
610.411	19355.18
610.606	19015.22
610.802	19433
610.998	18851.38
611.193	18982.45
611.389	19086.9
611.584	19019.32
611.78	18775.61
611.976	18941.49
612.171	18808.37
612.367	18556.47
612.562	18535.99
612.758	18542.14
612.953	18349.63
613.149	18503.23
613.344	18345.53
613.539	18585.15
613.735	18210.37
613.93	18505.27
614.126	18226.75
614.321	18097.73
614.517	18069.06
614.712	18171.46
614.907	18050.63
615.103	18054.72
615.298	18095.68
615.493	18413.12
615.688	17933.89
615.884	18202.18
616.079	17890.88
616.274	17917.51
616.47	17931.84
616.665	17749.57
616.86	17768.01
617.055	17718.85
617.25	17426
617.445	17643.08
617.641	17280.59
617.836	17524.3
618.031	17079.89
618.226	17335.88
618.421	16950.87
618.616	17368.65
618.811	17264.21
619.006	17004.11
619.201	16729.69
619.396	17124.94
619.591	16670.29
619.786	16914
619.981	16535.13
620.176	16809.56
620.371	16377.44
620.566	16565.85
620.761	16217.69
620.956	16371.29
621.151	15978.08
621.346	16410.2
621.541	15584.87
621.735	16213.6
621.93	15859.3
622.125	15875.68
622.32	15490.66
622.515	15679.08
622.709	15720.04
622.904	15627.88
623.099	15595.11
623.294	15552.1
623.488	15224.43
623.683	15126.13
623.878	14904.95
624.072	15187.57
624.267	15122.03
624.462	15029.87
624.656	14663.29
624.851	14855.79
625.046	14452.34
625.24	14767.73
625.435	14241.4
625.629	14360.19
625.824	14126.72
626.018	14257.79
626.213	13919.87
626.407	14112.38
626.602	13909.63
626.796	13729.41
626.991	13966.98
627.185	13686.4
627.38	13651.59
627.574	13514.38
627.768	13688.45
627.963	13454.98
628.157	13344.39
628.352	13352.59
628.546	12981.9
628.74	13069.97
628.935	13158.03
629.129	12893.84
629.323	12945.04
629.517	12881.55
629.712	12783.25
629.906	12572.31
630.1	12674.71
630.294	12560.02
630.489	12656.28
630.683	12492.44
630.877	12465.82
631.071	12338.84
631.265	12240.54
631.459	12199.58
631.653	12076.7
631.848	12222.11
632.042	12170.91
632.236	12142.24
632.43	11763.36
632.624	11968.16
632.818	11828.9
633.012	11570.85
633.206	11636.39
633.4	11640.48
633.594	11550.37
633.788	11482.79
633.982	11509.41
634.176	11323.05
634.369	11259.56
634.563	11404.97
634.757	11163.31
634.951	11421.35
635.145	11077.29
635.339	10933.93
635.533	10886.83
635.726	10958.51
635.92	10813.1
636.114	10675.89
636.308	10684.08
636.501	10784.43
636.695	10565.3
636.889	10489.53
637.083	10467
637.276	10782.38
637.47	10282.68
637.664	10237.63
637.857	10348.22
638.051	10266.3
638.244	10235.58
638.438	10036.92
638.632	10297.02
638.825	9895.61
639.019	9815.74
639.212	9828.03
639.406	9850.56
639.599	9903.81
639.793	9944.77
639.986	9561.8
640.18	9639.62
640.373	9361.09
640.567	9412.29
640.76	9658.05
640.954	9367.24
641.147	9350.85
641.34	9254.6
641.534	9299.66
641.727	9187.02
641.92	9264.84
642.114	9154.25
642.307	9207.5
642.5	9131.72
642.694	8935.12
642.887	8847.05
643.08	8883.92
643.273	8836.81
643.467	8761.04
643.66	8550.1
643.853	8677.07
644.046	8525.52
644.239	8558.29
644.432	8386.26
644.626	8298.2
644.819	8488.66
645.012	8218.33
645.205	8304.34
645.398	8298.2
645.591	8122.07
645.784	8074.97
645.977	7929.56
646.17	8148.7
646.363	8091.35
646.556	7970.52
646.749	7778.01
646.942	7878.37
647.135	7739.1
647.328	7845.6
647.521	7718.62
647.714	7759.58
647.907	7661.28
648.099	7501.54
648.292	7495.39
648.485	7567.07
648.678	7388.9
648.871	7648.99
649.064	7390.95
649.256	7464.68
649.449	7257.83
649.642	7225.06
649.835	7341.8
650.027	7040.75
650.22	7089.9
650.413	6883.05
650.605	6948.59
650.798	6962.92
650.991	6747.89
651.183	6866.67
651.376	6782.7
651.568	6760.17
651.761	6733.55
651.954	6661.87
652.146	6725.36
652.339	6713.07
652.531	6575.86
652.724	6481.65
652.916	6440.69
653.109	6514.42
653.301	6645.49
653.494	6428.4
653.686	6307.57
653.879	6311.67
654.071	6452.98
654.263	6233.85
654.456	6356.72
654.648	6190.84
654.84	6123.26
655.033	6131.45
655.225	6104.82
655.417	6129.4
655.61	5992.19
655.802	5926.65
655.994	5893.88
656.186	5959.42
656.379	5881.6
656.571	5885.69
656.763	5736.19
656.955	5736.19
657.148	5682.94
657.34	5924.6
657.532	5605.12
657.724	5703.42
657.916	5713.66
658.108	5392.13
658.3	5457.67
658.492	5484.29
658.684	5404.42
658.876	5424.9
659.068	5381.89
659.26	5371.65
659.452	5353.22
659.644	5424.9
659.836	5183.24
660.028	5285.64
660.22	5205.77
660.412	5199.62
660.604	5187.33
660.796	5056.26
660.988	4894.47
661.18	5082.89
661.372	4996.87
661.563	5013.26
661.755	4914.95
661.947	5050.12
662.139	4876.04
662.331	4982.54
662.522	4812.56
662.714	4890.38
662.906	4671.25
663.097	4751.12
663.289	4724.49
663.481	4747.02
663.673	4548.37
663.864	4607.76
664.056	4570.9
664.247	4507.41
664.439	4558.61
664.631	4548.37
664.822	4452.11
665.014	4493.07
665.205	4488.98
665.397	4372.24
665.588	4319
665.78	4429.59
665.971	4341.52
666.163	4368.15
666.354	4251.41
666.546	4239.12
666.737	4235.03
666.929	4241.17
667.12	4362
667.311	4196.12
667.503	4048.66
667.694	4175.64
667.885	4081.43
668.077	4169.49
668.268	3954.46
668.459	4085.53
668.651	4017.94
668.842	3958.55
669.033	3960.6
669.224	3960.6
669.416	3884.83
669.607	3905.31
669.798	3749.66
669.989	3878.68
670.18	3866.39
670.371	3905.31
670.563	3897.11
670.754	3860.25
670.945	3663.65
671.136	3749.66
671.327	3796.76
671.518	3878.68
671.709	3653.41
671.9	3610.4
672.091	3671.84
672.282	3649.31
672.473	3682.08
672.664	3718.94
672.855	3575.58
673.046	3561.25
673.237	3667.74
673.428	3497.76
673.619	3600.16
673.809	3583.77
674	3538.72
674.191	3475.23
674.382	3501.86
674.573	3469.09
674.764	3475.23
674.954	3464.99
675.145	3485.47
675.336	3346.21
675.527	3454.75
675.717	3338.02
675.908	3409.7
676.099	3421.99
676.289	3426.08
676.48	3342.11
676.671	3417.89
676.861	3204.9
677.052	3323.68
677.243	3102.5
677.433	3352.35
677.624	3299.11
677.814	3323.68
678.005	3321.63
678.195	3200.8
678.386	3264.29
678.576	3247.91
678.767	3092.26
678.957	3204.9
679.148	3211.04
679.338	3145.51
679.529	3266.34
679.719	3149.61
679.909	3102.5
680.1	3274.53
680.29	2989.86
680.481	3112.74
680.671	3092.26
680.861	3026.73
681.052	3088.17
681.242	3116.84
681.432	3200.8
681.622	2942.76
681.813	3030.82
682.003	3069.73
682.193	2928.42
682.383	2965.29
682.573	3047.21
682.764	2889.51
682.954	3108.65
683.144	2953
683.334	2987.82
683.524	2979.62
683.714	2959.14
683.904	2953
684.094	2901.8
684.284	2938.66
684.474	3055.4
684.664	2924.33
684.854	2934.57
685.044	2828.07
685.234	3020.58
685.424	2856.75
685.614	2934.57
685.804	2979.62
685.994	2799.4
686.184	2832.17
686.374	2887.47
686.564	2754.35
686.753	2795.31
686.943	2832.17
687.133	2752.3
687.323	2787.11
687.513	2969.38
687.702	2694.96
687.892	2826.03
688.082	2795.31
688.272	2791.21
688.461	2746.16
688.651	2783.02
688.841	2860.84
689.03	2719.53
689.22	2758.44
689.41	2692.91
689.599	2887.47
689.789	2762.54
689.979	2694.96
690.168	2723.63
690.358	2701.1
690.547	2721.58
690.737	2846.51
690.926	2584.37
691.116	2643.76
691.305	2711.34
691.495	2565.93
691.684	2670.38
691.874	2633.52
692.063	2682.67
692.252	2570.03
692.442	2543.41
692.631	2662.19
692.82	2805.55
693.01	2621.23
693.199	2600.75
693.388	2770.73
693.578	2576.17
693.767	2656.04
693.956	2619.18
694.146	2639.66
694.335	2674.48
694.524	2625.33
694.713	2590.51
694.902	2690.86
695.092	2649.9
695.281	2664.24
695.47	2670.38
695.659	2524.97
695.848	2725.68
696.037	2592.56
696.226	2678.57
696.415	2662.19
696.604	2729.77
696.793	2580.27
696.982	2617.13
697.171	2729.77
697.36	2547.5
697.549	2664.24
697.738	2615.09
697.927	2656.04
698.116	2682.67
698.305	2604.85
698.494	2633.52
698.683	2684.72
698.872	2496.3
699.061	2617.13
699.25	2686.76
699.438	2604.85
699.627	2451.25
699.816	2613.04
700.005	2516.78
700.193	2590.51
700.382	2787.11
700.571	2619.18
700.76	2610.99
700.948	2572.08
701.137	2508.59
701.326	2453.3
701.514	2500.4
701.703	2527.02
701.892	2545.45
702.08	2586.41
702.269	2527.02
702.457	2463.54
702.646	2441.01
702.834	2461.49
703.023	2506.54
703.212	2490.16
703.4	2518.83
703.589	2410.29
703.777	2383.66
703.965	2371.38
704.154	2494.26
704.342	2430.77
704.531	2604.85
704.719	2404.14
704.907	2443.06
705.096	2428.72
705.284	2373.43
705.472	2324.27
705.661	2520.88
705.849	2406.19
706.037	2387.76
706.226	2426.67
706.414	2443.06
706.602	2289.46
706.79	2500.4
706.979	2371.38
707.167	2262.83
707.355	2398
707.543	2250.55
707.731	2344.75
707.919	2328.37
708.107	2228.02
708.296	2287.41
708.484	2377.52
708.672	2197.3
708.86	2348.85
709.048	2268.98
709.236	2268.98
709.424	2260.79
709.612	2398
709.8	2326.32
709.988	2262.83
710.176	2252.59
710.364	2291.51
710.551	2256.69
710.739	2225.97
710.927	2211.64
711.115	2191.16
711.303	2109.24
711.491	2230.07
711.679	2080.57
711.866	2223.92
712.054	2219.83
712.242	2156.34
712.43	2156.34
712.617	2187.06
712.805	2146.1
712.993	2215.73
713.181	2086.71
713.368	2070.33
713.556	2137.91
713.744	2039.61
713.931	2127.67
714.119	2043.7
714.306	2088.76
714.494	2033.46
714.682	2004.79
714.869	2019.13
715.057	2111.29
715.244	2076.47
715.432	2002.74
715.619	1935.16
715.807	1908.54
715.994	1943.35
716.182	1937.21
716.369	1984.31
716.556	1976.12
716.744	1900.34
716.931	1969.98
717.119	1963.83
717.306	1879.86
717.493	1986.36
717.681	1914.68
717.868	1939.26
718.055	1894.2
718.242	1939.26
718.43	1863.48
718.617	1814.33
718.804	1849.15
718.991	1845.05
719.179	1879.86
719.366	1814.33
719.553	1857.34
719.74	1779.51
719.927	1904.44
720.114	1820.47
720.301	1832.76
720.488	1728.31
720.676	1713.98
720.863	1793.85
721.05	1724.22
721.237	1851.19
721.424	1724.22
721.611	1697.6
721.798	1765.18
721.985	1683.26
722.172	1673.02
722.358	1808.19
722.545	1750.84
722.732	1570.62
722.919	1550.14
723.106	1677.12
723.293	1703.74
723.48	1646.4
723.667	1582.91
723.853	1668.92
724.04	1699.64
724.227	1582.91
724.414	1705.79
724.6	1650.49
724.787	1591.1
724.974	1630.01
725.161	1634.11
725.347	1609.53
725.534	1720.12
725.72	1533.76
725.907	1695.55
726.094	1607.48
726.28	1765.18
726.467	1564.48
726.653	1531.71
726.84	1582.91
727.027	1601.34
727.213	1599.29
727.4	1615.68
727.586	1525.57
727.773	1476.41
727.959	1535.81
728.145	1613.63
728.332	1533.76
728.518	1589.05
728.705	1460.03
728.891	1558.33
729.077	1496.89
729.264	1507.13
729.45	1460.03
729.636	1453.89
729.823	1417.02
730.009	1488.7
730.195	1492.8
730.382	1492.8
730.568	1447.74
730.754	1531.71
730.94	1488.7
731.126	1466.17
731.313	1451.84
731.499	1343.3
731.685	1453.89
731.871	1382.21
732.057	1437.5
732.243	1433.41
732.429	1388.35
732.615	1498.94
732.801	1384.26
732.987	1304.39
733.173	1318.72
733.359	1386.3
733.545	1351.49
733.731	1335.1
733.917	1298.24
734.103	1417.02
734.289	1414.98
734.475	1322.82
734.661	1304.39
734.847	1333.06
735.033	1281.86
735.219	1238.85
735.404	1318.72
735.59	1298.24
735.776	1253.19
735.962	1265.47
736.148	1324.87
736.333	1333.06
736.519	1257.28
736.705	1273.67
736.89	1263.43
737.076	1310.53
737.262	1318.72
737.447	1335.1
737.633	1279.81
737.819	1355.58
738.004	1226.56
738.19	1240.9
738.375	1283.91
738.561	1290.05
738.747	1167.17
738.932	1273.67
739.118	1298.24
739.303	1197.89
739.489	1214.27
739.674	1097.54
739.859	1140.55
740.045	1169.22
740.23	1251.14
740.416	1234.75
740.601	1208.13
740.786	1107.78
740.972	1238.85
741.157	1136.45
741.342	1148.74
741.528	1255.23
741.713	1060.68
741.898	1118.02
742.084	1212.23
742.269	1111.88
742.454	1189.7
742.639	1079.11
742.824	1109.83
743.01	1122.12
743.195	1038.15
743.38	1130.31
743.565	1126.21
743.75	1120.07
743.935	1042.25
744.12	1068.87
744.305	1079.11
744.49	1052.49
744.675	1046.34
744.86	1011.53
745.045	1068.87
745.23	1171.27
745.415	1075.01
745.6	1126.21
745.785	997.19
745.97	1095.49
746.155	978.76
746.34	1050.44
746.525	960.33
746.71	1007.43
746.895	1009.48
747.079	1068.87
747.264	997.19
747.449	941.89
747.634	1048.39
747.819	997.19
748.003	935.75
748.188	1032.01
748.373	943.94
748.557	1015.62
748.742	1019.72
748.927	939.85
749.111	939.85
749.296	970.57
749.481	921.42
749.665	976.71
749.85	837.45
750.034	999.24
750.219	884.55
750.404	929.61
750.588	890.7
750.773	870.22
750.957	968.52
751.141	900.94
751.326	802.63
751.51	827.21
751.695	962.37
751.879	876.36
752.064	874.31
752.248	876.36
752.432	833.35
752.617	882.5
752.801	849.74
752.985	790.35
753.17	857.93
753.354	733
753.538	841.54
753.722	808.78
753.907	761.67
754.091	773.96
754.275	782.15
754.459	784.2
754.643	702.28
754.828	667.47
755.012	759.63
755.196	745.29
755.38	737.1
755.564	700.23
755.748	718.67
755.932	724.81
756.116	798.54
756.3	814.92
756.484	702.28
756.668	757.58
756.852	763.72
757.036	759.63
757.22	751.43
757.404	700.23
757.588	755.53
757.772	694.09
757.956	649.04
758.14	698.19
758.323	677.71
758.507	649.04
758.691	663.37
758.875	649.04
759.059	687.95
759.242	603.98
759.426	675.66
759.61	612.17
759.794	628.56
759.977	642.89
760.161	687.95
760.345	585.55
760.528	687.95
760.712	661.32
760.895	651.08
761.079	673.61
761.263	618.32
761.446	614.22
761.63	612.17
761.813	610.12
761.997	644.94
762.18	663.37
762.364	501.58
762.547	571.21
762.731	620.36
762.914	608.08
763.098	542.54
763.281	573.26
763.464	649.04
763.648	563.02
763.831	626.51
764.015	536.4
764.198	579.4
764.381	497.49
764.564	608.08
764.748	542.54
764.931	646.99
765.114	571.21
765.297	503.63
765.481	536.4
765.664	560.97
765.847	513.87
766.03	565.07
766.213	599.88
766.397	462.67
766.58	511.82
766.763	567.12
766.946	436.05
767.129	601.93
767.312	509.77
767.495	558.92
767.678	571.21
767.861	450.38
768.044	491.34
768.227	544.59
768.41	515.92
768.593	442.19
768.776	546.64
768.959	499.53
769.142	517.97
769.324	434
769.507	513.87
769.69	491.34
769.873	442.19
770.056	405.33
770.239	511.82
770.421	495.44
770.604	526.16
770.787	567.12
770.97	567.12
771.152	487.25
771.335	573.26
771.518	530.25
771.7	483.15
771.883	522.06
772.066	448.33
772.248	474.96
772.431	507.73
772.613	472.91
772.796	460.62
772.978	499.53
773.161	450.38
773.343	448.33
773.526	384.85
773.708	446.29
773.891	442.19
774.073	456.53
774.256	386.9
774.438	550.73
774.621	446.29
774.803	403.28
774.985	350.03
775.168	427.85
775.35	485.2
775.532	423.76
775.715	419.66
775.897	436.05
776.079	436.05
776.261	395.09
776.444	452.43
776.626	319.31
776.808	417.61
776.99	403.28
777.173	366.42
777.355	438.09
777.537	384.85
777.719	343.89
777.901	302.93
778.083	419.66
778.265	419.66
778.447	325.46
778.629	390.99
778.811	343.89
778.993	386.9
779.175	345.94
779.357	395.09
779.539	409.42
779.721	347.98
779.903	350.03
780.085	380.75
780.267	356.18
780.449	350.03
780.631	313.17
780.812	403.28
780.994	401.23
781.176	350.03
781.358	384.85
781.54	362.32
781.721	419.66
781.903	366.42
782.085	345.94
782.267	366.42
782.448	343.89
782.63	405.33
782.812	249.68
782.993	319.31
783.175	276.31
783.357	294.74
783.538	354.13
783.72	270.16
783.901	354.13
784.083	309.07
784.264	298.83
784.446	288.59
784.627	294.74
784.809	347.98
784.99	304.98
785.172	251.73
785.353	311.12
785.535	253.78
785.716	311.12
785.897	276.31
786.079	272.21
786.26	247.63
786.441	247.63
786.623	208.72
786.804	239.44
786.985	290.64
787.167	245.59
787.348	221.01
787.529	290.64
787.71	282.45
787.891	362.32
788.073	239.44
788.254	268.11
788.435	235.35
788.616	239.44
788.797	272.21
788.978	345.94
789.159	196.43
789.34	257.87
789.522	284.5
789.703	251.73
789.884	225.11
790.065	284.5
790.246	261.97
790.427	257.87
790.607	214.87
790.788	165.71
790.969	149.33
791.15	227.15
791.331	276.31
791.512	214.87
791.693	173.91
791.874	298.83
792.054	251.73
792.235	302.93
792.416	212.82
792.597	241.49
792.778	233.3
792.958	155.47
793.139	192.34
793.32	188.24
793.5	210.77
793.681	214.87
793.862	141.14
794.042	188.24
794.223	182.1
794.404	161.62
794.584	216.91
794.765	231.25
794.945	186.19
795.126	169.81
795.306	212.82
795.487	188.24
795.667	173.91
795.848	255.83
796.028	190.29
796.209	126.8
796.389	214.87
796.57	188.24
796.75	178
796.93	235.35
797.111	178
797.291	128.85
797.471	188.24
797.652	198.48
797.832	120.66
798.012	241.49
798.192	165.71
798.373	221.01
798.553	137.04
798.733	89.94
798.913	118.61
799.093	171.86
799.274	200.53
799.454	190.29
799.634	147.28
799.814	145.24
799.994	139.09
800.174	153.43
800.354	159.57
800.534	163.67
800.714	143.19
800.894	194.39
801.074	114.52
801.254	155.47
801.434	163.67
801.614	161.62
801.794	173.91
801.974	294.74
802.154	100.18
802.334	169.81
802.514	175.95
802.693	132.95
802.873	130.9
803.053	116.56
803.233	155.47
803.413	106.32
803.592	171.86
803.772	143.19
803.952	212.82
804.131	77.65
804.311	186.19
804.491	126.8
804.67	10.07
804.85	96.08
805.03	251.73
805.209	141.14
805.389	139.09
805.568	122.71
805.748	75.6
805.928	161.62
806.107	75.6
806.287	65.36
806.466	137.04
806.646	171.86
806.825	79.7
807.004	194.39
807.184	137.04
807.363	167.76
807.543	102.23
807.722	159.57
807.901	137.04
808.081	163.67
808.26	79.7
808.439	151.38
808.619	149.33
808.798	42.84
808.977	55.12
809.156	114.52
809.336	130.9
809.515	104.28
809.694	124.76
809.873	135
810.052	106.32
810.231	120.66
810.411	108.37
810.59	169.81
810.769	94.04
810.948	161.62
811.127	110.42
811.306	73.56
811.485	94.04
811.664	135
811.843	104.28
812.022	221.01
812.201	122.71
812.38	102.23
812.559	55.12
812.737	167.76
812.916	71.51
813.095	180.05
813.274	26.45
813.453	63.32
813.632	98.13
813.811	100.18
813.989	83.8
814.168	167.76
814.347	106.32
814.526	114.52
814.704	108.37
814.883	143.19
815.062	55.12
815.24	69.46
815.419	75.6
815.598	116.56
815.776	65.36
815.955	89.94
816.133	137.04
816.312	137.04
816.49	30.55
816.669	210.77
816.847	14.17
817.026	126.8
817.204	120.66
817.383	51.03
817.561	53.08
817.74	120.66
817.918	98.13
818.097	44.88
818.275	5.97
818.453	98.13
818.632	26.45
818.81	59.22
818.988	96.08
819.167	57.17
819.345	106.32
819.523	132.95
819.701	65.36
819.879	122.71
820.058	112.47
820.236	-2.22
820.414	147.28
820.592	71.51
820.77	124.76
820.948	85.84
821.127	122.71
821.305	67.41
821.483	96.08
821.661	120.66
821.839	69.46
822.017	75.6
822.195	79.7
822.373	26.45
822.551	94.04
822.729	157.52
822.907	89.94
823.085	77.65
823.262	1.88
823.44	44.88
823.618	34.64
823.796	71.51
823.974	26.45
824.152	63.32
824.329	59.22
824.507	40.79
824.685	67.41
824.863	63.32
825.04	38.74
825.218	59.22
825.396	55.12
825.574	100.18
825.751	102.23
825.929	14.17
826.107	67.41
826.284	100.18
826.462	34.64
826.639	20.31
826.817	83.8
826.994	118.61
827.172	1.88
827.349	75.6
827.527	61.27
827.704	61.27
827.882	73.56
828.059	94.04
828.237	22.36
828.414	77.65
828.591	67.41
828.769	48.98
828.946	53.08
829.124	169.81
829.301	120.66
829.478	77.65
829.655	94.04
829.833	89.94
830.01	53.08
830.187	71.51
830.364	18.26
830.542	112.47
830.719	36.69
830.896	-8.36
831.073	102.23
831.25	69.46
831.427	59.22
831.604	96.08
831.782	24.4
831.959	-43.18
832.136	71.51
832.313	79.7
832.49	67.41
832.667	110.42
832.844	24.4
833.021	94.04
833.198	30.55
833.374	124.76
833.551	42.84
833.728	51.03
833.905	85.84
834.082	106.32
834.259	94.04
834.436	81.75
834.612	75.6
834.789	75.6
834.966	73.56
835.143	71.51
835.319	16.21
835.496	151.38
835.673	106.32
835.85	71.51
836.026	73.56
836.203	-16.55
836.38	89.94
836.556	34.64
836.733	36.69
836.909	57.17
837.086	42.84
837.262	81.75
837.439	57.17
837.616	32.6
837.792	3.93
837.968	83.8
838.145	26.45
838.321	69.46
838.498	98.13
838.674	8.02
838.851	75.6
839.027	65.36
839.203	73.56
839.38	67.41
839.556	40.79
839.732	24.4
839.909	42.84
840.085	75.6
840.261	87.89
840.437	63.32
840.614	14.17
840.79	91.99
840.966	20.31
841.142	81.75
841.318	46.93
841.494	32.6
841.671	1.88
841.847	110.42
842.023	40.79
842.199	94.04
842.375	98.13
842.551	63.32
842.727	30.55
842.903	67.41
843.079	55.12
843.255	18.26
843.431	63.32
843.607	96.08
843.783	5.97
843.959	118.61
844.134	36.69
844.31	110.42
844.486	-49.32
844.662	1.88
844.838	32.6
845.013	77.65
845.189	38.74
845.365	-2.22
845.541	24.4
845.716	-0.17
845.892	55.12
846.068	85.84
846.244	-90.28
846.419	36.69
846.595	53.08
846.77	24.4
846.946	38.74
847.122	104.28
847.297	40.79
847.473	112.47
847.648	137.04
847.824	73.56
847.999	-2.22
848.175	57.17
848.35	14.17
848.526	65.36
848.701	110.42
848.876	40.79
849.052	30.55
849.227	34.64
849.403	-4.27
849.578	42.84
849.753	63.32
849.929	40.79
850.104	-6.31
850.279	24.4
850.454	14.17
850.63	48.98
850.805	77.65
850.98	26.45
851.155	42.84
851.33	24.4
851.505	69.46
851.681	98.13
851.856	-30.89
852.031	5.97
852.206	38.74
852.381	59.22
852.556	48.98
852.731	48.98
852.906	28.5
853.081	65.36
853.256	22.36
853.431	44.88
853.606	-20.65
853.781	34.64
853.956	44.88
854.131	83.8
854.305	20.31
854.48	55.12
854.655	24.4
854.83	-6.31
855.005	55.12
855.18	-16.55
855.354	-22.7
855.529	40.79
855.704	81.75
855.879	18.26
856.053	-24.75
856.228	30.55
856.403	65.36
856.577	51.03
856.752	63.32
856.926	55.12
857.101	20.31
857.276	44.88
857.45	53.08
857.625	46.93
857.799	53.08
857.974	-6.31
858.148	-0.17
858.323	12.12
858.497	48.98
858.672	28.5
858.846	-6.31
859.02	18.26
859.195	77.65
859.369	30.55
859.543	83.8
859.718	10.07
859.892	-10.41
860.066	32.6
860.241	-8.36
860.415	40.79
860.589	63.32
860.763	48.98
860.938	42.84
861.112	51.03
861.286	53.08
861.46	30.55
861.634	14.17
861.808	-10.41
861.982	57.17
862.157	30.55
862.331	53.08
862.505	32.6
862.679	3.93
862.853	55.12
863.027	-6.31
863.201	104.28
863.375	1.88
863.549	106.32
863.722	-20.65
863.896	147.28
864.07	-20.65
864.244	20.31
864.418	67.41
864.592	32.6
864.766	-55.47
864.939	5.97
865.113	-2.22
865.287	59.22
865.461	-14.51
865.634	42.84
865.808	30.55
865.982	87.89
866.156	-57.51
866.329	24.4
866.503	46.93
866.676	-6.31
866.85	28.5
867.024	-2.22
867.197	71.51
867.371	51.03
867.544	-2.22
867.718	69.46
867.891	44.88
868.065	-16.55
868.238	67.41
868.412	18.26
868.585	8.02
868.759	-32.94
868.932	-75.95
869.105	-96.43
869.279	26.45
869.452	-22.7
869.625	18.26
869.799	-6.31
869.972	-22.7
870.145	36.69
870.319	28.5
870.492	-14.51
870.665	14.17
870.838	63.32
871.011	3.93
871.185	71.51
871.358	1.88
871.531	-14.51
871.704	-34.99
871.877	-6.31
872.05	20.31
872.223	-16.55
872.396	36.69
872.569	-22.7
872.742	34.64
872.915	-20.65
873.088	16.21
873.261	75.6
873.434	-20.65
873.607	67.41
873.78	28.5
873.953	3.93
874.126	18.26
874.299	69.46
874.471	-12.46
874.644	3.93
874.817	-14.51
874.99	-4.27
875.163	-26.79
875.335	96.08
875.508	-49.32
875.681	16.21
875.853	-16.55
876.026	38.74
876.199	18.26
876.371	34.64
876.544	1.88
876.717	44.88
876.889	16.21
877.062	59.22
877.234	14.17
877.407	1.88
877.579	38.74
877.752	85.84
877.924	44.88
878.097	22.36
878.269	-28.84
878.442	5.97
878.614	51.03
878.786	-2.22
878.959	75.6
879.131	65.36
879.303	-22.7
879.476	91.99
879.648	18.26
879.82	85.84
879.993	30.55
880.165	26.45
880.337	-51.37
880.509	79.7
880.681	44.88
880.854	-10.41
881.026	91.99
881.198	55.12
881.37	-12.46
881.542	44.88
881.714	-12.46
881.886	61.27
882.058	36.69
882.23	-22.7
882.402	18.26
882.574	-10.41
882.746	24.4
882.918	-18.6
883.09	-2.22
883.262	1.88
883.434	-10.41
883.606	34.64
883.778	24.4
883.95	55.12
884.122	8.02
884.293	61.27
884.465	34.64
884.637	22.36
884.809	38.74
884.98	44.88
885.152	-53.42
885.324	102.23
885.496	-26.79
885.667	53.08
885.839	-14.51
886.011	10.07
886.182	-28.84
886.354	10.07
886.525	-12.46
886.697	32.6
886.869	22.36
887.04	1.88
887.212	71.51
887.383	1.88
887.555	-8.36
887.726	44.88
887.897	-77.99
888.069	75.6
888.24	91.99
888.412	8.02
888.583	24.4
888.754	46.93
888.926	-37.03
889.097	63.32
889.268	18.26
889.44	55.12
889.611	-12.46
889.782	61.27
889.953	28.5
890.125	-16.55
890.296	-8.36
890.467	-59.56
890.638	1.88
890.809	-10.41
890.98	-16.55
891.151	3.93
891.323	28.5
891.494	-73.9
891.665	1.88
891.836	53.08
892.007	-61.61
892.178	24.4
892.349	22.36
892.52	-39.08
892.691	46.93
892.862	30.55
893.032	-24.75
893.203	-10.41
893.374	26.45
893.545	65.36
893.716	94.04
893.887	75.6
894.057	38.74
894.228	55.12
894.399	53.08
894.57	-45.23
894.74	-8.36
894.911	63.32
895.082	18.26
895.253	51.03
895.423	-2.22
895.594	63.32
895.764	69.46
895.935	42.84
896.106	38.74
896.276	77.65
896.447	8.02
896.617	-14.51
896.788	-41.13
896.958	10.07
897.129	14.17
897.299	-86.19
897.47	51.03
897.64	5.97
897.81	16.21
897.981	-32.94
898.151	26.45
898.322	51.03
898.492	-0.17
898.662	55.12
898.832	-10.41
899.003	14.17
899.173	44.88
899.343	-12.46
899.513	-24.75
