Data from USB4F104151__77__13-54-18-238.txt Node

Date: Thu Mar 13 13:54:18 EDT 2025
User: louis
Spectrometer: USB4F10415
Trigger mode: 4
Integration Time (sec): 1.000000E-2
Scans to average: 1
Electric dark correction enabled: true
Nonlinearity correction enabled: false
Boxcar width: 0
XAxis mode: Wavelengths
Number of Pixels in Spectrum: 3648
>>>>>Begin Spectral Data<<<<<
178.204	-37.55
178.424	-37.55
178.644	-37.55
178.864	-8.87
179.084	-144.04
179.304	56.66
179.524	-23.21
179.744	11.61
179.964	-15.02
180.184	17.75
180.404	9.56
180.624	-10.92
180.844	-29.35
181.064	54.61
181.283	9.56
181.503	-111.27
181.723	30.04
181.943	-74.41
182.163	40.28
182.383	-4.78
182.602	-49.83
182.822	36.18
183.042	3.41
183.262	-4.78
183.482	95.57
183.701	-31.4
183.921	44.37
184.141	-47.79
184.361	11.61
184.58	-4.78
184.8	62.8
185.02	17.75
185.239	-88.75
185.459	-64.17
185.679	46.42
185.898	44.37
186.118	32.08
186.338	13.65
186.557	13.65
186.777	9.56
186.997	-39.59
187.216	40.28
187.436	1.37
187.655	-8.87
187.875	-10.92
188.095	-17.07
188.314	32.08
188.534	-17.07
188.753	52.56
188.973	19.8
189.192	83.28
189.412	60.76
189.631	1.37
189.851	-27.31
190.07	97.62
190.29	-45.74
190.509	-76.46
190.729	-35.5
190.948	66.9
191.168	71
191.387	34.13
191.607	-23.21
191.826	48.47
192.045	7.51
192.265	85.33
192.484	-41.64
192.704	-88.75
192.923	-17.07
193.142	-25.26
193.362	-27.31
193.581	50.52
193.8	52.56
194.02	-8.87
194.239	87.38
194.458	-0.68
194.678	56.66
194.897	21.85
195.116	-17.07
195.335	11.61
195.555	-6.83
195.774	19.8
195.993	85.33
196.212	-19.11
196.432	-55.98
196.651	-2.73
196.87	-8.87
197.089	54.61
197.308	-12.97
197.528	48.47
197.747	-17.07
197.966	75.09
198.185	25.94
198.404	1.37
198.623	23.89
198.842	3.41
199.062	32.08
199.281	-49.83
199.5	15.7
199.719	50.52
199.938	-66.22
200.157	5.46
200.376	7.51
200.595	-8.87
200.814	21.85
201.033	36.18
201.252	40.28
201.471	-0.68
201.69	27.99
201.909	38.23
202.128	11.61
202.347	-8.87
202.566	25.94
202.785	7.51
203.004	11.61
203.223	-0.68
203.442	-21.16
203.661	73.04
203.879	30.04
204.098	9.56
204.317	-39.59
204.536	68.95
204.755	36.18
204.974	-12.97
205.193	3.41
205.411	44.37
205.63	-15.02
205.849	-33.45
206.068	-41.64
206.287	-10.92
206.505	13.65
206.724	-17.07
206.943	23.89
207.162	52.56
207.381	-64.17
207.599	1.37
207.818	-8.87
208.037	58.71
208.255	21.85
208.474	5.46
208.693	-35.5
208.911	27.99
209.13	19.8
209.349	-53.93
209.567	19.8
209.786	-21.16
210.005	32.08
210.223	-25.26
210.442	75.09
210.661	91.48
210.879	5.46
211.098	56.66
211.316	32.08
211.535	56.66
211.753	25.94
211.972	-10.92
212.191	11.61
212.409	7.51
212.628	-35.5
212.846	27.99
213.065	66.9
213.283	-43.69
213.502	-15.02
213.72	81.24
213.938	32.08
214.157	-6.83
214.375	-15.02
214.594	-19.11
214.812	34.13
215.031	-0.68
215.249	56.66
215.467	34.13
215.686	79.19
215.904	-0.68
216.122	38.23
216.341	21.85
216.559	-49.83
216.778	7.51
216.996	36.18
217.214	38.23
217.432	30.04
217.651	-6.83
217.869	-4.78
218.087	-23.21
218.306	9.56
218.524	-2.73
218.742	36.18
218.96	-0.68
219.179	46.42
219.397	19.8
219.615	5.46
219.833	-6.83
220.051	36.18
220.27	-2.73
220.488	32.08
220.706	-39.59
220.924	17.75
221.142	-12.97
221.36	36.18
221.578	36.18
221.796	-12.97
222.015	42.32
222.233	-8.87
222.451	-4.78
222.669	-29.35
222.887	9.56
223.105	36.18
223.323	-4.78
223.541	9.56
223.759	25.94
223.977	46.42
224.195	32.08
224.413	21.85
224.631	27.99
224.849	-0.68
225.067	-10.92
225.285	-27.31
225.503	27.99
225.721	-80.55
225.939	-15.02
226.157	34.13
226.375	-15.02
226.592	21.85
226.81	19.8
227.028	11.61
227.246	25.94
227.464	32.08
227.682	23.89
227.9	52.56
228.117	-23.21
228.335	-0.68
228.553	25.94
228.771	52.56
228.989	38.23
229.206	23.89
229.424	-15.02
229.642	-49.83
229.86	-60.07
230.077	34.13
230.295	42.32
230.513	54.61
230.731	77.14
230.948	60.76
231.166	13.65
231.384	-25.26
231.601	19.8
231.819	128.34
232.037	-4.78
232.254	15.7
232.472	38.23
232.689	-10.92
232.907	79.19
233.125	15.7
233.342	3.41
233.56	-6.83
233.777	-17.07
233.995	38.23
234.213	42.32
234.43	23.89
234.648	-41.64
234.865	-90.79
235.083	48.47
235.3	83.28
235.518	73.04
235.735	-19.11
235.953	85.33
236.17	83.28
236.388	9.56
236.605	64.85
236.822	17.75
237.04	46.42
237.257	52.56
237.475	-12.97
237.692	66.9
237.909	34.13
238.127	-35.5
238.344	-68.27
238.562	-8.87
238.779	-51.88
238.996	-8.87
239.214	38.23
239.431	68.95
239.648	44.37
239.865	7.51
240.083	52.56
240.3	11.61
240.517	89.43
240.735	23.89
240.952	-0.68
241.169	105.81
241.386	-6.83
241.603	48.47
241.821	1.37
242.038	27.99
242.255	-17.07
242.472	-6.83
242.689	27.99
242.907	-12.97
243.124	75.09
243.341	11.61
243.558	7.51
243.775	27.99
243.992	62.8
244.209	66.9
244.426	-15.02
244.643	-35.5
244.86	32.08
245.078	19.8
245.295	17.75
245.512	-29.35
245.729	-39.59
245.946	48.47
246.163	52.56
246.38	44.37
246.597	9.56
246.814	34.13
247.031	-39.59
247.248	-8.87
247.464	58.71
247.681	-55.98
247.898	48.47
248.115	154.96
248.332	101.72
248.549	-29.35
248.766	-27.31
248.983	71
249.2	-12.97
249.417	-27.31
249.633	-17.07
249.85	56.66
250.067	-64.17
250.284	7.51
250.501	7.51
250.717	42.32
250.934	-58.03
251.151	3.41
251.368	-37.55
251.585	32.08
251.801	-0.68
252.018	79.19
252.235	23.89
252.451	1.37
252.668	-17.07
252.885	23.89
253.102	91.48
253.318	34.13
253.535	15.7
253.752	-19.11
253.968	1.37
254.185	-31.4
254.401	34.13
254.618	25.94
254.835	-47.79
255.051	64.85
255.268	-21.16
255.484	-15.02
255.701	-4.78
255.917	95.57
256.134	-2.73
256.351	17.75
256.567	7.51
256.784	36.18
257	3.41
257.217	21.85
257.433	5.46
257.65	91.48
257.866	-51.88
258.082	44.37
258.299	36.18
258.515	44.37
258.732	-0.68
258.948	32.08
259.165	-47.79
259.381	-0.68
259.597	40.28
259.814	54.61
260.03	44.37
260.246	38.23
260.463	44.37
260.679	17.75
260.895	-8.87
261.112	9.56
261.328	-15.02
261.544	64.85
261.761	1.37
261.977	-6.83
262.193	-10.92
262.409	23.89
262.626	11.61
262.842	83.28
263.058	-2.73
263.274	-4.78
263.49	-15.02
263.707	-2.73
263.923	58.71
264.139	1.37
264.355	7.51
264.571	-31.4
264.787	-21.16
265.004	77.14
265.22	75.09
265.436	-15.02
265.652	-19.11
265.868	116.05
266.084	-6.83
266.3	27.99
266.516	19.8
266.732	23.89
266.948	-58.03
267.164	-41.64
267.38	7.51
267.596	-37.55
267.812	-37.55
268.028	50.52
268.244	-4.78
268.46	-6.83
268.676	-12.97
268.892	-15.02
269.108	-27.31
269.324	3.41
269.54	44.37
269.756	15.7
269.972	-12.97
270.188	-19.11
270.403	-0.68
270.619	-10.92
270.835	46.42
271.051	-27.31
271.267	40.28
271.483	-2.73
271.698	-17.07
271.914	-10.92
272.13	-8.87
272.346	17.75
272.562	-21.16
272.777	7.51
272.993	-121.51
273.209	-27.31
273.425	-33.45
273.64	-88.75
273.856	-19.11
274.072	56.66
274.287	44.37
274.503	19.8
274.719	27.99
274.934	27.99
275.15	32.08
275.366	-2.73
275.581	48.47
275.797	3.41
276.012	30.04
276.228	42.32
276.444	1.37
276.659	46.42
276.875	17.75
277.09	-25.26
277.306	-19.11
277.521	75.09
277.737	3.41
277.952	48.47
278.168	25.94
278.383	30.04
278.599	21.85
278.814	-37.55
279.03	40.28
279.245	-49.83
279.461	64.85
279.676	25.94
279.892	-45.74
280.107	52.56
280.322	-58.03
280.538	66.9
280.753	-19.11
280.969	9.56
281.184	-51.88
281.399	62.8
281.615	48.47
281.83	25.94
282.045	99.67
282.26	-10.92
282.476	17.75
282.691	21.85
282.906	-12.97
283.122	77.14
283.337	87.38
283.552	15.7
283.767	40.28
283.983	-12.97
284.198	-15.02
284.413	66.9
284.628	-39.59
284.843	-6.83
285.058	85.33
285.274	27.99
285.489	-17.07
285.704	3.41
285.919	-17.07
286.134	-51.88
286.349	-29.35
286.564	46.42
286.779	83.28
286.995	48.47
287.21	-68.27
287.425	-29.35
287.64	-2.73
287.855	-29.35
288.07	60.76
288.285	34.13
288.5	-39.59
288.715	62.8
288.93	19.8
289.145	75.09
289.36	77.14
289.575	-17.07
289.79	-4.78
290.004	13.65
290.219	79.19
290.434	-31.4
290.649	60.76
290.864	-6.83
291.079	30.04
291.294	21.85
291.509	-19.11
291.724	-92.84
291.938	-6.83
292.153	11.61
292.368	66.9
292.583	62.8
292.798	-2.73
293.012	50.52
293.227	30.04
293.442	9.56
293.657	34.13
293.871	58.71
294.086	5.46
294.301	13.65
294.516	58.71
294.73	-0.68
294.945	25.94
295.16	34.13
295.374	21.85
295.589	-35.5
295.804	7.51
296.018	13.65
296.233	19.8
296.447	48.47
296.662	75.09
296.877	36.18
297.091	27.99
297.306	3.41
297.52	48.47
297.735	21.85
297.949	38.23
298.164	5.46
298.378	7.51
298.593	7.51
298.807	3.41
299.022	81.24
299.236	48.47
299.451	36.18
299.665	-10.92
299.88	-6.83
300.094	15.7
300.309	42.32
300.523	7.51
300.737	52.56
300.952	-33.45
301.166	23.89
301.381	17.75
301.595	40.28
301.809	44.37
302.024	21.85
302.238	21.85
302.452	5.46
302.667	44.37
302.881	66.9
303.095	19.8
303.309	-8.87
303.524	-62.12
303.738	32.08
303.952	13.65
304.166	122.2
304.381	-8.87
304.595	54.61
304.809	42.32
305.023	99.67
305.237	54.61
305.452	38.23
305.666	27.99
305.88	87.38
306.094	-35.5
306.308	56.66
306.522	5.46
306.736	52.56
306.95	-12.97
307.164	34.13
307.379	-86.7
307.593	34.13
307.807	40.28
308.021	-37.55
308.235	-31.4
308.449	46.42
308.663	15.7
308.877	-23.21
309.091	-23.21
309.305	79.19
309.519	-103.08
309.733	-0.68
309.947	-43.69
310.161	44.37
310.374	-2.73
310.588	-37.55
310.802	1.37
311.016	-6.83
311.23	25.94
311.444	7.51
311.658	11.61
311.872	46.42
312.085	5.46
312.299	19.8
312.513	15.7
312.727	58.71
312.941	-6.83
313.154	-17.07
313.368	-0.68
313.582	-60.07
313.796	66.9
314.009	17.75
314.223	40.28
314.437	52.56
314.651	15.7
314.864	21.85
315.078	40.28
315.292	30.04
315.505	-31.4
315.719	81.24
315.933	97.62
316.146	5.46
316.36	-70.31
316.573	9.56
316.787	36.18
317.001	81.24
317.214	15.7
317.428	-39.59
317.641	36.18
317.855	-10.92
318.068	-47.79
318.282	-58.03
318.495	-4.78
318.709	77.14
318.922	15.7
319.136	68.95
319.349	19.8
319.563	7.51
319.776	73.04
319.99	-90.79
320.203	46.42
320.417	-41.64
320.63	3.41
320.843	56.66
321.057	13.65
321.27	-27.31
321.483	9.56
321.697	95.57
321.91	19.8
322.124	44.37
322.337	62.8
322.55	-0.68
322.763	-12.97
322.977	-10.92
323.19	-6.83
323.403	36.18
323.617	25.94
323.83	50.52
324.043	3.41
324.256	54.61
324.469	42.32
324.683	48.47
324.896	79.19
325.109	50.52
325.322	-37.55
325.535	114
325.748	-29.35
325.962	101.72
326.175	9.56
326.388	114
326.601	-49.83
326.814	42.32
327.027	62.8
327.24	40.28
327.453	-47.79
327.666	25.94
327.879	-6.83
328.092	75.09
328.305	-6.83
328.518	42.32
328.731	-6.83
328.944	-19.11
329.157	32.08
329.37	-15.02
329.583	54.61
329.796	-35.5
330.009	38.23
330.222	-6.83
330.435	60.76
330.648	75.09
330.861	23.89
331.073	56.66
331.286	50.52
331.499	58.71
331.712	46.42
331.925	17.75
332.138	-35.5
332.35	5.46
332.563	30.04
332.776	1.37
332.989	17.75
333.202	30.04
333.414	44.37
333.627	91.48
333.84	7.51
334.053	71
334.265	21.85
334.478	42.32
334.691	3.41
334.903	40.28
335.116	-58.03
335.329	73.04
335.541	97.62
335.754	54.61
335.966	15.7
336.179	-31.4
336.392	15.7
336.604	58.71
336.817	85.33
337.029	56.66
337.242	27.99
337.454	-27.31
337.667	25.94
337.88	71
338.092	27.99
338.305	-33.45
338.517	-15.02
338.729	56.66
338.942	62.8
339.154	-23.21
339.367	-37.55
339.579	66.9
339.792	-19.11
340.004	62.8
340.217	23.89
340.429	15.7
340.641	64.85
340.854	27.99
341.066	11.61
341.278	-0.68
341.491	66.9
341.703	97.62
341.915	38.23
342.128	36.18
342.34	25.94
342.552	-58.03
342.764	60.76
342.977	3.41
343.189	38.23
343.401	19.8
343.613	42.32
343.826	122.2
344.038	3.41
344.25	64.85
344.462	3.41
344.674	27.99
344.886	75.09
345.099	83.28
345.311	54.61
345.523	19.8
345.735	13.65
345.947	68.95
346.159	30.04
346.371	15.7
346.583	-25.26
346.795	75.09
347.007	-2.73
347.219	40.28
347.431	-29.35
347.643	73.04
347.855	85.33
348.067	-8.87
348.279	-23.21
348.491	-17.07
348.703	64.85
348.915	-62.12
349.127	-4.78
349.339	54.61
349.551	38.23
349.763	83.28
349.975	34.13
350.187	-66.22
350.399	58.71
350.61	-17.07
350.822	-23.21
351.034	42.32
351.246	23.89
351.458	75.09
351.669	-37.55
351.881	32.08
352.093	-21.16
352.305	17.75
352.517	52.56
352.728	25.94
352.94	-43.69
353.152	68.95
353.363	5.46
353.575	60.76
353.787	-6.83
353.999	15.7
354.21	13.65
354.422	40.28
354.633	11.61
354.845	77.14
355.057	48.47
355.268	107.86
355.48	62.8
355.692	-17.07
355.903	-15.02
356.115	-19.11
356.326	-23.21
356.538	54.61
356.749	-45.74
356.961	-4.78
357.172	21.85
357.384	34.13
357.595	23.89
357.807	54.61
358.018	60.76
358.23	105.81
358.441	27.99
358.653	15.7
358.864	15.7
359.075	36.18
359.287	-27.31
359.498	58.71
359.709	46.42
359.921	19.8
360.132	-4.78
360.344	-6.83
360.555	42.32
360.766	54.61
360.977	-10.92
361.189	-2.73
361.4	19.8
361.611	97.62
361.823	5.46
362.034	-12.97
362.245	75.09
362.456	-12.97
362.667	17.75
362.879	9.56
363.09	66.9
363.301	44.37
363.512	103.76
363.723	19.8
363.935	-72.36
364.146	54.61
364.357	25.94
364.568	-21.16
364.779	44.37
364.99	48.47
365.201	9.56
365.412	-21.16
365.623	-25.26
365.834	81.24
366.045	25.94
366.256	15.7
366.467	48.47
366.678	-27.31
366.889	27.99
367.1	60.76
367.311	5.46
367.522	17.75
367.733	19.8
367.944	68.95
368.155	25.94
368.366	66.9
368.577	23.89
368.788	23.89
368.999	21.85
369.209	15.7
369.42	36.18
369.631	60.76
369.842	34.13
370.053	44.37
370.264	5.46
370.474	34.13
370.685	-31.4
370.896	27.99
371.107	46.42
371.317	60.76
371.528	73.04
371.739	42.32
371.95	-12.97
372.16	81.24
372.371	40.28
372.582	17.75
372.792	1.37
373.003	87.38
373.214	1.37
373.424	9.56
373.635	21.85
373.846	48.47
374.056	34.13
374.267	48.47
374.477	9.56
374.688	-15.02
374.898	-39.59
375.109	64.85
375.319	77.14
375.53	77.14
375.74	42.32
375.951	-6.83
376.161	48.47
376.372	85.33
376.582	52.56
376.793	30.04
377.003	9.56
377.214	58.71
377.424	17.75
377.635	-0.68
377.845	-35.5
378.055	64.85
378.266	-12.97
378.476	34.13
378.686	42.32
378.897	5.46
379.107	60.76
379.317	71
379.528	93.52
379.738	9.56
379.948	-6.83
380.158	68.95
380.369	75.09
380.579	-0.68
380.789	-17.07
380.999	38.23
381.21	120.15
381.42	52.56
381.63	19.8
381.84	54.61
382.05	42.32
382.261	-6.83
382.471	-19.11
382.681	40.28
382.891	11.61
383.101	38.23
383.311	38.23
383.521	38.23
383.731	-21.16
383.941	71
384.151	-23.21
384.361	40.28
384.571	23.89
384.781	-29.35
384.991	-4.78
385.201	89.43
385.411	48.47
385.621	54.61
385.831	9.56
386.041	36.18
386.251	-17.07
386.461	19.8
386.671	56.66
386.881	58.71
387.091	-2.73
387.301	44.37
387.511	-29.35
387.72	77.14
387.93	7.51
388.14	73.04
388.35	46.42
388.56	40.28
388.769	36.18
388.979	38.23
389.189	56.66
389.399	-25.26
389.609	99.67
389.818	-27.31
390.028	27.99
390.238	-6.83
390.447	7.51
390.657	68.95
390.867	52.56
391.076	21.85
391.286	150.87
391.496	30.04
391.705	-4.78
391.915	85.33
392.125	85.33
392.334	75.09
392.544	52.56
392.753	81.24
392.963	1.37
393.172	75.09
393.382	19.8
393.591	89.43
393.801	42.32
394.01	48.47
394.22	17.75
394.429	97.62
394.639	68.95
394.848	99.67
395.058	62.8
395.267	40.28
395.477	85.33
395.686	77.14
395.895	71
396.105	85.33
396.314	75.09
396.524	48.47
396.733	85.33
396.942	60.76
397.152	-6.83
397.361	9.56
397.57	58.71
397.78	87.38
397.989	3.41
398.198	122.2
398.407	9.56
398.617	58.71
398.826	77.14
399.035	23.89
399.244	87.38
399.453	25.94
399.663	66.9
399.872	17.75
400.081	79.19
400.29	48.47
400.499	1.37
400.708	52.56
400.917	38.23
401.127	101.72
401.336	87.38
401.545	120.15
401.754	17.75
401.963	52.56
402.172	-2.73
402.381	87.38
402.59	34.13
402.799	71
403.008	142.68
403.217	105.81
403.426	40.28
403.635	36.18
403.844	58.71
404.053	81.24
404.262	79.19
404.471	159.06
404.68	23.89
404.888	134.48
405.097	56.66
405.306	122.2
405.515	116.05
405.724	132.44
405.933	132.44
406.142	134.48
406.35	157.01
406.559	130.39
406.768	150.87
406.977	171.35
407.185	103.76
407.394	64.85
407.603	124.24
407.812	140.63
408.02	132.44
408.229	105.81
408.438	161.11
408.646	75.09
408.855	163.15
409.064	107.86
409.272	150.87
409.481	216.4
409.69	150.87
409.898	171.35
410.107	159.06
410.315	200.02
410.524	130.39
410.733	249.17
410.941	230.74
411.15	216.4
411.358	283.99
411.567	222.55
411.775	273.75
411.984	294.22
412.192	251.22
412.401	255.31
412.609	333.14
412.818	339.28
413.026	329.04
413.234	329.04
413.443	329.04
413.651	374.1
413.86	314.7
414.068	417.1
414.276	288.08
414.485	402.77
414.693	380.24
414.901	361.81
415.11	468.3
415.318	355.66
415.526	447.82
415.734	439.63
415.943	476.49
416.151	548.17
416.359	458.06
416.567	472.4
416.776	492.88
416.984	621.9
417.192	546.12
417.4	527.69
417.608	609.61
417.817	628.04
418.025	648.52
418.233	578.89
418.441	681.29
418.649	738.63
418.857	712.01
419.065	724.3
419.273	697.67
419.481	847.18
419.689	841.03
419.897	873.8
420.105	869.7
420.313	859.46
420.521	972.1
420.729	974.15
420.937	1037.64
421.145	1103.17
421.353	1054.02
421.561	1137.99
421.769	1281.35
421.977	1211.71
422.185	1238.34
422.393	1283.39
422.601	1256.77
422.809	1346.88
423.017	1430.85
423.224	1420.61
423.432	1457.47
423.64	1469.76
423.848	1635.64
424.056	1531.2
424.263	1697.08
424.471	1621.31
424.679	1674.56
424.887	1838.39
425.094	1883.45
425.302	1924.41
425.51	2014.52
425.718	1969.46
425.925	2053.43
426.133	1998.13
426.341	2143.54
426.548	2334
426.756	2344.24
426.964	2401.58
427.171	2413.87
427.379	2411.82
427.586	2587.95
427.794	2624.81
428.001	2843.95
428.209	2936.1
428.417	2788.65
428.624	3167.52
428.832	3073.32
429.039	3112.23
429.247	3147.05
429.454	3394.85
429.662	3482.91
429.869	3448.1
430.076	3527.97
430.284	3450.14
430.491	3493.15
430.699	3845.4
430.906	3857.69
431.114	3882.27
431.321	4007.19
431.528	4121.88
431.736	4302.1
431.943	4488.46
432.15	4381.97
432.358	4605.2
432.565	4631.82
432.772	4713.74
432.979	4928.78
433.187	5121.29
433.394	5088.52
433.601	5397.76
433.808	5448.96
434.016	5281.03
434.223	5569.79
434.43	5981.43
434.637	5754.11
434.844	6163.7
435.052	6206.71
435.259	6233.33
435.466	6474.99
435.673	6247.67
435.88	6755.57
436.087	6950.12
436.294	7011.56
436.501	6888.68
436.708	7169.26
436.915	7185.64
437.122	7628
437.329	7322.85
437.537	7595.23
437.743	8037.59
437.95	7879.9
438.157	8275.16
438.364	8551.63
438.571	8545.49
438.778	8531.16
438.985	9442.5
439.192	9104.59
439.399	9286.86
439.606	9204.94
439.813	9514.18
440.02	10040.51
440.227	9919.68
440.433	9993.4
440.64	10192.06
440.847	10196.15
441.054	10263.74
441.261	11066.54
441.467	10912.94
441.674	11230.38
441.881	11564.2
442.088	11623.59
442.294	11685.03
442.501	11775.14
442.708	11994.27
442.914	12389.53
443.121	12909.71
443.328	12584.09
443.534	13778.05
443.741	13096.08
443.948	12954.77
444.154	13874.31
444.361	13825.15
444.568	14165.12
444.774	13968.51
444.981	14218.36
445.187	14457.98
445.394	15303.79
445.6	14955.63
445.807	16366.68
446.013	15699.05
446.22	15899.75
446.426	16364.64
446.633	16530.52
446.839	17198.16
447.046	16573.53
447.252	17167.44
447.459	17433.68
447.665	17425.48
447.871	18039.87
448.078	18869.3
448.284	17894.47
448.491	18441.28
448.697	19192.88
448.903	19416.11
449.11	19616.81
449.316	19299.37
449.522	19711.02
449.728	20235.3
449.935	20030.5
450.141	20130.85
450.347	20685.85
450.553	20147.23
450.76	20161.57
450.966	20765.72
451.172	20567.07
451.378	21085.2
451.584	20696.09
451.791	21244.95
451.997	21132.31
452.203	21404.69
452.409	21652.49
452.615	21197.84
452.821	20272.16
453.027	19977.25
453.233	21322.77
453.44	20227.1
453.646	20978.71
453.852	20530.2
454.058	21025.81
454.264	20425.76
454.47	20888.6
454.676	20069.41
454.882	20868.12
455.088	19029.04
455.294	19338.29
455.5	19766.31
455.705	19569.71
455.911	18859.06
456.117	18533.43
456.323	18494.52
456.529	17357.9
456.735	18271.29
456.941	17701.96
457.147	17245.26
457.352	16663.64
457.558	16567.38
457.764	16536.66
457.97	16245.85
458.176	15774.82
458.381	16006.24
458.587	15244.4
458.793	15185.01
458.999	14367.87
459.204	15451.24
459.41	14922.87
459.616	13974.66
459.821	13911.17
460.027	13902.98
460.233	13655.17
460.438	13214.86
460.644	13292.68
460.85	12526.74
461.055	12258.46
461.261	12438.68
461.466	11586.72
461.672	11205.8
461.878	12006.56
462.083	11240.62
462.289	10925.23
462.494	10665.14
462.7	10273.98
462.905	10095.8
463.111	10400.95
463.316	10511.54
463.522	10319.03
463.727	10155.19
463.932	10222.78
464.138	10048.7
464.343	10104
464.549	9782.46
464.754	10179.77
464.959	9995.45
465.165	10132.67
465.37	9632.96
465.575	9293
465.781	9718.98
465.986	9960.64
466.191	9196.74
466.397	9274.57
466.602	8729.81
466.807	9247.94
467.012	9350.34
467.218	9184.46
467.423	9108.68
467.628	9032.91
467.833	9606.34
468.038	9135.31
468.244	8934.6
468.449	9194.7
468.654	8950.99
468.859	8963.28
469.064	8852.69
469.269	8484.05
469.474	8512.72
469.679	8746.19
469.885	8549.59
470.09	8416.47
470.295	8447.19
470.5	8449.24
470.705	8346.84
470.91	8187.1
471.115	7967.96
471.32	8256.73
471.525	8119.51
471.73	7931.1
471.935	7746.78
472.139	7591.14
472.344	7744.74
472.549	7736.54
472.754	7597.28
472.959	7388.39
473.164	7122.15
473.369	7236.84
473.574	7546.08
473.778	7310.57
473.983	7251.17
474.188	7220.46
474.393	6950.12
474.598	6929.64
474.802	6917.36
475.007	6755.57
475.212	6976.75
475.417	6589.68
475.621	6589.68
475.826	6679.79
476.031	6407.41
476.235	6180.09
476.44	6483.19
476.645	6350.07
476.849	6272.25
477.054	6157.56
477.259	6128.89
477.463	6280.44
477.668	6034.68
477.872	6049.02
478.077	5887.23
478.282	5872.89
478.486	5848.32
478.691	5879.04
478.895	5754.11
479.1	5881.08
479.304	5668.09
479.509	5522.69
479.713	5639.42
479.918	5768.45
480.122	5485.83
480.326	5545.22
480.531	5522.69
480.735	5498.11
480.94	5629.18
481.144	5627.14
481.348	5352.71
481.553	5260.55
481.757	5408
481.961	5655.81
482.166	5504.26
482.37	5500.16
482.574	5123.34
482.778	5174.53
482.983	5526.78
483.187	5348.61
483.391	5438.72
483.595	5365
483.8	5311.75
484.004	5244.17
484.208	5424.39
484.412	5412.1
484.616	5293.32
484.821	5418.24
485.025	5338.37
485.229	5283.08
485.433	5303.56
485.637	5373.19
485.841	5278.98
486.045	5170.44
486.249	5309.7
486.453	5203.21
486.657	5340.42
486.861	5395.72
487.065	5223.69
487.269	5434.63
487.473	5352.71
487.677	5393.67
487.881	5195.01
488.085	5289.22
488.289	5377.28
488.493	5278.98
488.697	5389.57
488.901	5401.86
489.105	5401.86
489.309	5403.91
489.512	5428.48
489.716	5438.72
489.92	5266.69
490.124	5430.53
490.328	5510.4
490.531	5428.48
490.735	5547.26
490.939	5477.63
491.143	5516.55
491.346	5555.46
491.55	5547.26
491.754	5577.98
491.958	5598.46
492.161	5543.17
492.365	5524.74
492.569	5518.59
492.772	5571.84
492.976	5770.49
493.18	5559.55
493.383	5811.45
493.587	5864.7
493.79	6100.22
493.994	5592.32
494.197	5917.95
494.401	5932.28
494.605	5989.63
494.808	6114.55
495.012	6192.37
495.215	6249.72
495.419	6046.97
495.622	6180.09
495.825	6401.27
496.029	6223.09
496.232	6259.96
496.436	6378.74
496.639	6640.88
496.843	6546.67
497.046	6761.71
497.249	6728.94
497.453	6788.33
497.656	6821.1
497.859	6810.86
498.063	6960.36
498.266	6976.75
498.469	7140.58
498.673	7181.54
498.876	7232.74
499.079	7306.47
499.282	7206.12
499.485	7423.2
499.689	7572.71
499.892	7666.91
500.095	7644.38
500.298	7699.68
500.501	7703.78
500.705	7822.56
500.908	8096.99
501.111	8129.75
501.314	8217.82
501.517	8297.69
501.72	8465.62
501.923	8471.76
502.126	8604.88
502.329	8568.02
502.532	8914.13
502.735	8883.41
502.938	9000.14
503.141	9139.4
503.344	9145.55
503.547	9399.49
503.75	9354.44
503.953	9530.56
504.156	9745.6
504.359	9696.45
504.562	9788.61
504.765	10108.09
504.968	10040.51
505.17	10357.94
505.373	10468.53
505.576	10470.58
505.779	10624.18
505.982	10685.62
506.185	10765.49
506.387	10933.42
506.59	11005.1
506.793	11392.17
506.996	11216.04
507.198	11615.4
507.401	11437.22
507.604	11617.44
507.807	11807.91
508.009	11838.62
508.212	12117.15
508.415	12375.19
508.617	12313.75
508.82	12444.82
509.022	12471.45
509.225	12700.82
509.428	12868.75
509.63	13147.28
509.833	13110.41
510.035	13456.52
510.238	13530.25
510.44	13548.68
510.643	13642.89
510.845	13796.48
511.048	13868.16
511.25	13995.14
511.453	14306.43
511.655	14769.27
511.858	14488.7
512.06	14746.74
512.262	14933.11
512.465	14863.47
512.667	15365.23
512.87	15330.41
513.072	15610.98
513.274	15721.57
513.477	16104.54
513.679	16198.75
513.881	16317.53
514.084	16411.74
514.286	16729.17
514.488	16702.55
514.69	17482.83
514.893	17265.74
515.095	17255.5
515.297	17577.03
515.499	17605.7
515.701	17988.67
515.904	18248.77
516.106	18193.47
516.308	18199.62
516.51	18701.37
516.712	18510.91
516.914	19192.88
517.116	19434.54
517.318	19657.77
517.52	19442.73
517.722	19569.71
517.925	19770.41
518.127	20055.08
518.329	20362.27
518.531	20192.29
518.733	20532.25
518.935	21034
519.136	20993.04
519.338	21173.27
519.54	21425.17
519.742	21627.92
519.944	21634.06
520.146	22045.7
520.348	21865.48
520.55	22277.12
520.752	22305.79
520.954	22858.74
521.155	22598.65
521.357	23104.5
521.559	23235.57
521.761	23477.23
521.963	23962.6
522.164	23964.65
522.366	23792.62
522.568	24136.68
522.77	24210.4
522.971	24642.53
523.173	24744.92
523.375	24773.6
523.576	24869.85
523.778	24902.62
523.98	25492.43
524.181	25164.76
524.383	25781.2
524.584	25877.45
524.786	25945.03
524.988	25861.07
525.189	26241.99
525.391	26518.46
525.592	26713.02
525.794	26299.33
525.995	26864.57
526.197	27046.84
526.398	27026.36
526.6	27210.68
526.801	27016.12
527.003	27575.22
527.204	27483.06
527.406	27401.14
527.607	27481.01
527.808	27990.95
528.01	27491.25
528.211	27769.77
528.412	28214.18
528.614	28122.02
528.815	28228.52
529.016	28396.45
529.218	28179.37
529.419	28199.85
529.62	28263.33
529.822	28205.99
530.023	28496.8
530.224	28707.74
530.425	28525.47
530.626	28519.33
530.828	28584.87
531.029	29100.95
531.23	28980.12
531.431	28810.14
531.632	28742.56
531.833	29162.39
532.035	28885.92
532.236	28926.88
532.437	29158.3
532.638	28978.08
532.839	29371.29
533.04	29064.09
533.241	29006.75
533.442	29483.92
533.643	29209.5
533.844	29252.5
534.045	29326.23
534.246	28918.68
534.447	29866.89
534.648	29209.5
534.849	29592.47
535.05	29103
535.251	29574.03
535.451	29229.98
535.652	29754.26
535.853	29866.89
536.054	29778.83
536.255	29733.78
536.456	29326.23
536.657	29985.68
536.857	29614.99
537.058	29602.71
537.259	29784.97
537.46	29346.71
537.66	29553.55
537.861	29813.65
538.062	29526.93
538.263	29725.58
538.463	29533.07
538.664	29342.61
538.865	29703.06
539.065	30090.12
539.266	29512.59
539.466	30012.3
539.667	29746.06
539.868	30088.07
540.068	29445.01
540.269	29723.54
540.469	30002.06
540.67	29582.23
540.87	29461.4
541.071	29389.72
541.271	29971.34
541.472	29774.73
541.672	29748.11
541.873	29420.44
542.073	29322.13
542.274	29641.62
542.474	29752.21
542.675	29352.85
542.875	29870.99
543.075	29834.13
543.276	29146.01
543.476	29770.64
543.676	29457.3
543.877	29817.74
544.077	29500.31
544.277	29469.59
544.478	29301.65
544.678	29875.09
544.878	29752.21
545.078	29531.03
545.279	29264.79
545.479	29369.24
545.679	29248.41
545.879	29680.53
546.079	29526.93
546.28	29731.73
546.48	29234.07
546.68	29490.07
546.88	29883.28
547.08	29608.85
547.28	29600.66
547.48	29354.9
547.68	29528.98
547.88	29817.74
548.081	29903.76
548.281	29412.24
548.481	29557.65
548.681	29911.95
548.881	29602.71
549.081	29639.57
549.28	29588.37
549.48	29604.75
549.68	29207.45
549.88	30139.27
550.08	29606.8
550.28	29543.31
550.48	29479.83
550.68	29705.1
550.88	29311.89
551.08	29553.55
551.279	29711.25
551.479	28820.38
551.679	29520.79
551.879	29285.27
552.079	29494.16
552.278	29713.3
552.478	29328.28
552.678	29166.49
552.878	29485.97
553.077	29211.54
553.277	28937.12
553.477	29610.9
553.676	29363.09
553.876	29485.97
554.076	29359
554.275	29346.71
554.475	28527.52
554.674	29154.2
554.874	29143.96
555.074	29045.66
555.273	28941.21
555.473	29262.74
555.672	28865.44
555.872	29172.63
556.071	29109.15
556.271	29221.78
556.47	29055.9
556.67	28748.7
556.869	28720.03
557.068	28904.35
557.268	28629.92
557.467	29127.58
557.667	28447.65
557.866	28615.58
558.065	28689.31
558.265	28787.61
558.464	28728.22
558.663	28767.13
558.863	28337.06
559.062	28613.54
559.261	28380.07
559.461	28732.32
559.66	28298.15
559.859	28625.82
560.058	28332.96
560.258	28525.47
560.457	28253.09
560.656	28617.63
560.855	28261.29
561.054	28326.82
561.253	27771.82
561.453	28119.98
561.652	28087.21
561.851	28173.22
562.05	28150.7
562.249	27839.4
562.448	27970.47
562.647	27892.65
562.846	27847.6
563.045	27978.67
563.244	27630.51
563.443	28138.41
563.642	27356.08
563.841	27583.41
564.04	27558.83
564.239	27720.62
564.438	27333.56
564.637	27585.46
564.836	27532.21
565.035	27450.29
565.234	27577.26
565.432	27063.22
565.631	27413.43
565.83	26942.39
566.029	27194.29
566.228	27292.6
566.427	26993.59
566.625	26807.23
566.824	26555.33
567.023	26735.55
567.222	26737.6
567.42	26526.66
567.619	26600.38
567.818	26319.81
568.016	26588.1
568.215	26883
568.414	26557.38
568.612	26538.94
568.811	26172.36
569.01	26182.6
569.208	26100.68
569.407	26328
569.605	26024.9
569.804	25721.8
570.002	26063.82
570.201	25992.14
570.4	25332.69
570.598	25392.08
570.797	25555.92
570.995	25734.09
571.193	25197.52
571.392	25318.35
571.59	25574.35
571.789	25340.88
571.987	25449.42
572.186	25183.19
572.384	25134.04
572.582	25238.48
572.781	25482.19
572.979	24718.3
573.177	24933.34
573.376	25023.45
573.574	24986.58
573.772	24941.53
573.971	24992.73
574.169	24314.85
574.367	24353.76
574.565	24687.58
574.763	24282.08
574.962	24271.84
575.16	24065
575.358	24386.53
575.556	23968.74
575.754	24271.84
575.952	23811.05
576.151	23872.49
576.349	23600.11
576.547	23747.56
576.745	23686.12
576.943	23567.34
577.141	23395.31
577.339	23479.28
577.537	23626.73
577.735	23245.81
577.933	23022.58
578.131	23497.71
578.329	23249.91
578.527	23053.3
578.725	22852.6
578.923	23124.98
579.121	22666.24
579.319	22885.37
579.516	22957.05
579.714	22934.52
579.912	22572.03
580.11	22932.47
580.308	22678.52
580.506	22488.06
580.704	22301.7
580.901	22461.44
581.099	22664.19
581.297	22203.39
581.495	22377.47
581.692	22105.09
581.89	21982.21
582.088	22434.81
582.285	22240.26
582.483	21918.73
582.681	21826.57
582.878	21718.03
583.076	21625.87
583.274	21795.85
583.471	21605.39
583.669	21582.86
583.866	21396.49
584.064	21400.59
584.262	20976.66
584.459	21625.87
584.657	21109.78
584.854	21214.23
585.052	20968.47
585.249	21232.66
585.447	21015.57
585.644	20702.23
585.841	21027.86
586.039	20907.03
586.236	20655.13
586.434	20694.04
586.631	20327.46
586.828	20493.34
587.026	20517.92
587.223	20325.41
587.42	20180
587.618	20335.65
587.815	19901.48
588.012	20020.26
588.21	19932.2
588.407	20104.23
588.604	20014.12
588.801	19979.3
588.999	19913.77
589.196	19827.75
589.393	20024.36
589.59	19799.08
589.787	19659.82
589.984	19532.84
590.182	19555.37
590.379	19448.88
590.576	19430.44
590.773	19672.11
590.97	19422.25
591.167	19567.66
591.364	19055.67
591.561	19090.48
591.758	18760.76
591.955	18902.07
592.152	19174.45
592.349	18926.64
592.546	18826.29
592.743	19008.56
592.94	18478.14
593.137	18832.44
593.334	18869.3
593.531	18582.59
593.727	18879.54
593.924	18486.33
594.121	18009.15
594.318	18463.8
594.515	18279.49
594.712	18168.9
594.908	18168.9
595.105	18414.65
595.302	18261.05
595.499	18242.62
595.696	18254.91
595.892	17982.53
596.089	17894.47
596.286	17966.15
596.482	17777.73
596.679	17673.29
596.876	17994.82
597.072	17749.06
597.269	17732.68
597.466	17704.01
597.662	17540.17
597.859	17574.99
598.055	17699.91
598.252	17413.2
598.448	17054.8
598.645	17345.61
598.841	17339.47
599.038	17224.78
599.234	17235.02
599.431	16942.16
599.627	17128.53
599.824	17316.94
600.02	16874.58
600.217	16850
600.413	16901.2
600.609	16700.5
600.806	16718.93
601.002	16798.8
601.198	16460.89
601.395	16766.04
601.591	16512.09
601.787	16307.29
601.984	16389.21
602.18	16483.42
602.376	16065.63
602.572	16495.71
602.769	16393.31
602.965	16059.49
603.161	16202.85
603.357	16026.72
603.553	16120.93
603.75	15905.89
603.946	16213.09
604.142	15907.94
604.338	15619.17
604.534	15709.29
604.73	15838.31
604.926	15381.61
605.122	15740.01
605.318	15672.42
605.514	15418.47
605.71	15330.41
605.906	15336.56
606.102	15340.65
606.298	15162.48
606.494	15369.32
606.69	15242.35
606.886	15060.08
607.082	14998.64
607.278	15244.4
607.474	14834.8
607.67	15129.71
607.866	14779.51
608.062	14935.15
608.257	14863.47
608.453	14875.76
608.649	15023.22
608.845	14799.99
609.041	14640.25
609.236	14621.81
609.432	14423.16
609.628	14589.05
609.824	14587
610.019	14349.43
610.215	14199.93
610.411	14408.83
610.606	14169.21
610.802	14562.42
610.998	14275.71
611.193	14302.33
611.389	14062.72
611.584	14345.34
611.78	14029.95
611.976	14089.34
612.171	14128.25
612.367	14105.73
612.562	13857.92
612.758	13728.9
612.953	13790.34
613.149	14163.07
613.344	13816.96
613.539	14134.4
613.735	13700.23
613.93	13896.83
614.126	13796.48
614.321	13806.72
614.517	13831.3
614.712	13765.76
614.907	13483.14
615.103	13704.32
615.298	13278.35
615.493	13636.74
615.688	13350.03
615.884	13489.29
616.079	13399.18
616.274	13444.23
616.47	13444.23
616.665	13333.64
616.86	13251.72
617.055	13202.57
617.25	13134.99
617.445	13264.01
617.641	12932.24
617.836	13061.26
618.031	12960.91
618.226	12907.66
618.421	13008.01
618.616	12713.11
618.811	12743.83
619.006	12989.58
619.201	12555.41
619.396	12702.87
619.591	12559.51
619.786	12633.24
619.981	12453.02
620.176	12438.68
620.371	12379.29
620.566	12307.61
620.761	12174.49
620.956	12489.88
621.151	11979.93
621.346	12108.96
621.541	11902.11
621.735	12145.82
621.93	11836.58
622.125	11959.45
622.32	11758.75
622.515	11824.29
622.709	11615.4
622.904	11824.29
623.099	11510.95
623.294	11529.38
623.488	11357.35
623.683	11566.24
623.878	11408.55
624.072	11228.33
624.267	11275.43
624.462	11392.17
624.656	11091.12
624.851	11170.99
625.046	11007.15
625.24	11046.06
625.435	10992.81
625.629	10669.23
625.824	10663.09
626.018	10650.8
626.213	10314.94
626.407	10609.84
626.602	10394.81
626.796	10458.29
626.991	10421.43
627.185	10460.34
627.38	10298.55
627.574	10257.59
627.768	10206.39
627.963	10081.47
628.157	10122.43
628.352	10163.39
628.546	9981.12
628.74	10013.88
628.935	9815.23
629.129	9813.18
629.323	9741.5
629.517	9602.24
629.712	9815.23
629.906	9626.82
630.1	9397.45
630.294	9561.28
630.489	9446.6
630.683	9473.22
630.877	9411.78
631.071	9270.47
631.265	9352.39
631.459	9282.76
631.653	9172.17
631.848	9151.69
632.042	9137.35
632.236	9204.94
632.43	9026.76
632.624	9020.62
632.818	8981.71
633.012	8791.25
633.206	8875.21
633.4	8899.79
633.594	8596.69
633.788	8690.9
633.982	8731.86
634.176	8539.35
634.369	8412.37
634.563	8428.76
634.757	8359.13
634.951	8400.09
635.145	8428.76
635.339	8371.41
635.533	8457.43
635.726	8219.86
635.92	8135.9
636.114	8352.98
636.308	8193.24
636.501	8066.27
636.695	8242.39
636.889	7906.52
637.083	8041.69
637.276	7953.63
637.47	7726.3
637.664	7855.33
637.857	7888.09
638.051	8017.11
638.244	7650.53
638.438	7372
638.632	7736.54
638.825	7396.58
639.019	7521.51
639.212	7357.67
639.406	7359.72
639.599	7560.42
639.793	7429.35
639.986	7185.64
640.18	7455.97
640.373	7159.02
640.567	7116.01
640.76	7310.57
640.954	7167.21
641.147	7097.58
641.34	7118.06
641.534	7116.01
641.727	6817.01
641.92	6857.96
642.114	6964.46
642.307	6708.46
642.5	6831.34
642.694	6597.87
642.887	6624.5
643.08	6499.57
643.273	6601.97
643.467	6673.65
643.66	6487.28
643.853	6507.76
644.046	6507.76
644.239	6327.54
644.432	6436.08
644.626	6233.33
644.819	6343.92
645.012	6382.84
645.205	6331.64
645.398	6386.93
645.591	6157.56
645.784	6198.52
645.977	6046.97
646.17	6089.98
646.363	5879.04
646.556	6010.11
646.749	5901.56
646.942	5950.71
647.135	5899.52
647.328	6001.91
647.521	5889.28
647.714	5807.36
647.907	5819.64
648.099	5625.09
648.292	5752.06
648.485	5690.62
648.678	5553.41
648.871	5485.83
649.064	5534.98
649.256	5616.9
649.449	5516.55
649.642	5401.86
649.835	5324.04
650.027	5532.93
650.22	5408
650.413	5182.73
650.605	5291.27
650.798	5397.76
650.991	5274.88
651.183	5321.99
651.376	5295.36
651.568	5217.54
651.761	5238.02
651.954	4953.35
652.146	5104.9
652.339	5018.89
652.531	4957.45
652.724	5063.94
652.916	4879.63
653.109	4986.12
653.301	4963.59
653.494	4893.96
653.686	4930.83
653.879	4936.97
654.071	4795.66
654.263	4773.13
654.456	4846.86
654.648	4621.58
654.84	4668.69
655.033	4633.87
655.225	4611.34
655.417	4588.82
655.61	4510.99
655.802	4515.09
655.994	4537.62
656.186	4582.67
656.379	4500.75
656.571	4447.51
656.763	4265.24
656.955	4269.33
657.148	4435.22
657.34	4369.68
657.532	4259.09
657.724	4205.85
657.916	4392.21
658.108	4357.39
658.3	4277.52
658.492	4181.27
658.684	4140.31
658.876	4087.06
659.068	4111.64
659.26	3999
659.452	4031.77
659.644	4058.39
659.836	3951.9
660.028	4076.82
660.22	3910.94
660.412	4058.39
660.604	3816.73
660.796	3958.04
660.988	3888.41
661.18	3847.45
661.372	3843.35
661.563	3794.2
661.755	3925.27
661.947	3757.34
662.139	3689.76
662.331	3714.33
662.522	3697.95
662.714	3702.04
662.906	3568.93
663.097	3505.44
663.289	3544.35
663.481	3513.63
663.673	3515.68
663.864	3517.73
664.056	3476.77
664.247	3511.58
664.439	3300.64
664.631	3444
664.822	3368.23
665.014	3362.08
665.205	3431.71
665.397	3345.7
665.588	3364.13
665.78	3271.97
665.971	3294.5
666.163	3243.3
666.354	3267.88
666.546	3247.4
666.737	3323.17
666.929	3099.94
667.12	3259.68
667.311	3153.19
667.503	2966.82
667.694	3112.23
667.885	3032.36
668.077	3194.15
668.268	3153.19
668.459	3124.52
668.651	3056.93
668.842	3067.17
669.033	3058.98
669.224	2999.59
669.416	3151.14
669.607	3058.98
669.798	3028.26
669.989	2995.5
670.18	2972.97
670.371	2948.39
670.563	2981.16
670.754	2946.34
670.945	2936.1
671.136	2903.34
671.327	2854.19
671.518	2860.33
671.709	2882.86
671.9	2825.51
672.091	2796.84
672.282	2739.5
672.473	2845.99
672.664	2796.84
672.855	2813.23
673.046	2628.91
673.237	2753.84
673.428	2612.53
673.619	2696.49
673.809	2794.79
674	2686.25
674.191	2751.79
674.382	2725.16
674.573	2626.86
674.764	2712.88
674.954	2714.92
675.145	2604.33
675.336	2546.99
675.527	2518.32
675.717	2608.43
675.908	2659.63
676.099	2567.47
676.289	2544.94
676.48	2540.85
676.671	2454.83
676.861	2616.62
677.052	2583.85
677.243	2678.06
677.433	2559.28
677.624	2559.28
677.814	2481.46
678.005	2542.89
678.195	2569.52
678.386	2344.24
678.576	2522.41
678.767	2467.12
678.957	2368.82
679.148	2618.67
679.338	2374.96
679.529	2405.68
679.719	2407.73
679.909	2389.3
680.1	2346.29
680.29	2413.87
680.481	2450.74
680.671	2411.82
680.861	2409.78
681.052	2415.92
681.242	2282.8
681.432	2325.81
681.622	2270.51
681.813	2284.85
682.003	2227.51
682.193	2383.15
682.383	2297.14
682.573	2290.99
682.764	2184.5
682.954	2256.18
683.144	2215.22
683.334	2237.75
683.524	2237.75
683.714	2270.51
683.904	2243.89
684.094	2323.76
684.284	2202.93
684.474	2293.04
684.664	2235.7
684.854	2057.53
685.044	2262.32
685.234	2221.36
685.424	2227.51
685.614	2182.45
685.804	2180.4
685.994	2233.65
686.184	2200.88
686.374	2204.98
686.564	2161.97
686.753	2252.08
686.943	2270.51
687.133	2106.68
687.323	2012.47
687.513	2143.54
687.702	2176.31
687.892	2055.48
688.082	2114.87
688.272	2121.01
688.461	2186.55
688.651	2067.77
688.841	2106.68
689.03	2078.01
689.22	2078.01
689.41	2045.24
689.599	2069.81
689.789	2090.29
689.979	2075.96
690.168	2164.02
690.358	2125.11
690.547	2055.48
690.737	2059.57
690.926	2055.48
691.116	1955.13
691.305	2082.1
691.495	2049.33
691.684	2032.95
691.874	2057.53
692.063	1944.89
692.252	2008.37
692.442	2041.14
692.631	1922.36
692.82	1920.31
693.01	1963.32
693.199	2051.38
693.388	2071.86
693.578	2065.72
693.767	2030.9
693.956	2006.33
694.146	2010.42
694.335	1971.51
694.524	1918.26
694.713	2100.53
694.902	1932.6
695.092	2012.47
695.281	2061.62
695.47	1887.54
695.659	1938.74
695.848	1996.09
696.037	1971.51
696.226	1973.56
696.415	2164.02
696.604	1989.94
696.793	2026.81
696.982	1975.61
697.171	1985.85
697.36	1920.31
697.549	1934.65
697.738	1869.11
697.927	1938.74
698.116	1991.99
698.305	1977.66
698.494	2004.28
698.683	1922.36
698.872	1944.89
699.061	1912.12
699.25	1897.78
699.438	1922.36
699.627	1994.04
699.816	1928.5
700.005	1930.55
700.193	1965.37
700.382	1942.84
700.571	1991.99
700.76	1946.94
700.948	1987.89
701.137	1885.5
701.326	1942.84
701.514	1867.06
701.703	1928.5
701.892	1885.5
702.08	1879.35
702.269	1830.2
702.457	1998.13
702.646	1838.39
702.834	1895.74
703.023	1887.54
703.212	1822.01
703.4	1852.73
703.589	1826.11
703.777	1975.61
703.965	1727.8
704.154	1754.43
704.342	1871.16
704.531	1760.57
704.719	1848.63
704.907	1824.06
705.096	1867.06
705.284	1852.73
705.472	1873.21
705.661	1834.3
705.849	1836.35
706.037	1834.3
706.226	1719.61
706.414	1824.06
706.602	1844.54
706.79	1824.06
706.979	1871.16
707.167	1779
707.355	1709.37
707.543	1822.01
707.731	1719.61
707.919	1719.61
708.107	1768.76
708.296	1676.6
708.484	1811.77
708.672	1645.88
708.86	1678.65
709.048	1772.86
709.236	1672.51
709.424	1783.1
709.612	1680.7
709.8	1699.13
709.988	1758.52
710.176	1623.36
710.364	1645.88
710.551	1674.56
710.739	1598.78
710.927	1713.47
711.115	1647.93
711.303	1625.4
711.491	1744.19
711.679	1678.65
711.866	1586.49
712.054	1670.46
712.242	1621.31
712.43	1647.93
712.617	1590.59
712.805	1586.49
712.993	1625.4
713.181	1551.68
713.368	1504.57
713.556	1520.96
713.744	1471.81
713.931	1697.08
714.119	1547.58
714.306	1514.81
714.494	1533.25
714.682	1506.62
714.869	1647.93
715.057	1525.05
715.244	1537.34
715.432	1566.01
715.619	1580.35
715.807	1465.66
715.994	1598.78
716.182	1555.77
716.369	1461.57
716.556	1457.47
716.744	1471.81
716.931	1494.33
717.119	1398.08
717.306	1455.42
717.493	1516.86
717.681	1430.85
717.868	1482.05
718.055	1473.85
718.242	1459.52
718.43	1391.94
718.617	1338.69
718.804	1514.81
718.991	1424.7
719.179	1523.01
719.366	1318.21
719.553	1439.04
719.74	1490.24
719.927	1408.32
720.114	1299.78
720.301	1277.25
720.488	1328.45
720.676	1250.63
720.863	1398.08
721.05	1355.07
721.237	1377.6
721.424	1334.59
721.611	1334.59
721.798	1299.78
721.985	1316.16
722.172	1348.93
722.358	1332.55
722.545	1340.74
722.732	1248.58
722.919	1305.92
723.106	1191.24
723.293	1285.44
723.48	1275.2
723.667	1312.07
723.853	1301.83
724.04	1213.76
724.227	1183.04
724.414	1168.71
724.6	1285.44
724.787	1307.97
724.974	1279.3
725.161	1248.58
725.347	1213.76
725.534	1295.68
725.72	1181
725.907	1107.27
726.094	1254.72
726.28	1217.86
726.467	1226.05
726.653	1144.13
726.84	1164.61
727.027	1305.92
727.213	1086.79
727.4	1148.23
727.586	1213.76
727.773	1154.37
727.959	1074.5
728.145	1230.15
728.332	1164.61
728.518	1191.24
728.705	1195.33
728.891	1097.03
729.077	1080.64
729.264	1178.95
729.45	1070.41
729.636	1248.58
729.823	1105.22
730.009	1121.6
730.195	1121.6
730.382	1129.8
730.568	1135.94
730.754	1090.88
730.94	1051.97
731.126	1125.7
731.313	1187.14
731.499	1070.41
731.685	1080.64
731.871	1070.41
732.057	1097.03
732.243	1002.82
732.429	1148.23
732.615	1152.32
732.801	1123.65
732.987	1119.56
733.173	1092.93
733.359	1049.93
733.545	1035.59
733.731	1094.98
733.917	1002.82
734.103	1039.69
734.289	1129.8
734.475	1084.74
734.661	1103.17
734.847	1084.74
735.033	1011.01
735.219	1011.01
735.404	1011.01
735.59	1047.88
735.776	957.77
735.962	1084.74
736.148	1029.45
736.333	1056.07
736.519	1008.97
736.705	974.15
736.89	972.1
737.076	992.58
737.262	986.44
737.447	984.39
737.633	994.63
737.819	912.71
738.004	1002.82
738.19	1013.06
738.375	1045.83
738.561	884.04
738.747	900.42
738.932	927.05
739.118	906.57
739.303	957.77
739.489	1015.11
739.674	834.89
739.859	871.75
740.045	898.38
740.23	890.18
740.416	798.03
740.601	910.66
740.786	814.41
740.972	961.86
741.157	869.7
741.342	867.66
741.528	806.22
741.713	861.51
741.898	900.42
742.084	890.18
742.269	830.79
742.454	834.89
742.639	824.65
742.824	894.28
743.01	859.46
743.195	879.94
743.38	841.03
743.565	861.51
743.75	779.59
743.935	791.88
744.12	775.5
744.305	871.75
744.49	775.5
744.675	820.55
744.86	814.41
745.045	808.26
745.23	775.5
745.415	896.33
745.6	834.89
745.785	822.6
745.97	783.69
746.155	810.31
746.34	752.97
746.525	777.55
746.71	752.97
746.895	812.36
747.079	722.25
747.264	773.45
747.449	685.39
747.634	759.11
747.819	769.35
748.003	779.59
748.188	699.72
748.373	642.38
748.557	728.39
748.742	726.35
748.927	744.78
749.111	660.81
749.296	681.29
749.481	752.97
749.665	595.28
749.85	695.63
750.034	615.76
750.219	603.47
750.404	732.49
750.588	605.52
750.773	660.81
750.957	646.48
751.141	626
751.326	666.96
751.51	646.48
751.695	632.14
751.879	654.67
752.064	611.66
752.248	623.95
752.432	570.7
752.617	681.29
752.801	658.76
752.985	576.84
753.17	572.75
753.354	593.23
753.538	703.82
753.722	587.08
753.907	558.41
754.091	597.32
754.275	589.13
754.459	621.9
754.643	501.07
754.828	603.47
755.012	570.7
755.196	599.37
755.38	572.75
755.564	597.32
755.748	507.21
755.932	564.56
756.116	589.13
756.3	587.08
756.484	591.18
756.668	531.79
756.852	519.5
757.036	496.97
757.22	496.97
757.404	548.17
757.588	523.6
757.772	470.35
757.956	425.29
758.14	509.26
758.323	480.59
758.507	546.12
758.691	521.55
758.875	511.31
759.059	447.82
759.242	521.55
759.426	505.17
759.61	484.69
759.794	474.45
759.977	466.25
760.161	447.82
760.345	445.77
760.528	492.88
760.712	482.64
760.895	533.84
761.079	535.89
761.263	431.44
761.446	501.07
761.63	423.25
761.813	394.58
761.997	480.59
762.18	447.82
762.364	382.29
762.547	423.25
762.731	435.53
762.914	326.99
763.098	531.79
763.281	478.54
763.464	425.29
763.648	421.2
763.831	421.2
764.015	386.38
764.198	480.59
764.381	484.69
764.564	443.73
764.748	441.68
764.931	443.73
765.114	445.77
765.297	472.4
765.481	388.43
765.664	408.91
765.847	390.48
766.03	427.34
766.213	365.9
766.397	462.16
766.58	365.9
766.763	408.91
766.946	519.5
767.129	376.14
767.312	351.57
767.495	384.34
767.678	402.77
767.861	513.36
768.044	415.06
768.227	398.67
768.41	392.53
768.593	415.06
768.776	314.7
768.959	363.86
769.142	462.16
769.324	386.38
769.507	410.96
769.69	447.82
769.873	353.62
770.056	427.34
770.239	390.48
770.421	357.71
770.604	296.27
770.787	353.62
770.97	406.86
771.152	410.96
771.335	370
771.518	320.85
771.7	376.14
771.883	421.2
772.066	349.52
772.248	286.03
772.431	355.66
772.613	421.2
772.796	363.86
772.978	372.05
773.161	384.34
773.343	380.24
773.526	322.9
773.708	433.49
773.891	294.22
774.073	296.27
774.256	263.51
774.438	365.9
774.621	326.99
774.803	271.7
774.985	306.51
775.168	333.14
775.35	310.61
775.532	421.2
775.715	367.95
775.897	341.33
776.079	294.22
776.261	337.23
776.444	308.56
776.626	279.89
776.808	333.14
776.99	302.42
777.173	312.66
777.355	331.09
777.537	326.99
777.719	345.42
777.901	322.9
778.083	251.22
778.265	300.37
778.447	298.32
778.629	257.36
778.811	304.46
778.993	226.64
779.175	337.23
779.357	312.66
779.539	302.42
779.721	294.22
779.903	236.88
780.085	300.37
780.267	316.75
780.449	177.49
780.631	290.13
780.812	277.84
780.994	238.93
781.176	279.89
781.358	269.65
781.54	318.8
781.721	275.79
781.903	238.93
782.085	277.84
782.267	275.79
782.448	288.08
782.63	281.94
782.812	222.55
782.993	249.17
783.175	255.31
783.357	240.98
783.538	247.12
783.72	265.55
783.901	179.54
784.083	204.11
784.264	279.89
784.446	189.78
784.627	157.01
784.809	177.49
784.99	240.98
785.172	247.12
785.353	220.5
785.535	269.65
785.716	226.64
785.897	171.35
786.079	210.26
786.26	161.11
786.441	279.89
786.623	187.73
786.804	189.78
786.985	167.25
787.167	273.75
787.348	214.35
787.529	216.4
787.71	228.69
787.891	228.69
788.073	249.17
788.254	167.25
788.435	222.55
788.616	118.1
788.797	120.15
788.978	189.78
789.159	146.77
789.34	212.31
789.522	193.87
789.703	187.73
789.884	136.53
790.065	294.22
790.246	130.39
790.427	187.73
790.607	167.25
790.788	142.68
790.969	146.77
791.15	157.01
791.331	152.92
791.512	189.78
791.693	114
791.874	105.81
792.054	154.96
792.235	200.02
792.416	189.78
792.597	169.3
792.778	189.78
792.958	103.76
793.139	138.58
793.32	161.11
793.5	152.92
793.681	216.4
793.862	171.35
794.042	124.24
794.223	177.49
794.404	114
794.584	226.64
794.765	111.96
794.945	144.72
795.126	138.58
795.306	120.15
795.487	124.24
795.667	109.91
795.848	136.53
796.028	124.24
796.209	185.68
796.389	103.76
796.57	200.02
796.75	105.81
796.93	132.44
797.111	105.81
797.291	118.1
797.471	144.72
797.652	126.29
797.832	64.85
798.012	97.62
798.192	103.76
798.373	169.3
798.553	79.19
798.733	93.52
798.913	79.19
799.093	142.68
799.274	183.63
799.454	191.83
799.634	118.1
799.814	124.24
799.994	87.38
800.174	89.43
800.354	95.57
800.534	109.91
800.714	150.87
800.894	118.1
801.074	103.76
801.254	73.04
801.434	146.77
801.614	152.92
801.794	73.04
801.974	267.6
802.154	101.72
802.334	165.2
802.514	173.39
802.693	146.77
802.873	146.77
803.053	134.48
803.233	32.08
803.413	126.29
803.592	122.2
803.772	91.48
803.952	99.67
804.131	140.63
804.311	142.68
804.491	89.43
804.67	116.05
804.85	81.24
805.03	128.34
805.209	62.8
805.389	81.24
805.568	103.76
805.748	79.19
805.928	103.76
806.107	105.81
806.287	75.09
806.466	91.48
806.646	64.85
806.825	75.09
807.004	138.58
807.184	97.62
807.363	175.44
807.543	83.28
807.722	126.29
807.901	68.95
808.081	50.52
808.26	44.37
808.439	32.08
808.619	126.29
808.798	136.53
808.977	38.23
809.156	48.47
809.336	87.38
809.515	50.52
809.694	132.44
809.873	116.05
810.052	42.32
810.231	32.08
810.411	48.47
810.59	107.86
810.769	75.09
810.948	173.39
811.127	93.52
811.306	154.96
811.485	9.56
811.664	103.76
811.843	99.67
812.022	48.47
812.201	34.13
812.38	81.24
812.559	21.85
812.737	71
812.916	-4.78
813.095	1.37
813.274	107.86
813.453	62.8
813.632	32.08
813.811	50.52
813.989	42.32
814.168	95.57
814.347	107.86
814.526	54.61
814.704	75.09
814.883	99.67
815.062	32.08
815.24	93.52
815.419	114
815.598	75.09
815.776	71
815.955	140.63
816.133	-10.92
816.312	36.18
816.49	-2.73
816.669	87.38
816.847	103.76
817.026	-4.78
817.204	-4.78
817.383	75.09
817.561	25.94
817.74	17.75
817.918	56.66
818.097	75.09
818.275	75.09
818.453	-2.73
818.632	-4.78
818.81	87.38
818.988	25.94
819.167	36.18
819.345	36.18
819.523	32.08
819.701	25.94
819.879	38.23
820.058	75.09
820.236	52.56
820.414	122.2
820.592	122.2
820.77	42.32
820.948	73.04
821.127	97.62
821.305	93.52
821.483	101.72
821.661	19.8
821.839	60.76
822.017	91.48
822.195	58.71
822.373	66.9
822.551	157.01
822.729	107.86
822.907	19.8
823.085	-15.02
823.262	42.32
823.44	54.61
823.618	40.28
823.796	-6.83
823.974	23.89
824.152	75.09
824.329	9.56
824.507	68.95
824.685	5.46
824.863	50.52
825.04	109.91
825.218	-17.07
825.396	60.76
825.574	111.96
825.751	7.51
825.929	7.51
826.107	66.9
826.284	79.19
826.462	81.24
826.639	56.66
826.817	23.89
826.994	-17.07
827.172	27.99
827.349	54.61
827.527	64.85
827.704	118.1
827.882	58.71
828.059	-4.78
828.237	52.56
828.414	50.52
828.591	52.56
828.769	5.46
828.946	30.04
829.124	5.46
829.301	52.56
829.478	32.08
829.655	-10.92
829.833	44.37
830.01	19.8
830.187	13.65
830.364	5.46
830.542	23.89
830.719	99.67
830.896	19.8
831.073	-41.64
831.25	54.61
831.427	52.56
831.604	66.9
831.782	-25.26
831.959	97.62
832.136	85.33
832.313	73.04
832.49	-8.87
832.667	52.56
832.844	9.56
833.021	54.61
833.198	-55.98
833.374	15.7
833.551	-21.16
833.728	81.24
833.905	-19.11
834.082	52.56
834.259	-15.02
834.436	42.32
834.612	-25.26
834.789	68.95
834.966	60.76
835.143	7.51
835.319	36.18
835.496	-43.69
835.673	19.8
835.85	114
836.026	5.46
836.203	40.28
836.38	56.66
836.556	50.52
836.733	23.89
836.909	68.95
837.086	-27.31
837.262	32.08
837.439	17.75
837.616	13.65
837.792	34.13
837.968	32.08
838.145	50.52
838.321	54.61
838.498	30.04
838.674	71
838.851	75.09
839.027	-17.07
839.203	83.28
839.38	-41.64
839.556	7.51
839.732	50.52
839.909	-6.83
840.085	83.28
840.261	64.85
840.437	21.85
840.614	73.04
840.79	36.18
840.966	60.76
841.142	11.61
841.318	-8.87
841.494	52.56
841.671	3.41
841.847	25.94
842.023	17.75
842.199	56.66
842.375	68.95
842.551	93.52
842.727	-58.03
842.903	7.51
843.079	27.99
843.255	93.52
843.431	-8.87
843.607	42.32
843.783	30.04
843.959	52.56
844.134	17.75
844.31	-0.68
844.486	30.04
844.662	36.18
844.838	3.41
845.013	-15.02
845.189	99.67
845.365	15.7
845.541	-29.35
845.716	36.18
845.892	5.46
846.068	36.18
846.244	75.09
846.419	27.99
846.595	13.65
846.77	-23.21
846.946	36.18
847.122	23.89
847.297	27.99
847.473	3.41
847.648	-23.21
847.824	62.8
847.999	23.89
848.175	60.76
848.35	56.66
848.526	-15.02
848.701	-2.73
848.876	44.37
849.052	81.24
849.227	-12.97
849.403	-31.4
849.578	46.42
849.753	13.65
849.929	95.57
850.104	-23.21
850.279	3.41
850.454	-53.93
850.63	9.56
850.805	-27.31
850.98	60.76
851.155	27.99
851.33	21.85
851.505	-15.02
851.681	56.66
851.856	64.85
852.031	34.13
852.206	75.09
852.381	27.99
852.556	32.08
852.731	40.28
852.906	42.32
853.081	40.28
853.256	21.85
853.431	-23.21
853.606	-21.16
853.781	46.42
853.956	-45.74
854.131	-15.02
854.305	23.89
854.48	62.8
854.655	7.51
854.83	1.37
855.005	89.43
855.18	62.8
855.354	-94.89
855.529	-0.68
855.704	54.61
855.879	11.61
856.053	1.37
856.228	-0.68
856.403	32.08
856.577	64.85
856.752	40.28
856.926	-0.68
857.101	9.56
857.276	42.32
857.45	-27.31
857.625	17.75
857.799	-15.02
857.974	40.28
858.148	15.7
858.323	1.37
858.497	-66.22
858.672	-6.83
858.846	19.8
859.02	27.99
859.195	25.94
859.369	60.76
859.543	-4.78
859.718	38.23
859.892	23.89
860.066	17.75
860.241	11.61
860.415	19.8
860.589	3.41
860.763	19.8
860.938	-2.73
861.112	38.23
861.286	-25.26
861.46	44.37
861.634	7.51
861.808	13.65
861.982	-15.02
862.157	44.37
862.331	7.51
862.505	-12.97
862.679	13.65
862.853	-10.92
863.027	60.76
863.201	85.33
863.375	19.8
863.549	-0.68
863.722	-19.11
863.896	15.7
864.07	11.61
864.244	44.37
864.418	9.56
864.592	21.85
864.766	7.51
864.939	9.56
865.113	11.61
865.287	5.46
865.461	-4.78
865.634	56.66
865.808	50.52
865.982	58.71
866.156	-8.87
866.329	56.66
866.503	-0.68
866.676	-27.31
866.85	-33.45
867.024	38.23
867.197	30.04
867.371	64.85
867.544	-31.4
867.718	-0.68
867.891	-29.35
868.065	23.89
868.238	-31.4
868.412	-6.83
868.585	-4.78
868.759	13.65
868.932	44.37
869.105	-35.5
869.279	9.56
869.452	3.41
869.625	-19.11
869.799	-0.68
869.972	36.18
870.145	56.66
870.319	5.46
870.492	19.8
870.665	-25.26
870.838	-35.5
871.011	-21.16
871.185	34.13
871.358	-17.07
871.531	3.41
871.704	19.8
871.877	-2.73
872.05	19.8
872.223	36.18
872.396	-0.68
872.569	23.89
872.742	9.56
872.915	-8.87
873.088	-19.11
873.261	46.42
873.434	15.7
873.607	25.94
873.78	91.48
873.953	-43.69
874.126	19.8
874.299	27.99
874.471	-10.92
874.644	-12.97
874.817	7.51
874.99	85.33
875.163	-19.11
875.335	-45.74
875.508	-8.87
875.681	48.47
875.853	-25.26
876.026	52.56
876.199	5.46
876.371	73.04
876.544	-37.55
876.717	-41.64
876.889	48.47
877.062	-35.5
877.234	-2.73
877.407	19.8
877.579	79.19
877.752	40.28
877.924	-31.4
878.097	23.89
878.269	-12.97
878.442	52.56
878.614	15.7
878.786	-35.5
878.959	13.65
879.131	-98.99
879.303	-31.4
879.476	-0.68
879.648	21.85
879.82	19.8
879.993	-29.35
880.165	46.42
880.337	5.46
880.509	-25.26
880.681	77.14
880.854	3.41
881.026	-29.35
881.198	1.37
881.37	-12.97
881.542	34.13
881.714	-15.02
881.886	15.7
882.058	-21.16
882.23	-21.16
882.402	38.23
882.574	64.85
882.746	25.94
882.918	19.8
883.09	42.32
883.262	-55.98
883.434	23.89
883.606	-33.45
883.778	9.56
883.95	7.51
884.122	-23.21
884.293	-29.35
884.465	-33.45
884.637	54.61
884.809	-6.83
884.98	30.04
885.152	-39.59
885.324	3.41
885.496	-2.73
885.667	50.52
885.839	-31.4
886.011	54.61
886.182	17.75
886.354	30.04
886.525	-62.12
886.697	-25.26
886.869	-27.31
887.04	1.37
887.212	7.51
887.383	30.04
887.555	-60.07
887.726	38.23
887.897	-47.79
888.069	-4.78
888.24	-49.83
888.412	60.76
888.583	-90.79
888.754	-4.78
888.926	27.99
889.097	-10.92
889.268	-4.78
889.44	23.89
889.611	27.99
889.782	5.46
889.953	-45.74
890.125	38.23
890.296	-12.97
890.467	19.8
890.638	25.94
890.809	66.9
890.98	36.18
891.151	17.75
891.323	-2.73
891.494	36.18
891.665	-12.97
891.836	23.89
892.007	9.56
892.178	9.56
892.349	75.09
892.52	-0.68
892.691	21.85
892.862	-39.59
893.032	-37.55
893.203	-35.5
893.374	-2.73
893.545	1.37
893.716	-29.35
893.887	-0.68
894.057	-6.83
894.228	-25.26
894.399	9.56
894.57	-60.07
894.74	-23.21
894.911	-6.83
895.082	56.66
895.253	-10.92
895.423	-0.68
895.594	50.52
895.764	71
895.935	42.32
896.106	71
896.276	-4.78
896.447	46.42
896.617	-33.45
896.788	-62.12
896.958	7.51
897.129	9.56
897.299	52.56
897.47	-43.69
897.64	79.19
897.81	-10.92
897.981	-96.94
898.151	-80.55
898.322	9.56
898.492	19.8
898.662	-8.87
898.832	-23.21
899.003	-0.68
899.173	27.99
899.343	66.9
899.513	-39.59
