Data from USB4F104151__1__13-51-55-953.txt Node

Date: Thu Mar 13 13:51:55 EDT 2025
User: louis
Spectrometer: USB4F10415
Trigger mode: 4
Integration Time (sec): 1.000000E-2
Scans to average: 1
Electric dark correction enabled: true
Nonlinearity correction enabled: false
Boxcar width: 0
XAxis mode: Wavelengths
Number of Pixels in Spectrum: 3648
>>>>>Begin Spectral Data<<<<<
178.204	-36.86
178.424	-36.86
178.644	-36.86
178.864	2.05
179.084	-16.38
179.304	-67.58
179.524	57.34
179.744	-30.72
179.964	14.34
180.184	-24.58
180.404	38.91
180.624	-110.59
180.844	16.38
181.064	-40.96
181.283	38.91
181.503	49.15
181.723	59.39
181.943	14.34
182.163	118.78
182.383	63.49
182.602	-12.29
182.822	43.01
183.042	-18.43
183.262	36.86
183.482	-18.43
183.701	47.1
183.921	49.15
184.141	51.2
184.361	18.43
184.58	22.53
184.8	26.62
185.02	-32.77
185.239	59.39
185.459	-26.62
185.679	114.69
185.898	53.25
186.118	24.58
186.338	-8.19
186.557	30.72
186.777	-26.62
186.997	-2.05
187.216	4.1
187.436	49.15
187.655	38.91
187.875	8.19
188.095	-75.77
188.314	81.92
188.534	-16.38
188.753	67.58
188.973	69.63
189.192	34.82
189.412	108.54
189.631	79.87
189.851	-22.53
190.07	-20.48
190.29	24.58
190.509	-10.24
190.729	47.1
190.948	20.48
191.168	38.91
191.387	24.58
191.607	16.38
191.826	8.19
192.045	-30.72
192.265	45.06
192.484	47.1
192.704	-53.25
192.923	20.48
193.142	77.82
193.362	32.77
193.581	32.77
193.8	63.49
194.02	49.15
194.239	10.24
194.458	36.86
194.678	20.48
194.897	129.02
195.116	69.63
195.335	6.14
195.555	4.1
195.774	-6.14
195.993	55.3
196.212	26.62
196.432	-10.24
196.651	69.63
196.87	43.01
197.089	26.62
197.308	69.63
197.528	49.15
197.747	16.38
197.966	55.3
198.185	38.91
198.404	-57.34
198.623	75.77
198.842	63.49
199.062	55.3
199.281	-28.67
199.5	-8.19
199.719	77.82
199.938	75.77
200.157	10.24
200.376	24.58
200.595	38.91
200.814	71.68
201.033	40.96
201.252	86.01
201.471	-18.43
201.69	-6.14
201.909	110.59
202.128	96.25
202.347	24.58
202.566	65.54
202.785	30.72
203.004	-24.58
203.223	-2.05
203.442	-53.25
203.661	59.39
203.879	22.53
204.098	14.34
204.317	0
204.536	26.62
204.755	63.49
204.974	53.25
205.193	-14.34
205.411	67.58
205.63	57.34
205.849	81.92
206.068	20.48
206.287	79.87
206.505	49.15
206.724	-10.24
206.943	18.43
207.162	-12.29
207.381	51.2
207.599	59.39
207.818	36.86
208.037	18.43
208.255	57.34
208.474	26.62
208.693	24.58
208.911	40.96
209.13	47.1
209.349	16.38
209.567	4.1
209.786	65.54
210.005	28.67
210.223	30.72
210.442	-8.19
210.661	90.11
210.879	0
211.098	63.49
211.316	20.48
211.535	100.35
211.753	-6.14
211.972	104.45
212.191	-4.1
212.409	20.48
212.628	-8.19
212.846	43.01
213.065	20.48
213.283	24.58
213.502	28.67
213.72	12.29
213.938	-2.05
214.157	38.91
214.375	-8.19
214.594	26.62
214.812	116.73
215.031	57.34
215.249	28.67
215.467	28.67
215.686	-147.45
215.904	65.54
216.122	36.86
216.341	83.97
216.559	81.92
216.778	8.19
216.996	118.78
217.214	43.01
217.432	20.48
217.651	67.58
217.869	45.06
218.087	16.38
218.306	-2.05
218.524	32.77
218.742	83.97
218.96	65.54
219.179	26.62
219.397	-2.05
219.615	43.01
219.833	63.49
220.051	34.82
220.27	61.44
220.488	2.05
220.706	90.11
220.924	36.86
221.142	34.82
221.36	8.19
221.578	4.1
221.796	69.63
222.015	22.53
222.233	81.92
222.451	24.58
222.669	2.05
222.887	-6.14
223.105	65.54
223.323	83.97
223.541	-34.82
223.759	51.2
223.977	20.48
224.195	-14.34
224.413	-4.1
224.631	81.92
224.849	65.54
225.067	55.3
225.285	79.87
225.503	96.25
225.721	106.49
225.939	40.96
226.157	55.3
226.375	118.78
226.592	36.86
226.81	71.68
227.028	49.15
227.246	36.86
227.464	4.1
227.682	73.73
227.9	47.1
228.117	55.3
228.335	38.91
228.553	28.67
228.771	2.05
228.989	-14.34
229.206	2.05
229.424	49.15
229.642	36.86
229.86	-8.19
230.077	-4.1
230.295	59.39
230.513	86.01
230.731	12.29
230.948	24.58
231.166	71.68
231.384	20.48
231.601	34.82
231.819	61.44
232.037	-2.05
232.254	30.72
232.472	36.86
232.689	2.05
232.907	55.3
233.125	20.48
233.342	108.54
233.56	32.77
233.777	-30.72
233.995	28.67
234.213	79.87
234.43	22.53
234.648	28.67
234.865	-32.77
235.083	-14.34
235.3	59.39
235.518	14.34
235.735	94.21
235.953	-4.1
236.17	112.64
236.388	77.82
236.605	-36.86
236.822	10.24
237.04	24.58
237.257	96.25
237.475	24.58
237.692	-12.29
237.909	28.67
238.127	4.1
238.344	90.11
238.562	14.34
238.779	-32.77
238.996	-53.25
239.214	8.19
239.431	40.96
239.648	77.82
239.865	34.82
240.083	151.55
240.3	20.48
240.517	8.19
240.735	26.62
240.952	34.82
241.169	4.1
241.386	20.48
241.603	67.58
241.821	43.01
242.038	61.44
242.255	88.06
242.472	86.01
242.689	14.34
242.907	96.25
243.124	-30.72
243.341	32.77
243.558	-51.2
243.775	-61.44
243.992	51.2
244.209	65.54
244.426	14.34
244.643	92.16
244.86	32.77
245.078	67.58
245.295	108.54
245.512	71.68
245.729	16.38
245.946	90.11
246.163	94.21
246.38	61.44
246.597	-2.05
246.814	-32.77
247.031	51.2
247.248	6.14
247.464	24.58
247.681	28.67
247.898	-2.05
248.115	86.01
248.332	26.62
248.549	45.06
248.766	59.39
248.983	45.06
249.2	59.39
249.417	26.62
249.633	47.1
249.85	8.19
250.067	-8.19
250.284	20.48
250.501	-6.14
250.717	6.14
250.934	71.68
251.151	51.2
251.368	30.72
251.585	24.58
251.801	131.07
252.018	-32.77
252.235	-22.53
252.451	73.73
252.668	36.86
252.885	49.15
253.102	-12.29
253.318	-4.1
253.535	22.53
253.752	55.3
253.968	51.2
254.185	-10.24
254.401	57.34
254.618	38.91
254.835	22.53
255.051	73.73
255.268	32.77
255.484	30.72
255.701	65.54
255.917	45.06
256.134	-30.72
256.351	65.54
256.567	55.3
256.784	34.82
257	-16.38
257.217	28.67
257.433	94.21
257.65	69.63
257.866	28.67
258.082	-8.19
258.299	-36.86
258.515	65.54
258.732	6.14
258.948	55.3
259.165	-8.19
259.381	10.24
259.597	57.34
259.814	43.01
260.03	0
260.246	126.97
260.463	-4.1
260.679	36.86
260.895	16.38
261.112	116.73
261.328	77.82
261.544	30.72
261.761	98.3
261.977	2.05
262.193	116.73
262.409	55.3
262.626	61.44
262.842	61.44
263.058	32.77
263.274	49.15
263.49	63.49
263.707	45.06
263.923	73.73
264.139	30.72
264.355	10.24
264.571	69.63
264.787	28.67
265.004	71.68
265.22	28.67
265.436	20.48
265.652	-6.14
265.868	47.1
266.084	47.1
266.3	57.34
266.516	63.49
266.732	94.21
266.948	-28.67
267.164	47.1
267.38	-16.38
267.596	61.44
267.812	12.29
268.028	2.05
268.244	40.96
268.46	69.63
268.676	45.06
268.892	69.63
269.108	71.68
269.324	36.86
269.54	36.86
269.756	79.87
269.972	18.43
270.188	73.73
270.403	71.68
270.619	-12.29
270.835	-49.15
271.051	51.2
271.267	26.62
271.483	14.34
271.698	-43.01
271.914	36.86
272.13	20.48
272.346	51.2
272.562	26.62
272.777	71.68
272.993	-8.19
273.209	24.58
273.425	-28.67
273.64	28.67
273.856	45.06
274.072	55.3
274.287	65.54
274.503	63.49
274.719	20.48
274.934	16.38
275.15	16.38
275.366	49.15
275.581	40.96
275.797	63.49
276.012	26.62
276.228	0
276.444	34.82
276.659	24.58
276.875	122.88
277.09	-2.05
277.306	18.43
277.521	77.82
277.737	63.49
277.952	75.77
278.168	75.77
278.383	-12.29
278.599	129.02
278.814	34.82
279.03	0
279.245	65.54
279.461	94.21
279.676	71.68
279.892	26.62
280.107	0
280.322	28.67
280.538	55.3
280.753	6.14
280.969	14.34
281.184	-12.29
281.399	53.25
281.615	51.2
281.83	36.86
282.045	59.39
282.26	45.06
282.476	36.86
282.691	79.87
282.906	71.68
283.122	10.24
283.337	55.3
283.552	36.86
283.767	-26.62
283.983	63.49
284.198	69.63
284.413	14.34
284.628	2.05
284.843	10.24
285.058	26.62
285.274	86.01
285.489	4.1
285.704	77.82
285.919	-12.29
286.134	32.77
286.349	49.15
286.564	30.72
286.779	43.01
286.995	59.39
287.21	-36.86
287.425	12.29
287.64	8.19
287.855	22.53
288.07	34.82
288.285	59.39
288.5	49.15
288.715	53.25
288.93	-12.29
289.145	77.82
289.36	77.82
289.575	45.06
289.79	-30.72
290.004	88.06
290.219	53.25
290.434	71.68
290.649	45.06
290.864	18.43
291.079	24.58
291.294	53.25
291.509	36.86
291.724	8.19
291.938	28.67
292.153	92.16
292.368	63.49
292.583	30.72
292.798	-12.29
293.012	61.44
293.227	10.24
293.442	90.11
293.657	51.2
293.871	116.73
294.086	22.53
294.301	51.2
294.516	90.11
294.73	88.06
294.945	51.2
295.16	81.92
295.374	36.86
295.589	43.01
295.804	-20.48
296.018	79.87
296.233	40.96
296.447	73.73
296.662	30.72
296.877	75.77
297.091	47.1
297.306	-2.05
297.52	43.01
297.735	30.72
297.949	14.34
298.164	28.67
298.378	20.48
298.593	14.34
298.807	22.53
299.022	32.77
299.236	83.97
299.451	65.54
299.665	77.82
299.88	24.58
300.094	30.72
300.309	75.77
300.523	-6.14
300.737	-12.29
300.952	40.96
301.166	49.15
301.381	-34.82
301.595	67.58
301.809	65.54
302.024	83.97
302.238	51.2
302.452	81.92
302.667	40.96
302.881	28.67
303.095	2.05
303.309	12.29
303.524	51.2
303.738	53.25
303.952	2.05
304.166	8.19
304.381	45.06
304.595	-12.29
304.809	34.82
305.023	92.16
305.237	110.59
305.452	139.26
305.666	67.58
305.88	69.63
306.094	63.49
306.308	20.48
306.522	47.1
306.736	32.77
306.95	79.87
307.164	43.01
307.379	-2.05
307.593	34.82
307.807	-4.1
308.021	43.01
308.235	88.06
308.449	28.67
308.663	24.58
308.877	106.49
309.091	81.92
309.305	-20.48
309.519	-26.62
309.733	92.16
309.947	24.58
310.161	43.01
310.374	-10.24
310.588	38.91
310.802	24.58
311.016	47.1
311.23	20.48
311.444	-24.58
311.658	16.38
311.872	20.48
312.085	0
312.299	81.92
312.513	-6.14
312.727	-45.06
312.941	20.48
313.154	16.38
313.368	-14.34
313.582	45.06
313.796	-16.38
314.009	12.29
314.223	55.3
314.437	22.53
314.651	47.1
314.864	69.63
315.078	71.68
315.292	53.25
315.505	20.48
315.719	36.86
315.933	83.97
316.146	110.59
316.36	26.62
316.573	92.16
316.787	-4.1
317.001	57.34
317.214	53.25
317.428	4.1
317.641	32.77
317.855	36.86
318.068	28.67
318.282	81.92
318.495	75.77
318.709	38.91
318.922	8.19
319.136	53.25
319.349	81.92
319.563	63.49
319.776	43.01
319.99	83.97
320.203	92.16
320.417	106.49
320.63	63.49
320.843	-10.24
321.057	71.68
321.27	45.06
321.483	18.43
321.697	38.91
321.91	51.2
322.124	83.97
322.337	-18.43
322.55	26.62
322.763	49.15
322.977	32.77
323.19	26.62
323.403	16.38
323.617	30.72
323.83	69.63
324.043	43.01
324.256	26.62
324.469	40.96
324.683	47.1
324.896	30.72
325.109	90.11
325.322	-43.01
325.535	100.35
325.748	90.11
325.962	-16.38
326.175	86.01
326.388	69.63
326.601	108.54
326.814	34.82
327.027	-2.05
327.24	88.06
327.453	53.25
327.666	-57.34
327.879	51.2
328.092	43.01
328.305	67.58
328.518	65.54
328.731	53.25
328.944	38.91
329.157	47.1
329.37	88.06
329.583	59.39
329.796	63.49
330.009	67.58
330.222	12.29
330.435	12.29
330.648	14.34
330.861	83.97
331.073	73.73
331.286	32.77
331.499	86.01
331.712	118.78
331.925	12.29
332.138	126.97
332.35	75.77
332.563	20.48
332.776	86.01
332.989	-40.96
333.202	86.01
333.414	45.06
333.627	28.67
333.84	30.72
334.053	90.11
334.265	-32.77
334.478	43.01
334.691	22.53
334.903	32.77
335.116	-6.14
335.329	61.44
335.541	38.91
335.754	108.54
335.966	38.91
336.179	75.77
336.392	34.82
336.604	32.77
336.817	49.15
337.029	55.3
337.242	36.86
337.454	65.54
337.667	71.68
337.88	53.25
338.092	24.58
338.305	110.59
338.517	-14.34
338.729	86.01
338.942	49.15
339.154	77.82
339.367	49.15
339.579	65.54
339.792	98.3
340.004	26.62
340.217	102.4
340.429	57.34
340.641	4.1
340.854	26.62
341.066	-18.43
341.278	77.82
341.491	49.15
341.703	22.53
341.915	81.92
342.128	43.01
342.34	75.77
342.552	-22.53
342.764	40.96
342.977	-20.48
343.189	8.19
343.401	122.88
343.613	47.1
343.826	75.77
344.038	43.01
344.25	14.34
344.462	88.06
344.674	122.88
344.886	69.63
345.099	43.01
345.311	-22.53
345.523	47.1
345.735	53.25
345.947	-2.05
346.159	79.87
346.371	14.34
346.583	34.82
346.795	88.06
347.007	59.39
347.219	45.06
347.431	45.06
347.643	106.49
347.855	-2.05
348.067	116.73
348.279	14.34
348.491	65.54
348.703	59.39
348.915	116.73
349.127	102.4
349.339	61.44
349.551	-55.3
349.763	106.49
349.975	47.1
350.187	-24.58
350.399	73.73
350.61	61.44
350.822	86.01
351.034	79.87
351.246	108.54
351.458	30.72
351.669	-28.67
351.881	88.06
352.093	43.01
352.305	77.82
352.517	45.06
352.728	61.44
352.94	0
353.152	53.25
353.363	69.63
353.575	55.3
353.787	4.1
353.999	71.68
354.21	100.35
354.422	18.43
354.633	71.68
354.845	49.15
355.057	36.86
355.268	81.92
355.48	16.38
355.692	106.49
355.903	4.1
356.115	114.69
356.326	2.05
356.538	45.06
356.749	71.68
356.961	108.54
357.172	14.34
357.384	55.3
357.595	79.87
357.807	36.86
358.018	30.72
358.23	-10.24
358.441	59.39
358.653	40.96
358.864	32.77
359.075	61.44
359.287	102.4
359.498	18.43
359.709	57.34
359.921	73.73
360.132	-2.05
360.344	63.49
360.555	61.44
360.766	90.11
360.977	10.24
361.189	59.39
361.4	71.68
361.611	63.49
361.823	2.05
362.034	96.25
362.245	77.82
362.456	45.06
362.667	-2.05
362.879	57.34
363.09	-8.19
363.301	40.96
363.512	98.3
363.723	-36.86
363.935	40.96
364.146	28.67
364.357	8.19
364.568	124.93
364.779	-24.58
364.99	12.29
365.201	49.15
365.412	36.86
365.623	45.06
365.834	59.39
366.045	49.15
366.256	94.21
366.467	18.43
366.678	63.49
366.889	51.2
367.1	34.82
367.311	47.1
367.522	32.77
367.733	32.77
367.944	20.48
368.155	8.19
368.366	51.2
368.577	-8.19
368.788	106.49
368.999	75.77
369.209	63.49
369.42	108.54
369.631	61.44
369.842	61.44
370.053	12.29
370.264	63.49
370.474	-47.1
370.685	65.54
370.896	57.34
371.107	79.87
371.317	94.21
371.528	141.31
371.739	45.06
371.95	61.44
372.16	65.54
372.371	18.43
372.582	102.4
372.792	51.2
373.003	83.97
373.214	57.34
373.424	65.54
373.635	65.54
373.846	49.15
374.056	65.54
374.267	75.77
374.477	94.21
374.688	2.05
374.898	47.1
375.109	32.77
375.319	86.01
375.53	98.3
375.74	79.87
375.951	18.43
376.161	59.39
376.372	86.01
376.582	116.73
376.793	88.06
377.003	69.63
377.214	59.39
377.424	26.62
377.635	67.58
377.845	61.44
378.055	126.97
378.266	59.39
378.476	151.55
378.686	32.77
378.897	14.34
379.107	22.53
379.317	38.91
379.528	38.91
379.738	137.21
379.948	98.3
380.158	36.86
380.369	-26.62
380.579	53.25
380.789	59.39
380.999	38.91
381.21	36.86
381.42	94.21
381.63	2.05
381.84	83.97
382.05	40.96
382.261	40.96
382.471	83.97
382.681	24.58
382.891	43.01
383.101	65.54
383.311	-22.53
383.521	81.92
383.731	110.59
383.941	55.3
384.151	36.86
384.361	18.43
384.571	-6.14
384.781	57.34
384.991	45.06
385.201	61.44
385.411	24.58
385.621	40.96
385.831	55.3
386.041	122.88
386.251	86.01
386.461	98.3
386.671	38.91
386.881	32.77
387.091	24.58
387.301	-6.14
387.511	92.16
387.72	86.01
387.93	49.15
388.14	63.49
388.35	55.3
388.56	59.39
388.769	81.92
388.979	65.54
389.189	92.16
389.399	102.4
389.609	112.64
389.818	14.34
390.028	71.68
390.238	10.24
390.447	26.62
390.657	6.14
390.867	38.91
391.076	81.92
391.286	86.01
391.496	43.01
391.705	34.82
391.915	133.12
392.125	104.45
392.334	63.49
392.544	26.62
392.753	28.67
392.963	143.36
393.172	49.15
393.382	90.11
393.591	100.35
393.801	51.2
394.01	143.36
394.22	122.88
394.429	77.82
394.639	88.06
394.848	86.01
395.058	47.1
395.267	63.49
395.477	81.92
395.686	118.78
395.895	86.01
396.105	81.92
396.314	59.39
396.524	69.63
396.733	36.86
396.942	149.5
397.152	73.73
397.361	114.69
397.57	65.54
397.78	145.41
397.989	77.82
398.198	129.02
398.407	4.1
398.617	98.3
398.826	83.97
399.035	108.54
399.244	63.49
399.453	114.69
399.663	49.15
399.872	116.73
400.081	116.73
400.29	63.49
400.499	145.41
400.708	143.36
400.917	129.02
401.127	77.82
401.336	165.89
401.545	98.3
401.754	139.26
401.963	122.88
402.172	178.17
402.381	118.78
402.59	98.3
402.799	94.21
403.008	137.21
403.217	90.11
403.426	110.59
403.635	167.93
403.844	163.84
404.053	98.3
404.262	131.07
404.471	174.08
404.68	92.16
404.888	231.42
405.097	141.31
405.306	212.99
405.515	198.65
405.724	92.16
405.933	196.61
406.142	147.45
406.35	241.66
406.559	212.99
406.768	110.59
406.977	182.27
407.185	243.71
407.394	151.55
407.603	174.08
407.812	219.13
408.02	258.04
408.229	223.23
408.438	172.03
408.646	237.56
408.855	108.54
409.064	227.32
409.272	253.95
409.481	299
409.69	296.96
409.898	241.66
410.107	301.05
410.315	294.91
410.524	256
410.733	299
410.941	258.04
411.15	270.33
411.358	325.63
411.567	397.31
411.775	389.11
411.984	327.68
412.192	350.2
412.401	397.31
412.609	319.48
412.818	419.83
413.026	405.5
413.234	391.16
413.443	452.6
413.651	487.42
413.86	487.42
414.068	534.52
414.276	538.62
414.485	548.86
414.693	540.66
414.901	518.14
415.11	565.24
415.318	630.77
415.526	565.24
415.734	669.69
415.943	716.79
416.151	712.69
416.359	700.41
416.567	829.43
416.776	731.12
416.984	737.27
417.192	794.61
417.4	894.96
417.608	749.56
417.817	942.07
418.025	821.24
418.233	870.39
418.441	929.78
418.649	1034.22
418.857	1028.08
419.065	1042.42
419.273	1026.03
419.481	1153.01
419.689	1193.97
419.897	1370.09
420.105	1271.79
420.313	1372.14
420.521	1396.71
420.729	1335.28
420.937	1443.82
421.145	1468.39
421.353	1542.12
421.561	1591.27
421.769	1685.48
421.977	1841.12
422.185	1632.23
422.393	1726.44
422.601	1814.5
422.809	2011.11
423.017	1865.7
423.224	2009.06
423.432	2021.35
423.64	2025.44
423.848	2258.91
424.056	2215.9
424.263	2418.65
424.471	2459.61
424.679	2441.18
424.887	2502.62
425.094	2639.83
425.302	2656.22
425.51	2750.42
425.718	2760.66
425.925	2840.53
426.133	2996.18
426.341	3174.35
426.548	3280.85
426.756	3219.41
426.964	3256.27
427.171	3520.46
427.379	3336.14
427.586	3559.37
427.794	3782.6
428.001	3823.56
428.209	4075.46
428.417	3862.47
428.624	4390.85
428.832	4411.32
429.039	4147.14
429.247	4360.13
429.454	4747.19
429.662	4865.97
429.869	4718.52
430.076	5078.96
430.284	5076.91
430.491	5164.98
430.699	5466.03
430.906	5099.44
431.114	5478.32
431.321	5623.72
431.528	5740.46
431.736	6176.67
431.943	6502.3
432.15	6356.9
432.358	6299.55
432.565	6680.47
432.772	6715.29
432.979	6942.61
433.187	6930.33
433.394	7149.46
433.601	7440.27
433.808	7645.07
434.016	7442.32
434.223	7831.43
434.43	8267.65
434.637	8136.58
434.844	8599.42
435.052	8875.9
435.259	8836.99
435.466	9054.07
435.673	8634.24
435.88	9408.37
436.087	9973.61
436.294	9959.27
436.501	9584.49
436.708	9820.01
436.915	10094.44
437.122	10639.2
437.329	10569.57
437.537	10876.76
437.743	11147.09
437.95	10819.42
438.157	11679.57
438.364	12113.74
438.571	12019.53
438.778	11919.18
438.985	13215.54
439.192	12736.32
439.399	13049.66
439.606	12664.64
439.813	13694.77
440.02	14151.46
440.227	14167.85
440.433	13965.1
440.64	14333.73
440.847	14245.67
441.054	14702.37
441.261	15550.23
441.467	15376.15
441.674	15957.77
441.881	16455.43
442.088	16297.74
442.294	16164.62
442.501	16512.77
442.708	16791.3
442.914	17422.07
443.121	18462.44
443.328	17927.92
443.534	18880.22
443.741	18478.82
443.948	18388.71
444.154	19824.34
444.361	19330.78
444.568	19740.37
444.774	19680.98
444.981	19904.21
445.187	20332.23
445.394	21239.48
445.6	21206.72
445.807	23058.08
446.013	22199.98
446.22	22271.66
446.426	23205.53
446.633	23389.85
446.839	24366.73
447.046	22912.67
447.252	24616.58
447.459	24794.76
447.665	24723.08
447.871	25544.31
448.078	26613.35
448.284	25339.52
448.491	25933.43
448.697	27086.43
448.903	27700.83
449.11	27643.48
449.316	26832.49
449.522	27465.31
449.728	28216.91
449.935	28237.39
450.141	28737.1
450.347	29161.03
450.553	27901.53
450.76	28464.72
450.966	29544
451.172	29183.55
451.378	29722.17
451.584	29240.9
451.791	30203.44
451.997	30006.84
452.203	30180.92
452.409	30430.77
452.615	30207.54
452.821	28907.08
453.027	28851.78
453.233	30246.45
453.44	28888.65
453.646	29206.08
453.852	29414.98
454.058	30148.15
454.264	29122.12
454.47	29832.76
454.676	28661.32
454.882	29861.43
455.088	27094.63
455.294	27393.63
455.5	27749.98
455.705	28235.35
455.911	26781.29
456.117	26687.08
456.323	26046.07
456.529	24811.14
456.735	25939.57
456.941	25228.93
457.147	24698.5
457.352	23844.5
457.558	23574.17
457.764	23672.47
457.97	23303.84
458.176	23082.66
458.381	23035.55
458.587	21599.93
458.793	21685.94
458.999	20645.57
459.204	22109.87
459.41	21231.29
459.616	20057.81
459.821	20010.7
460.027	19836.63
460.233	19193.56
460.438	18595.56
460.644	18890.46
460.85	17774.32
461.055	17630.96
461.261	17540.85
461.466	16088.84
461.672	15595.28
461.878	17000.19
462.083	16256.78
462.289	15730.45
462.494	15376.15
462.7	14747.42
462.905	14378.79
463.111	14696.22
463.316	14819.1
463.522	14507.81
463.727	14366.5
463.932	14604.07
464.138	14288.68
464.343	14473
464.549	14141.22
464.754	14454.56
464.959	14192.42
465.165	14331.69
465.37	13815.6
465.575	13428.53
465.781	13932.33
465.986	13842.22
466.191	13303.6
466.397	13127.48
466.602	12576.58
466.807	12920.63
467.012	12900.16
467.218	12810.04
467.423	12779.32
467.628	12836.67
467.833	13363
468.038	13141.82
468.244	12678.97
468.449	13023.03
468.654	12570.43
468.859	12717.89
469.064	12570.43
469.269	11831.12
469.474	12132.17
469.679	12324.68
469.885	11812.68
470.09	12101.45
470.295	12003.14
470.5	11822.92
470.705	11855.69
470.91	11503.44
471.115	11409.23
471.32	11587.41
471.525	11577.17
471.73	11179.86
471.935	10985.3
472.139	10852.19
472.344	10760.03
472.549	10839.9
472.754	10706.78
472.959	10434.4
473.164	10344.29
473.369	10274.66
473.574	10542.94
473.778	10682.2
473.983	10450.78
474.188	10278.76
474.393	9922.41
474.598	9912.17
474.802	9566.06
475.007	9670.51
475.212	9631.6
475.417	9379.7
475.621	9396.08
475.826	9508.72
476.031	9088.89
476.235	9226.1
476.44	9101.17
476.645	9035.64
476.849	9025.4
477.054	8884.09
477.259	8656.76
477.463	8777.59
477.668	8474.49
477.872	8652.67
478.077	8343.42
478.282	8357.76
478.486	8359.81
478.691	8220.55
478.895	8085.38
479.1	8081.28
479.304	8112
479.509	7962.5
479.713	8023.94
479.918	7817.1
480.122	7569.29
480.326	7786.38
480.531	7731.08
480.735	7739.27
480.94	7739.27
481.144	7923.59
481.348	7567.24
481.553	7763.85
481.757	7731.08
481.961	7655.31
482.166	7577.48
482.37	7638.92
482.574	7528.33
482.778	7559.05
482.983	7624.59
483.187	7524.24
483.391	7552.91
483.595	7546.76
483.8	7358.35
484.004	7659.4
484.208	7661.45
484.412	7600.01
484.616	7550.86
484.821	7554.96
485.025	7419.79
485.229	7387.02
485.433	7520.14
485.637	7655.31
485.841	7411.6
486.045	7501.71
486.249	7620.49
486.453	7495.57
486.657	7468.94
486.861	7462.8
487.065	7372.69
487.269	7417.74
487.473	7427.98
487.677	7618.44
487.881	7571.34
488.085	7589.77
488.289	7503.76
488.493	7546.76
488.697	7663.5
488.901	7643.02
489.105	7610.25
489.309	7552.91
489.512	7610.25
489.716	7669.64
489.92	7579.53
490.124	7638.92
490.328	7794.57
490.531	7600.01
490.735	7714.7
490.939	7608.2
491.143	7692.17
491.346	7792.52
491.55	7782.28
491.754	7804.81
491.958	7860.1
492.161	8116.1
492.365	8126.34
492.569	8017.8
492.772	7864.2
492.976	7980.93
493.18	8130.44
493.383	8241.03
493.587	8091.52
493.79	8333.18
493.994	8202.11
494.197	8218.5
494.401	8284.03
494.605	8546.17
494.808	8490.88
495.012	8392.58
495.215	8466.3
495.419	8499.07
495.622	8615.8
495.825	8806.27
496.029	8843.13
496.232	9142.13
496.436	8859.51
496.639	9258.87
496.843	9174.9
497.046	9170.8
497.249	9484.14
497.453	9365.36
497.656	9492.34
497.859	9490.29
498.063	9791.34
498.266	10057.57
498.469	9924.46
498.673	9928.55
498.876	10049.38
499.079	10325.86
499.282	10202.98
499.485	10588
499.689	10604.38
499.892	10596.19
500.095	10973.02
500.298	10921.82
500.501	10954.58
500.705	11206.49
500.908	11417.43
501.111	11450.19
501.314	11364.18
501.517	11511.63
501.72	11943.75
501.923	11880.27
502.126	12097.35
502.329	12314.44
502.532	12185.41
502.735	12603.2
502.938	12627.78
503.141	12738.37
503.344	13141.82
503.547	12977.98
503.75	13154.1
503.953	13233.97
504.156	13625.14
504.359	13666.1
504.562	13774.64
504.765	14194.47
504.968	14176.04
505.17	14636.83
505.373	14421.8
505.576	14767.9
505.779	14735.14
505.982	14954.27
506.185	15316.76
506.387	15111.96
506.59	15693.58
506.793	15810.32
506.996	15609.62
507.198	16293.64
507.401	16297.74
507.604	16365.32
507.807	16869.12
508.009	16529.16
508.212	17346.3
508.415	17264.38
508.617	17463.03
508.82	17622.77
509.022	17372.92
509.225	18061.04
509.428	18206.44
509.63	18427.62
509.833	18517.73
510.035	18810.59
510.238	18796.26
510.44	19248.86
510.643	19351.26
510.845	19648.21
511.048	19683.03
511.25	20207.31
511.453	20033.23
511.655	20801.22
511.858	20723.4
512.06	21110.46
512.262	21046.97
512.465	21010.11
512.667	21550.78
512.87	21896.88
513.072	21681.85
513.274	22369.96
513.477	22412.97
513.679	22675.11
513.881	22871.72
514.084	23146.14
514.286	23232.16
514.488	23283.36
514.69	24166.03
514.893	24209.04
515.095	24223.37
515.297	24684.17
515.499	25003.65
515.701	25312.89
515.904	25249.41
516.106	25652.86
516.308	26195.57
516.51	26326.64
516.712	26607.21
516.914	26504.81
517.116	27123.3
517.318	27317.86
517.52	27395.68
517.722	27610.71
517.925	27840.09
518.127	28448.33
518.329	28659.27
518.531	28776.01
518.733	29081.16
518.935	29271.62
519.136	29322.82
519.338	29875.77
519.54	29900.34
519.742	30318.13
519.944	30639.66
520.146	30928.42
520.348	31213.09
520.55	31454.75
520.752	31477.28
520.954	32339.47
521.155	31905.31
521.357	32462.35
521.559	32759.31
521.761	33154.57
521.963	33361.41
522.164	33613.31
522.366	33766.91
522.568	33969.66
522.77	34354.68
522.971	34754.03
523.173	34668.01
523.375	34594.29
523.576	34883.05
523.778	35517.92
523.98	35522.02
524.181	35587.55
524.383	36011.48
524.584	36449.75
524.786	36404.69
524.988	36431.32
525.189	36818.38
525.391	36937.16
525.592	37500.36
525.794	37584.32
525.995	37258.7
526.197	37320.13
526.398	37854.65
526.6	38352.31
526.801	38225.34
527.003	38565.3
527.204	38290.87
527.406	38653.36
527.607	38526.39
527.808	39198.12
528.01	38073.79
528.211	39065
528.412	39476.65
528.614	39804.32
528.815	39536.04
529.016	39970.21
529.218	39892.38
529.419	39886.24
529.62	40023.45
529.822	39550.37
530.023	39945.63
530.224	40168.86
530.425	39943.58
530.626	39837.09
530.828	39894.43
531.029	40758.67
531.23	40387.99
531.431	40435.1
531.632	40768.91
531.833	41143.69
532.035	40955.28
532.236	40684.95
532.437	41086.35
532.638	40687
532.839	40809.87
533.04	41235.85
533.241	40893.84
533.442	41377.16
533.643	40881.55
533.844	41217.42
534.045	41162.12
534.246	40783.25
534.447	41571.72
534.648	41223.56
534.849	41434.5
535.05	41180.56
535.251	41579.91
535.451	41287.05
535.652	41244.04
535.853	41198.99
536.054	41395.59
536.255	41459.08
536.456	41067.92
536.657	41801.09
536.857	41166.22
537.058	40865.17
537.259	41745.79
537.46	41233.8
537.66	41381.26
537.861	41495.94
538.062	41516.42
538.263	41203.08
538.463	41674.12
538.664	41442.7
538.865	41551.24
539.065	41399.69
539.266	41256.33
539.466	41899.39
539.667	40822.16
539.868	41825.67
540.068	41530.76
540.269	41133.45
540.469	41504.13
540.67	41092.49
540.87	41661.83
541.071	41166.22
541.271	41854.34
541.472	41442.7
541.672	40955.28
541.873	40936.85
542.073	40895.89
542.274	41729.41
542.474	41258.38
542.675	41254.28
542.875	41573.77
543.075	40918.42
543.276	40842.64
543.476	41530.76
543.676	40560.02
543.877	41151.88
544.077	41092.49
544.277	40945.04
544.478	41276.81
544.678	41497.99
544.878	41448.84
545.078	41352.58
545.279	40883.6
545.479	41475.46
545.679	41368.97
545.879	41407.88
546.079	41391.5
546.28	41358.73
546.48	41565.57
546.68	41205.13
546.88	41418.12
547.08	41299.34
547.28	41180.56
547.48	40998.29
547.68	41516.42
547.88	41012.62
548.081	41239.95
548.281	41366.92
548.481	41274.76
548.681	41518.47
548.881	41342.35
549.081	41133.45
549.28	40949.14
549.48	41264.52
549.68	41133.45
549.88	41794.95
550.08	40717.71
550.28	41196.94
550.48	40856.98
550.68	41532.81
550.88	40910.22
551.08	41002.38
551.279	41117.07
551.479	41186.7
551.679	41102.73
551.879	41100.68
552.079	41106.83
552.278	40986
552.478	41256.33
552.678	41352.58
552.878	41502.09
553.077	40797.59
553.277	40750.48
553.477	41614.72
553.676	40797.59
553.876	41045.39
554.076	41014.67
554.275	40973.71
554.475	40172.96
554.674	40795.54
554.874	40445.33
555.074	40762.77
555.273	40955.28
555.473	40803.73
555.672	40408.47
555.872	40314.26
556.071	40986
556.271	40859.02
556.47	40541.59
556.67	40064.41
556.869	40256.92
557.068	40656.28
557.268	40170.91
557.467	40211.87
557.667	40093.08
557.866	40459.67
558.065	40048.03
558.265	40037.79
558.464	39720.35
558.663	40240.54
558.863	39720.35
559.062	40140.19
559.261	39744.93
559.461	40091.04
559.66	39458.21
559.859	39663.01
560.058	39159.21
560.258	39685.54
560.457	39204.27
560.656	39601.57
560.855	39464.36
561.054	39787.94
561.253	38954.41
561.453	39476.65
561.652	39275.94
561.851	39277.99
562.05	39067.05
562.249	38815.15
562.448	39325.1
562.647	38985.13
562.846	38778.29
563.045	38901.17
563.244	38671.79
563.443	39177.64
563.642	38487.48
563.841	38755.76
564.04	38202.81
564.239	39089.58
564.438	38045.12
564.637	38540.72
564.836	38065.6
565.035	38118.84
565.234	38163.9
565.432	38372.79
565.631	37811.65
565.83	38286.78
566.029	38106.55
566.228	37940.67
566.427	37885.37
566.625	37875.13
566.824	37334.47
567.023	38084.03
567.222	37148.11
567.42	37627.33
567.619	37828.03
567.818	37201.35
568.016	37324.23
568.215	37602.75
568.414	37234.12
568.612	37676.48
568.811	37023.18
569.01	36650.45
569.208	36468.18
569.407	36771.28
569.605	36226.52
569.804	36634.07
570.002	36468.18
570.201	36879.82
570.4	36113.88
570.598	36128.22
570.797	36197.85
570.995	36138.46
571.193	35800.54
571.392	36255.19
571.59	35724.77
571.789	35956.19
571.987	35720.67
572.186	35325.41
572.384	35562.98
572.582	35417.57
572.781	35272.17
572.979	35007.98
573.177	35153.38
573.376	35141.1
573.574	34674.16
573.772	34817.52
573.971	34831.85
574.169	34389.49
574.367	34491.89
574.565	34944.49
574.763	34317.81
574.962	34373.11
575.16	34043.38
575.358	34080.25
575.556	33990.14
575.754	34239.99
575.952	33656.32
576.151	33807.87
576.349	33443.33
576.547	33433.09
576.745	33529.34
576.943	33578.5
577.141	33222.15
577.339	33062.41
577.537	32949.77
577.735	32972.3
577.933	33017.35
578.131	32833.04
578.329	32718.35
578.527	32433.68
578.725	32640.53
578.923	32888.33
579.121	32683.53
579.319	32261.65
579.516	32413.2
579.714	32472.59
579.912	32275.99
580.11	32124.44
580.308	31764
580.506	31614.49
580.704	31501.86
580.901	31976.98
581.099	31804.95
581.297	31047.21
581.495	31102.5
581.692	31358.5
581.89	31043.11
582.088	31233.57
582.285	30899.75
582.483	31270.43
582.681	30946.86
582.878	30815.79
583.076	30574.13
583.274	30942.76
583.471	30191.16
583.669	30389.81
583.866	30213.68
584.064	30172.72
584.262	29965.88
584.459	30277.17
584.657	29883.96
584.854	29947.45
585.052	29429.31
585.249	29769.27
585.447	29472.32
585.644	29318.72
585.841	29630.01
586.039	29804.09
586.236	29308.48
586.434	29365.82
586.631	28986.95
586.828	29064.77
587.026	29017.67
587.223	29075.01
587.42	28599.88
587.618	28857.93
587.815	28534.35
588.012	28622.41
588.21	28411.47
588.407	28661.32
588.604	28163.67
588.801	28040.79
588.999	28245.58
589.196	28081.75
589.393	28044.88
589.59	27780.7
589.787	27641.43
589.984	27821.66
590.182	27432.54
590.379	27518.56
590.576	27315.81
590.773	27690.59
590.97	27074.15
591.167	27358.81
591.364	27186.79
591.561	27434.59
591.758	26879.59
591.955	27184.74
592.152	26959.46
592.349	26752.62
592.546	27086.43
592.743	26654.31
592.94	26377.84
593.137	26785.38
593.334	26484.33
593.531	26273.39
593.727	26353.26
593.924	26801.77
594.121	26240.62
594.318	26375.79
594.515	25867.89
594.712	26093.17
594.908	25661.05
595.105	25808.5
595.302	25699.96
595.499	25828.98
595.696	25863.8
595.892	25409.15
596.089	25552.51
596.286	25755.25
596.482	25372.28
596.679	25364.09
596.876	25310.85
597.072	25028.23
597.269	25038.47
597.466	25069.19
597.662	24888.96
597.859	24997.51
598.055	24956.55
598.252	24471.18
598.448	24536.71
598.645	24430.22
598.841	24391.31
599.038	24589.96
599.234	24587.91
599.431	24168.08
599.627	24161.94
599.824	24211.09
600.02	24194.7
600.217	24024.72
600.413	23916.18
600.609	23647.9
600.806	23656.09
601.002	23940.75
601.198	23565.98
601.395	23260.83
601.591	23426.71
601.787	23355.04
601.984	23289.5
602.18	23688.85
602.376	23281.31
602.572	22759.08
602.769	23121.57
602.965	22996.64
603.161	23049.89
603.357	22484.65
603.553	22519.46
603.75	22853.28
603.946	22480.55
604.142	22744.74
604.338	22421.16
604.534	22427.31
604.73	22027.95
604.926	22093.49
605.122	22173.36
605.318	21845.68
605.514	21927.6
605.71	21855.92
605.906	21841.59
606.102	21892.79
606.298	21823.15
606.494	21669.56
606.69	21540.54
606.886	21497.53
607.082	21329.59
607.278	21536.44
607.474	21085.89
607.67	21407.42
607.866	21321.4
608.062	21511.86
608.257	21124.8
608.453	20907.71
608.649	21184.19
608.845	20848.32
609.041	20897.47
609.236	20901.57
609.432	20809.41
609.628	20743.88
609.824	20528.84
610.019	20842.18
610.215	20061.9
610.411	20481.74
610.606	20264.65
610.802	20207.31
610.998	20227.79
611.193	20242.12
611.389	20356.81
611.584	19979.98
611.78	20008.65
611.976	20160.2
612.171	20344.52
612.367	20160.2
612.562	19971.79
612.758	19642.07
612.953	19547.86
613.149	19857.1
613.344	19558.1
613.539	20100.81
613.735	19791.57
613.93	19709.65
614.126	19424.98
614.321	19781.33
614.517	19214.04
614.712	19320.54
614.907	19302.11
615.103	19279.58
615.298	18988.77
615.493	19179.23
615.688	18779.87
615.884	19224.28
616.079	18720.48
616.274	18935.52
616.47	18888.42
616.665	19140.32
616.86	18831.07
617.055	18593.51
617.25	18921.18
617.445	18869.98
617.641	18646.76
617.836	18708.19
618.031	18398.95
618.226	18534.12
618.421	18081.52
618.616	18513.64
618.811	18241.26
619.006	18484.97
619.201	18077.42
619.396	18271.98
619.591	17450.74
619.786	18091.76
619.981	17827.57
620.176	17856.24
620.371	17633.01
620.566	17645.3
620.761	17569.52
620.956	17649.39
621.151	17456.89
621.346	17569.52
621.541	17135.35
621.735	17286.9
621.93	17190.65
622.125	16924.41
622.32	16807.68
622.515	17174.27
622.709	16602.88
622.904	16412.42
623.099	16539.4
623.294	16713.47
623.488	16183.05
623.683	16330.5
623.878	16074.51
624.072	16197.38
624.267	16019.21
624.462	15951.63
624.656	15904.53
624.851	15712.02
625.046	15519.51
625.24	15468.31
625.435	15548.18
625.629	15306.52
625.824	15357.72
626.018	15488.79
626.213	15085.34
626.407	15300.37
626.602	14843.68
626.796	14997.28
626.991	14880.54
627.185	14706.46
627.38	14647.07
627.574	14487.33
627.768	14495.52
627.963	14311.21
628.157	14354.21
628.352	14495.52
628.546	14001.96
628.74	14335.78
628.935	14112.55
629.129	13848.36
629.323	13897.52
629.517	13692.72
629.712	14004.01
629.906	14026.54
630.1	13633.33
630.294	13412.15
630.489	13442.87
630.683	13799.21
630.877	13072.18
631.071	13446.96
631.265	13186.87
631.459	13334.32
631.653	13147.96
631.848	13090.62
632.042	12848.96
632.236	13041.47
632.43	12838.72
632.624	12963.64
632.818	12685.12
633.012	12586.82
633.206	12531.52
633.4	12566.34
633.594	12248.9
633.788	12240.71
633.982	12437.31
634.176	12379.97
634.369	12203.85
634.563	12103.5
634.757	11943.75
634.951	12011.34
635.145	11892.55
635.339	11876.17
635.533	11884.36
635.726	12025.67
635.92	11687.76
636.114	11622.22
636.308	11786.06
636.501	11511.63
636.695	11536.21
636.889	11384.66
637.083	11241.3
637.276	11403.09
637.47	11188.05
637.664	11085.65
637.857	11210.58
638.051	11188.05
638.244	10923.87
638.438	10950.49
638.632	10899.29
638.825	10970.97
639.019	10719.07
639.212	10497.89
639.406	10590.05
639.599	10637.15
639.793	10631.01
639.986	10397.54
640.18	10497.89
640.373	10278.76
640.567	10319.71
640.76	10182.5
640.954	10049.38
641.147	10260.32
641.34	10073.96
641.534	10151.78
641.727	10129.25
641.92	9766.76
642.114	9774.95
642.307	9774.95
642.5	9832.3
642.694	9615.21
642.887	9494.38
643.08	9703.28
643.273	9469.81
643.467	9518.96
643.66	9385.84
643.853	9535.34
644.046	9113.46
644.239	9226.1
644.432	9023.35
644.626	9187.19
644.819	9109.36
645.012	9138.04
645.205	8951.67
645.398	9133.94
645.591	8798.07
645.784	8810.36
645.977	8509.31
646.17	8882.04
646.363	8804.22
646.556	8468.35
646.749	8630.14
646.942	8693.63
647.135	8441.73
647.328	8480.64
647.521	8140.68
647.714	8193.92
647.907	8296.32
648.099	8114.05
648.292	8134.53
648.485	8232.83
648.678	8107.91
648.871	7954.31
649.064	7903.11
649.256	8122.24
649.449	7786.38
649.642	7907.21
649.835	7643.02
650.027	7606.16
650.22	7544.72
650.413	7565.2
650.605	7837.58
650.798	7692.17
650.991	7446.41
651.183	7624.59
651.376	7389.07
651.568	7272.34
651.761	7399.31
651.954	7309.2
652.146	7356.3
652.339	7358.35
652.531	7126.93
652.724	7069.59
652.916	7045.01
653.109	6965.14
653.301	6893.46
653.494	6989.72
653.686	6817.69
653.879	6858.65
654.071	6645.66
654.263	6725.53
654.456	6805.4
654.648	6696.86
654.84	6602.65
655.033	6737.82
655.225	6684.57
655.417	6481.82
655.61	6567.84
655.802	6647.71
655.994	6510.49
656.186	6447.01
656.379	6369.18
656.571	6496.16
656.763	6229.92
656.955	6176.67
657.148	6186.91
657.34	6309.79
657.532	6064.04
657.724	6031.27
657.916	6018.98
658.108	5984.16
658.3	5930.92
658.492	5945.25
658.684	6047.65
658.876	5760.94
659.068	5742.5
659.26	5906.34
659.452	5826.47
659.644	5529.52
659.836	5728.17
660.028	5603.24
660.22	5543.85
660.412	5511.08
660.604	5582.76
660.796	5545.9
660.988	5535.66
661.18	5408.69
661.372	5384.11
661.563	5459.88
661.755	5328.81
661.947	5263.28
662.139	5304.24
662.331	5244.85
662.522	5310.38
662.714	5261.23
662.906	5121.97
663.097	5068.72
663.289	5144.5
663.481	5076.91
663.673	5011.38
663.864	4992.95
664.056	4863.93
664.247	4906.93
664.439	4837.3
664.631	4956.08
664.822	4786.1
665.014	4810.68
665.205	4790.2
665.397	4747.19
665.588	4728.76
665.78	4642.75
665.971	4614.07
666.163	4722.62
666.354	4734.9
666.546	4657.08
666.737	4534.2
666.929	4534.2
667.12	4593.59
667.311	4669.37
667.503	4366.27
667.694	4333.5
667.885	4278.21
668.077	4345.79
668.268	4296.64
668.459	4429.76
668.651	4480.96
668.842	4382.65
669.033	4255.68
669.224	4396.99
669.416	4087.75
669.607	4165.57
669.798	4173.76
669.989	4251.58
670.18	4192.19
670.371	4104.13
670.563	4138.94
670.754	4251.58
670.945	4059.07
671.136	4007.87
671.327	4030.4
671.518	4100.03
671.709	3866.57
671.9	3829.7
672.091	3852.23
672.282	3915.72
672.473	3835.85
672.664	3925.96
672.855	3841.99
673.046	3866.57
673.237	3811.27
673.428	3749.83
673.619	3635.14
673.809	3887.04
674	3753.93
674.191	3741.64
674.382	3733.45
674.573	3612.62
674.764	3629
674.954	3690.44
675.145	3633.1
675.336	3676.1
675.527	3635.14
675.717	3717.06
675.908	3489.74
676.099	3483.59
676.289	3471.31
676.48	3604.43
676.671	3555.27
676.861	3588.04
677.052	3483.59
677.243	3456.97
677.433	3585.99
677.624	3436.49
677.814	3358.67
678.005	3520.46
678.195	3473.36
678.386	3420.11
678.576	3307.47
678.767	3280.85
678.957	3168.21
679.148	3315.66
679.338	3241.93
679.529	3207.12
679.719	3334.09
679.909	3225.55
680.1	3174.35
680.29	3215.31
680.481	3237.84
680.671	3147.73
680.861	3198.93
681.052	3164.11
681.242	3233.74
681.432	3256.27
681.622	3137.49
681.813	3112.91
682.003	3131.34
682.193	3145.68
682.383	3252.17
682.573	2998.23
682.764	3096.53
682.954	3211.22
683.144	2983.89
683.334	3035.09
683.524	3121.1
683.714	3067.86
683.904	3059.67
684.094	2979.79
684.284	2985.94
684.474	3018.71
684.664	3024.85
684.854	2990.03
685.044	2928.6
685.234	3028.95
685.424	3016.66
685.614	2975.7
685.804	2897.88
685.994	3002.32
686.184	3016.66
686.374	2932.69
686.564	2969.55
686.753	2885.59
686.943	2881.49
687.133	2928.6
687.323	2965.46
687.513	2775
687.702	2840.53
687.892	2772.95
688.082	2848.72
688.272	2899.92
688.461	2838.48
688.651	2826.2
688.841	2887.64
689.03	2895.83
689.22	2813.91
689.41	2873.3
689.599	2742.23
689.789	2867.16
689.979	2764.76
690.168	2871.25
690.358	2678.74
690.547	2697.17
690.737	2643.93
690.926	2752.47
691.116	2713.56
691.305	2721.75
691.495	2811.86
691.684	2809.81
691.874	2834.39
692.063	2770.9
692.252	2717.65
692.442	2691.03
692.631	2682.84
692.82	2818.01
693.01	2785.24
693.199	2750.42
693.388	2670.55
693.578	2676.7
693.767	2766.81
693.956	2803.67
694.146	2709.46
694.335	2633.69
694.524	2707.41
694.713	2684.89
694.902	2754.52
695.092	2738.13
695.281	2637.78
695.47	2746.33
695.659	2676.7
695.848	2744.28
696.037	2639.83
696.226	2703.32
696.415	2699.22
696.604	2834.39
696.793	2654.17
696.982	2643.93
697.171	2727.89
697.36	2721.75
697.549	2480.09
697.738	2590.68
697.927	2648.02
698.116	2605.02
698.305	2652.12
698.494	2684.89
698.683	2768.85
698.872	2748.37
699.061	2746.33
699.25	2668.5
699.438	2586.58
699.627	2643.93
699.816	2678.74
700.005	2592.73
700.193	2639.83
700.382	2686.94
700.571	2619.35
700.76	2545.63
700.948	2621.4
701.137	2590.68
701.326	2633.69
701.514	2607.06
701.703	2510.81
701.892	2549.72
702.08	2576.34
702.269	2607.06
702.457	2545.63
702.646	2521.05
702.834	2586.58
703.023	2519
703.212	2514.91
703.4	2543.58
703.589	2457.56
703.777	2619.35
703.965	2512.86
704.154	2611.16
704.342	2549.72
704.531	2596.82
704.719	2498.52
704.907	2465.75
705.096	2527.19
705.284	2582.49
705.472	2516.95
705.661	2449.37
705.849	2551.77
706.037	2543.58
706.226	2551.77
706.414	2461.66
706.602	2437.08
706.79	2402.27
706.979	2459.61
707.167	2357.21
707.355	2332.64
707.543	2447.32
707.731	2400.22
707.919	2338.78
708.107	2437.08
708.296	2265.05
708.484	2449.37
708.672	2418.65
708.86	2396.12
709.048	2308.06
709.236	2332.64
709.424	2478.04
709.612	2285.53
709.8	2340.83
709.988	2443.23
710.176	2265.05
710.364	2228.19
710.551	2187.23
710.739	2197.47
710.927	2308.06
711.115	2179.04
711.303	2236.38
711.491	2222.05
711.679	2199.52
711.866	2164.7
712.054	2131.94
712.242	2099.17
712.43	2131.94
712.617	2146.27
712.805	2123.74
712.993	2160.61
713.181	2056.16
713.368	2117.6
713.556	2109.41
713.744	2097.12
713.931	2160.61
714.119	2066.4
714.306	2086.88
714.494	2097.12
714.682	2123.74
714.869	2047.97
715.057	2084.83
715.244	2009.06
715.432	2129.89
715.619	2007.01
715.807	1920.99
715.994	2068.45
716.182	1988.58
716.369	2027.49
716.556	2047.97
716.744	1966.05
716.931	1937.38
717.119	2047.97
717.306	2000.87
717.493	1925.09
717.681	1906.66
717.868	1841.12
718.055	1863.65
718.242	1966.05
718.43	1818.6
718.617	1798.12
718.804	1916.9
718.991	1859.56
719.179	1845.22
719.366	1877.99
719.553	1935.33
719.74	1873.89
719.927	1841.12
720.114	1783.78
720.301	1796.07
720.488	1847.27
720.676	1757.16
720.863	1720.29
721.05	1767.4
721.237	1859.56
721.424	1822.69
721.611	1667.05
721.798	1675.24
721.985	1677.29
722.172	1683.43
722.358	1818.6
722.545	1691.62
722.732	1675.24
722.919	1746.92
723.106	1585.13
723.293	1705.96
723.48	1691.62
723.667	1746.92
723.853	1705.96
724.04	1654.76
724.227	1673.19
724.414	1669.09
724.6	1665
724.787	1611.75
724.974	1628.14
725.161	1617.9
725.347	1574.89
725.534	1599.46
725.72	1474.54
725.907	1581.03
726.094	1673.19
726.28	1464.3
726.467	1624.04
726.653	1486.83
726.84	1619.94
727.027	1517.54
727.213	1507.31
727.4	1599.46
727.586	1409
727.773	1587.18
727.959	1525.74
728.145	1468.39
728.332	1499.11
728.518	1591.27
728.705	1480.68
728.891	1564.65
729.077	1435.63
729.264	1486.83
729.45	1431.53
729.636	1454.06
729.823	1486.83
730.009	1429.48
730.195	1427.43
730.382	1538.02
730.568	1544.17
730.754	1327.08
730.94	1460.2
731.126	1466.35
731.313	1470.44
731.499	1513.45
731.685	1449.96
731.871	1456.11
732.057	1318.89
732.243	1384.43
732.429	1368.04
732.615	1429.48
732.801	1353.71
732.987	1335.28
733.173	1433.58
733.359	1376.24
733.545	1398.76
733.731	1431.53
733.917	1331.18
734.103	1290.22
734.289	1349.61
734.475	1386.47
734.661	1443.82
734.847	1308.65
735.033	1310.7
735.219	1310.7
735.404	1310.7
735.59	1411.05
735.776	1320.94
735.962	1296.36
736.148	1306.6
736.333	1298.41
736.519	1331.18
736.705	1216.49
736.89	1236.97
737.076	1230.83
737.262	1257.45
737.447	1214.45
737.633	1318.89
737.819	1222.64
738.004	1267.69
738.19	1181.68
738.375	1232.88
738.561	1171.44
738.747	1216.49
738.932	1245.17
739.118	1103.86
739.303	1193.97
739.489	1245.17
739.674	1183.73
739.859	1118.19
740.045	1110
740.23	1251.31
740.416	1136.62
740.601	1122.29
740.786	1052.66
740.972	1052.66
741.157	1103.86
741.342	1226.73
741.528	1120.24
741.713	1083.38
741.898	1052.66
742.084	1066.99
742.269	1064.94
742.454	1023.98
742.639	1085.42
742.824	1028.08
743.01	1046.51
743.195	1054.7
743.38	1103.86
743.565	1144.81
743.75	1060.85
743.935	1042.42
744.12	1077.23
744.305	1026.03
744.49	997.36
744.675	1105.9
744.86	995.31
745.045	1062.9
745.23	1048.56
745.415	1077.23
745.6	995.31
745.785	970.74
745.97	968.69
746.155	1015.79
746.34	991.22
746.525	929.78
746.71	933.87
746.895	972.79
747.079	1011.7
747.264	989.17
747.449	935.92
747.634	901.11
747.819	937.97
748.003	831.48
748.188	950.26
748.373	901.11
748.557	903.15
748.742	946.16
748.927	872.43
749.111	897.01
749.296	919.54
749.481	827.38
749.665	903.15
749.85	862.19
750.034	880.63
750.219	835.57
750.404	892.91
750.588	870.39
750.773	763.89
750.957	815.09
751.141	858.1
751.326	872.43
751.51	882.67
751.695	774.13
751.879	765.94
752.064	829.43
752.248	903.15
752.432	790.52
752.617	806.9
752.801	823.28
752.985	823.28
753.17	741.36
753.354	718.84
753.538	806.9
753.722	786.42
753.907	770.04
754.091	767.99
754.275	722.93
754.459	741.36
754.643	696.31
754.828	714.74
755.012	708.6
755.196	677.88
755.38	675.83
755.564	628.73
755.748	677.88
755.932	765.94
756.116	690.17
756.3	679.93
756.484	737.27
756.668	698.36
756.852	679.93
757.036	704.5
757.22	618.49
757.404	638.97
757.588	630.77
757.772	636.92
757.956	659.45
758.14	618.49
758.323	694.26
758.507	655.35
758.691	665.59
758.875	647.16
759.059	714.74
759.242	645.11
759.426	559.1
759.61	583.67
759.794	636.92
759.977	624.63
760.161	546.81
760.345	505.85
760.528	600.05
760.712	602.1
760.895	583.67
761.079	612.34
761.263	573.43
761.446	618.49
761.63	540.66
761.813	598.01
761.997	638.97
762.18	591.86
762.364	663.54
762.547	532.47
762.731	546.81
762.914	555
763.098	577.53
763.281	569.34
763.464	563.19
763.648	466.94
763.831	440.31
764.015	550.9
764.198	587.77
764.381	559.1
764.564	557.05
764.748	534.52
764.931	509.94
765.114	507.9
765.297	532.47
765.481	608.25
765.664	600.05
765.847	575.48
766.03	540.66
766.213	544.76
766.397	550.9
766.58	534.52
766.763	436.22
766.946	534.52
767.129	534.52
767.312	565.24
767.495	516.09
767.678	569.34
767.861	507.9
768.044	540.66
768.227	475.13
768.41	538.62
768.593	555
768.776	499.7
768.959	532.47
769.142	516.09
769.324	452.6
769.507	511.99
769.69	509.94
769.873	585.72
770.056	532.47
770.239	448.51
770.421	483.32
770.604	534.52
770.787	460.79
770.97	507.9
771.152	481.27
771.335	468.98
771.518	491.51
771.7	481.27
771.883	450.55
772.066	487.42
772.248	489.46
772.431	462.84
772.613	452.6
772.796	438.27
772.978	411.64
773.161	503.8
773.343	557.05
773.526	446.46
773.708	530.42
773.891	395.26
774.073	501.75
774.256	456.7
774.438	444.41
774.621	446.46
774.803	450.55
774.985	464.89
775.168	479.22
775.35	405.5
775.532	440.31
775.715	448.51
775.897	425.98
776.079	471.03
776.261	428.03
776.444	428.03
776.626	362.49
776.808	399.35
776.99	419.83
777.173	356.35
777.355	374.78
777.537	448.51
777.719	471.03
777.901	364.54
778.083	374.78
778.265	335.87
778.447	405.5
778.629	350.2
778.811	356.35
778.993	354.3
779.175	382.97
779.357	292.86
779.539	294.91
779.721	352.25
779.903	301.05
780.085	378.87
780.267	350.2
780.449	344.06
780.631	335.87
780.812	421.88
780.994	339.96
781.176	368.63
781.358	409.59
781.54	370.68
781.721	364.54
781.903	372.73
782.085	368.63
782.267	342.01
782.448	387.07
782.63	352.25
782.812	329.72
782.993	337.91
783.175	323.58
783.357	264.19
783.538	329.72
783.72	274.43
783.901	319.48
784.083	325.63
784.264	335.87
784.446	268.28
784.627	313.34
784.809	280.57
784.99	237.56
785.172	319.48
785.353	294.91
785.535	225.28
785.716	274.43
785.897	327.68
786.079	239.61
786.26	335.87
786.441	278.52
786.623	296.96
786.804	325.63
786.985	247.8
787.167	286.72
787.348	299
787.529	262.14
787.71	280.57
787.891	272.38
788.073	243.71
788.254	237.56
788.435	296.96
788.616	256
788.797	266.24
788.978	221.18
789.159	247.8
789.34	245.76
789.522	176.13
789.703	204.8
789.884	315.39
790.065	274.43
790.246	221.18
790.427	296.96
790.607	272.38
790.788	276.48
790.969	251.9
791.15	241.66
791.331	225.28
791.512	196.61
791.693	235.52
791.874	184.32
792.054	251.9
792.235	233.47
792.416	268.28
792.597	155.65
792.778	215.04
792.958	206.84
793.139	217.08
793.32	215.04
793.5	153.6
793.681	241.66
793.862	104.45
794.042	280.57
794.223	98.3
794.404	194.56
794.584	239.61
794.765	174.08
794.945	235.52
795.126	202.75
795.306	243.71
795.487	227.32
795.667	178.17
795.848	241.66
796.028	270.33
796.209	212.99
796.389	260.09
796.57	188.41
796.75	145.41
796.93	169.98
797.111	102.4
797.291	231.42
797.471	210.94
797.652	155.65
797.832	231.42
798.012	176.13
798.192	192.51
798.373	210.94
798.553	194.56
798.733	137.21
798.913	98.3
799.093	96.25
799.274	155.65
799.454	186.37
799.634	143.36
799.814	192.51
799.994	172.03
800.174	133.12
800.354	137.21
800.534	167.93
800.714	172.03
800.894	141.31
801.074	147.45
801.254	184.32
801.434	86.01
801.614	90.11
801.794	155.65
801.974	317.44
802.154	190.46
802.334	143.36
802.514	135.17
802.693	159.74
802.873	135.17
803.053	167.93
803.233	196.61
803.413	159.74
803.592	210.94
803.772	133.12
803.952	114.69
804.131	165.89
804.311	116.73
804.491	172.03
804.67	172.03
804.85	157.69
805.03	86.01
805.209	141.31
805.389	167.93
805.568	204.8
805.748	159.74
805.928	100.35
806.107	176.13
806.287	184.32
806.466	141.31
806.646	167.93
806.825	90.11
807.004	133.12
807.184	174.08
807.363	135.17
807.543	135.17
807.722	112.64
807.901	182.27
808.081	186.37
808.26	143.36
808.439	169.98
808.619	114.69
808.798	102.4
808.977	102.4
809.156	163.84
809.336	108.54
809.515	135.17
809.694	157.69
809.873	83.97
810.052	79.87
810.231	159.74
810.411	133.12
810.59	69.63
810.769	149.5
810.948	75.77
811.127	86.01
811.306	73.73
811.485	116.73
811.664	98.3
811.843	73.73
812.022	79.87
812.201	163.84
812.38	108.54
812.559	83.97
812.737	120.83
812.916	71.68
813.095	110.59
813.274	24.58
813.453	180.22
813.632	108.54
813.811	182.27
813.989	51.2
814.168	126.97
814.347	98.3
814.526	61.44
814.704	51.2
814.883	112.64
815.062	131.07
815.24	165.89
815.419	75.77
815.598	63.49
815.776	163.84
815.955	94.21
816.133	86.01
816.312	124.93
816.49	69.63
816.669	172.03
816.847	108.54
817.026	147.45
817.204	120.83
817.383	67.58
817.561	83.97
817.74	180.22
817.918	90.11
818.097	77.82
818.275	53.25
818.453	45.06
818.632	79.87
818.81	169.98
818.988	90.11
819.167	169.98
819.345	135.17
819.523	100.35
819.701	94.21
819.879	118.78
820.058	137.21
820.236	55.3
820.414	38.91
820.592	86.01
820.77	112.64
820.948	100.35
821.127	88.06
821.305	59.39
821.483	47.1
821.661	124.93
821.839	92.16
822.017	63.49
822.195	114.69
822.373	124.93
822.551	49.15
822.729	81.92
822.907	61.44
823.085	55.3
823.262	83.97
823.44	36.86
823.618	98.3
823.796	86.01
823.974	129.02
824.152	165.89
824.329	139.26
824.507	53.25
824.685	71.68
824.863	79.87
825.04	53.25
825.218	55.3
825.396	63.49
825.574	98.3
825.751	104.45
825.929	43.01
826.107	51.2
826.284	59.39
826.462	40.96
826.639	86.01
826.817	16.38
826.994	104.45
827.172	43.01
827.349	98.3
827.527	112.64
827.704	49.15
827.882	126.97
828.059	94.21
828.237	104.45
828.414	55.3
828.591	73.73
828.769	40.96
828.946	16.38
829.124	141.31
829.301	57.34
829.478	57.34
829.655	32.77
829.833	71.68
830.01	116.73
830.187	75.77
830.364	75.77
830.542	75.77
830.719	49.15
830.896	108.54
831.073	32.77
831.25	98.3
831.427	106.49
831.604	34.82
831.782	4.1
831.959	45.06
832.136	102.4
832.313	-8.19
832.49	106.49
832.667	88.06
832.844	71.68
833.021	141.31
833.198	4.1
833.374	102.4
833.551	88.06
833.728	83.97
833.905	26.62
834.082	69.63
834.259	77.82
834.436	61.44
834.612	4.1
834.789	92.16
834.966	40.96
835.143	106.49
835.319	57.34
835.496	86.01
835.673	-2.05
835.85	28.67
836.026	90.11
836.203	96.25
836.38	90.11
836.556	79.87
836.733	16.38
836.909	110.59
837.086	4.1
837.262	18.43
837.439	98.3
837.616	40.96
837.792	69.63
837.968	45.06
838.145	77.82
838.321	38.91
838.498	43.01
838.674	32.77
838.851	61.44
839.027	67.58
839.203	69.63
839.38	51.2
839.556	40.96
839.732	83.97
839.909	98.3
840.085	18.43
840.261	59.39
840.437	38.91
840.614	51.2
840.79	110.59
840.966	45.06
841.142	71.68
841.318	45.06
841.494	55.3
841.671	102.4
841.847	75.77
842.023	139.26
842.199	0
842.375	47.1
842.551	51.2
842.727	22.53
842.903	4.1
843.079	2.05
843.255	38.91
843.431	51.2
843.607	40.96
843.783	26.62
843.959	83.97
844.134	71.68
844.31	73.73
844.486	34.82
844.662	0
844.838	61.44
845.013	24.58
845.189	20.48
845.365	32.77
845.541	43.01
845.716	16.38
845.892	73.73
846.068	86.01
846.244	6.14
846.419	40.96
846.595	96.25
846.77	59.39
846.946	63.49
847.122	45.06
847.297	36.86
847.473	81.92
847.648	86.01
847.824	69.63
847.999	24.58
848.175	67.58
848.35	28.67
848.526	12.29
848.701	-6.14
848.876	83.97
849.052	90.11
849.227	73.73
849.403	67.58
849.578	81.92
849.753	49.15
849.929	88.06
850.104	51.2
850.279	12.29
850.454	36.86
850.63	61.44
850.805	14.34
850.98	47.1
851.155	34.82
851.33	38.91
851.505	36.86
851.681	55.3
851.856	53.25
852.031	24.58
852.206	8.19
852.381	71.68
852.556	26.62
852.731	51.2
852.906	71.68
853.081	65.54
853.256	53.25
853.431	65.54
853.606	-14.34
853.781	43.01
853.956	71.68
854.131	116.73
854.305	77.82
854.48	0
854.655	16.38
854.83	16.38
855.005	43.01
855.18	22.53
855.354	77.82
855.529	86.01
855.704	14.34
855.879	-28.67
856.053	4.1
856.228	83.97
856.403	75.77
856.577	83.97
856.752	-26.62
856.926	-30.72
857.101	-65.53
857.276	18.43
857.45	43.01
857.625	94.21
857.799	55.3
857.974	57.34
858.148	45.06
858.323	49.15
858.497	36.86
858.672	51.2
858.846	6.14
859.02	32.77
859.195	36.86
859.369	40.96
859.543	88.06
859.718	145.41
859.892	51.2
860.066	40.96
860.241	4.1
860.415	55.3
860.589	69.63
860.763	16.38
860.938	-38.91
861.112	22.53
861.286	30.72
861.46	26.62
861.634	38.91
861.808	69.63
861.982	-14.34
862.157	40.96
862.331	20.48
862.505	57.34
862.679	28.67
862.853	43.01
863.027	75.77
863.201	61.44
863.375	71.68
863.549	86.01
863.722	16.38
863.896	49.15
864.07	43.01
864.244	28.67
864.418	49.15
864.592	20.48
864.766	-4.1
864.939	8.19
865.113	28.67
865.287	57.34
865.461	63.49
865.634	-22.53
865.808	34.82
865.982	96.25
866.156	88.06
866.329	36.86
866.503	-38.91
866.676	118.78
866.85	16.38
867.024	53.25
867.197	36.86
867.371	10.24
867.544	18.43
867.718	-10.24
867.891	24.58
868.065	16.38
868.238	12.29
868.412	34.82
868.585	53.25
868.759	22.53
868.932	22.53
869.105	61.44
869.279	-2.05
869.452	16.38
869.625	34.82
869.799	59.39
869.972	0
870.145	26.62
870.319	-6.14
870.492	73.73
870.665	45.06
870.838	88.06
871.011	-6.14
871.185	14.34
871.358	69.63
871.531	40.96
871.704	32.77
871.877	69.63
872.05	4.1
872.223	10.24
872.396	6.14
872.569	36.86
872.742	24.58
872.915	71.68
873.088	2.05
873.261	18.43
873.434	14.34
873.607	22.53
873.78	32.77
873.953	20.48
874.126	55.3
874.299	73.73
874.471	96.25
874.644	2.05
874.817	96.25
874.99	40.96
875.163	-8.19
875.335	-24.58
875.508	-24.58
875.681	20.48
875.853	-45.06
876.026	96.25
876.199	61.44
876.371	81.92
876.544	22.53
876.717	81.92
876.889	20.48
877.062	-2.05
877.234	43.01
877.407	32.77
877.579	77.82
877.752	6.14
877.924	53.25
878.097	53.25
878.269	77.82
878.442	32.77
878.614	0
878.786	57.34
878.959	75.77
879.131	-30.72
879.303	38.91
879.476	10.24
879.648	-18.43
879.82	51.2
879.993	4.1
880.165	2.05
880.337	49.15
880.509	77.82
880.681	47.1
880.854	-6.14
881.026	51.2
881.198	-12.29
881.37	26.62
881.542	2.05
881.714	8.19
881.886	57.34
882.058	24.58
882.23	57.34
882.402	8.19
882.574	86.01
882.746	28.67
882.918	-28.67
883.09	38.91
883.262	20.48
883.434	63.49
883.606	-2.05
883.778	-4.1
883.95	120.83
884.122	14.34
884.293	-36.86
884.465	43.01
884.637	-2.05
884.809	-2.05
884.98	51.2
885.152	2.05
885.324	12.29
885.496	36.86
885.667	-28.67
885.839	-65.53
886.011	69.63
886.182	30.72
886.354	-4.1
886.525	18.43
886.697	59.39
886.869	-30.72
887.04	47.1
887.212	12.29
887.383	18.43
887.555	73.73
887.726	30.72
887.897	4.1
888.069	20.48
888.24	-38.91
888.412	65.54
888.583	-26.62
888.754	-22.53
888.926	18.43
889.097	36.86
889.268	43.01
889.44	43.01
889.611	-36.86
889.782	51.2
889.953	-14.34
890.125	36.86
890.296	-32.77
890.467	45.06
890.638	26.62
890.809	61.44
890.98	20.48
891.151	55.3
891.323	55.3
891.494	26.62
891.665	30.72
891.836	-69.63
892.007	34.82
892.178	-16.38
892.349	38.91
892.52	-16.38
892.691	12.29
892.862	18.43
893.032	32.77
893.203	75.77
893.374	-4.1
893.545	30.72
893.716	16.38
893.887	90.11
894.057	-28.67
894.228	8.19
894.399	-4.1
894.57	6.14
894.74	-75.77
894.911	34.82
895.082	-14.34
895.253	0
895.423	67.58
895.594	77.82
895.764	24.58
895.935	55.3
896.106	-14.34
896.276	65.54
896.447	47.1
896.617	71.68
896.788	32.77
896.958	30.72
897.129	34.82
897.299	-51.2
897.47	14.34
897.64	59.39
897.81	102.4
897.981	26.62
898.151	81.92
898.322	12.29
898.492	-6.14
898.662	30.72
898.832	69.63
899.003	-2.05
899.173	36.86
899.343	71.68
899.513	22.53
