Data from USB4F104151__236__14-00-54-898.txt Node

Date: Thu Mar 13 14:00:54 EDT 2025
User: louis
Spectrometer: USB4F10415
Trigger mode: 4
Integration Time (sec): 1.000000E-2
Scans to average: 1
Electric dark correction enabled: true
Nonlinearity correction enabled: false
Boxcar width: 0
XAxis mode: Wavelengths
Number of Pixels in Spectrum: 3648
>>>>>Begin Spectral Data<<<<<
178.204	-87.21
178.424	-87.21
178.644	-87.21
178.864	-76.97
179.084	-68.78
179.304	-13.48
179.524	25.43
179.744	-31.91
179.964	-38.06
180.184	-13.48
180.404	56.15
180.624	-7.34
180.844	50
181.064	27.48
181.283	-5.29
181.503	-33.96
181.723	-15.53
181.943	-3.24
182.163	-40.11
182.383	-52.39
182.602	-11.43
182.822	-27.82
183.042	-29.87
183.262	2.9
183.482	29.52
183.701	-54.44
183.921	-27.82
184.141	-25.77
184.361	19.29
184.58	-38.06
184.8	-70.83
185.02	-27.82
185.239	31.57
185.459	21.33
185.679	-7.34
185.898	-36.01
186.118	-9.39
186.338	21.33
186.557	23.38
186.777	-44.2
186.997	-15.53
187.216	37.72
187.436	11.09
187.655	17.24
187.875	-17.58
188.095	-17.58
188.314	11.09
188.534	-36.01
188.753	37.72
188.973	58.2
189.192	0.85
189.412	11.09
189.631	41.81
189.851	-21.67
190.07	17.24
190.29	-13.48
190.509	23.38
190.729	15.19
190.948	47.96
191.168	50
191.387	0.85
191.607	-76.97
191.826	56.15
192.045	-56.49
192.265	17.24
192.484	-1.19
192.704	27.48
192.923	-11.43
193.142	43.86
193.362	0.85
193.581	-25.77
193.8	23.38
194.02	-72.87
194.239	-29.87
194.458	-62.63
194.678	-44.2
194.897	-11.43
195.116	29.52
195.335	2.9
195.555	-19.63
195.774	-17.58
195.993	11.09
196.212	-25.77
196.432	-70.83
196.651	-17.58
196.87	-29.87
197.089	33.62
197.308	-52.39
197.528	33.62
197.747	-50.35
197.966	-33.96
198.185	-7.34
198.404	33.62
198.623	-15.53
198.842	13.14
199.062	-56.49
199.281	50
199.5	4.95
199.719	58.2
199.938	-33.96
200.157	-7.34
200.376	-44.2
200.595	35.67
200.814	-23.72
201.033	-31.91
201.252	47.96
201.471	-44.2
201.69	31.57
201.909	-5.29
202.128	0.85
202.347	33.62
202.566	-33.96
202.785	29.52
203.004	7
203.223	27.48
203.442	-40.11
203.661	15.19
203.879	-9.39
204.098	-48.3
204.317	-23.72
204.536	47.96
204.755	-70.83
204.974	2.9
205.193	-27.82
205.411	90.96
205.63	-27.82
205.849	19.29
206.068	-17.58
206.287	0.85
206.505	19.29
206.724	33.62
206.943	9.05
207.162	0.85
207.381	2.9
207.599	-68.78
207.818	-91.31
208.037	-19.63
208.255	-40.11
208.474	66.39
208.693	-11.43
208.911	41.81
209.13	21.33
209.349	43.86
209.567	-15.53
209.786	-46.25
210.005	-40.11
210.223	4.95
210.442	-7.34
210.661	-36.01
210.879	9.05
211.098	-11.43
211.316	-7.34
211.535	-7.34
211.753	-46.25
211.972	21.33
212.191	-7.34
212.409	-21.67
212.628	-1.19
212.846	19.29
213.065	54.1
213.283	-56.49
213.502	-38.06
213.72	-31.91
213.938	-64.68
214.157	60.24
214.375	-17.58
214.594	-1.19
214.812	0.85
215.031	-50.35
215.249	-21.67
215.467	-15.53
215.686	13.14
215.904	17.24
216.122	-54.44
216.341	19.29
216.559	0.85
216.778	25.43
216.996	-7.34
217.214	41.81
217.432	41.81
217.651	11.09
217.869	-15.53
218.087	41.81
218.306	25.43
218.524	41.81
218.742	41.81
218.96	-19.63
219.179	-58.54
219.397	-52.39
219.615	-9.39
219.833	0.85
220.051	-36.01
220.27	80.72
220.488	-7.34
220.706	-38.06
220.924	-36.01
221.142	-19.63
221.36	-46.25
221.578	-23.72
221.796	-9.39
222.015	4.95
222.233	35.67
222.451	58.2
222.669	-29.87
222.887	33.62
223.105	-19.63
223.323	-1.19
223.541	7
223.759	11.09
223.977	13.14
224.195	25.43
224.413	-31.91
224.631	23.38
224.849	33.62
225.067	31.57
225.285	-44.2
225.503	-21.67
225.721	-68.78
225.939	56.15
226.157	27.48
226.375	93.01
226.592	33.62
226.81	9.05
227.028	-56.49
227.246	56.15
227.464	-52.39
227.682	33.62
227.9	-40.11
228.117	54.1
228.335	29.52
228.553	-81.07
228.771	52.05
228.989	-31.91
229.206	39.76
229.424	37.72
229.642	-13.48
229.86	-42.15
230.077	21.33
230.295	2.9
230.513	-54.44
230.731	11.09
230.948	50
231.166	2.9
231.384	-74.92
231.601	-15.53
231.819	25.43
232.037	43.86
232.254	-19.63
232.472	45.91
232.689	-9.39
232.907	54.1
233.125	64.34
233.342	-7.34
233.56	-68.78
233.777	-48.3
233.995	39.76
234.213	37.72
234.43	-5.29
234.648	-58.54
234.865	-3.24
235.083	15.19
235.3	9.05
235.518	19.29
235.735	-38.06
235.953	29.52
236.17	-15.53
236.388	29.52
236.605	9.05
236.822	41.81
237.04	0.85
237.257	11.09
237.475	4.95
237.692	-48.3
237.909	-5.29
238.127	2.9
238.344	-13.48
238.562	-25.77
238.779	2.9
238.996	-11.43
239.214	-33.96
239.431	41.81
239.648	54.1
239.865	78.68
240.083	-48.3
240.3	-29.87
240.517	-13.48
240.735	43.86
240.952	-48.3
241.169	37.72
241.386	0.85
241.603	62.29
241.821	50
242.038	11.09
242.255	-31.91
242.472	2.9
242.689	-29.87
242.907	80.72
243.124	-23.72
243.341	-13.48
243.558	-48.3
243.775	50
243.992	0.85
244.209	-36.01
244.426	37.72
244.643	-33.96
244.86	-3.24
245.078	9.05
245.295	-31.91
245.512	23.38
245.729	-72.87
245.946	0.85
246.163	-119.98
246.38	33.62
246.597	52.05
246.814	52.05
247.031	-72.87
247.248	-13.48
247.464	50
247.681	-40.11
247.898	-3.24
248.115	-56.49
248.332	-36.01
248.549	-46.25
248.766	35.67
248.983	45.91
249.2	45.91
249.417	60.24
249.633	-5.29
249.85	31.57
250.067	-31.91
250.284	4.95
250.501	-21.67
250.717	-31.91
250.934	-9.39
251.151	35.67
251.368	-48.3
251.585	37.72
251.801	-62.63
252.018	27.48
252.235	52.05
252.451	-1.19
252.668	-56.49
252.885	7
253.102	-36.01
253.318	-15.53
253.535	-23.72
253.752	-3.24
253.968	-40.11
254.185	11.09
254.401	7
254.618	90.96
254.835	-58.54
255.051	-11.43
255.268	-46.25
255.484	50
255.701	-19.63
255.917	-40.11
256.134	-76.97
256.351	62.29
256.567	-56.49
256.784	-40.11
257	-38.06
257.217	70.48
257.433	-27.82
257.65	17.24
257.866	17.24
258.082	-27.82
258.299	19.29
258.515	-79.02
258.732	0.85
258.948	25.43
259.165	0.85
259.381	-1.19
259.597	4.95
259.814	-33.96
260.03	-25.77
260.246	-56.49
260.463	39.76
260.679	2.9
260.895	-99.5
261.112	-3.24
261.328	33.62
261.544	19.29
261.761	2.9
261.977	58.2
262.193	19.29
262.409	33.62
262.626	-21.67
262.842	11.09
263.058	-11.43
263.274	43.86
263.49	-3.24
263.707	2.9
263.923	35.67
264.139	-42.15
264.355	-38.06
264.571	-23.72
264.787	15.19
265.004	76.63
265.22	-36.01
265.436	-48.3
265.652	11.09
265.868	43.86
266.084	-56.49
266.3	-54.44
266.516	-1.19
266.732	-7.34
266.948	-13.48
267.164	27.48
267.38	0.85
267.596	105.3
267.812	99.16
268.028	-17.58
268.244	58.2
268.46	4.95
268.676	95.06
268.892	27.48
269.108	54.1
269.324	70.48
269.54	-44.2
269.756	21.33
269.972	21.33
270.188	-21.67
270.403	-31.91
270.619	35.67
270.835	-42.15
271.051	25.43
271.267	-38.06
271.483	21.33
271.698	9.05
271.914	41.81
272.13	31.57
272.346	31.57
272.562	-29.87
272.777	37.72
272.993	68.44
273.209	33.62
273.425	19.29
273.64	-36.01
273.856	-48.3
274.072	19.29
274.287	-56.49
274.503	43.86
274.719	-11.43
274.934	-76.97
275.15	-46.25
275.366	-17.58
275.581	-21.67
275.797	-23.72
276.012	-11.43
276.228	17.24
276.444	13.14
276.659	-23.72
276.875	-48.3
277.09	21.33
277.306	-48.3
277.521	2.9
277.737	-46.25
277.952	45.91
278.168	-27.82
278.383	23.38
278.599	4.95
278.814	-23.72
279.03	-1.19
279.245	-9.39
279.461	-17.58
279.676	41.81
279.892	-40.11
280.107	-13.48
280.322	27.48
280.538	4.95
280.753	-19.63
280.969	41.81
281.184	0.85
281.399	7
281.615	21.33
281.83	-1.19
282.045	-58.54
282.26	35.67
282.476	-15.53
282.691	-3.24
282.906	-19.63
283.122	-29.87
283.337	-66.73
283.552	4.95
283.767	19.29
283.983	29.52
284.198	-31.91
284.413	39.76
284.628	-7.34
284.843	-54.44
285.058	-31.91
285.274	41.81
285.489	70.48
285.704	21.33
285.919	19.29
286.134	-81.07
286.349	-21.67
286.564	-15.53
286.779	-5.29
286.995	29.52
287.21	-60.59
287.425	19.29
287.64	9.05
287.855	-31.91
288.07	-46.25
288.285	21.33
288.5	-15.53
288.715	-52.39
288.93	-23.72
289.145	-40.11
289.36	-42.15
289.575	-27.82
289.79	-13.48
290.004	88.92
290.219	21.33
290.434	58.2
290.649	-23.72
290.864	37.72
291.079	25.43
291.294	-7.34
291.509	-54.44
291.724	52.05
291.938	-36.01
292.153	-38.06
292.368	4.95
292.583	-21.67
292.798	15.19
293.012	-66.73
293.227	25.43
293.442	-7.34
293.657	13.14
293.871	-7.34
294.086	-9.39
294.301	29.52
294.516	17.24
294.73	-17.58
294.945	-31.91
295.16	11.09
295.374	33.62
295.589	0.85
295.804	23.38
296.018	35.67
296.233	-50.35
296.447	-31.91
296.662	-70.83
296.877	23.38
297.091	-40.11
297.306	39.76
297.52	-13.48
297.735	7
297.949	4.95
298.164	39.76
298.378	11.09
298.593	31.57
298.807	-19.63
299.022	17.24
299.236	52.05
299.451	-7.34
299.665	29.52
299.88	29.52
300.094	78.68
300.309	-3.24
300.523	27.48
300.737	11.09
300.952	52.05
301.166	-1.19
301.381	-33.96
301.595	31.57
301.809	-13.48
302.024	9.05
302.238	15.19
302.452	45.91
302.667	-19.63
302.881	33.62
303.095	19.29
303.309	-1.19
303.524	43.86
303.738	-21.67
303.952	-42.15
304.166	56.15
304.381	-21.67
304.595	19.29
304.809	17.24
305.023	-17.58
305.237	-38.06
305.452	-72.87
305.666	-19.63
305.88	-9.39
306.094	31.57
306.308	-38.06
306.522	103.25
306.736	-91.31
306.95	-40.11
307.164	17.24
307.379	-7.34
307.593	58.2
307.807	99.16
308.021	-1.19
308.235	13.14
308.449	21.33
308.663	35.67
308.877	68.44
309.091	-5.29
309.305	17.24
309.519	-72.87
309.733	33.62
309.947	-25.77
310.161	93.01
310.374	-25.77
310.588	17.24
310.802	-27.82
311.016	-1.19
311.23	-11.43
311.444	9.05
311.658	13.14
311.872	15.19
312.085	33.62
312.299	2.9
312.513	-46.25
312.727	47.96
312.941	-36.01
313.154	74.58
313.368	-56.49
313.582	25.43
313.796	-48.3
314.009	-54.44
314.223	-36.01
314.437	-21.67
314.651	39.76
314.864	-33.96
315.078	25.43
315.292	-5.29
315.505	-11.43
315.719	11.09
315.933	78.68
316.146	0.85
316.36	84.82
316.573	-23.72
316.787	95.06
317.001	0.85
317.214	-97.45
317.428	15.19
317.641	-38.06
317.855	-15.53
318.068	-27.82
318.282	-72.87
318.495	11.09
318.709	-5.29
318.922	-23.72
319.136	37.72
319.349	15.19
319.563	62.29
319.776	31.57
319.99	-13.48
320.203	-46.25
320.417	76.63
320.63	-58.54
320.843	23.38
321.057	-13.48
321.27	17.24
321.483	52.05
321.697	41.81
321.91	-9.39
322.124	19.29
322.337	9.05
322.55	-21.67
322.763	-21.67
322.977	21.33
323.19	13.14
323.403	27.48
323.617	-1.19
323.83	17.24
324.043	31.57
324.256	-50.35
324.469	-9.39
324.683	52.05
324.896	-36.01
325.109	72.53
325.322	-5.29
325.535	-15.53
325.748	-13.48
325.962	11.09
326.175	17.24
326.388	0.85
326.601	17.24
326.814	-7.34
327.027	23.38
327.24	54.1
327.453	-91.31
327.666	54.1
327.879	9.05
328.092	-60.59
328.305	-3.24
328.518	41.81
328.731	37.72
328.944	-21.67
329.157	-38.06
329.37	90.96
329.583	50
329.796	4.95
330.009	52.05
330.222	-31.91
330.435	68.44
330.648	-66.73
330.861	-40.11
331.073	-11.43
331.286	-48.3
331.499	0.85
331.712	25.43
331.925	-83.11
332.138	7
332.35	127.83
332.563	-62.63
332.776	-7.34
332.989	11.09
333.202	2.9
333.414	-17.58
333.627	50
333.84	-27.82
334.053	-15.53
334.265	39.76
334.478	-44.2
334.691	47.96
334.903	41.81
335.116	4.95
335.329	-7.34
335.541	72.53
335.754	11.09
335.966	9.05
336.179	74.58
336.392	-62.63
336.604	68.44
336.817	29.52
337.029	43.86
337.242	23.38
337.454	33.62
337.667	11.09
337.88	103.25
338.092	64.34
338.305	7
338.517	-11.43
338.729	78.68
338.942	58.2
339.154	58.2
339.367	-56.49
339.579	43.86
339.792	-40.11
340.004	80.72
340.217	29.52
340.429	84.82
340.641	21.33
340.854	39.76
341.066	15.19
341.278	-25.77
341.491	82.77
341.703	50
341.915	-40.11
342.128	-13.48
342.34	-5.29
342.552	33.62
342.764	43.86
342.977	-3.24
343.189	41.81
343.401	0.85
343.613	47.96
343.826	127.83
344.038	-19.63
344.25	33.62
344.462	-9.39
344.674	9.05
344.886	41.81
345.099	37.72
345.311	74.58
345.523	45.91
345.735	15.19
345.947	64.34
346.159	9.05
346.371	60.24
346.583	-36.01
346.795	-70.83
347.007	-5.29
347.219	90.96
347.431	25.43
347.643	-1.19
347.855	-31.91
348.067	9.05
348.279	19.29
348.491	-19.63
348.703	11.09
348.915	-31.91
349.127	-42.15
349.339	-7.34
349.551	58.2
349.763	60.24
349.975	4.95
350.187	35.67
350.399	29.52
350.61	-36.01
350.822	-13.48
351.034	-3.24
351.246	-76.97
351.458	29.52
351.669	23.38
351.881	4.95
352.093	2.9
352.305	17.24
352.517	41.81
352.728	50
352.94	4.95
353.152	68.44
353.363	37.72
353.575	31.57
353.787	33.62
353.999	47.96
354.21	9.05
354.422	-5.29
354.633	-31.91
354.845	74.58
355.057	-85.16
355.268	-15.53
355.48	-9.39
355.692	-44.2
355.903	9.05
356.115	58.2
356.326	23.38
356.538	50
356.749	25.43
356.961	25.43
357.172	68.44
357.384	-29.87
357.595	13.14
357.807	68.44
358.018	-23.72
358.23	0.85
358.441	11.09
358.653	2.9
358.864	25.43
359.075	54.1
359.287	-13.48
359.498	31.57
359.709	-11.43
359.921	-95.4
360.132	-29.87
360.344	60.24
360.555	47.96
360.766	64.34
360.977	27.48
361.189	47.96
361.4	-40.11
361.611	9.05
361.823	60.24
362.034	29.52
362.245	43.86
362.456	17.24
362.667	-3.24
362.879	82.77
363.09	58.2
363.301	37.72
363.512	-52.39
363.723	43.86
363.935	35.67
364.146	82.77
364.357	23.38
364.568	45.91
364.779	0.85
364.99	-40.11
365.201	-46.25
365.412	33.62
365.623	58.2
365.834	-36.01
366.045	-21.67
366.256	-19.63
366.467	-29.87
366.678	66.39
366.889	4.95
367.1	-19.63
367.311	11.09
367.522	-23.72
367.733	-60.59
367.944	4.95
368.155	23.38
368.366	4.95
368.577	-36.01
368.788	7
368.999	-5.29
369.209	-1.19
369.42	56.15
369.631	33.62
369.842	-25.77
370.053	31.57
370.264	7
370.474	41.81
370.685	0.85
370.896	4.95
371.107	35.67
371.317	4.95
371.528	9.05
371.739	-5.29
371.95	17.24
372.16	-15.53
372.371	-40.11
372.582	-3.24
372.792	-56.49
373.003	37.72
373.214	21.33
373.424	64.34
373.635	-7.34
373.846	-1.19
374.056	9.05
374.267	-15.53
374.477	62.29
374.688	-5.29
374.898	2.9
375.109	9.05
375.319	52.05
375.53	-27.82
375.74	17.24
375.951	17.24
376.161	9.05
376.372	-1.19
376.582	0.85
376.793	68.44
377.003	43.86
377.214	41.81
377.424	-31.91
377.635	-15.53
377.845	-13.48
378.055	25.43
378.266	-29.87
378.476	54.1
378.686	27.48
378.897	-9.39
379.107	21.33
379.317	-5.29
379.528	-68.78
379.738	70.48
379.948	13.14
380.158	43.86
380.369	23.38
380.579	62.29
380.789	33.62
380.999	35.67
381.21	58.2
381.42	17.24
381.63	-50.35
381.84	33.62
382.05	-42.15
382.261	111.44
382.471	88.92
382.681	-46.25
382.891	4.95
383.101	-33.96
383.311	66.39
383.521	52.05
383.731	60.24
383.941	-11.43
384.151	11.09
384.361	-38.06
384.571	0.85
384.781	21.33
384.991	-15.53
385.201	86.87
385.411	66.39
385.621	60.24
385.831	-25.77
386.041	45.91
386.251	-9.39
386.461	62.29
386.671	33.62
386.881	17.24
387.091	21.33
387.301	-15.53
387.511	23.38
387.72	21.33
387.93	-11.43
388.14	-5.29
388.35	21.33
388.56	9.05
388.769	39.76
388.979	103.25
389.189	-31.91
389.399	-7.34
389.609	25.43
389.818	62.29
390.028	-60.59
390.238	-21.67
390.447	-17.58
390.657	72.53
390.867	29.52
391.076	54.1
391.286	-21.67
391.496	9.05
391.705	7
391.915	41.81
392.125	9.05
392.334	7
392.544	7
392.753	-21.67
392.963	-7.34
393.172	66.39
393.382	-15.53
393.591	54.1
393.801	7
394.01	43.86
394.22	58.2
394.429	84.82
394.639	4.95
394.848	64.34
395.058	90.96
395.267	43.86
395.477	43.86
395.686	72.53
395.895	93.01
396.105	66.39
396.314	72.53
396.524	33.62
396.733	72.53
396.942	54.1
397.152	0.85
397.361	66.39
397.57	9.05
397.78	35.67
397.989	2.9
398.198	-5.29
398.407	47.96
398.617	41.81
398.826	117.59
399.035	19.29
399.244	25.43
399.453	-19.63
399.663	97.11
399.872	62.29
400.081	93.01
400.29	68.44
400.499	76.63
400.708	68.44
400.917	45.91
401.127	54.1
401.336	125.78
401.545	111.44
401.754	50
401.963	72.53
402.172	62.29
402.381	60.24
402.59	43.86
402.799	105.3
403.008	76.63
403.217	43.86
403.426	56.15
403.635	52.05
403.844	70.48
404.053	43.86
404.262	99.16
404.471	93.01
404.68	64.34
404.888	70.48
405.097	103.25
405.306	33.62
405.515	-5.29
405.724	84.82
405.933	88.92
406.142	111.44
406.35	142.16
406.559	60.24
406.768	113.49
406.977	172.88
407.185	60.24
407.394	172.88
407.603	138.07
407.812	121.68
408.02	113.49
408.229	93.01
408.438	176.98
408.646	207.7
408.855	123.73
409.064	164.69
409.272	158.55
409.481	162.64
409.69	164.69
409.898	156.5
410.107	213.84
410.315	281.43
410.524	215.89
410.733	185.17
410.941	185.17
411.15	275.28
411.358	209.75
411.567	260.95
411.775	181.07
411.984	240.47
412.192	207.7
412.401	244.56
412.609	254.8
412.818	226.13
413.026	273.23
413.234	334.67
413.443	346.96
413.651	328.53
413.86	336.72
414.068	387.92
414.276	416.59
414.485	428.88
414.693	478.03
414.901	443.21
415.11	475.98
415.318	422.73
415.526	473.93
415.734	514.89
415.943	512.85
416.151	547.66
416.359	533.33
416.567	619.34
416.776	553.8
416.984	652.11
417.192	658.25
417.4	731.98
417.608	627.53
417.817	697.16
418.025	787.27
418.233	768.84
418.441	725.83
418.649	738.12
418.857	832.33
419.065	820.04
419.273	899.91
419.481	852.81
419.689	947.01
419.897	1043.27
420.105	930.63
420.313	1018.69
420.521	1041.22
420.729	1067.85
420.937	1157.96
421.145	1098.56
421.353	1219.39
421.561	1241.92
421.769	1299.27
421.977	1366.85
422.185	1336.13
422.393	1360.7
422.601	1420.1
422.809	1487.68
423.017	1499.97
423.224	1493.82
423.432	1489.73
423.64	1581.89
423.848	1758.01
424.056	1641.28
424.263	1823.55
424.471	1753.91
424.679	1829.69
424.887	1979.19
425.094	2126.64
425.302	2085.69
425.51	2022.2
425.718	2183.99
425.925	2202.42
426.133	2206.52
426.341	2470.7
426.548	2452.27
426.756	2503.47
426.964	2558.77
427.171	2646.83
427.379	2812.71
427.586	2814.76
427.794	2929.45
428.001	3115.81
428.209	3185.44
428.417	3210.02
428.624	3324.71
428.832	3416.87
429.039	3349.28
429.247	3308.32
429.454	3687.2
429.662	3914.52
429.869	3513.12
430.076	3904.28
430.284	3744.54
430.491	3924.76
430.699	4027.16
430.906	4102.93
431.114	4217.62
431.321	4297.49
431.528	4506.38
431.736	4686.61
431.943	4983.56
432.15	4817.68
432.358	4678.41
432.565	5075.72
432.772	5167.88
432.979	5358.34
433.187	5604.1
433.394	5460.74
433.601	5866.24
433.808	6007.55
434.016	5991.16
434.223	6122.23
434.43	6497.01
434.637	6335.22
434.844	6798.06
435.052	6894.32
435.259	6664.94
435.466	6824.69
435.673	6669.04
435.88	7140.07
436.087	7627.49
436.294	7531.23
436.501	7473.89
436.708	7650.02
436.915	7867.1
437.122	8155.86
437.329	8174.3
437.537	8438.48
437.743	8540.88
437.95	8348.37
438.157	8907.47
438.364	9226.95
438.571	9138.89
438.778	9241.29
438.985	10207.93
439.192	9736.9
439.399	10142.39
439.606	9790.14
439.813	10511.03
440.02	10967.73
440.227	10758.83
440.433	10617.52
440.64	11043.5
440.847	10910.38
441.054	11354.79
441.261	12090.01
441.467	11928.22
441.674	12137.12
441.881	12446.36
442.088	12491.41
442.294	12229.27
442.501	12669.59
442.708	12862.1
442.914	13306.51
443.121	14131.84
443.328	13650.57
443.534	14809.72
443.741	14332.54
443.948	14090.88
444.154	15047.28
444.361	14897.78
444.568	15022.7
444.774	15149.68
444.981	14871.15
445.187	15612.52
445.394	16265.82
445.6	16138.85
445.807	17809.99
446.013	16765.53
446.22	17203.79
446.426	17736.26
446.633	18065.99
446.839	18809.4
447.046	17932.87
447.252	18844.21
447.459	18932.28
447.665	18713.14
447.871	19550.76
448.078	20662.81
448.284	19405.36
448.491	19880.49
448.697	20679.19
448.903	20724.25
449.11	20896.28
449.316	20625.95
449.522	21307.92
449.728	21783.05
449.935	21617.16
450.141	21893.64
450.347	22520.32
450.553	21434.89
450.76	21916.17
450.966	22979.06
451.172	22485.5
451.378	22864.38
451.584	22458.88
451.791	23192.05
451.997	23290.35
452.203	23079.41
452.409	23237.11
452.615	23163.38
452.821	22315.52
453.027	22172.16
453.233	23511.53
453.44	22227.46
453.646	22637.05
453.852	22651.39
454.058	23056.89
454.264	22688.25
454.47	22704.63
454.676	22581.76
454.882	23020.02
455.088	20767.26
455.294	21305.87
455.5	21635.6
455.705	21709.32
455.911	20757.02
456.117	20589.08
456.323	20222.5
456.529	19319.34
456.735	19921.45
456.941	19642.92
457.147	19243.57
457.352	18684.47
457.558	18131.52
457.764	18395.71
457.97	18131.52
458.176	17486.41
458.381	17539.66
458.587	16872.02
458.793	16775.77
458.999	15696.49
459.204	17044.05
459.41	16656.98
459.616	15657.57
459.821	15653.48
460.027	15487.59
460.233	15063.66
460.438	14553.72
460.644	14414.46
460.85	13867.65
461.055	13615.75
461.261	13718.15
461.466	12642.96
461.672	12253.85
461.878	13208.2
462.083	12389.02
462.289	12110.49
462.494	12059.29
462.7	11416.23
462.905	11137.71
463.111	11721.38
463.316	11680.42
463.522	11188.91
463.727	11449
463.932	11477.67
464.138	11340.46
464.343	11231.91
464.549	10728.11
464.754	11346.6
464.959	11215.53
465.165	11137.71
465.37	10633.91
465.575	10422.97
465.781	10945.2
465.986	10871.47
466.191	10685.11
466.397	10187.45
466.602	9845.44
466.807	10275.51
467.012	10214.07
467.218	10154.68
467.423	10031.8
467.628	9880.25
467.833	10437.3
468.038	9978.56
468.244	9714.37
468.449	10412.73
468.654	9929.41
468.859	9738.94
469.064	9798.34
469.269	9446.09
469.474	9454.28
469.679	9771.71
469.885	9337.54
470.09	9429.7
470.295	9409.22
470.5	9261.77
470.705	9126.6
470.91	9034.44
471.115	9153.23
471.32	9102.03
471.525	8960.72
471.73	8901.33
471.935	8841.93
472.139	8366.81
472.344	8506.07
472.549	8540.88
472.754	8385.24
472.959	8207.06
473.164	7998.17
473.369	7961.31
473.574	8305.37
473.778	8155.86
473.983	8176.34
474.188	8059.61
474.393	7744.22
474.598	7580.39
474.802	7733.98
475.007	7699.17
475.212	7512.8
475.417	7303.91
475.621	7451.36
475.826	7289.57
476.031	7228.14
476.235	7181.03
476.44	7267.05
476.645	7178.98
476.849	7021.29
477.054	6976.23
477.259	6894.32
477.463	6892.27
477.668	6759.15
477.872	6787.82
478.077	6775.53
478.282	6466.29
478.486	6552.31
478.691	6566.64
478.895	6464.24
479.1	6363.89
479.304	6464.24
479.509	6138.62
479.713	6312.69
479.918	6292.21
480.122	6157.05
480.326	6253.3
480.531	6052.6
480.735	6152.95
480.94	6007.55
481.144	6292.21
481.348	5937.91
481.553	6140.66
481.757	5878.52
481.961	6007.55
482.166	5982.97
482.37	6023.93
482.574	6015.74
482.778	5810.94
482.983	5978.87
483.187	6046.46
483.391	6103.8
483.595	5915.39
483.8	5780.22
484.004	5976.83
484.208	5989.11
484.412	5899
484.616	6083.32
484.821	5950.2
485.025	5939.96
485.229	6005.5
485.433	5874.43
485.637	5944.06
485.841	5847.8
486.045	5780.22
486.249	6013.69
486.453	5833.47
486.657	5882.62
486.861	5886.72
487.065	5876.48
487.269	5837.56
487.473	5823.23
487.677	5878.52
487.881	6052.6
488.085	5831.42
488.289	5868.28
488.493	5849.85
488.697	6064.89
488.901	5899
489.105	5923.58
489.309	5966.59
489.512	6034.17
489.716	6099.7
489.92	5890.81
490.124	6028.03
490.328	6187.77
490.531	6023.93
490.735	6087.42
490.939	6232.82
491.143	6097.66
491.346	6073.08
491.55	6185.72
491.754	6103.8
491.958	6365.94
492.161	6226.68
492.365	6214.39
492.569	6294.26
492.772	6341.36
492.976	6324.98
493.18	6349.56
493.383	6429.43
493.587	6456.05
493.79	6517.49
493.994	6642.42
494.197	6439.67
494.401	6593.26
494.605	6755.05
494.808	6722.29
495.012	6865.64
495.215	6824.69
495.419	6892.27
495.622	6736.62
495.825	6943.47
496.029	7037.67
496.232	6994.67
496.436	7316.2
496.639	7367.4
496.843	7295.72
497.046	7508.71
497.249	7525.09
497.453	7455.46
497.656	7647.97
497.859	7600.87
498.063	7826.14
498.266	7809.76
498.469	7840.48
498.673	7901.92
498.876	8026.84
499.079	8149.72
499.282	8325.85
499.485	8164.06
499.689	8418
499.892	8534.74
500.095	8700.62
500.298	8815.31
500.501	8760.02
500.705	9104.07
500.908	8973
501.111	9097.93
501.314	9050.83
501.517	9200.33
501.72	9323.21
501.923	9525.96
502.126	9564.87
502.329	9888.45
502.532	9802.43
502.735	10005.18
502.938	9986.75
503.141	10031.8
503.344	10439.35
503.547	10525.36
503.75	10644.15
503.953	10607.28
504.156	10617.52
504.359	10697.39
504.562	11131.56
504.765	11141.8
504.968	11281.07
505.17	11575.97
505.373	11518.63
505.576	11926.18
505.779	11805.35
505.982	12167.84
506.185	12159.64
506.387	12251.8
506.59	12372.63
506.793	12790.42
506.996	12786.32
507.198	13025.93
507.401	13126.29
507.604	12796.56
507.807	13304.46
508.009	13335.18
508.212	13531.78
508.415	13742.72
508.617	13943.42
508.82	14162.56
509.022	14047.87
509.225	14551.67
509.428	14508.66
509.63	14533.24
509.833	14494.33
510.035	15110.77
510.238	15000.18
510.44	15592.04
510.643	15737.45
510.845	15727.21
511.048	15759.97
511.25	16063.07
511.453	16069.22
511.655	16923.22
511.858	16601.69
512.06	16974.42
512.262	16835.16
512.465	17379.92
512.667	17457.74
512.87	17537.61
513.072	17660.49
513.274	17986.11
513.477	18367.04
513.679	18350.65
513.881	18645.56
514.084	18922.04
514.286	18715.19
514.488	19079.73
514.69	19591.72
514.893	19583.53
515.095	19771.94
515.297	20144.67
515.499	20283.94
515.701	20480.54
515.904	20695.58
516.106	20951.57
516.308	21070.36
516.51	21418.51
516.712	21383.7
516.914	21856.78
517.116	22137.35
517.318	22325.76
517.52	22465.02
517.722	22426.11
517.925	23071.22
518.127	23108.08
518.329	23155.19
518.531	23357.94
518.733	23572.97
518.935	24105.45
519.136	24154.6
519.338	24607.2
519.54	24486.37
519.742	24674.78
519.944	24895.96
520.146	25307.6
520.348	25598.41
520.55	25821.64
520.752	26014.15
520.954	26460.61
521.155	26266.05
521.357	26784.19
521.559	26919.35
521.761	27494.83
521.963	27331
522.164	27527.6
522.366	27840.94
522.568	28060.07
522.77	27840.94
522.971	28541.35
523.173	28148.14
523.375	28805.53
523.576	28453.28
523.778	29008.28
523.98	29182.36
524.181	29430.16
524.383	29313.43
524.584	29882.77
524.786	29925.77
524.988	29942.16
525.189	30759.3
525.391	30534.02
525.592	31000.96
525.794	30763.39
525.995	30810.5
526.197	31031.68
526.398	30916.99
526.6	31521.14
526.801	31132.03
527.003	31496.56
527.204	31787.38
527.406	32143.72
527.607	31863.15
527.808	32223.59
528.01	31869.3
528.211	31992.17
528.412	32575.84
528.614	33048.93
528.815	32506.21
529.016	32692.58
529.218	32649.57
529.419	33114.46
529.62	33196.38
529.822	32854.37
530.023	33087.84
530.224	33290.59
530.425	33010.01
530.626	33218.91
530.828	32741.73
531.029	33986.89
531.23	33466.71
531.431	33464.66
531.632	33825.11
531.833	33886.54
532.035	33417.56
532.236	33755.47
532.437	33603.92
532.638	33452.37
532.839	33857.87
533.04	33931.6
533.241	33603.92
533.442	34634.05
533.643	34265.42
533.844	33765.71
534.045	34077.01
534.246	33507.67
534.447	34103.63
534.648	34115.92
534.849	34089.29
535.05	33708.37
535.251	34412.87
535.451	34060.62
535.652	34189.64
535.853	34457.93
536.054	34605.38
536.255	34189.64
536.456	33859.92
536.657	34373.96
536.857	34216.27
537.058	33978.7
537.259	34429.26
537.46	34195.79
537.66	33939.79
537.861	34408.78
538.062	34077.01
538.263	34298.19
538.463	33995.09
538.664	34339.15
538.865	34595.14
539.065	34435.4
539.266	33917.26
539.466	34484.55
539.667	33646.93
539.868	34734.4
540.068	34361.67
540.269	34277.71
540.469	34693.44
540.67	34421.06
540.87	34206.03
541.071	34283.85
541.271	34228.56
541.472	34148.68
541.672	34242.89
541.873	34124.11
542.073	33833.3
542.274	34326.86
542.474	34287.95
542.675	34052.43
542.875	34318.67
543.075	34449.74
543.276	34040.14
543.476	34562.37
543.676	33900.88
543.877	34300.23
544.077	34447.69
544.277	34208.08
544.478	34087.25
544.678	34435.4
544.878	34193.74
545.078	34408.78
545.279	34031.95
545.479	34152.78
545.679	34267.47
545.879	34345.29
546.079	34775.36
546.28	33943.89
546.48	33878.35
546.68	34369.86
546.88	34711.88
547.08	34140.49
547.28	34326.86
547.48	34101.58
547.68	34027.85
547.88	34097.49
548.081	34449.74
548.281	34083.15
548.481	33763.67
548.681	34072.91
548.881	34060.62
549.081	34085.2
549.28	34156.88
549.48	34138.44
549.68	33917.26
549.88	34406.73
550.08	34089.29
550.28	34062.67
550.48	33900.88
550.68	34515.27
550.88	34054.48
551.08	34410.82
551.279	34060.62
551.479	34212.17
551.679	34093.39
551.879	33978.7
552.079	34492.74
552.278	33765.71
552.478	34236.75
552.678	34117.96
552.878	34384.2
553.077	34187.6
553.277	33352.02
553.477	34302.28
553.676	33765.71
553.876	33792.34
554.076	33888.59
554.275	33720.66
554.475	33419.61
554.674	33872.21
554.874	33835.35
555.074	33773.91
555.273	33511.77
555.473	34111.82
555.672	33495.38
555.872	33648.98
556.071	33737.04
556.271	33624.4
556.47	33691.99
556.67	33546.58
556.869	33208.67
557.068	33444.18
557.268	33384.79
557.467	33458.52
557.667	33364.31
557.866	33575.25
558.065	33315.16
558.265	32940.38
558.464	32809.31
558.663	33159.52
558.863	32706.91
559.062	33327.45
559.261	32598.37
559.461	33010.01
559.66	32481.64
559.859	32371.05
560.058	32545.12
560.258	32409.96
560.457	32254.31
560.656	32766.31
560.855	32637.28
561.054	32381.29
561.253	32369
561.453	32551.27
561.652	32272.74
561.851	32625
562.05	32541.03
562.249	32063.85
562.448	32739.68
562.647	32260.46
562.846	32143.72
563.045	31975.79
563.244	31920.49
563.443	32207.21
563.642	31545.72
563.841	32110.96
564.04	31762.8
564.239	32067.95
564.438	31684.98
564.637	31734.13
564.836	31668.59
565.035	31523.19
565.234	31424.89
565.432	31349.11
565.631	31099.26
565.83	31431.03
566.029	31062.4
566.228	31226.23
566.427	30937.47
566.625	31238.52
566.824	30847.36
567.023	30976.38
567.222	30595.46
567.42	30904.7
567.619	30685.57
567.818	30708.1
568.016	30501.25
568.215	30630.27
568.414	30546.31
568.612	30421.38
568.811	30175.62
569.01	30355.85
569.208	30060.94
569.407	30206.34
569.605	30017.93
569.804	30073.23
570.002	30097.8
570.201	30157.19
570.4	29755.79
570.598	29499.8
570.797	29581.71
570.995	29630.87
571.193	29082.01
571.392	29520.27
571.59	29006.23
571.789	29391.25
571.987	28864.92
572.186	29053.34
572.384	28938.65
572.582	29133.21
572.781	28639.65
572.979	28633.5
573.177	28717.47
573.376	28744.09
573.574	28721.57
573.772	28582.31
573.971	28357.03
574.169	28162.47
574.367	27922.86
574.565	28266.92
574.763	28060.07
574.962	28219.81
575.16	27441.59
575.358	28268.97
575.556	27726.25
575.754	27935.15
575.952	27400.63
576.151	27599.28
576.349	27404.72
576.547	27300.28
576.745	27341.24
576.943	27115.96
577.141	27046.33
577.339	26929.59
577.537	26907.07
577.735	27220.41
577.933	26837.44
578.131	26632.64
578.329	26429.89
578.527	26061.26
578.725	26489.28
578.923	26917.31
579.121	26284.48
579.319	26454.47
579.516	26483.14
579.714	26188.23
579.912	26110.41
580.11	25897.42
580.308	25893.32
580.506	25719.24
580.704	25317.84
580.901	25631.18
581.099	25868.75
581.297	25551.31
581.495	25362.9
581.692	25278.93
581.89	25178.58
582.088	25227.73
582.285	25244.12
582.483	25305.56
582.681	25352.66
582.878	25111
583.076	24732.12
583.274	24869.34
583.471	24351.2
583.669	24564.19
583.866	24439.26
584.064	24478.18
584.262	24125.93
584.459	24312.29
584.657	24312.29
584.854	24310.24
585.052	23904.74
585.249	24347.11
585.447	24207.84
585.644	23867.88
585.841	23615.98
586.039	23861.74
586.236	23679.47
586.434	23640.56
586.631	23585.26
586.828	23560.69
587.026	23611.89
587.223	23577.07
587.42	23470.58
587.618	23325.17
587.815	23134.71
588.012	22858.23
588.21	22911.48
588.407	23155.19
588.604	22843.9
588.801	22655.48
588.999	23099.89
589.196	22688.25
589.393	22639.1
589.59	22804.99
589.787	22477.31
589.984	22280.71
590.182	22075.91
590.379	22544.89
590.576	22329.86
590.773	22241.79
590.97	21979.65
591.167	22075.91
591.364	21895.69
591.561	22063.62
591.758	21535.24
591.955	21645.84
592.152	21791.24
592.349	21832.2
592.546	21991.94
592.743	21916.17
592.94	21633.55
593.137	21375.5
593.334	21717.51
593.531	21303.82
593.727	21459.47
593.924	21254.67
594.121	20957.72
594.318	21303.82
594.515	20771.35
594.712	20929.05
594.908	20990.49
595.105	20937.24
595.302	20730.39
595.499	20595.23
595.696	20744.73
595.892	20355.61
596.089	20472.35
596.286	20496.92
596.482	20630.04
596.679	20484.64
596.876	20589.08
597.072	20154.91
597.269	20298.27
597.466	20021.8
597.662	19974.69
597.859	20187.68
598.055	20195.87
598.252	20210.21
598.448	19878.44
598.645	19741.22
598.841	19812.9
599.038	19896.87
599.234	19841.57
599.431	19212.85
599.627	19235.38
599.824	19481.13
600.02	19483.18
600.217	19364.4
600.413	18919.99
600.609	19300.91
600.806	18844.21
601.002	19069.49
601.198	19208.75
601.395	18899.51
601.591	18842.17
601.787	18793.01
601.984	18629.18
602.18	18821.69
602.376	18577.98
602.572	18516.54
602.769	18643.51
602.965	18303.55
603.161	18539.07
603.357	18317.89
603.553	18266.69
603.75	18238.02
603.946	18055.75
604.142	18313.79
604.338	17969.73
604.534	18047.55
604.73	17865.28
604.926	17877.57
605.122	17840.71
605.318	17783.37
605.514	17738.31
605.71	17472.07
605.906	17627.72
606.102	17676.87
606.298	17515.08
606.494	17162.83
606.69	17166.93
606.886	17394.25
607.082	17224.27
607.278	17304.14
607.474	16998.99
607.67	17144.4
607.866	16618.07
608.062	16970.32
608.257	16867.92
608.453	16878.16
608.649	16763.48
608.845	16788.05
609.041	16826.96
609.236	16863.83
609.432	16732.76
609.628	16722.52
609.824	16730.71
610.019	16497.24
610.215	16433.75
610.411	16462.43
610.606	16468.57
610.802	16286.3
610.998	16333.4
611.193	16040.54
611.389	16013.92
611.584	16007.78
611.78	16063.07
611.976	16042.59
612.171	16081.5
612.367	15987.3
612.562	15913.57
612.758	15917.67
612.953	15805.03
613.149	15872.61
613.344	15651.43
613.539	16147.04
613.735	15538.79
613.93	15676.01
614.126	15587.94
614.321	15725.16
614.517	15436.39
614.712	15432.3
614.907	15534.7
615.103	15485.55
615.298	15217.26
615.493	15438.44
615.688	15172.21
615.884	15497.83
616.079	14971.5
616.274	15377
616.47	15151.73
616.665	15309.42
616.86	15092.34
617.055	15221.36
617.25	14914.16
617.445	14901.87
617.641	14633.59
617.836	14881.39
618.031	14652.02
618.226	14895.73
618.421	14584.44
618.616	14885.49
618.811	14180.99
619.006	14490.23
619.201	14199.42
619.396	14643.83
619.591	14152.32
619.786	14256.76
619.981	14156.41
620.176	14232.19
620.371	14103.17
620.566	13986.43
620.761	13863.55
620.956	13933.18
621.151	13728.39
621.346	13750.92
621.541	13634.18
621.735	13685.38
621.93	13320.84
622.125	13494.92
622.32	13068.94
622.515	13449.86
622.709	13234.83
622.904	13009.55
623.099	13021.84
623.294	13075.09
623.488	13093.52
623.683	12919.44
623.878	12849.81
624.072	12673.68
624.267	12956.3
624.462	12522.13
624.656	12401.3
624.851	12642.96
625.046	12278.43
625.24	12612.24
625.435	12004
625.629	12307.1
625.824	12051.1
626.018	12200.6
626.213	11926.18
626.407	12077.73
626.602	11956.89
626.796	11999.9
626.991	11813.54
627.185	11795.11
627.38	11889.31
627.574	11512.49
627.768	11459.24
627.963	11426.47
628.157	11528.87
628.352	11410.09
628.546	11471.53
628.74	11242.15
628.935	11141.8
629.129	11088.56
629.323	11057.84
629.517	11229.87
629.712	11006.64
629.906	10795.7
630.1	10859.18
630.294	10869.42
630.489	10605.24
630.683	10635.96
630.877	10595
631.071	10496.69
631.265	10586.8
631.459	10660.53
631.653	10322.62
631.848	10476.21
632.042	10265.27
632.236	10070.72
632.43	10107.58
632.624	10353.34
632.818	10193.59
633.012	9962.17
633.206	9970.37
633.4	9943.74
633.594	9878.21
633.788	9712.32
633.982	9843.39
634.176	9751.23
634.369	9751.23
634.563	9573.06
634.757	9583.3
634.951	9550.53
635.145	9476.8
635.339	9556.68
635.533	9294.54
635.726	9360.07
635.92	9163.47
636.114	9288.39
636.308	9075.4
636.501	9247.43
636.695	9087.69
636.889	9024.2
637.083	8966.86
637.276	9036.49
637.47	8946.38
637.664	8831.69
637.857	8946.38
638.051	8760.02
638.244	8610.51
638.438	8565.46
638.632	8712.91
638.825	8604.37
639.019	8432.34
639.212	8424.15
639.406	8401.62
639.599	8256.22
639.793	8229.59
639.986	8301.27
640.18	8252.12
640.373	8221.4
640.567	8094.43
640.76	8278.74
640.954	7969.5
641.147	8092.38
641.34	8000.22
641.534	7969.5
641.727	7916.25
641.92	7820
642.114	7844.57
642.307	7922.4
642.5	7688.93
642.694	7748.32
642.887	7480.04
643.08	7582.43
643.273	7533.28
643.467	7690.98
643.66	7443.17
643.853	7197.42
644.046	7344.87
644.239	7279.33
644.432	7291.62
644.626	7201.51
644.819	7127.78
645.012	7144.17
645.205	7156.46
645.398	7142.12
645.591	6939.37
645.784	7037.67
645.977	6796.01
646.17	6824.69
646.363	6847.21
646.556	6726.38
646.749	6908.65
646.942	6589.17
647.135	6527.73
647.328	6523.63
647.521	6540.02
647.714	6535.92
647.907	6519.54
648.099	6466.29
648.292	6558.45
648.485	6322.93
648.678	6177.53
648.871	6445.81
649.064	6308.6
649.256	6220.53
649.449	6206.2
649.642	6155
649.835	5974.78
650.027	6226.68
650.22	6054.65
650.413	6083.32
650.605	5931.77
650.798	6011.64
650.991	5862.14
651.183	5909.24
651.376	5817.08
651.568	5878.52
651.761	5849.85
651.954	5753.6
652.146	5827.32
652.339	5669.63
652.531	5612.29
652.724	5634.82
652.916	5546.75
653.109	5505.79
653.301	5501.7
653.494	5643.01
653.686	5315.33
653.879	5393.16
654.071	5362.44
654.263	5323.52
654.456	5221.13
654.648	5376.77
654.84	5237.51
655.033	5223.17
655.225	5108.49
655.417	5200.65
655.61	5284.61
655.802	5137.16
655.994	5055.24
656.186	4967.18
656.379	4981.51
656.571	4997.9
656.763	4864.78
656.955	4989.71
657.148	4840.2
657.34	4858.64
657.532	4772.62
657.724	4606.74
657.916	4737.81
658.108	4764.43
658.3	4776.72
658.492	4733.71
658.684	4506.38
658.876	4508.43
659.068	4635.41
659.26	4623.12
659.452	4387.6
659.644	4623.12
659.836	4498.19
660.028	4555.54
660.22	4432.66
660.412	4389.65
660.604	4330.26
660.796	4469.52
660.988	4369.17
661.18	4119.32
661.372	4178.71
661.563	4266.77
661.755	4221.72
661.947	4305.68
662.139	4133.65
662.331	4203.29
662.522	4088.6
662.714	4113.17
662.906	4109.08
663.097	4051.74
663.289	3975.96
663.481	3885.85
663.673	4023.06
663.864	3945.24
664.056	3894.04
664.247	3951.39
664.439	3836.7
664.631	3738.4
664.822	3861.27
665.014	3924.76
665.205	3851.03
665.397	3689.25
665.588	3670.81
665.78	3584.8
665.971	3832.6
666.163	3658.53
666.354	3765.02
666.546	3685.15
666.737	3654.43
666.929	3709.72
667.12	3543.84
667.311	3484.45
667.503	3402.53
667.694	3486.5
667.885	3511.07
668.077	3613.47
668.268	3377.95
668.459	3484.45
668.651	3394.34
668.842	3351.33
669.033	3418.91
669.224	3486.5
669.416	3384.1
669.607	3347.23
669.798	3367.71
669.989	3380
670.18	3246.88
670.371	3179.3
670.563	3347.23
670.754	3322.66
670.945	3341.09
671.136	3156.77
671.327	3355.43
671.518	3318.56
671.709	3191.59
671.9	3187.49
672.091	3199.78
672.282	3138.34
672.473	3136.29
672.664	3179.3
672.855	3113.77
673.046	3023.66
673.237	3144.49
673.428	3169.06
673.619	3158.82
673.809	3068.71
674	3050.28
674.191	3058.47
674.382	3003.18
674.573	3003.18
674.764	2923.3
674.954	2919.21
675.145	2958.12
675.336	2906.92
675.527	2990.89
675.717	2990.89
675.908	2968.36
676.099	2968.36
676.289	2902.83
676.48	2802.47
676.671	2984.74
676.861	2841.39
677.052	2749.23
677.243	2734.89
677.433	2868.01
677.624	2941.74
677.814	2745.13
678.005	2853.67
678.195	2800.43
678.386	2638.64
678.576	2724.65
678.767	2781.99
678.957	2839.34
679.148	2618.16
679.338	2720.56
679.529	2630.45
679.719	2681.64
679.909	2708.27
680.1	2728.75
680.29	2702.12
680.481	2773.8
680.671	2556.72
680.861	2601.77
681.052	2685.74
681.242	2695.98
681.432	2728.75
681.622	2609.97
681.813	2683.69
682.003	2736.94
682.193	2814.76
682.383	2648.88
682.573	2513.71
682.764	2671.4
682.954	2581.29
683.144	2603.82
683.334	2515.76
683.524	2622.25
683.714	2626.35
683.904	2593.58
684.094	2632.49
684.284	2583.34
684.474	2622.25
684.664	2599.73
684.854	2425.65
685.044	2499.38
685.234	2550.57
685.424	2491.18
685.614	2521.9
685.804	2593.58
685.994	2417.46
686.184	2583.34
686.374	2450.22
686.564	2597.68
686.753	2569.01
686.943	2523.95
687.133	2466.61
687.323	2482.99
687.513	2579.25
687.702	2464.56
687.892	2536.24
688.082	2417.46
688.272	2534.19
688.461	2454.32
688.651	2612.01
688.841	2495.28
689.03	2407.22
689.22	2345.78
689.41	2339.63
689.599	2503.47
689.789	2417.46
689.979	2493.23
690.168	2409.26
690.358	2464.56
690.547	2419.5
690.737	2450.22
690.926	2517.81
691.116	2241.33
691.305	2454.32
691.495	2388.78
691.684	2407.22
691.874	2351.92
692.063	2390.83
692.252	2474.8
692.442	2401.07
692.631	2462.51
692.82	2313.01
693.01	2333.49
693.199	2435.89
693.388	2427.7
693.578	2337.59
693.767	2517.81
693.956	2300.72
694.146	2491.18
694.335	2335.54
694.524	2247.48
694.713	2376.5
694.902	2427.7
695.092	2566.96
695.281	2339.63
695.47	2401.07
695.659	2413.36
695.848	2294.58
696.037	2407.22
696.226	2356.02
696.415	2390.83
696.604	2462.51
696.793	2372.4
696.982	2335.54
697.171	2304.82
697.36	2396.98
697.549	2329.39
697.738	2317.11
697.927	2388.78
698.116	2384.69
698.305	2231.09
698.494	2353.97
698.683	2360.11
698.872	2390.83
699.061	2327.35
699.25	2247.48
699.438	2294.58
699.627	2343.73
699.816	2319.15
700.005	2235.19
700.193	2306.87
700.382	2429.74
700.571	2335.54
700.76	2288.43
700.948	2333.49
701.137	2423.6
701.326	2294.58
701.514	2175.8
701.703	2407.22
701.892	2302.77
702.08	2315.06
702.269	2216.76
702.457	2183.99
702.646	2323.25
702.834	2272.05
703.023	2202.42
703.212	2259.76
703.4	2274.1
703.589	2306.87
703.777	2188.08
703.965	2196.28
704.154	2229.04
704.342	2278.19
704.531	2255.67
704.719	2181.94
704.907	2296.63
705.096	2200.37
705.284	2212.66
705.472	2251.57
705.661	2274.1
705.849	2335.54
706.037	2237.24
706.226	2106.17
706.414	2229.04
706.602	2149.17
706.79	2280.24
706.979	2085.69
707.167	2204.47
707.355	2106.17
707.543	2171.7
707.731	2157.36
707.919	2097.97
708.107	2200.37
708.296	2233.14
708.484	2063.16
708.672	2077.49
708.86	2085.69
709.048	2171.7
709.236	2110.26
709.424	2018.1
709.612	2036.53
709.8	2091.83
709.988	1950.52
710.176	2183.99
710.364	2071.35
710.551	2040.63
710.739	2046.77
710.927	2079.54
711.115	2034.49
711.303	2048.82
711.491	2093.88
711.679	1993.53
711.866	1973.05
712.054	1979.19
712.242	1971
712.43	1915.7
712.617	2032.44
712.805	2046.77
712.993	1934.14
713.181	1905.46
713.368	1966.9
713.556	1786.68
713.744	1919.8
713.931	1903.42
714.119	1798.97
714.306	1911.61
714.494	1850.17
714.682	1725.24
714.869	1856.31
715.057	1813.31
715.244	1895.22
715.432	1915.7
715.619	1848.12
715.807	1782.59
715.994	1909.56
716.182	1741.63
716.369	1745.72
716.556	1811.26
716.744	1813.31
716.931	1723.2
717.119	1698.62
717.306	1780.54
717.493	1831.74
717.681	1770.3
717.868	1764.15
718.055	1801.02
718.242	1686.33
718.43	1778.49
718.617	1721.15
718.804	1659.71
718.991	1710.91
719.179	1731.39
719.366	1745.72
719.553	1778.49
719.74	1649.47
719.927	1614.65
720.114	1729.34
720.301	1702.72
720.488	1618.75
720.676	1739.58
720.863	1639.23
721.05	1700.67
721.237	1618.75
721.424	1549.12
721.611	1651.52
721.798	1532.73
721.985	1620.8
722.172	1588.03
722.358	1663.8
722.545	1585.98
722.732	1633.08
722.919	1542.97
723.106	1618.75
723.293	1604.41
723.48	1491.77
723.667	1479.49
723.853	1512.25
724.04	1624.89
724.227	1524.54
724.414	1528.64
724.6	1456.96
724.787	1545.02
724.974	1444.67
725.161	1497.92
725.347	1489.73
725.534	1463.1
725.72	1426.24
725.907	1489.73
726.094	1370.94
726.28	1463.1
726.467	1502.01
726.653	1536.83
726.84	1518.4
727.027	1540.93
727.213	1499.97
727.4	1444.67
727.586	1405.76
727.773	1383.23
727.959	1385.28
728.145	1444.67
728.332	1387.33
728.518	1434.43
728.705	1377.09
728.891	1342.27
729.077	1442.62
729.264	1461.06
729.45	1364.8
729.636	1401.66
729.823	1420.1
730.009	1409.86
730.195	1362.75
730.382	1354.56
730.568	1319.75
730.754	1438.53
730.94	1362.75
731.126	1399.62
731.313	1340.22
731.499	1319.75
731.685	1368.9
731.871	1280.83
732.057	1336.13
732.243	1297.22
732.429	1352.51
732.615	1239.87
732.801	1248.07
732.987	1346.37
733.173	1377.09
733.359	1289.03
733.545	1291.07
733.731	1299.27
733.917	1272.64
734.103	1254.21
734.289	1278.79
734.475	1344.32
734.661	1256.26
734.847	1286.98
735.033	1284.93
735.219	1194.82
735.404	1239.87
735.59	1188.68
735.776	1213.25
735.962	1254.21
736.148	1274.69
736.333	1223.49
736.519	1239.87
736.705	1227.59
736.89	1188.68
737.076	1246.02
737.262	1166.15
737.447	1170.24
737.633	1155.91
737.819	1129.28
738.004	1157.96
738.19	1160
738.375	1190.72
738.561	1250.11
738.747	1215.3
738.932	1123.14
739.118	1155.91
739.303	1180.48
739.489	1174.34
739.674	1205.06
739.859	1157.96
740.045	1076.04
740.23	1076.04
740.416	1096.52
740.601	1014.6
740.786	1203.01
740.972	1098.56
741.157	1198.92
741.342	1125.19
741.528	1170.24
741.713	1073.99
741.898	1082.18
742.084	1117
742.269	1102.66
742.454	1190.72
742.639	1088.32
742.824	1026.89
743.01	1084.23
743.195	1002.31
743.38	965.45
743.565	1016.65
743.75	975.69
743.935	1020.74
744.12	1063.75
744.305	1090.37
744.49	1020.74
744.675	994.12
744.86	994.12
745.045	1000.26
745.23	971.59
745.415	985.93
745.6	1000.26
745.785	1026.89
745.97	965.45
746.155	996.17
746.34	1026.89
746.525	1004.36
746.71	973.64
746.895	1018.69
747.079	863.05
747.264	975.69
747.449	885.58
747.634	873.29
747.819	822.09
748.003	904.01
748.188	891.72
748.373	901.96
748.557	920.39
748.742	904.01
748.927	873.29
749.111	846.66
749.296	893.77
749.481	889.67
749.665	906.06
749.85	895.82
750.034	926.54
750.219	852.81
750.404	865.1
750.588	867.14
750.773	830.28
750.957	762.7
751.141	914.25
751.326	768.84
751.51	770.89
751.695	815.94
751.879	758.6
752.064	828.23
752.248	828.23
752.432	758.6
752.617	717.64
752.801	910.15
752.985	695.11
753.17	768.84
753.354	731.98
753.538	820.04
753.722	621.39
753.907	779.08
754.091	721.74
754.275	758.6
754.459	738.12
754.643	652.11
754.828	648.01
755.012	713.55
755.196	676.68
755.38	680.78
755.564	697.16
755.748	721.74
755.932	617.29
756.116	695.11
756.3	639.82
756.484	619.34
756.668	691.02
756.852	701.26
757.036	621.39
757.22	615.24
757.404	664.4
757.588	656.2
757.772	664.4
757.956	639.82
758.14	664.4
758.323	686.92
758.507	605
758.691	574.28
758.875	684.87
759.059	629.58
759.242	582.48
759.426	609.1
759.61	596.81
759.794	615.24
759.977	627.53
760.161	617.29
760.345	664.4
760.528	590.67
760.712	580.43
760.895	639.82
761.079	623.44
761.263	553.8
761.446	547.66
761.63	570.19
761.813	600.91
761.997	541.52
762.18	566.09
762.364	566.09
762.547	609.1
762.731	525.13
762.914	572.24
763.098	514.89
763.281	494.41
763.464	510.8
763.648	510.8
763.831	492.37
764.015	478.03
764.198	535.37
764.381	521.04
764.564	551.76
764.748	549.71
764.931	486.22
765.114	551.76
765.297	525.13
765.481	457.55
765.664	547.66
765.847	533.33
766.03	516.94
766.213	496.46
766.397	488.27
766.58	486.22
766.763	531.28
766.946	486.22
767.129	502.61
767.312	451.41
767.495	420.69
767.678	453.45
767.861	467.79
768.044	424.78
768.227	467.79
768.41	498.51
768.593	441.17
768.776	428.88
768.959	451.41
769.142	449.36
769.324	529.23
769.507	502.61
769.69	437.07
769.873	453.45
770.056	525.13
770.239	426.83
770.421	465.74
770.604	459.6
770.787	484.17
770.97	383.82
771.152	504.65
771.335	398.16
771.518	447.31
771.7	430.93
771.883	410.45
772.066	394.06
772.248	394.06
772.431	463.69
772.613	420.69
772.796	297.81
772.978	437.07
773.161	426.83
773.343	467.79
773.526	469.84
773.708	482.13
773.891	394.06
774.073	422.73
774.256	418.64
774.438	332.62
774.621	418.64
774.803	484.17
774.985	377.68
775.168	381.78
775.35	404.3
775.532	385.87
775.715	404.3
775.897	330.58
776.079	410.45
776.261	414.54
776.444	363.34
776.626	412.5
776.808	385.87
776.99	381.78
777.173	355.15
777.355	355.15
777.537	465.74
777.719	281.43
777.901	369.49
778.083	262.99
778.265	355.15
778.447	342.86
778.629	328.53
778.811	289.62
778.993	262.99
779.175	289.62
779.357	367.44
779.539	322.38
779.721	306
779.903	328.53
780.085	408.4
780.267	271.19
780.449	328.53
780.631	361.3
780.812	344.91
780.994	312.14
781.176	338.77
781.358	273.23
781.54	234.32
781.721	273.23
781.903	312.14
782.085	287.57
782.267	271.19
782.448	289.62
782.63	338.77
782.812	312.14
782.993	285.52
783.175	316.24
783.357	205.65
783.538	285.52
783.72	240.47
783.901	306
784.083	219.99
784.264	193.36
784.446	213.84
784.627	314.19
784.809	281.43
784.99	232.27
785.172	279.38
785.353	250.71
785.535	166.74
785.716	246.61
785.897	203.6
786.079	281.43
786.26	279.38
786.441	203.6
786.623	248.66
786.804	222.03
786.985	191.31
787.167	209.75
787.348	215.89
787.529	222.03
787.71	207.7
787.891	224.08
788.073	164.69
788.254	230.23
788.435	185.17
788.616	238.42
788.797	207.7
788.978	222.03
789.159	254.8
789.34	336.72
789.522	103.25
789.703	183.12
789.884	215.89
790.065	199.51
790.246	154.45
790.427	160.59
790.607	236.37
790.788	158.55
790.969	166.74
791.15	213.84
791.331	133.97
791.512	185.17
791.693	150.36
791.874	164.69
792.054	101.2
792.235	172.88
792.416	133.97
792.597	222.03
792.778	189.27
792.958	222.03
793.139	160.59
793.32	160.59
793.5	123.73
793.681	156.5
793.862	236.37
794.042	181.07
794.223	156.5
794.404	176.98
794.584	117.59
794.765	62.29
794.945	185.17
795.126	109.4
795.306	162.64
795.487	172.88
795.667	109.4
795.848	232.27
796.028	166.74
796.209	166.74
796.389	226.13
796.57	140.12
796.75	172.88
796.93	209.75
797.111	97.11
797.291	93.01
797.471	199.51
797.652	109.4
797.832	66.39
798.012	140.12
798.192	129.88
798.373	90.96
798.553	117.59
798.733	99.16
798.913	148.31
799.093	193.36
799.274	226.13
799.454	136.02
799.634	113.49
799.814	158.55
799.994	90.96
800.174	113.49
800.354	170.83
800.534	117.59
800.714	144.21
800.894	13.14
801.074	140.12
801.254	115.54
801.434	217.94
801.614	101.2
801.794	131.92
801.974	371.54
802.154	70.48
802.334	172.88
802.514	107.35
802.693	117.59
802.873	66.39
803.053	43.86
803.233	105.3
803.413	80.72
803.592	60.24
803.772	131.92
803.952	68.44
804.131	74.58
804.311	140.12
804.491	127.83
804.67	119.64
804.85	33.62
805.03	142.16
805.209	82.77
805.389	78.68
805.568	23.38
805.748	95.06
805.928	93.01
806.107	27.48
806.287	111.44
806.466	164.69
806.646	117.59
806.825	152.4
807.004	52.05
807.184	58.2
807.363	115.54
807.543	131.92
807.722	74.58
807.901	35.67
808.081	76.63
808.26	148.31
808.439	101.2
808.619	54.1
808.798	74.58
808.977	125.78
809.156	133.97
809.336	101.2
809.515	170.83
809.694	50
809.873	76.63
810.052	117.59
810.231	68.44
810.411	74.58
810.59	84.82
810.769	99.16
810.948	60.24
811.127	74.58
811.306	58.2
811.485	84.82
811.664	144.21
811.843	90.96
812.022	62.29
812.201	19.29
812.38	37.72
812.559	41.81
812.737	37.72
812.916	54.1
813.095	64.34
813.274	80.72
813.453	45.91
813.632	62.29
813.811	64.34
813.989	-7.34
814.168	88.92
814.347	58.2
814.526	27.48
814.704	39.76
814.883	74.58
815.062	68.44
815.24	142.16
815.419	47.96
815.598	62.29
815.776	93.01
815.955	113.49
816.133	-38.06
816.312	156.5
816.49	103.25
816.669	29.52
816.847	17.24
817.026	76.63
817.204	9.05
817.383	72.53
817.561	39.76
817.74	80.72
817.918	60.24
818.097	54.1
818.275	41.81
818.453	74.58
818.632	80.72
818.81	29.52
818.988	86.87
819.167	11.09
819.345	82.77
819.523	-38.06
819.701	101.2
819.879	58.2
820.058	58.2
820.236	43.86
820.414	19.29
820.592	74.58
820.77	-11.43
820.948	-1.19
821.127	47.96
821.305	-13.48
821.483	84.82
821.661	37.72
821.839	13.14
822.017	25.43
822.195	45.91
822.373	50
822.551	60.24
822.729	60.24
822.907	25.43
823.085	84.82
823.262	33.62
823.44	66.39
823.618	78.68
823.796	23.38
823.974	70.48
824.152	29.52
824.329	60.24
824.507	27.48
824.685	25.43
824.863	74.58
825.04	35.67
825.218	45.91
825.396	62.29
825.574	111.44
825.751	27.48
825.929	66.39
826.107	29.52
826.284	7
826.462	41.81
826.639	82.77
826.817	-27.82
826.994	37.72
827.172	17.24
827.349	56.15
827.527	45.91
827.704	45.91
827.882	90.96
828.059	82.77
828.237	25.43
828.414	50
828.591	-62.63
828.769	117.59
828.946	-33.96
829.124	60.24
829.301	60.24
829.478	41.81
829.655	-21.67
829.833	43.86
830.01	74.58
830.187	52.05
830.364	-1.19
830.542	-15.53
830.719	-29.87
830.896	99.16
831.073	58.2
831.25	9.05
831.427	-15.53
831.604	13.14
831.782	2.9
831.959	21.33
832.136	90.96
832.313	25.43
832.49	35.67
832.667	82.77
832.844	21.33
833.021	-9.39
833.198	33.62
833.374	80.72
833.551	-7.34
833.728	-11.43
833.905	17.24
834.082	21.33
834.259	11.09
834.436	-38.06
834.612	31.57
834.789	17.24
834.966	-50.35
835.143	33.62
835.319	-3.24
835.496	17.24
835.673	31.57
835.85	7
836.026	-40.11
836.203	19.29
836.38	-7.34
836.556	7
836.733	90.96
836.909	33.62
837.086	0.85
837.262	2.9
837.439	-5.29
837.616	39.76
837.792	11.09
837.968	93.01
838.145	2.9
838.321	35.67
838.498	-29.87
838.674	45.91
838.851	-27.82
839.027	41.81
839.203	27.48
839.38	72.53
839.556	13.14
839.732	29.52
839.909	-27.82
840.085	27.48
840.261	-72.87
840.437	56.15
840.614	9.05
840.79	60.24
840.966	33.62
841.142	41.81
841.318	-38.06
841.494	45.91
841.671	-23.72
841.847	13.14
842.023	17.24
842.199	23.38
842.375	50
842.551	-33.96
842.727	-11.43
842.903	76.63
843.079	33.62
843.255	76.63
843.431	29.52
843.607	0.85
843.783	0.85
843.959	-7.34
844.134	-48.3
844.31	-21.67
844.486	78.68
844.662	70.48
844.838	-13.48
845.013	21.33
845.189	33.62
845.365	-11.43
845.541	2.9
845.716	84.82
845.892	54.1
846.068	-11.43
846.244	0.85
846.419	-5.29
846.595	11.09
846.77	-23.72
846.946	-23.72
847.122	-23.72
847.297	25.43
847.473	41.81
847.648	-44.2
847.824	13.14
847.999	-42.15
848.175	-23.72
848.35	11.09
848.526	37.72
848.701	9.05
848.876	27.48
849.052	41.81
849.227	-31.91
849.403	9.05
849.578	13.14
849.753	-17.58
849.929	9.05
850.104	-54.44
850.279	-44.2
850.454	21.33
850.63	41.81
850.805	-36.01
850.98	-25.77
851.155	-15.53
851.33	-54.44
851.505	-76.97
851.681	-23.72
851.856	-56.49
852.031	21.33
852.206	-3.24
852.381	68.44
852.556	54.1
852.731	-36.01
852.906	-5.29
853.081	15.19
853.256	70.48
853.431	-64.68
853.606	-50.35
853.781	2.9
853.956	50
854.131	19.29
854.305	58.2
854.48	-31.91
854.655	19.29
854.83	-38.06
855.005	0.85
855.18	76.63
855.354	-33.96
855.529	41.81
855.704	-7.34
855.879	-56.49
856.053	25.43
856.228	35.67
856.403	-23.72
856.577	39.76
856.752	-44.2
856.926	-36.01
857.101	-9.39
857.276	23.38
857.45	15.19
857.625	37.72
857.799	-46.25
857.974	-52.39
858.148	27.48
858.323	41.81
858.497	23.38
858.672	-64.68
858.846	47.96
859.02	37.72
859.195	64.34
859.369	11.09
859.543	-3.24
859.718	11.09
859.892	4.95
860.066	-3.24
860.241	35.67
860.415	29.52
860.589	-64.68
860.763	-1.19
860.938	33.62
861.112	-7.34
861.286	-66.73
861.46	33.62
861.634	33.62
861.808	-11.43
861.982	-58.54
862.157	50
862.331	-19.63
862.505	-3.24
862.679	29.52
862.853	80.72
863.027	0.85
863.201	62.29
863.375	-42.15
863.549	-5.29
863.722	13.14
863.896	33.62
864.07	35.67
864.244	41.81
864.418	13.14
864.592	39.76
864.766	-48.3
864.939	-15.53
865.113	-19.63
865.287	21.33
865.461	19.29
865.634	15.19
865.808	-33.96
865.982	-36.01
866.156	4.95
866.329	-19.63
866.503	-48.3
866.676	23.38
866.85	-7.34
867.024	-3.24
867.197	17.24
867.371	41.81
867.544	7
867.718	54.1
867.891	25.43
868.065	-40.11
868.238	11.09
868.412	-74.92
868.585	0.85
868.759	2.9
868.932	-7.34
869.105	-7.34
869.279	0.85
869.452	-70.83
869.625	17.24
869.799	-7.34
869.972	21.33
870.145	-50.35
870.319	-54.44
870.492	-40.11
870.665	-36.01
870.838	-33.96
871.011	-83.11
871.185	-23.72
871.358	-5.29
871.531	-52.39
871.704	0.85
871.877	-7.34
872.05	11.09
872.223	-9.39
872.396	4.95
872.569	-36.01
872.742	-25.77
872.915	13.14
873.088	-5.29
873.261	-21.67
873.434	31.57
873.607	-7.34
873.78	19.29
873.953	25.43
874.126	-58.54
874.299	-19.63
874.471	33.62
874.644	-13.48
874.817	54.1
874.99	-19.63
875.163	31.57
875.335	-36.01
875.508	-44.2
875.681	2.9
875.853	-13.48
876.026	-15.53
876.199	52.05
876.371	-19.63
876.544	-19.63
876.717	-36.01
876.889	-17.58
877.062	27.48
877.234	-36.01
877.407	17.24
877.579	-40.11
877.752	-5.29
877.924	7
878.097	47.96
878.269	-19.63
878.442	33.62
878.614	-13.48
878.786	-64.68
878.959	-60.59
879.131	-31.91
879.303	-15.53
879.476	-13.48
879.648	-54.44
879.82	-11.43
879.993	-72.87
880.165	54.1
880.337	-64.68
880.509	29.52
880.681	-7.34
880.854	27.48
881.026	33.62
881.198	15.19
881.37	-15.53
881.542	-13.48
881.714	-15.53
881.886	50
882.058	41.81
882.23	-7.34
882.402	21.33
882.574	-15.53
882.746	-38.06
882.918	-19.63
883.09	-95.4
883.262	13.14
883.434	-15.53
883.606	-5.29
883.778	-19.63
883.95	-23.72
884.122	-9.39
884.293	13.14
884.465	39.76
884.637	-9.39
884.809	-1.19
884.98	-58.54
885.152	-5.29
885.324	62.29
885.496	-27.82
885.667	0.85
885.839	21.33
886.011	41.81
886.182	29.52
886.354	0.85
886.525	13.14
886.697	-23.72
886.869	-21.67
887.04	0.85
887.212	21.33
887.383	31.57
887.555	-46.25
887.726	-48.3
887.897	-52.39
888.069	15.19
888.24	-21.67
888.412	-13.48
888.583	13.14
888.754	-15.53
888.926	-50.35
889.097	-5.29
889.268	-46.25
889.44	21.33
889.611	99.16
889.782	17.24
889.953	-27.82
890.125	-21.67
890.296	-79.02
890.467	15.19
890.638	-11.43
890.809	21.33
890.98	2.9
891.151	29.52
891.323	-13.48
891.494	9.05
891.665	-11.43
891.836	-76.97
892.007	-11.43
892.178	-9.39
892.349	39.76
892.52	25.43
892.691	-23.72
892.862	17.24
893.032	0.85
893.203	2.9
893.374	-17.58
893.545	-15.53
893.716	-9.39
893.887	-40.11
894.057	-13.48
894.228	-13.48
894.399	-31.91
894.57	-3.24
894.74	-40.11
894.911	-40.11
895.082	9.05
895.253	-15.53
895.423	-81.07
895.594	-11.43
895.764	-46.25
895.935	13.14
896.106	-89.26
896.276	33.62
896.447	39.76
896.617	7
896.788	-48.3
896.958	0.85
897.129	-56.49
897.299	-38.06
897.47	-7.34
897.64	-15.53
897.81	-68.78
897.981	11.09
898.151	-25.77
898.322	-19.63
898.492	-38.06
898.662	15.19
898.832	-48.3
899.003	-38.06
899.173	37.72
899.343	17.24
899.513	-62.63
