Data from USB4F104151__243__14-01-18-477.txt Node

Date: Thu Mar 13 14:01:18 EDT 2025
User: louis
Spectrometer: USB4F10415
Trigger mode: 4
Integration Time (sec): 1.000000E-2
Scans to average: 1
Electric dark correction enabled: true
Nonlinearity correction enabled: false
Boxcar width: 0
XAxis mode: Wavelengths
Number of Pixels in Spectrum: 3648
>>>>>Begin Spectral Data<<<<<
178.204	-27.31
178.424	-27.31
178.644	-27.31
178.864	-17.07
179.084	-31.4
179.304	-25.26
179.524	40.28
179.744	-39.59
179.964	34.13
180.184	-33.45
180.404	7.51
180.624	17.75
180.844	-41.64
181.064	-12.97
181.283	34.13
181.503	21.85
181.723	-2.73
181.943	-66.22
182.163	17.75
182.383	17.75
182.602	-33.45
182.822	-10.92
183.042	-31.4
183.262	-4.78
183.482	15.7
183.701	-21.16
183.921	62.8
184.141	-25.26
184.361	-15.02
184.58	5.46
184.8	23.89
185.02	34.13
185.239	27.99
185.459	23.89
185.679	-0.68
185.898	-29.35
186.118	-33.45
186.338	60.76
186.557	48.47
186.777	-29.35
186.997	-66.22
187.216	-2.73
187.436	9.56
187.655	87.38
187.875	-6.83
188.095	-17.07
188.314	48.47
188.534	21.85
188.753	-8.87
188.973	-72.36
189.192	77.14
189.412	-8.87
189.631	-41.64
189.851	25.94
190.07	-41.64
190.29	-29.35
190.509	-21.16
190.729	75.09
190.948	97.62
191.168	17.75
191.387	40.28
191.607	7.51
191.826	58.71
192.045	27.99
192.265	85.33
192.484	3.41
192.704	-45.74
192.923	-15.02
193.142	32.08
193.362	46.42
193.581	-17.07
193.8	-27.31
194.02	-49.83
194.239	-15.02
194.458	15.7
194.678	-31.4
194.897	38.23
195.116	5.46
195.335	66.9
195.555	-37.55
195.774	-39.59
195.993	11.61
196.212	-17.07
196.432	58.71
196.651	9.56
196.87	42.32
197.089	124.24
197.308	1.37
197.528	126.29
197.747	-4.78
197.966	-51.88
198.185	-21.16
198.404	56.66
198.623	66.9
198.842	15.7
199.062	-55.98
199.281	66.9
199.5	34.13
199.719	48.47
199.938	-0.68
200.157	9.56
200.376	-0.68
200.595	-43.69
200.814	50.52
201.033	-15.02
201.252	114
201.471	81.24
201.69	-15.02
201.909	23.89
202.128	7.51
202.347	34.13
202.566	25.94
202.785	5.46
203.004	-0.68
203.223	64.85
203.442	66.9
203.661	1.37
203.879	-70.31
204.098	40.28
204.317	-41.64
204.536	77.14
204.755	-66.22
204.974	44.37
205.193	5.46
205.411	9.56
205.63	46.42
205.849	-29.35
206.068	-17.07
206.287	1.37
206.505	-43.69
206.724	25.94
206.943	-88.75
207.162	48.47
207.381	-66.22
207.599	40.28
207.818	-33.45
208.037	-12.97
208.255	32.08
208.474	21.85
208.693	21.85
208.911	15.7
209.13	19.8
209.349	-8.87
209.567	15.7
209.786	71
210.005	40.28
210.223	34.13
210.442	40.28
210.661	-55.98
210.879	-31.4
211.098	46.42
211.316	40.28
211.535	23.89
211.753	25.94
211.972	75.09
212.191	79.19
212.409	5.46
212.628	7.51
212.846	5.46
213.065	30.04
213.283	-45.74
213.502	-6.83
213.72	-6.83
213.938	79.19
214.157	-41.64
214.375	-68.27
214.594	68.95
214.812	27.99
215.031	32.08
215.249	-8.87
215.467	32.08
215.686	-12.97
215.904	15.7
216.122	40.28
216.341	122.2
216.559	-19.11
216.778	5.46
216.996	-12.97
217.214	-74.41
217.432	23.89
217.651	-0.68
217.869	56.66
218.087	-8.87
218.306	-12.97
218.524	42.32
218.742	36.18
218.96	21.85
219.179	15.7
219.397	32.08
219.615	40.28
219.833	-23.21
220.051	-12.97
220.27	62.8
220.488	-31.4
220.706	-25.26
220.924	13.65
221.142	1.37
221.36	-8.87
221.578	44.37
221.796	15.7
222.015	32.08
222.233	23.89
222.451	75.09
222.669	27.99
222.887	-21.16
223.105	-12.97
223.323	58.71
223.541	-17.07
223.759	-58.03
223.977	-45.74
224.195	79.19
224.413	25.94
224.631	-2.73
224.849	60.76
225.067	1.37
225.285	-21.16
225.503	27.99
225.721	56.66
225.939	-37.55
226.157	25.94
226.375	-21.16
226.592	40.28
226.81	36.18
227.028	15.7
227.246	-6.83
227.464	-39.59
227.682	23.89
227.9	68.95
228.117	-78.51
228.335	32.08
228.553	7.51
228.771	11.61
228.989	-8.87
229.206	17.75
229.424	44.37
229.642	-0.68
229.86	-43.69
230.077	38.23
230.295	-2.73
230.513	-33.45
230.731	23.89
230.948	7.51
231.166	-27.31
231.384	40.28
231.601	15.7
231.819	-15.02
232.037	-33.45
232.254	-47.79
232.472	91.48
232.689	7.51
232.907	34.13
233.125	-66.22
233.342	19.8
233.56	-29.35
233.777	5.46
233.995	1.37
234.213	-8.87
234.43	32.08
234.648	46.42
234.865	-33.45
235.083	46.42
235.3	58.71
235.518	23.89
235.735	15.7
235.953	48.47
236.17	-53.93
236.388	19.8
236.605	17.75
236.822	52.56
237.04	-2.73
237.257	23.89
237.475	7.51
237.692	-29.35
237.909	52.56
238.127	19.8
238.344	58.71
238.562	-0.68
238.779	32.08
238.996	11.61
239.214	52.56
239.431	60.76
239.648	36.18
239.865	64.85
240.083	-25.26
240.3	-23.21
240.517	3.41
240.735	-8.87
240.952	1.37
241.169	-6.83
241.386	130.39
241.603	23.89
241.821	-37.55
242.038	-0.68
242.255	46.42
242.472	91.48
242.689	-0.68
242.907	27.99
243.124	44.37
243.341	-8.87
243.558	27.99
243.775	-33.45
243.992	-35.5
244.209	15.7
244.426	-39.59
244.643	9.56
244.86	19.8
245.078	99.67
245.295	1.37
245.512	36.18
245.729	-8.87
245.946	9.56
246.163	46.42
246.38	-62.12
246.597	17.75
246.814	99.67
247.031	-8.87
247.248	23.89
247.464	-15.02
247.681	-25.26
247.898	-8.87
248.115	-25.26
248.332	13.65
248.549	30.04
248.766	64.85
248.983	-0.68
249.2	60.76
249.417	48.47
249.633	-10.92
249.85	40.28
250.067	-21.16
250.284	40.28
250.501	-53.93
250.717	34.13
250.934	-39.59
251.151	34.13
251.368	-4.78
251.585	7.51
251.801	-29.35
252.018	23.89
252.235	-15.02
252.451	40.28
252.668	68.95
252.885	32.08
253.102	-4.78
253.318	19.8
253.535	-27.31
253.752	7.51
253.968	9.56
254.185	75.09
254.401	-33.45
254.618	89.43
254.835	11.61
255.051	58.71
255.268	32.08
255.484	-17.07
255.701	44.37
255.917	-19.11
256.134	19.8
256.351	21.85
256.567	-4.78
256.784	-19.11
257	9.56
257.217	21.85
257.433	-25.26
257.65	19.8
257.866	71
258.082	5.46
258.299	50.52
258.515	32.08
258.732	-2.73
258.948	9.56
259.165	38.23
259.381	-6.83
259.597	27.99
259.814	36.18
260.03	21.85
260.246	-25.26
260.463	-55.98
260.679	34.13
260.895	-6.83
261.112	32.08
261.328	-43.69
261.544	-4.78
261.761	81.24
261.977	66.9
262.193	32.08
262.409	36.18
262.626	48.47
262.842	-8.87
263.058	-15.02
263.274	7.51
263.49	32.08
263.707	-4.78
263.923	66.9
264.139	46.42
264.355	15.7
264.571	42.32
264.787	91.48
265.004	23.89
265.22	-33.45
265.436	40.28
265.652	-33.45
265.868	40.28
266.084	36.18
266.3	48.47
266.516	-29.35
266.732	34.13
266.948	-41.64
267.164	1.37
267.38	7.51
267.596	5.46
267.812	75.09
268.028	34.13
268.244	7.51
268.46	3.41
268.676	-21.16
268.892	46.42
269.108	17.75
269.324	-8.87
269.54	-2.73
269.756	58.71
269.972	11.61
270.188	32.08
270.403	15.7
270.619	34.13
270.835	48.47
271.051	17.75
271.267	11.61
271.483	1.37
271.698	-0.68
271.914	66.9
272.13	-27.31
272.346	-19.11
272.562	-8.87
272.777	99.67
272.993	93.52
273.209	15.7
273.425	23.89
273.64	36.18
273.856	32.08
274.072	27.99
274.287	56.66
274.503	62.8
274.719	66.9
274.934	62.8
275.15	-4.78
275.366	7.51
275.581	17.75
275.797	-29.35
276.012	-55.98
276.228	48.47
276.444	-37.55
276.659	11.61
276.875	-25.26
277.09	-0.68
277.306	-76.46
277.521	64.85
277.737	-66.22
277.952	23.89
278.168	68.95
278.383	42.32
278.599	71
278.814	34.13
279.03	30.04
279.245	17.75
279.461	107.86
279.676	-41.64
279.892	34.13
280.107	-0.68
280.322	-41.64
280.538	19.8
280.753	77.14
280.969	23.89
281.184	-19.11
281.399	-0.68
281.615	54.61
281.83	36.18
282.045	50.52
282.26	-17.07
282.476	56.66
282.691	11.61
282.906	38.23
283.122	9.56
283.337	38.23
283.552	52.56
283.767	-33.45
283.983	32.08
284.198	5.46
284.413	48.47
284.628	-41.64
284.843	32.08
285.058	60.76
285.274	-17.07
285.489	50.52
285.704	79.19
285.919	-15.02
286.134	91.48
286.349	5.46
286.564	-21.16
286.779	5.46
286.995	3.41
287.21	9.56
287.425	50.52
287.64	7.51
287.855	7.51
288.07	-21.16
288.285	58.71
288.5	-2.73
288.715	87.38
288.93	-12.97
289.145	-8.87
289.36	9.56
289.575	-31.4
289.79	-10.92
290.004	-0.68
290.219	56.66
290.434	81.24
290.649	-21.16
290.864	79.19
291.079	64.85
291.294	34.13
291.509	-27.31
291.724	-0.68
291.938	-0.68
292.153	-12.97
292.368	36.18
292.583	32.08
292.798	-10.92
293.012	34.13
293.227	-88.75
293.442	83.28
293.657	-12.97
293.871	15.7
294.086	-0.68
294.301	66.9
294.516	60.76
294.73	44.37
294.945	-58.03
295.16	46.42
295.374	91.48
295.589	77.14
295.804	21.85
296.018	44.37
296.233	42.32
296.447	19.8
296.662	21.85
296.877	23.89
297.091	48.47
297.306	77.14
297.52	99.67
297.735	-6.83
297.949	23.89
298.164	44.37
298.378	95.57
298.593	-47.79
298.807	-0.68
299.022	34.13
299.236	-0.68
299.451	54.61
299.665	-17.07
299.88	-0.68
300.094	17.75
300.309	64.85
300.523	73.04
300.737	95.57
300.952	62.8
301.166	60.76
301.381	38.23
301.595	17.75
301.809	-37.55
302.024	7.51
302.238	34.13
302.452	-10.92
302.667	-37.55
302.881	58.71
303.095	-15.02
303.309	56.66
303.524	-0.68
303.738	-0.68
303.952	34.13
304.166	-10.92
304.381	-6.83
304.595	11.61
304.809	-15.02
305.023	-33.45
305.237	3.41
305.452	50.52
305.666	36.18
305.88	50.52
306.094	23.89
306.308	42.32
306.522	7.51
306.736	-17.07
306.95	17.75
307.164	54.61
307.379	27.99
307.593	3.41
307.807	-49.83
308.021	27.99
308.235	21.85
308.449	50.52
308.663	-0.68
308.877	40.28
309.091	30.04
309.305	-15.02
309.519	42.32
309.733	30.04
309.947	48.47
310.161	56.66
310.374	23.89
310.588	56.66
310.802	11.61
311.016	52.56
311.23	-21.16
311.444	38.23
311.658	109.91
311.872	38.23
312.085	81.24
312.299	23.89
312.513	89.43
312.727	40.28
312.941	-8.87
313.154	62.8
313.368	-17.07
313.582	42.32
313.796	7.51
314.009	-4.78
314.223	-15.02
314.437	7.51
314.651	-15.02
314.864	-37.55
315.078	-6.83
315.292	64.85
315.505	42.32
315.719	40.28
315.933	3.41
316.146	66.9
316.36	23.89
316.573	40.28
316.787	81.24
317.001	15.7
317.214	-4.78
317.428	25.94
317.641	19.8
317.855	-10.92
318.068	3.41
318.282	-0.68
318.495	48.47
318.709	93.52
318.922	-4.78
319.136	56.66
319.349	-35.5
319.563	7.51
319.776	-25.26
319.99	48.47
320.203	83.28
320.417	9.56
320.63	62.8
320.843	85.33
321.057	-6.83
321.27	7.51
321.483	68.95
321.697	-6.83
321.91	54.61
322.124	-23.21
322.337	40.28
322.55	42.32
322.763	-17.07
322.977	-41.64
323.19	46.42
323.403	13.65
323.617	52.56
323.83	62.8
324.043	-35.5
324.256	42.32
324.469	25.94
324.683	23.89
324.896	9.56
325.109	-0.68
325.322	5.46
325.535	-25.26
325.748	89.43
325.962	-31.4
326.175	-33.45
326.388	52.56
326.601	81.24
326.814	23.89
327.027	54.61
327.24	-19.11
327.453	-115.37
327.666	66.9
327.879	30.04
328.092	68.95
328.305	-23.21
328.518	105.81
328.731	54.61
328.944	71
329.157	11.61
329.37	-6.83
329.583	1.37
329.796	79.19
330.009	25.94
330.222	21.85
330.435	7.51
330.648	-19.11
330.861	-6.83
331.073	93.52
331.286	-27.31
331.499	-0.68
331.712	-19.11
331.925	-33.45
332.138	77.14
332.35	3.41
332.563	17.75
332.776	-8.87
332.989	15.7
333.202	-4.78
333.414	-29.35
333.627	56.66
333.84	-47.79
334.053	48.47
334.265	52.56
334.478	36.18
334.691	50.52
334.903	-0.68
335.116	-35.5
335.329	1.37
335.541	71
335.754	40.28
335.966	-17.07
336.179	3.41
336.392	38.23
336.604	27.99
336.817	1.37
337.029	73.04
337.242	-19.11
337.454	-41.64
337.667	64.85
337.88	91.48
338.092	27.99
338.305	7.51
338.517	64.85
338.729	40.28
338.942	34.13
339.154	19.8
339.367	-29.35
339.579	50.52
339.792	-27.31
340.004	62.8
340.217	-29.35
340.429	116.05
340.641	-17.07
340.854	27.99
341.066	27.99
341.278	48.47
341.491	56.66
341.703	-35.5
341.915	32.08
342.128	-17.07
342.34	23.89
342.552	15.7
342.764	19.8
342.977	34.13
343.189	25.94
343.401	34.13
343.613	-29.35
343.826	21.85
344.038	-10.92
344.25	-2.73
344.462	5.46
344.674	68.95
344.886	52.56
345.099	-35.5
345.311	-17.07
345.523	9.56
345.735	3.41
345.947	68.95
346.159	77.14
346.371	19.8
346.583	-33.45
346.795	73.04
347.007	40.28
347.219	36.18
347.431	79.19
347.643	19.8
347.855	-19.11
348.067	62.8
348.279	-78.51
348.491	73.04
348.703	-0.68
348.915	-62.12
349.127	-8.87
349.339	56.66
349.551	30.04
349.763	42.32
349.975	36.18
350.187	87.38
350.399	52.56
350.61	25.94
350.822	97.62
351.034	5.46
351.246	73.04
351.458	15.7
351.669	1.37
351.881	11.61
352.093	23.89
352.305	-8.87
352.517	40.28
352.728	23.89
352.94	25.94
353.152	-23.21
353.363	-8.87
353.575	27.99
353.787	23.89
353.999	23.89
354.21	79.19
354.422	5.46
354.633	66.9
354.845	32.08
355.057	11.61
355.268	50.52
355.48	103.76
355.692	15.7
355.903	79.19
356.115	48.47
356.326	50.52
356.538	-8.87
356.749	32.08
356.961	73.04
357.172	15.7
357.384	56.66
357.595	42.32
357.807	-15.02
358.018	9.56
358.23	-12.97
358.441	66.9
358.653	38.23
358.864	44.37
359.075	11.61
359.287	13.65
359.498	58.71
359.709	30.04
359.921	97.62
360.132	99.67
360.344	-2.73
360.555	32.08
360.766	93.52
360.977	48.47
361.189	89.43
361.4	23.89
361.611	44.37
361.823	71
362.034	-19.11
362.245	58.71
362.456	15.7
362.667	-2.73
362.879	50.52
363.09	-51.88
363.301	38.23
363.512	48.47
363.723	42.32
363.935	-0.68
364.146	52.56
364.357	68.95
364.568	91.48
364.779	64.85
364.99	81.24
365.201	7.51
365.412	66.9
365.623	25.94
365.834	48.47
366.045	40.28
366.256	15.7
366.467	-45.74
366.678	21.85
366.889	87.38
367.1	-25.26
367.311	9.56
367.522	36.18
367.733	36.18
367.944	-21.16
368.155	-23.21
368.366	30.04
368.577	23.89
368.788	73.04
368.999	30.04
369.209	-49.83
369.42	50.52
369.631	23.89
369.842	-29.35
370.053	-17.07
370.264	83.28
370.474	-23.21
370.685	38.23
370.896	-68.27
371.107	64.85
371.317	89.43
371.528	64.85
371.739	60.76
371.95	68.95
372.16	3.41
372.371	-12.97
372.582	9.56
372.792	-23.21
373.003	15.7
373.214	15.7
373.424	85.33
373.635	-0.68
373.846	-55.98
374.056	62.8
374.267	73.04
374.477	-19.11
374.688	68.95
374.898	79.19
375.109	-6.83
375.319	-19.11
375.53	40.28
375.74	9.56
375.951	107.86
376.161	52.56
376.372	46.42
376.582	-10.92
376.793	107.86
377.003	-2.73
377.214	40.28
377.424	-15.02
377.635	27.99
377.845	-53.93
378.055	66.9
378.266	3.41
378.476	42.32
378.686	23.89
378.897	-2.73
379.107	9.56
379.317	15.7
379.528	-29.35
379.738	64.85
379.948	54.61
380.158	52.56
380.369	-17.07
380.579	73.04
380.789	-49.83
380.999	11.61
381.21	13.65
381.42	36.18
381.63	-31.4
381.84	50.52
382.05	87.38
382.261	40.28
382.471	40.28
382.681	48.47
382.891	17.75
383.101	-0.68
383.311	9.56
383.521	17.75
383.731	54.61
383.941	5.46
384.151	66.9
384.361	32.08
384.571	-2.73
384.781	9.56
384.991	44.37
385.201	-2.73
385.411	81.24
385.621	-0.68
385.831	-8.87
386.041	13.65
386.251	64.85
386.461	11.61
386.671	56.66
386.881	50.52
387.091	60.76
387.301	71
387.511	7.51
387.72	5.46
387.93	56.66
388.14	58.71
388.35	3.41
388.56	21.85
388.769	42.32
388.979	64.85
389.189	-2.73
389.399	9.56
389.609	48.47
389.818	23.89
390.028	21.85
390.238	15.7
390.447	40.28
390.657	136.53
390.867	36.18
391.076	60.76
391.286	66.9
391.496	114
391.705	5.46
391.915	56.66
392.125	42.32
392.334	-6.83
392.544	103.76
392.753	34.13
392.963	15.7
393.172	79.19
393.382	52.56
393.591	52.56
393.801	71
394.01	138.58
394.22	109.91
394.429	81.24
394.639	-19.11
394.848	54.61
395.058	66.9
395.267	71
395.477	68.95
395.686	7.51
395.895	107.86
396.105	124.24
396.314	40.28
396.524	25.94
396.733	-0.68
396.942	36.18
397.152	36.18
397.361	128.34
397.57	44.37
397.78	58.71
397.989	91.48
398.198	150.87
398.407	71
398.617	42.32
398.826	46.42
399.035	58.71
399.244	54.61
399.453	101.72
399.663	21.85
399.872	68.95
400.081	66.9
400.29	44.37
400.499	52.56
400.708	34.13
400.917	1.37
401.127	97.62
401.336	64.85
401.545	25.94
401.754	40.28
401.963	157.01
402.172	56.66
402.381	52.56
402.59	124.24
402.799	42.32
403.008	97.62
403.217	83.28
403.426	120.15
403.635	81.24
403.844	64.85
404.053	75.09
404.262	91.48
404.471	48.47
404.68	32.08
404.888	109.91
405.097	62.8
405.306	83.28
405.515	21.85
405.724	107.86
405.933	68.95
406.142	71
406.35	140.63
406.559	122.2
406.768	157.01
406.977	126.29
407.185	116.05
407.394	101.72
407.603	167.25
407.812	142.68
408.02	120.15
408.229	103.76
408.438	142.68
408.646	138.58
408.855	177.49
409.064	132.44
409.272	146.77
409.481	228.69
409.69	212.31
409.898	189.78
410.107	212.31
410.315	212.31
410.524	169.3
410.733	83.28
410.941	191.83
411.15	296.27
411.358	130.39
411.567	189.78
411.775	228.69
411.984	175.44
412.192	216.4
412.401	230.74
412.609	308.56
412.818	261.46
413.026	257.36
413.234	310.61
413.443	353.62
413.651	326.99
413.86	290.13
414.068	294.22
414.276	400.72
414.485	404.82
414.693	361.81
414.901	335.18
415.11	400.72
415.318	435.53
415.526	378.19
415.734	505.17
415.943	402.77
416.151	466.25
416.359	439.63
416.567	478.54
416.776	507.21
416.984	523.6
417.192	621.9
417.4	556.36
417.608	582.99
417.817	599.37
418.025	603.47
418.233	679.24
418.441	609.61
418.649	687.43
418.857	742.73
419.065	671.05
419.273	722.25
419.481	828.74
419.689	806.22
419.897	779.59
420.105	855.37
420.313	892.23
420.521	908.62
420.729	959.81
420.937	941.38
421.145	1027.4
421.353	965.96
421.561	1097.03
421.769	1176.9
421.977	1150.28
422.185	1090.88
422.393	1248.58
422.601	1275.2
422.809	1262.91
423.017	1285.44
423.224	1369.41
423.432	1430.85
423.64	1424.7
423.848	1498.43
424.056	1447.23
424.263	1633.6
424.471	1580.35
424.679	1545.53
424.887	1629.5
425.094	1836.35
425.302	1803.58
425.51	1832.25
425.718	1957.18
425.925	1996.09
426.133	1985.85
426.341	2112.82
426.548	2094.39
426.756	2153.78
426.964	2194.74
427.171	2411.82
427.379	2473.26
427.586	2491.7
427.794	2497.84
428.001	2624.81
428.209	2751.79
428.417	2747.69
428.624	2833.71
428.832	2958.63
429.039	2784.55
429.247	2854.19
429.454	3167.53
429.662	3294.5
429.869	3196.2
430.076	3300.64
430.284	3349.79
430.491	3435.81
430.699	3640.61
430.906	3509.54
431.114	3775.77
431.321	3691.81
431.528	3853.59
431.736	4216.09
431.943	4197.65
432.15	4218.13
432.358	4199.7
432.565	4580.62
432.772	4478.23
432.979	4670.73
433.187	4801.8
433.394	4642.06
433.601	5078.28
433.808	5127.43
434.016	5102.86
434.223	5346.56
434.43	5518.59
434.637	5301.51
434.844	5797.12
435.052	5901.56
435.259	5969.15
435.466	5858.56
435.673	5893.37
435.88	6499.57
436.087	6640.88
436.294	6518
436.501	6436.08
436.708	6374.64
436.915	6706.41
437.122	6872.3
437.329	6950.12
437.537	7103.72
437.743	7349.48
437.95	7279.85
438.157	7632.1
438.364	7935.2
438.571	7900.38
438.778	7916.76
438.985	8692.94
439.192	8318.17
439.399	8443.09
439.606	8656.08
439.813	8867.02
440.02	9557.19
440.227	9280.71
440.433	9198.79
440.64	9520.32
440.847	9481.41
441.054	9598.15
441.261	10286.26
441.467	10020.03
441.674	10523.83
441.881	10769.58
442.088	10779.82
442.294	10869.94
442.501	10865.84
442.708	11138.22
442.914	11396.26
443.121	11979.93
443.328	11863.2
443.534	12291.23
443.741	12274.84
443.948	11938.98
444.154	12809.36
444.361	13003.92
444.568	12942.48
444.774	12856.47
444.981	13196.43
445.187	13522.06
445.394	14310.52
445.6	13835.39
445.807	15262.83
446.013	14584.95
446.22	14677.11
446.426	15328.36
446.633	15342.7
446.839	16022.62
447.046	15432.81
447.252	16516.19
447.459	16211.04
447.665	15991.91
447.871	16712.79
448.078	17546.31
448.284	16348.25
448.491	17243.21
448.697	18025.54
448.903	18164.8
449.11	18521.15
449.316	18007.11
449.522	18248.77
449.728	18820.15
449.935	18904.12
450.141	18748.47
450.347	19428.4
450.553	18588.73
450.76	18986.04
450.966	19512.36
451.172	19254.32
451.378	19686.44
451.584	19301.42
451.791	19913.77
451.997	19670.06
452.203	20323.36
452.409	20284.45
452.615	20096.03
452.821	19510.32
453.027	19070
453.233	20292.64
453.44	19196.98
453.646	19424.3
453.852	19508.27
454.058	19719.21
454.264	19498.03
454.47	19684.39
454.676	19268.66
454.882	19889.19
455.088	18148.42
455.294	18203.71
455.5	18807.86
455.705	18752.57
455.911	18058.31
456.117	17896.52
456.323	17687.62
456.529	16612.44
456.735	17400.91
456.941	16991.31
457.147	16831.57
457.352	16090.21
457.558	15862.88
457.764	16149.6
457.97	15959.14
458.176	15209.58
458.381	15424.62
458.587	14582.9
458.793	14515.32
458.999	13653.12
459.204	14994.54
459.41	14531.7
459.616	13499.53
459.821	13483.14
460.027	13370.51
460.233	13128.84
460.438	12666
460.644	12928.14
460.85	12219.55
461.055	11932.83
461.261	11812
461.466	10843.31
461.672	10722.48
461.878	11482.28
462.083	11015.34
462.289	10468.53
462.494	10382.52
462.7	9864.38
462.905	9768.13
463.111	9968.83
463.316	10177.72
463.522	9997.5
463.727	9774.27
463.932	9678.02
464.138	9753.79
464.343	9559.24
464.549	9479.36
464.754	9954.49
464.959	9684.16
465.165	9657.54
465.37	9268.42
465.575	8942.8
465.781	9348.29
465.986	9460.93
466.191	9034.96
466.397	9084.11
466.602	8582.35
466.807	8580.31
467.012	8985.8
467.218	8852.69
467.423	8883.41
467.628	8873.17
467.833	8893.65
468.038	8879.31
468.244	8473.81
468.449	8662.23
468.654	8500.44
468.859	8486.1
469.064	8500.44
469.269	8025.31
469.474	8131.8
469.679	8258.78
469.885	8062.17
470.09	8215.77
470.295	8320.21
470.5	7939.29
470.705	7894.24
470.91	7931.1
471.115	7736.54
471.32	8002.78
471.525	7963.87
471.73	7630.05
471.935	7617.76
472.139	7288.04
472.344	7376.1
472.549	7425.25
472.754	7355.62
472.959	7048.43
473.164	6853.87
473.369	6903.02
473.574	7234.79
473.778	6941.93
473.983	7132.39
474.188	6952.17
474.393	6708.46
474.598	6782.19
474.802	6544.63
475.007	6612.21
475.212	6628.59
475.417	6391.03
475.621	6429.94
475.826	6391.03
476.031	6294.77
476.235	6186.23
476.44	6135.03
476.645	6067.45
476.849	6077.69
477.054	6018.3
477.259	6118.65
477.463	5872.89
477.668	6044.92
477.872	5827.84
478.077	5956.86
478.282	5620.99
478.486	5643.52
478.691	5661.95
478.895	5612.8
479.1	5389.57
479.304	5537.02
479.509	5463.3
479.713	5504.26
479.918	5471.49
480.122	5297.41
480.326	5274.88
480.531	5481.73
480.735	5274.88
480.94	5403.91
481.144	5432.58
481.348	5225.73
481.553	5217.54
481.757	5127.43
481.961	5221.64
482.166	5350.66
482.37	5192.97
482.574	5115.14
482.778	5115.14
482.983	5397.76
483.187	5242.12
483.391	5145.86
483.595	4992.27
483.8	5035.27
484.004	5162.25
484.208	5176.58
484.412	5143.81
484.616	5154.05
484.821	5225.73
485.025	4988.17
485.229	5205.25
485.433	4988.17
485.637	5055.75
485.841	5172.49
486.045	5086.47
486.249	5012.74
486.453	5106.95
486.657	5199.11
486.861	5127.43
487.065	5088.52
487.269	5197.06
487.473	4996.36
487.677	5135.62
487.881	5045.51
488.085	5195.01
488.289	5117.19
488.493	5141.77
488.697	5213.45
488.901	5205.25
489.105	5070.09
489.309	5074.18
489.512	5152.01
489.716	5002.51
489.92	5258.5
490.124	5096.71
490.328	5326.08
490.531	5262.6
490.735	5319.94
490.939	5168.39
491.143	5334.28
491.346	5352.71
491.55	5463.3
491.754	5547.26
491.958	5512.45
492.161	5299.46
492.365	5569.79
492.569	5489.92
492.772	5446.91
492.976	5545.22
493.18	5707.01
493.383	5526.78
493.587	5620.99
493.79	5664
493.994	5688.57
494.197	5659.9
494.401	5790.97
494.605	5682.43
494.808	5960.95
495.012	5889.28
495.215	5803.26
495.419	6010.11
495.622	5897.47
495.825	5989.63
496.029	6046.97
496.232	6137.08
496.436	6192.37
496.639	6454.51
496.843	6321.4
497.046	6579.44
497.249	6618.35
497.453	6470.9
497.656	6618.35
497.859	6649.07
498.063	6683.89
498.266	6808.81
498.469	6802.67
498.673	6909.16
498.876	7040.23
499.079	6995.18
499.282	7060.71
499.485	7273.7
499.689	7245.03
499.892	7464.16
500.095	7492.83
500.298	7511.27
500.501	7601.38
500.705	7709.92
500.908	7949.53
501.111	7912.67
501.314	8068.31
501.517	8002.78
501.72	8064.22
501.923	8287.45
502.126	8312.02
502.329	8504.53
502.532	8596.69
502.735	8604.88
502.938	8916.17
503.141	8996.04
503.344	9014.48
503.547	8955.08
503.75	9247.94
503.953	9286.86
504.156	9436.36
504.359	9635.01
504.562	9696.45
504.765	9649.35
504.968	9979.07
505.17	10093.76
505.373	9981.12
505.576	10261.69
505.779	10388.66
505.982	10411.19
506.185	10953.9
506.387	10771.63
506.59	10874.03
506.793	11205.8
506.996	11011.25
507.198	11332.78
507.401	11426.98
507.604	11652.26
507.807	11902.11
508.009	11893.92
508.212	11730.08
508.415	12002.46
508.617	12475.54
508.82	12459.16
509.022	12475.54
509.225	12647.57
509.428	12915.86
509.63	13057.17
509.833	13139.08
510.035	13438.09
510.238	13374.6
510.44	13597.83
510.643	13919.36
510.845	14023.81
511.048	13933.7
511.25	14318.71
511.453	14292.09
511.655	14783.6
511.858	14857.33
512.06	14656.63
512.262	15137.9
512.465	15055.98
512.667	15418.47
512.87	15516.78
513.072	15666.28
513.274	16327.77
513.477	16151.65
513.679	16278.62
513.881	16444.51
514.084	16819.28
514.286	16819.28
514.488	17026.13
514.69	17443.92
514.893	17833.03
515.095	17562.7
515.297	17976.39
515.499	17810.5
515.701	18486.33
515.904	18631.74
516.106	18586.68
516.308	19024.95
516.51	19098.67
516.712	19268.66
516.914	19491.88
517.116	19831.85
517.318	19797.03
517.52	20073.51
517.722	20149.28
517.925	20417.57
518.127	20882.45
518.329	20802.58
518.531	20833.3
518.733	21355.54
518.935	21621.77
519.136	21634.06
519.338	22094.85
519.54	22373.38
519.742	22354.94
519.944	22469.63
520.146	22871.03
520.348	23153.65
520.55	23131.12
520.752	23239.67
520.954	23659.5
521.155	23329.78
521.357	23884.78
521.559	24243.17
521.761	24755.16
521.963	24576.99
522.164	24779.74
522.366	24939.48
522.568	25195.48
522.77	24955.86
522.971	25795.53
523.173	25678.8
523.375	26201.03
523.576	25840.59
523.778	26164.17
523.98	26307.52
524.181	26837.95
524.383	26751.93
524.584	27204.53
524.786	26989.5
524.988	27403.19
525.189	27818.92
525.391	27505.59
525.592	27982.76
525.794	27861.93
525.995	27886.51
526.197	28107.69
526.398	28273.57
526.6	28322.73
526.801	28711.84
527.003	28472.23
527.204	28912.54
527.406	29447.06
527.607	29074.33
527.808	29344.66
528.01	29019.03
528.211	29207.45
528.412	29911.95
528.614	29674.38
528.815	29830.03
529.016	29727.63
529.218	29739.92
529.419	29705.1
529.62	29787.02
529.822	29889.42
530.023	30362.5
530.224	30055.31
530.425	29959.05
530.626	30129.03
530.828	30137.23
531.029	30694.27
531.23	30360.45
531.431	30415.75
531.632	30239.62
531.833	30722.94
532.035	30667.65
532.236	30618.5
532.437	30827.39
532.638	30591.87
532.839	30694.27
533.04	30956.41
533.241	30704.51
533.442	31550.32
533.643	31052.67
533.844	31157.11
534.045	30999.42
534.246	30741.38
534.447	31159.16
534.648	31292.28
534.849	31554.42
535.05	31441.78
535.251	31318.9
535.451	31177.59
535.652	31329.14
535.853	31261.56
536.054	31351.67
536.255	31552.37
536.456	30935.93
536.657	31640.43
536.857	31415.16
537.058	31169.4
537.259	31525.75
537.46	31480.69
537.66	31198.07
537.861	31273.85
538.062	31431.54
538.263	31583.09
538.463	31101.82
538.664	30989.18
538.865	31542.13
539.065	31349.62
539.266	31189.88
539.466	31462.26
539.667	31323
539.868	31804.27
540.068	31339.38
540.269	31134.59
540.469	31636.34
540.67	31497.08
540.87	31517.56
541.071	31347.57
541.271	31570.8
541.472	31777.65
541.672	30987.13
541.873	31341.43
542.073	30915.45
542.274	31376.25
542.474	30829.44
542.675	30854.01
542.875	31753.07
543.075	31501.17
543.276	30749.57
543.476	31579
543.676	31048.57
543.877	31427.45
544.077	31400.82
544.277	31046.52
544.478	31216.5
544.678	31216.5
544.878	31236.98
545.078	31183.74
545.279	31148.92
545.479	31310.71
545.679	31396.73
545.879	31458.17
546.079	31359.86
546.28	31343.48
546.48	31107.96
546.68	31191.93
546.88	31282.04
547.08	31161.21
547.28	31091.58
547.48	31161.21
547.68	31081.34
547.88	31245.18
548.081	31366.01
548.281	31013.76
548.481	31193.98
548.681	31615.86
548.881	31417.21
549.081	31595.38
549.28	31210.36
549.48	31148.92
549.68	31157.11
549.88	31628.15
550.08	30950.27
550.28	31116.15
550.48	31357.81
550.68	31423.35
550.88	30921.6
551.08	31245.18
551.279	31417.21
551.479	30989.18
551.679	31282.04
551.879	30991.23
552.079	31218.55
552.278	31140.73
552.478	30985.08
552.678	31445.88
552.878	31085.43
553.077	31144.83
553.277	30843.77
553.477	31159.16
553.676	31050.62
553.876	30894.97
554.076	30993.28
554.275	31198.07
554.475	30411.65
554.674	31296.38
554.874	30788.48
555.074	30630.79
555.273	30948.22
555.473	30724.99
555.672	30530.44
555.872	30794.62
556.071	30677.89
556.271	30849.92
556.47	30475.14
556.67	30280.58
556.869	30636.93
557.068	30526.34
557.268	30376.84
557.467	30452.61
557.667	30610.31
557.866	30327.69
558.065	30292.87
558.265	30655.36
558.464	30342.02
558.663	30169.99
558.863	29881.23
559.062	30126.99
559.261	29911.95
559.461	30634.88
559.66	29772.69
559.859	29989.77
560.058	29678.48
560.258	30102.41
560.457	29485.97
560.656	29914
560.855	29651.86
561.054	29649.81
561.253	29598.61
561.453	29731.73
561.652	29614.99
561.851	29840.27
562.05	29377.43
562.249	29367.19
562.448	29944.72
562.647	29535.12
562.846	29410.2
563.045	29324.18
563.244	29027.23
563.443	29744.02
563.642	28994.46
563.841	29182.87
564.04	28963.74
564.239	29006.75
564.438	28939.16
564.637	28978.08
564.836	29139.86
565.035	28513.19
565.234	28697.5
565.432	28449.7
565.631	28545.95
565.83	28734.37
566.029	28482.47
566.228	28234.66
566.427	27898.8
566.625	28302.25
566.824	27888.56
567.023	28308.39
567.222	27800.49
567.42	28203.94
567.619	27722.67
567.818	27962.28
568.016	27605.94
568.215	28308.39
568.414	27569.07
568.612	28177.32
568.811	27800.49
569.01	27839.4
569.208	27503.54
569.407	27694
569.605	26932.15
569.804	27620.27
570.002	27061.18
570.201	27243.45
570.4	27089.85
570.598	26819.52
570.797	26796.99
570.995	27126.71
571.193	26756.03
571.392	27124.66
571.59	26708.93
571.789	26389.44
571.987	26405.83
572.186	26448.83
572.384	26225.61
572.582	26166.21
572.781	26387.39
572.979	25942.99
573.177	26407.87
573.376	26196.93
573.574	25965.51
573.772	25971.66
573.971	25793.48
574.169	25424.85
574.367	25463.76
574.565	25727.95
574.763	25367.51
574.962	25461.71
575.16	25127.89
575.358	25336.79
575.556	25218
575.754	25410.51
575.952	24992.73
576.151	25117.65
576.349	24759.26
576.547	24906.71
576.745	24882.14
576.943	24953.82
577.141	24292.32
577.339	24511.46
577.537	24404.96
577.735	24472.54
577.933	24470.5
578.131	24515.55
578.329	24206.31
578.527	23804.91
578.725	24067.05
578.923	24183.78
579.121	23825.39
579.319	23890.92
579.516	23976.94
579.714	23802.86
579.912	23514.09
580.11	23520.24
580.308	23690.22
580.506	23792.62
580.704	23241.71
580.901	23364.59
581.099	23321.59
581.297	23176.18
581.495	23045.11
581.692	22834.17
581.89	22983.67
582.088	22873.08
582.285	22479.87
582.483	22830.07
582.681	22594.56
582.878	22518.78
583.076	22443.01
583.274	22647.8
583.471	22158.34
583.669	22406.14
583.866	22180.87
584.064	22500.35
584.262	22166.53
584.459	22414.34
584.657	22127.62
584.854	22135.81
585.052	21699.59
585.249	21890.06
585.447	21756.94
585.644	21433.36
585.841	21664.78
586.039	21822.47
586.236	21525.52
586.434	21472.27
586.631	21351.44
586.828	21097.49
587.026	20950.04
587.223	21206.03
587.42	20962.33
587.618	21333.01
587.815	20870.17
588.012	20886.55
588.21	20522.01
588.407	20784.15
588.604	21056.53
588.801	20552.73
588.999	20538.4
589.196	20554.78
589.393	20689.95
589.59	20309.02
589.787	20550.68
589.984	20132.9
590.182	20102.18
590.379	20159.52
590.576	20057.12
590.773	20306.98
590.97	19657.77
591.167	20020.26
591.364	19532.84
591.561	20040.74
591.758	19555.37
591.955	19723.3
592.152	19532.84
592.349	19680.3
592.546	19616.81
592.743	19440.68
592.94	19065.91
593.137	19463.21
593.334	19614.76
593.531	19096.63
593.727	19438.64
593.924	19033.14
594.121	18934.84
594.318	19192.88
594.515	18869.3
594.712	18809.91
594.908	18652.22
595.105	19026.99
595.302	18699.32
595.499	18783.29
595.696	18955.32
595.892	18383.93
596.089	18562.11
596.286	18734.14
596.482	18463.8
596.679	18590.78
596.876	18396.22
597.072	18035.78
597.269	18105.41
597.466	18332.73
597.662	18035.78
597.859	18144.32
598.055	18080.83
598.252	17816.65
598.448	17921.09
598.645	18123.84
598.841	17767.49
599.038	17734.73
599.234	17519.69
599.431	17597.51
599.627	17400.91
599.824	17636.42
600.02	17437.77
600.217	17407.05
600.413	17157.2
600.609	17464.39
600.806	17241.17
601.002	17183.82
601.198	16989.27
601.395	16886.87
601.591	17091.66
601.787	16739.41
601.984	16847.96
602.18	17106
602.376	16899.16
602.572	16585.82
602.769	16911.44
602.965	16512.09
603.161	16626.78
603.357	16528.47
603.553	16399.45
603.75	16495.71
603.946	16213.09
604.142	16477.27
604.338	15946.85
604.534	16305.24
604.73	16067.68
604.926	15979.62
605.122	16215.13
605.318	16018.53
605.514	15850.6
605.71	15875.17
605.906	15811.68
606.102	15961.19
606.298	15934.56
606.494	15580.26
606.69	15649.89
606.886	15613.03
607.082	15395.95
607.278	15555.69
607.474	15412.33
607.67	15387.75
607.866	15359.08
608.062	15254.64
608.257	15219.82
608.453	15266.92
608.649	15105.13
608.845	15021.17
609.041	14943.35
609.236	14738.55
609.432	14976.11
609.628	14959.73
609.824	14916.72
610.019	14744.69
610.215	14906.48
610.411	14619.77
610.606	14769.27
610.802	14664.82
610.998	14630.01
611.193	14580.85
611.389	14490.74
611.584	14429.31
611.78	14191.74
611.976	14359.67
612.171	14290.04
612.367	14333.05
612.562	14386.3
612.758	14138.49
612.953	13933.7
613.149	14218.36
613.344	14060.67
613.539	14341.24
613.735	14034.05
613.93	13964.42
614.126	13894.79
614.321	14144.64
614.517	13986.94
614.712	13653.12
614.907	13800.58
615.103	13761.67
615.298	13722.76
615.493	13988.99
615.688	13460.62
615.884	13769.86
616.079	13634.69
616.274	13544.58
616.47	13421.7
616.665	13485.19
616.86	13470.86
617.055	13419.66
617.25	13245.58
617.445	13415.56
617.641	13096.08
617.836	13278.35
618.031	13114.51
618.226	13212.81
618.421	12889.23
618.616	13153.42
618.811	12985.49
619.006	13061.26
619.201	12749.97
619.396	13071.5
619.591	12457.11
619.786	12715.16
619.981	12455.06
620.176	12709.01
620.371	12223.64
620.566	12493.97
620.761	12416.15
620.956	12297.37
621.151	12172.44
621.346	12305.56
621.541	12145.82
621.735	12280.99
621.93	12065.95
622.125	12084.38
622.32	11607.2
622.515	11912.35
622.709	11773.09
622.904	11633.83
623.099	11639.97
623.294	11646.12
623.488	11537.57
623.683	11631.78
623.878	11429.03
624.072	11244.71
624.267	11472.04
624.462	11209.9
624.656	11213.99
624.851	11218.09
625.046	11224.23
625.24	11037.87
625.435	10974.38
625.629	10708.15
625.824	10771.63
626.018	10710.19
626.213	10349.75
626.407	10736.82
626.602	10624.18
626.796	10630.32
626.991	10577.08
627.185	10548.4
627.38	10433.72
627.574	10243.26
627.768	9981.12
627.963	10087.61
628.157	10056.89
628.352	10054.84
628.546	9852.09
628.74	10126.52
628.935	9981.12
629.129	9700.55
629.323	9704.64
629.517	9561.28
629.712	9891.01
629.906	9831.62
630.1	9575.62
630.294	9669.83
630.489	9440.45
630.683	9641.15
630.877	9516.23
631.071	9256.14
631.265	9395.4
631.459	9485.51
631.653	9225.42
631.848	9143.5
632.042	9102.54
632.236	9192.65
632.43	8957.13
632.624	9104.59
632.818	8989.9
633.012	8832.21
633.206	8973.52
633.4	8897.74
633.594	8729.81
633.788	8738
633.982	8807.63
634.176	8805.58
634.369	8641.75
634.563	8711.38
634.757	8486.1
634.951	8418.52
635.145	8463.57
635.339	8371.41
635.533	8469.72
635.726	8436.95
635.92	8223.96
636.114	8096.99
636.308	8211.67
636.501	8088.79
636.695	8176.86
636.889	8066.27
637.083	8074.46
637.276	8205.53
637.47	7857.37
637.664	7789.79
637.857	8041.69
638.051	7728.35
638.244	7847.13
638.438	7658.72
638.632	7662.82
638.825	7642.34
639.019	7523.55
639.212	7425.25
639.406	7644.38
639.599	7453.92
639.793	7390.44
639.986	7333.09
640.18	7322.85
640.373	7238.89
640.567	7134.44
640.76	7068.91
640.954	7183.59
641.147	7064.81
641.34	7044.33
641.534	6978.79
641.727	7077.1
641.92	6900.97
642.114	6706.41
642.307	6802.67
642.5	6892.78
642.694	6747.37
642.887	6636.78
643.08	6853.87
643.273	6651.12
643.467	6528.24
643.66	6540.53
643.853	6345.97
644.046	6399.22
644.239	6386.93
644.432	6319.35
644.626	6311.16
644.819	6270.2
645.012	6331.64
645.205	6196.47
645.398	6163.7
645.591	6348.02
645.784	6157.56
645.977	6069.5
646.17	5985.53
646.363	5872.89
646.556	6040.83
646.749	6059.26
646.942	5960.95
647.135	5879.04
647.328	5805.31
647.521	5707.01
647.714	5891.32
647.907	5694.72
648.099	5635.33
648.292	5463.3
648.485	5510.4
648.678	5537.02
648.871	5444.87
649.064	5473.54
649.256	5528.83
649.449	5446.91
649.642	5489.92
649.835	5324.04
650.027	5432.58
650.22	5281.03
650.413	5354.76
650.605	5254.41
650.798	5129.48
650.991	5133.57
651.183	5219.59
651.376	5156.1
651.568	5125.38
651.761	5063.94
651.954	4902.15
652.146	4957.45
652.339	5061.9
652.531	4963.59
652.724	4965.64
652.916	4857.1
653.109	4840.72
653.301	4775.18
653.494	4693.26
653.686	4773.13
653.879	4689.17
654.071	4652.3
654.263	4736.27
654.456	4697.36
654.648	4742.41
654.84	4566.29
655.033	4586.77
655.225	4594.96
655.417	4474.13
655.61	4400.4
655.802	4531.47
655.994	4390.16
656.186	4500.75
656.379	4412.69
656.571	4351.25
656.763	4244.76
656.955	4343.06
657.148	4275.48
657.34	4203.8
657.532	4070.68
657.724	4089.11
657.916	4191.51
658.108	4089.11
658.3	4056.34
658.492	4011.29
658.684	4142.36
658.876	4093.21
659.068	4009.24
659.26	4058.39
659.452	3921.18
659.644	3984.66
659.836	3931.42
660.028	3890.46
660.22	3794.2
660.412	3626.27
660.604	3732.76
660.796	3761.44
660.988	3724.57
661.18	3859.74
661.372	3611.93
661.563	3669.28
661.755	3751.2
661.947	3546.4
662.139	3605.79
662.331	3554.59
662.522	3480.86
662.714	3509.54
662.906	3556.64
663.097	3534.11
663.289	3515.68
663.481	3521.82
663.673	3360.03
663.864	3345.7
664.056	3382.56
664.247	3476.77
664.439	3304.74
664.631	3224.87
664.822	3398.95
665.014	3198.24
665.205	3216.68
665.397	3228.96
665.588	3284.26
665.78	3267.88
665.971	3169.57
666.163	3235.11
666.354	3179.81
666.546	3243.3
666.737	3106.09
666.929	3231.01
667.12	3056.93
667.311	3067.17
667.503	3185.96
667.694	2997.54
667.885	3104.04
668.077	3011.88
668.268	2954.54
668.459	3069.22
668.651	2829.61
668.842	2985.26
669.033	2843.95
669.224	2870.57
669.416	2925.86
669.607	2991.4
669.798	2964.78
669.989	2960.68
670.18	2899.24
670.371	2809.13
670.563	2817.32
670.754	2747.69
670.945	2823.47
671.136	2782.51
671.327	2878.76
671.518	2688.3
671.709	2745.64
671.9	2743.6
672.091	2655.53
672.282	2721.07
672.473	2702.64
672.664	2690.35
672.855	2817.32
673.046	2772.27
673.237	2747.69
673.428	2546.99
673.619	2661.68
673.809	2628.91
674	2510.13
674.191	2639.15
674.382	2645.29
674.573	2590
674.764	2491.7
674.954	2534.7
675.145	2526.51
675.336	2473.26
675.527	2551.09
675.717	2579.76
675.908	2456.88
676.099	2526.51
676.289	2456.88
676.48	2520.37
676.671	2542.89
676.861	2542.89
677.052	2399.54
677.243	2524.46
677.433	2383.15
677.624	2458.93
677.814	2454.83
678.005	2481.46
678.195	2440.5
678.386	2350.39
678.576	2432.3
678.767	2420.02
678.957	2342.19
679.148	2475.31
679.338	2372.91
679.529	2325.81
679.719	2454.83
679.909	2530.61
680.1	2477.36
680.29	2309.43
680.481	2383.15
680.671	2250.03
680.861	2442.54
681.052	2323.76
681.242	2348.34
681.432	2399.54
681.622	2254.13
681.813	2266.42
682.003	2245.94
682.193	2239.8
682.383	2338.1
682.573	2370.87
682.764	2323.76
682.954	2350.39
683.144	2344.24
683.334	2170.16
683.524	2194.74
683.714	2260.27
683.904	2274.61
684.094	2311.47
684.284	2258.23
684.474	2319.67
684.664	2221.36
684.854	2264.37
685.044	2184.5
685.234	2270.51
685.424	2241.84
685.614	2131.25
685.804	2293.04
685.994	2133.3
686.184	2166.07
686.374	2223.41
686.564	2211.12
686.753	2239.8
686.943	2237.75
687.133	2295.09
687.323	2207.03
687.513	2258.23
687.702	2235.7
687.892	2243.89
688.082	2245.94
688.272	2170.16
688.461	2262.32
688.651	2166.07
688.841	2219.32
689.03	2207.03
689.22	2106.68
689.41	2196.79
689.599	2139.44
689.789	2192.69
689.979	2112.82
690.168	2116.92
690.358	2194.74
690.547	2250.03
690.737	2213.17
690.926	2198.84
691.116	2116.92
691.305	2184.5
691.495	2106.68
691.684	2112.82
691.874	2223.41
692.063	2082.1
692.252	2211.12
692.442	2145.59
692.631	2137.4
692.82	2184.5
693.01	2196.79
693.199	2137.4
693.388	2039.09
693.578	2071.86
693.767	2075.96
693.956	2092.34
694.146	2155.83
694.335	2153.78
694.524	2153.78
694.713	2176.31
694.902	2196.79
695.092	2252.08
695.281	2080.05
695.47	2252.08
695.659	2112.82
695.848	2219.32
696.037	2196.79
696.226	2127.16
696.415	2133.3
696.604	2215.22
696.793	2155.83
696.982	2190.64
697.171	2104.63
697.36	2151.73
697.549	2078.01
697.738	2147.64
697.927	2247.99
698.116	2180.4
698.305	2041.14
698.494	2106.68
698.683	2168.12
698.872	2125.11
699.061	2198.84
699.25	2127.16
699.438	2129.2
699.627	2192.69
699.816	2209.08
700.005	2131.25
700.193	2121.01
700.382	2235.7
700.571	2186.55
700.76	2145.59
700.948	2178.36
701.137	2106.68
701.326	2057.53
701.514	2200.88
701.703	2123.06
701.892	2043.19
702.08	2174.26
702.269	2106.68
702.457	2006.33
702.646	2145.59
702.834	2045.24
703.023	2157.88
703.212	2030.9
703.4	2061.62
703.589	2012.47
703.777	2172.21
703.965	2055.48
704.154	2084.15
704.342	2075.96
704.531	2047.29
704.719	2020.66
704.907	2088.25
705.096	2022.71
705.284	2026.81
705.472	2088.25
705.661	2051.38
705.849	1998.13
706.037	2028.85
706.226	2022.71
706.414	1858.87
706.602	2016.57
706.79	1977.66
706.979	1967.42
707.167	2014.52
707.355	1985.85
707.543	1908.02
707.731	1920.31
707.919	1938.74
708.107	1932.6
708.296	1965.37
708.484	1918.26
708.672	1867.06
708.86	1940.79
709.048	1879.35
709.236	1969.46
709.424	1908.02
709.612	1922.36
709.8	1938.74
709.988	1885.5
710.176	1932.6
710.364	1934.65
710.551	1846.59
710.739	1914.17
710.927	1807.67
711.115	1934.65
711.303	1768.76
711.491	1811.77
711.679	1830.2
711.866	1822.01
712.054	1813.82
712.242	1867.06
712.43	1944.89
712.617	1844.54
712.805	1805.63
712.993	1807.67
713.181	1793.34
713.368	1729.85
713.556	1809.72
713.744	1772.86
713.931	1738.04
714.119	1813.82
714.306	1735.99
714.494	1654.08
714.682	1809.72
714.869	1678.65
715.057	1699.13
715.244	1631.55
715.432	1742.14
715.619	1740.09
715.807	1690.94
715.994	1695.04
716.182	1596.73
716.369	1748.28
716.556	1656.12
716.744	1697.08
716.931	1676.6
717.119	1656.12
717.306	1629.5
717.493	1639.74
717.681	1576.25
717.868	1652.03
718.055	1514.81
718.242	1516.86
718.43	1631.55
718.617	1611.07
718.804	1508.67
718.991	1699.13
719.179	1549.63
719.366	1557.82
719.553	1584.45
719.74	1516.86
719.927	1555.77
720.114	1531.2
720.301	1590.59
720.488	1525.05
720.676	1611.07
720.863	1500.48
721.05	1547.58
721.237	1539.39
721.424	1611.07
721.611	1506.62
721.798	1434.94
721.985	1525.05
722.172	1572.16
722.358	1449.28
722.545	1469.76
722.732	1430.85
722.919	1531.2
723.106	1498.43
723.293	1412.42
723.48	1482.05
723.667	1484.09
723.853	1398.08
724.04	1426.75
724.227	1451.33
724.414	1381.7
724.6	1381.7
724.787	1285.44
724.974	1443.14
725.161	1445.18
725.347	1326.4
725.534	1430.85
725.72	1406.27
725.907	1367.36
726.094	1371.46
726.28	1393.98
726.467	1285.44
726.653	1361.22
726.84	1340.74
727.027	1377.6
727.213	1293.63
727.4	1400.13
727.586	1281.35
727.773	1312.07
727.959	1375.55
728.145	1353.02
728.332	1301.83
728.518	1312.07
728.705	1363.26
728.891	1316.16
729.077	1277.25
729.264	1400.13
729.45	1326.4
729.636	1262.91
729.823	1244.48
730.009	1224
730.195	1279.3
730.382	1316.16
730.568	1176.9
730.754	1260.87
730.94	1293.63
731.126	1170.76
731.313	1312.07
731.499	1234.24
731.685	1291.59
731.871	1195.33
732.057	1146.18
732.243	1314.11
732.429	1205.57
732.615	1195.33
732.801	1240.39
732.987	1226.05
733.173	1252.67
733.359	1267.01
733.545	1234.24
733.731	1205.57
733.917	1088.84
734.103	1264.96
734.289	1217.86
734.475	1162.56
734.661	1203.52
734.847	1144.13
735.033	1221.95
735.219	1115.46
735.404	1152.32
735.59	1203.52
735.776	1097.03
735.962	1213.76
736.148	1195.33
736.333	1201.48
736.519	1189.19
736.705	1121.6
736.89	1117.51
737.076	1142.08
737.262	1099.08
737.447	1148.23
737.633	1109.32
737.819	1101.12
738.004	1140.04
738.19	1078.6
738.375	1111.36
738.561	1115.46
738.747	1099.08
738.932	1035.59
739.118	1080.64
739.303	1054.02
739.489	1068.36
739.674	976.2
739.859	1105.22
740.045	1011.01
740.23	1021.25
740.416	1006.92
740.601	1035.59
740.786	1015.11
740.972	959.81
741.157	1002.82
741.342	1019.21
741.528	1049.93
741.713	1088.84
741.898	980.29
742.084	976.2
742.269	1025.35
742.454	1027.4
742.639	959.81
742.824	990.53
743.01	849.22
743.195	978.25
743.38	961.86
743.565	1006.92
743.75	986.44
743.935	984.39
744.12	957.77
744.305	927.05
744.49	916.81
744.675	937.29
744.86	935.24
745.045	935.24
745.23	970.05
745.415	998.73
745.6	941.38
745.785	896.33
745.97	859.46
746.155	843.08
746.34	912.71
746.525	855.37
746.71	927.05
746.895	898.38
747.079	845.13
747.264	785.74
747.449	929.1
747.634	810.31
747.819	890.18
748.003	908.62
748.188	875.85
748.373	851.27
748.557	855.37
748.742	904.52
748.927	879.94
749.111	755.02
749.296	785.74
749.481	822.6
749.665	787.79
749.85	822.6
750.034	832.84
750.219	828.74
750.404	714.06
750.588	859.46
750.773	736.59
750.957	720.2
751.141	765.26
751.326	806.22
751.51	830.79
751.695	795.98
751.879	736.59
752.064	730.44
752.248	752.97
752.432	722.25
752.617	765.26
752.801	697.67
752.985	755.02
753.17	703.82
753.354	720.2
753.538	740.68
753.722	619.85
753.907	699.72
754.091	703.82
754.275	687.43
754.459	738.63
754.643	689.48
754.828	558.41
755.012	632.14
755.196	605.52
755.38	640.33
755.564	654.67
755.748	621.9
755.932	595.28
756.116	695.63
756.3	626
756.484	605.52
756.668	566.6
756.852	525.65
757.036	654.67
757.22	640.33
757.404	630.09
757.588	599.37
757.772	560.46
757.956	613.71
758.14	630.09
758.323	507.21
758.507	572.75
758.691	580.94
758.875	613.71
759.059	562.51
759.242	513.36
759.426	544.08
759.61	472.4
759.794	531.79
759.977	564.56
760.161	533.84
760.345	550.22
760.528	564.56
760.712	531.79
760.895	572.75
761.079	509.26
761.263	496.97
761.446	464.21
761.63	492.88
761.813	591.18
761.997	548.17
762.18	535.89
762.364	527.69
762.547	527.69
762.731	476.49
762.914	511.31
763.098	531.79
763.281	466.25
763.464	544.08
763.648	546.13
763.831	499.02
764.015	476.49
764.198	494.93
764.381	462.16
764.564	423.25
764.748	427.34
764.931	431.44
765.114	396.62
765.297	394.58
765.481	472.4
765.664	470.35
765.847	384.34
766.03	460.11
766.213	404.82
766.397	499.02
766.58	451.92
766.763	496.97
766.946	376.14
767.129	466.25
767.312	482.64
767.495	361.81
767.678	402.77
767.861	445.77
768.044	458.06
768.227	490.83
768.41	431.44
768.593	445.77
768.776	466.25
768.959	388.43
769.142	449.87
769.324	466.25
769.507	372.05
769.69	400.72
769.873	507.21
770.056	370
770.239	476.49
770.421	451.92
770.604	396.62
770.787	390.48
770.97	386.38
771.152	445.77
771.335	427.34
771.518	431.44
771.7	410.96
771.883	503.12
772.066	380.24
772.248	410.96
772.431	363.86
772.613	443.73
772.796	386.38
772.978	431.44
773.161	490.83
773.343	380.24
773.526	339.28
773.708	398.67
773.891	404.82
774.073	423.25
774.256	402.77
774.438	435.53
774.621	413.01
774.803	349.52
774.985	421.2
775.168	300.37
775.35	322.9
775.532	406.86
775.715	337.23
775.897	361.81
776.079	370
776.261	425.29
776.444	326.99
776.626	363.86
776.808	347.47
776.99	331.09
777.173	345.42
777.355	353.62
777.537	394.58
777.719	351.57
777.901	357.71
778.083	247.12
778.265	343.38
778.447	320.85
778.629	300.37
778.811	288.08
778.993	294.22
779.175	267.6
779.357	302.42
779.539	253.27
779.721	197.97
779.903	347.47
780.085	331.09
780.267	331.09
780.449	286.03
780.631	314.7
780.812	296.27
780.994	286.03
781.176	294.22
781.358	273.75
781.54	179.54
781.721	337.23
781.903	263.51
782.085	269.65
782.267	204.11
782.448	202.07
782.63	286.03
782.812	253.27
782.993	273.75
783.175	302.42
783.357	290.13
783.538	222.55
783.72	263.51
783.901	236.88
784.083	296.27
784.264	269.65
784.446	220.5
784.627	193.87
784.809	273.75
784.99	267.6
785.172	191.83
785.353	238.93
785.535	177.49
785.716	222.55
785.897	185.68
786.079	247.12
786.26	197.97
786.441	271.7
786.623	236.88
786.804	152.91
786.985	277.84
787.167	212.31
787.348	210.26
787.529	236.88
787.71	286.03
787.891	210.26
788.073	165.2
788.254	222.55
788.435	212.31
788.616	183.63
788.797	183.63
788.978	226.64
789.159	224.59
789.34	146.77
789.522	93.52
789.703	189.78
789.884	249.17
790.065	140.63
790.246	253.27
790.427	189.78
790.607	197.97
790.788	185.68
790.969	152.91
791.15	140.63
791.331	197.97
791.512	140.63
791.693	234.83
791.874	107.86
792.054	144.72
792.235	154.96
792.416	140.63
792.597	216.4
792.778	191.83
792.958	165.2
793.139	146.77
793.32	159.06
793.5	200.02
793.681	189.78
793.862	187.73
794.042	136.53
794.223	128.34
794.404	167.25
794.584	179.54
794.765	142.68
794.945	204.11
795.126	173.39
795.306	130.39
795.487	114
795.667	171.35
795.848	114
796.028	107.86
796.209	171.35
796.389	99.67
796.57	134.48
796.75	126.29
796.93	146.77
797.111	124.24
797.291	185.68
797.471	163.15
797.652	101.72
797.832	118.1
798.012	105.81
798.192	128.34
798.373	150.87
798.553	73.04
798.733	138.58
798.913	130.39
799.093	109.91
799.274	175.44
799.454	146.77
799.634	134.48
799.814	79.19
799.994	75.09
800.174	146.77
800.354	62.8
800.534	105.81
800.714	122.2
800.894	138.58
801.074	44.37
801.254	124.24
801.434	120.15
801.614	187.73
801.794	114
801.974	396.62
802.154	140.63
802.334	128.34
802.514	91.48
802.693	124.24
802.873	89.43
803.053	138.58
803.233	134.48
803.413	101.72
803.592	81.24
803.772	171.35
803.952	138.58
804.131	130.39
804.311	128.34
804.491	122.2
804.67	66.9
804.85	140.63
805.03	62.8
805.209	91.48
805.389	157.01
805.568	173.39
805.748	95.57
805.928	42.32
806.107	71
806.287	128.34
806.466	58.71
806.646	99.67
806.825	73.04
807.004	79.19
807.184	30.04
807.363	79.19
807.543	75.09
807.722	66.9
807.901	105.81
808.081	58.71
808.26	81.24
808.439	142.68
808.619	83.28
808.798	77.14
808.977	138.58
809.156	52.56
809.336	89.43
809.515	58.71
809.694	75.09
809.873	130.39
810.052	56.66
810.231	75.09
810.411	36.18
810.59	103.76
810.769	101.72
810.948	177.49
811.127	77.14
811.306	130.39
811.485	54.61
811.664	116.05
811.843	60.76
812.022	107.86
812.201	25.94
812.38	89.43
812.559	89.43
812.737	105.81
812.916	38.23
813.095	183.63
813.274	101.72
813.453	9.56
813.632	89.43
813.811	89.43
813.989	103.76
814.168	91.48
814.347	89.43
814.526	111.96
814.704	44.37
814.883	48.47
815.062	44.37
815.24	142.68
815.419	56.66
815.598	48.47
815.776	89.43
815.955	101.72
816.133	-4.78
816.312	142.68
816.49	58.71
816.669	89.43
816.847	109.91
817.026	89.43
817.204	5.46
817.383	132.44
817.561	40.28
817.74	25.94
817.918	87.38
818.097	101.72
818.275	68.95
818.453	52.56
818.632	81.24
818.81	1.37
818.988	91.48
819.167	58.71
819.345	-2.73
819.523	75.09
819.701	64.85
819.879	30.04
820.058	11.61
820.236	32.08
820.414	48.47
820.592	-17.07
820.77	44.37
820.948	30.04
821.127	87.38
821.305	48.47
821.483	-37.55
821.661	66.9
821.839	50.52
822.017	87.38
822.195	9.56
822.373	95.57
822.551	71
822.729	77.14
822.907	32.08
823.085	75.09
823.262	56.66
823.44	17.75
823.618	116.05
823.796	46.42
823.974	62.8
824.152	105.81
824.329	73.04
824.507	103.76
824.685	23.89
824.863	40.28
825.04	32.08
825.218	64.85
825.396	95.57
825.574	71
825.751	-12.97
825.929	46.42
826.107	159.06
826.284	73.04
826.462	44.37
826.639	-19.11
826.817	-39.59
826.994	93.52
827.172	91.48
827.349	23.89
827.527	19.8
827.704	50.52
827.882	34.13
828.059	50.52
828.237	66.9
828.414	1.37
828.591	50.52
828.769	60.76
828.946	56.66
829.124	103.76
829.301	116.05
829.478	3.41
829.655	7.51
829.833	103.76
830.01	60.76
830.187	7.51
830.364	-2.73
830.542	83.28
830.719	23.89
830.896	23.89
831.073	17.75
831.25	34.13
831.427	73.04
831.604	66.9
831.782	34.13
831.959	-17.07
832.136	30.04
832.313	60.76
832.49	25.94
832.667	87.38
832.844	-29.35
833.021	58.71
833.198	54.61
833.374	40.28
833.551	36.18
833.728	-6.83
833.905	105.81
834.082	46.42
834.259	23.89
834.436	13.65
834.612	-4.78
834.789	68.95
834.966	-12.97
835.143	27.99
835.319	1.37
835.496	146.77
835.673	9.56
835.85	56.66
836.026	73.04
836.203	25.94
836.38	114
836.556	36.18
836.733	73.04
836.909	58.71
837.086	44.37
837.262	79.19
837.439	75.09
837.616	40.28
837.792	54.61
837.968	13.65
838.145	46.42
838.321	-8.87
838.498	36.18
838.674	52.56
838.851	107.86
839.027	40.28
839.203	9.56
839.38	-27.31
839.556	7.51
839.732	62.8
839.909	54.61
840.085	13.65
840.261	-45.74
840.437	32.08
840.614	36.18
840.79	73.04
840.966	32.08
841.142	17.75
841.318	-33.45
841.494	27.99
841.671	60.76
841.847	68.95
842.023	-72.36
842.199	99.67
842.375	52.56
842.551	44.37
842.727	17.75
842.903	79.19
843.079	15.7
843.255	-17.07
843.431	66.9
843.607	3.41
843.783	68.95
843.959	23.89
844.134	17.75
844.31	60.76
844.486	15.7
844.662	52.56
844.838	42.32
845.013	32.08
845.189	27.99
845.365	40.28
845.541	-19.11
845.716	83.28
845.892	-41.64
846.068	36.18
846.244	109.91
846.419	19.8
846.595	3.41
846.77	-8.87
846.946	50.52
847.122	64.85
847.297	42.32
847.473	122.2
847.648	21.85
847.824	83.28
847.999	-33.45
848.175	13.65
848.35	-10.92
848.526	-23.21
848.701	58.71
848.876	44.37
849.052	36.18
849.227	42.32
849.403	15.7
849.578	25.94
849.753	40.28
849.929	9.56
850.104	9.56
850.279	-23.21
850.454	44.37
850.63	-64.17
850.805	-35.5
850.98	-45.74
851.155	56.66
851.33	-6.83
851.505	7.51
851.681	64.85
851.856	-0.68
852.031	87.38
852.206	32.08
852.381	-2.73
852.556	19.8
852.731	19.8
852.906	1.37
853.081	44.37
853.256	11.61
853.431	109.91
853.606	13.65
853.781	-8.87
853.956	-31.4
854.131	-51.88
854.305	-0.68
854.48	-68.27
854.655	62.8
854.83	1.37
855.005	-29.35
855.18	32.08
855.354	13.65
855.529	68.95
855.704	13.65
855.879	-8.87
856.053	-23.21
856.228	-25.26
856.403	-41.64
856.577	17.75
856.752	34.13
856.926	36.18
857.101	34.13
857.276	3.41
857.45	62.8
857.625	-4.78
857.799	54.61
857.974	-25.26
858.148	15.7
858.323	58.71
858.497	15.7
858.672	-43.69
858.846	58.71
859.02	9.56
859.195	-35.5
859.369	-0.68
859.543	23.89
859.718	-0.68
859.892	52.56
860.066	9.56
860.241	-6.83
860.415	32.08
860.589	27.99
860.763	-23.21
860.938	9.56
861.112	1.37
861.286	3.41
861.46	62.8
861.634	-6.83
861.808	58.71
861.982	-68.27
862.157	19.8
862.331	25.94
862.505	-23.21
862.679	-41.64
862.853	1.37
863.027	44.37
863.201	-10.92
863.375	-21.16
863.549	-8.87
863.722	118.1
863.896	-15.02
864.07	25.94
864.244	58.71
864.418	32.08
864.592	-29.35
864.766	-2.73
864.939	60.76
865.113	9.56
865.287	36.18
865.461	-4.78
865.634	-8.87
865.808	3.41
865.982	52.56
866.156	-62.12
866.329	23.89
866.503	-43.69
866.676	56.66
866.85	5.46
867.024	-12.97
867.197	-47.79
867.371	42.32
867.544	-15.02
867.718	13.65
867.891	3.41
868.065	23.89
868.238	15.7
868.412	15.7
868.585	27.99
868.759	-4.78
868.932	68.95
869.105	5.46
869.279	-33.45
869.452	-6.83
869.625	-15.02
869.799	3.41
869.972	-10.92
870.145	3.41
870.319	21.85
870.492	77.14
870.665	36.18
870.838	25.94
871.011	7.51
871.185	-72.36
871.358	-4.78
871.531	1.37
871.704	-19.11
871.877	-17.07
872.05	15.7
872.223	30.04
872.396	89.43
872.569	25.94
872.742	7.51
872.915	42.32
873.088	9.56
873.261	103.76
873.434	32.08
873.607	-25.26
873.78	56.66
873.953	95.57
874.126	48.47
874.299	42.32
874.471	54.61
874.644	7.51
874.817	44.37
874.99	42.32
875.163	48.47
875.335	9.56
875.508	-66.22
875.681	-15.02
875.853	15.7
876.026	17.75
876.199	-43.69
876.371	-15.02
876.544	-37.55
876.717	40.28
876.889	7.51
877.062	25.94
877.234	-88.75
877.407	23.89
877.579	-8.87
877.752	3.41
877.924	-47.79
878.097	38.23
878.269	13.65
878.442	23.89
878.614	23.89
878.786	66.9
878.959	-19.11
879.131	36.18
879.303	-2.73
879.476	-4.78
879.648	161.11
879.82	34.13
879.993	13.65
880.165	5.46
880.337	52.56
880.509	-82.6
880.681	-82.6
880.854	-37.55
881.026	-51.88
881.198	58.71
881.37	-21.16
881.542	15.7
881.714	-58.03
881.886	40.28
882.058	-21.16
882.23	73.04
882.402	32.08
882.574	60.76
882.746	-47.79
882.918	1.37
883.09	32.08
883.262	54.61
883.434	-62.12
883.606	-33.45
883.778	95.57
883.95	-41.64
884.122	-4.78
884.293	-25.26
884.465	-39.59
884.637	58.71
884.809	-55.98
884.98	73.04
885.152	-4.78
885.324	9.56
885.496	9.56
885.667	-21.16
885.839	-80.55
886.011	79.19
886.182	-15.02
886.354	-31.4
886.525	-47.79
886.697	-12.97
886.869	-4.78
887.04	23.89
887.212	3.41
887.383	32.08
887.555	54.61
887.726	83.28
887.897	32.08
888.069	68.95
888.24	-8.87
888.412	13.65
888.583	9.56
888.754	32.08
888.926	1.37
889.097	-4.78
889.268	-39.59
889.44	17.75
889.611	7.51
889.782	-33.45
889.953	-53.93
890.125	13.65
890.296	11.61
890.467	-66.22
890.638	9.56
890.809	-19.11
890.98	-17.07
891.151	50.52
891.323	68.95
891.494	-31.4
891.665	7.51
891.836	-47.79
892.007	36.18
892.178	75.09
892.349	-8.87
892.52	32.08
892.691	66.9
892.862	48.47
893.032	-49.83
893.203	-45.74
893.374	-0.68
893.545	1.37
893.716	-21.16
893.887	11.61
894.057	21.85
894.228	13.65
894.399	-27.31
894.57	56.66
894.74	89.43
894.911	50.52
895.082	21.85
895.253	64.85
895.423	60.76
895.594	7.51
895.764	1.37
895.935	-21.16
896.106	-10.92
896.276	1.37
896.447	42.32
896.617	60.76
896.788	-17.07
896.958	38.23
897.129	17.75
897.299	-47.79
897.47	-8.87
897.64	34.13
897.81	-8.87
897.981	-62.12
898.151	15.7
898.322	21.85
898.492	-39.59
898.662	-25.26
898.832	-15.02
899.003	34.13
899.173	42.32
899.343	17.75
899.513	-21.16
