Data from USB4F104151__224__14-00-16-883.txt Node

Date: Thu Mar 13 14:00:16 EDT 2025
User: louis
Spectrometer: USB4F10415
Trigger mode: 4
Integration Time (sec): 1.000000E-2
Scans to average: 1
Electric dark correction enabled: true
Nonlinearity correction enabled: false
Boxcar width: 0
XAxis mode: Wavelengths
Number of Pixels in Spectrum: 3648
>>>>>Begin Spectral Data<<<<<
178.204	-2.56
178.424	-2.56
178.644	-2.56
178.864	5.63
179.084	-4.61
179.304	-57.86
179.524	3.58
179.744	11.78
179.964	3.58
180.184	40.45
180.404	1.54
180.624	44.54
180.844	3.58
181.064	17.92
181.283	-27.14
181.503	7.68
181.723	-49.66
181.943	-43.52
182.163	22.02
182.383	-14.85
182.602	50.69
182.822	83.45
183.042	34.3
183.262	91.65
183.482	11.78
183.701	-31.23
183.921	48.64
184.141	-35.33
184.361	118.27
184.58	-0.51
184.8	-0.51
185.02	9.73
185.239	-51.71
185.459	71.17
185.679	42.5
185.898	-51.71
186.118	48.64
186.338	-45.57
186.557	7.68
186.777	-37.38
186.997	-20.99
187.216	36.35
187.436	36.35
187.655	85.5
187.875	34.3
188.095	11.78
188.314	101.89
188.534	93.69
188.753	26.11
188.973	28.16
189.192	11.78
189.412	-37.38
189.631	34.3
189.851	-43.52
190.07	44.54
190.29	-6.66
190.509	19.97
190.729	54.78
190.948	105.98
191.168	97.79
191.387	56.83
191.607	13.82
191.826	62.98
192.045	-0.51
192.265	28.16
192.484	48.64
192.704	34.3
192.923	69.12
193.142	101.89
193.362	93.69
193.581	83.45
193.8	77.31
194.02	97.79
194.239	101.89
194.458	73.21
194.678	71.17
194.897	28.16
195.116	-8.7
195.335	73.21
195.555	85.5
195.774	7.68
195.993	36.35
196.212	19.97
196.432	36.35
196.651	99.84
196.87	-4.61
197.089	99.84
197.308	15.87
197.528	77.31
197.747	52.74
197.966	-25.09
198.185	52.74
198.404	58.88
198.623	36.35
198.842	3.58
199.062	34.3
199.281	40.45
199.5	56.83
199.719	52.74
199.938	50.69
200.157	-0.51
200.376	134.65
200.595	65.02
200.814	28.16
201.033	87.55
201.252	13.82
201.471	30.21
201.69	69.12
201.909	75.26
202.128	36.35
202.347	93.69
202.566	-25.09
202.785	50.69
203.004	11.78
203.223	67.07
203.442	110.08
203.661	38.4
203.879	44.54
204.098	79.36
204.317	46.59
204.536	54.78
204.755	69.12
204.974	36.35
205.193	9.73
205.411	52.74
205.63	5.63
205.849	32.26
206.068	32.26
206.287	11.78
206.505	22.02
206.724	122.37
206.943	38.4
207.162	83.45
207.381	32.26
207.599	-2.56
207.818	22.02
208.037	44.54
208.255	11.78
208.474	7.68
208.693	22.02
208.911	44.54
209.13	44.54
209.349	40.45
209.567	17.92
209.786	30.21
210.005	97.79
210.223	112.13
210.442	-25.09
210.661	32.26
210.879	44.54
211.098	22.02
211.316	-0.51
211.535	26.11
211.753	-4.61
211.972	-18.94
212.191	46.59
212.409	-4.61
212.628	105.98
212.846	44.54
213.065	65.02
213.283	30.21
213.502	11.78
213.72	22.02
213.938	77.31
214.157	-0.51
214.375	19.97
214.594	3.58
214.812	32.26
215.031	65.02
215.249	24.06
215.467	93.69
215.686	71.17
215.904	19.97
216.122	38.4
216.341	69.12
216.559	26.11
216.778	101.89
216.996	130.56
217.214	67.07
217.432	83.45
217.651	24.06
217.869	36.35
218.087	67.07
218.306	54.78
218.524	7.68
218.742	69.12
218.96	38.4
219.179	1.54
219.397	95.74
219.615	24.06
219.833	19.97
220.051	26.11
220.27	36.35
220.488	87.55
220.706	-10.75
220.924	3.58
221.142	5.63
221.36	15.87
221.578	71.17
221.796	73.21
222.015	85.5
222.233	130.56
222.451	65.02
222.669	15.87
222.887	38.4
223.105	13.82
223.323	69.12
223.541	93.69
223.759	52.74
223.977	-23.04
224.195	87.55
224.413	22.02
224.631	77.31
224.849	-53.76
225.067	97.79
225.285	15.87
225.503	79.36
225.721	-16.9
225.939	40.45
226.157	38.4
226.375	32.26
226.592	58.88
226.81	48.64
227.028	34.3
227.246	44.54
227.464	26.11
227.682	69.12
227.9	-12.8
228.117	62.98
228.335	65.02
228.553	13.82
228.771	54.78
228.989	17.92
229.206	38.4
229.424	69.12
229.642	38.4
229.86	36.35
230.077	97.79
230.295	73.21
230.513	44.54
230.731	-14.85
230.948	5.63
231.166	40.45
231.384	-14.85
231.601	103.93
231.819	38.4
232.037	32.26
232.254	65.02
232.472	58.88
232.689	69.12
232.907	60.93
233.125	7.68
233.342	93.69
233.56	-31.23
233.777	-6.66
233.995	101.89
234.213	48.64
234.43	1.54
234.648	24.06
234.865	-8.7
235.083	60.93
235.3	58.88
235.518	46.59
235.735	54.78
235.953	71.17
236.17	71.17
236.388	54.78
236.605	52.74
236.822	38.4
237.04	79.36
237.257	24.06
237.475	77.31
237.692	46.59
237.909	77.31
238.127	36.35
238.344	62.98
238.562	108.03
238.779	28.16
238.996	36.35
239.214	3.58
239.431	42.5
239.648	19.97
239.865	54.78
240.083	93.69
240.3	89.6
240.517	40.45
240.735	22.02
240.952	83.45
241.169	46.59
241.386	95.74
241.603	44.54
241.821	52.74
242.038	67.07
242.255	77.31
242.472	58.88
242.689	65.02
242.907	60.93
243.124	-23.04
243.341	87.55
243.558	54.78
243.775	52.74
243.992	52.74
244.209	19.97
244.426	83.45
244.643	79.36
244.86	56.83
245.078	58.88
245.295	-45.57
245.512	91.65
245.729	65.02
245.946	54.78
246.163	-14.85
246.38	95.74
246.597	58.88
246.814	89.6
247.031	54.78
247.248	77.31
247.464	-31.23
247.681	40.45
247.898	62.98
248.115	-16.9
248.332	36.35
248.549	28.16
248.766	60.93
248.983	19.97
249.2	5.63
249.417	-6.66
249.633	28.16
249.85	36.35
250.067	60.93
250.284	89.6
250.501	40.45
250.717	60.93
250.934	38.4
251.151	19.97
251.368	36.35
251.585	103.93
251.801	75.26
252.018	19.97
252.235	73.21
252.451	56.83
252.668	-20.99
252.885	60.93
253.102	46.59
253.318	48.64
253.535	83.45
253.752	40.45
253.968	60.93
254.185	38.4
254.401	5.63
254.618	22.02
254.835	-20.99
255.051	17.92
255.268	9.73
255.484	15.87
255.701	73.21
255.917	28.16
256.134	17.92
256.351	7.68
256.567	65.02
256.784	93.69
257	46.59
257.217	32.26
257.433	24.06
257.65	69.12
257.866	44.54
258.082	36.35
258.299	54.78
258.515	85.5
258.732	110.08
258.948	-37.38
259.165	19.97
259.381	44.54
259.597	15.87
259.814	54.78
260.03	83.45
260.246	44.54
260.463	73.21
260.679	30.21
260.895	81.41
261.112	62.98
261.328	40.45
261.544	60.93
261.761	32.26
261.977	93.69
262.193	52.74
262.409	22.02
262.626	-8.7
262.842	50.69
263.058	62.98
263.274	32.26
263.49	40.45
263.707	93.69
263.923	65.02
264.139	-35.33
264.355	81.41
264.571	50.69
264.787	69.12
265.004	93.69
265.22	52.74
265.436	36.35
265.652	52.74
265.868	24.06
266.084	26.11
266.3	32.26
266.516	40.45
266.732	56.83
266.948	-18.94
267.164	-12.8
267.38	85.5
267.596	122.37
267.812	99.84
268.028	67.07
268.244	65.02
268.46	71.17
268.676	-16.9
268.892	112.13
269.108	81.41
269.324	15.87
269.54	44.54
269.756	99.84
269.972	54.78
270.188	110.08
270.403	44.54
270.619	75.26
270.835	73.21
271.051	5.63
271.267	81.41
271.483	54.78
271.698	-49.66
271.914	28.16
272.13	11.78
272.346	30.21
272.562	69.12
272.777	7.68
272.993	28.16
273.209	87.55
273.425	105.98
273.64	36.35
273.856	34.3
274.072	67.07
274.287	13.82
274.503	126.46
274.719	83.45
274.934	60.93
275.15	7.68
275.366	65.02
275.581	79.36
275.797	36.35
276.012	19.97
276.228	56.83
276.444	79.36
276.659	56.83
276.875	60.93
277.09	87.55
277.306	46.59
277.521	69.12
277.737	60.93
277.952	38.4
278.168	46.59
278.383	22.02
278.599	79.36
278.814	48.64
279.03	44.54
279.245	32.26
279.461	105.98
279.676	79.36
279.892	58.88
280.107	-0.51
280.322	36.35
280.538	54.78
280.753	62.98
280.969	13.82
281.184	36.35
281.399	142.85
281.615	124.41
281.83	7.68
282.045	122.37
282.26	-4.61
282.476	36.35
282.691	28.16
282.906	56.83
283.122	46.59
283.337	42.5
283.552	54.78
283.767	46.59
283.983	60.93
284.198	118.27
284.413	79.36
284.628	105.98
284.843	24.06
285.058	75.26
285.274	87.55
285.489	24.06
285.704	44.54
285.919	48.64
286.134	87.55
286.349	-4.61
286.564	65.02
286.779	19.97
286.995	44.54
287.21	52.74
287.425	62.98
287.64	-18.94
287.855	54.78
288.07	7.68
288.285	58.88
288.5	-23.04
288.715	-20.99
288.93	56.83
289.145	-0.51
289.36	87.55
289.575	38.4
289.79	87.55
290.004	101.89
290.219	24.06
290.434	58.88
290.649	34.3
290.864	54.78
291.079	40.45
291.294	24.06
291.509	58.88
291.724	-29.18
291.938	65.02
292.153	22.02
292.368	58.88
292.583	65.02
292.798	3.58
293.012	60.93
293.227	79.36
293.442	97.79
293.657	38.4
293.871	87.55
294.086	7.68
294.301	87.55
294.516	15.87
294.73	73.21
294.945	-18.94
295.16	65.02
295.374	69.12
295.589	11.78
295.804	19.97
296.018	-18.94
296.233	7.68
296.447	46.59
296.662	38.4
296.877	52.74
297.091	93.69
297.306	83.45
297.52	32.26
297.735	11.78
297.949	65.02
298.164	75.26
298.378	56.83
298.593	81.41
298.807	108.03
299.022	50.69
299.236	93.69
299.451	19.97
299.665	46.59
299.88	95.74
300.094	97.79
300.309	89.6
300.523	54.78
300.737	48.64
300.952	60.93
301.166	110.08
301.381	9.73
301.595	60.93
301.809	95.74
302.024	36.35
302.238	1.54
302.452	22.02
302.667	22.02
302.881	36.35
303.095	73.21
303.309	93.69
303.524	11.78
303.738	9.73
303.952	3.58
304.166	97.79
304.381	17.92
304.595	15.87
304.809	11.78
305.023	77.31
305.237	44.54
305.452	40.45
305.666	65.02
305.88	62.98
306.094	48.64
306.308	122.37
306.522	52.74
306.736	46.59
306.95	-12.8
307.164	36.35
307.379	62.98
307.593	128.51
307.807	103.93
308.021	-6.66
308.235	42.5
308.449	40.45
308.663	56.83
308.877	73.21
309.091	44.54
309.305	120.32
309.519	46.59
309.733	52.74
309.947	79.36
310.161	48.64
310.374	56.83
310.588	148.99
310.802	81.41
311.016	-27.14
311.23	44.54
311.444	-43.52
311.658	24.06
311.872	13.82
312.085	7.68
312.299	69.12
312.513	-53.76
312.727	36.35
312.941	-39.42
313.154	60.93
313.368	26.11
313.582	83.45
313.796	15.87
314.009	48.64
314.223	40.45
314.437	46.59
314.651	60.93
314.864	134.65
315.078	69.12
315.292	71.17
315.505	46.59
315.719	19.97
315.933	34.3
316.146	-10.75
316.36	44.54
316.573	73.21
316.787	56.83
317.001	126.46
317.214	28.16
317.428	85.5
317.641	81.41
317.855	42.5
318.068	40.45
318.282	69.12
318.495	40.45
318.709	7.68
318.922	67.07
319.136	-2.56
319.349	17.92
319.563	89.6
319.776	71.17
319.99	5.63
320.203	167.42
320.417	-8.7
320.63	79.36
320.843	60.93
321.057	62.98
321.27	36.35
321.483	50.69
321.697	101.89
321.91	103.93
322.124	126.46
322.337	75.26
322.55	30.21
322.763	42.5
322.977	46.59
323.19	-10.75
323.403	114.17
323.617	60.93
323.83	79.36
324.043	26.11
324.256	83.45
324.469	58.88
324.683	73.21
324.896	71.17
325.109	-12.8
325.322	-8.7
325.535	38.4
325.748	91.65
325.962	112.13
326.175	28.16
326.388	114.17
326.601	54.78
326.814	93.69
327.027	108.03
327.24	42.5
327.453	30.21
327.666	83.45
327.879	24.06
328.092	-0.51
328.305	81.41
328.518	62.98
328.731	95.74
328.944	60.93
329.157	44.54
329.37	54.78
329.583	105.98
329.796	22.02
330.009	-8.7
330.222	36.35
330.435	71.17
330.648	46.59
330.861	19.97
331.073	60.93
331.286	24.06
331.499	85.5
331.712	108.03
331.925	79.36
332.138	75.26
332.35	81.41
332.563	38.4
332.776	144.89
332.989	101.89
333.202	44.54
333.414	52.74
333.627	60.93
333.84	3.58
334.053	54.78
334.265	75.26
334.478	69.12
334.691	46.59
334.903	46.59
335.116	77.31
335.329	54.78
335.541	44.54
335.754	85.5
335.966	32.26
336.179	36.35
336.392	34.3
336.604	103.93
336.817	81.41
337.029	24.06
337.242	40.45
337.454	38.4
337.667	40.45
337.88	83.45
338.092	22.02
338.305	83.45
338.517	62.98
338.729	69.12
338.942	75.26
339.154	54.78
339.367	58.88
339.579	28.16
339.792	36.35
340.004	95.74
340.217	62.98
340.429	60.93
340.641	32.26
340.854	81.41
341.066	13.82
341.278	118.27
341.491	56.83
341.703	30.21
341.915	28.16
342.128	46.59
342.34	65.02
342.552	40.45
342.764	77.31
342.977	65.02
343.189	38.4
343.401	19.97
343.613	-16.9
343.826	95.74
344.038	-16.9
344.25	40.45
344.462	79.36
344.674	44.54
344.886	40.45
345.099	77.31
345.311	67.07
345.523	-6.66
345.735	42.5
345.947	142.85
346.159	52.74
346.371	79.36
346.583	50.69
346.795	24.06
347.007	85.5
347.219	112.13
347.431	32.26
347.643	118.27
347.855	85.5
348.067	44.54
348.279	32.26
348.491	85.5
348.703	50.69
348.915	52.74
349.127	91.65
349.339	-4.61
349.551	71.17
349.763	67.07
349.975	17.92
350.187	50.69
350.399	79.36
350.61	81.41
350.822	38.4
351.034	67.07
351.246	83.45
351.458	101.89
351.669	108.03
351.881	60.93
352.093	67.07
352.305	69.12
352.517	93.69
352.728	103.93
352.94	11.78
353.152	87.55
353.363	52.74
353.575	103.93
353.787	73.21
353.999	-2.56
354.21	-2.56
354.422	15.87
354.633	-18.94
354.845	30.21
355.057	77.31
355.268	110.08
355.48	58.88
355.692	48.64
355.903	85.5
356.115	120.32
356.326	79.36
356.538	93.69
356.749	99.84
356.961	-0.51
357.172	142.85
357.384	157.18
357.595	65.02
357.807	101.89
358.018	26.11
358.23	60.93
358.441	48.64
358.653	48.64
358.864	108.03
359.075	9.73
359.287	130.56
359.498	71.17
359.709	-0.51
359.921	112.13
360.132	173.57
360.344	52.74
360.555	54.78
360.766	5.63
360.977	15.87
361.189	136.7
361.4	19.97
361.611	128.51
361.823	62.98
362.034	87.55
362.245	65.02
362.456	89.6
362.667	1.54
362.879	-31.23
363.09	73.21
363.301	48.64
363.512	71.17
363.723	54.78
363.935	75.26
364.146	79.36
364.357	71.17
364.568	171.52
364.779	56.83
364.99	-2.56
365.201	17.92
365.412	85.5
365.623	62.98
365.834	81.41
366.045	11.78
366.256	101.89
366.467	75.26
366.678	81.41
366.889	36.35
367.1	60.93
367.311	30.21
367.522	65.02
367.733	32.26
367.944	50.69
368.155	50.69
368.366	36.35
368.577	87.55
368.788	75.26
368.999	112.13
369.209	28.16
369.42	11.78
369.631	101.89
369.842	48.64
370.053	38.4
370.264	58.88
370.474	-4.61
370.685	67.07
370.896	9.73
371.107	103.93
371.317	105.98
371.528	73.21
371.739	67.07
371.95	73.21
372.16	32.26
372.371	91.65
372.582	52.74
372.792	65.02
373.003	120.32
373.214	97.79
373.424	79.36
373.635	87.55
373.846	58.88
374.056	15.87
374.267	73.21
374.477	-4.61
374.688	79.36
374.898	38.4
375.109	99.84
375.319	79.36
375.53	116.22
375.74	50.69
375.951	71.17
376.161	151.04
376.372	65.02
376.582	46.59
376.793	56.83
377.003	103.93
377.214	36.35
377.424	42.5
377.635	81.41
377.845	19.97
378.055	58.88
378.266	67.07
378.476	134.65
378.686	83.45
378.897	142.85
379.107	67.07
379.317	108.03
379.528	73.21
379.738	58.88
379.948	26.11
380.158	54.78
380.369	103.93
380.579	28.16
380.789	50.69
380.999	60.93
381.21	38.4
381.42	32.26
381.63	103.93
381.84	50.69
382.05	32.26
382.261	151.04
382.471	-0.51
382.681	97.79
382.891	103.93
383.101	77.31
383.311	136.7
383.521	126.46
383.731	116.22
383.941	144.89
384.151	65.02
384.361	32.26
384.571	89.6
384.781	134.65
384.991	85.5
385.201	134.65
385.411	36.35
385.621	103.93
385.831	9.73
386.041	71.17
386.251	126.46
386.461	75.26
386.671	95.74
386.881	54.78
387.091	67.07
387.301	97.79
387.511	91.65
387.72	56.83
387.93	126.46
388.14	54.78
388.35	46.59
388.56	114.17
388.769	114.17
388.979	71.17
389.189	67.07
389.399	58.88
389.609	9.73
389.818	134.65
390.028	38.4
390.238	30.21
390.447	60.93
390.657	114.17
390.867	38.4
391.076	38.4
391.286	144.89
391.496	93.69
391.705	58.88
391.915	110.08
392.125	17.92
392.334	79.36
392.544	108.03
392.753	69.12
392.963	116.22
393.172	83.45
393.382	32.26
393.591	138.75
393.801	99.84
394.01	54.78
394.22	134.65
394.429	138.75
394.639	126.46
394.848	116.22
395.058	105.98
395.267	112.13
395.477	169.47
395.686	142.85
395.895	87.55
396.105	97.79
396.314	110.08
396.524	114.17
396.733	103.93
396.942	75.26
397.152	157.18
397.361	146.94
397.57	56.83
397.78	77.31
397.989	142.85
398.198	163.33
398.407	103.93
398.617	155.13
398.826	120.32
399.035	153.09
399.244	120.32
399.453	120.32
399.663	103.93
399.872	173.57
400.081	120.32
400.29	159.23
400.499	114.17
400.708	200.19
400.917	67.07
401.127	142.85
401.336	151.04
401.545	185.85
401.754	118.27
401.963	181.76
402.172	60.93
402.381	83.45
402.59	105.98
402.799	138.75
403.008	60.93
403.217	159.23
403.426	167.42
403.635	151.04
403.844	144.89
404.053	171.52
404.262	183.81
404.471	142.85
404.68	134.65
404.888	165.37
405.097	155.13
405.306	187.9
405.515	175.61
405.724	130.56
405.933	159.23
406.142	179.71
406.35	97.79
406.559	198.14
406.768	200.19
406.977	185.85
407.185	232.96
407.394	232.96
407.603	200.19
407.812	222.72
408.02	249.34
408.229	230.91
408.438	206.33
408.646	269.82
408.855	253.44
409.064	261.63
409.272	327.16
409.481	331.26
409.69	304.64
409.898	353.79
410.107	382.46
410.315	298.49
410.524	372.22
410.733	370.17
410.941	339.45
411.15	366.07
411.358	343.55
411.567	443.9
411.775	380.41
411.984	411.13
412.192	398.84
412.401	411.13
412.609	501.24
412.818	439.8
413.026	491
413.234	480.76
413.443	478.71
413.651	525.82
413.86	538.1
414.068	568.82
414.276	599.54
414.485	617.97
414.693	628.21
414.901	562.68
415.11	667.13
415.318	710.13
415.526	747
415.734	742.9
415.943	830.96
416.151	822.77
416.359	736.76
416.567	910.83
416.776	951.79
416.984	916.98
417.192	904.69
417.4	943.6
417.608	914.93
417.817	1021.42
418.025	1076.72
418.233	1211.89
418.441	1101.3
418.649	1226.22
418.857	1408.49
419.065	1211.89
419.273	1222.13
419.481	1242.61
419.689	1414.63
419.897	1488.36
420.105	1590.76
420.313	1469.93
420.521	1431.02
420.729	1584.62
420.937	1580.52
421.145	1650.15
421.353	1738.21
421.561	1783.27
421.769	1848.8
421.977	1988.07
422.185	1969.63
422.393	2010.59
422.601	2104.8
422.809	2156
423.017	2203.1
423.224	2233.82
423.432	2418.14
423.64	2446.81
423.848	2643.42
424.056	2655.7
424.263	2721.24
424.471	2749.91
424.679	2862.55
424.887	2913.75
425.094	3083.73
425.302	3063.25
425.51	3108.3
425.718	3304.91
425.925	3370.44
426.133	3427.79
426.341	3501.51
426.548	3712.46
426.756	3812.81
426.964	3872.2
427.171	4124.1
427.379	4251.07
427.586	4195.78
427.794	4289.98
428.001	4621.75
428.209	4656.57
428.417	4767.16
428.624	4912.57
428.832	4849.08
429.039	4976.05
429.247	5076.4
429.454	5334.45
429.662	5641.64
429.869	5434.8
430.076	5928.36
430.284	5651.88
430.491	5928.36
430.699	6116.77
430.906	6262.18
431.114	6301.09
431.321	6542.75
431.528	6741.4
431.736	7073.17
431.943	7314.83
432.15	7028.12
432.358	7243.15
432.565	7845.26
432.772	7601.55
432.979	7916.94
433.187	8005
433.394	8271.23
433.601	8654.2
433.808	8660.35
434.016	8619.39
434.223	9209.2
434.43	9635.18
434.637	9362.8
434.844	9846.12
435.052	10063.21
435.259	10163.56
435.466	10110.31
435.673	10046.82
435.88	10712.41
436.087	11400.53
436.294	11289.94
436.501	10980.7
436.708	11232.6
436.915	11677.01
437.122	11978.06
437.329	12162.37
437.537	12766.53
437.743	12744
437.95	12606.78
438.157	13223.22
438.364	14013.74
438.571	13839.66
438.778	13870.38
438.985	15064.35
439.192	14578.98
439.399	15039.77
439.606	14574.88
439.813	15353.11
440.02	16266.5
440.227	15973.64
440.433	15721.74
440.64	16534.79
440.847	16274.7
441.054	16631.04
441.261	17999.09
441.467	17720.56
441.674	17882.35
441.881	18619.62
442.088	18492.65
442.294	18396.39
442.501	18967.77
442.708	19215.58
442.914	20063.44
443.121	21044.41
443.328	20319.43
443.534	21791.92
443.741	20888.77
443.948	21038.27
444.154	22205.61
444.361	21925.04
444.568	22305.96
444.774	22404.27
444.981	22596.78
445.187	23116.96
445.394	24214.67
445.6	23880.85
445.807	26496.11
446.013	25078.91
446.22	25676.92
446.426	26739.82
446.633	26852.45
446.839	27815
447.046	26651.75
447.252	27774.04
447.459	28261.46
447.665	27972.69
447.871	29152.32
448.078	30350.38
448.284	28867.66
448.491	29645.88
448.697	30835.75
448.903	31355.94
449.11	31493.15
449.316	31157.28
449.522	31489.06
449.728	32494.61
449.935	32625.68
450.141	32705.55
450.347	33678.33
450.553	32293.91
450.76	32750.6
450.966	33659.9
451.172	33524.74
451.378	34307.06
451.584	33459.2
451.791	34325.49
451.997	34044.92
452.203	34876.4
452.409	34696.17
452.615	34550.77
452.821	33086.47
453.027	33258.5
453.233	34425.84
453.44	33358.85
453.646	33856.51
453.852	33840.12
454.058	34366.45
454.264	33199.11
454.47	33856.51
454.676	33209.35
454.882	34169.85
455.088	31282.21
455.294	31847.45
455.5	32025.62
455.705	32435.22
455.911	31036.45
456.117	30538.8
456.323	30350.38
456.529	28814.41
456.735	29674.56
456.941	29129.8
457.147	28626
457.352	27741.27
457.558	27628.63
457.764	27765.85
457.97	27487.32
458.176	26420.33
458.381	26655.85
458.587	25123.97
458.793	24974.47
458.999	23891.09
459.204	25758.84
459.41	24849.54
459.616	23094.43
459.821	23325.85
460.027	23047.33
460.233	22703.27
460.438	21650.61
460.644	21810.36
460.85	20530.37
461.055	20548.81
461.261	20657.35
461.466	19236.06
461.672	18300.14
461.878	19590.36
462.083	18349.29
462.289	18228.46
462.494	18115.82
462.7	17235.19
462.905	16553.22
463.111	17380.6
463.316	17507.57
463.522	17059.07
463.727	16919.81
463.932	16876.8
464.138	16811.26
464.343	17034.49
464.549	16336.13
464.754	17177.85
464.959	16807.17
465.165	16618.75
465.37	15781.14
465.575	15521.04
465.781	16317.7
465.986	16502.02
466.191	15645.97
466.397	15541.52
466.602	14847.26
466.807	15559.95
467.012	15224.09
467.218	15160.6
467.423	15004.96
467.628	15111.45
467.833	15652.11
468.038	15125.79
468.244	14910.75
468.449	15441.17
468.654	14763.29
468.859	14769.44
469.064	14708
469.269	14210.34
469.474	14284.07
469.679	14298.41
469.885	13905.2
470.09	14150.95
470.295	14271.78
470.5	13722.93
470.705	13997.35
470.91	13579.57
471.115	13497.65
471.32	13571.38
471.525	13585.71
471.73	13110.58
471.935	13028.67
472.139	12881.21
472.344	13178.17
472.549	12870.97
472.754	12662.08
472.959	12490.05
473.164	11959.63
473.369	11976.01
473.574	12676.41
473.778	12123.46
473.983	12143.94
474.188	12102.98
474.393	11717.97
474.598	11588.94
474.802	11586.9
475.007	11472.21
475.212	11515.22
475.417	11095.38
475.621	11130.2
475.826	11081.05
476.031	11031.9
476.235	10780
476.44	11062.62
476.645	10587.49
476.849	10665.31
477.054	10661.21
477.259	10503.52
477.463	10315.11
477.668	10057.06
477.872	10530.14
478.077	10171.75
478.282	9846.12
478.486	9833.83
478.691	9713
478.895	9794.92
479.1	9758.06
479.304	9612.65
479.509	9291.12
479.713	9649.52
479.918	9215.35
480.122	9284.98
480.326	9344.37
480.531	9360.75
480.735	9244.02
480.94	9147.76
481.144	9473.39
481.348	8994.17
481.553	9182.58
481.757	8975.74
481.961	9211.25
482.166	9153.91
482.37	9026.93
482.574	9121.14
482.778	8906.1
482.983	9082.23
483.187	9092.47
483.391	9008.5
483.595	9063.8
483.8	8865.14
484.004	8922.49
484.208	9100.66
484.412	8914.3
484.616	8983.93
484.821	8920.44
485.025	8916.34
485.229	9119.09
485.433	8914.3
485.637	9129.33
485.841	8904.06
486.045	8768.89
486.249	8949.11
486.453	8746.36
486.657	8928.63
486.861	9047.41
487.065	8783.23
487.269	8834.43
487.473	8781.18
487.677	9067.89
487.881	9065.85
488.085	9035.13
488.289	8990.07
488.493	8766.84
488.697	9080.18
488.901	8951.16
489.105	9209.2
489.309	9194.87
489.512	9067.89
489.716	9147.76
489.92	9061.75
490.124	9108.85
490.328	9307.51
490.531	9112.95
490.735	9358.71
490.939	9543.02
491.143	9139.57
491.346	9229.68
491.55	9409.9
491.754	9274.74
491.958	9360.75
492.161	9424.24
492.365	9667.95
492.569	9467.25
492.772	9395.57
492.976	9706.86
493.18	9491.82
493.383	9993.58
493.587	9729.39
493.79	10028.39
493.994	9821.55
494.197	9899.37
494.401	10048.87
494.605	10106.21
494.808	10380.64
495.012	10251.62
495.215	10501.47
495.419	10440.03
495.622	10595.68
495.825	10710.36
496.029	10530.14
496.232	10857.82
496.436	10700.12
496.639	11021.66
496.843	10927.45
497.046	11122.01
497.249	11289.94
497.453	11498.83
497.656	11507.02
497.859	11525.46
498.063	11736.4
498.266	12053.83
498.469	11867.47
498.673	12041.54
498.876	12098.89
499.079	12531.01
499.282	12309.83
499.485	12649.79
499.689	12682.56
499.892	12686.65
500.095	12981.56
500.298	13292.85
500.501	13104.44
500.705	13522.23
500.908	13657.39
501.111	13837.61
501.314	13866.28
501.517	13993.26
501.72	14249.25
501.923	14316.84
502.126	14607.65
502.329	14824.73
502.532	14818.59
502.735	15144.22
502.938	15406.36
503.141	15201.56
503.344	15746.32
503.547	15598.87
503.75	15953.16
503.953	16379.14
504.156	16280.84
504.359	16610.56
504.562	16477.44
504.765	17140.99
504.968	17231.1
505.17	17534.2
505.373	17509.62
505.576	17929.45
505.779	18214.12
505.982	18189.55
506.185	18316.52
506.387	18511.08
506.59	18658.53
506.793	19236.06
506.996	19340.5
507.198	19770.58
507.401	19483.86
507.604	19782.87
507.807	20223.18
508.009	20669.64
508.212	20638.92
508.415	21261.5
508.617	21103.81
508.82	21650.61
509.022	21187.77
509.225	21769.4
509.428	22213.81
509.63	22217.9
509.833	22328.49
510.035	22828.2
510.238	23037.09
510.44	23299.23
510.643	23688.34
510.845	23927.95
511.048	23966.87
511.25	24388.75
511.453	24546.44
511.655	25203.84
511.858	24786.05
512.06	25191.55
512.262	25484.41
512.465	25910.39
512.667	26000.5
512.87	26303.6
513.072	26805.35
513.274	27126.88
513.477	27372.64
513.679	27718.75
513.881	27896.92
514.084	28496.97
514.286	28306.51
514.488	28337.23
514.69	29281.35
514.893	29318.21
515.095	29297.73
515.297	30192.69
515.499	29946.94
515.701	30729.26
515.904	31056.93
516.106	31138.85
516.308	31818.78
516.51	31849.5
516.712	31794.2
516.914	32476.18
517.116	33172.49
517.318	33215.49
517.52	33483.78
517.722	33516.54
517.925	34073.59
518.127	34419.7
518.329	34735.09
518.531	34767.85
518.733	35433.44
518.935	35668.96
519.136	36021.21
519.338	36207.58
519.54	36445.14
519.742	37041.1
519.944	37065.67
520.146	37626.82
520.348	37948.35
520.55	37784.51
520.752	38296.5
520.954	38927.28
521.155	39037.87
521.357	39082.92
521.559	39930.78
521.761	40397.72
521.963	40246.17
522.164	40485.78
522.366	40536.98
522.568	40698.77
522.77	41421.7
522.971	42349.43
523.173	41632.64
523.375	42339.19
523.576	42218.36
523.778	42425.21
523.98	42861.43
524.181	43066.22
524.383	43424.62
524.584	43952.99
524.786	44139.36
524.988	43803.49
525.189	44356.44
525.391	44952.4
525.592	45050.7
525.794	45243.21
525.995	44845.91
526.197	45038.42
526.398	45407.05
526.6	45955.91
526.801	45714.25
527.003	45833.03
527.204	45908.8
527.406	46797.62
527.607	46295.87
527.808	46928.69
528.01	45992.77
528.211	46666.55
528.412	48110.37
528.614	47055.67
528.815	47338.29
529.016	47670.06
529.218	47522.6
529.419	47870.76
529.62	47622.95
529.822	47610.67
530.023	48028.45
530.224	48134.95
530.425	47944.48
530.626	47881
530.828	47981.35
531.029	48757.53
531.23	48241.44
531.431	48261.92
531.632	48591.64
531.833	48651.03
532.035	48591.64
532.236	48954.13
532.437	48646.94
532.638	48691.99
532.839	48954.13
533.04	48878.36
533.241	48872.21
533.442	49423.12
533.643	48763.67
533.844	49122.07
534.045	49502.99
534.246	48798.49
534.447	49492.75
534.648	48988.95
534.849	49363.73
535.05	49265.42
535.251	49330.96
535.451	49152.79
535.652	49402.64
535.853	49394.45
536.054	49505.04
536.255	49748.74
536.456	49253.14
536.657	50010.88
536.857	49275.66
537.058	49249.04
537.259	49632.01
537.46	49715.98
537.66	49294.1
537.861	49791.75
538.062	49548.04
538.263	49943.3
538.463	49144.59
538.664	49605.39
538.865	49259.28
539.065	50449.15
539.266	49439.5
539.466	50088.71
539.667	49330.96
539.868	50062.08
540.068	49672.97
540.269	49619.72
540.469	49773.32
540.67	49091.35
540.87	49638.15
541.071	49650.44
541.271	49664.78
541.472	49400.59
541.672	49253.14
541.873	49173.27
542.073	48638.75
542.274	49890.05
542.474	49339.15
542.675	49220.37
542.875	49865.48
543.075	49576.72
543.276	49085.2
543.476	49578.76
543.676	49394.45
543.877	49550.09
544.077	49681.16
544.277	49402.64
544.478	49058.58
544.678	49281.81
544.878	49498.89
545.078	49097.49
545.279	49203.99
545.479	49271.57
545.679	49713.93
545.879	49345.3
546.079	49441.55
546.28	49570.57
546.48	48864.02
546.68	49464.08
546.88	49453.84
547.08	49546
547.28	49601.29
547.48	49130.26
547.68	49160.98
547.88	48673.56
548.081	49564.43
548.281	49410.83
548.481	49290
548.681	49916.68
548.881	49476.37
549.081	48759.58
549.28	49142.55
549.48	49154.83
549.68	49152.79
549.88	50117.38
550.08	49154.83
550.28	49500.94
550.48	48913.17
550.68	49642.25
550.88	49324.82
551.08	49343.25
551.279	49324.82
551.479	49034
551.679	48872.21
551.879	48933.65
552.079	49300.24
552.278	48976.66
552.478	49275.66
552.678	49203.99
552.878	49081.11
553.077	48835.35
553.277	48544.54
553.477	49801.99
553.676	48978.71
553.876	48845.59
554.076	48872.21
554.275	48859.93
554.475	48309.02
554.674	49257.23
554.874	48958.23
555.074	48251.68
555.273	48907.03
555.473	48816.92
555.672	48735
555.872	48354.08
556.071	48710.42
556.271	48569.11
556.47	48444.19
556.67	48130.85
556.869	48466.72
557.068	48763.67
557.268	48198.43
557.467	48288.54
557.667	48440.09
557.866	48296.74
558.065	48491.29
558.265	47930.15
558.464	47663.91
558.663	48440.09
558.863	47833.89
559.062	48071.46
559.261	47661.86
559.461	48040.74
559.66	47733.54
559.859	47829.8
560.058	47719.21
560.258	48001.83
560.457	47465.26
560.656	47725.35
560.855	47145.78
561.054	47305.52
561.253	47186.74
561.453	47057.71
561.652	47350.57
561.851	47670.06
562.05	47131.44
562.249	47168.3
562.448	47555.37
562.647	46727.99
562.846	46824.25
563.045	46744.37
563.244	46637.88
563.443	47508.27
563.642	46160.7
563.841	46535.48
564.04	46199.62
564.239	46861.11
564.438	46310.21
564.637	46605.11
564.836	46150.46
565.035	45953.86
565.234	46443.32
565.432	46209.85
565.631	46134.08
565.83	46046.02
566.029	46539.58
566.228	45622.09
566.427	45812.55
566.625	45581.13
566.824	45337.42
567.023	45923.14
567.222	44954.45
567.42	45843.27
567.619	45439.82
567.818	45022.03
568.016	45521.74
568.215	45617.99
568.414	44839.76
568.612	45478.73
568.811	44780.37
569.01	45247.31
569.208	44012.38
569.407	44983.12
569.605	44122.97
569.804	44624.73
570.002	44145.5
570.201	44581.72
570.4	44036.96
570.598	44020.58
570.797	43832.16
570.995	44067.68
571.193	43660.13
571.392	44075.87
571.59	43393.9
571.789	43854.69
571.987	43584.36
572.186	43150.19
572.384	43240.3
572.582	43074.41
572.781	43326.31
572.979	42693.49
573.177	43193.2
573.376	43475.82
573.574	42566.52
573.772	42929.01
573.971	42474.36
574.169	42660.73
574.367	42097.53
574.565	42429.3
574.763	42089.34
574.962	42212.22
575.16	42075.01
575.358	42134.4
575.556	41448.33
575.754	42335.1
575.952	41241.48
576.151	41636.74
576.349	41454.47
576.547	41077.65
576.745	40958.86
576.943	40969.1
577.141	41132.94
577.339	40848.27
577.537	40588.18
577.735	40702.87
577.933	40215.45
578.131	40498.07
578.329	40362.9
578.527	40246.17
578.725	40272.79
578.923	39984.03
579.121	39717.79
579.319	39951.26
579.516	39932.83
579.714	39764.9
579.912	39312.3
580.11	39752.61
580.308	39730.08
580.506	39113.64
580.704	38925.23
580.901	39269.29
581.099	39312.3
581.297	38675.38
581.495	38630.32
581.692	38921.13
581.89	38448.05
582.088	38761.39
582.285	38769.58
582.483	38280.12
582.681	38304.7
582.878	38007.74
583.076	37700.54
583.274	37991.36
583.471	37546.95
583.669	37505.99
583.866	37559.23
584.064	37811.14
584.262	37307.33
584.459	37626.82
584.657	36850.64
584.854	37366.73
585.052	36615.12
585.249	37227.46
585.447	37092.3
585.644	36809.68
585.841	36903.88
586.039	36801.49
586.236	36064.22
586.434	36099.03
586.631	36094.94
586.828	35703.78
587.026	36252.63
587.223	35828.7
587.42	35632.1
587.618	35691.49
587.815	35365.86
588.012	35384.29
588.21	35797.98
588.407	35550.18
588.604	35167.21
588.801	35005.42
588.999	34765.81
589.196	35052.52
589.393	34898.92
589.59	35027.95
589.787	34507.76
589.984	34673.65
590.182	34374.64
590.379	34376.69
590.576	34298.87
590.773	34139.13
590.97	33633.28
591.167	34198.52
591.364	33580.03
591.561	34059.26
591.758	33590.27
591.955	33524.74
592.152	33907.71
592.349	33356.8
592.546	33629.18
592.743	33231.88
592.94	32642.06
593.137	32867.34
593.334	33352.71
593.531	32836.62
593.727	33195.01
593.924	32861.19
594.121	32502.8
594.318	32678.93
594.515	32537.62
594.712	32289.81
594.908	32472.08
595.105	32162.84
595.302	32283.67
595.499	31978.52
595.696	31976.47
595.892	31738.91
596.089	32130.07
596.286	31925.27
596.482	31722.52
596.679	31417.38
596.876	31587.36
597.072	31231.01
597.269	31554.59
597.466	30911.53
597.662	31163.43
597.859	30886.95
598.055	30966.82
598.252	30542.89
598.448	30872.62
598.645	30473.26
598.841	30420.02
599.038	30676.01
599.234	30471.22
599.431	30469.17
599.627	30069.81
599.824	30641.2
600.02	30045.24
600.217	30225.46
600.413	30485.55
600.609	29887.54
600.806	29535.29
601.002	29490.24
601.198	29477.95
601.395	29508.67
601.591	29504.57
601.787	29285.44
601.984	29121.6
602.18	29621.31
602.376	29176.9
602.572	29101.12
602.769	29037.64
602.965	28644.43
603.161	28568.65
603.357	28464.21
603.553	28601.42
603.75	28202.07
603.946	28101.72
604.142	28322.9
604.338	27815
604.534	28288.08
604.73	27921.49
604.926	28030.04
605.122	27944.02
605.318	27741.27
605.514	27468.89
605.71	27493.47
605.906	27554.91
606.102	27227.23
606.298	27169.89
606.494	27192.42
606.69	26934.37
606.886	26979.43
607.082	26729.58
607.278	27077.73
607.474	26672.23
607.67	26946.66
607.866	26250.35
608.062	26905.7
608.257	26535.02
608.453	26506.35
608.649	26602.6
608.845	26096.75
609.041	26221.68
609.236	26229.87
609.432	25982.07
609.628	26379.37
609.824	25834.61
610.019	25496.7
610.215	25650.3
610.411	25842.81
610.606	25504.89
610.802	25633.91
610.998	25838.71
611.193	25474.17
611.389	25261.18
611.584	25228.42
611.78	25275.52
611.976	25289.85
612.171	25273.47
612.367	25302.14
612.562	24863.88
612.758	24720.52
612.953	24761.48
613.149	25066.63
613.344	24818.82
613.539	24841.35
613.735	24958.08
613.93	24808.58
614.126	24560.78
614.321	24730.76
614.517	24583.3
614.712	24728.71
614.907	24089.74
615.103	24210.57
615.298	24116.37
615.493	24409.23
615.688	23823.51
615.884	24499.34
616.079	23919.76
616.274	23823.51
616.47	23653.53
616.665	24009.87
616.86	23600.28
617.055	23377.05
617.25	23571.61
617.445	23774.36
617.641	23258.27
617.836	23633.05
618.031	23121.06
618.226	23360.67
618.421	22889.63
618.616	23467.16
618.811	23078.05
619.006	22946.98
619.201	22666.41
619.396	22961.31
619.591	22355.11
619.786	22746.28
619.981	22195.37
620.176	22684.84
620.371	22246.57
620.566	22138.03
620.761	22066.35
620.956	22215.85
621.151	21689.53
621.346	21777.59
621.541	21458.1
621.735	21839.03
621.93	21159.1
622.125	21499.06
622.32	21408.95
622.515	21351.61
622.709	20868.29
622.904	20833.47
623.099	20948.16
623.294	20772.04
623.488	20309.19
623.683	20481.22
623.878	20264.14
624.072	20327.63
624.267	20120.78
624.462	20270.28
624.656	19825.87
624.851	20006.09
625.046	19920.08
625.24	19571.93
625.435	19596.5
625.629	19363.03
625.824	19342.55
626.018	19455.19
626.213	19084.51
626.407	19031.26
626.602	18750.69
626.796	18703.59
626.991	18799.84
627.185	19027.17
627.38	18367.72
627.574	18453.73
627.768	18289.9
627.963	18214.12
628.157	17945.84
628.352	18119.92
628.546	17853.68
628.74	17935.6
628.935	17638.64
629.129	17579.25
629.323	17485.05
629.517	17595.64
629.712	17540.34
629.906	17282.3
630.1	16889.09
630.294	17231.1
630.489	17036.54
630.683	17257.72
630.877	16817.41
631.071	16868.61
631.265	16747.78
631.459	16628.99
631.653	16542.98
631.848	16489.73
632.042	16540.93
632.236	16614.66
632.43	16332.04
632.624	16217.35
632.818	16184.59
633.012	15703.31
633.206	15609.11
633.4	15930.64
633.594	15707.41
633.788	15691.02
633.982	15811.85
634.176	15566.1
634.369	15269.14
634.563	15301.91
634.757	15183.13
634.951	15359.25
635.145	15344.92
635.339	15039.77
635.533	14980.38
635.726	15234.33
635.92	14898.46
636.114	14869.79
636.308	14411.04
636.501	14687.52
636.695	14529.83
636.889	14726.43
637.083	14449.96
637.276	14318.89
637.47	14286.12
637.664	14138.66
637.857	14222.63
638.051	14011.69
638.244	13882.67
638.438	13792.56
638.632	13804.85
638.825	13935.92
639.019	13538.61
639.212	13598
639.406	13376.82
639.599	13391.16
639.793	13532.47
639.986	13393.2
640.18	13344.05
640.373	13284.66
640.567	13069.62
640.76	13006.14
640.954	13012.28
641.147	12856.64
641.34	12936.51
641.534	12936.51
641.727	12698.94
641.92	12596.54
642.114	12438.85
642.307	12660.03
642.5	12283.2
642.694	12170.57
642.887	11984.2
643.08	12393.79
643.273	12283.2
643.467	12102.98
643.66	12014.92
643.853	11758.92
644.046	11699.53
644.239	11855.18
644.432	11746.64
644.626	11767.12
644.819	11754.83
645.012	11707.73
645.205	11668.81
645.398	11517.26
645.591	11373.91
645.784	11427.15
645.977	11291.99
646.17	10960.22
646.363	11033.94
646.556	10925.4
646.749	11130.2
646.942	11070.81
647.135	10939.74
647.328	10882.39
647.521	10708.32
647.714	10440.03
647.907	10681.69
648.099	10376.55
648.292	10483.04
648.485	10351.97
648.678	10235.24
648.871	10282.34
649.064	9973.1
649.256	10104.17
649.449	10079.59
649.642	9897.32
649.835	10061.16
650.027	10073.45
650.22	9725.29
650.413	9694.57
650.605	9895.27
650.798	9921.9
650.991	9606.51
651.183	9614.7
651.376	9465.2
651.568	9485.68
651.761	9309.55
651.954	9262.45
652.146	9297.27
652.339	9213.3
652.531	9379.18
652.724	9020.79
652.916	8967.54
653.109	8848.76
653.301	9102.71
653.494	8797.56
653.686	8967.54
653.879	8897.91
654.071	8922.49
654.263	8578.43
654.456	8664.44
654.648	8607.1
654.84	8453.5
655.033	8576.38
655.225	8310.15
655.417	8420.74
655.61	8430.98
655.802	8471.93
655.994	8211.84
656.186	8277.38
656.379	8050.05
656.571	8033.67
656.763	7859.59
656.955	7982.47
657.148	7992.71
657.34	8048.01
657.532	7720.33
657.724	7761.29
657.916	7767.43
658.108	7718.28
658.3	7613.84
658.492	7613.84
658.684	7564.68
658.876	7439.76
659.068	7527.82
659.26	7437.71
659.452	7372.18
659.644	7370.13
659.836	7210.39
660.028	7212.43
660.22	7187.86
660.412	7032.21
660.604	7116.18
660.796	7038.36
660.988	7140.76
661.18	6856.09
661.372	6903.19
661.563	6872.47
661.755	6778.26
661.947	6792.6
662.139	6798.74
662.331	6589.85
662.522	6528.41
662.714	6632.86
662.906	6438.3
663.097	6401.44
663.289	6444.45
663.481	6475.17
663.673	6360.48
663.864	6206.88
664.056	6366.62
664.247	6421.92
664.439	6213.03
664.631	6237.6
664.822	6073.76
665.014	6051.24
665.205	5907.88
665.397	5950.89
665.588	5952.93
665.78	6024.61
665.971	5911.97
666.163	5834.15
666.354	5680.55
666.546	5735.85
666.737	5825.96
666.929	5727.66
667.12	5690.79
667.311	5639.59
667.503	5610.92
667.694	5559.72
667.885	5721.51
668.077	5436.85
668.268	5424.56
668.459	5553.58
668.651	5430.7
668.842	5529
669.033	5445.04
669.224	5442.99
669.416	5311.92
669.607	5324.21
669.798	5268.91
669.989	5287.34
670.18	5221.81
670.371	5182.9
670.563	5103.03
670.754	5115.31
670.945	5107.12
671.136	5117.36
671.327	5090.74
671.518	5105.07
671.709	5127.6
671.9	5135.79
672.091	4992.44
672.282	4969.91
672.473	4863.41
672.664	4781.5
672.855	4851.13
673.046	4904.37
673.237	4865.46
673.428	4842.93
673.619	4910.52
673.809	4883.89
674	4830.65
674.191	4691.38
674.382	4695.48
674.573	4701.62
674.764	4621.75
674.954	4746.68
675.145	4627.9
675.336	4570.55
675.527	4560.31
675.717	4560.31
675.908	4498.88
676.099	4439.48
676.289	4466.11
676.48	4515.26
676.671	4421.05
676.861	4335.04
677.052	4361.66
677.243	4419
677.433	4437.44
677.624	4394.43
677.814	4357.57
678.005	4298.17
678.195	4398.52
678.386	4283.84
678.576	4222.4
678.767	4146.62
678.957	4240.83
679.148	4206.02
679.338	4203.97
679.529	4347.33
679.719	4150.72
679.909	4242.88
680.1	4240.83
680.29	4183.49
680.481	4210.11
680.671	4095.43
680.861	4107.71
681.052	4087.23
681.242	3995.08
681.432	4117.95
681.622	3909.06
681.813	4081.09
682.003	4087.23
682.193	3968.45
682.383	4072.9
682.573	4087.23
682.764	4021.7
682.954	3964.36
683.144	3861.96
683.334	4027.84
683.524	4044.23
683.714	3974.6
683.904	3818.95
684.094	3888.58
684.284	3855.81
684.474	3970.5
684.664	3884.48
684.854	3829.19
685.044	3847.62
685.234	3876.29
685.424	3667.4
685.614	3730.89
685.804	3638.73
685.994	3775.94
686.184	3835.33
686.374	3839.43
686.564	3829.19
686.753	3804.61
686.943	3732.94
687.133	3720.65
687.323	3769.8
687.513	3565
687.702	3763.65
687.892	3714.5
688.082	3780.04
688.272	3755.46
688.461	3640.78
688.651	3636.68
688.841	3653.06
689.03	3550.67
689.22	3651.02
689.41	3558.86
689.599	3636.68
689.789	3651.02
689.979	3644.87
690.168	3573.19
690.358	3571.15
690.547	3544.52
690.737	3593.67
690.926	3411.4
691.116	3534.28
691.305	3620.3
691.495	3567.05
691.684	3573.19
691.874	3509.71
692.063	3530.19
692.252	3558.86
692.442	3657.16
692.631	3384.78
692.82	3417.55
693.01	3503.56
693.199	3429.84
693.388	3440.08
693.578	3524.04
693.767	3485.13
693.956	3456.46
694.146	3458.51
694.335	3419.6
694.524	3419.6
694.713	3511.75
694.902	3460.56
695.092	3321.29
695.281	3403.21
695.47	3519.95
695.659	3329.49
695.848	3497.42
696.037	3452.36
696.226	3550.67
696.415	3370.44
696.604	3421.64
696.793	3345.87
696.982	3345.87
697.171	3411.4
697.36	3376.59
697.549	3382.73
697.738	3343.82
697.927	3304.91
698.116	3417.55
698.305	3268.05
698.494	3356.11
698.683	3341.77
698.872	3454.41
699.061	3280.33
699.25	3347.92
699.438	3255.76
699.627	3419.6
699.816	3356.11
700.005	3315.15
700.193	3274.19
700.382	3284.43
700.571	3290.57
700.76	3300.81
700.948	3298.77
701.137	3182.03
701.326	3169.74
701.514	3118.54
701.703	3280.33
701.892	3177.94
702.08	3296.72
702.269	3231.18
702.457	3073.49
702.646	3210.7
702.834	3096.02
703.023	3145.17
703.212	3116.5
703.4	3149.26
703.589	3143.12
703.777	3153.36
703.965	3053.01
704.154	3141.07
704.342	3061.2
704.531	3110.35
704.719	2960.85
704.907	3116.5
705.096	2852.31
705.284	3036.63
705.472	2921.94
705.661	3087.82
705.849	3091.92
706.037	3053.01
706.226	3050.96
706.414	2846.16
706.602	2887.12
706.79	2979.28
706.979	2872.79
707.167	2936.28
707.355	2827.73
707.543	2942.42
707.731	2889.17
707.919	2827.73
708.107	2844.12
708.296	2860.5
708.484	2840.02
708.672	2667.99
708.86	2831.83
709.048	2766.29
709.236	2768.34
709.424	2780.63
709.612	2782.68
709.8	2551.26
709.988	2721.24
710.176	2713.05
710.364	2676.18
710.551	2737.62
710.739	2616.79
710.927	2553.31
711.115	2600.41
711.303	2659.8
711.491	2741.72
711.679	2584.02
711.866	2684.38
712.054	2530.78
712.242	2588.12
712.43	2682.33
712.617	2543.07
712.805	2512.35
712.993	2473.43
713.181	2622.94
713.368	2516.44
713.556	2493.91
713.744	2446.81
713.931	2506.2
714.119	2518.49
714.306	2446.81
714.494	2442.71
714.682	2459.1
714.869	2373.08
715.057	2416.09
715.244	2358.75
715.432	2405.85
715.619	2422.24
715.807	2459.1
715.994	2291.17
716.182	2397.66
716.369	2371.04
716.556	2362.84
716.744	2325.98
716.931	2323.93
717.119	2321.88
717.306	2403.8
717.493	2211.29
717.681	2287.07
717.868	2201.05
718.055	2276.83
718.242	2207.2
718.43	2227.68
718.617	2309.6
718.804	2131.42
718.991	2166.24
719.179	2153.95
719.366	2143.71
719.553	2162.14
719.74	2084.32
719.927	2123.23
720.114	2076.13
720.301	2018.79
720.488	1990.11
720.676	2004.45
720.863	2035.17
721.05	2213.34
721.237	2010.59
721.424	1881.57
721.611	2055.65
721.798	2061.79
721.985	1891.81
722.172	1998.31
722.358	1986.02
722.545	1940.96
722.732	2072.03
722.919	1938.91
723.106	1904.1
723.293	1861.09
723.48	1986.02
723.667	1914.34
723.853	1949.15
724.04	2026.98
724.227	1822.18
724.414	1883.62
724.6	1854.95
724.787	1781.22
724.974	1848.8
725.161	1820.13
725.347	1799.65
725.534	1805.8
725.72	1639.91
725.907	1881.57
726.094	1717.73
726.28	1873.38
726.467	1809.89
726.653	1746.41
726.84	1818.08
727.027	1693.16
727.213	1781.22
727.4	1609.19
727.586	1711.59
727.773	1709.54
727.959	1676.77
728.145	1676.77
728.332	1662.44
728.518	1678.82
728.705	1684.97
728.891	1637.86
729.077	1687.01
729.264	1605.1
729.45	1537.51
729.636	1689.06
729.823	1627.62
730.009	1578.47
730.195	1658.34
730.382	1539.56
730.568	1584.62
730.754	1590.76
730.94	1594.86
731.126	1689.06
731.313	1617.38
731.499	1637.86
731.685	1656.29
731.871	1486.31
732.057	1543.66
732.243	1654.25
732.429	1578.47
732.615	1476.07
732.801	1494.51
732.987	1543.66
733.173	1527.27
733.359	1549.8
733.545	1447.4
733.731	1390.06
733.917	1525.22
734.103	1525.22
734.289	1502.7
734.475	1517.03
734.661	1447.4
734.847	1510.89
735.033	1506.79
735.219	1422.83
735.404	1474.03
735.59	1412.59
735.776	1422.83
735.962	1453.55
736.148	1357.29
736.333	1410.54
736.519	1379.82
736.705	1355.24
736.89	1375.72
737.076	1424.87
737.262	1340.91
737.447	1463.79
737.633	1318.38
737.819	1334.76
738.004	1215.98
738.19	1254.89
738.375	1383.91
738.561	1289.71
738.747	1396.2
738.932	1285.61
739.118	1371.63
739.303	1314.28
739.489	1302
739.674	1351.15
739.859	1287.66
740.045	1275.37
740.23	1326.57
740.416	1281.52
740.601	1275.37
740.786	1193.45
740.972	1175.02
741.157	1275.37
741.342	1193.45
741.528	1250.8
741.713	1267.18
741.898	1115.63
742.084	1170.93
742.269	1232.37
742.454	1236.46
742.639	1211.89
742.824	1224.17
743.01	1230.32
743.195	1076.72
743.38	1136.11
743.565	1105.39
743.75	1121.77
743.935	1127.92
744.12	1162.73
744.305	1129.97
744.49	1138.16
744.675	1066.48
744.86	1084.91
745.045	1046
745.23	1060.34
745.415	1068.53
745.6	1213.93
745.785	1031.66
745.97	1064.43
746.155	1005.04
746.34	1101.3
746.525	980.47
746.71	1068.53
746.895	1070.58
747.079	1084.91
747.264	1023.47
747.449	1132.01
747.634	986.61
747.819	925.17
748.003	1037.81
748.188	984.56
748.373	1027.57
748.557	982.51
748.742	959.99
748.927	892.4
749.111	929.27
749.296	980.47
749.481	1035.76
749.665	945.65
749.85	1000.94
750.034	910.83
750.219	933.36
750.404	927.22
750.588	931.31
750.773	804.34
750.957	962.03
751.141	841.2
751.326	945.65
751.51	849.4
751.695	990.7
751.879	900.59
752.064	828.92
752.248	925.17
752.432	847.35
752.617	927.22
752.801	814.58
752.985	916.98
753.17	855.54
753.354	740.85
753.538	790
753.722	755.19
753.907	830.96
754.091	734.71
754.275	699.89
754.459	871.92
754.643	757.24
754.828	806.39
755.012	785.91
755.196	720.37
755.38	787.96
755.564	781.81
755.748	790
755.932	732.66
756.116	736.76
756.3	753.14
756.484	642.55
756.668	683.51
756.852	785.91
757.036	775.67
757.22	708.09
757.404	734.71
757.588	728.56
757.772	650.74
757.956	669.17
758.14	699.89
758.323	740.85
758.507	734.71
758.691	767.48
758.875	771.57
759.059	722.42
759.242	636.41
759.426	691.7
759.61	601.59
759.794	777.72
759.977	747
760.161	726.52
760.345	658.93
760.528	708.09
760.712	644.6
760.895	769.52
761.079	691.7
761.263	613.88
761.446	562.68
761.63	681.46
761.813	660.98
761.997	703.99
762.18	720.37
762.364	708.09
762.547	605.69
762.731	558.58
762.914	613.88
763.098	595.45
763.281	550.39
763.464	601.59
763.648	542.2
763.831	667.13
764.015	601.59
764.198	544.25
764.381	628.21
764.564	591.35
764.748	626.17
764.931	585.21
765.114	591.35
765.297	679.41
765.481	620.02
765.664	523.77
765.847	617.97
766.03	570.87
766.213	574.97
766.397	622.07
766.58	548.34
766.763	601.59
766.946	624.12
767.129	554.49
767.312	523.77
767.495	540.15
767.678	566.78
767.861	562.68
768.044	613.88
768.227	632.31
768.41	552.44
768.593	572.92
768.776	501.24
768.959	560.63
769.142	472.57
769.324	503.29
769.507	574.97
769.69	556.54
769.873	464.38
770.056	521.72
770.239	579.06
770.421	591.35
770.604	529.91
770.787	491
770.97	568.82
771.152	511.48
771.335	597.49
771.518	540.15
771.7	609.78
771.883	560.63
772.066	544.25
772.248	497.14
772.431	527.86
772.613	433.66
772.796	417.27
772.978	476.66
773.161	523.77
773.343	486.9
773.526	491
773.708	497.14
773.891	511.48
774.073	536.06
774.256	480.76
774.438	497.14
774.621	497.14
774.803	509.43
774.985	456.19
775.168	493.05
775.35	441.85
775.532	447.99
775.715	413.18
775.897	460.28
776.079	441.85
776.261	470.52
776.444	437.75
776.626	445.95
776.808	411.13
776.99	456.19
777.173	441.85
777.355	454.14
777.537	501.24
777.719	382.46
777.901	314.88
778.083	437.75
778.265	417.27
778.447	337.4
778.629	423.42
778.811	372.22
778.993	423.42
779.175	378.36
779.357	460.28
779.539	353.79
779.721	394.75
779.903	386.55
780.085	486.9
780.267	450.04
780.449	413.18
780.631	366.07
780.812	478.71
780.994	441.85
781.176	411.13
781.358	364.03
781.54	321.02
781.721	368.12
781.903	382.46
782.085	300.54
782.267	404.99
782.448	413.18
782.63	298.49
782.812	359.93
782.993	331.26
783.175	372.22
783.357	404.99
783.538	376.31
783.72	306.68
783.901	314.88
784.083	357.88
784.264	333.31
784.446	298.49
784.627	343.55
784.809	304.64
784.99	325.12
785.172	226.81
785.353	261.63
785.535	278.01
785.716	290.3
785.897	359.93
786.079	298.49
786.26	267.77
786.441	243.2
786.623	253.44
786.804	286.2
786.985	263.68
787.167	294.4
787.348	259.58
787.529	257.53
787.71	296.44
787.891	288.25
788.073	286.2
788.254	235
788.435	282.11
788.616	257.53
788.797	304.64
788.978	284.16
789.159	249.34
789.34	314.88
789.522	390.65
789.703	265.72
789.884	267.77
790.065	275.96
790.246	286.2
790.427	251.39
790.607	261.63
790.788	204.28
790.969	237.05
791.15	249.34
791.331	253.44
791.512	251.39
791.693	269.82
791.874	271.87
792.054	282.11
792.235	218.62
792.416	286.2
792.597	228.86
792.778	245.24
792.958	169.47
793.139	253.44
793.32	169.47
793.5	243.2
793.681	235
793.862	245.24
794.042	241.15
794.223	224.76
794.404	284.16
794.584	251.39
794.765	185.85
794.945	185.85
795.126	253.44
795.306	255.48
795.487	257.53
795.667	202.24
795.848	177.66
796.028	280.06
796.209	187.9
796.389	161.28
796.57	224.76
796.75	169.47
796.93	257.53
797.111	235
797.291	235
797.471	263.68
797.652	183.81
797.832	198.14
798.012	163.33
798.192	163.33
798.373	249.34
798.553	159.23
798.733	126.46
798.913	142.85
799.093	202.24
799.274	228.86
799.454	134.65
799.634	183.81
799.814	183.81
799.994	192
800.174	222.72
800.354	116.22
800.534	192
800.714	173.57
800.894	118.27
801.074	136.7
801.254	175.61
801.434	218.62
801.614	192
801.794	196.09
801.974	447.99
802.154	192
802.334	185.85
802.514	93.69
802.693	112.13
802.873	177.66
803.053	159.23
803.233	163.33
803.413	185.85
803.592	138.75
803.772	146.94
803.952	169.47
804.131	153.09
804.311	124.41
804.491	179.71
804.67	165.37
804.85	247.29
805.03	142.85
805.209	142.85
805.389	161.28
805.568	251.39
805.748	128.51
805.928	192
806.107	155.13
806.287	198.14
806.466	177.66
806.646	130.56
806.825	153.09
807.004	126.46
807.184	103.93
807.363	146.94
807.543	165.37
807.722	136.7
807.901	200.19
808.081	146.94
808.26	118.27
808.439	224.76
808.619	120.32
808.798	108.03
808.977	128.51
809.156	105.98
809.336	163.33
809.515	110.08
809.694	159.23
809.873	200.19
810.052	126.46
810.231	103.93
810.411	99.84
810.59	132.61
810.769	136.7
810.948	155.13
811.127	67.07
811.306	151.04
811.485	130.56
811.664	181.76
811.843	69.12
812.022	138.75
812.201	77.31
812.38	79.36
812.559	118.27
812.737	120.32
812.916	153.09
813.095	77.31
813.274	36.35
813.453	73.21
813.632	87.55
813.811	140.8
813.989	58.88
814.168	183.81
814.347	153.09
814.526	136.7
814.704	124.41
814.883	142.85
815.062	95.74
815.24	73.21
815.419	157.18
815.598	132.61
815.776	54.78
815.955	79.36
816.133	69.12
816.312	204.28
816.49	101.89
816.669	101.89
816.847	122.37
817.026	142.85
817.204	177.66
817.383	118.27
817.561	52.74
817.74	155.13
817.918	134.65
818.097	69.12
818.275	118.27
818.453	93.69
818.632	73.21
818.81	50.69
818.988	101.89
819.167	101.89
819.345	30.21
819.523	83.45
819.701	112.13
819.879	108.03
820.058	75.26
820.236	108.03
820.414	69.12
820.592	161.28
820.77	81.41
820.948	142.85
821.127	110.08
821.305	11.78
821.483	118.27
821.661	46.59
821.839	97.79
822.017	140.8
822.195	77.31
822.373	151.04
822.551	56.83
822.729	120.32
822.907	95.74
823.085	126.46
823.262	67.07
823.44	110.08
823.618	44.54
823.796	54.78
823.974	122.37
824.152	91.65
824.329	114.17
824.507	118.27
824.685	128.51
824.863	130.56
825.04	101.89
825.218	151.04
825.396	93.69
825.574	112.13
825.751	108.03
825.929	85.5
826.107	38.4
826.284	69.12
826.462	60.93
826.639	77.31
826.817	32.26
826.994	52.74
827.172	42.5
827.349	93.69
827.527	87.55
827.704	85.5
827.882	40.45
828.059	140.8
828.237	167.42
828.414	67.07
828.591	85.5
828.769	108.03
828.946	148.99
829.124	36.35
829.301	136.7
829.478	60.93
829.655	36.35
829.833	75.26
830.01	71.17
830.187	93.69
830.364	15.87
830.542	116.22
830.719	50.69
830.896	83.45
831.073	32.26
831.25	114.17
831.427	48.64
831.604	108.03
831.782	85.5
831.959	165.37
832.136	40.45
832.313	101.89
832.49	101.89
832.667	87.55
832.844	56.83
833.021	65.02
833.198	42.5
833.374	110.08
833.551	11.78
833.728	44.54
833.905	93.69
834.082	40.45
834.259	101.89
834.436	71.17
834.612	36.35
834.789	79.36
834.966	116.22
835.143	5.63
835.319	44.54
835.496	34.3
835.673	110.08
835.85	-0.51
836.026	151.04
836.203	103.93
836.38	-10.75
836.556	40.45
836.733	13.82
836.909	71.17
837.086	24.06
837.262	30.21
837.439	11.78
837.616	65.02
837.792	-4.61
837.968	95.74
838.145	54.78
838.321	69.12
838.498	60.93
838.674	89.6
838.851	54.78
839.027	87.55
839.203	69.12
839.38	50.69
839.556	-31.23
839.732	48.64
839.909	50.69
840.085	71.17
840.261	-6.66
840.437	-12.8
840.614	87.55
840.79	103.93
840.966	126.46
841.142	89.6
841.318	83.45
841.494	110.08
841.671	48.64
841.847	46.59
842.023	32.26
842.199	17.92
842.375	34.3
842.551	24.06
842.727	-2.56
842.903	81.41
843.079	22.02
843.255	50.69
843.431	54.78
843.607	99.84
843.783	3.58
843.959	126.46
844.134	71.17
844.31	144.89
844.486	69.12
844.662	118.27
844.838	36.35
845.013	-45.57
845.189	11.78
845.365	77.31
845.541	19.97
845.716	108.03
845.892	60.93
846.068	46.59
846.244	-18.94
846.419	77.31
846.595	50.69
846.77	46.59
846.946	-35.33
847.122	28.16
847.297	134.65
847.473	81.41
847.648	65.02
847.824	91.65
847.999	-0.51
848.175	60.93
848.35	60.93
848.526	65.02
848.701	56.83
848.876	69.12
849.052	24.06
849.227	15.87
849.403	91.65
849.578	69.12
849.753	-2.56
849.929	62.98
850.104	-10.75
850.279	50.69
850.454	112.13
850.63	58.88
850.805	138.75
850.98	130.56
851.155	79.36
851.33	15.87
851.505	32.26
851.681	13.82
851.856	97.79
852.031	62.98
852.206	5.63
852.381	65.02
852.556	124.41
852.731	83.45
852.906	77.31
853.081	30.21
853.256	-70.14
853.431	85.5
853.606	7.68
853.781	-16.9
853.956	32.26
854.131	52.74
854.305	-31.23
854.48	22.02
854.655	85.5
854.83	69.12
855.005	15.87
855.18	-16.9
855.354	-12.8
855.529	89.6
855.704	-33.28
855.879	69.12
856.053	15.87
856.228	11.78
856.403	3.58
856.577	26.11
856.752	36.35
856.926	34.3
857.101	56.83
857.276	32.26
857.45	17.92
857.625	110.08
857.799	93.69
857.974	22.02
858.148	99.84
858.323	130.56
858.497	-14.85
858.672	62.98
858.846	9.73
859.02	93.69
859.195	-0.51
859.369	7.68
859.543	60.93
859.718	85.5
859.892	-10.75
860.066	17.92
860.241	3.58
860.415	28.16
860.589	62.98
860.763	36.35
860.938	32.26
861.112	7.68
861.286	9.73
861.46	28.16
861.634	32.26
861.808	67.07
861.982	-45.57
862.157	44.54
862.331	34.3
862.505	5.63
862.679	15.87
862.853	13.82
863.027	1.54
863.201	85.5
863.375	-35.33
863.549	62.98
863.722	36.35
863.896	87.55
864.07	28.16
864.244	22.02
864.418	9.73
864.592	46.59
864.766	-18.94
864.939	60.93
865.113	-27.14
865.287	126.46
865.461	19.97
865.634	9.73
865.808	44.54
865.982	93.69
866.156	-29.18
866.329	-33.28
866.503	17.92
866.676	52.74
866.85	46.59
867.024	101.89
867.197	11.78
867.371	71.17
867.544	-8.7
867.718	36.35
867.891	11.78
868.065	67.07
868.238	-41.47
868.412	-12.8
868.585	58.88
868.759	36.35
868.932	32.26
869.105	3.58
869.279	19.97
869.452	-18.94
869.625	44.54
869.799	26.11
869.972	52.74
870.145	28.16
870.319	60.93
870.492	54.78
870.665	122.37
870.838	30.21
871.011	3.58
871.185	3.58
871.358	19.97
871.531	34.3
871.704	-10.75
871.877	69.12
872.05	52.74
872.223	15.87
872.396	62.98
872.569	79.36
872.742	13.82
872.915	75.26
873.088	-16.9
873.261	85.5
873.434	46.59
873.607	79.36
873.78	5.63
873.953	24.06
874.126	-25.09
874.299	87.55
874.471	52.74
874.644	19.97
874.817	22.02
874.99	26.11
875.163	11.78
875.335	-55.81
875.508	85.5
875.681	19.97
875.853	67.07
876.026	50.69
876.199	36.35
876.371	3.58
876.544	-23.04
876.717	36.35
876.889	52.74
877.062	-20.99
877.234	-51.71
877.407	85.5
877.579	13.82
877.752	52.74
877.924	52.74
878.097	65.02
878.269	62.98
878.442	5.63
878.614	60.93
878.786	26.11
878.959	5.63
879.131	-35.33
879.303	13.82
879.476	52.74
879.648	52.74
879.82	60.93
879.993	52.74
880.165	-23.04
880.337	50.69
880.509	-12.8
880.681	26.11
880.854	19.97
881.026	1.54
881.198	-6.66
881.37	44.54
881.542	-4.61
881.714	30.21
881.886	-27.14
882.058	1.54
882.23	11.78
882.402	7.68
882.574	1.54
882.746	110.08
882.918	-14.85
883.09	19.97
883.262	36.35
883.434	30.21
883.606	9.73
883.778	9.73
883.95	19.97
884.122	-14.85
884.293	26.11
884.465	24.06
884.637	85.5
884.809	3.58
884.98	50.69
885.152	36.35
885.324	28.16
885.496	32.26
885.667	79.36
885.839	-43.52
886.011	122.37
886.182	7.68
886.354	5.63
886.525	36.35
886.697	-18.94
886.869	44.54
887.04	46.59
887.212	-6.66
887.383	46.59
887.555	67.07
887.726	-4.61
887.897	42.5
888.069	58.88
888.24	-4.61
888.412	-6.66
888.583	60.93
888.754	11.78
888.926	17.92
889.097	44.54
889.268	87.55
889.44	87.55
889.611	-27.14
889.782	28.16
889.953	-4.61
890.125	60.93
890.296	5.63
890.467	11.78
890.638	48.64
890.809	42.5
890.98	81.41
891.151	15.87
891.323	44.54
891.494	65.02
891.665	-33.28
891.836	22.02
892.007	-47.62
892.178	87.55
892.349	19.97
892.52	112.13
892.691	58.88
892.862	30.21
893.032	-16.9
893.203	62.98
893.374	26.11
893.545	-33.28
893.716	75.26
893.887	71.17
894.057	-25.09
894.228	52.74
894.399	5.63
894.57	3.58
894.74	-6.66
894.911	44.54
895.082	-57.86
895.253	30.21
895.423	42.5
895.594	69.12
895.764	52.74
895.935	19.97
896.106	28.16
896.276	38.4
896.447	11.78
896.617	71.17
896.788	19.97
896.958	13.82
897.129	26.11
897.299	85.5
897.47	15.87
897.64	62.98
897.81	-0.51
897.981	91.65
898.151	28.16
898.322	19.97
898.492	24.06
898.662	3.58
898.832	32.26
899.003	77.31
899.173	-18.94
899.343	-57.86
899.513	-20.99
