Data from USB4F104151__195__13-59-26-928.txt Node

Date: Thu Mar 13 13:59:26 EDT 2025
User: louis
Spectrometer: USB4F10415
Trigger mode: 4
Integration Time (sec): 1.000000E-2
Scans to average: 1
Electric dark correction enabled: true
Nonlinearity correction enabled: false
Boxcar width: 0
XAxis mode: Wavelengths
Number of Pixels in Spectrum: 3648
>>>>>Begin Spectral Data<<<<<
178.204	35.33
178.424	35.33
178.644	35.33
178.864	-67.07
179.084	-26.11
179.304	14.85
179.524	-13.82
179.744	31.23
179.964	39.42
180.184	-1.54
180.404	-17.92
180.624	-38.4
180.844	53.76
181.064	-19.97
181.283	-1.54
181.503	-42.5
181.723	-3.58
181.943	-11.78
182.163	0.51
182.383	16.9
182.602	20.99
182.822	80.38
183.042	45.57
183.262	31.23
183.482	16.9
183.701	0.51
183.921	20.99
184.141	78.33
184.361	100.86
184.58	-3.58
184.8	45.57
185.02	10.75
185.239	8.7
185.459	49.66
185.679	55.81
185.898	0.51
186.118	25.09
186.338	27.14
186.557	100.86
186.777	72.19
186.997	25.09
187.216	70.14
187.436	64
187.655	66.05
187.875	49.66
188.095	-42.5
188.314	-32.26
188.534	70.14
188.753	64
188.973	82.43
189.192	31.23
189.412	98.81
189.631	111.1
189.851	8.7
190.07	49.66
190.29	39.42
190.509	-34.3
190.729	39.42
190.948	61.95
191.168	61.95
191.387	129.53
191.607	16.9
191.826	0.51
192.045	33.28
192.265	53.76
192.484	6.66
192.704	4.61
192.923	57.86
193.142	43.52
193.362	35.33
193.581	61.95
193.8	72.19
194.02	45.57
194.239	35.33
194.458	-1.54
194.678	-19.97
194.897	53.76
195.116	-44.54
195.335	25.09
195.555	-15.87
195.774	23.04
195.993	18.94
196.212	14.85
196.432	12.8
196.651	70.14
196.87	98.81
197.089	111.1
197.308	27.14
197.528	115.2
197.747	98.81
197.966	-13.82
198.185	41.47
198.404	16.9
198.623	55.81
198.842	78.33
199.062	31.23
199.281	88.57
199.5	31.23
199.719	-5.63
199.938	94.72
200.157	76.29
200.376	57.86
200.595	6.66
200.814	33.28
201.033	8.7
201.252	41.47
201.471	-11.78
201.69	-34.3
201.909	88.57
202.128	10.75
202.347	12.8
202.566	-3.58
202.785	39.42
203.004	10.75
203.223	16.9
203.442	10.75
203.661	-17.92
203.879	-17.92
204.098	72.19
204.317	61.95
204.536	43.52
204.755	88.57
204.974	10.75
205.193	25.09
205.411	113.15
205.63	-19.97
205.849	-3.58
206.068	-67.07
206.287	41.47
206.505	27.14
206.724	94.72
206.943	14.85
207.162	55.81
207.381	-62.98
207.599	41.47
207.818	53.76
208.037	-1.54
208.255	70.14
208.474	29.18
208.693	16.9
208.911	18.94
209.13	20.99
209.349	53.76
209.567	47.62
209.786	-30.21
210.005	-1.54
210.223	27.14
210.442	10.75
210.661	8.7
210.879	-44.54
211.098	74.24
211.316	90.62
211.535	72.19
211.753	-15.87
211.972	14.85
212.191	59.9
212.409	45.57
212.628	92.67
212.846	14.85
213.065	-7.68
213.283	59.9
213.502	68.09
213.72	68.09
213.938	90.62
214.157	10.75
214.375	45.57
214.594	12.8
214.812	86.53
215.031	-1.54
215.249	86.53
215.467	39.42
215.686	51.71
215.904	23.04
216.122	6.66
216.341	31.23
216.559	23.04
216.778	23.04
216.996	53.76
217.214	4.61
217.432	12.8
217.651	-28.16
217.869	-13.82
218.087	107.01
218.306	-13.82
218.524	51.71
218.742	45.57
218.96	70.14
219.179	-19.97
219.397	70.14
219.615	88.57
219.833	37.38
220.051	66.05
220.27	78.33
220.488	72.19
220.706	61.95
220.924	-3.58
221.142	35.33
221.36	16.9
221.578	102.91
221.796	-26.11
222.015	78.33
222.233	-11.78
222.451	127.49
222.669	29.18
222.887	-58.88
223.105	53.76
223.323	61.95
223.541	51.71
223.759	61.95
223.977	2.56
224.195	23.04
224.413	72.19
224.631	80.38
224.849	6.66
225.067	92.67
225.285	8.7
225.503	37.38
225.721	-28.16
225.939	-19.97
226.157	80.38
226.375	66.05
226.592	-34.3
226.81	57.86
227.028	12.8
227.246	64
227.464	-1.54
227.682	20.99
227.9	59.9
228.117	68.09
228.335	47.62
228.553	4.61
228.771	2.56
228.989	53.76
229.206	82.43
229.424	37.38
229.642	-9.73
229.86	-5.63
230.077	49.66
230.295	70.14
230.513	29.18
230.731	74.24
230.948	14.85
231.166	86.53
231.384	6.66
231.601	41.47
231.819	29.18
232.037	47.62
232.254	16.9
232.472	12.8
232.689	59.9
232.907	-34.3
233.125	66.05
233.342	4.61
233.56	-13.82
233.777	37.38
233.995	14.85
234.213	-11.78
234.43	12.8
234.648	88.57
234.865	55.81
235.083	82.43
235.3	59.9
235.518	84.48
235.735	20.99
235.953	25.09
236.17	-34.3
236.388	14.85
236.605	45.57
236.822	45.57
237.04	86.53
237.257	66.05
237.475	-13.82
237.692	82.43
237.909	51.71
238.127	-9.73
238.344	4.61
238.562	55.81
238.779	29.18
238.996	8.7
239.214	53.76
239.431	-11.78
239.648	10.75
239.865	92.67
240.083	41.47
240.3	41.47
240.517	33.28
240.735	14.85
240.952	33.28
241.169	35.33
241.386	74.24
241.603	45.57
241.821	33.28
242.038	25.09
242.255	-11.78
242.472	100.86
242.689	27.14
242.907	51.71
243.124	-5.63
243.341	-3.58
243.558	64
243.775	8.7
243.992	4.61
244.209	16.9
244.426	20.99
244.643	70.14
244.86	33.28
245.078	45.57
245.295	45.57
245.512	96.77
245.729	16.9
245.946	29.18
246.163	61.95
246.38	-44.54
246.597	80.38
246.814	-3.58
247.031	8.7
247.248	-48.64
247.464	55.81
247.681	55.81
247.898	61.95
248.115	27.14
248.332	4.61
248.549	78.33
248.766	49.66
248.983	0.51
249.2	72.19
249.417	70.14
249.633	35.33
249.85	70.14
250.067	47.62
250.284	-30.21
250.501	80.38
250.717	66.05
250.934	14.85
251.151	-65.02
251.368	20.99
251.585	14.85
251.801	45.57
252.018	33.28
252.235	6.66
252.451	131.58
252.668	25.09
252.885	70.14
253.102	39.42
253.318	23.04
253.535	8.7
253.752	-69.12
253.968	47.62
254.185	16.9
254.401	57.86
254.618	80.38
254.835	-3.58
255.051	49.66
255.268	113.15
255.484	86.53
255.701	51.71
255.917	31.23
256.134	57.86
256.351	31.23
256.567	45.57
256.784	98.81
257	6.66
257.217	68.09
257.433	80.38
257.65	66.05
257.866	82.43
258.082	43.52
258.299	72.19
258.515	135.68
258.732	25.09
258.948	12.8
259.165	-19.97
259.381	10.75
259.597	41.47
259.814	45.57
260.03	119.29
260.246	57.86
260.463	80.38
260.679	55.81
260.895	94.72
261.112	127.49
261.328	-28.16
261.544	41.47
261.761	72.19
261.977	39.42
262.193	0.51
262.409	10.75
262.626	55.81
262.842	96.77
263.058	37.38
263.274	64
263.49	43.52
263.707	35.33
263.923	43.52
264.139	78.33
264.355	49.66
264.571	0.51
264.787	-52.74
265.004	61.95
265.22	31.23
265.436	23.04
265.652	25.09
265.868	0.51
266.084	10.75
266.3	61.95
266.516	61.95
266.732	35.33
266.948	104.96
267.164	8.7
267.38	31.23
267.596	37.38
267.812	-11.78
268.028	102.91
268.244	53.76
268.46	-11.78
268.676	25.09
268.892	119.29
269.108	29.18
269.324	16.9
269.54	25.09
269.756	70.14
269.972	121.34
270.188	96.77
270.403	35.33
270.619	80.38
270.835	88.57
271.051	70.14
271.267	104.96
271.483	57.86
271.698	78.33
271.914	39.42
272.13	29.18
272.346	49.66
272.562	59.9
272.777	47.62
272.993	10.75
273.209	14.85
273.425	113.15
273.64	-32.26
273.856	49.66
274.072	53.76
274.287	82.43
274.503	37.38
274.719	72.19
274.934	82.43
275.15	45.57
275.366	53.76
275.581	78.33
275.797	51.71
276.012	59.9
276.228	-15.87
276.444	29.18
276.659	37.38
276.875	-7.68
277.09	59.9
277.306	41.47
277.521	43.52
277.737	-13.82
277.952	14.85
278.168	59.9
278.383	25.09
278.599	20.99
278.814	-1.54
279.03	25.09
279.245	4.61
279.461	80.38
279.676	66.05
279.892	29.18
280.107	55.81
280.322	2.56
280.538	78.33
280.753	49.66
280.969	61.95
281.184	12.8
281.399	29.18
281.615	29.18
281.83	25.09
282.045	6.66
282.26	39.42
282.476	41.47
282.691	64
282.906	104.96
283.122	29.18
283.337	41.47
283.552	111.1
283.767	90.62
283.983	80.38
284.198	76.29
284.413	150.01
284.628	27.14
284.843	-9.73
285.058	29.18
285.274	37.38
285.489	61.95
285.704	27.14
285.919	102.91
286.134	109.05
286.349	47.62
286.564	70.14
286.779	70.14
286.995	37.38
287.21	86.53
287.425	74.24
287.64	80.38
287.855	82.43
288.07	45.57
288.285	29.18
288.5	8.7
288.715	37.38
288.93	-3.58
289.145	76.29
289.36	27.14
289.575	76.29
289.79	80.38
290.004	31.23
290.219	16.9
290.434	18.94
290.649	70.14
290.864	47.62
291.079	18.94
291.294	66.05
291.509	78.33
291.724	59.9
291.938	14.85
292.153	61.95
292.368	31.23
292.583	25.09
292.798	25.09
293.012	86.53
293.227	39.42
293.442	12.8
293.657	59.9
293.871	55.81
294.086	39.42
294.301	94.72
294.516	57.86
294.73	39.42
294.945	64
295.16	-13.82
295.374	35.33
295.589	-3.58
295.804	66.05
296.018	84.48
296.233	49.66
296.447	82.43
296.662	53.76
296.877	25.09
297.091	123.39
297.306	41.47
297.52	-11.78
297.735	-40.45
297.949	86.53
298.164	37.38
298.378	70.14
298.593	66.05
298.807	20.99
299.022	94.72
299.236	57.86
299.451	23.04
299.665	-11.78
299.88	45.57
300.094	-3.58
300.309	20.99
300.523	57.86
300.737	33.28
300.952	68.09
301.166	35.33
301.381	-5.63
301.595	107.01
301.809	47.62
302.024	57.86
302.238	53.76
302.452	45.57
302.667	119.29
302.881	72.19
303.095	0.51
303.309	123.39
303.524	70.14
303.738	41.47
303.952	6.66
304.166	31.23
304.381	10.75
304.595	31.23
304.809	-19.97
305.023	45.57
305.237	8.7
305.452	59.9
305.666	96.77
305.88	119.29
306.094	2.56
306.308	16.9
306.522	96.77
306.736	-17.92
306.95	23.04
307.164	20.99
307.379	39.42
307.593	104.96
307.807	82.43
308.021	113.15
308.235	57.86
308.449	53.76
308.663	92.67
308.877	80.38
309.091	41.47
309.305	70.14
309.519	-11.78
309.733	117.25
309.947	20.99
310.161	119.29
310.374	-7.68
310.588	45.57
310.802	113.15
311.016	-38.4
311.23	68.09
311.444	20.99
311.658	33.28
311.872	41.47
312.085	133.63
312.299	76.29
312.513	8.7
312.727	109.05
312.941	57.86
313.154	25.09
313.368	31.23
313.582	25.09
313.796	98.81
314.009	55.81
314.223	39.42
314.437	84.48
314.651	14.85
314.864	88.57
315.078	72.19
315.292	53.76
315.505	8.7
315.719	-44.54
315.933	74.24
316.146	43.52
316.36	29.18
316.573	25.09
316.787	47.62
317.001	61.95
317.214	53.76
317.428	-9.73
317.641	115.2
317.855	16.9
318.068	76.29
318.282	-1.54
318.495	76.29
318.709	25.09
318.922	14.85
319.136	102.91
319.349	12.8
319.563	39.42
319.776	86.53
319.99	86.53
320.203	47.62
320.417	51.71
320.63	82.43
320.843	55.81
321.057	33.28
321.27	70.14
321.483	84.48
321.697	78.33
321.91	31.23
322.124	84.48
322.337	53.76
322.55	78.33
322.763	82.43
322.977	102.91
323.19	35.33
323.403	25.09
323.617	23.04
323.83	102.91
324.043	10.75
324.256	47.62
324.469	-5.63
324.683	139.77
324.896	27.14
325.109	33.28
325.322	49.66
325.535	47.62
325.748	139.77
325.962	94.72
326.175	16.9
326.388	94.72
326.601	78.33
326.814	18.94
327.027	57.86
327.24	53.76
327.453	49.66
327.666	53.76
327.879	49.66
328.092	-24.06
328.305	2.56
328.518	20.99
328.731	-9.73
328.944	33.28
329.157	92.67
329.37	29.18
329.583	23.04
329.796	88.57
330.009	6.66
330.222	90.62
330.435	55.81
330.648	57.86
330.861	117.25
331.073	23.04
331.286	76.29
331.499	70.14
331.712	53.76
331.925	29.18
332.138	23.04
332.35	-32.26
332.563	107.01
332.776	74.24
332.989	12.8
333.202	6.66
333.414	70.14
333.627	6.66
333.84	25.09
334.053	49.66
334.265	78.33
334.478	96.77
334.691	68.09
334.903	23.04
335.116	59.9
335.329	0.51
335.541	61.95
335.754	104.96
335.966	53.76
336.179	100.86
336.392	45.57
336.604	64
336.817	78.33
337.029	37.38
337.242	66.05
337.454	-44.54
337.667	64
337.88	59.9
338.092	86.53
338.305	27.14
338.517	-19.97
338.729	92.67
338.942	66.05
339.154	53.76
339.367	80.38
339.579	49.66
339.792	88.57
340.004	45.57
340.217	72.19
340.429	76.29
340.641	6.66
340.854	27.14
341.066	23.04
341.278	16.9
341.491	88.57
341.703	55.81
341.915	12.8
342.128	29.18
342.34	6.66
342.552	64
342.764	66.05
342.977	-1.54
343.189	64
343.401	55.81
343.613	27.14
343.826	119.29
344.038	64
344.25	121.34
344.462	78.33
344.674	12.8
344.886	70.14
345.099	47.62
345.311	31.23
345.523	49.66
345.735	-38.4
345.947	61.95
346.159	31.23
346.371	-30.21
346.583	39.42
346.795	49.66
347.007	6.66
347.219	90.62
347.431	80.38
347.643	49.66
347.855	-24.06
348.067	29.18
348.279	45.57
348.491	82.43
348.703	100.86
348.915	72.19
349.127	39.42
349.339	49.66
349.551	39.42
349.763	68.09
349.975	31.23
350.187	51.71
350.399	72.19
350.61	129.53
350.822	51.71
351.034	86.53
351.246	-48.64
351.458	8.7
351.669	4.61
351.881	45.57
352.093	104.96
352.305	51.71
352.517	55.81
352.728	29.18
352.94	94.72
353.152	68.09
353.363	53.76
353.575	84.48
353.787	113.15
353.999	70.14
354.21	102.91
354.422	74.24
354.633	86.53
354.845	111.1
355.057	43.52
355.268	47.62
355.48	80.38
355.692	31.23
355.903	41.47
356.115	94.72
356.326	96.77
356.538	33.28
356.749	96.77
356.961	8.7
357.172	107.01
357.384	88.57
357.595	59.9
357.807	61.95
358.018	55.81
358.23	29.18
358.441	27.14
358.653	88.57
358.864	33.28
359.075	43.52
359.287	64
359.498	111.1
359.709	47.62
359.921	125.44
360.132	8.7
360.344	61.95
360.555	47.62
360.766	72.19
360.977	27.14
361.189	137.73
361.4	59.9
361.611	92.67
361.823	64
362.034	96.77
362.245	31.23
362.456	111.1
362.667	90.62
362.879	86.53
363.09	72.19
363.301	-44.54
363.512	57.86
363.723	23.04
363.935	35.33
364.146	45.57
364.357	78.33
364.568	90.62
364.779	8.7
364.99	70.14
365.201	-3.58
365.412	72.19
365.623	51.71
365.834	68.09
366.045	86.53
366.256	47.62
366.467	2.56
366.678	70.14
366.889	55.81
367.1	80.38
367.311	45.57
367.522	107.01
367.733	117.25
367.944	86.53
368.155	150.01
368.366	27.14
368.577	61.95
368.788	45.57
368.999	78.33
369.209	102.91
369.42	145.92
369.631	39.42
369.842	133.63
370.053	8.7
370.264	80.38
370.474	117.25
370.685	31.23
370.896	109.05
371.107	53.76
371.317	111.1
371.528	59.9
371.739	45.57
371.95	119.29
372.16	119.29
372.371	68.09
372.582	129.53
372.792	61.95
373.003	39.42
373.214	-15.87
373.424	29.18
373.635	113.15
373.846	82.43
374.056	47.62
374.267	125.44
374.477	86.53
374.688	119.29
374.898	51.71
375.109	70.14
375.319	57.86
375.53	35.33
375.74	31.23
375.951	29.18
376.161	104.96
376.372	127.49
376.582	29.18
376.793	80.38
377.003	-7.68
377.214	45.57
377.424	82.43
377.635	57.86
377.845	31.23
378.055	61.95
378.266	14.85
378.476	166.4
378.686	4.61
378.897	135.68
379.107	37.38
379.317	41.47
379.528	45.57
379.738	117.25
379.948	-9.73
380.158	82.43
380.369	64
380.579	76.29
380.789	35.33
380.999	76.29
381.21	-1.54
381.42	82.43
381.63	78.33
381.84	115.2
382.05	100.86
382.261	107.01
382.471	59.9
382.681	59.9
382.891	107.01
383.101	66.05
383.311	37.38
383.521	76.29
383.731	59.9
383.941	66.05
384.151	80.38
384.361	72.19
384.571	25.09
384.781	94.72
384.991	92.67
385.201	121.34
385.411	-24.06
385.621	168.45
385.831	78.33
386.041	121.34
386.251	98.81
386.461	66.05
386.671	47.62
386.881	80.38
387.091	39.42
387.301	164.35
387.511	82.43
387.72	96.77
387.93	131.58
388.14	98.81
388.35	111.1
388.56	92.67
388.769	78.33
388.979	102.91
389.189	49.66
389.399	59.9
389.609	59.9
389.818	80.38
390.028	98.81
390.238	45.57
390.447	70.14
390.657	137.73
390.867	43.52
391.076	78.33
391.286	51.71
391.496	70.14
391.705	131.58
391.915	104.96
392.125	39.42
392.334	88.57
392.544	113.15
392.753	64
392.963	57.86
393.172	96.77
393.382	53.76
393.591	195.07
393.801	72.19
394.01	111.1
394.22	127.49
394.429	47.62
394.639	107.01
394.848	107.01
395.058	145.92
395.267	49.66
395.477	74.24
395.686	104.96
395.895	66.05
396.105	90.62
396.314	156.16
396.524	92.67
396.733	125.44
396.942	107.01
397.152	100.86
397.361	80.38
397.57	145.92
397.78	94.72
397.989	270.84
398.198	129.53
398.407	111.1
398.617	123.39
398.826	123.39
399.035	119.29
399.244	143.87
399.453	-17.92
399.663	102.91
399.872	66.05
400.081	150.01
400.29	82.43
400.499	129.53
400.708	154.11
400.917	70.14
401.127	158.21
401.336	115.2
401.545	111.1
401.754	39.42
401.963	152.06
402.172	113.15
402.381	86.53
402.59	131.58
402.799	164.35
403.008	162.3
403.217	98.81
403.426	43.52
403.635	78.33
403.844	119.29
404.053	193.02
404.262	119.29
404.471	193.02
404.68	184.83
404.888	127.49
405.097	193.02
405.306	145.92
405.515	207.36
405.724	186.88
405.933	127.49
406.142	225.79
406.35	225.79
406.559	233.98
406.768	188.93
406.977	158.21
407.185	199.16
407.394	279.04
407.603	213.5
407.812	303.61
408.02	324.09
408.229	272.89
408.438	305.66
408.646	244.22
408.855	217.6
409.064	287.23
409.272	350.71
409.481	311.8
409.69	326.14
409.898	322.04
410.107	326.14
410.315	328.19
410.524	373.24
410.733	412.15
410.941	344.57
411.15	383.48
411.358	342.52
411.567	397.82
411.775	524.79
411.984	408.06
412.192	471.54
412.401	516.6
412.609	383.48
412.818	512.5
413.026	524.79
413.234	567.8
413.443	639.48
413.651	563.7
413.86	643.57
414.068	575.99
414.276	692.73
414.485	664.05
414.693	662.01
414.901	664.05
415.11	717.3
415.318	819.7
415.526	827.89
415.734	831.99
415.943	758.26
416.151	915.95
416.359	879.09
416.567	885.23
416.776	946.67
416.984	1057.26
417.192	1061.36
417.4	971.25
417.608	1014.26
417.817	1053.17
418.025	1145.33
418.233	1280.49
418.441	1214.96
418.649	1315.31
418.857	1323.5
419.065	1370.6
419.273	1358.32
419.481	1319.4
419.689	1559.02
419.897	1632.74
420.105	1565.16
420.313	1604.07
420.521	1593.83
420.729	1649.13
420.937	1712.61
421.145	1845.73
421.353	1835.49
421.561	1978.85
421.769	2003.43
421.977	2195.93
422.185	2089.44
422.393	2251.23
422.601	2367.96
422.809	2306.52
423.017	2353.63
423.224	2415.07
423.432	2580.95
423.64	2587.1
423.848	2943.44
424.056	2595.29
424.263	3084.75
424.471	2939.35
424.679	3097.04
424.887	3156.43
425.094	3267.02
425.302	3256.78
425.51	3297.74
425.718	3367.37
425.925	3520.97
426.133	3555.79
426.341	3832.26
426.548	4069.83
426.756	4116.93
426.964	4166.08
427.171	4293.05
427.379	4469.18
427.586	4469.18
427.794	4624.83
428.001	4821.43
428.209	5149.11
428.417	5065.14
428.624	5441.96
428.832	5327.28
429.039	5267.89
429.247	5282.22
429.454	5728.68
429.662	6224.29
429.869	5591.47
430.076	6199.71
430.284	5906.85
430.491	6316.45
430.699	6541.72
430.906	6789.53
431.114	6730.14
431.321	7039.38
431.528	7059.86
431.736	7481.74
431.943	7917.96
432.15	7645.58
432.358	7823.75
432.565	8159.62
432.772	8190.34
432.979	8579.45
433.187	8831.35
433.394	8849.78
433.601	9425.26
433.808	9214.32
434.016	9396.59
434.223	9623.92
434.43	10191.2
434.637	9912.68
434.844	10654.05
435.052	10846.55
435.259	10699.1
435.466	10871.13
435.673	10811.74
435.88	11573.58
436.087	12056.9
436.294	11915.59
436.501	11805
436.708	12114.25
436.915	12685.63
437.122	12966.2
437.329	13113.66
437.537	13586.74
437.743	13429.04
437.95	13543.73
438.157	14022.95
438.364	14795.04
438.571	14684.45
438.778	14823.71
438.985	16087.31
439.192	15386.9
439.399	16075.02
439.606	15597.84
439.813	16742.66
440.02	17522.93
440.227	17228.03
440.433	17006.84
440.64	17611
440.847	17598.71
441.054	18010.35
441.261	18972.89
441.467	18915.55
441.674	19323.1
441.881	20027.6
442.088	19994.83
442.294	19638.48
442.501	20220.11
442.708	20478.15
442.914	21422.27
443.121	22436.01
443.328	21719.22
443.534	23171.23
443.741	22556.84
443.948	22284.46
444.154	23777.43
444.361	24121.49
444.568	23896.21
444.774	24168.59
444.981	24115.34
445.187	25036.93
445.394	25739.38
445.6	25757.81
445.807	28153.94
446.013	26939.49
446.22	27562.08
446.426	28328.02
446.633	28471.37
446.839	29704.25
447.046	28801.1
447.252	29986.87
447.459	30269.49
447.665	29925.43
447.871	31186.98
448.078	32653.33
448.284	31100.97
448.491	32006.17
448.697	33085.45
448.903	33441.79
449.11	33845.24
449.316	33189.89
449.522	33955.83
449.728	34807.79
449.935	34965.48
450.141	34916.33
450.347	35674.08
450.553	34390
450.76	34947.05
450.966	36163.54
451.172	35661.79
451.378	36624.34
451.584	36098.01
451.791	37046.22
451.997	37023.69
452.203	37189.58
452.409	37590.98
452.615	36868.05
452.821	35569.63
453.027	35225.57
453.233	37183.43
453.44	35473.38
453.646	36202.46
453.852	36575.19
454.058	36515.79
454.264	35723.23
454.47	36212.7
454.676	35348.45
454.882	36782.03
455.088	33826.81
455.294	33914.87
455.5	34594.8
455.705	34932.71
455.911	33251.33
456.117	32882.7
456.323	32514.06
456.529	30871.59
456.735	32296.98
456.941	31047.72
457.147	30896.17
457.352	30132.28
457.558	29657.15
457.764	29642.81
457.97	29220.93
458.176	28489.81
458.381	28299.34
458.587	26880.1
458.793	27093.09
458.999	25751.67
459.204	27531.36
459.41	26927.21
459.616	25016.45
459.821	24991.87
460.027	25045.12
460.233	24557.71
460.438	23324.83
460.644	23711.89
460.85	22726.82
461.055	21833.91
461.261	22149.29
461.466	20508.87
461.672	19796.18
461.878	21287.1
462.083	19843.28
462.289	19648.72
462.494	19245.27
462.7	18272.49
462.905	18092.27
463.111	18501.86
463.316	18702.56
463.522	18340.07
463.727	18370.79
463.932	18204.91
464.138	18055.4
464.343	18059.5
464.549	17588.47
464.754	18088.17
464.959	18274.54
465.165	17971.44
465.37	17103.1
465.575	16867.58
465.781	17436.92
465.986	17529.08
466.191	16881.92
466.397	16724.22
466.602	15966.48
466.807	16306.44
467.012	16621.83
467.218	16494.85
467.423	16097.55
467.628	16154.89
467.833	17334.52
468.038	16509.19
468.244	15657.23
468.449	16781.57
468.654	16072.97
468.859	15800.59
469.064	15845.65
469.269	15081.75
469.474	15288.6
469.679	15427.86
469.885	14868.77
470.09	15180.06
470.295	15347.99
470.5	14965.02
470.705	14874.91
470.91	14563.62
471.115	14547.23
471.32	14846.24
471.525	14559.52
471.73	14221.61
471.935	14242.09
472.139	13660.46
472.344	14010.67
472.549	13691.18
472.754	13654.32
472.959	13420.85
473.164	13142.33
473.369	12984.63
473.574	13521.2
473.778	13375.8
473.983	13205.81
474.188	12818.75
474.393	12419.39
474.598	12837.18
474.802	12228.93
475.007	12429.63
475.212	12421.44
475.417	11759.95
475.621	11800.91
475.826	12046.66
476.031	11575.63
476.235	11602.25
476.44	11579.73
476.645	11276.63
476.849	11499.86
477.054	11266.39
477.259	11094.36
477.463	10799.45
477.668	10748.25
477.872	10887.51
478.077	10705.24
478.282	10449.25
478.486	10539.36
478.691	10426.72
478.895	10418.53
479.1	10248.55
479.304	10287.46
479.509	10131.81
479.713	10238.31
479.918	10187.11
480.122	9916.78
480.326	10080.61
480.531	9957.74
480.735	9959.78
480.94	9587.05
481.144	10193.25
481.348	9611.63
481.553	9718.12
481.757	9570.67
481.961	9689.45
482.166	9763.18
482.37	9785.71
482.574	9556.33
482.778	9673.07
482.983	9773.42
483.187	9685.36
483.391	9615.73
483.595	9697.64
483.8	9470.32
484.004	9558.38
484.208	9632.11
484.412	9611.63
484.616	9572.72
484.821	9677.16
485.025	9433.46
485.229	9765.23
485.433	9437.55
485.637	9611.63
485.841	9396.59
486.045	9466.22
486.249	9570.67
486.453	9509.23
486.657	9445.74
486.861	9513.33
487.065	9415.02
487.269	9714.03
487.473	9451.89
487.677	9605.49
487.881	9605.49
488.085	9531.76
488.289	9826.67
488.493	9517.42
488.697	9570.67
488.901	9544.05
489.105	9691.5
489.309	9754.99
489.512	9777.51
489.716	9634.16
489.92	9697.64
490.124	9802.09
490.328	9875.82
490.531	9869.67
490.735	9804.14
490.939	9949.54
491.143	9730.41
491.346	9957.74
491.55	10156.39
491.754	10193.25
491.958	10068.33
492.161	10131.81
492.365	10135.91
492.569	10000.74
492.772	9953.64
492.976	10334.56
493.18	10344.8
493.383	10565.98
493.587	10455.39
493.79	10547.55
493.994	10287.46
494.197	10658.14
494.401	10758.49
494.605	11012.44
494.808	10905.95
495.012	10901.85
495.215	11039.06
495.419	11170.13
495.622	10953.05
495.825	11348.31
496.029	11274.58
496.232	11649.36
496.436	11675.98
496.639	11872.59
496.843	11684.17
497.046	11962.7
497.249	12091.72
497.453	12167.49
497.656	12351.81
497.859	12489.03
498.063	12540.22
498.266	12785.98
498.469	12843.32
498.673	12884.28
498.876	13001.02
499.079	13103.42
499.282	13250.87
499.485	13556.02
499.689	13764.91
499.892	13861.16
500.095	14053.67
500.298	14074.15
500.501	14213.42
500.705	14651.68
500.908	14889.24
501.111	14723.36
501.314	14891.29
501.517	15229.21
501.72	15446.29
501.923	15253.78
502.126	16007.44
502.329	16017.68
502.532	16273.67
502.735	16210.18
502.938	16517.38
503.141	16752.9
503.344	16756.99
503.547	16871.68
503.75	17350.9
503.953	17418.49
504.156	17651.95
504.359	18153.71
504.562	18376.94
504.765	18739.43
504.968	18616.55
505.17	19214.55
505.373	18766.05
505.576	19607.76
505.779	19744.98
505.982	19652.82
506.185	20152.52
506.387	20320.46
506.59	20619.46
506.793	20857.03
506.996	20760.77
507.198	21405.88
507.401	21283
507.604	21883.06
507.807	22194.35
508.009	22542.5
508.212	22376.62
508.415	23122.08
508.617	23081.12
508.82	23273.63
509.022	23208.09
509.225	24043.67
509.428	24279.18
509.63	24627.34
509.833	24416.4
510.035	25497.72
510.238	25383.04
510.44	25616.51
510.643	25778.29
510.845	26220.66
511.048	26120.31
511.25	26554.47
511.453	26910.82
511.655	27928.66
511.858	27775.06
512.06	27725.91
512.262	28055.64
512.465	28454.99
512.667	28942.41
512.87	29186.11
513.072	29337.66
513.274	30011.45
513.477	30226.48
513.679	30492.72
513.881	31121.45
514.084	31180.84
514.286	31174.69
514.488	31361.06
514.69	32389.14
514.893	32501.78
515.095	32661.52
515.297	33245.19
515.499	33482.75
515.701	33853.44
515.904	33908.73
516.106	34553.84
516.308	35141.61
516.51	35385.32
516.712	35676.13
516.914	35952.6
517.116	36480.98
517.318	36532.18
517.52	36513.75
517.722	37177.29
517.925	37588.93
518.127	38434.74
518.329	37969.85
518.531	38504.37
518.733	38823.86
518.935	39548.84
519.136	39356.33
519.338	40189.85
519.54	40210.33
519.742	41037.71
519.944	41406.34
520.146	41619.33
520.348	41987.97
520.55	42227.58
520.752	42211.2
520.954	43581.29
521.155	43349.87
521.357	43706.21
521.559	43992.93
521.761	44834.64
521.963	44705.62
522.164	44986.19
522.366	45332.3
522.568	45719.37
522.77	45924.16
522.971	46417.72
523.173	45885.25
523.375	46825.27
523.576	46874.42
523.778	46763.83
523.98	47574.83
524.181	47894.31
524.383	47918.88
524.584	48561.95
524.786	48525.08
524.988	48449.31
525.189	49338.13
525.391	49360.65
525.592	49792.78
525.794	50126.6
525.995	50028.29
526.197	49839.88
526.398	50063.11
526.6	50583.29
526.801	50706.17
527.003	51361.52
527.204	50704.12
527.406	51437.3
527.607	51629.8
527.808	51633.9
528.01	51678.96
528.211	51795.69
528.412	52793.05
528.614	52414.18
528.815	52483.81
529.016	52924.12
529.218	52430.56
529.419	52932.31
529.62	52885.21
529.822	52682.46
530.023	52969.18
530.224	53450.45
530.425	53284.56
530.626	53221.08
530.828	53196.5
531.029	54025.93
531.23	53497.55
531.431	53403.35
531.632	53423.82
531.833	53737.16
532.035	54140.61
532.236	54255.3
532.437	54085.32
532.638	53874.38
532.839	54466.24
533.04	54759.1
533.241	53503.7
533.442	54818.49
533.643	54402.75
533.844	54562.5
534.045	54376.13
534.246	53972.68
534.447	54496.96
534.648	54621.89
534.849	54570.69
535.05	54238.92
535.251	54767.29
535.451	54398.66
535.652	54636.22
535.853	54464.19
536.054	54900.41
536.255	54920.89
536.456	54267.59
536.657	55590.58
536.857	54896.31
537.058	54531.78
537.259	54988.47
537.46	54668.99
537.66	54660.8
537.861	55068.34
538.062	54951.61
538.263	55293.62
538.463	54918.84
538.664	54595.26
538.865	55004.86
539.065	54949.56
539.266	54447.81
539.466	55074.49
539.667	54628.03
539.868	55193.27
540.068	55070.39
540.269	54677.18
540.469	54906.55
540.67	54517.44
540.87	54746.81
541.071	54597.31
541.271	55058.1
541.472	54810.3
541.672	54302.4
541.873	54396.61
542.073	54195.91
542.274	55004.86
542.474	54605.5
542.675	54109.89
542.875	55232.18
543.075	55398.07
543.276	54230.72
543.476	55035.58
543.676	54486.72
543.877	54974.14
544.077	54795.96
544.277	54427.33
544.478	54558.4
544.678	54986.42
544.878	54732.48
545.078	54959.8
545.279	54189.77
545.479	54562.5
545.679	54998.71
545.879	55054.01
546.079	54787.77
546.28	54875.83
546.48	54283.97
546.68	54810.3
546.88	54580.93
547.08	54742.72
547.28	54730.43
547.48	54081.22
547.68	54687.42
547.88	54419.14
548.081	54998.71
548.281	54800.06
548.481	54578.88
548.681	54984.38
548.881	54165.19
549.081	54109.89
549.28	54353.6
549.48	54456
549.68	54490.82
549.88	54888.12
550.08	54222.53
550.28	54832.83
550.48	54781.63
550.68	54570.69
550.88	54625.98
551.08	54275.78
551.279	54568.64
551.479	54001.35
551.679	54849.21
551.879	54095.56
552.079	54628.03
552.278	54390.47
552.478	54275.78
552.678	54232.77
552.878	54443.71
553.077	54478.53
553.277	54243.01
553.477	54574.78
553.676	54302.4
553.876	54044.36
554.076	54181.57
554.275	53927.63
554.475	53493.46
554.674	54130.37
554.874	54439.62
555.074	53694.16
555.273	53651.15
555.473	54468.29
555.672	53188.31
555.872	53427.92
556.071	53782.22
556.271	53884.62
556.47	53722.83
556.67	53309.14
556.869	53466.83
557.068	53561.04
557.268	52956.89
557.467	53212.88
557.667	53237.46
557.866	53348.05
558.065	53446.35
558.265	53223.12
558.464	53040.85
558.663	53245.65
558.863	52793.05
559.062	53460.69
559.261	52682.46
559.461	53681.87
559.66	52690.65
559.859	52682.46
560.058	52535.01
560.258	52264.67
560.457	52106.98
560.656	52653.79
560.855	52430.56
561.054	52502.24
561.253	52319.97
561.453	52377.31
561.652	52405.98
561.851	52389.6
562.05	52240.1
562.249	52131.56
562.448	52090.6
562.647	52170.47
562.846	51941.1
563.045	52111.08
563.244	51658.48
563.443	52317.92
563.642	50892.54
563.841	51949.29
564.04	51386.1
564.239	51930.86
564.438	51267.31
564.637	51181.3
564.836	51668.72
565.035	50884.34
565.234	51504.88
565.432	51033.85
565.631	50546.43
565.83	51175.16
566.029	51083
566.228	51109.62
566.427	50812.66
566.625	50521.85
566.824	49989.38
567.023	51111.67
567.222	50028.29
567.42	50482.94
567.619	50001.67
567.818	49991.43
568.016	49893.13
568.215	50489.09
568.414	49991.43
568.612	50403.07
568.811	49938.18
569.01	49661.71
569.208	48953.11
569.407	49725.19
569.605	49094.42
569.804	49520.4
570.002	49012.5
570.201	49452.81
570.4	49114.9
570.598	48889.62
570.797	49000.21
570.995	48799.51
571.193	48406.3
571.392	48867.09
571.59	48496.41
571.789	48594.71
571.987	48164.64
572.186	48394.01
572.384	48207.65
572.582	48041.76
572.781	47669.03
572.979	47382.32
573.177	47564.59
573.376	48277.28
573.574	47247.15
573.772	47550.25
573.971	46960.44
574.169	47005.49
574.367	46604.09
574.565	47079.22
574.763	46667.58
574.962	46595.9
575.16	46204.73
575.358	46597.94
575.556	45670.22
575.754	46745.4
575.952	45498.19
576.151	46458.68
576.349	45606.73
576.547	45827.91
576.745	45741.89
576.943	45383.5
577.141	45389.64
577.339	45293.39
577.537	45524.81
577.735	45031.25
577.933	44576.6
578.131	45346.64
578.329	44635.99
578.527	44107.61
578.725	44414.81
578.923	44443.48
579.121	44099.42
579.319	44365.66
579.516	44298.08
579.714	43587.43
579.912	43792.23
580.11	43894.63
580.308	43591.53
580.506	43460.46
580.704	42970.99
580.901	43734.88
581.099	43597.67
581.297	42663.8
581.495	42628.98
581.692	43032.43
581.89	42878.83
582.088	42913.65
582.285	42377.08
582.483	43120.49
582.681	42442.62
582.878	41869.19
583.076	41756.55
583.274	42268.54
583.471	41840.51
583.669	41947.01
583.866	41287.56
584.064	41772.93
584.262	41533.32
584.459	41795.46
584.657	41305.99
584.854	41676.68
585.052	40540.05
585.249	40996.75
585.447	41226.12
585.644	40566.68
585.841	40531.86
586.039	41217.93
586.236	40089.5
586.434	40097.69
586.631	40003.49
586.828	40247.19
587.026	39925.66
587.223	40036.25
587.42	39706.53
587.618	39579.56
587.815	39440.29
588.012	39198.63
588.21	39237.55
588.407	39487.4
588.604	39294.89
588.801	38850.48
588.999	39264.17
589.196	38971.31
589.393	39188.39
589.59	38309.82
589.787	38393.78
589.984	38318.01
590.182	37988.28
590.379	38301.62
590.576	37732.29
590.773	38078.39
590.97	37838.78
591.167	37676.99
591.364	37314.5
591.561	37908.41
591.758	37558.21
591.955	37226.44
592.152	37425.09
592.349	37181.38
592.546	36966.35
592.743	37117.9
592.94	36552.66
593.137	37160.9
593.334	36544.47
593.531	36388.82
593.727	36730.83
593.924	36513.75
594.121	35819.49
594.318	36413.4
594.515	35811.29
594.712	36028.38
594.908	35778.53
595.105	36452.31
595.302	35526.63
595.499	35610.59
595.696	35528.67
595.892	35364.84
596.089	35641.31
596.286	35381.22
596.482	34967.53
596.679	35129.32
596.876	35338.21
597.072	34973.67
597.269	34791.41
597.466	34564.08
597.662	34543.6
597.859	34600.94
598.055	34523.12
598.252	34533.36
598.448	34254.84
598.645	34168.82
598.841	33898.49
599.038	33970.17
599.234	33787.9
599.431	33824.76
599.627	33392.64
599.824	33912.83
600.02	33452.03
600.217	33792
600.413	32804.88
600.609	32993.29
600.806	32737.29
601.002	32876.55
601.198	32735.24
601.395	33013.77
601.591	32729.1
601.787	32778.25
601.984	32460.82
602.18	32659.47
602.376	31916.06
602.572	32174.1
602.769	32120.85
602.965	31701.02
603.161	32280.6
603.357	31528.99
603.553	31559.71
603.75	31686.68
603.946	30988.33
604.142	31346.72
604.338	30990.38
604.534	31295.52
604.73	31152.16
604.926	30677.04
605.122	30904.36
605.318	30912.55
605.514	30246.96
605.71	30361.65
605.906	30355.5
606.102	30388.27
606.298	30611.5
606.494	30103.6
606.69	30081.08
606.886	30079.03
607.082	29493.31
607.278	29868.09
607.474	29376.58
607.67	29759.55
607.866	29257.79
608.062	29880.38
608.257	29040.71
608.453	29292.61
608.649	29425.73
608.845	28680.27
609.041	28917.83
609.236	29022.28
609.432	28743.75
609.628	28835.91
609.824	28430.41
610.019	28532.81
610.215	28561.48
610.411	28520.52
610.606	28059.73
610.802	28581.96
610.998	28213.33
611.193	28131.41
611.389	27834.46
611.584	28096.6
611.78	27607.13
611.976	27953.24
612.171	28057.68
612.367	27375.71
612.562	27594.84
612.758	27457.63
612.953	27316.32
613.149	27535.45
613.344	26951.78
613.539	27480.16
613.735	26902.63
613.93	27344.99
614.126	26998.88
614.321	27236.45
614.517	26794.09
614.712	26716.26
614.907	26501.23
615.103	26763.37
615.298	26433.64
615.493	26861.67
615.688	26257.52
615.884	26667.11
616.079	26265.71
616.274	26335.34
616.47	26374.25
616.665	26122.35
616.86	26302.57
617.055	26024.05
617.25	25950.32
617.445	25907.32
617.641	25573.5
617.836	25690.23
618.031	25256.06
618.226	25630.84
618.421	25362.56
618.616	25497.72
618.811	24742.02
619.006	25354.37
619.201	24723.59
619.396	25030.79
619.591	24701.06
619.786	24977.54
619.981	24457.35
620.176	24557.71
620.371	23918.74
620.566	24438.92
620.761	24225.93
620.956	24252.56
621.151	23494.81
621.346	24088.72
621.541	23695.51
621.735	23881.88
621.93	23484.57
622.125	23230.62
622.32	23089.31
622.515	23126.18
622.709	23120.03
622.904	22880.42
623.099	22726.82
623.294	22692.01
623.488	22626.47
623.683	22481.06
623.878	22235.31
624.072	22583.46
624.267	22169.77
624.462	21811.38
624.656	21813.43
624.851	21799.09
625.046	21639.35
625.24	21594.29
625.435	21289.15
625.629	21545.14
625.824	21121.21
626.018	21092.54
626.213	20701.38
626.407	20963.52
626.602	20504.78
626.796	20795.59
626.991	20447.43
627.185	20349.13
627.38	20291.79
627.574	20170.96
627.768	19857.62
627.963	20043.98
628.157	19673.3
628.352	20062.41
628.546	19396.82
628.74	19708.12
628.935	19347.67
629.129	19591.38
629.323	19149.02
629.517	19218.65
629.712	18972.89
629.906	18944.22
630.1	18510.05
630.294	18723.04
630.489	18467.05
630.683	18639.08
630.877	18508.01
631.071	18094.32
631.265	18419.94
631.459	18161.9
631.653	18073.84
631.848	18010.35
632.042	18065.64
632.236	17934.57
632.43	17641.71
632.624	17524.98
632.818	17469.69
633.012	17338.62
633.206	17160.44
633.4	17481.97
633.594	17064.19
633.788	17152.25
633.982	17144.06
634.176	17039.61
634.369	17021.18
634.563	16623.87
634.757	16840.96
634.951	16871.68
635.145	16636.16
635.339	16619.78
635.533	16548.1
635.726	16230.66
635.92	16105.74
636.114	16245
636.308	16161.03
636.501	16062.73
636.695	15970.57
636.889	15665.42
637.083	15714.58
637.276	15538.45
637.47	15530.26
637.664	15374.61
637.857	15454.48
638.051	15616.27
638.244	15337.75
638.438	15376.66
638.632	15163.67
638.825	15005.98
639.019	14799.13
639.212	14825.76
639.406	14651.68
639.599	14590.24
639.793	14850.33
639.986	14407.97
640.18	14612.77
640.373	14582.05
640.567	14326.05
640.76	14328.1
640.954	14055.72
641.147	14209.32
641.34	13924.65
641.534	13908.27
641.727	13910.32
641.92	13998.38
642.114	13687.09
642.307	13717.81
642.5	13670.7
642.694	13273.4
642.887	13306.16
643.08	13650.22
643.273	13525.3
643.467	13318.45
643.66	13175.09
643.853	13052.22
644.046	12968.25
644.239	13326.64
644.432	12896.57
644.626	12771.65
644.819	12587.33
645.012	12620.1
645.205	12849.47
645.398	12540.22
645.591	12235.08
645.784	12525.89
645.977	12523.84
646.17	12415.3
646.363	12243.27
646.556	11956.55
646.749	12198.21
646.942	12132.68
647.135	11911.5
647.328	11915.59
647.521	11813.2
647.714	11419.99
647.907	11678.03
648.099	11477.33
648.292	11714.89
648.485	11419.99
648.678	11319.64
648.871	11157.85
649.064	11231.57
649.256	11301.2
649.449	10957.14
649.642	10989.91
649.835	10948.95
650.027	10864.99
650.22	11086.17
650.413	10781.02
650.605	10686.81
650.798	10547.55
650.991	10443.1
651.183	10477.92
651.376	10377.57
651.568	10328.42
651.761	10064.23
651.954	10299.75
652.146	10197.35
652.339	10154.34
652.531	9924.97
652.724	9910.63
652.916	9703.79
653.109	9744.75
653.301	9689.45
653.494	9668.97
653.686	9646.44
653.879	9834.86
654.071	9546.09
654.263	9501.04
654.456	9421.17
654.648	9316.72
654.84	9240.95
655.033	9163.12
655.225	9345.39
655.417	9122.16
655.61	8989.05
655.802	9040.25
655.994	8980.85
656.186	8980.85
656.379	8903.03
656.571	8886.65
656.763	8905.08
656.955	8515.97
657.148	8487.29
657.34	8483.2
657.532	8325.5
657.724	8335.74
657.916	8212.87
658.108	8206.72
658.3	8221.06
658.492	8149.38
658.684	8204.67
658.876	8147.33
659.068	8067.46
659.26	7975.3
659.452	7877
659.644	7827.85
659.836	7778.7
660.028	7666.06
660.22	7487.89
660.412	7350.67
660.604	7520.65
660.796	7657.87
660.988	7420.3
661.18	7430.54
661.372	7256.47
661.563	7504.27
661.755	7051.67
661.947	7342.48
662.139	7059.86
662.331	6988.18
662.522	6953.37
662.714	6949.27
662.906	6844.82
663.097	6795.67
663.289	6726.04
663.481	6697.37
663.673	6660.51
663.864	6691.23
664.056	6691.23
664.247	6594.97
664.439	6353.31
664.631	6513.05
664.822	6506.91
665.014	6367.65
665.205	6453.66
665.397	6320.54
665.588	6224.29
665.78	6255.01
665.971	6103.46
666.163	6291.87
666.354	6128.03
666.546	6240.67
666.737	5964.2
666.929	5986.72
667.12	5888.42
667.311	5988.77
667.503	5812.65
667.694	5681.58
667.885	5804.46
668.077	5865.89
668.268	5740.97
668.459	5632.43
668.651	5616.04
668.842	5644.71
669.033	5577.13
669.224	5624.23
669.416	5634.47
669.607	5573.03
669.798	5460.4
669.989	5499.31
670.18	5542.32
670.371	5276.08
670.563	5523.88
670.754	5386.67
670.945	5235.12
671.136	5276.08
671.327	5405.1
671.518	5177.78
671.709	5308.85
671.9	5149.11
672.091	5028.28
672.282	5095.86
672.473	5112.24
672.664	5083.57
672.855	4981.17
673.046	4958.64
673.237	5069.23
673.428	5022.13
673.619	4987.32
673.809	4856.25
674	4886.97
674.191	4911.54
674.382	4837.81
674.573	4852.15
674.764	4952.5
674.954	4766.14
675.145	4827.57
675.336	4759.99
675.527	4684.22
675.717	4831.67
675.908	4477.37
676.099	4688.31
676.289	4694.46
676.48	4682.17
676.671	4495.8
676.861	4524.47
677.052	4559.29
677.243	4551.1
677.433	4653.5
677.624	4458.94
677.814	4381.12
678.005	4415.93
678.195	4577.72
678.386	4518.33
678.576	4307.39
678.767	4411.84
678.957	4391.36
679.148	4516.28
679.338	4393.4
679.529	4444.6
679.719	4266.43
679.909	4256.19
680.1	4379.07
680.29	4352.45
680.481	4299.2
680.671	4104.64
680.861	4157.89
681.052	4198.85
681.242	4239.81
681.432	4157.89
681.622	4184.51
681.813	4088.26
682.003	4006.34
682.193	4032.96
682.383	4213.18
682.573	4114.88
682.764	4039.11
682.954	4172.22
683.144	4172.22
683.334	4045.25
683.524	4153.79
683.714	4125.12
683.904	4012.48
684.094	4051.39
684.284	4135.36
684.474	4028.87
684.664	3994.05
684.854	3914.18
685.044	4022.72
685.234	3879.36
685.424	3922.37
685.614	3930.56
685.804	3914.18
685.994	3957.19
686.184	4028.87
686.374	3965.38
686.564	3883.46
686.753	3879.36
686.943	3797.45
687.133	3895.75
687.323	3774.92
687.513	3928.52
687.702	3889.6
687.892	3774.92
688.082	3930.56
688.272	3856.84
688.461	3944.9
688.651	3768.77
688.841	3875.27
689.03	3774.92
689.22	3881.41
689.41	3811.78
689.599	3774.92
689.789	3762.63
689.979	3817.93
690.168	3910.08
690.358	3649.99
690.547	3727.82
690.737	3826.12
690.926	3807.69
691.116	3693
691.305	3766.73
691.495	3742.15
691.684	3701.19
691.874	3918.28
692.063	3633.61
692.252	3721.67
692.442	3809.73
692.631	3709.38
692.82	3832.26
693.01	3703.24
693.199	3717.58
693.388	3623.37
693.578	3801.54
693.767	3639.75
693.956	3688.9
694.146	3594.7
694.335	3568.07
694.524	3670.47
694.713	3686.86
694.902	3633.61
695.092	3725.77
695.281	3621.32
695.47	3658.18
695.659	3600.84
695.848	3643.85
696.037	3719.62
696.226	3637.7
696.415	3664.33
696.604	3672.52
696.793	3652.04
696.982	3520.97
697.171	3609.03
697.36	3758.53
697.549	3631.56
697.738	3690.95
697.927	3461.58
698.116	3623.37
698.305	3459.53
698.494	3555.79
698.683	3422.67
698.872	3414.48
699.061	3604.94
699.25	3690.95
699.438	3443.15
699.627	3570.12
699.816	3494.35
700.005	3629.51
700.193	3543.5
700.382	3418.57
700.571	3541.45
700.76	3518.92
700.948	3480.01
701.137	3463.63
701.326	3437
701.514	3355.08
701.703	3463.63
701.892	3404.24
702.08	3490.25
702.269	3371.47
702.457	3314.13
702.646	3447.24
702.834	3381.71
703.023	3367.37
703.212	3328.46
703.4	3260.88
703.589	3287.5
703.777	3371.47
703.965	3256.78
704.154	3217.87
704.342	3109.33
704.531	3244.49
704.719	3283.41
704.907	3183.06
705.096	3142.1
705.284	3262.93
705.472	3193.3
705.661	3101.14
705.849	3191.25
706.037	3094.99
706.226	3174.86
706.414	3140.05
706.602	3113.42
706.79	2998.74
706.979	3152.34
707.167	3203.54
707.355	3078.61
707.543	3060.18
707.731	2965.97
707.919	3086.8
708.107	3023.31
708.296	2982.35
708.484	2873.81
708.672	2929.11
708.86	3037.65
709.048	2972.11
709.236	2933.2
709.424	2947.54
709.612	2976.21
709.8	2882
709.988	2857.43
710.176	2705.88
710.364	2767.32
710.551	2859.48
710.739	2828.76
710.927	2857.43
711.115	2750.93
711.303	2779.61
711.491	2816.47
711.679	2791.89
711.866	2746.84
712.054	2599.38
712.242	2802.13
712.43	2775.51
712.617	2716.12
712.805	2658.78
712.993	2697.69
713.181	2595.29
713.368	2568.66
713.556	2660.82
713.744	2609.62
713.931	2621.91
714.119	2634.2
714.306	2623.96
714.494	2476.51
714.682	2544.09
714.869	2548.19
715.057	2542.04
715.244	2576.86
715.432	2662.87
715.619	2464.22
715.807	2376.16
715.994	2593.24
716.182	2339.29
716.369	2445.79
716.556	2415.07
716.744	2331.1
716.931	2441.69
717.119	2533.85
717.306	2382.3
717.493	2456.03
717.681	2484.7
717.868	2343.39
718.055	2396.64
718.242	2433.5
718.43	2208.22
718.617	2398.68
718.804	2212.32
718.991	2290.14
719.179	2339.29
719.366	2314.72
719.553	2218.46
719.74	2306.52
719.927	2195.93
720.114	2212.32
720.301	2179.55
720.488	2054.62
720.676	2077.15
720.863	2146.78
721.05	2083.3
721.237	2157.02
721.424	2093.54
721.611	2150.88
721.798	2105.82
721.985	1987.04
722.172	2228.7
722.358	2083.3
722.545	1933.79
722.732	1989.09
722.919	2089.44
723.106	2036.19
723.293	1933.79
723.48	1915.36
723.667	1901.03
723.853	1978.85
724.04	1962.47
724.227	2005.47
724.414	1882.6
724.6	1858.02
724.787	1907.17
724.974	1960.42
725.161	1974.75
725.347	1901.03
725.534	1810.92
725.72	1847.78
725.907	1817.06
726.094	1905.12
726.28	1737.19
726.467	1870.31
726.653	1849.83
726.84	1802.72
727.027	1847.78
727.213	1825.25
727.4	1839.59
727.586	1735.14
727.773	1741.29
727.959	1827.3
728.145	1788.39
728.332	1798.63
728.518	1729
728.705	1745.38
728.891	1659.37
729.077	1649.13
729.264	1645.03
729.45	1677.8
729.636	1745.38
729.823	1618.41
730.009	1683.94
730.195	1671.65
730.382	1618.41
730.568	1647.08
730.754	1622.5
730.94	1634.79
731.126	1700.33
731.313	1663.46
731.499	1622.5
731.685	1616.36
731.871	1538.54
732.057	1634.79
732.243	1587.69
732.429	1636.84
732.615	1546.73
732.801	1634.79
732.987	1649.13
733.173	1458.67
733.359	1544.68
733.545	1464.81
733.731	1499.63
733.917	1473
734.103	1591.78
734.289	1561.06
734.475	1540.58
734.661	1593.83
734.847	1485.29
735.033	1526.25
735.219	1483.24
735.404	1341.93
735.59	1382.89
735.776	1417.71
735.962	1405.42
736.148	1409.51
736.333	1456.62
736.519	1417.71
736.705	1425.9
736.89	1423.85
737.076	1460.71
737.262	1432.04
737.447	1413.61
737.633	1370.6
737.819	1380.84
738.004	1448.43
738.19	1501.67
738.375	1319.4
738.561	1395.18
738.747	1380.84
738.932	1231.34
739.118	1526.25
739.303	1186.29
739.489	1307.12
739.674	1292.78
739.859	1313.26
740.045	1311.21
740.23	1270.25
740.416	1292.78
740.601	1229.29
740.786	1282.54
740.972	1137.13
741.157	1235.44
741.342	1178.09
741.528	1284.59
741.713	1186.29
741.898	1227.25
742.084	1210.86
742.269	1180.14
742.454	1251.82
742.639	1149.42
742.824	1274.35
743.01	1094.13
743.195	1114.61
743.38	1184.24
743.565	1180.14
743.75	1135.09
743.935	1161.71
744.12	1120.75
744.305	1145.33
744.49	1071.6
744.675	1167.85
744.86	1116.65
745.045	1137.13
745.23	1110.51
745.415	1202.67
745.6	1016.3
745.785	1145.33
745.97	1102.32
746.155	1047.02
746.34	1083.89
746.525	1069.55
746.71	1069.55
746.895	1057.26
747.079	1090.03
747.264	999.92
747.449	997.87
747.634	1065.46
747.819	1063.41
748.003	963.06
748.188	965.11
748.373	1024.5
748.557	971.25
748.742	1028.59
748.927	1012.21
749.111	940.53
749.296	999.92
749.481	1110.51
749.665	958.96
749.85	895.47
750.034	965.11
750.219	887.28
750.404	938.48
750.588	958.96
750.773	909.81
750.957	948.72
751.141	932.34
751.326	864.75
751.51	856.56
751.695	866.8
751.879	965.11
752.064	924.15
752.248	989.68
752.432	891.38
752.617	784.88
752.801	850.42
752.985	823.8
753.17	807.41
753.354	846.32
753.538	893.43
753.722	809.46
753.907	862.71
754.091	823.8
754.275	858.61
754.459	762.36
754.643	778.74
754.828	711.16
755.012	756.21
755.196	711.16
755.38	791.03
755.564	799.22
755.748	805.36
755.932	776.69
756.116	721.4
756.3	762.36
756.484	809.46
756.668	766.45
756.852	739.83
757.036	776.69
757.22	766.45
757.404	645.62
757.588	834.04
757.772	766.45
757.956	754.16
758.14	719.35
758.323	631.29
758.507	690.68
758.691	653.81
758.875	678.39
759.059	643.57
759.242	616.95
759.426	676.34
759.61	700.92
759.794	666.1
759.977	678.39
760.161	727.54
760.345	635.38
760.528	614.9
760.712	653.81
760.895	666.1
761.079	573.94
761.263	647.67
761.446	684.53
761.63	729.59
761.813	635.38
761.997	629.24
762.18	565.75
762.364	596.47
762.547	590.33
762.731	586.23
762.914	651.77
763.098	588.28
763.281	555.51
763.464	588.28
763.648	532.98
763.831	627.19
764.015	545.27
764.198	520.7
764.381	557.56
764.564	621.05
764.748	571.9
764.931	596.47
765.114	535.03
765.297	614.9
765.481	659.96
765.664	633.33
765.847	602.61
766.03	643.57
766.213	551.42
766.397	512.5
766.58	557.56
766.763	594.42
766.946	539.13
767.129	625.14
767.312	539.13
767.495	473.59
767.678	578.04
767.861	530.94
768.044	578.04
768.227	629.24
768.41	516.6
768.593	598.52
768.776	551.42
768.959	543.22
769.142	590.33
769.324	659.96
769.507	498.17
769.69	549.37
769.873	502.26
770.056	512.5
770.239	500.22
770.421	563.7
770.604	584.18
770.787	539.13
770.97	553.46
771.152	561.66
771.335	586.23
771.518	555.51
771.7	528.89
771.883	537.08
772.066	571.9
772.248	526.84
772.431	522.74
772.613	549.37
772.796	463.35
772.978	494.07
773.161	537.08
773.343	465.4
773.526	555.51
773.708	446.97
773.891	463.35
774.073	528.89
774.256	537.08
774.438	573.94
774.621	410.11
774.803	440.83
774.985	502.26
775.168	569.85
775.35	416.25
775.532	483.83
775.715	473.59
775.897	541.18
776.079	422.39
776.261	479.74
776.444	438.78
776.626	479.74
776.808	440.83
776.99	369.15
777.173	467.45
777.355	489.98
777.537	463.35
777.719	383.48
777.901	363
778.083	446.97
778.265	408.06
778.447	438.78
778.629	356.86
778.811	393.72
778.993	438.78
779.175	430.59
779.357	381.43
779.539	373.24
779.721	416.25
779.903	338.43
780.085	365.05
780.267	395.77
780.449	414.2
780.631	381.43
780.812	399.87
780.994	401.91
781.176	352.76
781.358	412.15
781.54	369.15
781.721	428.54
781.903	313.85
782.085	354.81
782.267	315.9
782.448	287.23
782.63	348.67
782.812	418.3
782.993	340.47
783.175	363
783.357	303.61
783.538	424.44
783.72	326.14
783.901	334.33
784.083	346.62
784.264	383.48
784.446	350.71
784.627	342.52
784.809	342.52
784.99	320
785.172	311.8
785.353	287.23
785.535	291.32
785.716	367.1
785.897	311.8
786.079	320
786.26	260.6
786.441	354.81
786.623	264.7
786.804	258.56
786.985	303.61
787.167	313.85
787.348	281.08
787.529	281.08
787.71	336.38
787.891	233.98
788.073	309.76
788.254	223.74
788.435	299.52
788.616	391.67
788.797	258.56
788.978	281.08
789.159	229.88
789.34	309.76
789.522	295.42
789.703	264.7
789.884	256.51
790.065	238.08
790.246	211.45
790.427	274.94
790.607	195.07
790.788	311.8
790.969	281.08
791.15	283.13
791.331	221.69
791.512	205.31
791.693	270.84
791.874	256.51
792.054	274.94
792.235	317.95
792.416	225.79
792.597	219.64
792.778	244.22
792.958	236.03
793.139	229.88
793.32	203.26
793.5	246.27
793.681	231.93
793.862	227.84
794.042	195.07
794.223	238.08
794.404	203.26
794.584	238.08
794.765	184.83
794.945	96.77
795.126	281.08
795.306	170.49
795.487	231.93
795.667	233.98
795.848	236.03
796.028	168.45
796.209	287.23
796.389	207.36
796.57	154.11
796.75	203.26
796.93	227.84
797.111	201.21
797.291	160.25
797.471	174.59
797.652	174.59
797.832	182.78
798.012	180.73
798.192	207.36
798.373	182.78
798.553	211.45
798.733	162.3
798.913	209.4
799.093	213.5
799.274	207.36
799.454	207.36
799.634	258.56
799.814	160.25
799.994	145.92
800.174	188.93
800.354	137.73
800.534	188.93
800.714	184.83
800.894	176.64
801.074	172.54
801.254	102.91
801.434	227.84
801.614	197.12
801.794	152.06
801.974	410.11
802.154	152.06
802.334	182.78
802.514	152.06
802.693	178.69
802.873	170.49
803.053	129.53
803.233	145.92
803.413	209.4
803.592	102.91
803.772	92.67
803.952	123.39
804.131	94.72
804.311	80.38
804.491	139.77
804.67	147.97
804.85	78.33
805.03	203.26
805.209	125.44
805.389	152.06
805.568	68.09
805.748	121.34
805.928	188.93
806.107	197.12
806.287	207.36
806.466	115.2
806.646	84.48
806.825	150.01
807.004	72.19
807.184	133.63
807.363	162.3
807.543	150.01
807.722	143.87
807.901	154.11
808.081	160.25
808.26	125.44
808.439	147.97
808.619	162.3
808.798	123.39
808.977	127.49
809.156	170.49
809.336	199.16
809.515	121.34
809.694	115.2
809.873	135.68
810.052	199.16
810.231	100.86
810.411	76.29
810.59	111.1
810.769	100.86
810.948	158.21
811.127	80.38
811.306	168.45
811.485	147.97
811.664	135.68
811.843	154.11
812.022	170.49
812.201	156.16
812.38	102.91
812.559	129.53
812.737	102.91
812.916	29.18
813.095	100.86
813.274	141.82
813.453	203.26
813.632	107.01
813.811	121.34
813.989	127.49
814.168	80.38
814.347	53.76
814.526	121.34
814.704	43.52
814.883	98.81
815.062	115.2
815.24	174.59
815.419	37.38
815.598	107.01
815.776	115.2
815.955	94.72
816.133	82.43
816.312	102.91
816.49	74.24
816.669	139.77
816.847	45.57
817.026	86.53
817.204	111.1
817.383	80.38
817.561	100.86
817.74	107.01
817.918	70.14
818.097	139.77
818.275	49.66
818.453	39.42
818.632	88.57
818.81	145.92
818.988	78.33
819.167	133.63
819.345	123.39
819.523	47.62
819.701	43.52
819.879	145.92
820.058	164.35
820.236	49.66
820.414	123.39
820.592	125.44
820.77	80.38
820.948	88.57
821.127	68.09
821.305	156.16
821.483	82.43
821.661	123.39
821.839	100.86
822.017	35.33
822.195	51.71
822.373	111.1
822.551	-3.58
822.729	86.53
822.907	143.87
823.085	41.47
823.262	119.29
823.44	102.91
823.618	82.43
823.796	27.14
823.974	94.72
824.152	45.57
824.329	125.44
824.507	16.9
824.685	84.48
824.863	31.23
825.04	45.57
825.218	49.66
825.396	61.95
825.574	88.57
825.751	78.33
825.929	92.67
826.107	66.05
826.284	61.95
826.462	88.57
826.639	129.53
826.817	68.09
826.994	43.52
827.172	49.66
827.349	123.39
827.527	47.62
827.704	92.67
827.882	31.23
828.059	51.71
828.237	39.42
828.414	104.96
828.591	80.38
828.769	98.81
828.946	156.16
829.124	64
829.301	98.81
829.478	39.42
829.655	57.86
829.833	78.33
830.01	14.85
830.187	70.14
830.364	45.57
830.542	113.15
830.719	84.48
830.896	51.71
831.073	31.23
831.25	74.24
831.427	47.62
831.604	64
831.782	86.53
831.959	92.67
832.136	117.25
832.313	78.33
832.49	78.33
832.667	76.29
832.844	55.81
833.021	78.33
833.198	70.14
833.374	102.91
833.551	59.9
833.728	74.24
833.905	55.81
834.082	66.05
834.259	37.38
834.436	33.28
834.612	-28.16
834.789	55.81
834.966	-11.78
835.143	57.86
835.319	-30.21
835.496	113.15
835.673	94.72
835.85	64
836.026	82.43
836.203	37.38
836.38	39.42
836.556	45.57
836.733	51.71
836.909	82.43
837.086	78.33
837.262	80.38
837.439	37.38
837.616	27.14
837.792	113.15
837.968	82.43
838.145	45.57
838.321	20.99
838.498	53.76
838.674	94.72
838.851	10.75
839.027	41.47
839.203	82.43
839.38	96.77
839.556	57.86
839.732	23.04
839.909	37.38
840.085	53.76
840.261	68.09
840.437	55.81
840.614	-1.54
840.79	53.76
840.966	33.28
841.142	82.43
841.318	35.33
841.494	25.09
841.671	55.81
841.847	61.95
842.023	102.91
842.199	86.53
842.375	-9.73
842.551	113.15
842.727	-15.87
842.903	109.05
843.079	6.66
843.255	61.95
843.431	20.99
843.607	119.29
843.783	-15.87
843.959	49.66
844.134	-48.64
844.31	84.48
844.486	16.9
844.662	-7.68
844.838	72.19
845.013	70.14
845.189	66.05
845.365	45.57
845.541	47.62
845.716	16.9
845.892	27.14
846.068	-40.45
846.244	45.57
846.419	29.18
846.595	-13.82
846.77	4.61
846.946	29.18
847.122	-30.21
847.297	94.72
847.473	107.01
847.648	59.9
847.824	2.56
847.999	29.18
848.175	59.9
848.35	61.95
848.526	98.81
848.701	59.9
848.876	53.76
849.052	102.91
849.227	43.52
849.403	43.52
849.578	45.57
849.753	8.7
849.929	104.96
850.104	-50.69
850.279	51.71
850.454	76.29
850.63	45.57
850.805	53.76
850.98	0.51
851.155	78.33
851.33	8.7
851.505	111.1
851.681	57.86
851.856	6.66
852.031	-1.54
852.206	78.33
852.381	31.23
852.556	49.66
852.731	25.09
852.906	33.28
853.081	53.76
853.256	-11.78
853.431	-9.73
853.606	12.8
853.781	41.47
853.956	80.38
854.131	98.81
854.305	-38.4
854.48	12.8
854.655	-42.5
854.83	33.28
855.005	-32.26
855.18	33.28
855.354	70.14
855.529	-1.54
855.704	2.56
855.879	41.47
856.053	2.56
856.228	-1.54
856.403	23.04
856.577	20.99
856.752	35.33
856.926	14.85
857.101	-19.97
857.276	64
857.45	4.61
857.625	27.14
857.799	41.47
857.974	-9.73
858.148	27.14
858.323	53.76
858.497	35.33
858.672	86.53
858.846	-22.02
859.02	6.66
859.195	90.62
859.369	61.95
859.543	33.28
859.718	20.99
859.892	23.04
860.066	45.57
860.241	6.66
860.415	10.75
860.589	31.23
860.763	72.19
860.938	86.53
861.112	41.47
861.286	33.28
861.46	64
861.634	20.99
861.808	64
861.982	76.29
862.157	8.7
862.331	45.57
862.505	76.29
862.679	27.14
862.853	20.99
863.027	27.14
863.201	59.9
863.375	-42.5
863.549	80.38
863.722	37.38
863.896	66.05
864.07	-36.35
864.244	-9.73
864.418	37.38
864.592	49.66
864.766	20.99
864.939	33.28
865.113	80.38
865.287	72.19
865.461	59.9
865.634	31.23
865.808	74.24
865.982	6.66
866.156	127.49
866.329	18.94
866.503	-28.16
866.676	82.43
866.85	-44.54
867.024	-50.69
867.197	41.47
867.371	8.7
867.544	45.57
867.718	-3.58
867.891	20.99
868.065	23.04
868.238	64
868.412	57.86
868.585	70.14
868.759	2.56
868.932	66.05
869.105	-9.73
869.279	29.18
869.452	57.86
869.625	35.33
869.799	-11.78
869.972	-42.5
870.145	90.62
870.319	25.09
870.492	4.61
870.665	-28.16
870.838	-1.54
871.011	39.42
871.185	82.43
871.358	14.85
871.531	10.75
871.704	33.28
871.877	78.33
872.05	72.19
872.223	51.71
872.396	39.42
872.569	31.23
872.742	12.8
872.915	41.47
873.088	-3.58
873.261	12.8
873.434	82.43
873.607	31.23
873.78	23.04
873.953	-19.97
874.126	16.9
874.299	113.15
874.471	27.14
874.644	84.48
874.817	57.86
874.99	33.28
875.163	14.85
875.335	-19.97
875.508	61.95
875.681	45.57
875.853	-13.82
876.026	0.51
876.199	37.38
876.371	55.81
876.544	57.86
876.717	47.62
876.889	43.52
877.062	14.85
877.234	-26.11
877.407	47.62
877.579	123.39
877.752	104.96
877.924	23.04
878.097	4.61
878.269	-19.97
878.442	16.9
878.614	4.61
878.786	-3.58
878.959	-9.73
879.131	6.66
879.303	12.8
879.476	39.42
879.648	27.14
879.82	127.49
879.993	-28.16
880.165	8.7
880.337	57.86
880.509	70.14
880.681	29.18
880.854	25.09
881.026	-46.59
881.198	-38.4
881.37	47.62
881.542	8.7
881.714	23.04
881.886	-9.73
882.058	10.75
882.23	70.14
882.402	23.04
882.574	4.61
882.746	-28.16
882.918	25.09
883.09	35.33
883.262	23.04
883.434	37.38
883.606	-3.58
883.778	-17.92
883.95	16.9
884.122	-32.26
884.293	14.85
884.465	25.09
884.637	49.66
884.809	4.61
884.98	86.53
885.152	23.04
885.324	72.19
885.496	20.99
885.667	61.95
885.839	68.09
886.011	8.7
886.182	49.66
886.354	-11.78
886.525	-3.58
886.697	102.91
886.869	41.47
887.04	61.95
887.212	25.09
887.383	53.76
887.555	14.85
887.726	68.09
887.897	14.85
888.069	55.81
888.24	4.61
888.412	23.04
888.583	-26.11
888.754	133.63
888.926	-50.69
889.097	-15.87
889.268	-32.26
889.44	35.33
889.611	-83.45
889.782	39.42
889.953	16.9
890.125	59.9
890.296	-69.12
890.467	31.23
890.638	-24.06
890.809	-17.92
890.98	98.81
891.151	4.61
891.323	39.42
891.494	-62.98
891.665	102.91
891.836	37.38
892.007	-28.16
892.178	29.18
892.349	-13.82
892.52	35.33
892.691	47.62
892.862	-15.87
893.032	4.61
893.203	0.51
893.374	-9.73
893.545	29.18
893.716	-28.16
893.887	-15.87
894.057	27.14
894.228	59.9
894.399	10.75
894.57	68.09
894.74	-44.54
894.911	-40.45
895.082	86.53
895.253	-34.3
895.423	-30.21
895.594	29.18
895.764	57.86
895.935	-19.97
896.106	4.61
896.276	64
896.447	18.94
896.617	-28.16
896.788	-58.88
896.958	33.28
897.129	-32.26
897.299	25.09
897.47	39.42
897.64	47.62
897.81	-26.11
897.981	6.66
898.151	51.71
898.322	29.18
898.492	74.24
898.662	41.47
898.832	37.38
899.003	72.19
899.173	29.18
899.343	-5.63
899.513	84.48
