Data from USB4F104151__106__13-54-49-828.txt Node

Date: Thu Mar 13 13:54:49 EDT 2025
User: louis
Spectrometer: USB4F10415
Trigger mode: 4
Integration Time (sec): 1.000000E-2
Scans to average: 1
Electric dark correction enabled: true
Nonlinearity correction enabled: false
Boxcar width: 0
XAxis mode: Wavelengths
Number of Pixels in Spectrum: 3648
>>>>>Begin Spectral Data<<<<<
178.204	74.92
178.424	74.92
178.644	74.92
178.864	17.58
179.084	9.39
179.304	11.43
179.524	19.63
179.744	1.19
179.964	27.82
180.184	-4.95
180.404	50.35
180.624	-41.81
180.844	33.96
181.064	-27.48
181.283	5.29
181.503	9.39
181.723	-84.82
181.943	60.59
182.163	72.87
182.383	3.24
182.602	85.16
182.822	117.93
183.042	36.01
183.262	36.01
183.482	46.25
183.701	58.54
183.921	44.2
184.141	25.77
184.361	25.77
184.58	64.68
184.8	21.67
185.02	83.11
185.239	-0.85
185.459	-19.29
185.679	70.83
185.898	36.01
186.118	-21.33
186.338	-29.52
186.557	68.78
186.777	72.87
186.997	38.06
187.216	52.39
187.436	66.73
187.655	60.59
187.875	72.87
188.095	38.06
188.314	19.63
188.534	42.15
188.753	23.72
188.973	25.77
189.192	29.87
189.412	140.46
189.631	13.48
189.851	103.59
190.07	81.07
190.29	38.06
190.509	-0.85
190.729	-31.57
190.948	36.01
191.168	17.58
191.387	52.39
191.607	25.77
191.826	9.39
192.045	62.63
192.265	58.54
192.484	113.83
192.704	1.19
192.923	52.39
193.142	17.58
193.362	25.77
193.581	68.78
193.8	64.68
194.02	25.77
194.239	17.58
194.458	54.44
194.678	27.82
194.897	21.67
195.116	15.53
195.335	-25.43
195.555	1.19
195.774	60.59
195.993	76.97
196.212	105.64
196.432	72.87
196.651	36.01
196.87	33.96
197.089	50.35
197.308	-7
197.528	-54.1
197.747	3.24
197.966	52.39
198.185	60.59
198.404	66.73
198.623	-39.76
198.842	60.59
199.062	44.2
199.281	17.58
199.5	27.82
199.719	60.59
199.938	13.48
200.157	48.3
200.376	42.15
200.595	17.58
200.814	1.19
201.033	74.92
201.252	1.19
201.471	46.25
201.69	58.54
201.909	109.74
202.128	38.06
202.347	38.06
202.566	101.55
202.785	15.53
203.004	3.24
203.223	29.87
203.442	25.77
203.661	93.35
203.879	-15.19
204.098	83.11
204.317	83.11
204.536	11.43
204.755	29.87
204.974	15.53
205.193	42.15
205.411	62.63
205.63	25.77
205.849	13.48
206.068	74.92
206.287	29.87
206.505	54.44
206.724	46.25
206.943	85.16
207.162	50.35
207.381	66.73
207.599	9.39
207.818	5.29
208.037	-41.81
208.255	44.2
208.474	36.01
208.693	38.06
208.911	-7
209.13	58.54
209.349	3.24
209.567	62.63
209.786	44.2
210.005	46.25
210.223	40.11
210.442	-19.29
210.661	-0.85
210.879	7.34
211.098	93.35
211.316	54.44
211.535	15.53
211.753	91.31
211.972	19.63
212.191	7.34
212.409	11.43
212.628	101.55
212.846	-23.38
213.065	21.67
213.283	72.87
213.502	74.92
213.72	-2.9
213.938	-31.57
214.157	50.35
214.375	70.83
214.594	42.15
214.812	72.87
215.031	25.77
215.249	50.35
215.467	66.73
215.686	1.19
215.904	62.63
216.122	11.43
216.341	68.78
216.559	81.07
216.778	42.15
216.996	115.88
217.214	70.83
217.432	60.59
217.651	44.2
217.869	48.3
218.087	44.2
218.306	40.11
218.524	33.96
218.742	46.25
218.96	-17.24
219.179	93.35
219.397	99.5
219.615	58.54
219.833	13.48
220.051	83.11
220.27	60.59
220.488	29.87
220.706	7.34
220.924	58.54
221.142	68.78
221.36	31.91
221.578	-9.05
221.796	33.96
222.015	13.48
222.233	19.63
222.451	52.39
222.669	5.29
222.887	-4.95
223.105	-80.72
223.323	93.35
223.541	25.77
223.759	95.4
223.977	42.15
224.195	40.11
224.413	15.53
224.631	58.54
224.849	54.44
225.067	76.97
225.285	7.34
225.503	74.92
225.721	23.72
225.939	76.97
226.157	58.54
226.375	85.16
226.592	21.67
226.81	87.21
227.028	44.2
227.246	44.2
227.464	70.83
227.682	27.82
227.9	38.06
228.117	-31.57
228.335	74.92
228.553	58.54
228.771	31.91
228.989	76.97
229.206	74.92
229.424	-17.24
229.642	-54.1
229.86	17.58
230.077	79.02
230.295	83.11
230.513	62.63
230.731	72.87
230.948	15.53
231.166	97.45
231.384	23.72
231.601	19.63
231.819	-9.05
232.037	23.72
232.254	-27.48
232.472	40.11
232.689	46.25
232.907	17.58
233.125	-17.24
233.342	56.49
233.56	5.29
233.777	89.26
233.995	11.43
234.213	38.06
234.43	54.44
234.648	7.34
234.865	-2.9
235.083	5.29
235.3	70.83
235.518	79.02
235.735	5.29
235.953	81.07
236.17	52.39
236.388	72.87
236.605	87.21
236.822	62.63
237.04	46.25
237.257	56.49
237.475	13.48
237.692	31.91
237.909	130.22
238.127	1.19
238.344	1.19
238.562	81.07
238.779	-0.85
238.996	23.72
239.214	72.87
239.431	58.54
239.648	-15.19
239.865	21.67
240.083	23.72
240.3	46.25
240.517	11.43
240.735	46.25
240.952	93.35
241.169	-2.9
241.386	48.3
241.603	17.58
241.821	23.72
242.038	42.15
242.255	79.02
242.472	13.48
242.689	62.63
242.907	31.91
243.124	19.63
243.341	17.58
243.558	72.87
243.775	74.92
243.992	50.35
244.209	23.72
244.426	68.78
244.643	33.96
244.86	46.25
245.078	40.11
245.295	40.11
245.512	58.54
245.729	105.64
245.946	56.49
246.163	40.11
246.38	97.45
246.597	50.35
246.814	36.01
247.031	122.02
247.248	56.49
247.464	-7
247.681	40.11
247.898	95.4
248.115	105.64
248.332	7.34
248.549	107.69
248.766	33.96
248.983	31.91
249.2	-9.05
249.417	11.43
249.633	23.72
249.85	15.53
250.067	134.31
250.284	23.72
250.501	119.98
250.717	91.31
250.934	58.54
251.151	36.01
251.368	7.34
251.585	5.29
251.801	13.48
252.018	42.15
252.235	48.3
252.451	52.39
252.668	31.91
252.885	-9.05
253.102	48.3
253.318	-0.85
253.535	5.29
253.752	40.11
253.968	60.59
254.185	21.67
254.401	62.63
254.618	21.67
254.835	15.53
255.051	58.54
255.268	21.67
255.484	85.16
255.701	25.77
255.917	113.83
256.134	74.92
256.351	-11.09
256.567	74.92
256.784	19.63
257	48.3
257.217	3.24
257.433	44.2
257.65	-0.85
257.866	58.54
258.082	72.87
258.299	64.68
258.515	40.11
258.732	95.4
258.948	40.11
259.165	21.67
259.381	-9.05
259.597	52.39
259.814	66.73
260.03	-13.14
260.246	105.64
260.463	56.49
260.679	33.96
260.895	54.44
261.112	48.3
261.328	29.87
261.544	31.91
261.761	46.25
261.977	-4.95
262.193	46.25
262.409	-0.85
262.626	11.43
262.842	3.24
263.058	66.73
263.274	76.97
263.49	21.67
263.707	-13.14
263.923	38.06
264.139	21.67
264.355	-25.43
264.571	64.68
264.787	19.63
265.004	48.3
265.22	-4.95
265.436	109.74
265.652	1.19
265.868	60.59
266.084	50.35
266.3	40.11
266.516	54.44
266.732	13.48
266.948	-7
267.164	48.3
267.38	-43.86
267.596	-4.95
267.812	64.68
268.028	58.54
268.244	60.59
268.46	29.87
268.676	23.72
268.892	29.87
269.108	58.54
269.324	44.2
269.54	83.11
269.756	-0.85
269.972	-33.62
270.188	36.01
270.403	15.53
270.619	-17.24
270.835	33.96
271.051	72.87
271.267	52.39
271.483	74.92
271.698	11.43
271.914	74.92
272.13	66.73
272.346	9.39
272.562	17.58
272.777	42.15
272.993	70.83
273.209	25.77
273.425	62.63
273.64	11.43
273.856	50.35
274.072	89.26
274.287	-2.9
274.503	7.34
274.719	-15.19
274.934	-39.76
275.15	9.39
275.366	74.92
275.581	44.2
275.797	19.63
276.012	23.72
276.228	97.45
276.444	64.68
276.659	40.11
276.875	38.06
277.09	21.67
277.306	19.63
277.521	79.02
277.737	76.97
277.952	70.83
278.168	81.07
278.383	42.15
278.599	-11.09
278.814	72.87
279.03	54.44
279.245	21.67
279.461	-52.05
279.676	52.39
279.892	58.54
280.107	85.16
280.322	9.39
280.538	72.87
280.753	-17.24
280.969	58.54
281.184	-15.19
281.399	9.39
281.615	79.02
281.83	60.59
282.045	9.39
282.26	-19.29
282.476	50.35
282.691	-7
282.906	56.49
283.122	50.35
283.337	87.21
283.552	89.26
283.767	23.72
283.983	50.35
284.198	74.92
284.413	42.15
284.628	-4.95
284.843	42.15
285.058	44.2
285.274	48.3
285.489	23.72
285.704	36.01
285.919	87.21
286.134	21.67
286.349	-23.38
286.564	64.68
286.779	-13.14
286.995	58.54
287.21	21.67
287.425	3.24
287.64	60.59
287.855	87.21
288.07	5.29
288.285	29.87
288.5	48.3
288.715	58.54
288.93	62.63
289.145	31.91
289.36	11.43
289.575	62.63
289.79	58.54
290.004	7.34
290.219	46.25
290.434	70.83
290.649	72.87
290.864	21.67
291.079	-0.85
291.294	66.73
291.509	15.53
291.724	85.16
291.938	79.02
292.153	93.35
292.368	81.07
292.583	107.69
292.798	44.2
293.012	27.82
293.227	85.16
293.442	-7
293.657	13.48
293.871	107.69
294.086	109.74
294.301	83.11
294.516	3.24
294.73	44.2
294.945	21.67
295.16	17.58
295.374	25.77
295.589	21.67
295.804	9.39
296.018	91.31
296.233	42.15
296.447	42.15
296.662	85.16
296.877	79.02
297.091	62.63
297.306	72.87
297.52	-0.85
297.735	46.25
297.949	7.34
298.164	-4.95
298.378	-2.9
298.593	44.2
298.807	-72.53
299.022	23.72
299.236	21.67
299.451	56.49
299.665	29.87
299.88	-41.81
300.094	99.5
300.309	-13.14
300.523	105.64
300.737	58.54
300.952	70.83
301.166	126.12
301.381	74.92
301.595	38.06
301.809	79.02
302.024	-33.62
302.238	38.06
302.452	64.68
302.667	56.49
302.881	66.73
303.095	68.78
303.309	19.63
303.524	15.53
303.738	13.48
303.952	21.67
304.166	68.78
304.381	46.25
304.595	89.26
304.809	27.82
305.023	11.43
305.237	9.39
305.452	-7
305.666	70.83
305.88	17.58
306.094	122.02
306.308	42.15
306.522	7.34
306.736	-25.43
306.95	50.35
307.164	48.3
307.379	72.87
307.593	83.11
307.807	5.29
308.021	76.97
308.235	-7
308.449	107.69
308.663	58.54
308.877	152.74
309.091	87.21
309.305	33.96
309.519	-43.86
309.733	105.64
309.947	56.49
310.161	128.17
310.374	-29.52
310.588	128.17
310.802	7.34
311.016	-39.76
311.23	25.77
311.444	27.82
311.658	40.11
311.872	89.26
312.085	81.07
312.299	76.97
312.513	142.5
312.727	19.63
312.941	5.29
313.154	31.91
313.368	-43.86
313.582	93.35
313.796	134.31
314.009	105.64
314.223	70.83
314.437	117.93
314.651	13.48
314.864	23.72
315.078	124.07
315.292	56.49
315.505	64.68
315.719	-11.09
315.933	15.53
316.146	81.07
316.36	117.93
316.573	101.55
316.787	64.68
317.001	76.97
317.214	25.77
317.428	40.11
317.641	-31.57
317.855	44.2
318.068	66.73
318.282	33.96
318.495	40.11
318.709	66.73
318.922	-11.09
319.136	85.16
319.349	33.96
319.563	31.91
319.776	54.44
319.99	54.44
320.203	56.49
320.417	-33.62
320.63	89.26
320.843	68.78
321.057	33.96
321.27	103.59
321.483	40.11
321.697	21.67
321.91	81.07
322.124	76.97
322.337	-11.09
322.55	-9.05
322.763	15.53
322.977	13.48
323.19	109.74
323.403	38.06
323.617	-9.05
323.83	40.11
324.043	9.39
324.256	54.44
324.469	15.53
324.683	70.83
324.896	-27.48
325.109	54.44
325.322	-11.09
325.535	-4.95
325.748	93.35
325.962	23.72
326.175	83.11
326.388	33.96
326.601	3.24
326.814	-9.05
327.027	-13.14
327.24	89.26
327.453	23.72
327.666	50.35
327.879	66.73
328.092	68.78
328.305	19.63
328.518	56.49
328.731	11.43
328.944	1.19
329.157	87.21
329.37	25.77
329.583	74.92
329.796	97.45
330.009	-25.43
330.222	42.15
330.435	36.01
330.648	115.88
330.861	9.39
331.073	50.35
331.286	132.26
331.499	60.59
331.712	52.39
331.925	54.44
332.138	3.24
332.35	79.02
332.563	93.35
332.776	48.3
332.989	76.97
333.202	91.31
333.414	64.68
333.627	42.15
333.84	38.06
334.053	105.64
334.265	15.53
334.478	97.45
334.691	70.83
334.903	62.63
335.116	42.15
335.329	56.49
335.541	9.39
335.754	52.39
335.966	36.01
336.179	31.91
336.392	29.87
336.604	95.4
336.817	62.63
337.029	60.59
337.242	85.16
337.454	107.69
337.667	25.77
337.88	31.91
338.092	87.21
338.305	54.44
338.517	91.31
338.729	68.78
338.942	60.59
339.154	9.39
339.367	1.19
339.579	81.07
339.792	36.01
340.004	44.2
340.217	109.74
340.429	42.15
340.641	56.49
340.854	66.73
341.066	23.72
341.278	33.96
341.491	33.96
341.703	11.43
341.915	9.39
342.128	68.78
342.34	15.53
342.552	58.54
342.764	7.34
342.977	68.78
343.189	95.4
343.401	93.35
343.613	31.91
343.826	31.91
344.038	44.2
344.25	54.44
344.462	27.82
344.674	107.69
344.886	91.31
345.099	42.15
345.311	5.29
345.523	89.26
345.735	11.43
345.947	64.68
346.159	-11.09
346.371	38.06
346.583	3.24
346.795	25.77
347.007	33.96
347.219	23.72
347.431	1.19
347.643	15.53
347.855	11.43
348.067	58.54
348.279	42.15
348.491	40.11
348.703	-37.72
348.915	-39.76
349.127	79.02
349.339	85.16
349.551	21.67
349.763	40.11
349.975	76.97
350.187	95.4
350.399	38.06
350.61	99.5
350.822	15.53
351.034	87.21
351.246	23.72
351.458	113.83
351.669	27.82
351.881	103.59
352.093	33.96
352.305	68.78
352.517	70.83
352.728	62.63
352.94	27.82
353.152	50.35
353.363	60.59
353.575	93.35
353.787	132.26
353.999	72.87
354.21	44.2
354.422	81.07
354.633	19.63
354.845	38.06
355.057	11.43
355.268	66.73
355.48	79.02
355.692	5.29
355.903	40.11
356.115	134.31
356.326	85.16
356.538	113.83
356.749	54.44
356.961	33.96
357.172	21.67
357.384	44.2
357.595	76.97
357.807	81.07
358.018	38.06
358.23	21.67
358.441	70.83
358.653	72.87
358.864	29.87
359.075	97.45
359.287	97.45
359.498	83.11
359.709	62.63
359.921	50.35
360.132	68.78
360.344	50.35
360.555	23.72
360.766	48.3
360.977	64.68
361.189	48.3
361.4	50.35
361.611	50.35
361.823	124.07
362.034	124.07
362.245	33.96
362.456	33.96
362.667	31.91
362.879	-7
363.09	81.07
363.301	-0.85
363.512	46.25
363.723	50.35
363.935	60.59
364.146	19.63
364.357	21.67
364.568	50.35
364.779	58.54
364.99	33.96
365.201	56.49
365.412	134.31
365.623	66.73
365.834	40.11
366.045	50.35
366.256	109.74
366.467	83.11
366.678	31.91
366.889	23.72
367.1	36.01
367.311	64.68
367.522	66.73
367.733	42.15
367.944	17.58
368.155	97.45
368.366	40.11
368.577	56.49
368.788	85.16
368.999	-35.67
369.209	36.01
369.42	138.41
369.631	119.98
369.842	-17.24
370.053	66.73
370.264	111.78
370.474	27.82
370.685	105.64
370.896	21.67
371.107	74.92
371.317	146.6
371.528	48.3
371.739	89.26
371.95	87.21
372.16	128.17
372.371	60.59
372.582	-7
372.792	95.4
373.003	70.83
373.214	87.21
373.424	31.91
373.635	113.83
373.846	7.34
374.056	-23.38
374.267	40.11
374.477	113.83
374.688	64.68
374.898	31.91
375.109	9.39
375.319	105.64
375.53	76.97
375.74	-17.24
375.951	11.43
376.161	5.29
376.372	111.78
376.582	66.73
376.793	140.46
377.003	48.3
377.214	87.21
377.424	42.15
377.635	66.73
377.845	-11.09
378.055	29.87
378.266	31.91
378.476	15.53
378.686	27.82
378.897	40.11
379.107	74.92
379.317	105.64
379.528	36.01
379.738	-4.95
379.948	29.87
380.158	119.98
380.369	91.31
380.579	23.72
380.789	36.01
380.999	46.25
381.21	33.96
381.42	93.35
381.63	-0.85
381.84	-9.05
382.05	87.21
382.261	107.69
382.471	124.07
382.681	122.02
382.891	76.97
383.101	44.2
383.311	56.49
383.521	124.07
383.731	42.15
383.941	48.3
384.151	54.44
384.361	119.98
384.571	27.82
384.781	68.78
384.991	46.25
385.201	-2.9
385.411	11.43
385.621	36.01
385.831	107.69
386.041	76.97
386.251	46.25
386.461	105.64
386.671	79.02
386.881	44.2
387.091	-15.19
387.301	70.83
387.511	68.78
387.72	-4.95
387.93	36.01
388.14	64.68
388.35	54.44
388.56	64.68
388.769	79.02
388.979	136.36
389.189	66.73
389.399	87.21
389.609	60.59
389.818	103.59
390.028	21.67
390.238	68.78
390.447	25.77
390.657	58.54
390.867	66.73
391.076	105.64
391.286	66.73
391.496	122.02
391.705	13.48
391.915	105.64
392.125	91.31
392.334	19.63
392.544	50.35
392.753	74.92
392.963	42.15
393.172	23.72
393.382	17.58
393.591	62.63
393.801	83.11
394.01	38.06
394.22	91.31
394.429	31.91
394.639	101.55
394.848	85.16
395.058	72.87
395.267	115.88
395.477	-37.72
395.686	103.59
395.895	83.11
396.105	130.22
396.314	122.02
396.524	29.87
396.733	27.82
396.942	160.94
397.152	15.53
397.361	-11.09
397.57	101.55
397.78	64.68
397.989	11.43
398.198	99.5
398.407	83.11
398.617	105.64
398.826	101.55
399.035	101.55
399.244	52.39
399.453	117.93
399.663	111.78
399.872	107.69
400.081	50.35
400.29	54.44
400.499	29.87
400.708	154.79
400.917	162.98
401.127	117.93
401.336	42.15
401.545	60.59
401.754	74.92
401.963	54.44
402.172	103.59
402.381	62.63
402.59	79.02
402.799	89.26
403.008	68.78
403.217	89.26
403.426	60.59
403.635	64.68
403.844	91.31
404.053	87.21
404.262	136.36
404.471	142.5
404.68	177.32
404.888	165.03
405.097	79.02
405.306	107.69
405.515	85.16
405.724	89.26
405.933	48.3
406.142	113.83
406.35	128.17
406.559	79.02
406.768	148.65
406.977	132.26
407.185	130.22
407.394	165.03
407.603	156.84
407.812	111.78
408.02	165.03
408.229	36.01
408.438	175.27
408.646	109.74
408.855	179.37
409.064	156.84
409.272	214.18
409.481	152.74
409.69	124.07
409.898	230.57
410.107	197.8
410.315	251.05
410.524	201.9
410.733	212.14
410.941	171.18
411.15	292.01
411.358	212.14
411.567	269.48
411.775	230.57
411.984	244.9
412.192	273.57
412.401	306.34
412.609	335.01
412.818	324.77
413.026	302.25
413.234	267.43
413.443	267.43
413.651	292.01
413.86	404.64
414.068	328.87
414.276	369.83
414.485	406.69
414.693	363.69
414.901	418.98
415.11	394.4
415.318	359.59
415.526	414.88
415.734	468.13
415.943	375.97
416.151	525.47
416.359	511.14
416.567	453.8
416.776	488.61
416.984	543.91
417.192	595.11
417.4	543.91
417.608	591.01
417.817	652.45
418.025	611.49
418.233	760.99
418.441	580.77
418.649	650.4
418.857	717.98
419.065	742.56
419.273	709.79
419.481	740.51
419.689	787.61
419.897	771.23
420.105	906.4
420.313	926.88
420.521	900.25
420.729	992.41
420.937	908.44
421.145	955.55
421.353	953.5
421.561	994.46
421.769	1100.95
421.977	1160.34
422.185	1090.71
422.393	1150.11
422.601	1160.34
422.809	1236.12
423.017	1207.45
423.224	1367.19
423.432	1324.18
423.64	1340.57
423.848	1381.53
424.056	1469.59
424.263	1522.84
424.471	1614.99
424.679	1506.45
424.887	1692.82
425.094	1852.56
425.302	1764.5
425.51	1778.83
425.718	1875.09
425.925	1942.67
426.133	1926.29
426.341	2083.98
426.548	2059.4
426.756	2217.1
426.964	2143.37
427.171	2321.54
427.379	2329.74
427.586	2448.52
427.794	2270.34
428.001	2507.91
428.209	2679.94
428.417	2569.35
428.624	2825.34
428.832	2948.22
429.039	2792.58
429.247	2772.1
429.454	3142.78
429.662	3107.96
429.869	3173.5
430.076	3243.13
430.284	3153.02
430.491	3284.09
430.699	3550.32
430.906	3472.5
431.114	3468.41
431.321	3710.07
431.528	3640.44
431.736	4004.97
431.943	4160.62
432.15	4144.24
432.358	4123.76
432.565	4326.5
432.772	4330.6
432.979	4496.49
433.187	4461.67
433.394	4664.42
433.601	4856.93
433.808	4908.13
434.016	4877.41
434.223	5266.52
434.43	5411.93
434.637	5164.12
434.844	5629.01
435.052	5733.46
435.259	5786.71
435.466	5811.28
435.673	5739.6
435.88	6005.84
436.087	6409.29
436.294	6419.53
436.501	6325.32
436.708	6390.86
436.915	6462.54
437.122	6894.66
437.329	6788.16
437.537	7042.11
437.743	7291.96
437.95	6984.77
438.157	7527.48
438.364	7656.5
438.571	7867.44
438.778	7803.96
438.985	8483.88
439.192	8045.62
439.399	8420.39
439.606	8260.65
439.813	8864.8
440.02	9192.48
440.227	9217.05
440.433	8864.8
440.64	9120.8
440.847	9075.74
441.054	9536.54
441.261	9976.85
441.467	9958.42
441.674	10003.47
441.881	10368.01
442.088	10529.8
442.294	10462.22
442.501	10722.31
442.708	10871.81
442.914	11344.89
443.121	11742.2
443.328	11369.47
443.534	12362.73
443.741	11795.45
443.948	11875.32
444.154	12588.01
444.361	12463.08
444.568	12559.34
444.774	12442.6
444.981	12835.81
445.187	13210.59
445.394	13695.96
445.6	13534.17
445.807	14838.73
446.013	14031.83
446.22	14414.8
446.426	15033.29
446.633	15018.95
446.839	15664.06
447.046	15180.74
447.252	15866.81
447.459	15735.74
447.665	15864.76
447.871	16495.53
448.078	17071.01
448.284	16591.79
448.491	16765.87
448.697	17496.99
448.903	17623.97
449.11	17851.29
449.316	17628.06
449.522	17597.34
449.728	18287.51
449.935	18633.61
450.141	18490.26
450.347	18719.63
450.553	18242.45
450.76	18629.52
450.966	19430.27
451.172	18770.83
451.378	19444.61
451.584	18973.58
451.791	19331.97
451.997	19323.78
452.203	19909.5
452.409	19608.45
452.615	19751.81
452.821	18953.1
453.027	18641.81
453.233	19671.93
453.44	18840.46
453.646	19159.94
453.852	19043.21
454.058	19508.1
454.264	18787.21
454.47	18989.96
454.676	18725.77
454.882	19311.49
455.088	17863.58
455.294	17761.18
455.5	18303.89
455.705	18359.19
455.911	17644.45
456.117	17386.4
456.323	17017.77
456.529	15948.73
456.735	16825.26
456.941	16333.75
457.147	16100.28
457.352	15451.07
457.558	15363.01
457.764	15498.17
457.97	15252.42
458.176	14926.79
458.381	14851.02
458.587	13972.44
458.793	14005.2
458.999	13319.14
459.204	14615.5
459.41	13796.31
459.616	13011.94
459.821	13216.74
460.027	13114.34
460.233	12807.14
460.438	12397.55
460.644	12452.84
460.85	11787.25
461.055	11461.63
461.261	11578.36
461.466	10806.28
461.672	10310.67
461.878	11099.14
462.083	10492.94
462.289	9987.09
462.494	10028.05
462.7	9514.01
462.905	9438.23
463.111	9843.73
463.316	9839.64
463.522	9698.33
463.727	9536.54
463.932	9561.11
464.138	9640.98
464.343	9497.63
464.549	9204.77
464.754	9493.53
464.959	9339.93
465.165	9305.12
465.37	8922.15
465.575	8932.39
465.781	9149.47
465.986	9174.05
466.191	8856.61
466.397	8690.73
466.602	8418.35
466.807	8494.12
467.012	8506.41
467.218	8506.41
467.423	8432.68
467.628	8490.03
467.833	8854.56
468.038	8459.31
468.244	8211.5
468.449	8666.15
468.654	8313.9
468.859	8141.87
469.064	8053.81
469.269	7849.01
469.474	7969.84
469.679	8105.01
469.885	7818.29
470.09	8014.9
470.295	7978.03
470.5	7691.32
470.705	7744.56
470.91	7517.24
471.115	7484.47
471.32	7623.73
471.525	7562.3
471.73	7457.85
471.935	7314.49
472.139	7197.76
472.344	7386.17
472.549	7148.61
472.754	7273.53
472.959	6943.81
473.164	6863.94
473.369	6800.45
473.574	6958.14
473.778	6790.21
473.983	6984.77
474.188	6870.08
474.393	6626.37
474.598	6515.78
474.802	6452.3
475.007	6493.26
475.212	6601.8
475.417	6050.89
475.621	6339.66
475.826	6229.07
476.031	6106.19
476.235	6034.51
476.44	6204.49
476.645	6100.05
476.849	6028.37
477.054	5874.77
477.259	6011.98
477.463	5739.6
477.668	5575.77
477.872	5610.58
478.077	5667.92
478.282	5721.17
478.486	5487.7
478.691	5444.7
478.895	5448.79
479.1	5424.22
479.304	5418.07
479.509	5323.87
479.713	5317.72
479.918	5456.98
480.122	5172.32
480.326	5186.65
480.531	5278.81
480.735	5225.56
480.94	5096.54
481.144	5293.15
481.348	5000.29
481.553	5096.54
481.757	5143.64
481.961	5057.63
482.166	4981.85
482.37	5002.33
482.574	5102.68
482.778	4953.18
482.983	5010.53
483.187	5092.44
483.391	5121.12
483.595	4928.61
483.8	4920.42
484.004	4961.37
484.208	5125.21
484.412	5069.92
484.616	5039.2
484.821	4934.75
485.025	4942.94
485.229	4996.19
485.433	5035.1
485.637	5014.62
485.841	4920.42
486.045	5055.58
486.249	5043.29
486.453	5102.68
486.657	5051.49
486.861	5108.83
487.065	4979.81
487.269	5141.6
487.473	5096.54
487.677	4768.87
487.881	5084.25
488.085	5031.01
488.289	5026.91
488.493	5076.06
488.697	5205.08
488.901	5112.92
489.105	4920.42
489.309	5110.88
489.512	5291.1
489.716	5063.77
489.92	5061.73
490.124	5076.06
490.328	5102.68
490.531	5104.73
490.735	5119.07
490.939	5106.78
491.143	5350.49
491.346	5119.07
491.55	5325.91
491.754	5192.8
491.958	5407.83
492.161	5301.34
492.365	5405.78
492.569	5256.28
492.772	5364.82
492.976	5403.74
493.18	5413.98
493.383	5504.09
493.587	5461.08
493.79	5626.96
493.994	5473.37
494.197	5710.93
494.401	5651.54
494.605	5710.93
494.808	5749.84
495.012	5823.57
495.215	5839.95
495.419	5880.91
495.622	5885.01
495.825	5829.71
496.029	5993.55
496.232	6118.48
496.436	5923.92
496.639	6276.17
496.843	6179.92
497.046	6460.49
497.249	6347.85
497.453	6300.75
497.656	6616.13
497.859	6460.49
498.063	6544.45
498.266	6587.46
498.469	6845.51
498.673	6765.64
498.876	6820.93
499.079	6818.88
499.282	7138.37
499.485	7152.7
499.689	7162.94
499.892	7406.65
500.095	7222.33
500.298	7447.61
500.501	7550.01
500.705	7582.77
500.908	7937.07
501.111	7873.59
501.314	7894.07
501.517	8064.05
501.72	8148.01
501.923	8184.88
502.126	8285.23
502.329	8406.06
502.532	8451.11
502.735	8637.48
502.938	8602.66
503.141	8705.06
503.344	8916
503.547	8928.29
503.75	9053.22
503.953	9276.45
504.156	9294.88
504.359	9325.6
504.562	9602.07
504.765	9649.18
504.968	9896.98
505.17	9972.75
505.373	10134.54
505.576	10079.25
505.779	10101.78
505.982	10195.98
506.185	10615.82
506.387	10609.67
506.59	10750.98
506.793	10841.09
506.996	10976.26
507.198	11295.74
507.401	11271.17
507.604	11410.43
507.807	11744.25
508.009	11910.13
508.212	11817.97
508.415	12188.66
508.617	12348.4
508.82	12485.61
509.022	12332.01
509.225	12772.33
509.428	12880.87
509.63	13032.42
509.833	13038.56
510.035	13417.44
510.238	13356
510.44	13519.84
510.643	14068.69
510.845	13951.96
511.048	13853.66
511.25	14302.16
511.453	14326.74
511.655	14711.75
511.858	14582.73
512.06	14941.13
512.262	15107.01
512.465	15176.64
512.667	15539.13
512.87	15485.89
513.072	15713.21
513.274	15963.06
513.477	16161.72
513.679	16733.1
513.881	16626.6
514.084	16673.71
514.286	16853.93
514.488	17071.01
514.69	17464.22
514.893	17294.24
515.095	17634.21
515.297	17939.35
515.499	18064.28
515.701	18203.54
515.904	18457.49
516.106	18508.69
516.308	18918.28
516.51	19086.22
516.712	19338.12
516.914	19571.58
517.116	20095.86
517.318	20015.99
517.52	19958.65
517.722	20505.46
517.925	20556.66
518.127	20890.48
518.329	20939.63
518.531	21220.2
518.733	21191.53
518.935	21562.21
519.136	21992.28
519.338	22367.06
519.54	22371.16
519.742	22467.41
519.944	22551.38
520.146	23325.51
520.348	23130.95
520.55	23423.81
520.752	23399.24
520.954	23868.22
521.155	24142.65
521.357	24251.19
521.559	24646.45
521.761	24984.37
521.963	24750.9
522.164	24992.56
522.366	25088.81
522.568	25510.69
522.77	25606.95
522.971	26215.19
523.173	25867.04
523.375	26299.16
523.576	26319.64
523.778	26729.23
523.98	27003.66
524.181	26948.37
524.383	26979.09
524.584	27435.78
524.786	27394.82
524.988	27634.44
525.189	27683.59
525.391	27947.78
525.592	28181.24
525.794	28394.23
525.995	28480.25
526.197	28584.69
526.398	28508.92
526.6	28658.42
526.801	29068.02
527.003	29014.77
527.204	29410.03
527.406	29645.54
527.607	29487.85
527.808	29735.65
528.01	29258.48
528.211	29717.22
528.412	30221.02
528.614	29797.09
528.815	30147.29
529.016	30348
529.218	30229.21
529.419	30587.61
529.62	30520.02
529.822	30622.42
530.023	30692.05
530.224	31300.3
530.425	30941.91
530.626	30659.29
530.828	30649.05
531.029	31709.89
531.23	30767.83
531.431	31115.98
531.632	31202
531.833	31347.4
532.035	31275.73
532.236	31414.99
532.437	31371.98
532.638	31341.26
532.839	31832.77
533.04	31978.18
533.241	31292.11
533.442	31998.66
533.643	31716.04
533.844	32154.3
534.045	31826.63
534.246	31226.57
534.447	31855.3
534.648	31488.71
534.849	31800.01
535.05	31701.7
535.251	31394.51
535.451	31906.5
535.652	32094.91
535.853	31826.63
536.054	31969.99
536.255	32479.93
536.456	31544.01
536.657	32164.54
536.857	31994.56
537.058	31838.92
537.259	32166.59
537.46	31873.73
537.66	31845.06
537.861	31865.54
538.062	31797.96
538.263	32187.07
538.463	31873.73
538.664	32264.89
538.865	32015.04
539.065	32387.77
539.266	31761.09
539.466	31924.93
539.667	31836.87
539.868	32299.71
540.068	32217.79
540.269	31816.39
540.469	31994.56
540.67	31886.02
540.87	31814.34
541.071	32084.67
541.271	32242.37
541.472	32146.11
541.672	31965.89
541.873	31808.2
542.073	31765.19
542.274	32041.67
542.474	32182.98
542.675	31513.29
542.875	32078.53
543.075	31861.44
543.276	31810.25
543.476	32293.57
543.676	31699.65
543.877	32017.09
544.077	32080.58
544.277	31863.49
544.478	31881.92
544.678	32381.63
544.878	31937.22
545.078	32080.58
545.279	31552.2
545.479	31818.44
545.679	31673.03
545.879	31795.91
546.079	32078.53
546.28	31879.88
546.48	31705.8
546.68	31982.27
546.88	31908.55
547.08	32086.72
547.28	31584.97
547.48	31720.13
547.68	31773.38
547.88	31896.26
548.081	31836.87
548.281	32021.19
548.481	31822.53
548.681	32076.48
548.881	32119.49
549.081	32070.34
549.28	31541.96
549.48	31947.46
549.68	32058.05
549.88	32152.26
550.08	31800.01
550.28	31926.98
550.48	31886.02
550.68	32135.87
550.88	31863.49
551.08	31757
551.279	31742.66
551.479	31744.71
551.679	31910.6
551.879	31746.76
552.079	32066.24
552.278	31783.62
552.478	31978.18
552.678	31855.3
552.878	31908.55
553.077	31609.54
553.277	31611.59
553.477	32127.68
553.676	31640.26
553.876	31564.49
554.076	31425.23
554.275	31679.18
554.475	31058.64
554.674	31953.6
554.874	31691.46
555.074	31529.67
555.273	31793.86
555.473	31562.44
555.672	31402.7
555.872	31302.35
556.071	31156.94
556.271	31339.21
556.47	31365.84
556.67	30841.56
556.869	31161.04
557.068	30982.87
557.268	31173.33
557.467	30847.7
557.667	31070.93
557.866	31077.07
558.065	30909.14
558.265	30673.62
558.464	30577.37
558.663	31111.89
558.863	30823.12
559.062	30913.23
559.261	30675.67
559.461	31064.78
559.66	30405.34
559.859	31007.44
560.058	30255.84
560.258	30526.17
560.457	30348
560.656	30487.26
560.855	30479.07
561.054	30499.55
561.253	29924.07
561.453	30298.84
561.652	30257.88
561.851	30450.39
562.05	30081.76
562.249	29586.15
562.448	30042.85
562.647	29958.88
562.846	30079.71
563.045	29985.51
563.244	29727.46
563.443	29817.57
563.642	29199.09
563.841	29504.23
564.04	29534.95
564.239	29862.63
564.438	29557.48
564.637	29242.09
564.836	29666.02
565.035	29080.3
565.234	29379.31
565.432	29004.53
565.631	29035.25
565.83	29033.2
566.029	28805.88
566.228	28998.38
566.427	29047.54
566.625	28967.66
566.824	28660.47
567.023	29002.48
567.222	28300.03
567.42	28918.51
567.619	28443.38
567.818	28639.99
568.016	28429.05
568.215	28689.14
568.414	28205.82
568.612	28547.83
568.811	28093.18
569.01	28039.93
569.208	27814.66
569.407	28175.1
569.605	27874.05
569.804	28195.58
570.002	27370.25
570.201	27706.12
570.4	27386.63
570.598	27745.03
570.797	27280.14
570.995	27253.51
571.193	27118.35
571.392	27335.43
571.59	26903.31
571.789	26721.04
571.987	27097.87
572.186	26796.82
572.384	26874.64
572.582	27028.24
572.781	27118.35
572.979	26432.28
573.177	26491.67
573.376	26514.2
573.574	25987.87
573.772	26374.94
573.971	26424.09
574.169	26088.22
574.367	25971.49
574.565	26207
574.763	25946.91
574.962	25750.31
575.16	25965.34
575.358	25619.24
575.556	25439.01
575.754	25864.99
575.952	25094.96
576.151	25572.13
576.349	24970.03
576.547	25078.57
576.745	25203.5
576.943	25336.62
577.141	24851.25
577.339	25010.99
577.537	24640.31
577.735	24740.66
577.933	24296.25
578.131	24587.06
578.329	24499
578.527	24439.61
578.725	24277.82
578.923	24482.61
579.121	24011.58
579.319	23968.57
579.516	23987
579.714	23794.5
579.912	23728.96
580.11	23847.74
580.308	23821.12
580.506	23948.09
580.704	23237.45
580.901	23169.87
581.099	23425.86
581.297	23274.31
581.495	23102.28
581.692	23491.4
581.89	23436.1
582.088	23079.75
582.285	23069.51
582.483	23143.24
582.681	22940.49
582.878	22938.44
583.076	22520.66
583.274	22743.89
583.471	22448.98
583.669	22553.43
583.866	22547.28
584.064	22827.85
584.262	22178.65
584.459	22369.11
584.657	22297.43
584.854	22420.31
585.052	21762.91
585.249	21871.45
585.447	21994.33
585.644	21257.06
585.841	21707.62
586.039	22106.97
586.236	21597.03
586.434	21640.03
586.631	21404.52
586.828	21701.47
587.026	21326.69
587.223	21384.04
587.42	21035.88
587.618	21357.41
587.815	21246.82
588.012	21240.68
588.21	20849.52
588.407	21007.21
588.604	20816.75
588.801	20634.48
588.999	20798.32
589.196	20730.73
589.393	20740.97
589.59	20454.26
589.787	20544.37
589.984	20253.56
590.182	20271.99
590.379	20468.59
590.576	20243.32
590.773	20134.78
590.97	20224.89
591.167	20081.53
591.364	20089.72
591.561	20185.97
591.758	20102.01
591.955	19649.41
592.152	20104.06
592.349	19903.35
592.546	19606.4
592.743	19716.99
592.94	19446.66
593.137	19569.54
593.334	19719.04
593.531	19235.72
593.727	18959.24
593.924	19338.12
594.121	19092.36
594.318	19547.01
594.515	18940.81
594.712	19166.09
594.908	18887.56
595.105	18959.24
595.302	18750.35
595.499	18824.08
595.696	18801.55
595.892	18760.59
596.089	18938.76
596.286	18656.14
596.482	18586.51
596.679	18520.98
596.876	18391.95
597.072	18281.36
597.269	18520.98
597.466	18121.62
597.662	18152.34
597.859	18140.05
598.055	18150.29
598.252	17869.72
598.448	17957.78
598.645	17976.22
598.841	17947.54
599.038	17671.07
599.234	17859.48
599.431	17939.35
599.627	17744.8
599.824	17648.54
600.02	17695.64
600.217	17669.02
600.413	17656.73
600.609	17511.33
600.806	17191.84
601.002	17595.29
601.198	17220.52
601.395	17050.53
601.591	17099.69
601.787	17179.56
601.984	16958.38
602.18	17349.54
602.376	16749.48
602.572	16712.62
602.769	16907.18
602.965	16665.52
603.161	16665.52
603.357	16915.37
603.553	16257.97
603.75	16518.06
603.946	16352.18
604.142	16466.86
604.338	16264.11
604.534	16262.07
604.73	16196.53
604.926	15952.82
605.122	16026.55
605.318	16008.12
605.514	16110.52
605.71	15578.04
605.906	15782.84
606.102	15887.29
606.298	15930.3
606.494	15600.57
606.69	15756.22
606.886	15524.8
607.082	15451.07
607.278	15639.48
607.474	15162.31
607.67	15549.37
607.866	15276.99
608.062	15125.44
608.257	15254.47
608.453	15320
608.649	15109.06
608.845	15047.62
609.041	15084.48
609.236	14873.54
609.432	15039.43
609.628	15123.4
609.824	14840.78
610.019	14789.58
610.215	14742.47
610.411	14941.13
610.606	14496.72
610.802	14738.38
610.998	14678.99
611.193	14478.29
611.389	14638.03
611.584	14445.52
611.78	14384.08
611.976	14228.43
612.171	14425.04
612.367	14427.09
612.562	14300.11
612.758	14093.27
612.953	14003.16
613.149	14246.87
613.344	14117.84
613.539	14128.08
613.735	14035.92
613.93	14105.56
614.126	13921.24
614.321	13925.33
614.517	13796.31
614.712	13720.54
614.907	13779.93
615.103	13954.01
615.298	13806.55
615.493	13722.59
615.688	13530.08
615.884	13810.65
616.079	13376.48
616.274	13472.73
616.47	13374.43
616.665	13470.69
616.86	13620.19
617.055	13143.01
617.25	13093.86
617.445	13356
617.641	12872.68
617.836	13038.56
618.031	13065.19
618.226	13157.35
618.421	12901.35
618.616	13208.55
618.811	12772.33
619.006	13114.34
619.201	12884.97
619.396	12639.21
619.591	12612.59
619.786	12880.87
619.981	12516.33
620.176	12725.22
620.371	12579.82
620.566	12325.87
620.761	12315.63
620.956	12567.53
621.151	12133.36
621.346	12155.89
621.541	12213.23
621.735	12024.82
621.93	11883.51
622.125	11840.5
622.32	11916.28
622.515	11772.92
622.709	11856.89
622.904	11617.27
623.099	11641.85
623.294	11736.06
623.488	11518.97
623.683	11449.34
623.878	11312.13
624.072	11445.24
624.267	11383.8
624.462	11039.75
624.656	10775.56
624.851	11062.27
625.046	10976.26
625.24	10830.85
625.435	10841.09
625.629	10877.96
625.824	10750.98
626.018	10867.72
626.213	10613.77
626.407	10636.3
626.602	10302.48
626.796	10544.14
626.991	10490.89
627.185	10605.58
627.38	10146.83
627.574	10163.22
627.768	10189.84
627.963	10146.83
628.157	10312.72
628.352	10095.63
628.546	9968.66
628.74	9944.08
628.935	9845.78
629.129	9974.8
629.323	9714.71
629.517	9698.33
629.712	9817.11
629.906	9643.03
630.1	9491.48
630.294	9497.63
630.489	9452.57
630.683	9423.9
630.877	9301.02
631.071	9448.47
631.265	9215.01
631.459	9372.7
631.653	9149.47
631.848	8963.11
632.042	9057.31
632.236	9038.88
632.43	8948.77
632.624	8903.71
632.818	8971.3
633.012	8774.69
633.206	8774.69
633.4	8969.25
633.594	8739.88
633.788	8786.98
633.982	8721.45
634.176	8639.53
634.369	8412.2
634.563	8455.21
634.757	8363.05
634.951	8576.04
635.145	8301.61
635.339	8483.88
635.533	8342.57
635.726	8313.9
635.92	8289.32
636.114	8291.37
636.308	8287.28
636.501	8092.72
636.695	8059.95
636.889	7973.94
637.083	7932.98
637.276	7857.2
637.47	7955.51
637.664	7832.63
637.857	7822.39
638.051	7810.1
638.244	7652.41
638.438	7459.9
638.632	7707.7
638.825	7607.35
639.019	7633.97
639.212	7607.35
639.406	7502.9
639.599	7404.6
639.793	7377.98
639.986	7377.98
640.18	7279.68
640.373	7332.92
640.567	7119.93
640.76	7119.93
640.954	7144.51
641.147	6913.09
641.34	7101.5
641.534	6962.24
641.727	6947.9
641.92	7023.68
642.114	6820.93
642.307	6964.29
642.5	6646.85
642.694	6683.72
642.887	6603.85
643.08	6863.94
643.273	6712.39
643.467	6558.79
643.66	6452.3
643.853	6528.07
644.046	6323.27
644.239	6351.95
644.432	6276.17
644.626	6335.56
644.819	6224.97
645.012	6437.96
645.205	6167.63
645.398	6288.46
645.591	6108.24
645.784	6073.42
645.977	5987.41
646.17	6069.33
646.363	5973.07
646.556	5782.61
646.749	5956.69
646.942	5846.1
647.135	5776.47
647.328	5801.04
647.521	5932.11
647.714	5831.76
647.907	5674.07
648.099	5760.08
648.292	5555.29
648.485	5534.81
648.678	5530.71
648.871	5614.68
649.064	5440.6
649.256	5721.17
649.449	5514.33
649.642	5311.58
649.835	5295.19
650.027	5385.3
650.22	5227.61
650.413	5313.63
650.605	5194.84
650.798	5254.23
650.991	5071.97
651.183	5049.44
651.376	5110.88
651.568	5186.65
651.761	4926.56
651.954	5012.57
652.146	4940.9
652.339	4867.17
652.531	4875.36
652.724	4844.64
652.916	4863.07
653.109	4863.07
653.301	4770.91
653.494	4695.14
653.686	4623.46
653.879	4660.32
654.071	4676.71
654.263	4619.36
654.456	4801.63
654.648	4691.04
654.84	4539.49
655.033	4490.34
655.225	4521.06
655.417	4512.87
655.61	4389.99
655.802	4523.11
655.994	4301.93
656.186	4404.33
656.379	4420.71
656.571	4498.53
656.763	4234.35
656.955	4205.67
657.148	4209.77
657.34	4168.81
657.532	4113.52
657.724	4158.57
657.916	4273.26
658.108	4017.26
658.3	4127.85
658.492	4136.04
658.684	4031.6
658.876	4015.21
659.068	3976.3
659.26	3814.51
659.452	3982.45
659.644	3886.19
659.836	3878
660.028	3761.27
660.22	3765.36
660.412	3693.68
660.604	3720.31
660.796	3683.44
660.988	3636.34
661.18	3605.62
661.372	3544.18
661.563	3660.91
661.755	3552.37
661.947	3562.61
662.139	3486.84
662.331	3390.58
662.522	3572.85
662.714	3515.51
662.906	3462.26
663.097	3527.8
663.289	3480.69
663.481	3333.24
663.673	3523.7
663.864	3345.53
664.056	3302.52
664.247	3259.51
664.439	3218.55
664.631	3351.67
664.822	3255.42
665.014	3198.07
665.205	3273.85
665.397	3118.2
665.588	3196.03
665.78	3124.35
665.971	3175.55
666.163	3112.06
666.354	3175.55
666.546	3005.56
666.737	2870.4
666.929	3026.04
667.12	3171.45
667.311	2948.22
667.503	2921.6
667.694	3024
667.885	2899.07
668.077	2962.56
668.268	2913.41
668.459	2841.73
668.651	2897.02
668.842	2872.45
669.033	2993.28
669.224	2872.45
669.416	2749.57
669.607	2727.04
669.798	2772.1
669.989	2837.63
670.18	2735.23
670.371	2684.03
670.563	2708.61
670.754	2708.61
670.945	2669.7
671.136	2845.82
671.327	2763.9
671.518	2653.31
671.709	2729.09
671.9	2653.31
672.091	2610.31
672.282	2655.36
672.473	2698.37
672.664	2641.03
672.855	2614.4
673.046	2618.5
673.237	2593.92
673.428	2559.11
673.619	2499.72
673.809	2661.51
674	2493.57
674.191	2587.78
674.382	2514.05
674.573	2628.74
674.764	2563.2
674.954	2618.5
675.145	2526.34
675.336	2536.58
675.527	2548.87
675.717	2407.56
675.908	2575.49
676.099	2397.32
676.289	2409.61
676.48	2387.08
676.671	2452.61
676.861	2477.19
677.052	2364.55
677.243	2391.17
677.433	2327.69
677.624	2395.27
677.814	2460.81
678.005	2434.18
678.195	2282.63
678.386	2401.41
678.576	2307.21
678.767	2378.89
678.957	2419.85
679.148	2333.83
679.338	2319.5
679.529	2368.65
679.719	2178.19
679.909	2438.28
680.1	2368.65
680.29	2440.33
680.481	2296.97
680.671	2311.3
680.861	2391.17
681.052	2440.33
681.242	2237.58
681.432	2401.41
681.622	2260.1
681.813	2348.17
682.003	2321.54
682.193	2145.42
682.383	2344.07
682.573	2352.26
682.764	2333.83
682.954	2202.76
683.144	2327.69
683.334	2210.95
683.524	2204.81
683.714	2213
683.904	2299.02
684.094	2249.86
684.284	2253.96
684.474	2239.62
684.664	2202.76
684.854	2247.82
685.044	2153.61
685.234	2225.29
685.424	2184.33
685.614	2225.29
685.804	2106.51
685.994	2245.77
686.184	2217.1
686.374	2200.71
686.564	2280.58
686.753	2215.05
686.943	2165.9
687.133	2141.32
687.323	2116.75
687.513	2249.86
687.702	2151.56
687.892	2227.34
688.082	2182.28
688.272	2229.38
688.461	2208.9
688.651	2110.6
688.841	2196.62
689.03	2133.13
689.22	2137.23
689.41	2204.81
689.599	2208.9
689.789	2159.75
689.979	2030.73
690.168	2161.8
690.358	2151.56
690.547	2219.14
690.737	2139.27
690.926	2178.19
691.116	2061.45
691.305	2194.57
691.495	2002.06
691.684	2131.08
691.874	2149.51
692.063	2081.93
692.252	2176.14
692.442	2122.89
692.631	2149.51
692.82	2133.13
693.01	2040.97
693.199	2180.23
693.388	2112.65
693.578	2167.95
693.767	2186.38
693.956	2079.88
694.146	2120.84
694.335	2108.55
694.524	2104.46
694.713	2112.65
694.902	2215.05
695.092	2079.88
695.281	2176.14
695.47	2161.8
695.659	2098.31
695.848	2182.28
696.037	2137.23
696.226	2159.75
696.415	2096.27
696.604	2206.86
696.793	2219.14
696.982	2139.27
697.171	2161.8
697.36	1987.72
697.549	2178.19
697.738	2149.51
697.927	2137.23
698.116	2178.19
698.305	2210.95
698.494	2098.31
698.683	2081.93
698.872	2192.52
699.061	2260.1
699.25	2327.69
699.438	2202.76
699.627	2106.51
699.816	2159.75
700.005	2071.69
700.193	2172.04
700.382	2149.51
700.571	2112.65
700.76	2083.98
700.948	2186.38
701.137	2133.13
701.326	2081.93
701.514	2028.68
701.703	2055.31
701.892	2079.88
702.08	2081.93
702.269	2092.17
702.457	2045.07
702.646	2196.62
702.834	2067.6
703.023	2057.36
703.212	2114.7
703.4	2137.23
703.589	2067.6
703.777	2081.93
703.965	2055.31
704.154	2106.51
704.342	2077.83
704.531	2038.92
704.719	2020.49
704.907	2120.84
705.096	2106.51
705.284	2018.44
705.472	2040.97
705.661	2030.73
705.849	2083.98
706.037	2053.26
706.226	1997.96
706.414	2028.68
706.602	1977.48
706.79	2100.36
706.979	2049.16
707.167	1918.09
707.355	2053.26
707.543	1930.38
707.731	1987.72
707.919	2079.88
708.107	1946.76
708.296	1879.18
708.484	1854.61
708.672	2000.01
708.86	2061.45
709.048	1928.33
709.236	1897.61
709.424	1866.89
709.612	1918.09
709.8	1959.05
709.988	1905.81
710.176	1985.68
710.364	1934.48
710.551	1807.5
710.739	1825.93
710.927	1885.33
711.115	1879.18
711.303	1903.76
711.491	1813.65
711.679	1952.91
711.866	1844.37
712.054	1813.65
712.242	1813.65
712.43	1846.41
712.617	1787.02
712.805	1891.47
712.993	1897.61
713.181	1803.41
713.368	1834.13
713.556	1836.17
713.744	1735.82
713.931	1791.12
714.119	1707.15
714.306	1762.45
714.494	1768.59
714.682	1678.48
714.869	1795.22
715.057	1698.96
715.244	1766.54
715.432	1694.86
715.619	1817.74
715.807	1731.73
715.994	1692.82
716.182	1737.87
716.369	1635.47
716.556	1647.76
716.744	1688.72
716.931	1649.81
717.119	1686.67
717.306	1666.19
717.493	1641.62
717.681	1694.86
717.868	1647.76
718.055	1600.66
718.242	1672.34
718.43	1621.14
718.617	1508.5
718.804	1645.71
718.991	1653.91
719.179	1612.95
719.366	1629.33
719.553	1571.99
719.74	1584.27
719.927	1563.79
720.114	1547.41
720.301	1526.93
720.488	1662.1
720.676	1576.08
720.863	1590.42
721.05	1588.37
721.237	1500.31
721.424	1547.41
721.611	1555.6
721.798	1543.32
721.985	1567.89
722.172	1463.44
722.358	1479.83
722.545	1485.97
722.732	1467.54
722.919	1533.08
723.106	1463.44
723.293	1465.49
723.48	1469.59
723.667	1399.96
723.853	1383.57
724.04	1535.12
724.227	1471.64
724.414	1436.82
724.6	1293.46
724.787	1475.73
724.974	1359
725.161	1379.48
725.347	1410.2
725.534	1408.15
725.72	1426.58
725.907	1307.8
726.094	1467.54
726.28	1395.86
726.467	1363.09
726.653	1330.33
726.84	1440.92
727.027	1434.77
727.213	1430.68
727.4	1373.33
727.586	1445.01
727.773	1285.27
727.959	1381.53
728.145	1250.46
728.332	1393.81
728.518	1248.41
728.705	1301.65
728.891	1324.18
729.077	1342.61
729.264	1393.81
729.45	1295.51
729.636	1367.19
729.823	1203.35
730.009	1371.29
730.195	1217.69
730.382	1285.27
730.568	1256.6
730.754	1195.16
730.94	1193.11
731.126	1234.07
731.313	1295.51
731.499	1172.63
731.685	1307.8
731.871	1184.92
732.057	1328.28
732.243	1287.32
732.429	1285.27
732.615	1334.42
732.801	1285.27
732.987	1166.49
733.173	1238.17
733.359	1172.63
733.545	1178.78
733.731	1234.07
733.917	1205.4
734.103	1186.97
734.289	1275.03
734.475	1113.24
734.661	1180.82
734.847	1146.01
735.033	1219.74
735.219	1123.48
735.404	1238.17
735.59	1156.25
735.776	1164.44
735.962	1215.64
736.148	1211.54
736.333	1166.49
736.519	1191.06
736.705	1143.96
736.89	1105.05
737.076	1195.16
737.262	1066.14
737.447	1176.73
737.633	1103
737.819	1213.59
738.004	1154.2
738.19	1049.75
738.375	1123.48
738.561	1092.76
738.747	1158.3
738.932	1137.82
739.118	1129.63
739.303	1119.39
739.489	1041.56
739.674	1047.71
739.859	1014.94
740.045	1068.19
740.23	1154.2
740.416	1047.71
740.601	1041.56
740.786	1064.09
740.972	1111.19
741.157	1078.43
741.342	926.88
741.528	1037.47
741.713	1010.84
741.898	1025.18
742.084	1014.94
742.269	996.51
742.454	992.41
742.639	1021.08
742.824	1029.27
743.01	1045.66
743.195	1094.81
743.38	969.88
743.565	994.46
743.75	945.31
743.935	976.03
744.12	930.97
744.305	969.88
744.49	926.88
744.675	918.68
744.86	1019.04
745.045	955.55
745.23	926.88
745.415	918.68
745.6	922.78
745.785	951.45
745.97	908.44
746.155	951.45
746.34	900.25
746.525	978.08
746.71	928.92
746.895	877.73
747.079	834.72
747.264	963.74
747.449	849.05
747.634	877.73
747.819	873.63
748.003	883.87
748.188	830.62
748.373	855.2
748.557	818.33
748.742	890.01
748.927	742.56
749.111	760.99
749.296	752.8
749.481	883.87
749.665	875.68
749.85	806.05
750.034	736.42
750.219	859.29
750.404	883.87
750.588	750.75
750.773	865.44
750.957	844.96
751.141	744.61
751.326	763.04
751.51	703.65
751.695	750.75
751.879	789.66
752.064	898.2
752.248	699.55
752.432	818.33
752.617	732.32
752.801	713.89
752.985	738.46
753.17	734.37
753.354	765.09
753.538	650.4
753.722	758.94
753.907	732.32
754.091	717.98
754.275	644.26
754.459	699.55
754.643	775.33
754.828	664.74
755.012	728.22
755.196	666.78
755.38	679.07
755.564	724.13
755.748	654.5
755.932	644.26
756.116	586.91
756.3	582.82
756.484	711.84
756.668	644.26
756.852	644.26
757.036	634.02
757.22	629.92
757.404	640.16
757.588	478.37
757.772	619.68
757.956	707.74
758.14	638.11
758.323	531.62
758.507	582.82
758.691	605.35
758.875	644.26
759.059	640.16
759.242	578.72
759.426	556.19
759.61	570.53
759.794	595.11
759.977	558.24
760.161	613.54
760.345	564.39
760.528	562.34
760.712	513.19
760.895	570.53
761.079	517.28
761.263	595.11
761.446	525.47
761.63	484.52
761.813	593.06
761.997	496.8
762.18	453.8
762.364	584.87
762.547	558.24
762.731	484.52
762.914	470.18
763.098	564.39
763.281	535.71
763.464	543.91
763.648	412.84
763.831	507.04
764.015	525.47
764.198	482.47
764.381	582.82
764.564	511.14
764.748	451.75
764.931	488.61
765.114	527.52
765.297	531.62
765.481	425.12
765.664	550.05
765.847	449.7
766.03	500.9
766.213	509.09
766.397	482.47
766.58	453.8
766.763	507.04
766.946	455.84
767.129	545.95
767.312	564.39
767.495	400.55
767.678	418.98
767.861	410.79
768.044	482.47
768.227	470.18
768.41	437.41
768.593	533.67
768.776	502.95
768.959	488.61
769.142	492.71
769.324	433.32
769.507	472.23
769.69	562.34
769.873	519.33
770.056	517.28
770.239	416.93
770.421	488.61
770.604	472.23
770.787	433.32
770.97	421.03
771.152	404.64
771.335	470.18
771.518	392.36
771.7	398.5
771.883	459.94
772.066	359.59
772.248	421.03
772.431	447.65
772.613	461.99
772.796	478.37
772.978	423.08
773.161	513.19
773.343	410.79
773.526	445.6
773.708	439.46
773.891	425.12
774.073	476.32
774.256	410.79
774.438	441.51
774.621	392.36
774.803	414.88
774.985	490.66
775.168	359.59
775.35	257.19
775.532	359.59
775.715	367.78
775.897	382.12
776.079	355.49
776.261	398.5
776.444	431.27
776.626	425.12
776.808	347.3
776.99	349.35
777.173	345.25
777.355	439.46
777.537	275.62
777.719	361.64
777.901	294.05
778.083	386.21
778.265	322.73
778.447	353.45
778.629	388.26
778.811	375.97
778.993	234.66
779.175	400.55
779.357	332.97
779.539	287.91
779.721	312.49
779.903	230.57
780.085	373.92
780.267	371.88
780.449	337.06
780.631	296.1
780.812	347.3
780.994	353.45
781.176	371.88
781.358	279.72
781.54	271.53
781.721	296.1
781.903	277.67
782.085	281.77
782.267	310.44
782.448	365.73
782.63	261.29
782.812	316.58
782.993	316.58
783.175	343.21
783.357	345.25
783.538	320.68
783.72	228.52
783.901	289.96
784.083	296.1
784.264	240.81
784.446	271.53
784.627	371.88
784.809	246.95
784.99	242.85
785.172	271.53
785.353	265.38
785.535	210.09
785.716	275.62
785.897	249
786.079	269.48
786.26	199.85
786.441	316.58
786.623	197.8
786.804	216.23
786.985	234.66
787.167	273.57
787.348	214.18
787.529	320.68
787.71	212.14
787.891	193.7
788.073	199.85
788.254	226.47
788.435	236.71
788.616	201.9
788.797	193.7
788.978	214.18
789.159	246.95
789.34	230.57
789.522	212.14
789.703	236.71
789.884	271.53
790.065	249
790.246	197.8
790.427	210.09
790.607	222.38
790.788	281.77
790.969	255.14
791.15	199.85
791.331	187.56
791.512	238.76
791.693	255.14
791.874	165.03
792.054	193.7
792.235	150.7
792.416	187.56
792.597	136.36
792.778	230.57
792.958	197.8
793.139	152.74
793.32	156.84
793.5	87.21
793.681	195.75
793.862	185.51
794.042	183.46
794.223	113.83
794.404	136.36
794.584	130.22
794.765	142.5
794.945	171.18
795.126	244.9
795.306	175.27
795.487	177.32
795.667	169.13
795.848	165.03
796.028	117.93
796.209	193.7
796.389	154.79
796.57	126.12
796.75	138.41
796.93	162.98
797.111	189.61
797.291	181.42
797.471	187.56
797.652	136.36
797.832	185.51
798.012	224.42
798.192	193.7
798.373	160.94
798.553	152.74
798.733	195.75
798.913	154.79
799.093	216.23
799.274	138.41
799.454	134.31
799.634	218.28
799.814	150.7
799.994	177.32
800.174	113.83
800.354	134.31
800.534	142.5
800.714	171.18
800.894	165.03
801.074	152.74
801.254	181.42
801.434	136.36
801.614	111.78
801.794	107.69
801.974	322.73
802.154	195.75
802.334	99.5
802.514	158.89
802.693	128.17
802.873	195.75
803.053	126.12
803.233	156.84
803.413	107.69
803.592	101.55
803.772	111.78
803.952	113.83
804.131	150.7
804.311	175.27
804.491	117.93
804.67	160.94
804.85	154.79
805.03	138.41
805.209	165.03
805.389	140.46
805.568	70.83
805.748	48.3
805.928	105.64
806.107	119.98
806.287	128.17
806.466	195.75
806.646	85.16
806.825	179.37
807.004	173.22
807.184	115.88
807.363	158.89
807.543	66.73
807.722	167.08
807.901	142.5
808.081	197.8
808.26	122.02
808.439	140.46
808.619	119.98
808.798	152.74
808.977	138.41
809.156	126.12
809.336	142.5
809.515	165.03
809.694	93.35
809.873	115.88
810.052	91.31
810.231	175.27
810.411	167.08
810.59	56.49
810.769	74.92
810.948	132.26
811.127	83.11
811.306	117.93
811.485	68.78
811.664	140.46
811.843	167.08
812.022	124.07
812.201	126.12
812.38	56.49
812.559	15.53
812.737	154.79
812.916	46.25
813.095	99.5
813.274	113.83
813.453	66.73
813.632	107.69
813.811	97.45
813.989	142.5
814.168	136.36
814.347	68.78
814.526	42.15
814.704	91.31
814.883	199.85
815.062	115.88
815.24	142.5
815.419	70.83
815.598	56.49
815.776	79.02
815.955	79.02
816.133	89.26
816.312	105.64
816.49	91.31
816.669	105.64
816.847	56.49
817.026	79.02
817.204	134.31
817.383	79.02
817.561	160.94
817.74	95.4
817.918	115.88
818.097	81.07
818.275	91.31
818.453	83.11
818.632	21.67
818.81	91.31
818.988	13.48
819.167	66.73
819.345	81.07
819.523	56.49
819.701	62.63
819.879	136.36
820.058	48.3
820.236	124.07
820.414	56.49
820.592	142.5
820.77	60.59
820.948	56.49
821.127	70.83
821.305	31.91
821.483	38.06
821.661	93.35
821.839	93.35
822.017	97.45
822.195	40.11
822.373	91.31
822.551	44.2
822.729	91.31
822.907	91.31
823.085	111.78
823.262	105.64
823.44	9.39
823.618	81.07
823.796	58.54
823.974	87.21
824.152	105.64
824.329	66.73
824.507	68.78
824.685	81.07
824.863	193.7
825.04	74.92
825.218	68.78
825.396	136.36
825.574	150.7
825.751	64.68
825.929	107.69
826.107	91.31
826.284	81.07
826.462	29.87
826.639	113.83
826.817	103.59
826.994	117.93
827.172	9.39
827.349	3.24
827.527	83.11
827.704	169.13
827.882	72.87
828.059	97.45
828.237	99.5
828.414	31.91
828.591	38.06
828.769	91.31
828.946	87.21
829.124	72.87
829.301	-25.43
829.478	72.87
829.655	21.67
829.833	66.73
830.01	36.01
830.187	93.35
830.364	111.78
830.542	81.07
830.719	93.35
830.896	89.26
831.073	62.63
831.25	7.34
831.427	68.78
831.604	58.54
831.782	36.01
831.959	46.25
832.136	62.63
832.313	97.45
832.49	38.06
832.667	79.02
832.844	48.3
833.021	136.36
833.198	54.44
833.374	7.34
833.551	29.87
833.728	83.11
833.905	70.83
834.082	-9.05
834.259	-15.19
834.436	-2.9
834.612	33.96
834.789	58.54
834.966	97.45
835.143	109.74
835.319	44.2
835.496	56.49
835.673	17.58
835.85	101.55
836.026	33.96
836.203	83.11
836.38	11.43
836.556	89.26
836.733	56.49
836.909	52.39
837.086	44.2
837.262	89.26
837.439	-25.43
837.616	-0.85
837.792	72.87
837.968	107.69
838.145	25.77
838.321	74.92
838.498	7.34
838.674	76.97
838.851	-23.38
839.027	56.49
839.203	11.43
839.38	42.15
839.556	25.77
839.732	105.64
839.909	74.92
840.085	83.11
840.261	25.77
840.437	111.78
840.614	25.77
840.79	1.19
840.966	70.83
841.142	33.96
841.318	-4.95
841.494	31.91
841.671	5.29
841.847	72.87
842.023	-7
842.199	117.93
842.375	25.77
842.551	52.39
842.727	107.69
842.903	113.83
843.079	81.07
843.255	99.5
843.431	83.11
843.607	-7
843.783	68.78
843.959	-9.05
844.134	46.25
844.31	113.83
844.486	25.77
844.662	36.01
844.838	52.39
845.013	130.22
845.189	62.63
845.365	46.25
845.541	97.45
845.716	101.55
845.892	29.87
846.068	13.48
846.244	36.01
846.419	111.78
846.595	99.5
846.77	64.68
846.946	81.07
847.122	66.73
847.297	31.91
847.473	11.43
847.648	58.54
847.824	64.68
847.999	70.83
848.175	42.15
848.35	-0.85
848.526	5.29
848.701	19.63
848.876	97.45
849.052	68.78
849.227	81.07
849.403	56.49
849.578	42.15
849.753	64.68
849.929	25.77
850.104	-11.09
850.279	31.91
850.454	48.3
850.63	60.59
850.805	70.83
850.98	48.3
851.155	31.91
851.33	89.26
851.505	-27.48
851.681	66.73
851.856	66.73
852.031	62.63
852.206	-9.05
852.381	56.49
852.556	-4.95
852.731	42.15
852.906	5.29
853.081	134.31
853.256	56.49
853.431	-37.72
853.606	31.91
853.781	107.69
853.956	29.87
854.131	42.15
854.305	21.67
854.48	74.92
854.655	-23.38
854.83	60.59
855.005	42.15
855.18	62.63
855.354	-9.05
855.529	7.34
855.704	38.06
855.879	113.83
856.053	9.39
856.228	58.54
856.403	52.39
856.577	42.15
856.752	-17.24
856.926	70.83
857.101	66.73
857.276	95.4
857.45	85.16
857.625	83.11
857.799	68.78
857.974	46.25
858.148	36.01
858.323	64.68
858.497	44.2
858.672	46.25
858.846	-2.9
859.02	66.73
859.195	38.06
859.369	-31.57
859.543	38.06
859.718	66.73
859.892	-17.24
860.066	66.73
860.241	56.49
860.415	60.59
860.589	17.58
860.763	81.07
860.938	15.53
861.112	27.82
861.286	-68.44
861.46	23.72
861.634	101.55
861.808	48.3
861.982	-15.19
862.157	33.96
862.331	11.43
862.505	56.49
862.679	27.82
862.853	7.34
863.027	13.48
863.201	48.3
863.375	29.87
863.549	11.43
863.722	40.11
863.896	-23.38
864.07	85.16
864.244	54.44
864.418	11.43
864.592	81.07
864.766	-13.14
864.939	89.26
865.113	27.82
865.287	44.2
865.461	54.44
865.634	70.83
865.808	74.92
865.982	11.43
866.156	-52.05
866.329	62.63
866.503	-21.33
866.676	66.73
866.85	29.87
867.024	66.73
867.197	52.39
867.371	3.24
867.544	-7
867.718	-13.14
867.891	109.74
868.065	29.87
868.238	5.29
868.412	42.15
868.585	64.68
868.759	83.11
868.932	85.16
869.105	60.59
869.279	19.63
869.452	48.3
869.625	89.26
869.799	105.64
869.972	27.82
870.145	42.15
870.319	13.48
870.492	-27.48
870.665	46.25
870.838	62.63
871.011	17.58
871.185	56.49
871.358	-54.1
871.531	74.92
871.704	23.72
871.877	64.68
872.05	38.06
872.223	56.49
872.396	23.72
872.569	36.01
872.742	-47.96
872.915	11.43
873.088	83.11
873.261	9.39
873.434	19.63
873.607	68.78
873.78	33.96
873.953	31.91
874.126	-13.14
874.299	74.92
874.471	-23.38
874.644	66.73
874.817	25.77
874.99	97.45
875.163	-9.05
875.335	130.22
875.508	50.35
875.681	76.97
875.853	-17.24
876.026	9.39
876.199	5.29
876.371	50.35
876.544	-4.95
876.717	13.48
876.889	-4.95
877.062	56.49
877.234	38.06
877.407	23.72
877.579	-25.43
877.752	76.97
877.924	42.15
878.097	58.54
878.269	33.96
878.442	42.15
878.614	27.82
878.786	13.48
878.959	72.87
879.131	52.39
879.303	48.3
879.476	38.06
879.648	70.83
879.82	19.63
879.993	-21.33
880.165	15.53
880.337	79.02
880.509	54.44
880.681	7.34
880.854	19.63
881.026	115.88
881.198	38.06
881.37	-58.2
881.542	68.78
881.714	74.92
881.886	66.73
882.058	42.15
882.23	103.59
882.402	5.29
882.574	-33.62
882.746	25.77
882.918	7.34
883.09	7.34
883.262	38.06
883.434	91.31
883.606	56.49
883.778	23.72
883.95	74.92
884.122	50.35
884.293	76.97
884.465	25.77
884.637	79.02
884.809	1.19
884.98	52.39
885.152	58.54
885.324	33.96
885.496	1.19
885.667	17.58
885.839	15.53
886.011	109.74
886.182	64.68
886.354	-23.38
886.525	36.01
886.697	5.29
886.869	21.67
887.04	19.63
887.212	23.72
887.383	42.15
887.555	5.29
887.726	15.53
887.897	46.25
888.069	15.53
888.24	15.53
888.412	128.17
888.583	-4.95
888.754	44.2
888.926	9.39
889.097	-39.76
889.268	38.06
889.44	-0.85
889.611	7.34
889.782	97.45
889.953	25.77
890.125	72.87
890.296	9.39
890.467	27.82
890.638	-50
890.809	19.63
890.98	68.78
891.151	66.73
891.323	56.49
891.494	23.72
891.665	42.15
891.836	103.59
892.007	1.19
892.178	31.91
892.349	62.63
892.52	-17.24
892.691	27.82
892.862	76.97
893.032	-19.29
893.203	31.91
893.374	9.39
893.545	60.59
893.716	64.68
893.887	66.73
894.057	40.11
894.228	9.39
894.399	64.68
894.57	3.24
894.74	44.2
894.911	36.01
895.082	-9.05
895.253	68.78
895.423	-21.33
895.594	70.83
895.764	23.72
895.935	-0.85
896.106	-15.19
896.276	130.22
896.447	7.34
896.617	60.59
896.788	-0.85
896.958	89.26
897.129	15.53
897.299	38.06
897.47	40.11
897.64	76.97
897.81	-9.05
897.981	38.06
898.151	13.48
898.322	-9.05
898.492	29.87
898.662	-11.09
898.832	-7
899.003	1.19
899.173	-19.29
899.343	-7
899.513	58.54
