Data from USB4F104151__271__14-02-08-241.txt Node

Date: Thu Mar 13 14:02:08 EDT 2025
User: louis
Spectrometer: USB4F10415
Trigger mode: 4
Integration Time (sec): 1.000000E-2
Scans to average: 1
Electric dark correction enabled: true
Nonlinearity correction enabled: false
Boxcar width: 0
XAxis mode: Wavelengths
Number of Pixels in Spectrum: 3648
>>>>>Begin Spectral Data<<<<<
178.204	-43.01
178.424	-43.01
178.644	-43.01
178.864	-30.72
179.084	-79.87
179.304	55.3
179.524	-63.49
179.744	-57.34
179.964	10.24
180.184	-38.91
180.404	43.01
180.624	61.44
180.844	-16.38
181.064	26.62
181.283	-12.29
181.503	-47.1
181.723	38.91
181.943	6.14
182.163	53.25
182.383	6.14
182.602	53.25
182.822	49.15
183.042	43.01
183.262	51.2
183.482	47.1
183.701	49.15
183.921	51.2
184.141	2.05
184.361	69.63
184.58	34.82
184.8	104.45
185.02	32.77
185.239	124.93
185.459	4.1
185.679	36.86
185.898	20.48
186.118	38.91
186.338	2.05
186.557	79.87
186.777	79.87
186.997	63.49
187.216	-14.34
187.436	-36.86
187.655	47.1
187.875	90.11
188.095	-14.34
188.314	28.67
188.534	-55.3
188.753	67.58
188.973	55.3
189.192	26.62
189.412	61.44
189.631	28.67
189.851	40.96
190.07	-6.14
190.29	38.91
190.509	47.1
190.729	10.24
190.948	61.44
191.168	133.12
191.387	86.01
191.607	100.35
191.826	59.39
192.045	14.34
192.265	53.25
192.484	4.1
192.704	63.49
192.923	-16.38
193.142	102.4
193.362	53.25
193.581	77.82
193.8	38.91
194.02	18.43
194.239	-8.19
194.458	65.53
194.678	-22.53
194.897	34.82
195.116	67.58
195.335	75.77
195.555	-24.58
195.774	34.82
195.993	86.01
196.212	47.1
196.432	43.01
196.651	65.53
196.87	75.77
197.089	28.67
197.308	-4.1
197.528	-53.25
197.747	-6.14
197.966	69.63
198.185	12.29
198.404	59.39
198.623	55.3
198.842	2.05
199.062	83.97
199.281	30.72
199.5	34.82
199.719	14.34
199.938	65.53
200.157	122.88
200.376	67.58
200.595	51.2
200.814	26.62
201.033	6.14
201.252	-32.77
201.471	-22.53
201.69	75.77
201.909	90.11
202.128	92.16
202.347	-12.29
202.566	-24.58
202.785	-22.53
203.004	-22.53
203.223	26.62
203.442	20.48
203.661	-4.1
203.879	26.62
204.098	34.82
204.317	36.86
204.536	-2.05
204.755	81.92
204.974	14.34
205.193	55.3
205.411	77.82
205.63	28.67
205.849	55.3
206.068	-18.43
206.287	32.77
206.505	51.2
206.724	14.34
206.943	83.97
207.162	73.73
207.381	28.67
207.599	18.43
207.818	28.67
208.037	108.54
208.255	55.3
208.474	43.01
208.693	12.29
208.911	28.67
209.13	-14.34
209.349	77.82
209.567	-18.43
209.786	38.91
210.005	79.87
210.223	100.35
210.442	67.58
210.661	75.77
210.879	65.53
211.098	45.06
211.316	24.58
211.535	77.82
211.753	38.91
211.972	67.58
212.191	26.62
212.409	16.38
212.628	100.35
212.846	100.35
213.065	51.2
213.283	20.48
213.502	24.58
213.72	69.63
213.938	-38.91
214.157	-6.14
214.375	34.82
214.594	18.43
214.812	59.39
215.031	45.06
215.249	43.01
215.467	18.43
215.686	51.2
215.904	79.87
216.122	59.39
216.341	10.24
216.559	83.97
216.778	12.29
216.996	57.34
217.214	75.77
217.432	16.38
217.651	-10.24
217.869	43.01
218.087	51.2
218.306	45.06
218.524	6.14
218.742	10.24
218.96	51.2
219.179	83.97
219.397	2.05
219.615	-18.43
219.833	-38.91
220.051	-40.96
220.27	30.72
220.488	-18.43
220.706	77.82
220.924	61.44
221.142	12.29
221.36	6.14
221.578	53.25
221.796	71.68
222.015	2.05
222.233	71.68
222.451	61.44
222.669	-20.48
222.887	-38.91
223.105	40.96
223.323	63.49
223.541	14.34
223.759	53.25
223.977	4.1
224.195	75.77
224.413	75.77
224.631	59.39
224.849	36.86
225.067	118.78
225.285	10.24
225.503	18.43
225.721	79.87
225.939	61.44
226.157	34.82
226.375	67.58
226.592	26.62
226.81	96.25
227.028	53.25
227.246	36.86
227.464	75.77
227.682	24.58
227.9	14.34
228.117	34.82
228.335	14.34
228.553	73.73
228.771	49.15
228.989	100.35
229.206	40.96
229.424	26.62
229.642	120.83
229.86	-6.14
230.077	28.67
230.295	30.72
230.513	28.67
230.731	75.77
230.948	79.87
231.166	18.43
231.384	-28.67
231.601	51.2
231.819	34.82
232.037	63.49
232.254	-71.68
232.472	75.77
232.689	69.63
232.907	8.19
233.125	59.39
233.342	63.49
233.56	-38.91
233.777	4.1
233.995	51.2
234.213	4.1
234.43	30.72
234.648	67.58
234.865	22.53
235.083	4.1
235.3	16.38
235.518	24.58
235.735	36.86
235.953	65.53
236.17	-2.05
236.388	18.43
236.605	59.39
236.822	75.77
237.04	51.2
237.257	71.68
237.475	38.91
237.692	45.06
237.909	-63.49
238.127	40.96
238.344	30.72
238.562	0
238.779	43.01
238.996	51.2
239.214	24.58
239.431	53.25
239.648	30.72
239.865	18.43
240.083	100.35
240.3	88.06
240.517	2.05
240.735	20.48
240.952	16.38
241.169	53.25
241.386	102.4
241.603	18.43
241.821	79.87
242.038	32.77
242.255	22.53
242.472	61.44
242.689	26.62
242.907	124.93
243.124	10.24
243.341	30.72
243.558	86.01
243.775	77.82
243.992	26.62
244.209	20.48
244.426	120.83
244.643	34.82
244.86	24.58
245.078	77.82
245.295	2.05
245.512	114.69
245.729	-40.96
245.946	61.44
246.163	81.92
246.38	30.72
246.597	10.24
246.814	61.44
247.031	-2.05
247.248	34.82
247.464	47.1
247.681	118.78
247.898	34.82
248.115	-63.49
248.332	79.87
248.549	18.43
248.766	-22.53
248.983	75.77
249.2	-6.14
249.417	94.21
249.633	-26.62
249.85	26.62
250.067	24.58
250.284	102.4
250.501	73.73
250.717	43.01
250.934	-4.1
251.151	-28.67
251.368	63.49
251.585	-30.72
251.801	22.53
252.018	18.43
252.235	28.67
252.451	104.45
252.668	-6.14
252.885	63.49
253.102	77.82
253.318	116.73
253.535	20.48
253.752	43.01
253.968	26.62
254.185	36.86
254.401	81.92
254.618	51.2
254.835	28.67
255.051	92.16
255.268	77.82
255.484	124.93
255.701	65.53
255.917	-12.29
256.134	10.24
256.351	-10.24
256.567	10.24
256.784	-2.05
257	92.16
257.217	34.82
257.433	69.63
257.65	43.01
257.866	53.25
258.082	22.53
258.299	59.39
258.515	-14.34
258.732	53.25
258.948	47.1
259.165	47.1
259.381	-16.38
259.597	51.2
259.814	63.49
260.03	-6.14
260.246	43.01
260.463	-28.67
260.679	18.43
260.895	55.3
261.112	-6.14
261.328	47.1
261.544	36.86
261.761	36.86
261.977	94.21
262.193	-4.1
262.409	14.34
262.626	92.16
262.842	34.82
263.058	43.01
263.274	14.34
263.49	18.43
263.707	8.19
263.923	34.82
264.139	6.14
264.355	112.64
264.571	6.14
264.787	112.64
265.004	-86.01
265.22	4.1
265.436	45.06
265.652	-51.2
265.868	77.82
266.084	20.48
266.3	57.34
266.516	90.11
266.732	108.54
266.948	83.97
267.164	26.62
267.38	43.01
267.596	59.39
267.812	49.15
268.028	26.62
268.244	20.48
268.46	53.25
268.676	51.2
268.892	53.25
269.108	53.25
269.324	77.82
269.54	18.43
269.756	40.96
269.972	-16.38
270.188	36.86
270.403	69.63
270.619	40.96
270.835	90.11
271.051	69.63
271.267	69.63
271.483	14.34
271.698	22.53
271.914	88.06
272.13	24.58
272.346	61.44
272.562	47.1
272.777	133.12
272.993	28.67
273.209	36.86
273.425	22.53
273.64	53.25
273.856	61.44
274.072	102.4
274.287	53.25
274.503	28.67
274.719	61.44
274.934	22.53
275.15	36.86
275.366	-16.38
275.581	-6.14
275.797	67.58
276.012	12.29
276.228	28.67
276.444	38.91
276.659	45.06
276.875	26.62
277.09	53.25
277.306	4.1
277.521	34.82
277.737	116.73
277.952	30.72
278.168	26.62
278.383	73.73
278.599	83.97
278.814	129.02
279.03	28.67
279.245	12.29
279.461	6.14
279.676	61.44
279.892	-6.14
280.107	100.35
280.322	47.1
280.538	45.06
280.753	0
280.969	38.91
281.184	10.24
281.399	-2.05
281.615	8.19
281.83	0
282.045	36.86
282.26	30.72
282.476	30.72
282.691	71.68
282.906	81.92
283.122	88.06
283.337	45.06
283.552	71.68
283.767	-6.14
283.983	49.15
284.198	43.01
284.413	83.97
284.628	96.25
284.843	-22.53
285.058	100.35
285.274	67.58
285.489	43.01
285.704	40.96
285.919	49.15
286.134	40.96
286.349	96.25
286.564	20.48
286.779	34.82
286.995	88.06
287.21	61.44
287.425	51.2
287.64	26.62
287.855	102.4
288.07	34.82
288.285	63.49
288.5	104.45
288.715	92.16
288.93	40.96
289.145	40.96
289.36	94.21
289.575	30.72
289.79	55.3
290.004	88.06
290.219	61.44
290.434	59.39
290.649	-53.25
290.864	-10.24
291.079	26.62
291.294	38.91
291.509	36.86
291.724	100.35
291.938	90.11
292.153	24.58
292.368	34.82
292.583	108.54
292.798	2.05
293.012	43.01
293.227	69.63
293.442	61.44
293.657	75.77
293.871	79.87
294.086	55.3
294.301	16.38
294.516	34.82
294.73	16.38
294.945	57.34
295.16	-2.05
295.374	43.01
295.589	65.53
295.804	63.49
296.018	79.87
296.233	108.54
296.447	0
296.662	14.34
296.877	98.3
297.091	67.58
297.306	112.64
297.52	-24.58
297.735	96.25
297.949	22.53
298.164	26.62
298.378	112.64
298.593	20.48
298.807	-6.14
299.022	49.15
299.236	28.67
299.451	94.21
299.665	30.72
299.88	67.58
300.094	55.3
300.309	32.77
300.523	71.68
300.737	94.21
300.952	26.62
301.166	47.1
301.381	20.48
301.595	32.77
301.809	34.82
302.024	124.93
302.238	36.86
302.452	43.01
302.667	10.24
302.881	34.82
303.095	61.44
303.309	49.15
303.524	34.82
303.738	53.25
303.952	-26.62
304.166	51.2
304.381	-6.14
304.595	75.77
304.809	40.96
305.023	34.82
305.237	-4.1
305.452	4.1
305.666	22.53
305.88	79.87
306.094	104.45
306.308	108.54
306.522	71.68
306.736	4.1
306.95	-28.67
307.164	51.2
307.379	-6.14
307.593	176.13
307.807	73.73
308.021	18.43
308.235	28.67
308.449	43.01
308.663	36.86
308.877	18.43
309.091	104.45
309.305	38.91
309.519	-16.38
309.733	116.73
309.947	36.86
310.161	24.58
310.374	40.96
310.588	16.38
310.802	2.05
311.016	24.58
311.23	49.15
311.444	133.12
311.658	71.68
311.872	-6.14
312.085	86.01
312.299	20.48
312.513	135.17
312.727	-12.29
312.941	18.43
313.154	90.11
313.368	6.14
313.582	57.34
313.796	12.29
314.009	73.73
314.223	16.38
314.437	75.77
314.651	16.38
314.864	83.97
315.078	59.39
315.292	20.48
315.505	34.82
315.719	-12.29
315.933	36.86
316.146	79.87
316.36	16.38
316.573	24.58
316.787	14.34
317.001	45.06
317.214	88.06
317.428	86.01
317.641	26.62
317.855	124.93
318.068	139.26
318.282	47.1
318.495	59.39
318.709	92.16
318.922	-2.05
319.136	116.73
319.349	81.92
319.563	-28.67
319.776	34.82
319.99	92.16
320.203	71.68
320.417	96.25
320.63	28.67
320.843	73.73
321.057	106.49
321.27	30.72
321.483	102.4
321.697	65.53
321.91	43.01
322.124	49.15
322.337	75.77
322.55	112.64
322.763	71.68
322.977	104.45
323.19	16.38
323.403	20.48
323.617	18.43
323.83	67.58
324.043	38.91
324.256	67.58
324.469	8.19
324.683	22.53
324.896	36.86
325.109	106.49
325.322	40.96
325.535	14.34
325.748	45.06
325.962	36.86
326.175	43.01
326.388	75.77
326.601	102.4
326.814	34.82
327.027	69.63
327.24	24.58
327.453	10.24
327.666	6.14
327.879	28.67
328.092	108.54
328.305	4.1
328.518	26.62
328.731	36.86
328.944	92.16
329.157	98.3
329.37	69.63
329.583	6.14
329.796	40.96
330.009	83.97
330.222	28.67
330.435	79.87
330.648	75.77
330.861	57.34
331.073	0
331.286	16.38
331.499	36.86
331.712	83.97
331.925	-28.67
332.138	18.43
332.35	86.01
332.563	28.67
332.776	43.01
332.989	28.67
333.202	49.15
333.414	116.73
333.627	59.39
333.84	30.72
334.053	69.63
334.265	77.82
334.478	100.35
334.691	28.67
334.903	67.58
335.116	47.1
335.329	-30.72
335.541	45.06
335.754	69.63
335.966	59.39
336.179	47.1
336.392	-4.1
336.604	53.25
336.817	98.3
337.029	94.21
337.242	28.67
337.454	55.3
337.667	32.77
337.88	94.21
338.092	106.49
338.305	92.16
338.517	53.25
338.729	75.77
338.942	24.58
339.154	38.91
339.367	45.06
339.579	10.24
339.792	24.58
340.004	38.91
340.217	81.92
340.429	135.17
340.641	34.82
340.854	47.1
341.066	-10.24
341.278	59.39
341.491	141.31
341.703	40.96
341.915	20.48
342.128	81.92
342.34	47.1
342.552	112.64
342.764	108.54
342.977	75.77
343.189	67.58
343.401	16.38
343.613	63.49
343.826	69.63
344.038	83.97
344.25	22.53
344.462	-6.14
344.674	75.77
344.886	63.49
345.099	47.1
345.311	124.93
345.523	59.39
345.735	26.62
345.947	59.39
346.159	18.43
346.371	126.97
346.583	47.1
346.795	12.29
347.007	26.62
347.219	75.77
347.431	40.96
347.643	104.45
347.855	45.06
348.067	43.01
348.279	98.3
348.491	34.82
348.703	34.82
348.915	100.35
349.127	106.49
349.339	75.77
349.551	45.06
349.763	24.58
349.975	36.86
350.187	69.63
350.399	83.97
350.61	53.25
350.822	-30.72
351.034	55.3
351.246	14.34
351.458	-6.14
351.669	10.24
351.881	49.15
352.093	28.67
352.305	47.1
352.517	75.77
352.728	174.08
352.94	104.45
353.152	108.54
353.363	-36.86
353.575	43.01
353.787	71.68
353.999	34.82
354.21	63.49
354.422	131.07
354.633	96.25
354.845	77.82
355.057	53.25
355.268	67.58
355.48	98.3
355.692	28.67
355.903	81.92
356.115	94.21
356.326	43.01
356.538	110.59
356.749	69.63
356.961	47.1
357.172	30.72
357.384	30.72
357.595	77.82
357.807	45.06
358.018	86.01
358.23	75.77
358.441	104.45
358.653	14.34
358.864	102.4
359.075	22.53
359.287	40.96
359.498	135.17
359.709	28.67
359.921	49.15
360.132	18.43
360.344	77.82
360.555	83.97
360.766	67.58
360.977	53.25
361.189	96.25
361.4	79.87
361.611	71.68
361.823	90.11
362.034	92.16
362.245	24.58
362.456	98.3
362.667	61.44
362.879	45.06
363.09	88.06
363.301	26.62
363.512	30.72
363.723	28.67
363.935	114.69
364.146	34.82
364.357	71.68
364.568	51.2
364.779	14.34
364.99	94.21
365.201	108.54
365.412	53.25
365.623	36.86
365.834	67.58
366.045	49.15
366.256	75.77
366.467	45.06
366.678	43.01
366.889	133.12
367.1	49.15
367.311	79.87
367.522	14.34
367.733	47.1
367.944	-14.34
368.155	112.64
368.366	47.1
368.577	47.1
368.788	53.25
368.999	43.01
369.209	86.01
369.42	16.38
369.631	157.69
369.842	40.96
370.053	38.91
370.264	22.53
370.474	61.44
370.685	47.1
370.896	88.06
371.107	20.48
371.317	67.58
371.528	124.93
371.739	188.41
371.95	71.68
372.16	-16.38
372.371	59.39
372.582	26.62
372.792	73.73
373.003	67.58
373.214	90.11
373.424	116.73
373.635	75.77
373.846	116.73
374.056	71.68
374.267	77.82
374.477	47.1
374.688	51.2
374.898	22.53
375.109	36.86
375.319	28.67
375.53	90.11
375.74	10.24
375.951	69.63
376.161	63.49
376.372	106.49
376.582	2.05
376.793	34.82
377.003	86.01
377.214	22.53
377.424	22.53
377.635	14.34
377.845	12.29
378.055	57.34
378.266	4.1
378.476	98.3
378.686	157.69
378.897	20.48
379.107	47.1
379.317	94.21
379.528	24.58
379.738	75.77
379.948	47.1
380.158	100.35
380.369	102.4
380.579	59.39
380.789	45.06
380.999	4.1
381.21	106.49
381.42	75.77
381.63	88.06
381.84	86.01
382.05	28.67
382.261	83.97
382.471	90.11
382.681	61.44
382.891	149.5
383.101	100.35
383.311	30.72
383.521	61.44
383.731	67.58
383.941	18.43
384.151	0
384.361	88.06
384.571	83.97
384.781	69.63
384.991	69.63
385.201	110.59
385.411	100.35
385.621	92.16
385.831	94.21
386.041	8.19
386.251	51.2
386.461	131.07
386.671	40.96
386.881	100.35
387.091	83.97
387.301	61.44
387.511	10.24
387.72	98.3
387.93	141.31
388.14	83.97
388.35	10.24
388.56	83.97
388.769	57.34
388.979	118.78
389.189	59.39
389.399	108.54
389.609	67.58
389.818	94.21
390.028	100.35
390.238	100.35
390.447	94.21
390.657	63.49
390.867	75.77
391.076	61.44
391.286	-2.05
391.496	112.64
391.705	77.82
391.915	86.01
392.125	118.78
392.334	100.35
392.544	79.87
392.753	69.63
392.963	102.4
393.172	141.31
393.382	-47.1
393.591	116.73
393.801	49.15
394.01	147.45
394.22	34.82
394.429	69.63
394.639	86.01
394.848	73.73
395.058	-10.24
395.267	174.08
395.477	49.15
395.686	79.87
395.895	139.26
396.105	108.54
396.314	57.34
396.524	147.45
396.733	135.17
396.942	96.25
397.152	63.49
397.361	155.65
397.57	51.2
397.78	110.59
397.989	77.82
398.198	124.93
398.407	69.63
398.617	122.88
398.826	34.82
399.035	174.08
399.244	67.58
399.453	83.97
399.663	129.02
399.872	118.78
400.081	47.1
400.29	102.4
400.499	98.3
400.708	120.83
400.917	108.54
401.127	219.13
401.336	49.15
401.545	124.93
401.754	36.86
401.963	126.97
402.172	100.35
402.381	153.6
402.59	200.7
402.799	186.37
403.008	67.58
403.217	94.21
403.426	202.75
403.635	108.54
403.844	143.36
404.053	180.22
404.262	204.8
404.471	169.98
404.68	124.93
404.888	167.93
405.097	169.98
405.306	161.79
405.515	153.6
405.724	141.31
405.933	129.02
406.142	204.8
406.35	118.78
406.559	102.4
406.768	141.31
406.977	178.17
407.185	247.8
407.394	251.9
407.603	184.32
407.812	155.65
408.02	256
408.229	194.56
408.438	149.5
408.646	210.94
408.855	190.46
409.064	221.18
409.272	266.24
409.481	280.57
409.69	337.91
409.898	249.85
410.107	256
410.315	200.7
410.524	284.67
410.733	258.04
410.941	329.72
411.15	421.88
411.358	385.02
411.567	403.45
411.775	380.92
411.984	344.06
412.192	364.54
412.401	393.21
412.609	395.26
412.818	403.45
413.026	434.17
413.234	475.13
413.443	454.65
413.651	471.03
413.86	528.38
414.068	559.1
414.276	497.66
414.485	628.73
414.693	571.38
414.901	575.48
415.11	569.34
415.318	622.58
415.526	665.59
415.734	618.49
415.943	698.36
416.151	708.6
416.359	765.94
416.567	692.21
416.776	790.52
416.984	806.9
417.192	827.38
417.4	931.83
417.608	817.14
417.817	888.82
418.025	944.11
418.233	1157.1
418.441	1066.99
418.649	1001.46
418.857	1165.29
419.065	1083.38
419.273	1107.95
419.481	1148.91
419.689	1257.45
419.897	1316.84
420.105	1333.23
420.313	1308.65
420.521	1402.86
420.729	1392.62
420.937	1509.35
421.145	1533.93
421.353	1617.9
421.561	1660.9
421.769	1748.97
421.977	1837.03
422.185	1771.49
422.393	1943.52
422.601	1984.48
422.809	2066.4
423.017	2027.49
423.224	2066.4
423.432	2197.47
423.64	2254.81
423.848	2410.46
424.056	2263.01
424.263	2564.06
424.471	2457.56
424.679	2439.13
424.887	2682.84
425.094	2820.05
425.302	2676.7
425.51	2846.68
425.718	2918.36
425.925	2967.51
426.133	3133.39
426.341	3248.08
426.548	3342.28
426.756	3401.68
426.964	3585.99
427.171	3680.2
427.379	3643.34
427.586	3708.87
427.794	4020.16
428.001	3960.77
428.209	4239.3
428.417	4097.99
428.624	4536.25
428.832	4564.92
429.039	4433.85
429.247	4462.52
429.454	5117.87
429.662	5195.7
429.869	4919.22
430.076	5373.87
430.284	5064.63
430.491	5347.25
430.699	5623.72
430.906	5511.08
431.114	5666.73
431.321	5828.52
431.528	5994.4
431.736	6436.77
431.943	6602.65
432.15	6496.16
432.358	6434.72
432.565	6768.54
432.772	6930.33
432.979	7262.1
433.187	7348.11
433.394	7393.17
433.601	7921.54
433.808	7985.03
434.016	7702.41
434.223	8099.72
434.43	8308.61
434.637	8556.41
434.844	9015.16
435.052	9117.56
435.259	9156.47
435.466	9308.02
435.673	9056.12
435.88	9850.73
436.087	10280.8
436.294	10358.63
436.501	9922.41
436.708	10157.92
436.915	10626.91
437.122	10874.71
437.329	11030.36
437.537	11405.14
437.743	11568.98
437.95	11312.98
438.157	12144.45
438.364	12216.13
438.571	12310.34
438.778	12574.53
438.985	13467.44
439.192	13080.38
439.399	13274.93
439.606	13301.56
439.813	13838.12
440.02	14972.7
440.227	14382.88
440.433	14280.49
440.64	14929.69
440.847	14647.07
441.054	15013.66
441.261	16031.5
441.467	15654.67
441.674	16375.56
441.881	16584.45
442.088	16643.84
442.294	16359.17
442.501	16774.91
442.708	17385.21
442.914	18079.47
443.121	18769.63
443.328	18300.65
443.534	19769.04
443.741	19173.08
443.948	18677.47
444.154	20008.65
444.361	19932.88
444.568	19949.26
444.774	20446.92
444.981	20242.12
445.187	20965.06
445.394	21825.2
445.6	21415.61
445.807	23633.56
446.013	22582.95
446.22	22902.43
446.426	24010.39
446.633	24266.38
446.839	24817.29
447.046	23815.83
447.252	25093.76
447.459	25286.27
447.665	24919.68
447.871	26367.6
448.078	27594.33
448.284	25984.63
448.491	26971.75
448.697	28032.6
448.903	28223.06
449.11	28405.33
449.316	27954.77
449.522	28198.48
449.728	28649.03
449.935	29482.56
450.141	29310.53
450.347	29582.91
450.553	28857.93
450.76	29199.94
450.966	30246.45
451.172	29439.55
451.378	30434.86
451.584	30021.17
451.791	30721.58
451.997	30733.87
452.203	31194.66
452.409	31464.99
452.615	30682.67
452.821	29863.48
453.027	29404.74
453.233	30926.38
453.44	29677.12
453.646	29810.23
453.852	29754.94
454.058	30901.8
454.264	29423.17
454.47	30369.33
454.676	29728.31
454.882	30434.86
455.088	27946.58
455.294	28634.7
455.5	28507.72
455.705	28905.03
455.911	27868.76
456.117	27100.77
456.323	26920.55
456.529	25736.82
456.735	26758.76
456.941	25994.87
457.147	25595.51
457.352	25050.75
457.558	24721.03
457.764	24647.3
457.97	23879.32
458.176	23602.84
458.381	23352.99
458.587	22351.53
458.793	22523.56
458.999	21319.35
459.204	22828.71
459.41	22048.43
459.616	20553.41
459.821	20680.39
460.027	20510.41
460.233	19932.88
460.438	19422.94
460.644	19429.08
460.85	18661.09
461.055	18310.89
461.261	18396.9
461.466	17020.67
461.672	16275.21
461.878	17362.68
462.083	16420.61
462.289	16008.97
462.494	15982.35
462.7	15396.63
462.905	14931.74
463.111	15496.98
463.316	15417.11
463.522	14937.88
463.727	14944.03
463.932	14901.02
464.138	15034.14
464.343	15206.17
464.549	14452.52
464.754	14991.13
464.959	14991.13
465.165	14841.63
465.37	14255.91
465.575	13838.12
465.781	14321.45
465.986	14505.76
466.191	14053.16
466.397	13467.44
466.602	12894.01
466.807	13580.08
467.012	13551.41
467.218	13342.52
467.423	13254.45
467.628	13492.02
467.833	14022.44
468.038	13160.25
468.244	12857.15
468.449	13520.69
468.654	13080.38
468.859	13084.47
469.064	12857.15
469.269	12341.06
469.474	12431.17
469.679	12693.31
469.885	12267.33
470.09	12556.1
470.295	12431.17
470.5	12148.55
470.705	12185.41
470.91	12130.12
471.115	11759.44
471.32	11964.23
471.525	11847.5
471.73	11700.05
471.935	11657.04
472.139	11349.84
472.344	11261.78
472.549	11206.49
472.754	11216.72
472.959	11181.91
473.164	10708.83
473.369	10493.79
473.574	10880.86
473.778	10735.45
473.983	10647.39
474.188	10831.71
474.393	10282.85
474.598	10450.78
474.802	10022.76
475.007	10159.97
475.212	10010.47
475.417	9774.95
475.621	9779.05
475.826	9901.93
476.031	9518.96
476.235	9439.09
476.44	9613.17
476.645	9334.64
476.849	9504.62
477.054	9187.19
477.259	9301.87
477.463	9191.28
477.668	8984.44
477.872	9043.83
478.077	8888.18
478.282	8535.93
478.486	8580.99
478.691	8423.3
478.895	8566.65
479.1	8544.13
479.304	8521.6
479.509	8185.73
479.713	8398.72
479.918	8112
480.122	8054.66
480.326	8138.63
480.531	8085.38
480.735	8073.09
480.94	7862.15
481.144	8322.94
481.348	7919.5
481.553	7872.39
481.757	7933.83
481.961	8198.02
482.166	7942.02
482.37	8161.16
482.574	7722.89
482.778	7769.99
482.983	7944.07
483.187	7845.77
483.391	7921.54
483.595	7729.03
483.8	7813
484.004	7899.02
484.208	7839.62
484.412	7843.72
484.616	7810.95
484.821	7806.86
485.025	7612.3
485.229	8052.61
485.433	7751.56
485.637	7759.75
485.841	7825.29
486.045	7679.88
486.249	7720.84
486.453	7958.41
486.657	7825.29
486.861	8011.65
487.065	7593.87
487.269	7665.55
487.473	7690.12
487.677	7735.18
487.881	7870.34
488.085	7780.23
488.289	7806.86
488.493	7665.55
488.697	7894.92
488.901	7894.92
489.105	7800.71
489.309	7823.24
489.512	8052.61
489.716	7882.63
489.92	7935.88
490.124	7853.96
490.328	8138.63
490.531	7821.19
490.735	7788.43
490.939	8144.77
491.143	8038.28
491.346	7907.21
491.55	8165.25
491.754	8097.67
491.958	8103.81
492.161	8161.16
492.365	8345.47
492.569	8169.35
492.772	8062.85
492.976	8228.74
493.18	8421.25
493.383	8433.54
493.587	8374.14
493.79	8707.96
493.994	8513.41
494.197	8599.42
494.401	8531.84
494.605	8656.76
494.808	8884.09
495.012	8779.64
495.215	8972.15
495.419	8923
495.622	9047.93
495.825	9135.99
496.029	9074.55
496.232	9242.48
496.436	9105.27
496.639	9443.18
496.843	9324.4
497.046	9705.32
497.249	9590.64
497.453	9670.51
497.656	10022.76
497.859	9789.29
498.063	9965.42
498.266	10033
498.469	10239.84
498.673	10393.44
498.876	10422.11
499.079	10561.37
499.282	10512.22
499.485	10803.04
499.689	10741.6
499.892	11099.99
500.095	11114.33
500.298	11265.88
500.501	11394.9
500.705	11552.59
500.908	11771.72
501.111	11851.6
501.314	11958.09
501.517	11872.07
501.72	12255.04
501.923	12103.5
502.126	12363.59
502.329	12566.34
502.532	12771.13
502.735	12631.87
502.938	13012.79
503.141	13127.48
503.344	13360.95
503.547	13113.14
503.75	13418.29
503.953	13627.18
504.156	13907.76
504.359	13993.77
504.562	14034.73
504.765	14540.58
504.968	14503.71
505.17	14759.71
505.373	15025.95
505.576	15157.02
505.779	15320.85
505.982	15316.76
506.185	15550.23
506.387	15664.91
506.59	15828.75
506.793	16142.09
506.996	16164.62
507.198	16600.83
507.401	16353.03
507.604	16813.82
507.807	17172.22
508.009	17082.11
508.212	17157.88
508.415	17671.92
508.617	17815.28
508.82	17891.05
509.022	17762.03
509.225	18280.17
509.428	18102
509.63	18689.76
509.833	18849.5
510.035	19445.46
510.238	19054.3
510.44	19429.08
510.643	19551.96
510.845	20025.04
511.048	19730.13
511.25	20266.7
511.453	20477.64
511.655	20965.06
511.858	20881.09
512.06	21204.67
512.262	21317.31
512.465	21403.32
512.667	21657.27
512.87	21886.64
513.072	21702.32
513.274	22396.59
513.477	22775.46
513.679	22777.51
513.881	23021.22
514.084	23191.2
514.286	23271.07
514.488	23928.47
514.69	24278.67
514.893	24641.16
515.095	24462.99
515.297	24784.52
515.499	25003.65
515.701	25212.54
515.904	25620.09
516.106	25712.25
516.308	26152.56
516.51	26465.9
516.712	26310.25
516.914	27082.34
517.116	27194.98
517.318	27369.05
517.52	27551.32
517.722	27528.8
517.925	28081.75
518.127	28278.35
518.329	28290.64
518.531	28612.17
518.733	29019.72
518.935	29433.41
519.136	29247.04
519.338	30203.44
519.54	30090.8
519.742	30264.88
519.944	30535.21
520.146	31133.22
520.348	31237.67
520.55	31479.33
520.752	31565.34
520.954	32259.6
521.155	31911.45
521.357	32206.36
521.559	32685.58
521.761	33177.09
521.963	33121.8
522.164	33340.93
522.366	33650.17
522.568	33723.9
522.77	34039.29
522.971	34670.06
523.173	34211.32
523.375	34649.58
523.576	34835.95
523.778	34862.57
523.98	35638.75
524.181	35915.23
524.383	35458.53
524.584	36136.41
524.786	36124.12
524.988	35861.98
525.189	36605.39
525.391	36720.08
525.592	36752.85
525.794	37082.57
525.995	37324.23
526.197	37324.23
526.398	37348.81
526.6	37696.96
526.801	37760.45
527.003	38006.2
527.204	37828.03
527.406	38499.76
527.607	38309.3
527.808	38380.98
528.01	38342.07
528.211	38583.73
528.412	39024.04
528.614	39187.88
528.815	39222.7
529.016	39937.44
529.218	38872.49
529.419	39595.43
529.62	39245.23
529.822	39388.58
530.023	39265.7
530.224	39554.47
530.425	39415.21
530.626	39488.93
530.828	39654.82
531.029	40353.18
531.23	39611.81
531.431	39685.54
531.632	40021.41
531.833	40490.39
532.035	39843.23
532.236	40070.56
532.437	40277.4
532.638	39640.48
532.839	40287.64
533.04	40250.78
533.241	40218.01
533.442	40664.47
533.643	40660.37
533.844	40359.32
534.045	40652.18
534.246	40191.39
534.447	40394.14
534.648	40766.87
534.849	40727.95
535.05	40316.31
535.251	40809.87
535.451	40437.14
535.652	40543.64
535.853	40527.25
536.054	40920.46
536.255	41125.26
536.456	40600.98
536.657	41311.63
536.857	40263.07
537.058	40803.73
537.259	41176.46
537.46	40523.16
537.66	40377.75
537.861	41010.57
538.062	40687
538.263	40869.26
538.463	40791.44
538.664	40600.98
538.865	40781.2
539.065	40699.28
539.266	40543.64
539.466	41239.95
539.667	40588.69
539.868	41211.28
540.068	40834.45
540.269	40512.92
540.469	41147.79
540.67	40564.12
540.87	40789.39
541.071	40707.47
541.271	40779.15
541.472	40615.32
541.672	40576.4
541.873	40344.98
542.073	40406.42
542.274	40879.5
542.474	40414.62
542.675	40000.93
542.875	40719.76
543.075	40416.66
543.276	40150.43
543.476	40881.55
543.676	40279.45
543.877	40480.15
544.077	40820.11
544.277	40500.63
544.478	40785.3
544.678	40701.33
544.878	40451.48
545.078	40783.25
545.279	40187.29
545.479	40314.26
545.679	40109.47
545.879	40623.51
546.079	40529.3
546.28	40799.63
546.48	40404.38
546.68	40310.17
546.88	40586.64
547.08	40306.07
547.28	40461.72
547.48	40080.8
547.68	40484.25
547.88	39921.05
548.081	40250.78
548.281	40600.98
548.481	40484.25
548.681	40385.94
548.881	40330.65
549.081	40258.97
549.28	40162.72
549.48	40136.09
549.68	40152.48
549.88	40897.94
550.08	40187.29
550.28	40652.18
550.48	40099.23
550.68	40646.04
550.88	39902.62
551.08	40072.6
551.279	40086.94
551.479	39896.48
551.679	40375.7
551.879	40275.35
552.079	40279.45
552.278	39990.69
552.478	40387.99
552.678	40336.79
552.878	40486.29
553.077	40005.02
553.277	39746.98
553.477	40361.37
553.676	39718.31
553.876	40136.09
554.076	39687.59
554.275	39669.15
554.475	39490.98
554.674	40078.75
554.874	40078.75
555.074	39572.9
555.273	39751.07
555.473	40005.02
555.672	39904.67
555.872	39587.24
556.071	39777.7
556.271	39865.76
556.47	39730.59
556.67	39341.48
556.869	39255.46
557.068	39568.8
557.268	39130.54
557.467	39189.93
557.667	39298.47
557.866	39359.91
558.065	39122.35
558.265	39255.46
558.464	38823.34
558.663	39171.5
558.863	38454.71
559.062	39452.07
559.261	38313.4
559.461	39294.38
559.66	38344.12
559.859	38391.22
560.058	38409.65
560.258	38823.34
560.457	38495.67
560.656	38634.93
560.855	38536.63
561.054	38722.99
561.253	38233.53
561.453	38380.98
561.652	38501.81
561.851	38682.03
562.05	38213.05
562.249	38118.84
562.448	38157.75
562.647	38247.86
562.846	37918.14
563.045	37973.44
563.244	37574.08
563.443	37944.76
563.642	37760.45
563.841	37453.25
564.04	37209.54
564.239	38151.61
564.438	37193.16
564.637	37410.25
564.836	37410.25
565.035	37385.67
565.234	37375.43
565.432	37273.03
565.631	36881.87
565.83	37471.68
566.029	36808.14
566.228	37037.51
566.427	36980.17
566.625	36474.32
566.824	36736.46
567.023	36662.74
567.222	36285.91
567.42	36783.57
567.619	36476.37
567.818	36539.86
568.016	36072.92
568.215	36480.47
568.414	35888.6
568.612	36500.95
568.811	36046.3
569.01	35943.9
569.208	35468.77
569.407	35927.52
569.605	35827.17
569.804	36005.34
570.002	35046.89
570.201	35640.8
570.4	35024.36
570.598	35184.1
570.797	35130.86
570.995	35231.21
571.193	34731.5
571.392	35204.58
571.59	34805.23
571.789	34852.33
571.987	34598.38
572.186	34407.92
572.384	34633.2
572.582	34283
572.781	34594.29
572.979	33709.57
573.177	34088.44
573.376	34250.23
573.574	34102.78
573.772	34094.58
573.971	33635.84
574.169	33560.06
574.367	33555.97
574.565	33680.89
574.763	33265.16
574.962	32712.2
575.16	33054.22
575.358	32929.29
575.556	32779.79
575.754	33342.98
575.952	32923.15
576.151	32949.77
576.349	32763.4
576.547	32601.61
576.745	32570.89
576.943	32529.94
577.141	32445.97
577.339	32683.53
577.537	32206.36
577.735	32296.47
577.933	31938.07
578.131	32050.71
578.329	32003.61
578.527	31571.49
578.725	31426.08
578.923	31929.88
579.121	31567.39
579.319	31481.38
579.516	31493.66
579.714	31241.76
579.912	31319.59
580.11	31088.17
580.308	31413.79
580.506	30647.85
580.704	30457.39
580.901	31161.89
581.099	30805.55
581.297	30541.36
581.495	30090.8
581.692	30563.89
581.89	30266.93
582.088	30613.04
582.285	30086.71
582.483	30453.3
582.681	30025.27
582.878	29959.73
583.076	29697.59
583.274	30117.43
583.471	29443.65
583.669	29701.69
583.866	29277.76
584.064	29521.47
584.262	29204.03
584.459	29568.57
584.657	29439.55
584.854	29472.32
585.052	28794.44
585.249	29267.52
585.447	29294.14
585.644	28630.6
585.841	29017.67
586.039	28753.48
586.236	28483.15
586.434	28397.13
586.631	28429.9
586.828	28595.79
587.026	28257.87
587.223	28233.3
587.42	28425.81
587.618	28210.77
587.815	27649.63
588.012	27502.17
588.21	27489.88
588.407	27858.52
588.604	27633.24
588.801	27027.04
588.999	27543.13
589.196	27723.35
589.393	27496.03
589.59	27131.49
589.787	27090.53
589.984	27235.94
590.182	26814.05
590.379	26895.97
590.576	26424.94
590.773	26826.34
590.97	26517.1
591.167	26711.66
591.364	26529.39
591.561	26633.83
591.758	26316.4
591.955	26465.9
592.152	26508.91
592.349	25790.07
592.546	26568.3
592.743	25958
592.94	25716.34
593.137	25876.09
593.334	25976.44
593.531	25423.48
593.727	25822.84
593.924	26080.88
594.121	25507.45
594.318	25661.05
594.515	25226.88
594.712	25609.85
594.908	25187.97
595.105	25202.3
595.302	24792.71
595.499	25157.25
595.696	25075.33
595.892	24839.81
596.089	24977.03
596.286	24802.95
596.482	24655.5
596.679	24923.78
596.876	24757.89
597.072	24505.99
597.269	24297.1
597.466	24065.68
597.662	24579.72
597.859	24376.97
598.055	24020.63
598.252	23914.13
598.448	24331.92
598.645	24137.36
598.841	23453.34
599.038	24024.72
599.234	23975.57
599.431	23568.02
599.627	23320.22
599.824	23633.56
600.02	23264.92
600.217	23402.14
600.413	23217.82
600.609	23158.43
600.806	22863.52
601.002	23383.71
601.198	22941.35
601.395	22765.22
601.591	22638.25
601.787	22732.45
601.984	22843.04
602.18	22898.34
602.376	22671.01
602.572	22365.87
602.769	22523.56
602.965	22390.44
603.161	22496.94
603.357	21935.79
603.553	22222.51
603.75	22193.84
603.946	21581.49
604.142	22030
604.338	21741.24
604.534	21837.49
604.73	21573.3
604.926	21751.48
605.122	21636.79
605.318	21341.88
605.514	21472.95
605.71	21233.34
605.906	21333.69
606.102	21309.11
606.298	21063.36
606.494	21173.95
606.69	20965.06
606.886	21030.59
607.082	20651.72
607.278	21008.06
607.474	20516.55
607.67	20997.82
607.866	20559.56
608.062	20760.26
608.257	20614.85
608.453	20647.62
608.649	20799.17
608.845	20410.06
609.041	20289.23
609.236	20653.76
609.432	20313.8
609.628	20225.74
609.824	20162.25
610.019	19918.54
610.215	20057.81
610.411	19986.13
610.606	19754.71
610.802	20010.7
610.998	19969.74
611.193	19850.96
611.389	19879.63
611.584	19730.13
611.78	19666.64
611.976	19541.72
612.171	19746.51
612.367	19449.56
612.562	19365.59
612.758	19320.54
612.953	19150.56
613.149	19394.26
613.344	19230.43
613.539	19580.63
613.735	19306.2
613.93	19162.84
614.126	19056.35
614.321	19255
614.517	19107.55
614.712	18988.77
614.907	18912.99
615.103	19031.77
615.298	18626.28
615.493	18941.66
615.688	18472.68
615.884	18855.65
616.079	18536.17
616.274	18644.71
616.47	18503.4
616.665	18650.85
616.86	18462.44
617.055	18398.95
617.25	18335.46
617.445	18310.89
617.641	18095.85
617.836	18235.11
618.031	18054.89
618.226	18325.22
618.421	17944.3
618.616	17911.53
618.811	17665.78
619.006	18067.18
619.201	17542.9
619.396	17735.41
619.591	17436.41
619.786	17673.97
619.981	17198.84
620.176	17604.34
620.371	17172.22
620.566	17186.55
620.761	17020.67
620.956	17352.44
621.151	16893.69
621.346	16905.98
621.541	16688.9
621.735	16936.7
621.93	16568.07
622.125	16559.88
622.32	16439.05
622.515	16539.4
622.709	16625.41
622.904	16406.28
623.099	16348.93
623.294	16156.43
623.488	16017.16
623.683	16353.03
623.878	15642.39
624.072	15963.92
624.267	15638.29
624.462	15556.37
624.656	15501.08
624.851	15329.05
625.046	15623.95
625.24	15243.03
625.435	14909.21
625.629	15310.61
625.824	15060.76
626.018	14987.04
626.213	14696.22
626.407	14913.31
626.602	14683.94
626.796	14755.61
626.991	14565.15
627.185	14501.67
627.38	14376.74
627.574	14245.67
627.768	14284.58
627.963	14169.9
628.157	14149.42
628.352	14331.69
628.546	13870.89
628.74	13944.62
628.935	13725.49
629.129	13823.79
629.323	13586.22
629.517	13776.69
629.712	13625.14
629.906	13463.35
630.1	13354.8
630.294	13365.04
630.489	13383.48
630.683	13113.14
630.877	13061.94
631.071	12961.59
631.265	12953.4
631.459	12762.94
631.653	12891.96
631.848	12855.1
632.042	12756.8
632.236	12756.8
632.43	12552
632.624	12474.18
632.818	12400.45
633.012	12341.06
633.206	12476.23
633.4	12437.31
633.594	12183.37
633.788	11964.23
633.982	12179.27
634.176	12195.65
634.369	12119.88
634.563	11915.08
634.757	11708.24
634.951	11814.73
635.145	11577.17
635.339	12003.14
635.533	11378.51
635.726	11546.45
635.92	11319.12
636.114	11654.99
636.308	11448.15
636.501	11257.68
636.695	11274.07
636.889	11241.3
637.083	11229.01
637.276	10868.57
637.47	10907.48
637.664	11091.8
637.857	10979.16
638.051	11011.93
638.244	10817.37
638.438	10782.56
638.632	10782.56
638.825	10559.33
639.019	10432.35
639.212	10559.33
639.406	10522.46
639.599	10409.83
639.793	10432.35
639.986	10282.85
640.18	10266.47
640.373	10190.69
640.567	9916.26
640.76	10004.33
640.954	9975.66
641.147	9926.5
641.34	9932.65
641.534	9619.31
641.727	9709.42
641.92	9701.23
642.114	9566.06
642.307	9619.31
642.5	9604.97
642.694	9381.74
642.887	9269.11
643.08	9414.51
643.273	9430.9
643.467	9447.28
643.66	8949.62
643.853	9213.81
644.046	9056.12
644.239	8937.34
644.432	8890.23
644.626	8898.42
644.819	8816.51
645.012	8877.94
645.205	8822.65
645.398	8634.24
645.591	8636.28
645.784	8824.7
645.977	8769.4
646.17	8537.98
646.363	8386.43
646.556	8269.7
646.749	8300.42
646.942	8394.62
647.135	8238.98
647.328	8243.07
647.521	8224.64
647.714	8075.14
647.907	8177.54
648.099	8028.04
648.292	8142.72
648.485	7958.41
648.678	7907.21
648.871	7987.08
649.064	7597.96
649.256	8071.04
649.449	7724.94
649.642	7825.29
649.835	7851.91
650.027	7700.36
650.22	7485.33
650.413	7477.13
650.605	7745.42
650.798	7489.42
650.991	7368.59
651.183	7393.17
651.376	7229.33
651.568	7350.16
651.761	7251.86
651.954	7264.15
652.146	7137.17
652.339	7120.79
652.531	6993.81
652.724	7128.98
652.916	6932.37
653.109	6944.66
653.301	6891.41
653.494	6795.16
653.686	6797.21
653.879	6741.91
654.071	6758.3
654.263	6664.09
654.456	6584.22
654.648	6690.71
654.84	6709.15
655.033	6573.98
655.225	6563.74
655.417	6571.93
655.61	6473.63
655.802	6522.78
655.994	6369.18
656.186	6262.69
656.379	6231.97
656.571	6432.67
656.763	6231.97
656.955	6281.12
657.148	6277.02
657.34	6213.54
657.532	6090.66
657.724	6066.08
657.916	6027.17
658.108	5992.36
658.3	5842.85
658.492	5932.97
658.684	5851.05
658.876	5863.33
659.068	5810.09
659.26	5679.02
659.452	5851.05
659.644	5801.9
659.836	5633.96
660.028	5797.8
660.22	5547.95
660.412	5656.49
660.604	5515.18
660.796	5625.77
660.988	5476.27
661.18	5400.49
661.372	5302.19
661.563	5406.64
661.755	5332.91
661.947	5289.9
662.139	5175.22
662.331	5154.74
662.522	5351.34
662.714	5181.36
662.906	5154.74
663.097	5230.51
663.289	5185.46
663.481	5136.31
663.673	5142.45
663.864	4833.21
664.056	4935.6
664.247	4935.6
664.439	4876.21
664.631	4906.93
664.822	4913.08
665.014	4915.12
665.205	4822.97
665.397	4865.97
665.588	4818.87
665.78	4644.79
665.971	4800.44
666.163	4730.81
666.354	4822.97
666.546	4777.91
666.737	4724.66
666.929	4616.12
667.12	4417.47
667.311	4585.4
667.503	4519.87
667.694	4554.68
667.885	4433.85
668.077	4423.61
668.268	4536.25
668.459	4390.84
668.651	4376.51
668.842	4419.52
669.033	4409.28
669.224	4429.76
669.416	4229.06
669.607	4171.71
669.798	4388.8
669.989	4257.73
670.18	4249.54
670.371	4257.73
670.563	4155.33
670.754	4317.12
670.945	4179.9
671.136	4249.54
671.327	4093.89
671.518	4102.08
671.709	4108.23
671.9	4065.22
672.091	4081.6
672.282	3907.52
672.473	4026.31
672.664	4040.64
672.855	3932.1
673.046	3885
673.237	3835.85
673.428	3979.2
673.619	3895.24
673.809	3936.2
674	4003.78
674.191	3870.66
674.382	3887.04
674.573	3790.79
674.764	3833.8
674.954	3792.84
675.145	3768.26
675.336	3807.17
675.527	3821.51
675.717	3813.32
675.908	3639.24
676.099	3854.28
676.289	3651.53
676.48	3612.62
676.671	3694.54
676.861	3743.69
677.052	3725.26
677.243	3602.38
677.433	3555.27
677.624	3610.57
677.814	3604.43
678.005	3600.33
678.195	3581.9
678.386	3598.28
678.576	3413.96
678.767	3452.88
678.957	3596.23
679.148	3483.59
679.338	3569.61
679.529	3532.75
679.719	3416.01
679.909	3426.25
680.1	3411.92
680.29	3438.54
680.481	3397.58
680.671	3485.64
680.861	3327.95
681.052	3428.3
681.242	3428.3
681.432	3438.54
681.622	3286.99
681.813	3352.52
682.003	3338.19
682.193	3231.69
682.383	3399.63
682.573	3323.85
682.764	3323.85
682.954	3323.85
683.144	3229.65
683.334	3231.69
683.524	3248.08
683.714	3299.28
683.904	3213.26
684.094	3289.04
684.284	3303.37
684.474	3260.37
684.664	3198.93
684.854	3258.32
685.044	3108.82
685.234	3192.78
685.424	3200.98
685.614	3037.14
685.804	3264.46
685.994	3139.54
686.184	3215.31
686.374	3119.06
686.564	3057.62
686.753	3059.67
686.943	3127.25
687.133	3057.62
687.323	3047.38
687.513	2983.89
687.702	3000.27
687.892	3014.61
688.082	2906.07
688.272	3090.38
688.461	3018.71
688.651	3123.15
688.841	3030.99
689.03	3028.95
689.22	2975.7
689.41	2944.98
689.599	2957.27
689.789	2930.64
689.979	2840.53
690.168	3119.06
690.358	2992.08
690.547	2887.64
690.737	2820.05
690.926	2885.59
691.116	2987.99
691.305	2918.36
691.495	2904.02
691.684	2947.03
691.874	2936.79
692.063	2990.03
692.252	3006.42
692.442	2809.81
692.631	2836.44
692.82	2940.88
693.01	2834.39
693.199	2875.35
693.388	2906.07
693.578	2897.88
693.767	2875.35
693.956	2801.62
694.146	2678.74
694.335	2705.37
694.524	2705.37
694.713	2840.53
694.902	2813.91
695.092	2863.06
695.281	2709.46
695.47	2854.87
695.659	2822.1
695.848	2807.77
696.037	2746.33
696.226	2807.77
696.415	2756.57
696.604	2828.24
696.793	2754.52
696.982	2707.41
697.171	2783.19
697.36	2781.14
697.549	2697.17
697.738	2654.17
697.927	2670.55
698.116	2797.53
698.305	2762.71
698.494	2750.42
698.683	2727.89
698.872	2781.14
699.061	2805.72
699.25	2748.37
699.438	2662.36
699.627	2654.17
699.816	2789.33
700.005	2719.7
700.193	2668.5
700.382	2815.96
700.571	2641.88
700.76	2635.74
700.948	2762.71
701.137	2756.57
701.326	2729.94
701.514	2686.93
701.703	2738.13
701.892	2658.26
702.08	2707.41
702.269	2654.17
702.457	2680.79
702.646	2680.79
702.834	2670.55
703.023	2652.12
703.212	2623.45
703.4	2545.63
703.589	2674.65
703.777	2643.93
703.965	2582.49
704.154	2584.54
704.342	2590.68
704.531	2631.64
704.719	2537.43
704.907	2607.06
705.096	2459.61
705.284	2572.25
705.472	2553.82
705.661	2574.3
705.849	2609.11
706.037	2510.81
706.226	2535.39
706.414	2621.4
706.602	2506.71
706.79	2621.4
706.979	2521.05
707.167	2486.23
707.355	2478.04
707.543	2406.36
707.731	2590.68
707.919	2461.66
708.107	2351.07
708.296	2385.88
708.484	2496.47
708.672	2353.12
708.86	2346.97
709.048	2349.02
709.236	2402.27
709.424	2346.97
709.612	2400.22
709.8	2510.81
709.988	2351.07
710.176	2283.49
710.364	2451.42
710.551	2344.92
710.739	2324.44
710.927	2295.77
711.115	2371.55
711.303	2306.01
711.491	2242.53
711.679	2316.25
711.866	2373.6
712.054	2310.11
712.242	2291.68
712.43	2172.89
712.617	2281.44
712.805	2248.67
712.993	2213.85
713.181	2213.85
713.368	2283.49
713.556	2164.7
713.744	2209.76
713.931	2199.52
714.119	2191.33
714.306	2101.22
714.494	2131.94
714.682	2176.99
714.869	2246.62
715.057	2287.58
715.244	2162.65
715.432	2109.41
715.619	2107.36
715.807	2168.8
715.994	2076.64
716.182	2076.64
716.369	2041.82
716.556	2060.26
716.744	1959.91
716.931	2066.4
717.119	2115.55
717.306	2000.87
717.493	2060.26
717.681	2035.68
717.868	1957.86
718.055	2002.91
718.242	2090.98
718.43	2039.78
718.617	1998.82
718.804	1996.77
718.991	1959.91
719.179	1943.52
719.366	1945.57
719.553	1996.77
719.74	1935.33
719.927	1970.15
720.114	1853.41
720.301	1972.19
720.488	1910.75
720.676	1837.03
720.863	1898.47
721.05	1882.08
721.237	1796.07
721.424	1834.98
721.611	1918.95
721.798	1812.45
721.985	1865.7
722.172	1791.97
722.358	1740.77
722.545	1808.36
722.732	1830.88
722.919	1830.88
723.106	1869.8
723.293	1861.6
723.48	1804.26
723.667	1822.69
723.853	1699.81
724.04	1820.64
724.227	1685.48
724.414	1839.08
724.6	1773.54
724.787	1689.57
724.974	1828.84
725.161	1775.59
725.347	1777.64
725.534	1728.49
725.72	1669.09
725.907	1636.33
726.094	1742.82
726.28	1658.85
726.467	1722.34
726.653	1624.04
726.84	1689.57
727.027	1753.06
727.213	1574.89
727.4	1662.95
727.586	1615.85
727.773	1601.51
727.959	1607.66
728.145	1585.13
728.332	1710.05
728.518	1581.03
728.705	1624.04
728.891	1544.17
729.077	1634.28
729.264	1540.07
729.45	1626.09
729.636	1591.27
729.823	1484.78
730.009	1521.64
730.195	1662.95
730.382	1558.5
730.568	1447.91
730.754	1499.11
730.94	1531.88
731.126	1564.65
731.313	1531.88
731.499	1581.03
731.685	1515.5
731.871	1615.85
732.057	1679.33
732.243	1589.22
732.429	1495.02
732.615	1470.44
732.801	1521.64
732.987	1484.78
733.173	1566.7
733.359	1468.39
733.545	1540.07
733.731	1419.24
733.917	1535.98
734.103	1464.3
734.289	1466.35
734.475	1345.52
734.661	1509.35
734.847	1357.8
735.033	1470.44
735.219	1495.02
735.404	1386.47
735.59	1431.53
735.776	1427.43
735.962	1468.39
736.148	1488.87
736.333	1439.72
736.519	1398.76
736.705	1337.32
736.89	1394.67
737.076	1392.62
737.262	1329.13
737.447	1392.62
737.633	1402.86
737.819	1390.57
738.004	1325.04
738.19	1402.86
738.375	1329.13
738.561	1402.86
738.747	1284.08
738.932	1337.32
739.118	1337.32
739.303	1351.66
739.489	1370.09
739.674	1322.99
739.859	1271.79
740.045	1308.65
740.23	1349.61
740.416	1294.32
740.601	1343.47
740.786	1347.56
740.972	1331.18
741.157	1298.41
741.342	1277.93
741.528	1232.88
741.713	1288.17
741.898	1253.36
742.084	1247.21
742.269	1228.78
742.454	1236.97
742.639	1308.65
742.824	1247.21
743.01	1339.37
743.195	1245.16
743.38	1302.51
743.565	1198.06
743.75	1243.12
743.935	1148.91
744.12	1193.97
744.305	1204.21
744.49	1189.87
744.675	1191.92
744.86	1132.53
745.045	1148.91
745.23	1214.45
745.415	1198.06
745.6	1081.33
745.785	1089.52
745.97	991.22
746.155	1142.77
746.34	1177.58
746.525	1073.14
746.71	1150.96
746.895	1085.42
747.079	1040.37
747.264	1128.43
747.449	1077.23
747.634	1046.51
747.819	1005.55
748.003	968.69
748.188	1001.46
748.373	1050.61
748.557	1050.61
748.742	1015.79
748.927	944.11
749.111	1009.65
749.296	976.88
749.481	1114.09
749.665	1009.65
749.85	968.69
750.034	1026.03
750.219	929.78
750.404	1001.46
750.588	974.83
750.773	956.4
750.957	952.31
751.141	987.12
751.326	929.78
751.51	964.59
751.695	837.62
751.879	868.34
752.064	942.07
752.248	972.79
752.432	919.54
752.617	911.35
752.801	903.15
752.985	796.66
753.17	962.55
753.354	919.54
753.538	903.15
753.722	827.38
753.907	919.54
754.091	923.63
754.275	899.06
754.459	894.96
754.643	794.61
754.828	946.16
755.012	858.1
755.196	856.05
755.38	851.95
755.564	798.71
755.748	845.81
755.932	886.77
756.116	774.13
756.3	780.28
756.484	790.52
756.668	806.9
756.852	794.61
757.036	763.89
757.22	741.36
757.404	813.04
757.588	757.75
757.772	718.84
757.956	772.08
758.14	776.18
758.323	929.78
758.507	684.02
758.691	710.65
758.875	722.93
759.059	727.03
759.242	743.41
759.426	729.08
759.61	712.69
759.794	686.07
759.977	716.79
760.161	770.04
760.345	643.06
760.528	598.01
760.712	679.93
760.895	673.78
761.079	681.97
761.263	634.87
761.446	620.53
761.63	624.63
761.813	634.87
761.997	655.35
762.18	630.77
762.364	743.41
762.547	643.06
762.731	643.06
762.914	724.98
763.098	696.31
763.281	700.41
763.464	669.69
763.648	622.58
763.831	669.69
764.015	710.65
764.198	608.25
764.381	575.48
764.564	628.73
764.748	622.58
764.931	505.85
765.114	591.86
765.297	600.05
765.481	595.96
765.664	649.21
765.847	563.19
766.03	641.01
766.213	595.96
766.397	608.25
766.58	540.66
766.763	577.53
766.946	659.45
767.129	555
767.312	591.86
767.495	659.45
767.678	559.1
767.861	518.14
768.044	555
768.227	552.95
768.41	583.67
768.593	591.86
768.776	487.42
768.959	661.49
769.142	602.1
769.324	546.81
769.507	587.77
769.69	567.29
769.873	538.62
770.056	538.62
770.239	604.15
770.421	638.97
770.604	540.66
770.787	561.14
770.97	530.42
771.152	569.34
771.335	497.66
771.518	544.76
771.7	571.38
771.883	518.14
772.066	550.9
772.248	528.38
772.431	489.46
772.613	563.19
772.796	575.48
772.978	534.52
773.161	454.65
773.343	524.28
773.526	526.33
773.708	495.61
773.891	565.24
774.073	509.94
774.256	493.56
774.438	471.03
774.621	593.91
774.803	464.89
774.985	452.6
775.168	415.74
775.35	573.43
775.532	473.08
775.715	450.55
775.897	509.94
776.079	409.59
776.261	530.42
776.444	481.27
776.626	452.6
776.808	520.18
776.99	421.88
777.173	430.07
777.355	415.74
777.537	528.38
777.719	448.51
777.901	483.32
778.083	411.64
778.265	526.33
778.447	434.17
778.629	407.55
778.811	370.68
778.993	368.63
779.175	487.42
779.357	425.98
779.539	382.97
779.721	362.49
779.903	483.32
780.085	372.73
780.267	329.72
780.449	411.64
780.631	329.72
780.812	368.63
780.994	368.63
781.176	382.97
781.358	395.26
781.54	378.87
781.721	411.64
781.903	276.48
782.085	376.83
782.267	319.48
782.448	370.68
782.63	372.73
782.812	391.16
782.993	321.53
783.175	391.16
783.357	323.58
783.538	413.69
783.72	317.44
783.901	378.87
784.083	329.72
784.264	391.16
784.446	339.96
784.627	376.83
784.809	329.72
784.99	321.53
785.172	346.11
785.353	354.3
785.535	274.43
785.716	251.9
785.897	325.63
786.079	290.81
786.26	208.89
786.441	325.63
786.623	223.23
786.804	274.43
786.985	284.67
787.167	278.52
787.348	251.9
787.529	362.49
787.71	323.58
787.891	243.71
788.073	292.86
788.254	335.87
788.435	301.05
788.616	350.2
788.797	305.15
788.978	233.47
789.159	331.77
789.34	299
789.522	186.37
789.703	307.2
789.884	305.15
790.065	251.9
790.246	243.71
790.427	251.9
790.607	241.66
790.788	346.11
790.969	337.91
791.15	256
791.331	243.71
791.512	247.8
791.693	245.76
791.874	280.57
792.054	260.09
792.235	272.38
792.416	186.37
792.597	217.08
792.778	159.74
792.958	206.84
793.139	196.61
793.32	301.05
793.5	206.84
793.681	208.89
793.862	256
794.042	221.18
794.223	262.14
794.404	229.37
794.584	188.41
794.765	206.84
794.945	233.47
795.126	272.38
795.306	176.13
795.487	198.65
795.667	223.23
795.848	174.08
796.028	225.28
796.209	249.85
796.389	305.15
796.57	167.93
796.75	172.03
796.93	180.22
797.111	210.94
797.291	245.76
797.471	241.66
797.652	219.13
797.832	223.23
798.012	163.84
798.192	155.65
798.373	190.46
798.553	192.51
798.733	194.56
798.913	225.28
799.093	161.79
799.274	184.32
799.454	169.98
799.634	135.17
799.814	204.8
799.994	174.08
800.174	174.08
800.354	182.27
800.534	149.5
800.714	153.6
800.894	190.46
801.074	159.74
801.254	212.99
801.434	190.46
801.614	190.46
801.794	141.31
801.974	407.55
802.154	143.36
802.334	268.28
802.514	147.45
802.693	163.84
802.873	94.21
803.053	143.36
803.233	239.61
803.413	225.28
803.592	174.08
803.772	149.5
803.952	159.74
804.131	116.73
804.311	206.84
804.491	186.37
804.67	176.13
804.85	100.35
805.03	86.01
805.209	176.13
805.389	253.95
805.568	245.76
805.748	229.37
805.928	141.31
806.107	153.6
806.287	153.6
806.466	155.65
806.646	145.41
806.825	198.65
807.004	141.31
807.184	116.73
807.363	208.89
807.543	145.41
807.722	133.12
807.901	174.08
808.081	159.74
808.26	120.83
808.439	186.37
808.619	102.4
808.798	149.5
808.977	118.78
809.156	184.32
809.336	143.36
809.515	135.17
809.694	67.58
809.873	139.26
810.052	184.32
810.231	122.88
810.411	174.08
810.59	157.69
810.769	94.21
810.948	161.79
811.127	59.39
811.306	30.72
811.485	131.07
811.664	118.78
811.843	102.4
812.022	165.89
812.201	178.17
812.38	198.65
812.559	65.53
812.737	157.69
812.916	106.49
813.095	96.25
813.274	96.25
813.453	92.16
813.632	53.25
813.811	133.12
813.989	83.97
814.168	57.34
814.347	67.58
814.526	69.63
814.704	104.45
814.883	174.08
815.062	79.87
815.24	174.08
815.419	71.68
815.598	172.03
815.776	159.74
815.955	143.36
816.133	53.25
816.312	165.89
816.49	79.87
816.669	147.45
816.847	169.98
817.026	131.07
817.204	108.54
817.383	102.4
817.561	112.64
817.74	141.31
817.918	188.41
818.097	86.01
818.275	57.34
818.453	141.31
818.632	71.68
818.81	151.55
818.988	172.03
819.167	129.02
819.345	18.43
819.523	51.2
819.701	141.31
819.879	106.49
820.058	112.64
820.236	112.64
820.414	43.01
820.592	116.73
820.77	86.01
820.948	149.5
821.127	24.58
821.305	75.77
821.483	75.77
821.661	147.45
821.839	67.58
822.017	110.59
822.195	90.11
822.373	96.25
822.551	112.64
822.729	163.84
822.907	100.35
823.085	157.69
823.262	14.34
823.44	77.82
823.618	86.01
823.796	124.93
823.974	67.58
824.152	55.3
824.329	118.78
824.507	71.68
824.685	88.06
824.863	61.44
825.04	83.97
825.218	79.87
825.396	77.82
825.574	135.17
825.751	153.6
825.929	104.45
826.107	83.97
826.284	40.96
826.462	135.17
826.639	69.63
826.817	71.68
826.994	94.21
827.172	92.16
827.349	75.77
827.527	139.26
827.704	6.14
827.882	49.15
828.059	36.86
828.237	88.06
828.414	67.58
828.591	71.68
828.769	45.06
828.946	163.84
829.124	40.96
829.301	49.15
829.478	104.45
829.655	81.92
829.833	67.58
830.01	10.24
830.187	100.35
830.364	94.21
830.542	18.43
830.719	79.87
830.896	81.92
831.073	88.06
831.25	102.4
831.427	55.3
831.604	55.3
831.782	143.36
831.959	-6.14
832.136	79.87
832.313	92.16
832.49	40.96
832.667	112.64
832.844	145.41
833.021	124.93
833.198	124.93
833.374	-2.05
833.551	75.77
833.728	98.3
833.905	143.36
834.082	83.97
834.259	67.58
834.436	36.86
834.612	71.68
834.789	53.25
834.966	6.14
835.143	143.36
835.319	110.59
835.496	61.44
835.673	67.58
835.85	75.77
836.026	124.93
836.203	167.93
836.38	75.77
836.556	43.01
836.733	28.67
836.909	67.58
837.086	63.49
837.262	14.34
837.439	65.53
837.616	34.82
837.792	67.58
837.968	104.45
838.145	18.43
838.321	79.87
838.498	45.06
838.674	75.77
838.851	53.25
839.027	110.59
839.203	14.34
839.38	67.58
839.556	43.01
839.732	30.72
839.909	2.05
840.085	4.1
840.261	-34.82
840.437	-8.19
840.614	40.96
840.79	102.4
840.966	51.2
841.142	90.11
841.318	55.3
841.494	92.16
841.671	12.29
841.847	77.82
842.023	34.82
842.199	18.43
842.375	110.59
842.551	55.3
842.727	49.15
842.903	129.02
843.079	40.96
843.255	73.73
843.431	0
843.607	67.58
843.783	10.24
843.959	61.44
844.134	53.25
844.31	55.3
844.486	75.77
844.662	53.25
844.838	108.54
845.013	90.11
845.189	129.02
845.365	-2.05
845.541	79.87
845.716	55.3
845.892	83.97
846.068	43.01
846.244	36.86
846.419	67.58
846.595	12.29
846.77	77.82
846.946	16.38
847.122	28.67
847.297	57.34
847.473	-2.05
847.648	81.92
847.824	43.01
847.999	-6.14
848.175	61.44
848.35	57.34
848.526	86.01
848.701	67.58
848.876	65.53
849.052	75.77
849.227	-2.05
849.403	38.91
849.578	30.72
849.753	2.05
849.929	20.48
850.104	53.25
850.279	126.97
850.454	77.82
850.63	51.2
850.805	61.44
850.98	90.11
851.155	47.1
851.33	26.62
851.505	94.21
851.681	69.63
851.856	81.92
852.031	53.25
852.206	81.92
852.381	92.16
852.556	38.91
852.731	20.48
852.906	67.58
853.081	65.53
853.256	30.72
853.431	34.82
853.606	4.1
853.781	38.91
853.956	36.86
854.131	2.05
854.305	96.25
854.48	88.06
854.655	55.3
854.83	45.06
855.005	20.48
855.18	94.21
855.354	51.2
855.529	6.14
855.704	69.63
855.879	45.06
856.053	-8.19
856.228	34.82
856.403	43.01
856.577	14.34
856.752	-61.44
856.926	59.39
857.101	108.54
857.276	12.29
857.45	92.16
857.625	83.97
857.799	-18.43
857.974	20.48
858.148	6.14
858.323	102.4
858.497	77.82
858.672	0
858.846	59.39
859.02	57.34
859.195	51.2
859.369	59.39
859.543	75.77
859.718	55.3
859.892	73.73
860.066	51.2
860.241	32.77
860.415	14.34
860.589	59.39
860.763	18.43
860.938	71.68
861.112	55.3
861.286	47.1
861.46	71.68
861.634	-38.91
861.808	26.62
861.982	-6.14
862.157	18.43
862.331	38.91
862.505	53.25
862.679	0
862.853	26.62
863.027	120.83
863.201	118.78
863.375	18.43
863.549	77.82
863.722	18.43
863.896	26.62
864.07	18.43
864.244	12.29
864.418	-34.82
864.592	4.1
864.766	61.44
864.939	-26.62
865.113	77.82
865.287	59.39
865.461	75.77
865.634	65.53
865.808	63.49
865.982	43.01
866.156	30.72
866.329	79.87
866.503	36.86
866.676	14.34
866.85	32.77
867.024	26.62
867.197	12.29
867.371	14.34
867.544	-14.34
867.718	30.72
867.891	49.15
868.065	10.24
868.238	67.58
868.412	63.49
868.585	-14.34
868.759	26.62
868.932	4.1
869.105	22.53
869.279	6.14
869.452	0
869.625	12.29
869.799	-18.43
869.972	53.25
870.145	4.1
870.319	26.62
870.492	10.24
870.665	10.24
870.838	-4.1
871.011	63.49
871.185	61.44
871.358	-4.1
871.531	47.1
871.704	-22.53
871.877	43.01
872.05	-34.82
872.223	45.06
872.396	-6.14
872.569	86.01
872.742	14.34
872.915	96.25
873.088	77.82
873.261	30.72
873.434	-61.44
873.607	67.58
873.78	75.77
873.953	-20.48
874.126	4.1
874.299	75.77
874.471	16.38
874.644	10.24
874.817	32.77
874.99	34.82
875.163	2.05
875.335	83.97
875.508	-6.14
875.681	67.58
875.853	67.58
876.026	124.93
876.199	14.34
876.371	75.77
876.544	30.72
876.717	110.59
876.889	32.77
877.062	26.62
877.234	12.29
877.407	83.97
877.579	-36.86
877.752	18.43
877.924	45.06
878.097	45.06
878.269	-2.05
878.442	-22.53
878.614	67.58
878.786	18.43
878.959	6.14
879.131	63.49
879.303	10.24
879.476	30.72
879.648	102.4
879.82	61.44
879.993	-2.05
880.165	40.96
880.337	4.1
880.509	14.34
880.681	22.53
880.854	40.96
881.026	0
881.198	69.63
881.37	26.62
881.542	43.01
881.714	28.67
881.886	53.25
882.058	28.67
882.23	16.38
882.402	40.96
882.574	20.48
882.746	86.01
882.918	-16.38
883.09	47.1
883.262	12.29
883.434	-18.43
883.606	63.49
883.778	36.86
883.95	20.48
884.122	-14.34
884.293	102.4
884.465	43.01
884.637	16.38
884.809	-51.2
884.98	34.82
885.152	59.39
885.324	10.24
885.496	61.44
885.667	61.44
885.839	4.1
886.011	51.2
886.182	51.2
886.354	43.01
886.525	10.24
886.697	124.93
886.869	20.48
887.04	-2.05
887.212	90.11
887.383	61.44
887.555	47.1
887.726	45.06
887.897	28.67
888.069	59.39
888.24	26.62
888.412	-38.91
888.583	34.82
888.754	36.86
888.926	77.82
889.097	16.38
889.268	-12.29
889.44	45.06
889.611	34.82
889.782	-28.67
889.953	16.38
890.125	-4.1
890.296	12.29
890.467	20.48
890.638	-2.05
890.809	53.25
890.98	14.34
891.151	67.58
891.323	12.29
891.494	71.68
891.665	43.01
891.836	-73.73
892.007	-22.53
892.178	79.87
892.349	26.62
892.52	18.43
892.691	67.58
892.862	-2.05
893.032	86.01
893.203	-61.44
893.374	90.11
893.545	10.24
893.716	0
893.887	-6.14
894.057	-24.58
894.228	2.05
894.399	-32.77
894.57	34.82
894.74	4.1
894.911	28.67
895.082	-36.86
895.253	86.01
895.423	106.49
895.594	-16.38
895.764	34.82
895.935	-28.67
896.106	10.24
896.276	0
896.447	-61.44
896.617	110.59
896.788	-18.43
896.958	40.96
897.129	10.24
897.299	-40.96
897.47	-2.05
897.64	53.25
897.81	14.34
897.981	49.15
898.151	-6.14
898.322	26.62
898.492	14.34
898.662	86.01
898.832	4.1
899.003	12.29
899.173	14.34
899.343	30.72
899.513	36.86
