Data from USB4F104151__258__14-01-41-443.txt Node

Date: Thu Mar 13 14:01:41 EDT 2025
User: louis
Spectrometer: USB4F10415
Trigger mode: 4
Integration Time (sec): 1.000000E-2
Scans to average: 1
Electric dark correction enabled: true
Nonlinearity correction enabled: false
Boxcar width: 0
XAxis mode: Wavelengths
Number of Pixels in Spectrum: 3648
>>>>>Begin Spectral Data<<<<<
178.204	-7.85
178.424	-7.85
178.644	-7.85
178.864	-65.19
179.084	20.82
179.304	-20.14
179.524	-24.23
179.744	-36.52
179.964	98.64
180.184	-44.71
180.404	78.16
180.624	-16.04
180.844	-24.23
181.064	2.39
181.283	-20.14
181.503	6.49
181.723	0.34
181.943	35.16
182.163	35.16
182.383	-11.95
182.602	53.59
182.822	-77.48
183.042	65.88
183.262	8.53
183.482	8.53
183.701	18.77
183.921	106.84
184.141	-28.33
184.361	76.12
184.58	49.49
184.8	33.11
185.02	2.39
185.239	51.54
185.459	-40.62
185.679	24.92
185.898	8.53
186.118	39.25
186.338	14.68
186.557	65.88
186.777	16.73
186.997	86.36
187.216	0.34
187.436	18.77
187.655	45.4
187.875	16.73
188.095	-20.14
188.314	16.73
188.534	-36.52
188.753	65.88
188.973	18.77
189.192	6.49
189.412	0.34
189.631	0.34
189.851	57.68
190.07	76.12
190.29	-65.19
190.509	35.16
190.729	65.88
190.948	51.54
191.168	35.16
191.387	-7.85
191.607	74.07
191.826	20.82
192.045	24.92
192.265	45.4
192.484	69.97
192.704	98.64
192.923	24.92
193.142	78.16
193.362	33.11
193.581	49.49
193.8	16.73
194.02	33.11
194.239	59.73
194.458	67.92
194.678	22.87
194.897	82.26
195.116	55.64
195.335	57.68
195.555	35.16
195.774	-18.09
195.993	43.35
196.212	67.92
196.432	49.49
196.651	20.82
196.87	37.2
197.089	100.69
197.308	90.45
197.528	65.88
197.747	-52.91
197.966	-11.95
198.185	63.83
198.404	24.92
198.623	-22.19
198.842	4.44
199.062	-1.71
199.281	47.44
199.5	59.73
199.719	2.39
199.938	12.63
200.157	-5.8
200.376	47.44
200.595	29.01
200.814	6.49
201.033	2.39
201.252	29.01
201.471	29.01
201.69	8.53
201.909	90.45
202.128	35.16
202.347	14.68
202.566	82.26
202.785	63.83
203.004	16.73
203.223	49.49
203.442	31.06
203.661	-36.52
203.879	37.2
204.098	39.25
204.317	26.96
204.536	69.97
204.755	59.73
204.974	49.49
205.193	2.39
205.411	82.26
205.63	-7.85
205.849	12.63
206.068	-16.04
206.287	55.64
206.505	43.35
206.724	39.25
206.943	-13.99
207.162	-5.8
207.381	-18.09
207.599	72.02
207.818	43.35
208.037	16.73
208.255	61.78
208.474	45.4
208.693	16.73
208.911	41.3
209.13	16.73
209.349	67.92
209.567	-7.85
209.786	74.07
210.005	41.3
210.223	-24.23
210.442	4.44
210.661	20.82
210.879	-52.91
211.098	94.55
211.316	0.34
211.535	37.2
211.753	16.73
211.972	57.68
212.191	29.01
212.409	16.73
212.628	67.92
212.846	2.39
213.065	39.25
213.283	-42.67
213.502	106.84
213.72	-44.71
213.938	12.63
214.157	98.64
214.375	82.26
214.594	16.73
214.812	57.68
215.031	65.88
215.249	-3.75
215.467	43.35
215.686	-16.04
215.904	82.26
216.122	-13.99
216.341	-59.05
216.559	47.44
216.778	63.83
216.996	39.25
217.214	10.58
217.432	14.68
217.651	57.68
217.869	22.87
218.087	29.01
218.306	-16.04
218.524	65.88
218.742	53.59
218.96	18.77
219.179	-28.33
219.397	14.68
219.615	26.96
219.833	43.35
220.051	-75.43
220.27	43.35
220.488	80.21
220.706	129.36
220.924	14.68
221.142	80.21
221.36	72.02
221.578	45.4
221.796	-32.43
222.015	29.01
222.233	90.45
222.451	10.58
222.669	80.21
222.887	41.3
223.105	78.16
223.323	55.64
223.541	129.36
223.759	-3.75
223.977	-16.04
224.195	26.96
224.413	123.22
224.631	18.77
224.849	16.73
225.067	-36.52
225.285	45.4
225.503	16.73
225.721	-32.43
225.939	63.83
226.157	22.87
226.375	12.63
226.592	-61.1
226.81	96.6
227.028	57.68
227.246	61.78
227.464	18.77
227.682	53.59
227.9	-5.8
228.117	-1.71
228.335	49.49
228.553	49.49
228.771	0.34
228.989	39.25
229.206	102.74
229.424	61.78
229.642	41.3
229.86	102.74
230.077	35.16
230.295	10.58
230.513	45.4
230.731	84.31
230.948	-3.75
231.166	63.83
231.384	33.11
231.601	12.63
231.819	41.3
232.037	-30.38
232.254	12.63
232.472	29.01
232.689	8.53
232.907	59.73
233.125	74.07
233.342	63.83
233.56	57.68
233.777	115.03
233.995	67.92
234.213	33.11
234.43	57.68
234.648	16.73
234.865	33.11
235.083	51.54
235.3	63.83
235.518	33.11
235.735	39.25
235.953	16.73
236.17	39.25
236.388	74.07
236.605	41.3
236.822	43.35
237.04	-3.75
237.257	35.16
237.475	-50.86
237.692	47.44
237.909	16.73
238.127	-7.85
238.344	4.44
238.562	51.54
238.779	41.3
238.996	67.92
239.214	-9.9
239.431	51.54
239.648	69.97
239.865	-7.85
240.083	123.22
240.3	-22.19
240.517	59.73
240.735	61.78
240.952	-7.85
241.169	-13.99
241.386	12.63
241.603	51.54
241.821	-7.85
242.038	-20.14
242.255	47.44
242.472	82.26
242.689	65.88
242.907	-5.8
243.124	8.53
243.341	45.4
243.558	43.35
243.775	22.87
243.992	78.16
244.209	24.92
244.426	0.34
244.643	20.82
244.86	4.44
245.078	51.54
245.295	63.83
245.512	33.11
245.729	-16.04
245.946	20.82
246.163	-5.8
246.38	67.92
246.597	-28.33
246.814	57.68
247.031	-20.14
247.248	90.45
247.464	57.68
247.681	59.73
247.898	-81.58
248.115	41.3
248.332	10.58
248.549	24.92
248.766	-5.8
248.983	33.11
249.2	76.12
249.417	37.2
249.633	86.36
249.85	33.11
250.067	31.06
250.284	6.49
250.501	18.77
250.717	-20.14
250.934	14.68
251.151	57.68
251.368	-63.15
251.585	65.88
251.801	47.44
252.018	53.59
252.235	26.96
252.451	49.49
252.668	49.49
252.885	6.49
253.102	39.25
253.318	-13.99
253.535	35.16
253.752	24.92
253.968	18.77
254.185	39.25
254.401	90.45
254.618	-5.8
254.835	67.92
255.051	-16.04
255.268	96.6
255.484	20.82
255.701	26.96
255.917	106.84
256.134	76.12
256.351	0.34
256.567	26.96
256.784	51.54
257	2.39
257.217	8.53
257.433	18.77
257.65	74.07
257.866	-7.85
258.082	61.78
258.299	35.16
258.515	24.92
258.732	20.82
258.948	26.96
259.165	51.54
259.381	37.2
259.597	10.58
259.814	0.34
260.03	29.01
260.246	18.77
260.463	51.54
260.679	-16.04
260.895	65.88
261.112	100.69
261.328	69.97
261.544	2.39
261.761	33.11
261.977	22.87
262.193	12.63
262.409	39.25
262.626	4.44
262.842	108.88
263.058	45.4
263.274	65.88
263.49	22.87
263.707	145.75
263.923	49.49
264.139	57.68
264.355	74.07
264.571	-13.99
264.787	18.77
265.004	59.73
265.22	98.64
265.436	33.11
265.652	37.2
265.868	16.73
266.084	-20.14
266.3	82.26
266.516	2.39
266.732	20.82
266.948	59.73
267.164	29.01
267.38	57.68
267.596	29.01
267.812	24.92
268.028	59.73
268.244	49.49
268.46	-5.8
268.676	0.34
268.892	-22.19
269.108	45.4
269.324	76.12
269.54	65.88
269.756	131.41
269.972	72.02
270.188	-52.91
270.403	26.96
270.619	33.11
270.835	20.82
271.051	53.59
271.267	45.4
271.483	86.36
271.698	-18.09
271.914	67.92
272.13	74.07
272.346	61.78
272.562	-7.85
272.777	-5.8
272.993	43.35
273.209	115.03
273.425	-1.71
273.64	18.77
273.856	8.53
274.072	55.64
274.287	55.64
274.503	-32.43
274.719	14.68
274.934	-11.95
275.15	41.3
275.366	57.68
275.581	2.39
275.797	51.54
276.012	53.59
276.228	82.26
276.444	-3.75
276.659	108.88
276.875	-11.95
277.09	-22.19
277.306	45.4
277.521	78.16
277.737	-38.57
277.952	26.96
278.168	49.49
278.383	-20.14
278.599	-7.85
278.814	-3.75
279.03	65.88
279.245	35.16
279.461	22.87
279.676	33.11
279.892	-7.85
280.107	-11.95
280.322	33.11
280.538	112.98
280.753	53.59
280.969	45.4
281.184	29.01
281.399	29.01
281.615	67.92
281.83	65.88
282.045	37.2
282.26	35.16
282.476	45.4
282.691	74.07
282.906	49.49
283.122	33.11
283.337	43.35
283.552	47.44
283.767	49.49
283.983	65.88
284.198	-20.14
284.413	-9.9
284.628	-46.76
284.843	8.53
285.058	24.92
285.274	-16.04
285.489	35.16
285.704	45.4
285.919	74.07
286.134	47.44
286.349	14.68
286.564	84.31
286.779	106.84
286.995	4.44
287.21	49.49
287.425	33.11
287.64	-5.8
287.855	53.59
288.07	-18.09
288.285	51.54
288.5	82.26
288.715	41.3
288.93	0.34
289.145	41.3
289.36	84.31
289.575	12.63
289.79	69.97
290.004	2.39
290.219	45.4
290.434	8.53
290.649	86.36
290.864	4.44
291.079	12.63
291.294	16.73
291.509	4.44
291.724	-36.52
291.938	53.59
292.153	49.49
292.368	33.11
292.583	82.26
292.798	110.93
293.012	12.63
293.227	4.44
293.442	39.25
293.657	41.3
293.871	49.49
294.086	59.73
294.301	2.39
294.516	55.64
294.73	37.2
294.945	43.35
295.16	98.64
295.374	53.59
295.589	33.11
295.804	8.53
296.018	26.96
296.233	63.83
296.447	8.53
296.662	-16.04
296.877	29.01
297.091	-32.43
297.306	10.58
297.52	72.02
297.735	78.16
297.949	51.54
298.164	74.07
298.378	31.06
298.593	33.11
298.807	41.3
299.022	-3.75
299.236	67.92
299.451	18.77
299.665	29.01
299.88	65.88
300.094	-5.8
300.309	-5.8
300.523	94.55
300.737	61.78
300.952	33.11
301.166	96.6
301.381	67.92
301.595	-5.8
301.809	55.64
302.024	51.54
302.238	10.58
302.452	35.16
302.667	-24.23
302.881	112.98
303.095	45.4
303.309	29.01
303.524	-7.85
303.738	69.97
303.952	26.96
304.166	39.25
304.381	-28.33
304.595	98.64
304.809	-54.95
305.023	106.84
305.237	57.68
305.452	33.11
305.666	31.06
305.88	26.96
306.094	100.69
306.308	94.55
306.522	69.97
306.736	-7.85
306.95	43.35
307.164	67.92
307.379	41.3
307.593	18.77
307.807	72.02
308.021	100.69
308.235	33.11
308.449	16.73
308.663	90.45
308.877	69.97
309.091	16.73
309.305	84.31
309.519	84.31
309.733	67.92
309.947	22.87
310.161	33.11
310.374	55.64
310.588	155.99
310.802	-24.23
311.016	20.82
311.23	-24.23
311.444	92.5
311.658	98.64
311.872	53.59
312.085	29.01
312.299	90.45
312.513	106.84
312.727	61.78
312.941	35.16
313.154	100.69
313.368	18.77
313.582	112.98
313.796	65.88
314.009	35.16
314.223	37.2
314.437	129.36
314.651	0.34
314.864	57.68
315.078	45.4
315.292	20.82
315.505	14.68
315.719	20.82
315.933	10.58
316.146	0.34
316.36	-1.71
316.573	57.68
316.787	51.54
317.001	-9.9
317.214	31.06
317.428	41.3
317.641	65.88
317.855	33.11
318.068	45.4
318.282	16.73
318.495	82.26
318.709	24.92
318.922	8.53
319.136	6.49
319.349	84.31
319.563	14.68
319.776	20.82
319.99	98.64
320.203	26.96
320.417	63.83
320.63	82.26
320.843	-1.71
321.057	65.88
321.27	49.49
321.483	12.63
321.697	-30.38
321.91	20.82
322.124	33.11
322.337	2.39
322.55	33.11
322.763	-28.33
322.977	-3.75
323.19	-20.14
323.403	43.35
323.617	100.69
323.83	92.5
324.043	59.73
324.256	18.77
324.469	-1.71
324.683	-9.9
324.896	78.16
325.109	2.39
325.322	16.73
325.535	65.88
325.748	4.44
325.962	63.83
326.175	20.82
326.388	98.64
326.601	-50.86
326.814	59.73
327.027	-61.1
327.24	-13.99
327.453	26.96
327.666	-38.57
327.879	47.44
328.092	49.49
328.305	-18.09
328.518	26.96
328.731	41.3
328.944	98.64
329.157	35.16
329.37	20.82
329.583	80.21
329.796	-3.75
330.009	24.92
330.222	22.87
330.435	33.11
330.648	61.78
330.861	98.64
331.073	-5.8
331.286	106.84
331.499	2.39
331.712	108.88
331.925	-38.57
332.138	26.96
332.35	74.07
332.563	39.25
332.776	61.78
332.989	41.3
333.202	45.4
333.414	82.26
333.627	-1.71
333.84	78.16
334.053	96.6
334.265	18.77
334.478	59.73
334.691	61.78
334.903	82.26
335.116	33.11
335.329	76.12
335.541	88.4
335.754	29.01
335.966	12.63
336.179	-13.99
336.392	100.69
336.604	24.92
336.817	59.73
337.029	86.36
337.242	4.44
337.454	72.02
337.667	31.06
337.88	55.64
338.092	2.39
338.305	67.92
338.517	24.92
338.729	18.77
338.942	59.73
339.154	72.02
339.367	41.3
339.579	82.26
339.792	67.92
340.004	-7.85
340.217	22.87
340.429	72.02
340.641	8.53
340.854	94.55
341.066	78.16
341.278	16.73
341.491	74.07
341.703	12.63
341.915	108.88
342.128	41.3
342.34	20.82
342.552	55.64
342.764	-1.71
342.977	-1.71
343.189	47.44
343.401	119.12
343.613	65.88
343.826	61.78
344.038	31.06
344.25	59.73
344.462	0.34
344.674	59.73
344.886	29.01
345.099	-26.28
345.311	8.53
345.523	41.3
345.735	-20.14
345.947	29.01
346.159	-9.9
346.371	74.07
346.583	35.16
346.795	10.58
347.007	55.64
347.219	106.84
347.431	-7.85
347.643	92.5
347.855	41.3
348.067	102.74
348.279	39.25
348.491	53.59
348.703	24.92
348.915	102.74
349.127	59.73
349.339	74.07
349.551	-18.09
349.763	41.3
349.975	-11.95
350.187	100.69
350.399	26.96
350.61	20.82
350.822	-13.99
351.034	4.44
351.246	29.01
351.458	82.26
351.669	65.88
351.881	117.08
352.093	41.3
352.305	35.16
352.517	12.63
352.728	76.12
352.94	18.77
353.152	84.31
353.363	-13.99
353.575	12.63
353.787	90.45
353.999	-3.75
354.21	41.3
354.422	92.5
354.633	-38.57
354.845	33.11
355.057	55.64
355.268	24.92
355.48	82.26
355.692	20.82
355.903	65.88
356.115	49.49
356.326	115.03
356.538	90.45
356.749	88.4
356.961	51.54
357.172	-30.38
357.384	51.54
357.595	51.54
357.807	61.78
358.018	18.77
358.23	39.25
358.441	74.07
358.653	49.49
358.864	33.11
359.075	33.11
359.287	57.68
359.498	18.77
359.709	29.01
359.921	31.06
360.132	74.07
360.344	0.34
360.555	33.11
360.766	131.41
360.977	90.45
361.189	53.59
361.4	26.96
361.611	76.12
361.823	33.11
362.034	33.11
362.245	14.68
362.456	29.01
362.667	14.68
362.879	72.02
363.09	49.49
363.301	45.4
363.512	35.16
363.723	69.97
363.935	102.74
364.146	84.31
364.357	74.07
364.568	61.78
364.779	35.16
364.99	2.39
365.201	92.5
365.412	67.92
365.623	31.06
365.834	43.35
366.045	24.92
366.256	29.01
366.467	98.64
366.678	90.45
366.889	55.64
367.1	0.34
367.311	16.73
367.522	82.26
367.733	119.12
367.944	57.68
368.155	29.01
368.366	84.31
368.577	106.84
368.788	57.68
368.999	80.21
369.209	8.53
369.42	-28.33
369.631	149.84
369.842	35.16
370.053	41.3
370.264	65.88
370.474	67.92
370.685	2.39
370.896	100.69
371.107	18.77
371.317	106.84
371.528	4.44
371.739	98.64
371.95	-24.23
372.16	67.92
372.371	57.68
372.582	45.4
372.792	26.96
373.003	33.11
373.214	14.68
373.424	18.77
373.635	96.6
373.846	104.79
374.056	98.64
374.267	61.78
374.477	108.88
374.688	90.45
374.898	10.58
375.109	-24.23
375.319	31.06
375.53	96.6
375.74	72.02
375.951	65.88
376.161	18.77
376.372	74.07
376.582	86.36
376.793	78.16
377.003	26.96
377.214	37.2
377.424	69.97
377.635	61.78
377.845	82.26
378.055	37.2
378.266	39.25
378.476	26.96
378.686	35.16
378.897	0.34
379.107	90.45
379.317	-28.33
379.528	39.25
379.738	26.96
379.948	76.12
380.158	39.25
380.369	59.73
380.579	94.55
380.789	-22.19
380.999	26.96
381.21	47.44
381.42	115.03
381.63	63.83
381.84	49.49
382.05	45.4
382.261	90.45
382.471	63.83
382.681	49.49
382.891	82.26
383.101	49.49
383.311	33.11
383.521	82.26
383.731	-48.81
383.941	18.77
384.151	100.69
384.361	80.21
384.571	61.78
384.781	57.68
384.991	96.6
385.201	74.07
385.411	35.16
385.621	133.46
385.831	31.06
386.041	65.88
386.251	31.06
386.461	2.39
386.671	57.68
386.881	106.84
387.091	92.5
387.301	31.06
387.511	100.69
387.72	76.12
387.93	26.96
388.14	16.73
388.35	80.21
388.56	41.3
388.769	61.78
388.979	-63.15
389.189	59.73
389.399	84.31
389.609	84.31
389.818	78.16
390.028	67.92
390.238	16.73
390.447	49.49
390.657	65.88
390.867	24.92
391.076	-7.85
391.286	20.82
391.496	65.88
391.705	129.36
391.915	82.26
392.125	41.3
392.334	100.69
392.544	90.45
392.753	59.73
392.963	53.59
393.172	65.88
393.382	106.84
393.591	35.16
393.801	72.02
394.01	74.07
394.22	47.44
394.429	72.02
394.639	76.12
394.848	92.5
395.058	51.54
395.267	82.26
395.477	98.64
395.686	49.49
395.895	12.63
396.105	127.32
396.314	108.88
396.524	74.07
396.733	29.01
396.942	141.65
397.152	92.5
397.361	49.49
397.57	47.44
397.78	29.01
397.989	67.92
398.198	172.37
398.407	84.31
398.617	88.4
398.826	115.03
399.035	90.45
399.244	100.69
399.453	137.56
399.663	88.4
399.872	18.77
400.081	-5.8
400.29	129.36
400.499	112.98
400.708	84.31
400.917	63.83
401.127	76.12
401.336	53.59
401.545	110.93
401.754	39.25
401.963	78.16
402.172	16.73
402.381	12.63
402.59	127.32
402.799	74.07
403.008	67.92
403.217	86.36
403.426	155.99
403.635	86.36
403.844	86.36
404.053	112.98
404.262	102.74
404.471	57.68
404.68	137.56
404.888	106.84
405.097	90.45
405.306	141.65
405.515	123.22
405.724	180.56
405.933	155.99
406.142	123.22
406.35	205.14
406.559	166.23
406.768	131.41
406.977	131.41
407.185	51.54
407.394	125.27
407.603	145.75
407.812	190.8
408.02	203.09
408.229	158.03
408.438	164.18
408.646	225.62
408.855	145.75
409.064	213.33
409.272	260.43
409.481	198.99
409.69	198.99
409.898	270.67
410.107	239.95
410.315	246.1
410.524	270.67
410.733	235.86
410.941	287.06
411.15	338.26
411.358	356.69
411.567	248.15
411.775	287.06
411.984	362.83
412.192	297.3
412.401	321.87
412.609	422.22
412.818	346.45
413.026	342.35
413.234	500.05
413.443	356.69
413.651	358.74
413.86	407.89
414.068	448.85
414.276	500.05
414.485	500.05
414.693	485.71
414.901	454.99
415.11	536.91
415.318	510.29
415.526	524.62
415.734	498
415.943	600.4
416.151	635.21
416.359	577.87
416.567	688.46
416.776	659.79
416.984	762.19
417.192	733.51
417.4	731.47
417.608	753.99
417.817	829.77
418.025	821.58
418.233	870.73
418.441	825.67
418.649	889.16
418.857	866.63
419.065	979.27
419.273	975.17
419.481	966.98
419.689	956.74
419.897	1157.44
420.105	1118.53
420.313	1141.06
420.521	1196.36
420.729	1218.88
420.937	1253.7
421.145	1378.62
421.353	1364.29
421.561	1481.02
421.769	1438.02
421.977	1519.93
422.185	1470.78
422.393	1524.03
422.601	1712.44
422.809	1673.53
423.017	1722.68
423.224	1771.83
423.432	1798.46
423.64	1868.09
423.848	2050.36
424.056	1919.29
424.263	2163
424.471	2025.78
424.679	2218.29
424.887	2302.26
425.094	2322.74
425.302	2318.64
425.51	2380.08
425.718	2490.67
425.925	2541.87
426.133	2623.79
426.341	2683.18
426.548	2775.34
426.756	2851.11
426.964	2902.31
427.171	3049.77
427.379	3113.25
427.586	3244.32
427.794	3201.32
428.001	3311.91
428.209	3596.57
428.417	3586.33
428.624	3809.56
428.832	3860.76
429.039	3748.12
429.247	3709.21
429.454	4024.6
429.662	4339.99
429.869	4077.85
430.076	4393.23
430.284	4348.18
430.491	4432.15
430.699	4751.63
430.906	4690.19
431.114	4858.12
431.321	4882.7
431.528	4983.05
431.736	5339.4
431.943	5529.86
432.15	5286.15
432.358	5443.84
432.565	5781.76
432.772	5695.74
432.979	6177.02
433.187	6103.29
433.394	6199.54
433.601	6619.38
433.808	6549.75
434.016	6582.51
434.223	6705.39
434.43	7254.25
434.637	7047.4
434.844	7641.31
435.052	7880.93
435.259	7876.83
435.466	7600.35
435.673	7641.31
435.88	8122.59
436.087	8480.98
436.294	8523.99
436.501	8378.58
436.708	8671.44
436.915	8952.01
437.122	9189.58
437.329	9175.24
437.537	9523.4
437.743	9898.17
437.95	9638.08
438.157	10111.16
438.364	10535.09
438.571	10406.07
438.778	10494.13
438.985	11464.87
439.192	11069.61
439.399	11413.67
439.606	10889.39
439.813	11722.91
440.02	12355.74
440.227	12148.89
440.433	12173.47
440.64	12607.64
440.847	12404.89
441.054	12607.64
441.261	13355.15
441.467	13291.66
441.674	13506.7
441.881	14043.26
442.088	14098.56
442.294	13803.65
442.501	14413.95
442.708	14690.42
442.914	15210.61
443.121	15925.35
443.328	15251.56
443.534	16529.5
443.741	15822.95
443.948	15835.24
444.154	16752.73
444.361	16867.41
444.568	17150.03
444.774	16719.96
444.981	17035.35
445.187	17424.46
445.394	18182.21
445.6	18128.96
445.807	19691.56
446.013	18952.24
446.22	19470.38
446.426	19884.07
446.633	20054.05
446.839	20924.44
447.046	20181.03
447.252	21170.19
447.459	20989.97
447.665	21170.19
447.871	21944.33
448.078	22851.58
448.284	21823.5
448.491	22573.05
448.697	23447.54
448.903	23750.63
449.11	23746.54
449.316	23496.69
449.522	23646.19
449.728	24608.73
449.935	24627.17
450.141	24684.51
450.347	25173.97
450.553	24602.59
450.76	24725.47
450.966	25776.08
451.172	25321.43
451.378	25731.02
451.584	25303
451.791	26093.51
451.997	26091.46
452.203	26230.73
452.409	26372.03
452.615	25659.34
452.821	25219.03
453.027	24942.55
453.233	25915.34
453.44	25266.13
453.646	25362.39
453.852	25567.18
454.058	25898.95
454.264	25096.15
454.47	25688.01
454.676	25106.39
454.882	26161.09
455.088	23640.04
455.294	24203.24
455.5	24233.96
455.705	24641.5
455.911	23341.04
456.117	23209.97
456.323	22829.05
456.529	21573.64
456.735	22345.73
456.941	22255.62
457.147	21702.67
457.352	20838.42
457.558	21129.23
457.764	20799.51
457.97	20387.87
458.176	20158.5
458.381	19945.51
458.587	18890.81
458.793	18980.92
458.999	17895.49
459.204	19517.48
459.41	18692.15
459.616	17752.13
459.821	17440.84
460.027	17344.59
460.233	17131.6
460.438	16236.64
460.644	16349.28
460.85	15679.59
461.055	15425.64
461.261	15382.63
461.466	14321.79
461.672	13869.19
461.878	14841.97
462.083	13895.81
462.289	13899.91
462.494	13480.07
462.7	12939.41
462.905	12648.6
463.111	13183.12
463.316	12902.54
463.522	12638.36
463.727	12935.31
463.932	12724.37
464.138	12732.56
464.343	12808.34
464.549	12427.42
464.754	12562.58
464.959	13045.9
465.165	12662.93
465.37	12011.68
465.575	11665.57
465.781	12083.36
465.986	12361.88
466.191	11722.91
466.397	11620.52
466.602	11067.56
466.807	11428.01
467.012	11548.84
467.218	11210.92
467.423	11329.7
467.628	11303.08
467.833	11937.95
468.038	11436.2
468.244	10946.73
468.449	11425.96
468.654	11331.75
468.859	11174.06
469.064	10924.21
469.269	10727.6
469.474	10682.55
469.679	10741.94
469.885	10662.07
470.09	10651.83
470.295	10635.44
470.5	10275
470.705	10320.06
470.91	10180.79
471.115	10213.56
471.32	10127.55
471.525	10275
471.73	10086.59
471.935	9980.09
472.139	9595.07
472.344	9699.52
472.549	9693.38
472.754	9568.45
472.959	9187.53
473.164	8958.16
473.369	9046.22
473.574	9365.7
473.778	9212.1
473.983	9226.44
474.188	9136.33
474.393	8831.18
474.598	8847.57
474.802	8579.28
475.007	8667.35
475.212	8394.97
475.417	8403.16
475.621	8327.38
475.826	8317.14
476.031	7979.23
476.235	8085.72
476.44	8149.21
476.645	7891.16
476.849	8079.58
477.054	8024.28
477.259	7618.79
477.463	7794.91
477.668	7700.7
477.872	7639.26
478.077	7602.4
478.282	7395.56
478.486	7354.6
478.691	7325.93
478.895	7373.03
479.1	7141.61
479.304	7170.28
479.509	6988.01
479.713	6979.82
479.918	7031.02
480.122	6824.17
480.326	6918.38
480.531	7047.4
480.735	6863.08
480.94	6729.97
481.144	7162.09
481.348	6826.22
481.553	6899.95
481.757	6826.22
481.961	6891.76
482.166	6848.75
482.37	6824.17
482.574	6566.13
482.778	6701.3
482.983	6752.49
483.187	6711.53
483.391	6867.18
483.595	6672.62
483.8	6641.9
484.004	6695.15
484.208	6768.88
484.412	6576.37
484.616	6693.1
484.821	6820.08
485.025	6467.83
485.229	6635.76
485.433	6725.87
485.637	6787.31
485.841	6693.1
486.045	6672.62
486.249	6779.12
486.453	6652.14
486.657	6916.33
486.861	6842.6
487.065	6416.63
487.269	6854.89
487.473	6523.12
487.677	6934.76
487.881	6760.69
488.085	6744.3
488.289	6807.79
488.493	6686.96
488.697	6826.22
488.901	6947.05
489.105	6873.32
489.309	6750.45
489.512	6893.8
489.716	6945
489.92	6836.46
490.124	6973.67
490.328	6975.72
490.531	6754.54
490.735	6926.57
490.939	6949.1
491.143	6988.01
491.346	7020.78
491.55	7119.08
491.754	7108.84
491.958	7102.7
492.161	7043.31
492.365	7184.62
492.569	6979.82
492.772	7246.05
492.976	7276.77
493.18	7219.43
493.383	7387.36
493.587	7229.67
493.79	7465.19
493.994	7248.1
494.197	7393.51
494.401	7571.68
494.605	7532.77
494.808	7715.04
495.012	7659.74
495.215	7704.8
495.419	7792.86
495.622	7588.07
495.825	7876.83
496.029	7846.11
496.232	7995.61
496.436	8143.07
496.639	8243.42
496.843	8212.7
497.046	8317.14
497.249	8378.58
497.453	8605.91
497.656	8757.46
497.859	8691.92
498.063	8620.24
498.266	8945.87
498.469	8761.55
498.673	8980.68
498.876	9107.66
499.079	9040.08
499.282	9285.83
499.485	9355.46
499.689	9310.41
499.892	9560.26
500.095	9648.32
500.298	9742.53
500.501	9859.26
500.705	10066.11
500.908	10305.72
501.111	10361.02
501.314	10438.84
501.517	10553.52
501.72	10698.93
501.923	10588.34
502.126	10924.21
502.329	11042.99
502.532	11051.18
502.735	10979.5
502.938	11440.29
503.141	11546.79
503.344	11778.21
503.547	11686.05
503.75	12005.53
503.953	12118.17
504.156	12023.97
504.359	12345.5
504.562	12245.15
504.765	12718.23
504.968	12757.14
505.17	12957.84
505.373	12978.32
505.576	13258.89
505.779	13377.67
505.982	13398.15
506.185	13527.17
506.387	13682.82
506.59	13971.58
506.793	14121.09
506.996	14094.46
507.198	14657.65
507.401	14205.05
507.604	14712.95
507.807	15122.54
508.009	14909.55
508.212	15130.73
508.415	15274.09
508.617	15417.45
508.82	15536.23
509.022	15435.88
509.225	15970.4
509.428	16259.17
509.63	16306.27
509.833	16648.28
510.035	16838.74
510.238	16816.21
510.44	16953.43
510.643	17217.61
510.845	17342.54
511.048	17356.88
511.25	17832.01
511.453	17872.96
511.655	18485.31
511.858	18526.27
512.06	18530.36
512.262	18653.24
512.465	18817.08
512.667	19290.16
512.87	19134.51
513.072	19585.07
513.274	19523.63
513.477	19978.28
513.679	20004.9
513.881	20353.05
514.084	20631.58
514.286	20549.66
514.488	20701.21
514.69	21159.95
514.893	21379.09
515.095	21573.64
515.297	21776.39
515.499	21745.67
515.701	22495.23
515.904	22417.41
516.106	22777.85
516.308	22870.01
516.51	23205.88
516.712	23199.73
516.914	23521.26
517.116	23986.15
517.318	24272.87
517.52	24455.14
517.722	24508.38
517.925	24791
518.127	24743.9
518.329	25452.5
518.531	25055.19
518.733	25671.63
518.935	25796.56
519.136	25857.99
519.338	26390.47
519.54	26490.82
519.742	27099.06
519.944	26738.62
520.146	27434.93
520.348	27758.51
520.55	27781.04
520.752	27895.72
520.954	28432.29
521.155	28198.82
521.357	28835.74
521.559	28673.95
521.761	29165.46
521.963	29267.86
522.164	29314.97
522.366	29747.09
522.568	30066.57
522.77	29998.99
522.971	30574.47
523.173	30381.96
523.375	30615.43
523.576	30265.22
523.778	30893.95
523.98	31532.92
524.181	31364.98
524.383	31678.32
524.584	31897.45
524.786	32186.22
524.988	32018.28
525.189	32378.73
525.391	32444.26
525.592	32468.84
525.794	32849.76
525.995	33136.48
526.197	33300.31
526.398	33544.02
526.6	33535.83
526.801	33314.65
527.003	34094.93
527.204	34023.25
527.406	33804.11
527.607	34283.34
527.808	34408.26
528.01	33904.46
528.211	34248.52
528.412	34811.71
528.614	34895.68
528.815	34723.65
529.016	35108.67
529.218	34950.98
529.419	35028.8
529.62	35067.71
529.822	35266.36
530.023	35159.87
530.224	35280.7
530.425	35239.74
530.626	34842.43
530.828	34930.5
531.029	36200.24
531.23	35610.42
531.431	35204.92
531.632	35516.22
531.833	35880.75
532.035	35702.58
532.236	36005.68
532.437	35985.2
532.638	35860.27
532.839	36245.29
533.04	36405.03
533.241	35929.91
533.442	36302.64
533.643	35944.24
533.844	35794.74
534.045	36257.58
534.246	35800.88
534.447	36515.62
534.648	35858.23
534.849	36288.3
535.05	35942.19
535.251	36085.55
535.451	36425.51
535.652	36609.83
535.853	36323.12
536.054	36249.39
536.255	36394.79
536.456	36359.98
536.657	36964.13
536.857	36273.96
537.058	36278.06
537.259	36876.07
537.46	36364.07
537.66	36255.53
537.861	36276.01
538.062	36445.99
538.263	36175.66
538.463	36278.06
538.664	36581.16
538.865	36591.4
539.065	36775.72
539.266	36251.44
539.466	36431.66
539.667	35833.65
539.868	36591.4
540.068	36507.43
540.269	36253.48
540.469	36642.6
540.67	36384.55
540.87	36425.51
541.071	36300.59
541.271	36359.98
541.472	36333.35
541.672	36423.47
541.873	36190
542.073	35671.86
542.274	36876.07
542.474	36355.88
542.675	36120.37
542.875	36812.58
543.075	36615.97
543.276	35915.57
543.476	36683.56
543.676	36235.05
543.877	36611.88
544.077	36329.26
544.277	36091.69
544.478	36513.58
544.678	36493.1
544.878	36575.02
545.078	36640.55
545.279	36423.47
545.479	36036.4
545.679	36634.41
545.879	36577.06
546.079	36083.5
546.28	36204.33
546.48	36171.57
546.68	36511.53
546.88	36663.08
547.08	36548.39
547.28	35950.38
547.48	35907.38
547.68	36579.11
547.88	36417.32
548.081	36093.74
548.281	36456.23
548.481	36267.82
548.681	36443.95
548.881	36572.97
549.081	36599.59
549.28	36409.13
549.48	36310.83
549.68	36171.57
549.88	36407.08
550.08	36300.59
550.28	36146.99
550.48	35913.52
550.68	36355.88
550.88	36263.72
551.08	36226.86
551.279	36226.86
551.479	35999.54
551.679	36032.3
551.879	35821.36
552.079	36527.91
552.278	36163.37
552.478	36468.52
552.678	36347.69
552.878	36347.69
553.077	36214.57
553.277	35909.43
553.477	36497.19
553.676	36132.65
553.876	36396.84
554.076	35925.81
554.275	35866.42
554.475	35610.42
554.674	36136.75
554.874	35968.82
555.074	35770.16
555.273	36011.82
555.473	36261.68
555.672	35454.78
555.872	35692.34
556.071	35790.64
556.271	35706.68
556.47	35485.5
556.67	35540.79
556.869	35379
557.068	35510.07
557.268	35284.79
557.467	35303.23
557.667	35319.61
557.866	35137.34
558.065	35409.72
558.265	35262.27
558.464	35270.46
558.663	35393.34
558.863	34985.79
559.062	35516.22
559.261	35233.6
559.461	35503.93
559.66	34719.56
559.859	34856.77
560.058	34907.97
560.258	35227.45
560.457	34848.58
560.656	34838.34
560.855	34826.05
561.054	34971.46
561.253	34539.33
561.453	34918.21
561.652	34684.74
561.851	34631.49
562.05	34574.15
562.249	34496.33
562.448	34955.07
562.647	34574.15
562.846	34416.46
563.045	34416.46
563.244	33951.57
563.443	34465.61
563.642	33625.94
563.841	34289.48
564.04	33687.38
564.239	34205.52
564.438	33238.87
564.637	33953.62
564.836	34152.27
565.035	33761.11
565.234	34047.82
565.432	33429.34
565.631	33611.6
565.83	33601.36
566.029	33566.55
566.228	33259.35
566.427	33257.31
566.625	32962.4
566.824	32880.48
567.023	33458.01
567.222	32610.15
567.42	33531.73
567.619	33447.77
567.818	32915.3
568.016	33050.46
568.215	33218.39
568.414	33003.36
568.612	33290.07
568.811	32374.63
569.01	32708.45
569.208	32247.66
569.407	32530.28
569.605	32321.38
569.804	32198.51
570.002	32378.73
570.201	32378.73
570.4	31811.44
570.598	31897.45
570.797	31829.87
570.995	32014.19
571.193	31164.28
571.392	31661.94
571.59	31608.69
571.789	31405.94
571.987	31362.93
572.186	31227.77
572.384	30932.86
572.582	31268.73
572.781	31405.94
572.979	31059.84
573.177	31338.36
573.376	31164.28
573.574	30613.38
573.772	30877.57
573.971	30664.58
574.169	30541.7
574.367	30072.71
574.565	30635.91
574.763	30230.41
574.962	30402.44
575.16	30152.59
575.358	30431.11
575.556	29851.53
575.754	30341
575.952	29624.21
576.151	30058.38
576.349	29325.21
576.547	29710.22
576.745	29298.58
576.943	29646.74
577.141	29302.68
577.339	29609.87
577.537	29331.35
577.735	29251.48
577.933	29038.49
578.131	29093.79
578.329	29024.15
578.527	28772.25
578.725	28759.97
578.923	28972.96
579.121	28565.41
579.319	28465.06
579.516	28854.17
579.714	28600.22
579.912	28430.24
580.11	28475.3
580.308	28532.64
580.506	28352.42
580.704	27760.56
580.901	28164.01
581.099	28411.81
581.297	27807.66
581.495	27707.31
581.692	28288.93
581.89	27373.49
582.088	27819.95
582.285	27451.31
582.483	27557.81
582.681	27449.27
582.878	26953.66
583.076	26929.08
583.274	27490.23
583.471	26748.86
583.669	27092.92
583.866	26838.97
584.064	26707.9
584.262	26539.97
584.459	27084.73
584.657	26662.85
584.854	26779.58
585.052	25868.23
585.249	26589.12
585.447	26294.21
585.644	26005.45
585.841	26408.9
586.039	26333.12
586.236	25931.72
586.434	25896.91
586.631	26095.56
586.828	26124.23
587.026	25593.81
587.223	25599.95
587.42	25831.37
587.618	25563.09
587.815	25178.07
588.012	25417.68
588.21	25128.92
588.407	25659.34
588.604	25182.17
588.801	25298.9
588.999	25268.18
589.196	25143.25
589.393	25102.29
589.59	24727.52
589.787	24651.74
589.984	24645.6
590.182	24604.64
590.379	24694.75
590.576	24305.63
590.773	24645.6
590.97	24125.41
591.167	24655.84
591.364	23832.55
591.561	23932.9
591.758	23957.48
591.955	23746.54
592.152	24178.66
592.349	23873.51
592.546	23943.14
592.743	23683.05
592.94	23537.65
593.137	23785.45
593.334	23943.14
593.531	23144.44
593.727	23918.57
593.924	23533.55
594.121	23275.51
594.318	23205.88
594.515	23173.11
594.712	23009.27
594.908	22935.54
595.105	23277.55
595.302	22792.19
595.499	22904.82
595.696	22870.01
595.892	22618.11
596.089	22962.17
596.286	22706.17
596.482	22405.12
596.679	22540.29
596.876	22364.16
597.072	22605.82
597.269	22579.2
597.466	22102.02
597.662	22089.73
597.859	22441.98
598.055	22169.6
598.252	21872.65
598.448	21708.81
598.645	22005.77
598.841	21581.84
599.038	21923.85
599.234	21577.74
599.431	21549.07
599.627	21327.89
599.824	21862.41
600.02	21483.53
600.217	21493.77
600.413	21317.65
600.609	21442.57
600.806	21065.75
601.002	21135.38
601.198	21112.85
601.395	20840.47
601.591	21137.43
601.787	20875.29
601.984	20684.83
602.18	20987.93
602.376	20863
602.572	20504.6
602.769	20318.24
602.965	20238.37
603.161	20613.15
603.357	20183.07
603.553	20293.66
603.75	20127.78
603.946	20062.24
604.142	20250.66
604.338	20011.04
604.534	20154.4
604.73	19916.84
604.926	19767.34
605.122	19738.66
605.318	19660.84
605.514	19435.56
605.71	19505.2
605.906	19699.75
606.102	19464.24
606.298	19460.14
606.494	19222.58
606.69	19441.71
606.886	19259.44
607.082	19081.27
607.278	19042.35
607.474	18991.16
607.67	18944.05
607.866	18757.69
608.062	19105.84
608.257	18905.14
608.453	18630.71
608.649	18837.56
608.845	18647.1
609.041	18653.24
609.236	18507.83
609.432	18554.94
609.628	18692.15
609.824	18620.47
610.019	18284.61
610.215	18210.88
610.411	18440.25
610.606	18120.77
610.802	18036.8
610.998	18196.54
611.193	18491.45
611.389	18204.74
611.584	18042.95
611.78	17852.48
611.976	17928.26
612.171	17987.65
612.367	17832.01
612.562	17844.29
612.758	17678.41
612.953	17627.21
613.149	17748.04
613.344	17633.35
613.539	17915.97
613.735	17875.01
613.93	17631.3
614.126	17207.37
614.321	17535.05
614.517	17246.29
614.712	17584.2
614.907	17156.18
615.103	17326.16
615.298	17326.16
615.493	17748.04
615.688	17031.25
615.884	17504.33
616.079	16898.13
616.274	17160.27
616.47	16912.47
616.665	17053.78
616.86	17043.54
617.055	17029.2
617.25	16771.16
617.445	17186.9
617.641	16744.53
617.836	16945.23
618.031	16703.57
618.226	16541.78
618.421	16445.53
618.616	16576.6
618.811	16410.71
619.006	16621.66
619.201	16044.13
619.396	16169.05
619.591	16056.42
619.786	16250.97
619.981	15810.66
620.176	16175.2
620.371	15736.93
620.566	15835.24
620.761	15534.18
620.956	15802.47
621.151	15513.7
621.346	15831.14
621.541	15413.35
621.735	15566.95
621.93	15282.28
622.125	15206.51
622.32	15270
622.515	15265.9
622.709	15122.54
622.904	15069.3
623.099	14743.67
623.294	14874.74
623.488	14651.51
623.683	14575.73
623.878	14434.43
624.072	14690.42
624.267	14618.74
624.462	14233.72
624.656	14174.33
624.851	14385.27
625.046	14393.47
625.24	14053.5
625.435	14139.52
625.629	13897.86
625.824	13736.07
626.018	13598.85
626.213	13467.78
626.407	13435.02
626.602	13432.97
626.796	13664.39
626.991	13414.54
627.185	13250.7
627.38	13162.64
627.574	13154.44
627.768	12992.66
627.963	12935.31
628.157	13062.29
628.352	12853.39
628.546	12871.82
628.74	12869.78
628.935	12683.41
629.129	12845.2
629.323	12552.34
629.517	12574.87
629.712	12519.57
629.906	12365.98
630.1	12423.32
630.294	12433.56
630.489	11999.39
630.683	12050.59
630.877	12177.56
631.071	11874.46
631.265	12136.6
631.459	11901.09
631.653	11864.22
631.848	11858.08
632.042	11718.82
632.236	11870.37
632.43	11483.3
632.624	11561.12
632.818	11720.87
633.012	11395.24
633.206	11501.73
633.4	11477.16
633.594	11198.63
633.788	11235.5
633.982	11223.21
634.176	11186.35
634.369	11010.22
634.563	11004.08
634.757	10907.82
634.951	11022.51
635.145	10913.97
635.339	10795.18
635.533	10694.83
635.726	10608.82
635.92	10483.89
636.114	10569.91
636.308	10471.61
636.501	10275
636.695	10424.5
636.889	10469.56
637.083	10160.31
637.276	10096.83
637.47	10191.03
637.664	9924.8
637.857	10252.47
638.051	10102.97
638.244	10043.58
638.438	9943.23
638.632	9855.17
638.825	9724.1
639.019	9652.42
639.212	9838.78
639.406	9623.75
639.599	9674.95
639.793	9666.75
639.986	9275.59
640.18	9601.22
640.373	9691.33
640.567	9291.98
640.76	9306.31
640.954	9203.91
641.147	9265.35
641.34	9216.2
641.534	9099.47
641.727	8986.83
641.92	8917.2
642.114	9011.4
642.307	8945.87
642.5	8888.53
642.694	8876.24
642.887	8831.18
643.08	8616.15
643.273	8671.44
643.467	8614.1
643.66	8751.31
643.853	8483.03
644.046	8311
644.239	8399.06
644.432	8257.75
644.626	8169.69
644.819	8298.71
645.012	8311
645.205	8141.02
645.398	8181.98
645.591	7979.23
645.784	8222.94
645.977	7987.42
646.17	7999.71
646.363	7858.4
646.556	7686.37
646.749	7782.62
646.942	7571.68
647.135	7737.57
647.328	7729.38
647.521	7520.48
647.714	7569.63
647.907	7669.98
648.099	7424.23
648.292	7446.76
648.485	7418.08
648.678	7190.76
648.871	7307.49
649.064	7248.1
649.256	7385.32
649.449	7282.92
649.642	7241.96
649.835	7037.16
650.027	6924.52
650.22	7041.26
650.413	6971.63
650.605	6902
650.798	6906.09
650.991	6820.08
651.183	6789.36
651.376	6617.33
651.568	6758.64
651.761	6877.42
651.954	6605.04
652.146	6748.4
652.339	6596.85
652.531	6572.27
652.724	6490.35
652.916	6471.92
653.109	6541.55
653.301	6422.77
653.494	6220.02
653.686	6211.83
653.879	6514.93
654.071	6275.32
654.263	6138.1
654.456	6203.64
654.648	6193.4
654.84	6146.3
655.033	6080.76
655.225	6080.76
655.417	5878.01
655.61	6248.69
655.802	6119.67
655.994	6050.04
656.186	6047.99
656.379	5894.4
656.571	5910.78
656.763	5802.24
656.955	5755.13
657.148	5816.57
657.34	5841.15
657.532	5486.85
657.724	5642.5
657.916	5710.08
658.108	5607.68
658.3	5464.32
658.492	5572.86
658.684	5409.03
658.876	5488.9
659.068	5544.19
659.26	5292.29
659.452	5488.9
659.644	5347.59
659.836	5249.29
660.028	5107.98
660.22	5296.39
660.412	5224.71
660.604	5193.99
660.796	5077.26
660.988	5136.65
661.18	5091.59
661.372	4999.43
661.563	5130.5
661.755	4837.64
661.947	4843.79
662.139	5030.15
662.331	4966.67
662.522	4702.48
662.714	4743.44
662.906	4841.74
663.097	4641.04
663.289	4872.46
663.481	4753.68
663.673	4747.53
663.864	4581.65
664.056	4583.7
664.247	4671.76
664.439	4563.22
664.631	4600.08
664.822	4573.46
665.014	4608.27
665.205	4466.96
665.397	4579.6
665.588	4514.06
665.78	4374.8
665.971	4319.51
666.163	4426
666.354	4284.69
666.546	4432.15
666.737	4219.16
666.929	4219.16
667.12	4167.96
667.311	4282.64
667.503	4239.64
667.694	4219.16
667.885	4262.16
668.077	4196.63
668.268	4096.28
668.459	4020.5
668.651	3993.88
668.842	4098.33
669.033	3983.64
669.224	4006.17
669.416	3975.45
669.607	4051.22
669.798	4055.32
669.989	3897.63
670.18	3885.34
670.371	3877.15
670.563	3821.85
670.754	3813.66
670.945	3895.58
671.136	3840.28
671.327	3846.43
671.518	3871
671.709	3772.7
671.9	3768.6
672.091	3760.41
672.282	3733.79
672.473	3694.88
672.664	3711.26
672.855	3684.64
673.046	3680.54
673.237	3621.15
673.428	3705.12
673.619	3610.91
673.809	3551.52
674	3621.15
674.191	3584.29
674.382	3485.98
674.573	3565.85
674.764	3483.94
674.954	3676.45
675.145	3457.31
675.336	3553.57
675.527	3610.91
675.717	3545.38
675.908	3535.14
676.099	3453.22
676.289	3453.22
676.48	3467.55
676.671	3537.18
676.861	3301.67
677.052	3342.63
677.243	3387.68
677.433	3268.9
677.624	3285.28
677.814	3383.59
678.005	3217.7
678.195	3254.56
678.386	3191.08
678.576	3193.12
678.767	3221.8
678.957	3260.71
679.148	3285.28
679.338	3246.37
679.529	3060.01
679.719	3273
679.909	3193.12
680.1	3207.46
680.29	3248.42
680.481	3248.42
680.671	3195.17
680.861	3207.46
681.052	3195.17
681.242	3209.51
681.432	3219.75
681.622	3094.82
681.813	3148.07
682.003	3080.49
682.193	3047.72
682.383	3082.53
682.573	3164.45
682.764	3043.62
682.954	3062.05
683.144	3078.44
683.334	3000.62
683.524	2922.79
683.714	3047.72
683.904	3094.82
684.094	2988.33
684.284	2986.28
684.474	3049.77
684.664	2965.8
684.854	3035.43
685.044	2900.27
685.234	2957.61
685.424	2930.98
685.614	2951.46
685.804	2935.08
685.994	2986.28
686.184	2965.8
686.374	2982.18
686.564	2887.98
686.753	2906.41
686.943	2814.25
687.133	2849.07
687.323	2806.06
687.513	2855.21
687.702	2957.61
687.892	2894.12
688.082	2842.92
688.272	2928.94
688.461	2840.87
688.651	2935.08
688.841	2722.09
689.03	2883.88
689.22	2775.34
689.41	2787.63
689.599	2883.88
689.789	2640.17
689.979	2783.53
690.168	2799.91
690.358	2824.49
690.547	2783.53
690.737	2769.2
690.926	2933.03
691.116	2640.17
691.305	2820.39
691.495	2767.15
691.684	2677.04
691.874	2773.29
692.063	2699.56
692.252	2670.89
692.442	2683.18
692.631	2625.84
692.82	2656.56
693.01	2666.8
693.199	2658.6
693.388	2609.45
693.578	2687.28
693.767	2705.71
693.956	2668.84
694.146	2609.45
694.335	2691.37
694.524	2642.22
694.713	2826.54
694.902	2621.74
695.092	2554.16
695.281	2625.84
695.47	2687.28
695.659	2586.93
695.848	2580.78
696.037	2631.98
696.226	2687.28
696.415	2552.11
696.604	2662.7
696.793	2648.36
696.982	2754.86
697.171	2574.64
697.36	2636.08
697.549	2505.01
697.738	2492.72
697.927	2629.93
698.116	2554.16
698.305	2703.66
698.494	2683.18
698.683	2650.41
698.872	2588.97
699.061	2566.45
699.25	2548.01
699.438	2517.29
699.627	2621.74
699.816	2627.89
700.005	2572.59
700.193	2638.13
700.382	2539.82
700.571	2533.68
700.76	2642.22
700.948	2629.93
701.137	2445.62
701.326	2668.84
701.514	2443.57
701.703	2484.53
701.892	2488.62
702.08	2451.76
702.269	2445.62
702.457	2474.29
702.646	2502.96
702.834	2400.56
703.023	2470.19
703.212	2455.86
703.4	2478.38
703.589	2437.42
703.777	2398.51
703.965	2394.42
704.154	2568.49
704.342	2447.66
704.531	2230.58
704.719	2468.14
704.907	2353.46
705.096	2392.37
705.284	2351.41
705.472	2496.82
705.661	2363.7
705.849	2439.47
706.037	2320.69
706.226	2392.37
706.414	2410.8
706.602	2388.27
706.79	2304.31
706.979	2369.84
707.167	2371.89
707.355	2351.41
707.543	2332.98
707.731	2353.46
707.919	2234.68
708.107	2244.92
708.296	2312.5
708.484	2212.15
708.672	2232.63
708.86	2312.5
709.048	2357.55
709.236	2212.15
709.424	2191.67
709.612	2335.03
709.8	2199.86
709.988	2167.09
710.176	2187.57
710.364	2263.35
710.551	2171.19
710.739	2185.52
710.927	2236.72
711.115	2269.49
711.303	2306.35
711.491	2212.15
711.679	2206
711.866	2119.99
712.054	2148.66
712.242	2107.7
712.43	2087.22
712.617	2126.13
712.805	2105.65
712.993	2105.65
713.181	2081.08
713.368	2040.12
713.556	2109.75
713.744	2099.51
713.931	2122.04
714.119	2050.36
714.306	2007.35
714.494	2126.13
714.682	2154.8
714.869	2068.79
715.057	2076.98
715.244	1995.06
715.432	2050.36
715.619	1820.99
715.807	1925.43
715.994	1970.49
716.182	1898.81
716.369	1970.49
716.556	2005.3
716.744	1984.82
716.931	1835.32
717.119	1990.97
717.306	1859.9
717.493	1818.94
717.681	1861.94
717.868	1896.76
718.055	1810.75
718.242	1855.8
718.43	1878.33
718.617	1911.1
718.804	1841.47
718.991	1853.75
719.179	1757.5
719.366	1868.09
719.553	1700.16
719.74	1734.97
719.927	1763.64
720.114	1716.54
720.301	1773.88
720.488	1747.26
720.676	1702.2
720.863	1792.31
721.05	1806.65
721.237	1687.87
721.424	1720.64
721.611	1700.16
721.798	1653.05
721.985	1892.66
722.172	1671.48
722.358	1726.78
722.545	1732.92
722.732	1706.3
722.919	1753.4
723.106	1773.88
723.293	1659.2
723.48	1696.06
723.667	1638.72
723.853	1620.28
724.04	1667.39
724.227	1640.76
724.414	1544.51
724.6	1702.2
724.787	1603.9
724.974	1651
725.161	1601.85
725.347	1583.42
725.534	1620.28
725.72	1638.72
725.907	1567.04
726.094	1569.09
726.28	1573.18
726.467	1599.8
726.653	1651
726.84	1528.13
727.027	1683.77
727.213	1487.17
727.4	1605.95
727.586	1550.65
727.773	1513.79
727.959	1509.69
728.145	1532.22
728.332	1483.07
728.518	1517.89
728.705	1536.32
728.891	1532.22
729.077	1483.07
729.264	1519.93
729.45	1495.36
729.636	1489.21
729.823	1438.02
730.009	1466.69
730.195	1542.46
730.382	1489.21
730.568	1517.89
730.754	1589.57
730.94	1446.21
731.126	1489.21
731.313	1474.88
731.499	1421.63
731.685	1411.39
731.871	1360.19
732.057	1556.8
732.243	1491.26
732.429	1399.1
732.615	1466.69
732.801	1589.57
732.987	1376.58
733.173	1358.14
733.359	1382.72
733.545	1268.03
733.731	1362.24
733.917	1519.93
734.103	1403.2
734.289	1372.48
734.475	1300.8
734.661	1409.34
734.847	1390.91
735.033	1265.99
735.219	1317.19
735.404	1329.47
735.59	1296.71
735.776	1356.1
735.962	1288.51
736.148	1419.58
736.333	1298.75
736.519	1343.81
736.705	1339.71
736.89	1270.08
737.076	1317.19
737.262	1290.56
737.447	1278.27
737.633	1339.71
737.819	1304.9
738.004	1233.22
738.19	1188.16
738.375	1210.69
738.561	1245.51
738.747	1270.08
738.932	1300.8
739.118	1296.71
739.303	1239.36
739.489	1122.63
739.674	1165.64
739.859	1196.36
740.045	1159.49
740.23	1120.58
740.416	1161.54
740.601	1227.07
740.786	1243.46
740.972	1182.02
741.157	1149.25
741.342	1169.73
741.528	1182.02
741.713	1188.16
741.898	1136.96
742.084	1229.12
742.269	1141.06
742.454	1120.58
742.639	1165.64
742.824	1171.78
743.01	1145.16
743.195	1190.21
743.38	1130.82
743.565	1182.02
743.75	1102.15
743.935	1139.01
744.12	1112.39
744.305	1087.81
744.49	1202.5
744.675	1116.48
744.86	1044.81
745.045	1071.43
745.23	1091.91
745.415	1079.62
745.6	1007.94
745.785	1040.71
745.97	1071.43
746.155	1048.9
746.34	1087.81
746.525	930.12
746.71	993.61
746.895	952.65
747.079	999.75
747.264	981.32
747.449	987.46
747.634	1038.66
747.819	1020.23
748.003	969.03
748.188	907.59
748.373	864.58
748.557	960.84
748.742	934.22
748.927	1032.52
749.111	901.45
749.296	905.54
749.481	891.21
749.665	966.98
749.85	854.34
750.034	860.49
750.219	844.1
750.404	946.5
750.588	917.83
750.773	854.34
750.957	948.55
751.141	973.13
751.326	878.92
751.51	829.77
751.695	803.15
751.879	903.5
752.064	854.34
752.248	915.78
752.432	854.34
752.617	878.92
752.801	803.15
752.985	831.82
753.17	887.11
753.354	817.48
753.538	825.67
753.722	780.62
753.907	794.95
754.091	731.47
754.275	819.53
754.459	815.43
754.643	788.81
754.828	733.51
755.012	708.94
755.196	753.99
755.38	725.32
755.564	758.09
755.748	700.75
755.932	706.89
756.116	723.27
756.3	715.08
756.484	735.56
756.668	747.85
756.852	727.37
757.036	708.94
757.22	725.32
757.404	731.47
757.588	745.8
757.772	737.61
757.956	702.79
758.14	690.51
758.323	700.75
758.507	702.79
758.691	624.97
758.875	534.86
759.059	751.95
759.242	624.97
759.426	645.45
759.61	692.55
759.794	694.6
759.977	616.78
760.161	682.31
760.345	633.16
760.528	688.46
760.712	680.27
760.895	555.34
761.079	590.16
761.263	616.78
761.446	541.01
761.63	620.88
761.813	653.64
761.997	616.78
762.18	581.96
762.364	577.87
762.547	567.63
762.731	569.68
762.914	680.27
763.098	610.64
763.281	610.64
763.464	598.35
763.648	555.34
763.831	573.77
764.015	579.92
764.198	565.58
764.381	483.66
764.564	567.63
764.748	553.29
764.931	526.67
765.114	577.87
765.297	627.02
765.481	516.43
765.664	510.29
765.847	598.35
766.03	498
766.213	520.53
766.397	500.05
766.58	637.26
766.763	491.85
766.946	512.33
767.129	573.77
767.312	500.05
767.495	547.15
767.678	557.39
767.861	495.95
768.044	518.48
768.227	565.58
768.41	536.91
768.593	493.9
768.776	567.63
768.959	557.39
769.142	541.01
769.324	512.33
769.507	520.53
769.69	502.09
769.873	528.72
770.056	565.58
770.239	536.91
770.421	493.9
770.604	446.8
770.787	508.24
770.97	506.19
771.152	485.71
771.335	538.96
771.518	520.53
771.7	561.48
771.883	481.61
772.066	471.37
772.248	467.28
772.431	502.09
772.613	495.95
772.796	530.77
772.978	516.43
773.161	469.33
773.343	485.71
773.526	463.18
773.708	541.01
773.891	450.89
774.073	461.13
774.256	383.31
774.438	477.52
774.621	491.85
774.803	491.85
774.985	459.09
775.168	442.7
775.35	371.02
775.532	473.42
775.715	426.32
775.897	440.65
776.079	409.94
776.261	428.37
776.444	373.07
776.626	454.99
776.808	430.41
776.99	403.79
777.173	352.59
777.355	450.89
777.537	442.7
777.719	397.65
777.901	428.37
778.083	440.65
778.265	336.21
778.447	467.28
778.629	336.21
778.811	371.02
778.993	395.6
779.175	270.67
779.357	350.54
779.539	340.3
779.721	389.46
779.903	352.59
780.085	373.07
780.267	422.22
780.449	393.55
780.631	354.64
780.812	330.06
780.994	321.87
781.176	319.82
781.358	356.69
781.54	321.87
781.721	330.06
781.903	395.6
782.085	368.98
782.267	317.78
782.448	237.91
782.63	354.64
782.812	430.41
782.993	328.02
783.175	336.21
783.357	262.48
783.538	383.31
783.72	338.26
783.901	360.78
784.083	287.06
784.264	330.06
784.446	315.73
784.627	315.73
784.809	303.44
784.99	299.34
785.172	274.77
785.353	239.95
785.535	221.52
785.716	233.81
785.897	336.21
786.079	340.3
786.26	276.82
786.441	258.39
786.623	166.23
786.804	260.43
786.985	244.05
787.167	260.43
787.348	262.48
787.529	258.39
787.71	262.48
787.891	274.77
788.073	299.34
788.254	325.97
788.435	231.76
788.616	246.1
788.797	278.87
788.978	246.1
789.159	168.27
789.34	207.19
789.522	285.01
789.703	207.19
789.884	282.96
790.065	303.44
790.246	205.14
790.427	287.06
790.607	229.71
790.788	252.24
790.969	180.56
791.15	252.24
791.331	248.15
791.512	262.48
791.693	266.58
791.874	192.85
792.054	196.95
792.235	172.37
792.416	186.71
792.597	221.52
792.778	274.77
792.958	297.3
793.139	172.37
793.32	239.95
793.5	213.33
793.681	172.37
793.862	207.19
794.042	211.28
794.223	182.61
794.404	225.62
794.584	182.61
794.765	233.81
794.945	219.47
795.126	246.1
795.306	172.37
795.487	237.91
795.667	117.08
795.848	176.47
796.028	192.85
796.209	180.56
796.389	223.57
796.57	215.38
796.75	176.47
796.93	237.91
797.111	112.98
797.291	217.43
797.471	127.32
797.652	160.08
797.832	188.75
798.012	106.84
798.192	170.32
798.373	127.32
798.553	186.71
798.733	196.95
798.913	164.18
799.093	186.71
799.274	117.08
799.454	184.66
799.634	139.6
799.814	160.08
799.994	133.46
800.174	209.23
800.354	188.75
800.534	149.84
800.714	209.23
800.894	147.8
801.074	125.27
801.254	184.66
801.434	147.8
801.614	151.89
801.794	180.56
801.974	389.46
802.154	137.56
802.334	221.52
802.514	147.8
802.693	168.27
802.873	172.37
803.053	110.93
803.233	166.23
803.413	123.22
803.592	123.22
803.772	188.75
803.952	100.69
804.131	147.8
804.311	76.12
804.491	129.36
804.67	98.64
804.85	112.98
805.03	84.31
805.209	160.08
805.389	110.93
805.568	151.89
805.748	166.23
805.928	145.75
806.107	104.79
806.287	182.61
806.466	119.12
806.646	53.59
806.825	149.84
807.004	131.41
807.184	125.27
807.363	119.12
807.543	76.12
807.722	147.8
807.901	166.23
808.081	180.56
808.26	123.22
808.439	76.12
808.619	65.88
808.798	110.93
808.977	78.16
809.156	205.14
809.336	160.08
809.515	104.79
809.694	65.88
809.873	86.36
810.052	102.74
810.231	158.03
810.411	155.99
810.59	151.89
810.769	155.99
810.948	131.41
811.127	49.49
811.306	106.84
811.485	82.26
811.664	162.13
811.843	119.12
812.022	168.27
812.201	39.25
812.38	123.22
812.559	78.16
812.737	141.65
812.916	80.21
813.095	98.64
813.274	115.03
813.453	74.07
813.632	112.98
813.811	110.93
813.989	24.92
814.168	119.12
814.347	84.31
814.526	110.93
814.704	131.41
814.883	135.51
815.062	98.64
815.24	149.84
815.419	53.59
815.598	102.74
815.776	41.3
815.955	88.4
816.133	90.45
816.312	102.74
816.49	98.64
816.669	76.12
816.847	78.16
817.026	176.47
817.204	45.4
817.383	90.45
817.561	74.07
817.74	78.16
817.918	125.27
818.097	51.54
818.275	133.46
818.453	69.97
818.632	78.16
818.81	145.75
818.988	63.83
819.167	121.17
819.345	76.12
819.523	35.16
819.701	123.22
819.879	63.83
820.058	117.08
820.236	37.2
820.414	119.12
820.592	65.88
820.77	61.78
820.948	108.88
821.127	78.16
821.305	63.83
821.483	55.64
821.661	123.22
821.839	67.92
822.017	33.11
822.195	49.49
822.373	59.73
822.551	43.35
822.729	53.59
822.907	104.79
823.085	41.3
823.262	16.73
823.44	92.5
823.618	98.64
823.796	35.16
823.974	59.73
824.152	45.4
824.329	-13.99
824.507	8.53
824.685	65.88
824.863	2.39
825.04	33.11
825.218	96.6
825.396	108.88
825.574	84.31
825.751	84.31
825.929	139.6
826.107	-3.75
826.284	127.32
826.462	117.08
826.639	59.73
826.817	108.88
826.994	49.49
827.172	57.68
827.349	41.3
827.527	-32.43
827.704	123.22
827.882	123.22
828.059	125.27
828.237	16.73
828.414	94.55
828.591	49.49
828.769	74.07
828.946	86.36
829.124	117.08
829.301	26.96
829.478	67.92
829.655	33.11
829.833	98.64
830.01	57.68
830.187	164.18
830.364	74.07
830.542	108.88
830.719	80.21
830.896	139.6
831.073	76.12
831.25	84.31
831.427	74.07
831.604	63.83
831.782	90.45
831.959	84.31
832.136	59.73
832.313	35.16
832.49	153.94
832.667	88.4
832.844	43.35
833.021	-22.19
833.198	2.39
833.374	8.53
833.551	43.35
833.728	78.16
833.905	74.07
834.082	33.11
834.259	67.92
834.436	119.12
834.612	82.26
834.789	82.26
834.966	51.54
835.143	82.26
835.319	39.25
835.496	35.16
835.673	-13.99
835.85	104.79
836.026	115.03
836.203	78.16
836.38	-1.71
836.556	10.58
836.733	-20.14
836.909	4.44
837.086	45.4
837.262	65.88
837.439	82.26
837.616	69.97
837.792	65.88
837.968	45.4
838.145	86.36
838.321	20.82
838.498	24.92
838.674	49.49
838.851	74.07
839.027	57.68
839.203	78.16
839.38	98.64
839.556	57.68
839.732	31.06
839.909	53.59
840.085	92.5
840.261	65.88
840.437	59.73
840.614	92.5
840.79	47.44
840.966	86.36
841.142	104.79
841.318	39.25
841.494	74.07
841.671	53.59
841.847	49.49
842.023	135.51
842.199	10.58
842.375	43.35
842.551	67.92
842.727	-106.15
842.903	76.12
843.079	-3.75
843.255	82.26
843.431	53.59
843.607	45.4
843.783	-1.71
843.959	31.06
844.134	26.96
844.31	-1.71
844.486	-11.95
844.662	100.69
844.838	98.64
845.013	96.6
845.189	92.5
845.365	8.53
845.541	51.54
845.716	39.25
845.892	35.16
846.068	41.3
846.244	35.16
846.419	96.6
846.595	16.73
846.77	18.77
846.946	-7.85
847.122	0.34
847.297	45.4
847.473	26.96
847.648	37.2
847.824	84.31
847.999	63.83
848.175	69.97
848.35	127.32
848.526	37.2
848.701	0.34
848.876	51.54
849.052	100.69
849.227	59.73
849.403	-1.71
849.578	47.44
849.753	39.25
849.929	67.92
850.104	29.01
850.279	8.53
850.454	49.49
850.63	24.92
850.805	2.39
850.98	16.73
851.155	-11.95
851.33	4.44
851.505	-57
851.681	41.3
851.856	106.84
852.031	-18.09
852.206	-24.23
852.381	-3.75
852.556	82.26
852.731	57.68
852.906	-38.57
853.081	4.44
853.256	12.63
853.431	47.44
853.606	-38.57
853.781	2.39
853.956	12.63
854.131	35.16
854.305	-5.8
854.48	4.44
854.655	-20.14
854.83	49.49
855.005	24.92
855.18	10.58
855.354	24.92
855.529	49.49
855.704	16.73
855.879	65.88
856.053	8.53
856.228	24.92
856.403	20.82
856.577	20.82
856.752	29.01
856.926	35.16
857.101	10.58
857.276	24.92
857.45	-5.8
857.625	74.07
857.799	8.53
857.974	31.06
858.148	69.97
858.323	29.01
858.497	16.73
858.672	22.87
858.846	8.53
859.02	82.26
859.195	45.4
859.369	57.68
859.543	33.11
859.718	65.88
859.892	39.25
860.066	69.97
860.241	4.44
860.415	82.26
860.589	29.01
860.763	29.01
860.938	65.88
861.112	12.63
861.286	41.3
861.46	65.88
861.634	33.11
861.808	-7.85
861.982	-1.71
862.157	-32.43
862.331	41.3
862.505	16.73
862.679	8.53
862.853	4.44
863.027	41.3
863.201	84.31
863.375	2.39
863.549	100.69
863.722	-3.75
863.896	65.88
864.07	26.96
864.244	26.96
864.418	33.11
864.592	92.5
864.766	10.58
864.939	4.44
865.113	-28.33
865.287	37.2
865.461	78.16
865.634	26.96
865.808	-22.19
865.982	24.92
866.156	47.44
866.329	35.16
866.503	-7.85
866.676	33.11
866.85	35.16
867.024	61.78
867.197	41.3
867.371	2.39
867.544	14.68
867.718	-13.99
867.891	53.59
868.065	10.58
868.238	18.77
868.412	24.92
868.585	51.54
868.759	-30.38
868.932	82.26
869.105	-36.52
869.279	-1.71
869.452	24.92
869.625	67.92
869.799	-44.71
869.972	2.39
870.145	18.77
870.319	-7.85
870.492	20.82
870.665	-13.99
870.838	41.3
871.011	-5.8
871.185	55.64
871.358	-38.57
871.531	0.34
871.704	47.44
871.877	-16.04
872.05	-18.09
872.223	-1.71
872.396	33.11
872.569	2.39
872.742	-11.95
872.915	-3.75
873.088	-22.19
873.261	0.34
873.434	8.53
873.607	35.16
873.78	55.64
873.953	47.44
874.126	14.68
874.299	10.58
874.471	12.63
874.644	-20.14
874.817	-30.38
874.99	74.07
875.163	-3.75
875.335	59.73
875.508	-13.99
875.681	18.77
875.853	-57
876.026	41.3
876.199	31.06
876.371	2.39
876.544	-13.99
876.717	10.58
876.889	16.73
877.062	-9.9
877.234	51.54
877.407	49.49
877.579	55.64
877.752	-30.38
877.924	33.11
878.097	29.01
878.269	2.39
878.442	8.53
878.614	12.63
878.786	-36.52
878.959	90.45
879.131	18.77
879.303	127.32
879.476	63.83
879.648	45.4
879.82	69.97
879.993	8.53
880.165	43.35
880.337	-34.47
880.509	65.88
880.681	-52.91
880.854	49.49
881.026	-5.8
881.198	45.4
881.37	-16.04
881.542	-32.43
881.714	-40.62
881.886	10.58
882.058	41.3
882.23	20.82
882.402	57.68
882.574	-24.23
882.746	12.63
882.918	84.31
883.09	51.54
883.262	16.73
883.434	61.78
883.606	-7.85
883.778	33.11
883.95	67.92
884.122	-32.43
884.293	-24.23
884.465	-20.14
884.637	106.84
884.809	29.01
884.98	31.06
885.152	-26.28
885.324	16.73
885.496	-22.19
885.667	22.87
885.839	61.78
886.011	76.12
886.182	-1.71
886.354	0.34
886.525	20.82
886.697	69.97
886.869	0.34
887.04	57.68
887.212	98.64
887.383	4.44
887.555	6.49
887.726	31.06
887.897	0.34
888.069	2.39
888.24	65.88
888.412	-40.62
888.583	22.87
888.754	-3.75
888.926	24.92
889.097	41.3
889.268	8.53
889.44	41.3
889.611	-36.52
889.782	-16.04
889.953	-9.9
890.125	108.88
890.296	12.63
890.467	16.73
890.638	-36.52
890.809	-1.71
890.98	10.58
891.151	10.58
891.323	0.34
891.494	47.44
891.665	-13.99
891.836	-30.38
892.007	72.02
892.178	-9.9
892.349	-7.85
892.52	65.88
892.691	33.11
892.862	61.78
893.032	6.49
893.203	29.01
893.374	12.63
893.545	57.68
893.716	65.88
893.887	18.77
894.057	24.92
894.228	43.35
894.399	49.49
894.57	53.59
894.74	-16.04
894.911	31.06
895.082	24.92
895.253	88.4
895.423	-57
895.594	147.8
895.764	51.54
895.935	33.11
896.106	-40.62
896.276	-20.14
896.447	2.39
896.617	16.73
896.788	-9.9
896.958	0.34
897.129	41.3
897.299	4.44
897.47	24.92
897.64	84.31
897.81	-20.14
897.981	-7.85
898.151	-1.71
898.322	-50.86
898.492	39.25
898.662	37.2
898.832	37.2
899.003	20.82
899.173	96.6
899.343	-48.81
899.513	51.54
