Data from USB4F104151__133__13-58-02-577.txt Node

Date: Thu Mar 13 13:58:02 EDT 2025
User: louis
Spectrometer: USB4F10415
Trigger mode: 4
Integration Time (sec): 1.000000E-2
Scans to average: 1
Electric dark correction enabled: true
Nonlinearity correction enabled: false
Boxcar width: 0
XAxis mode: Wavelengths
Number of Pixels in Spectrum: 3648
>>>>>Begin Spectral Data<<<<<
178.204	-98.81
178.424	-98.81
178.644	-98.81
178.864	-107.01
179.084	-113.15
179.304	5.63
179.524	-20.99
179.744	48.64
179.964	28.16
180.184	-20.99
180.404	-29.18
180.624	-16.9
180.844	17.92
181.064	-61.95
181.283	-8.7
181.503	38.4
181.723	19.97
181.943	-49.66
182.163	19.97
182.383	-35.33
182.602	24.06
182.822	-29.18
183.042	-37.38
183.262	-0.51
183.482	-39.42
183.701	-12.8
183.921	-0.51
184.141	-6.66
184.361	-72.19
184.58	-16.9
184.8	24.06
185.02	-80.38
185.239	60.93
185.459	34.3
185.679	-84.48
185.898	-23.04
186.118	22.02
186.338	-31.23
186.557	-12.8
186.777	19.97
186.997	-43.52
187.216	1.54
187.436	52.74
187.655	1.54
187.875	-14.85
188.095	13.82
188.314	-51.71
188.534	-8.7
188.753	-47.62
188.973	-14.85
189.192	-6.66
189.412	-41.47
189.631	26.11
189.851	42.5
190.07	62.98
190.29	-10.75
190.509	-29.18
190.729	3.58
190.948	15.87
191.168	5.63
191.387	3.58
191.607	7.68
191.826	-16.9
192.045	-4.61
192.265	-6.66
192.484	-20.99
192.704	28.16
192.923	40.45
193.142	-23.04
193.362	-55.81
193.581	19.97
193.8	9.73
194.02	-25.09
194.239	1.54
194.458	38.4
194.678	30.21
194.897	15.87
195.116	-10.75
195.335	-16.9
195.555	-4.61
195.774	114.17
195.993	36.35
196.212	-92.67
196.432	54.78
196.651	11.78
196.87	-68.09
197.089	67.07
197.308	-8.7
197.528	1.54
197.747	22.02
197.966	48.64
198.185	-33.28
198.404	-16.9
198.623	11.78
198.842	-66.05
199.062	-8.7
199.281	24.06
199.5	13.82
199.719	-10.75
199.938	-6.66
200.157	81.41
200.376	26.11
200.595	54.78
200.814	-25.09
201.033	13.82
201.252	54.78
201.471	42.5
201.69	-2.56
201.909	5.63
202.128	13.82
202.347	11.78
202.566	-55.81
202.785	-43.52
203.004	11.78
203.223	34.3
203.442	34.3
203.661	26.11
203.879	-8.7
204.098	24.06
204.317	-6.66
204.536	-43.52
204.755	3.58
204.974	-14.85
205.193	46.59
205.411	17.92
205.63	-70.14
205.849	-8.7
206.068	9.73
206.287	46.59
206.505	-12.8
206.724	40.45
206.943	1.54
207.162	-70.14
207.381	13.82
207.599	103.93
207.818	28.16
208.037	-45.57
208.255	-35.33
208.474	67.07
208.693	-8.7
208.911	-49.66
209.13	-12.8
209.349	89.6
209.567	34.3
209.786	3.58
210.005	71.17
210.223	11.78
210.442	-55.81
210.661	44.54
210.879	-2.56
211.098	38.4
211.316	-2.56
211.535	44.54
211.753	-107.01
211.972	32.26
212.191	-29.18
212.409	-25.09
212.628	-14.85
212.846	19.97
213.065	19.97
213.283	56.83
213.502	48.64
213.72	-49.66
213.938	-33.28
214.157	-16.9
214.375	-14.85
214.594	-10.75
214.812	32.26
215.031	-25.09
215.249	5.63
215.467	56.83
215.686	28.16
215.904	67.07
216.122	3.58
216.341	1.54
216.559	1.54
216.778	-41.47
216.996	24.06
217.214	-16.9
217.432	60.93
217.651	-23.04
217.869	-53.76
218.087	-2.56
218.306	-0.51
218.524	52.74
218.742	-14.85
218.96	56.83
219.179	-29.18
219.397	-12.8
219.615	54.78
219.833	75.26
220.051	-53.76
220.27	40.45
220.488	56.83
220.706	9.73
220.924	-18.94
221.142	5.63
221.36	-33.28
221.578	38.4
221.796	28.16
222.015	17.92
222.233	-12.8
222.451	36.35
222.669	-43.52
222.887	-10.75
223.105	1.54
223.323	60.93
223.541	-49.66
223.759	-18.94
223.977	-16.9
224.195	24.06
224.413	-14.85
224.631	34.3
224.849	1.54
225.067	56.83
225.285	-23.04
225.503	-12.8
225.721	-25.09
225.939	42.5
226.157	-18.94
226.375	73.21
226.592	36.35
226.81	-29.18
227.028	32.26
227.246	22.02
227.464	24.06
227.682	-14.85
227.9	73.21
228.117	-8.7
228.335	-2.56
228.553	-109.05
228.771	17.92
228.989	3.58
229.206	-4.61
229.424	-16.9
229.642	-10.75
229.86	-43.52
230.077	50.69
230.295	26.11
230.513	48.64
230.731	34.3
230.948	19.97
231.166	19.97
231.384	60.93
231.601	-55.81
231.819	3.58
232.037	-45.57
232.254	-8.7
232.472	5.63
232.689	-55.81
232.907	-6.66
233.125	1.54
233.342	-37.38
233.56	56.83
233.777	50.69
233.995	-6.66
234.213	42.5
234.43	3.58
234.648	24.06
234.865	-59.9
235.083	-39.42
235.3	-25.09
235.518	44.54
235.735	-53.76
235.953	-4.61
236.17	7.68
236.388	22.02
236.605	-14.85
236.822	5.63
237.04	-41.47
237.257	28.16
237.475	-43.52
237.692	65.02
237.909	-20.99
238.127	-4.61
238.344	71.17
238.562	-8.7
238.779	-41.47
238.996	42.5
239.214	-23.04
239.431	22.02
239.648	-127.49
239.865	1.54
240.083	-90.62
240.3	13.82
240.517	-25.09
240.735	-74.24
240.952	15.87
241.169	42.5
241.386	-0.51
241.603	56.83
241.821	-121.34
242.038	38.4
242.255	19.97
242.472	-47.62
242.689	1.54
242.907	40.45
243.124	5.63
243.341	28.16
243.558	-49.66
243.775	9.73
243.992	13.82
244.209	15.87
244.426	50.69
244.643	-14.85
244.86	13.82
245.078	-49.66
245.295	-41.47
245.512	19.97
245.729	-2.56
245.946	9.73
246.163	19.97
246.38	-8.7
246.597	-20.99
246.814	-29.18
247.031	-6.66
247.248	32.26
247.464	-18.94
247.681	-2.56
247.898	-2.56
248.115	-8.7
248.332	-68.09
248.549	-8.7
248.766	-0.51
248.983	42.5
249.2	-29.18
249.417	30.21
249.633	-10.75
249.85	19.97
250.067	-33.28
250.284	-57.86
250.501	-6.66
250.717	46.59
250.934	28.16
251.151	38.4
251.368	-12.8
251.585	-14.85
251.801	-72.19
252.018	-6.66
252.235	-0.51
252.451	-10.75
252.668	32.26
252.885	15.87
253.102	-57.86
253.318	-27.14
253.535	-45.57
253.752	-23.04
253.968	-51.71
254.185	1.54
254.401	-8.7
254.618	9.73
254.835	13.82
255.051	-14.85
255.268	36.35
255.484	-33.28
255.701	7.68
255.917	32.26
256.134	-27.14
256.351	-12.8
256.567	-64
256.784	48.64
257	42.5
257.217	-10.75
257.433	-2.56
257.65	-39.42
257.866	-45.57
258.082	-61.95
258.299	32.26
258.515	48.64
258.732	17.92
258.948	22.02
259.165	60.93
259.381	26.11
259.597	26.11
259.814	-33.28
260.03	44.54
260.246	46.59
260.463	24.06
260.679	42.5
260.895	-8.7
261.112	38.4
261.328	-59.9
261.544	5.63
261.761	36.35
261.977	1.54
262.193	-68.09
262.409	42.5
262.626	32.26
262.842	-43.52
263.058	-8.7
263.274	-47.62
263.49	-6.66
263.707	9.73
263.923	24.06
264.139	-8.7
264.355	-6.66
264.571	-4.61
264.787	30.21
265.004	34.3
265.22	22.02
265.436	44.54
265.652	22.02
265.868	-20.99
266.084	-23.04
266.3	-20.99
266.516	58.88
266.732	-33.28
266.948	-8.7
267.164	52.74
267.38	-16.9
267.596	-74.24
267.812	44.54
268.028	52.74
268.244	48.64
268.46	15.87
268.676	17.92
268.892	7.68
269.108	-2.56
269.324	79.36
269.54	11.78
269.756	42.5
269.972	19.97
270.188	-25.09
270.403	60.93
270.619	-16.9
270.835	-18.94
271.051	75.26
271.267	-16.9
271.483	-23.04
271.698	3.58
271.914	-53.76
272.13	36.35
272.346	11.78
272.562	-14.85
272.777	44.54
272.993	22.02
273.209	-66.05
273.425	-25.09
273.64	-25.09
273.856	3.58
274.072	1.54
274.287	-59.9
274.503	56.83
274.719	-8.7
274.934	50.69
275.15	-74.24
275.366	40.45
275.581	-31.23
275.797	-12.8
276.012	3.58
276.228	-45.57
276.444	60.93
276.659	9.73
276.875	17.92
277.09	91.65
277.306	-27.14
277.521	46.59
277.737	44.54
277.952	40.45
278.168	-61.95
278.383	24.06
278.599	-72.19
278.814	108.03
279.03	3.58
279.245	-2.56
279.461	65.02
279.676	-35.33
279.892	38.4
280.107	32.26
280.322	-47.62
280.538	-27.14
280.753	-29.18
280.969	26.11
281.184	48.64
281.399	38.4
281.615	22.02
281.83	-2.56
282.045	24.06
282.26	9.73
282.476	65.02
282.691	-0.51
282.906	-53.76
283.122	-14.85
283.337	34.3
283.552	17.92
283.767	-82.43
283.983	-0.51
284.198	-20.99
284.413	114.17
284.628	22.02
284.843	-18.94
285.058	11.78
285.274	9.73
285.489	17.92
285.704	-33.28
285.919	5.63
286.134	-8.7
286.349	-4.61
286.564	-16.9
286.779	-25.09
286.995	1.54
287.21	-16.9
287.425	62.98
287.64	-14.85
287.855	15.87
288.07	-20.99
288.285	101.89
288.5	-2.56
288.715	11.78
288.93	-80.38
289.145	-14.85
289.36	-23.04
289.575	38.4
289.79	-4.61
290.004	7.68
290.219	52.74
290.434	-39.42
290.649	-29.18
290.864	32.26
291.079	52.74
291.294	44.54
291.509	1.54
291.724	60.93
291.938	-12.8
292.153	38.4
292.368	3.58
292.583	-66.05
292.798	-37.38
293.012	-8.7
293.227	-0.51
293.442	11.78
293.657	-16.9
293.871	42.5
294.086	75.26
294.301	40.45
294.516	-23.04
294.73	-29.18
294.945	-43.52
295.16	28.16
295.374	3.58
295.589	-14.85
295.804	79.36
296.018	48.64
296.233	13.82
296.447	11.78
296.662	13.82
296.877	-6.66
297.091	-10.75
297.306	-27.14
297.52	36.35
297.735	-10.75
297.949	22.02
298.164	34.3
298.378	-25.09
298.593	44.54
298.807	-31.23
299.022	40.45
299.236	-27.14
299.451	1.54
299.665	32.26
299.88	105.98
300.094	19.97
300.309	67.07
300.523	38.4
300.737	3.58
300.952	13.82
301.166	-61.95
301.381	60.93
301.595	-27.14
301.809	-61.95
302.024	-10.75
302.238	-2.56
302.452	34.3
302.667	-25.09
302.881	-2.56
303.095	-41.47
303.309	73.21
303.524	69.12
303.738	-39.42
303.952	9.73
304.166	3.58
304.381	-29.18
304.595	-39.42
304.809	-8.7
305.023	32.26
305.237	1.54
305.452	9.73
305.666	-12.8
305.88	34.3
306.094	-16.9
306.308	-66.05
306.522	73.21
306.736	3.58
306.95	-43.52
307.164	48.64
307.379	-31.23
307.593	9.73
307.807	11.78
308.021	83.45
308.235	-8.7
308.449	-6.66
308.663	7.68
308.877	58.88
309.091	22.02
309.305	52.74
309.519	69.12
309.733	-57.86
309.947	11.78
310.161	40.45
310.374	67.07
310.588	15.87
310.802	-37.38
311.016	17.92
311.23	17.92
311.444	69.12
311.658	-8.7
311.872	17.92
312.085	-33.28
312.299	36.35
312.513	15.87
312.727	-2.56
312.941	-61.95
313.154	-6.66
313.368	-20.99
313.582	77.31
313.796	34.3
314.009	19.97
314.223	28.16
314.437	-8.7
314.651	-23.04
314.864	48.64
315.078	42.5
315.292	-10.75
315.505	-31.23
315.719	11.78
315.933	24.06
316.146	-25.09
316.36	9.73
316.573	13.82
316.787	48.64
317.001	-43.52
317.214	-23.04
317.428	46.59
317.641	15.87
317.855	-10.75
318.068	81.41
318.282	40.45
318.495	44.54
318.709	15.87
318.922	58.88
319.136	32.26
319.349	-10.75
319.563	83.45
319.776	-35.33
319.99	1.54
320.203	67.07
320.417	-8.7
320.63	15.87
320.843	48.64
321.057	40.45
321.27	58.88
321.483	34.3
321.697	22.02
321.91	48.64
322.124	3.58
322.337	32.26
322.55	-23.04
322.763	-35.33
322.977	-8.7
323.19	36.35
323.403	75.26
323.617	-2.56
323.83	-12.8
324.043	-31.23
324.256	11.78
324.469	19.97
324.683	3.58
324.896	3.58
325.109	1.54
325.322	24.06
325.535	9.73
325.748	40.45
325.962	52.74
326.175	44.54
326.388	19.97
326.601	-25.09
326.814	1.54
327.027	-66.05
327.24	-25.09
327.453	7.68
327.666	-12.8
327.879	22.02
328.092	58.88
328.305	1.54
328.518	15.87
328.731	-78.33
328.944	5.63
329.157	34.3
329.37	24.06
329.583	42.5
329.796	-55.81
330.009	-4.61
330.222	17.92
330.435	17.92
330.648	-10.75
330.861	5.63
331.073	15.87
331.286	-57.86
331.499	81.41
331.712	-16.9
331.925	7.68
332.138	-16.9
332.35	73.21
332.563	26.11
332.776	17.92
332.989	-16.9
333.202	15.87
333.414	-57.86
333.627	32.26
333.84	7.68
334.053	11.78
334.265	15.87
334.478	19.97
334.691	-4.61
334.903	24.06
335.116	-6.66
335.329	-12.8
335.541	13.82
335.754	40.45
335.966	30.21
336.179	-14.85
336.392	19.97
336.604	97.79
336.817	24.06
337.029	7.68
337.242	7.68
337.454	24.06
337.667	34.3
337.88	7.68
338.092	-4.61
338.305	46.59
338.517	15.87
338.729	-10.75
338.942	7.68
339.154	3.58
339.367	105.98
339.579	24.06
339.792	-16.9
340.004	-16.9
340.217	34.3
340.429	19.97
340.641	-70.14
340.854	71.17
341.066	-23.04
341.278	91.65
341.491	-23.04
341.703	60.93
341.915	22.02
342.128	52.74
342.34	3.58
342.552	-18.94
342.764	13.82
342.977	-45.57
343.189	-14.85
343.401	-41.47
343.613	17.92
343.826	-16.9
344.038	11.78
344.25	32.26
344.462	19.97
344.674	50.69
344.886	30.21
345.099	42.5
345.311	-23.04
345.523	24.06
345.735	-27.14
345.947	24.06
346.159	34.3
346.371	-2.56
346.583	105.98
346.795	36.35
347.007	-0.51
347.219	46.59
347.431	-39.42
347.643	56.83
347.855	-4.61
348.067	7.68
348.279	-2.56
348.491	-35.33
348.703	15.87
348.915	-41.47
349.127	-59.9
349.339	-25.09
349.551	22.02
349.763	15.87
349.975	-0.51
350.187	42.5
350.399	-31.23
350.61	19.97
350.822	13.82
351.034	30.21
351.246	-12.8
351.458	1.54
351.669	69.12
351.881	42.5
352.093	36.35
352.305	-45.57
352.517	30.21
352.728	52.74
352.94	40.45
353.152	-37.38
353.363	15.87
353.575	-41.47
353.787	42.5
353.999	58.88
354.21	17.92
354.422	9.73
354.633	9.73
354.845	-8.7
355.057	-23.04
355.268	-4.61
355.48	11.78
355.692	26.11
355.903	30.21
356.115	50.69
356.326	-31.23
356.538	28.16
356.749	-0.51
356.961	28.16
357.172	42.5
357.384	34.3
357.595	65.02
357.807	5.63
358.018	-39.42
358.23	65.02
358.441	77.31
358.653	9.73
358.864	-23.04
359.075	-16.9
359.287	-18.94
359.498	42.5
359.709	15.87
359.921	36.35
360.132	26.11
360.344	46.59
360.555	-35.33
360.766	38.4
360.977	97.79
361.189	69.12
361.4	11.78
361.611	11.78
361.823	67.07
362.034	87.55
362.245	-25.09
362.456	17.92
362.667	26.11
362.879	50.69
363.09	-12.8
363.301	50.69
363.512	30.21
363.723	-53.76
363.935	-0.51
364.146	52.74
364.357	-12.8
364.568	-2.56
364.779	-8.7
364.99	48.64
365.201	-39.42
365.412	105.98
365.623	1.54
365.834	42.5
366.045	-45.57
366.256	19.97
366.467	28.16
366.678	9.73
366.889	-16.9
367.1	-49.66
367.311	-25.09
367.522	36.35
367.733	-2.56
367.944	-72.19
368.155	32.26
368.366	71.17
368.577	-16.9
368.788	52.74
368.999	-10.75
369.209	38.4
369.42	95.74
369.631	-55.81
369.842	34.3
370.053	42.5
370.264	-55.81
370.474	19.97
370.685	24.06
370.896	58.88
371.107	-57.86
371.317	42.5
371.528	-10.75
371.739	-18.94
371.95	-23.04
372.16	71.17
372.371	-0.51
372.582	60.93
372.792	-10.75
373.003	32.26
373.214	-6.66
373.424	40.45
373.635	-45.57
373.846	-8.7
374.056	67.07
374.267	-51.71
374.477	-8.7
374.688	26.11
374.898	34.3
375.109	81.41
375.319	77.31
375.53	54.78
375.74	19.97
375.951	71.17
376.161	11.78
376.372	30.21
376.582	-64
376.793	40.45
377.003	44.54
377.214	36.35
377.424	34.3
377.635	54.78
377.845	11.78
378.055	56.83
378.266	17.92
378.476	15.87
378.686	24.06
378.897	-57.86
379.107	38.4
379.317	17.92
379.528	52.74
379.738	-6.66
379.948	-12.8
380.158	24.06
380.369	60.93
380.579	36.35
380.789	1.54
380.999	-10.75
381.21	32.26
381.42	-4.61
381.63	65.02
381.84	3.58
382.05	1.54
382.261	24.06
382.471	3.58
382.681	-0.51
382.891	15.87
383.101	105.98
383.311	3.58
383.521	62.98
383.731	9.73
383.941	-6.66
384.151	108.03
384.361	-8.7
384.571	-33.28
384.781	9.73
384.991	17.92
385.201	69.12
385.411	79.36
385.621	44.54
385.831	58.88
386.041	3.58
386.251	52.74
386.461	15.87
386.671	48.64
386.881	-2.56
387.091	9.73
387.301	9.73
387.511	77.31
387.72	77.31
387.93	62.98
388.14	-25.09
388.35	7.68
388.56	34.3
388.769	-20.99
388.979	24.06
389.189	13.82
389.399	65.02
389.609	32.26
389.818	32.26
390.028	-18.94
390.238	48.64
390.447	-16.9
390.657	22.02
390.867	13.82
391.076	28.16
391.286	32.26
391.496	15.87
391.705	-23.04
391.915	28.16
392.125	24.06
392.334	-0.51
392.544	-6.66
392.753	28.16
392.963	1.54
393.172	-10.75
393.382	38.4
393.591	81.41
393.801	9.73
394.01	5.63
394.22	30.21
394.429	3.58
394.639	30.21
394.848	67.07
395.058	-16.9
395.267	79.36
395.477	28.16
395.686	-35.33
395.895	126.46
396.105	58.88
396.314	81.41
396.524	-2.56
396.733	60.93
396.942	50.69
397.152	38.4
397.361	122.37
397.57	99.84
397.78	19.97
397.989	65.02
398.198	171.52
398.407	52.74
398.617	34.3
398.826	50.69
399.035	54.78
399.244	54.78
399.453	124.41
399.663	62.98
399.872	87.55
400.081	50.69
400.29	58.88
400.499	3.58
400.708	73.21
400.917	50.69
401.127	50.69
401.336	81.41
401.545	122.37
401.754	17.92
401.963	-12.8
402.172	60.93
402.381	114.17
402.59	89.6
402.799	118.27
403.008	95.74
403.217	126.46
403.426	93.69
403.635	67.07
403.844	77.31
404.053	44.54
404.262	83.45
404.471	97.79
404.68	69.12
404.888	103.93
405.097	58.88
405.306	75.26
405.515	19.97
405.724	134.65
405.933	48.64
406.142	87.55
406.35	60.93
406.559	120.32
406.768	65.02
406.977	110.08
407.185	71.17
407.394	103.93
407.603	108.03
407.812	105.98
408.02	194.05
408.229	187.9
408.438	171.52
408.646	163.33
408.855	167.42
409.064	140.8
409.272	99.84
409.481	243.2
409.69	177.66
409.898	218.62
410.107	189.95
410.315	228.86
410.524	157.18
410.733	206.33
410.941	153.09
411.15	144.89
411.358	218.62
411.567	224.76
411.775	220.67
411.984	286.2
412.192	278.01
412.401	257.53
412.609	321.02
412.818	204.28
413.026	280.06
413.234	353.79
413.443	345.59
413.651	308.73
413.86	296.44
414.068	382.46
414.276	384.51
414.485	396.79
414.693	386.55
414.901	474.62
415.11	392.7
415.318	542.2
415.526	454.14
415.734	419.32
415.943	513.53
416.151	460.28
416.359	437.75
416.567	531.96
416.776	509.43
416.984	599.54
417.192	665.08
417.4	564.73
417.608	697.85
417.817	605.69
418.025	683.51
418.233	703.99
418.441	708.09
418.649	757.24
418.857	765.43
419.065	785.91
419.273	837.11
419.481	892.4
419.689	906.74
419.897	966.13
420.105	939.51
420.313	1021.42
420.521	1052.14
420.729	1017.33
420.937	1129.97
421.145	1148.4
421.353	1160.69
421.561	1222.13
421.769	1252.84
421.977	1330.67
422.185	1164.78
422.393	1361.39
422.601	1437.16
422.809	1314.28
423.017	1408.49
423.224	1535.46
423.432	1703.4
423.64	1539.56
423.848	1650.15
424.056	1715.69
424.263	1740.26
424.471	1682.92
424.679	1940.96
424.887	1895.91
425.094	2065.89
425.302	2133.47
425.51	2119.14
425.718	2145.76
425.925	2237.92
426.133	2207.2
426.341	2260.45
426.548	2436.57
426.756	2495.96
426.964	2536.92
427.171	2649.56
427.379	2745.81
427.586	2698.71
427.794	2809.3
428.001	2954.71
428.209	3186.13
428.417	2928.08
428.624	3382.73
428.832	3157.46
429.039	3212.75
429.247	3200.46
429.454	3524.04
429.662	3913.16
429.869	3612.1
430.076	3843.53
430.284	3548.62
430.491	3751.37
430.699	4056.51
430.906	4009.41
431.114	4142.53
431.321	4220.35
431.528	4287.93
431.736	4668.86
431.943	4752.82
432.15	4689.34
432.358	4849.08
432.565	4998.58
432.772	5078.45
432.979	5240.24
433.187	5301.68
433.394	5356.97
433.601	5737.9
433.808	5649.83
434.016	5701.03
434.223	6047.14
434.43	6299.04
434.637	6296.99
434.844	6643.1
435.052	6786.46
435.259	6718.87
435.466	6643.1
435.673	6526.36
435.88	7054.74
436.087	7558.54
436.294	7347.6
436.501	7216.53
436.708	7476.62
436.915	7777.67
437.122	8037.77
437.329	8019.33
437.537	8328.58
437.743	8310.15
437.95	8146.31
438.157	8666.49
438.364	8977.78
438.571	9012.6
438.778	9158
438.985	9852.27
439.192	9465.2
439.399	9876.84
439.606	9747.82
439.813	10208.61
440.02	10814.81
440.227	10573.15
440.433	10603.87
440.64	11261.27
440.847	10739.04
441.054	10894.68
441.261	11863.37
441.467	11595.09
441.674	11799.88
441.881	12389.7
442.088	12205.38
442.294	12096.84
442.501	12528.96
442.708	12819.77
442.914	13198.65
443.121	13964.59
443.328	13405.49
443.534	14361.89
443.741	13913.39
443.948	13649.2
444.154	14554.4
444.361	14458.15
444.568	14499.11
444.774	14824.73
444.981	15285.53
445.187	15553.81
445.394	16239.88
445.6	15641.87
445.807	17382.65
446.013	16895.23
446.22	17052.92
446.426	17710.32
446.633	17861.87
446.839	18328.81
447.046	17743.09
447.252	18658.53
447.459	18758.88
447.665	18521.32
447.871	19387.61
448.078	20169.93
448.284	19266.78
448.491	19764.43
448.697	20624.58
448.903	20714.69
449.11	20745.41
449.316	20552.9
449.522	20772.04
449.728	21396.67
449.935	21710
450.141	21910.71
450.347	22174.89
450.553	21669.05
450.76	21800.12
450.966	22607.02
451.172	22158.51
451.378	22801.57
451.584	22613.16
451.791	23022.75
451.997	22901.92
452.203	23002.27
452.409	23198.88
452.615	23442.59
452.821	22391.98
453.027	22150.32
453.233	23372.96
453.44	22418.6
453.646	22807.72
453.852	22795.43
454.058	23315.61
454.264	22586.54
454.47	22891.68
454.676	22242.48
454.882	22908.07
455.088	21380.28
455.294	21458.1
455.5	21626.04
455.705	21767.35
455.911	21177.53
456.117	20784.32
456.323	20888.77
456.529	19610.84
456.735	20366.54
456.941	19813.59
457.147	19557.59
457.352	18924.77
457.558	18619.62
457.764	18724.07
457.97	18140.4
458.176	17851.63
458.381	17956.08
458.587	17083.64
458.793	16989.44
458.999	16239.88
459.204	17341.69
459.41	16903.42
459.616	15836.43
459.821	15971.6
460.027	15709.46
460.233	15824.14
460.438	14515.49
460.644	15066.39
460.85	14269.73
461.055	14126.38
461.261	14001.45
461.466	12885.31
461.672	12791.1
461.878	13370.68
462.083	12604.74
462.289	12385.6
462.494	12434.75
462.7	11875.66
462.905	11279.7
463.111	11853.13
463.316	11726.16
463.522	11619.66
463.727	11677.01
463.932	11607.37
464.138	11408.72
464.343	11507.02
464.549	11193.69
464.754	11523.41
464.959	11332.95
465.165	11287.89
465.37	10681.69
465.575	10542.43
465.781	11124.05
465.986	10847.58
466.191	10571.1
466.397	10345.83
466.602	10044.77
466.807	10411.36
467.012	10534.24
467.218	10538.34
467.423	10141.03
467.628	10175.84
467.833	10648.93
468.038	10276.2
468.244	10020.2
468.449	10198.37
468.654	9917.8
468.859	9768.3
469.064	10012.01
469.269	9459.06
469.474	9489.78
469.679	9780.59
469.885	9571.69
470.09	9518.45
470.295	9569.65
470.5	9387.38
470.705	9315.7
470.91	9244.02
471.115	9110.9
471.32	9258.35
471.525	9137.52
471.73	9004.41
471.935	8926.58
472.139	8506.75
472.344	8418.69
472.549	8650.11
472.754	8551.81
472.959	8445.31
473.164	8213.89
473.369	8203.65
473.574	8449.41
473.778	8254.85
473.983	8152.45
474.188	8097.16
474.393	8099.2
474.598	7828.87
474.802	7572.88
475.007	7792.01
475.212	7574.92
475.417	7650.7
475.621	7507.34
475.826	7499.15
476.031	7409.04
476.235	7208.34
476.44	7447.95
476.645	7136.66
476.849	7292.3
477.054	7159.19
477.259	7071.12
477.463	7003.54
477.668	6753.69
477.872	6921.62
478.077	6743.45
478.282	6729.11
478.486	6636.95
478.691	6292.9
478.895	6462.88
479.1	6378.91
479.304	6571.42
479.509	6268.32
479.713	6329.76
479.918	6319.52
480.122	6270.37
480.326	6446.49
480.531	6469.02
480.735	6174.11
480.94	5905.83
481.144	6282.66
481.348	6026.66
481.553	6170.02
481.757	5985.7
481.961	6073.76
482.166	6145.44
482.37	6196.64
482.574	5821.86
482.778	5932.45
482.983	6030.76
483.187	6176.16
483.391	6100.39
483.595	5938.6
483.8	5893.54
484.004	6012.32
484.208	5823.91
484.412	6129.06
484.616	6030.76
484.821	6143.39
485.025	5918.12
485.229	6061.48
485.433	6079.91
485.637	5830.06
485.841	5864.87
486.045	6018.47
486.249	6043.04
486.453	5856.68
486.657	6057.38
486.861	5959.08
487.065	5862.82
487.269	6104.48
487.473	5924.26
487.677	5975.46
487.881	5936.55
488.085	6059.43
488.289	5858.73
488.493	6008.23
488.697	6102.43
488.901	6213.03
489.105	6006.18
489.309	6251.94
489.512	6118.82
489.716	6149.54
489.92	6417.82
490.124	6120.87
490.328	6151.59
490.531	6155.68
490.735	6249.89
490.939	6374.81
491.143	6327.71
491.346	6120.87
491.55	6258.08
491.754	6395.29
491.958	6509.98
492.161	6360.48
492.365	6356.38
492.569	6454.69
492.772	6432.16
492.976	6397.34
493.18	6442.4
493.383	6561.18
493.587	6505.88
493.79	6800.79
493.994	6456.73
494.197	6784.41
494.401	6722.97
494.605	6839.7
494.808	6895
495.012	7052.69
495.215	6837.66
495.419	7030.16
495.622	7067.03
495.825	7165.33
496.029	7085.46
496.232	7232.91
496.436	7150.99
496.639	7411.09
496.843	7363.98
497.046	7579.02
497.249	7488.91
497.453	7662.99
497.656	7806.34
497.859	7781.77
498.063	7830.92
498.266	8078.72
498.469	7777.67
498.673	7914.89
498.876	8107.4
499.079	8252.8
499.282	8406.4
499.485	8394.11
499.689	8527.23
499.892	8875.38
500.095	8752.51
500.298	8938.87
500.501	8756.6
500.705	9041.27
500.908	9377.14
501.111	9330.03
501.314	9520.49
501.517	9713
501.72	9713
501.923	9598.32
502.126	10014.06
502.329	10315.11
502.532	10292.58
502.735	10239.33
502.938	10433.89
503.141	10698.08
503.344	10773.85
503.547	10765.66
503.75	10929.5
503.953	11095.38
504.156	11236.69
504.359	11357.52
504.562	11355.47
504.765	11713.87
504.968	11668.81
505.17	11777.36
505.373	12031.3
505.576	12135.75
505.779	12246.34
505.982	12477.76
506.185	12881.21
506.387	12688.7
506.59	12830.01
506.793	13264.18
506.996	13198.65
507.198	13509.94
507.401	13425.97
507.604	13806.89
507.807	13890.86
508.009	14079.27
508.212	14157.1
508.415	14206.25
508.617	14601.51
508.82	14634.27
509.022	14638.37
509.225	14988.57
509.428	15033.63
509.63	15486.23
509.833	15539.47
510.035	15824.14
510.238	15967.5
510.44	16137.48
510.643	16352.52
510.845	16452.87
511.048	16536.84
511.25	16534.79
511.453	16690.43
511.655	17542.39
511.858	17212.67
512.06	17446.13
512.262	18021.61
512.465	17911.02
512.667	17984.75
512.87	18537.7
513.072	18455.78
513.274	18961.63
513.477	19086.56
513.679	19088.6
513.881	19238.11
514.084	19537.11
514.286	19770.58
514.488	19936.46
514.69	20743.36
514.893	20493.51
515.095	20794.56
515.297	21114.05
515.499	21376.19
515.701	21322.94
515.904	21599.41
516.106	21914.8
516.308	22320.3
516.51	22490.28
516.712	22633.64
516.914	22858.92
517.116	23084.19
517.318	23450.78
517.52	23428.25
517.722	23557.27
517.925	23884.95
518.127	24495.24
518.329	24657.03
518.531	24509.58
518.733	25105.54
518.935	25103.49
519.136	24906.88
519.338	25582.71
519.54	25787.51
519.742	26180.72
519.944	26246.26
520.146	26795.11
520.348	27001.96
520.55	26821.73
520.752	27081.83
520.954	27939.93
521.155	27393.12
521.357	27909.21
521.559	28032.08
521.761	28496.97
521.963	28769.35
522.164	28996.68
522.366	29236.29
522.568	29135.94
522.77	29371.46
522.971	29690.94
523.173	29635.64
523.375	29985.85
523.576	30155.83
523.778	30295.09
523.98	30643.24
524.181	30889
524.383	31003.69
524.584	31464.48
524.786	31552.54
524.988	31392.8
525.189	32152.6
525.391	32037.91
525.592	32001.05
525.794	32257.04
525.995	32605.2
526.197	32891.91
526.398	32707.6
526.6	33149.96
526.801	33176.58
527.003	33481.73
527.204	33446.91
527.406	33584.13
527.607	33614.85
527.808	34077.69
528.01	33498.11
528.211	33686.53
528.412	34835.44
528.614	34411.51
528.815	34479.09
529.016	34604.02
529.218	34356.21
529.419	34667.5
529.62	34767.85
529.822	34391.03
530.023	34728.94
530.224	34761.71
530.425	35109.86
530.626	35191.78
530.828	35083.24
531.029	35392.48
531.23	35308.52
531.431	35124.2
531.632	35339.24
531.833	35533.79
532.035	35584.99
532.236	35372
532.437	35714.02
532.638	35392.48
532.839	35621.86
533.04	35851.23
533.241	35498.98
533.442	36168.66
533.643	36031.45
533.844	35716.06
534.045	36111.32
534.246	35851.23
534.447	36199.38
534.648	36039.64
534.849	36285.4
535.05	36010.97
535.251	36086.75
535.451	35853.28
535.652	36502.48
535.853	36496.34
536.054	36441.04
536.255	36176.86
536.456	36137.94
536.657	36588.5
536.857	36445.14
537.058	36463.57
537.259	36467.67
537.46	36369.37
537.66	36072.41
537.861	36142.04
538.062	36449.24
538.263	36428.76
538.463	36363.22
538.664	36187.1
538.865	36811.73
539.065	36500.44
539.266	36395.99
539.466	36856.78
539.667	36250.58
539.868	36490.2
540.068	36617.17
540.269	36453.33
540.469	36826.06
540.67	36451.28
540.87	36269.01
541.071	36463.57
541.271	36539.35
541.472	36152.28
541.672	36383.7
541.873	36187.1
542.073	35587.04
542.274	36627.41
542.474	36289.49
542.675	36324.31
542.875	36504.53
543.075	36412.37
543.276	36076.51
543.476	36557.78
543.676	36035.55
543.877	36561.87
544.077	36551.63
544.277	36178.9
544.478	36320.21
544.678	36346.84
544.878	36645.84
545.078	36539.35
545.279	36185.05
545.479	36391.89
545.679	36510.67
545.879	36486.1
546.079	36352.98
546.28	36420.56
546.48	35992.54
546.68	36580.31
546.88	36781.01
547.08	36506.58
547.28	36553.68
547.48	36346.84
547.68	36991.95
547.88	36031.45
548.081	36611.03
548.281	36414.42
548.481	36258.77
548.681	36561.87
548.881	36465.62
549.081	36357.08
549.28	36295.64
549.48	36641.74
549.68	36541.39
549.88	36889.55
550.08	36178.9
550.28	36510.67
550.48	36461.52
550.68	36621.27
550.88	35892.19
551.08	36498.39
551.279	36180.95
551.479	35974.11
551.679	35912.67
551.879	36393.94
552.079	36377.56
552.278	36328.41
552.478	36348.89
552.678	36189.14
552.878	36586.45
553.077	36400.08
553.277	36088.79
553.477	36346.84
553.676	36029.4
553.876	36246.49
554.076	36465.62
554.275	36090.84
554.475	35591.14
554.674	36000.73
554.874	35826.65
555.074	35728.35
555.273	36051.93
555.473	36588.5
555.672	35920.86
555.872	35967.96
556.071	35675.1
556.271	36019.16
556.47	35601.38
556.67	35613.66
556.869	35703.78
557.068	36000.73
557.268	35505.12
557.467	35720.16
557.667	35505.12
557.866	35490.79
558.065	35361.76
558.265	35441.64
558.464	35138.54
558.663	35642.34
558.863	35306.47
559.062	35666.91
559.261	35077.1
559.461	35855.32
559.66	34712.56
559.859	34972.65
560.058	34892.78
560.258	35081.19
560.457	35052.52
560.656	35150.82
560.855	34853.87
561.054	34964.46
561.253	34913.26
561.453	35183.59
561.652	34976.75
561.851	34843.63
562.05	34503.67
562.249	34278.39
562.448	34900.97
562.647	34595.82
562.846	34143.22
563.045	34837.48
563.244	34182.13
563.443	34696.17
563.642	33897.47
563.841	34116.6
564.04	34130.94
564.239	34329.59
564.438	34034.68
564.637	34329.59
564.836	34161.65
565.035	34075.64
565.234	34210.81
565.432	33846.27
565.631	33725.44
565.83	34139.13
566.029	33756.16
566.228	33420.29
566.427	34028.54
566.625	33563.65
566.824	33217.54
567.023	33315.84
567.222	33129.48
567.42	33319.94
567.619	33491.97
567.818	33221.64
568.016	32967.69
568.215	33569.79
568.414	32889.87
568.612	32986.12
568.811	32861.19
569.01	32863.24
569.208	32048.15
569.407	32652.3
569.605	32134.17
569.804	32828.43
570.002	32420.88
570.201	32676.88
570.4	32551.95
570.598	32390.16
570.797	32050.2
570.995	32314.39
571.193	31925.27
571.392	32101.4
571.59	31931.42
571.789	31433.76
571.987	32029.72
572.186	31556.64
572.384	31267.87
572.582	31386.66
572.781	31505.44
572.979	31138.85
573.177	31343.65
573.376	31317.03
573.574	30886.95
573.772	31235.11
573.971	30956.58
574.169	30575.66
574.367	30563.37
574.565	30727.21
574.763	30508.08
574.962	30463.02
575.16	30010.42
575.358	30387.25
575.556	29981.75
575.754	30628.91
575.952	29744.19
576.151	30262.32
576.349	29746.23
576.547	29910.07
576.745	29680.7
576.943	29686.84
577.141	29676.6
577.339	29623.36
577.537	29539.39
577.735	29088.84
577.933	29103.17
578.131	29371.46
578.329	28675.15
578.527	29078.6
578.725	28939.33
578.923	29019.21
579.121	28578.89
579.319	28945.48
579.516	29039.68
579.714	28589.13
579.912	28570.7
580.11	28195.92
580.308	27927.64
580.506	28073.04
580.704	27929.69
580.901	28415.05
581.099	28210.26
581.297	27712.6
581.495	27722.84
581.692	28179.54
581.89	27475.04
582.088	27933.78
582.285	27411.55
582.483	27710.55
582.681	27378.78
582.878	27460.7
583.076	27122.79
583.274	27260
583.471	27288.67
583.669	27231.33
583.866	26997.86
584.064	27163.75
584.262	26737.77
584.459	27028.58
584.657	26713.19
584.854	26883.17
585.052	26299.5
585.249	26498.16
585.447	26561.64
585.644	26221.68
585.841	26170.48
586.039	26616.94
586.236	26082.42
586.434	26045.55
586.631	26109.04
586.828	26037.36
587.026	25912.44
587.223	25887.86
587.42	25740.41
587.618	25508.99
587.815	25341.05
588.012	25392.25
588.21	25193.6
588.407	25543.8
588.604	24890.5
588.801	25107.58
588.999	25179.26
589.196	25230.46
589.393	24988.8
589.59	24603.78
589.787	24915.08
589.984	24431.76
590.182	24693.9
590.379	24851.59
590.576	24229.01
590.773	24368.27
590.97	24175.76
591.167	24257.68
591.364	24102.03
591.561	24110.22
591.758	24132.75
591.955	23825.56
592.152	24151.18
592.349	23979.15
592.546	24061.07
592.743	23999.63
592.94	23340.19
593.137	23631
593.334	23755.93
593.531	23461.02
593.727	23516.31
593.924	23585.94
594.121	23245.98
594.318	23377.05
594.515	22918.31
594.712	23002.27
594.908	22899.87
595.105	23241.89
595.302	22899.87
595.499	22736.04
595.696	22871.2
595.892	22363.31
596.089	22570.15
596.286	22922.4
596.482	22396.07
596.679	22541.48
596.876	22430.89
597.072	22457.51
597.269	22547.62
597.466	22105.26
597.662	22224.04
597.859	21888.18
598.055	22142.13
598.252	21822.64
598.448	22070.45
598.645	21740.72
598.841	21796.02
599.038	21871.79
599.234	21673.14
599.431	21324.99
599.627	21335.23
599.824	21535.93
600.02	21265.6
600.217	21437.62
600.413	21267.64
600.609	21093.57
600.806	20944.06
601.002	21132.48
601.198	20907.2
601.395	20872.39
601.591	20698.31
601.787	20712.64
601.984	20815.04
602.18	20544.71
602.376	20737.22
602.572	20419.78
602.769	20331.72
602.965	20382.92
603.161	20202.7
603.357	20167.88
603.553	20143.31
603.75	20004.05
603.946	20118.73
604.142	20266.19
604.338	19711.19
604.534	20051.15
604.73	19739.86
604.926	19641.56
605.122	19608.79
605.318	19629.27
605.514	19291.35
605.71	19465.43
605.906	19403.99
606.102	19451.1
606.298	19377.37
606.494	19295.45
606.69	18963.68
606.886	19096.8
607.082	18910.43
607.278	19000.54
607.474	18580.71
607.67	18777.31
607.866	18775.27
608.062	18982.11
608.257	18785.51
608.453	18672.87
608.649	18879.71
608.845	18359.53
609.041	18402.54
609.236	18597.09
609.432	18414.82
609.628	18418.92
609.824	18228.46
610.019	18416.87
610.215	18396.39
610.411	18521.32
610.606	17874.16
610.802	18003.18
610.998	17984.75
611.193	17960.17
611.389	17741.04
611.584	17743.09
611.78	17716.47
611.976	17724.66
612.171	17743.09
612.367	17800.43
612.562	17644.79
612.758	17321.21
612.953	17575.16
613.149	17446.13
613.344	17120.51
613.539	17687.79
613.735	17427.7
613.93	17419.51
614.126	17384.69
614.321	17335.54
614.517	17337.59
614.712	17091.84
614.907	16760.06
615.103	17188.09
615.298	16862.46
615.493	16968.96
615.688	16745.73
615.884	16882.94
616.079	16639.23
616.274	16928
616.47	16606.47
616.665	16823.55
616.86	16512.26
617.055	16358.66
617.25	16381.19
617.445	16786.69
617.641	16303.37
617.836	16512.26
618.031	16342.28
618.226	16301.32
618.421	16045.32
618.616	15998.22
618.811	15983.88
619.006	16286.98
619.201	15813.9
619.396	15787.28
619.591	15631.63
619.786	15715.6
619.981	15635.73
620.176	15527.19
620.371	15301.91
620.566	15670.54
620.761	15375.64
620.956	15471.89
621.151	15123.74
621.346	15328.53
621.541	14968.09
621.735	15015.19
621.93	14914.84
622.125	14855.45
622.32	14607.65
622.515	14841.12
622.709	14581.03
622.904	14519.59
623.099	14454.05
623.294	14443.81
623.488	14124.33
623.683	14667.04
623.878	13788.46
624.072	14277.93
624.267	13946.16
624.462	13970.73
624.656	13813.04
624.851	13776.17
625.046	13641.01
625.24	13862.19
625.435	13520.18
625.629	13483.31
625.824	13516.08
626.018	13270.33
626.213	13141.3
626.407	13180.21
626.602	13167.93
626.796	12901.69
626.991	13108.54
627.185	13104.44
627.38	13016.38
627.574	12746.05
627.768	12676.41
627.963	12608.83
628.157	12674.37
628.352	12686.65
628.546	12313.92
628.74	12490.05
628.935	12166.47
629.129	12166.47
629.323	12264.77
629.517	12121.42
629.712	12125.51
629.906	11996.49
630.1	11853.13
630.294	11898.19
630.489	11832.65
630.683	11914.57
630.877	11869.51
631.071	11574.61
631.265	11631.95
631.459	11646.29
631.653	11488.59
631.848	11480.4
632.042	11312.47
632.236	11527.5
632.43	11095.38
632.624	11111.77
632.818	11085.14
633.012	11132.25
633.206	10818.91
633.4	11083.09
633.594	10849.63
633.788	10812.76
633.982	10949.98
634.176	10704.22
634.369	10753.37
634.563	10794.33
634.757	10900.83
634.951	10460.51
635.145	10638.69
635.339	10450.27
635.533	10237.28
635.726	10546.53
635.92	10128.74
636.114	10304.87
636.308	10274.15
636.501	10145.13
636.695	10050.92
636.889	9915.75
637.083	10016.1
637.276	9991.53
637.47	9897.32
637.664	9938.28
637.857	9809.26
638.051	9497.97
638.244	9641.32
638.438	9626.99
638.632	9536.88
638.825	9213.3
639.019	9493.87
639.212	9233.78
639.406	9176.44
639.599	9256.31
639.793	9233.78
639.986	8967.54
640.18	9198.96
640.373	9137.52
640.567	8945.02
640.76	9158
640.954	8922.49
641.147	8867.19
641.34	8844.67
641.534	8750.46
641.727	8695.16
641.92	8879.48
642.114	8641.92
642.307	8443.26
642.5	8488.32
642.694	8363.39
642.887	8355.2
643.08	8363.39
643.273	8203.65
643.467	8334.72
643.66	8076.68
643.853	8166.79
644.046	7931.27
644.239	8009.09
644.432	7896.46
644.626	7716.23
644.819	7959.94
645.012	7878.02
645.205	7935.37
645.398	7902.6
645.591	7581.07
645.784	7626.12
645.977	7630.22
646.17	7710.09
646.363	7347.6
646.556	7359.89
646.749	7447.95
646.942	7345.55
647.135	7441.81
647.328	7308.69
647.521	7271.83
647.714	7097.75
647.907	7304.59
648.099	7081.36
648.292	7046.55
648.485	6958.49
648.678	6931.86
648.871	6880.66
649.064	6962.58
649.256	6866.33
649.449	6903.19
649.642	6890.9
649.835	6704.54
650.027	6802.84
650.22	6630.81
650.413	6581.66
650.605	6677.91
650.798	6622.62
650.991	6374.81
651.183	6600.09
651.376	6368.67
651.568	6499.74
651.761	6329.76
651.954	6299.04
652.146	6444.45
652.339	6184.35
652.531	6233.5
652.724	6004.13
652.916	5950.89
653.109	6053.28
653.301	6028.71
653.494	6002.08
653.686	5842.34
653.879	5918.12
654.071	5873.06
654.263	5764.52
654.456	5830.06
654.648	5932.45
654.84	5617.07
655.033	5744.04
655.225	5717.42
655.417	5705.13
655.61	5698.99
655.802	5647.79
655.994	5709.22
656.186	5522.86
656.379	5504.43
656.571	5399.98
656.763	5447.08
656.955	5207.47
657.148	5430.7
657.34	5328.3
657.532	5264.82
657.724	5266.86
657.916	5107.12
658.108	5260.72
658.3	5004.72
658.492	5103.03
658.684	5053.87
658.876	4906.42
659.068	5010.87
659.26	4976.05
659.452	4914.61
659.644	4849.08
659.836	4689.34
660.028	4763.06
660.22	4677.05
660.412	4687.29
660.604	4707.77
660.796	4578.75
660.988	4699.58
661.18	4556.22
661.372	4447.68
661.563	4482.49
661.755	4629.95
661.947	4498.88
662.139	4464.06
662.331	4367.81
662.522	4511.16
662.714	4312.51
662.906	4304.32
663.097	4355.52
663.289	4242.88
663.481	4275.65
663.673	4154.82
663.864	4105.67
664.056	4148.67
664.247	4144.58
664.439	4085.19
664.631	4300.22
664.822	4052.42
665.014	4056.51
665.205	4001.22
665.397	3960.26
665.588	3941.83
665.78	3833.29
665.971	3810.76
666.163	3962.31
666.354	3821
666.546	3841.48
666.737	3823.05
666.929	3816.9
667.12	3814.85
667.311	3757.51
667.503	3804.61
667.694	3708.36
667.885	3687.88
668.077	3665.35
668.268	3659.21
668.459	3610.06
668.651	3562.95
668.842	3634.63
669.033	3456.46
669.224	3585.48
669.416	3597.77
669.607	3425.74
669.798	3579.34
669.989	3550.67
670.18	3376.59
670.371	3395.02
670.563	3321.29
670.754	3405.26
670.945	3431.88
671.136	3435.98
671.327	3284.43
671.518	3401.16
671.709	3345.87
671.9	3272.14
672.091	3366.35
672.282	3313.1
672.473	3227.09
672.664	3218.89
672.855	3382.73
673.046	3218.89
673.237	3202.51
673.428	3253.71
673.619	3184.08
673.809	3104.21
674	3132.88
674.191	3241.42
674.382	3184.08
674.573	3087.82
674.764	2997.71
674.954	3069.39
675.145	2989.52
675.336	3216.85
675.527	3016.15
675.717	3165.65
675.908	3118.54
676.099	3012.05
676.289	3005.91
676.48	3036.63
676.671	2977.23
676.861	2981.33
677.052	3005.91
677.243	2903.51
677.433	2964.95
677.624	2950.61
677.814	2944.47
678.005	2899.41
678.195	3022.29
678.386	3007.95
678.576	2932.18
678.767	2850.26
678.957	2932.18
679.148	2950.61
679.338	2768.34
679.529	2749.91
679.719	2835.92
679.909	2786.77
680.1	2788.82
680.29	2944.47
680.481	2799.06
680.671	2684.38
680.861	2686.42
681.052	2760.15
681.242	2754.01
681.432	2870.74
681.622	2776.53
681.813	2764.25
682.003	2717.14
682.193	2579.93
682.383	2792.92
682.573	2731.48
682.764	2649.56
682.954	2678.23
683.144	2692.57
683.334	2639.32
683.524	2770.39
683.714	2719.19
683.904	2561.5
684.094	2829.78
684.284	2620.89
684.474	2661.85
684.664	2629.08
684.854	2616.79
685.044	2686.42
685.234	2659.8
685.424	2635.22
685.614	2670.04
685.804	2557.4
685.994	2678.23
686.184	2700.76
686.374	2610.65
686.564	2637.27
686.753	2575.83
686.943	2657.75
687.133	2692.57
687.323	2581.98
687.513	2667.99
687.702	2665.94
687.892	2510.3
688.082	2563.54
688.272	2465.24
688.461	2465.24
688.651	2526.68
688.841	2592.22
689.03	2534.87
689.22	2649.56
689.41	2596.31
689.599	2514.39
689.789	2579.93
689.979	2620.89
690.168	2606.55
690.358	2469.34
690.547	2627.03
690.737	2659.8
690.926	2491.87
691.116	2424.28
691.305	2629.08
691.495	2600.41
691.684	2506.2
691.874	2446.81
692.063	2534.87
692.252	2633.18
692.442	2461.15
692.631	2393.56
692.82	2524.63
693.01	2432.47
693.199	2577.88
693.388	2440.67
693.578	2459.1
693.767	2448.86
693.956	2481.63
694.146	2440.67
694.335	2434.52
694.524	2643.42
694.713	2500.06
694.902	2498.01
695.092	2436.57
695.281	2455
695.47	2430.43
695.659	2489.82
695.848	2407.9
696.037	2512.35
696.226	2452.95
696.415	2479.58
696.604	2416.09
696.793	2430.43
696.982	2571.74
697.171	2414.04
697.36	2522.59
697.549	2385.37
697.738	2383.32
697.927	2377.18
698.116	2473.43
698.305	2473.43
698.494	2465.24
698.683	2416.09
698.872	2512.35
699.061	2477.53
699.25	2442.71
699.438	2459.1
699.627	2432.47
699.816	2524.63
700.005	2358.75
700.193	2471.39
700.382	2450.91
700.571	2479.58
700.76	2446.81
700.948	2387.42
701.137	2366.94
701.326	2416.09
701.514	2348.51
701.703	2500.06
701.892	2291.17
702.08	2434.52
702.269	2436.57
702.457	2280.93
702.646	2270.69
702.834	2211.29
703.023	2325.98
703.212	2371.04
703.4	2385.37
703.589	2270.69
703.777	2311.64
703.965	2362.84
704.154	2280.93
704.342	2201.05
704.531	2248.16
704.719	2231.77
704.907	2221.53
705.096	2237.92
705.284	2309.6
705.472	2334.17
705.661	2227.68
705.849	2280.93
706.037	2164.19
706.226	2264.54
706.414	2076.13
706.602	2280.93
706.79	2209.25
706.979	2194.91
707.167	2137.57
707.355	2192.86
707.543	2160.1
707.731	2256.35
707.919	2022.88
708.107	2203.1
708.296	2153.95
708.484	2262.49
708.672	2180.57
708.86	2121.18
709.048	2178.53
709.236	2065.89
709.424	2166.24
709.612	2084.32
709.8	2121.18
709.988	2135.52
710.176	1996.26
710.364	2139.62
710.551	2110.94
710.739	2004.45
710.927	2047.46
711.115	1934.82
711.303	1795.56
711.491	1973.73
711.679	1932.77
711.866	1965.54
712.054	2006.5
712.242	1961.44
712.43	1981.92
712.617	1983.97
712.805	1877.48
712.993	1981.92
713.181	1922.53
713.368	1889.76
713.556	1922.53
713.744	1998.31
713.931	1912.29
714.119	1926.63
714.306	1766.89
714.494	1932.77
714.682	1820.13
714.869	1852.9
715.057	1957.35
715.244	1836.52
715.432	1891.81
715.619	1764.84
715.807	1791.46
715.994	1770.98
716.182	1820.13
716.369	1850.85
716.556	1803.75
716.744	1719.78
716.931	1813.99
717.119	1725.93
717.306	1758.69
717.493	1695.21
717.681	1611.24
717.868	1715.69
718.055	1775.08
718.242	1678.82
718.43	1713.64
718.617	1682.92
718.804	1637.86
718.991	1775.08
719.179	1709.54
719.366	1633.77
719.553	1576.42
719.74	1650.15
719.927	1639.91
720.114	1596.9
720.301	1670.63
720.488	1521.13
720.676	1498.6
720.863	1678.82
721.05	1562.09
721.237	1437.16
721.424	1601
721.611	1639.91
721.798	1611.24
721.985	1564.14
722.172	1658.34
722.358	1512.94
722.545	1607.14
722.732	1527.27
722.919	1519.08
723.106	1547.75
723.293	1596.9
723.48	1488.36
723.667	1510.89
723.853	1514.98
724.04	1480.17
724.227	1428.97
724.414	1420.78
724.6	1459.69
724.787	1551.85
724.974	1379.82
725.161	1428.97
725.347	1428.97
725.534	1443.31
725.72	1463.79
725.907	1404.39
726.094	1447.4
726.28	1453.55
726.467	1404.39
726.653	1357.29
726.84	1474.03
727.027	1457.64
727.213	1375.72
727.4	1412.59
727.586	1326.57
727.773	1377.77
727.959	1433.07
728.145	1355.24
728.332	1349.1
728.518	1320.43
728.705	1400.3
728.891	1336.81
729.077	1326.57
729.264	1390.06
729.45	1353.2
729.636	1265.13
729.823	1377.77
730.009	1336.81
730.195	1326.57
730.382	1283.56
730.568	1334.76
730.754	1330.67
730.94	1252.84
731.126	1297.9
731.313	1324.52
731.499	1254.89
731.685	1236.46
731.871	1222.13
732.057	1324.52
732.243	1289.71
732.429	1379.82
732.615	1289.71
732.801	1302
732.987	1234.41
733.173	1275.37
733.359	1195.5
733.545	1224.17
733.731	1209.84
733.917	1269.23
734.103	1220.08
734.289	1211.89
734.475	1224.17
734.661	1201.65
734.847	1205.74
735.033	1258.99
735.219	1195.5
735.404	1170.93
735.59	1203.69
735.776	1138.16
735.962	1240.56
736.148	1052.14
736.333	1123.82
736.519	1230.32
736.705	1070.58
736.89	1099.25
737.076	1123.82
737.262	1074.67
737.447	1138.16
737.633	1068.53
737.819	1076.72
738.004	1127.92
738.19	1154.54
738.375	1033.71
738.561	1172.97
738.747	1129.97
738.932	1132.01
739.118	970.23
739.303	1119.73
739.489	1091.06
739.674	1058.29
739.859	1103.34
740.045	1093.1
740.23	1107.44
740.416	1142.25
740.601	1023.47
740.786	1009.14
740.972	1031.66
741.157	1082.86
741.342	994.8
741.528	1048.05
741.713	1048.05
741.898	1029.62
742.084	978.42
742.269	1076.72
742.454	1031.66
742.639	1007.09
742.824	980.47
743.01	992.75
743.195	955.89
743.38	959.99
743.565	998.9
743.75	1021.42
743.935	935.41
744.12	1035.76
744.305	1017.33
744.49	957.94
744.675	1017.33
744.86	955.89
745.045	966.13
745.23	988.66
745.415	955.89
745.6	783.86
745.785	964.08
745.97	919.03
746.155	914.93
746.34	900.59
746.525	835.06
746.71	959.99
746.895	919.03
747.079	863.73
747.264	812.53
747.449	978.42
747.634	869.87
747.819	808.44
748.003	796.15
748.188	886.26
748.373	816.63
748.557	804.34
748.742	826.87
748.927	763.38
749.111	773.62
749.296	734.71
749.481	740.85
749.665	781.81
749.85	812.53
750.034	814.58
750.219	787.96
750.404	779.76
750.588	796.15
750.773	781.81
750.957	781.81
751.141	810.48
751.326	818.68
751.51	798.2
751.695	785.91
751.879	755.19
752.064	724.47
752.248	742.9
752.432	724.47
752.617	751.09
752.801	771.57
752.985	640.5
753.17	744.95
753.354	663.03
753.538	695.8
753.722	708.09
753.907	699.89
754.091	710.13
754.275	669.17
754.459	726.52
754.643	703.99
754.828	591.35
755.012	654.84
755.196	681.46
755.38	638.45
755.564	640.5
755.748	761.33
755.932	597.49
756.116	593.4
756.3	716.28
756.484	583.16
756.668	568.82
756.852	546.3
757.036	646.65
757.22	617.97
757.404	572.92
757.588	564.73
757.772	597.49
757.956	589.3
758.14	566.78
758.323	550.39
758.507	562.68
758.691	513.53
758.875	609.78
759.059	554.49
759.242	597.49
759.426	527.86
759.61	550.39
759.794	458.23
759.977	654.84
760.161	566.78
760.345	464.38
760.528	527.86
760.712	486.9
760.895	501.24
761.079	564.73
761.263	450.04
761.446	478.71
761.63	548.34
761.813	556.54
761.997	577.02
762.18	546.3
762.364	548.34
762.547	482.81
762.731	460.28
762.914	519.67
763.098	519.67
763.281	402.94
763.464	468.47
763.648	464.38
763.831	499.19
764.015	439.8
764.198	456.19
764.381	452.09
764.564	400.89
764.748	433.66
764.931	447.99
765.114	482.81
765.297	507.38
765.481	443.9
765.664	433.66
765.847	370.17
766.03	484.86
766.213	499.19
766.397	472.57
766.58	368.12
766.763	519.67
766.946	452.09
767.129	447.99
767.312	417.27
767.495	427.51
767.678	392.7
767.861	495.1
768.044	425.47
768.227	509.43
768.41	480.76
768.593	456.19
768.776	476.66
768.959	445.95
769.142	493.05
769.324	450.04
769.507	501.24
769.69	409.08
769.873	404.99
770.056	454.14
770.239	400.89
770.421	464.38
770.604	370.17
770.787	454.14
770.97	357.88
771.152	337.4
771.335	421.37
771.518	335.35
771.7	511.48
771.883	511.48
772.066	513.53
772.248	388.6
772.431	357.88
772.613	411.13
772.796	335.35
772.978	484.86
773.161	447.99
773.343	400.89
773.526	411.13
773.708	390.65
773.891	306.68
774.073	392.7
774.256	368.12
774.438	380.41
774.621	398.84
774.803	345.59
774.985	316.92
775.168	421.37
775.35	288.25
775.532	370.17
775.715	327.16
775.897	304.64
776.079	368.12
776.261	380.41
776.444	435.71
776.626	355.83
776.808	374.27
776.99	343.55
777.173	306.68
777.355	376.31
777.537	327.16
777.719	290.3
777.901	265.72
778.083	366.07
778.265	316.92
778.447	388.6
778.629	288.25
778.811	308.73
778.993	247.29
779.175	329.21
779.357	232.96
779.539	355.83
779.721	255.48
779.903	300.54
780.085	321.02
780.267	255.48
780.449	282.11
780.631	382.46
780.812	325.12
780.994	323.07
781.176	304.64
781.358	275.96
781.54	245.24
781.721	265.72
781.903	294.4
782.085	243.2
782.267	286.2
782.448	290.3
782.63	310.78
782.812	235
782.993	294.4
783.175	220.67
783.357	308.73
783.538	222.72
783.72	220.67
783.901	237.05
784.083	235
784.264	220.67
784.446	263.68
784.627	251.39
784.809	269.82
784.99	214.52
785.172	253.44
785.353	237.05
785.535	206.33
785.716	245.24
785.897	196.09
786.079	222.72
786.26	222.72
786.441	169.47
786.623	224.76
786.804	220.67
786.985	224.76
787.167	200.19
787.348	146.94
787.529	249.34
787.71	282.11
787.891	189.95
788.073	169.47
788.254	253.44
788.435	183.81
788.616	206.33
788.797	245.24
788.978	173.57
789.159	185.85
789.34	220.67
789.522	202.24
789.703	228.86
789.884	138.75
790.065	128.51
790.246	206.33
790.427	179.71
790.607	202.24
790.788	232.96
790.969	138.75
791.15	163.33
791.331	173.57
791.512	163.33
791.693	212.48
791.874	185.85
792.054	187.9
792.235	208.38
792.416	220.67
792.597	206.33
792.778	185.85
792.958	122.37
793.139	210.43
793.32	58.88
793.5	130.56
793.681	202.24
793.862	151.04
794.042	138.75
794.223	157.18
794.404	167.42
794.584	187.9
794.765	196.09
794.945	198.14
795.126	140.8
795.306	91.65
795.487	173.57
795.667	134.65
795.848	138.75
796.028	83.45
796.209	134.65
796.389	140.8
796.57	175.61
796.75	97.79
796.93	140.8
797.111	69.12
797.291	101.89
797.471	120.32
797.652	208.38
797.832	151.04
798.012	126.46
798.192	157.18
798.373	165.37
798.553	177.66
798.733	167.42
798.913	159.23
799.093	77.31
799.274	185.85
799.454	48.64
799.634	118.27
799.814	153.09
799.994	73.21
800.174	179.71
800.354	169.47
800.534	124.41
800.714	214.52
800.894	73.21
801.074	134.65
801.254	126.46
801.434	118.27
801.614	126.46
801.794	128.51
801.974	269.82
802.154	159.23
802.334	52.74
802.514	97.79
802.693	157.18
802.873	146.94
803.053	85.5
803.233	58.88
803.413	62.98
803.592	124.41
803.772	108.03
803.952	58.88
804.131	91.65
804.311	42.5
804.491	161.28
804.67	81.41
804.85	146.94
805.03	75.26
805.209	108.03
805.389	140.8
805.568	103.93
805.748	52.74
805.928	89.6
806.107	69.12
806.287	169.47
806.466	110.08
806.646	101.89
806.825	93.69
807.004	116.22
807.184	85.5
807.363	69.12
807.543	99.84
807.722	155.13
807.901	118.27
808.081	112.13
808.26	114.17
808.439	114.17
808.619	34.3
808.798	132.61
808.977	79.36
809.156	1.54
809.336	67.07
809.515	73.21
809.694	118.27
809.873	40.45
810.052	91.65
810.231	105.98
810.411	112.13
810.59	142.85
810.769	50.69
810.948	105.98
811.127	50.69
811.306	56.83
811.485	79.36
811.664	97.79
811.843	179.71
812.022	136.7
812.201	60.93
812.38	71.17
812.559	73.21
812.737	130.56
812.916	34.3
813.095	65.02
813.274	105.98
813.453	56.83
813.632	89.6
813.811	83.45
813.989	93.69
814.168	122.37
814.347	48.64
814.526	19.97
814.704	83.45
814.883	40.45
815.062	89.6
815.24	116.22
815.419	60.93
815.598	44.54
815.776	34.3
815.955	132.61
816.133	81.41
816.312	15.87
816.49	19.97
816.669	65.02
816.847	50.69
817.026	75.26
817.204	-4.61
817.383	81.41
817.561	67.07
817.74	26.11
817.918	60.93
818.097	56.83
818.275	15.87
818.453	105.98
818.632	40.45
818.81	60.93
818.988	60.93
819.167	71.17
819.345	38.4
819.523	13.82
819.701	-23.04
819.879	85.5
820.058	-18.94
820.236	7.68
820.414	26.11
820.592	120.32
820.77	91.65
820.948	3.58
821.127	-8.7
821.305	42.5
821.483	15.87
821.661	24.06
821.839	108.03
822.017	50.69
822.195	-20.99
822.373	11.78
822.551	89.6
822.729	81.41
822.907	24.06
823.085	26.11
823.262	60.93
823.44	-6.66
823.618	15.87
823.796	-88.57
823.974	32.26
824.152	83.45
824.329	19.97
824.507	73.21
824.685	24.06
824.863	3.58
825.04	9.73
825.218	17.92
825.396	-37.38
825.574	7.68
825.751	-29.18
825.929	38.4
826.107	83.45
826.284	38.4
826.462	69.12
826.639	110.08
826.817	15.87
826.994	54.78
827.172	30.21
827.349	28.16
827.527	65.02
827.704	-29.18
827.882	28.16
828.059	77.31
828.237	-47.62
828.414	32.26
828.591	-31.23
828.769	30.21
828.946	15.87
829.124	75.26
829.301	83.45
829.478	-0.51
829.655	9.73
829.833	58.88
830.01	22.02
830.187	83.45
830.364	-4.61
830.542	1.54
830.719	28.16
830.896	58.88
831.073	91.65
831.25	50.69
831.427	24.06
831.604	-8.7
831.782	7.68
831.959	73.21
832.136	-33.28
832.313	26.11
832.49	-64
832.667	3.58
832.844	-8.7
833.021	48.64
833.198	40.45
833.374	65.02
833.551	56.83
833.728	93.69
833.905	65.02
834.082	28.16
834.259	30.21
834.436	75.26
834.612	58.88
834.789	-18.94
834.966	-6.66
835.143	50.69
835.319	-16.9
835.496	1.54
835.673	42.5
835.85	-16.9
836.026	77.31
836.203	3.58
836.38	32.26
836.556	-0.51
836.733	-33.28
836.909	110.08
837.086	91.65
837.262	65.02
837.439	48.64
837.616	40.45
837.792	28.16
837.968	24.06
838.145	-16.9
838.321	81.41
838.498	28.16
838.674	65.02
838.851	44.54
839.027	103.93
839.203	58.88
839.38	1.54
839.556	7.68
839.732	97.79
839.909	22.02
840.085	50.69
840.261	62.98
840.437	-12.8
840.614	52.74
840.79	24.06
840.966	36.35
841.142	5.63
841.318	24.06
841.494	50.69
841.671	-12.8
841.847	-0.51
842.023	-31.23
842.199	13.82
842.375	26.11
842.551	-2.56
842.727	-39.42
842.903	28.16
843.079	15.87
843.255	32.26
843.431	69.12
843.607	-14.85
843.783	36.35
843.959	56.83
844.134	7.68
844.31	71.17
844.486	34.3
844.662	77.31
844.838	26.11
845.013	73.21
845.189	17.92
845.365	3.58
845.541	36.35
845.716	28.16
845.892	28.16
846.068	-12.8
846.244	-2.56
846.419	-41.47
846.595	-70.14
846.77	46.59
846.946	5.63
847.122	19.97
847.297	-0.51
847.473	17.92
847.648	26.11
847.824	15.87
847.999	17.92
848.175	44.54
848.35	-35.33
848.526	79.36
848.701	30.21
848.876	48.64
849.052	42.5
849.227	40.45
849.403	-14.85
849.578	11.78
849.753	46.59
849.929	48.64
850.104	40.45
850.279	-0.51
850.454	-55.81
850.63	58.88
850.805	-6.66
850.98	-29.18
851.155	32.26
851.33	65.02
851.505	7.68
851.681	-74.24
851.856	36.35
852.031	24.06
852.206	93.69
852.381	7.68
852.556	-23.04
852.731	-25.09
852.906	32.26
853.081	-27.14
853.256	75.26
853.431	-31.23
853.606	-0.51
853.781	17.92
853.956	7.68
854.131	3.58
854.305	-35.33
854.48	-2.56
854.655	-41.47
854.83	40.45
855.005	-2.56
855.18	11.78
855.354	-4.61
855.529	-6.66
855.704	22.02
855.879	3.58
856.053	-12.8
856.228	11.78
856.403	-0.51
856.577	19.97
856.752	-37.38
856.926	-14.85
857.101	28.16
857.276	19.97
857.45	-18.94
857.625	-49.66
857.799	-80.38
857.974	50.69
858.148	-66.05
858.323	9.73
858.497	-33.28
858.672	40.45
858.846	7.68
859.02	-29.18
859.195	-12.8
859.369	-10.75
859.543	60.93
859.718	-41.47
859.892	11.78
860.066	-31.23
860.241	-125.44
860.415	15.87
860.589	-78.33
860.763	3.58
860.938	44.54
861.112	17.92
861.286	-0.51
861.46	-16.9
861.634	-70.14
861.808	40.45
861.982	-35.33
862.157	17.92
862.331	65.02
862.505	-23.04
862.679	-10.75
862.853	-31.23
863.027	-0.51
863.201	101.89
863.375	24.06
863.549	9.73
863.722	-23.04
863.896	1.54
864.07	-12.8
864.244	-2.56
864.418	7.68
864.592	3.58
864.766	36.35
864.939	40.45
865.113	3.58
865.287	-51.71
865.461	7.68
865.634	-53.76
865.808	-78.33
865.982	-16.9
866.156	3.58
866.329	3.58
866.503	7.68
866.676	32.26
866.85	15.87
867.024	40.45
867.197	-14.85
867.371	17.92
867.544	-43.52
867.718	-33.28
867.891	5.63
868.065	44.54
868.238	-10.75
868.412	40.45
868.585	-78.33
868.759	75.26
868.932	3.58
869.105	36.35
869.279	9.73
869.452	32.26
869.625	-55.81
869.799	-0.51
869.972	-2.56
870.145	34.3
870.319	1.54
870.492	-90.62
870.665	15.87
870.838	19.97
871.011	-6.66
871.185	40.45
871.358	-45.57
871.531	-27.14
871.704	15.87
871.877	42.5
872.05	-49.66
872.223	17.92
872.396	-8.7
872.569	17.92
872.742	-70.14
872.915	-31.23
873.088	-45.57
873.261	11.78
873.434	-72.19
873.607	56.83
873.78	15.87
873.953	-61.95
874.126	17.92
874.299	46.59
874.471	9.73
874.644	-90.62
874.817	3.58
874.99	71.17
875.163	9.73
875.335	15.87
875.508	-37.38
875.681	9.73
875.853	15.87
876.026	-68.09
876.199	-39.42
876.371	56.83
876.544	13.82
876.717	-55.81
876.889	-53.76
877.062	-39.42
877.234	-47.62
877.407	9.73
877.579	-98.81
877.752	60.93
877.924	-8.7
878.097	-23.04
878.269	-37.38
878.442	-39.42
878.614	36.35
878.786	62.98
878.959	-53.76
879.131	-10.75
879.303	-20.99
879.476	-6.66
879.648	-6.66
879.82	22.02
879.993	-31.23
880.165	-6.66
880.337	-80.38
880.509	40.45
880.681	-43.52
880.854	52.74
881.026	-33.28
881.198	-0.51
881.37	9.73
881.542	9.73
881.714	-31.23
881.886	-10.75
882.058	-0.51
882.23	32.26
882.402	-33.28
882.574	-16.9
882.746	-76.29
882.918	-6.66
883.09	58.88
883.262	73.21
883.434	34.3
883.606	3.58
883.778	-59.9
883.95	24.06
884.122	28.16
884.293	58.88
884.465	5.63
884.637	75.26
884.809	-51.71
884.98	-76.29
885.152	-57.86
885.324	30.21
885.496	-72.19
885.667	15.87
885.839	-23.04
886.011	62.98
886.182	-10.75
886.354	-12.8
886.525	30.21
886.697	75.26
886.869	-96.77
887.04	-0.51
887.212	-33.28
887.383	120.32
887.555	30.21
887.726	40.45
887.897	11.78
888.069	-31.23
888.24	-47.62
888.412	-12.8
888.583	-10.75
888.754	-12.8
888.926	7.68
889.097	9.73
889.268	9.73
889.44	-12.8
889.611	-0.51
889.782	-16.9
889.953	26.11
890.125	-23.04
890.296	-35.33
890.467	48.64
890.638	-6.66
890.809	-43.52
890.98	-23.04
891.151	3.58
891.323	40.45
891.494	7.68
891.665	-8.7
891.836	-23.04
892.007	62.98
892.178	-33.28
892.349	-45.57
892.52	-45.57
892.691	52.74
892.862	91.65
893.032	-8.7
893.203	50.69
893.374	-98.81
893.545	9.73
893.716	13.82
893.887	-53.76
894.057	28.16
894.228	26.11
894.399	28.16
894.57	-70.14
894.74	-80.38
894.911	-31.23
895.082	-53.76
895.253	1.54
895.423	9.73
895.594	1.54
895.764	-10.75
895.935	54.78
896.106	-47.62
896.276	-70.14
896.447	15.87
896.617	-80.38
896.788	-25.09
896.958	9.73
897.129	17.92
897.299	7.68
897.47	42.5
897.64	52.74
897.81	-109.05
897.981	-8.7
898.151	-61.95
898.322	-41.47
898.492	13.82
898.662	-37.38
898.832	-12.8
899.003	-41.47
899.173	34.3
899.343	-49.66
899.513	52.74
