Data from USB4F104151__2__13-52-05-107.txt Node

Date: Thu Mar 13 13:52:05 EDT 2025
User: louis
Spectrometer: USB4F10415
Trigger mode: 4
Integration Time (sec): 1.000000E-2
Scans to average: 1
Electric dark correction enabled: true
Nonlinearity correction enabled: false
Boxcar width: 0
XAxis mode: Wavelengths
Number of Pixels in Spectrum: 3648
>>>>>Begin Spectral Data<<<<<
178.204	-50.52
178.424	-50.52
178.644	-50.52
178.864	-38.23
179.084	4.78
179.304	-17.75
179.524	-17.75
179.744	-56.66
179.964	64.17
180.184	-68.95
180.404	17.07
180.624	55.98
180.844	-40.28
181.064	-1.37
181.283	76.46
181.503	29.35
181.723	-40.28
181.943	-48.47
182.163	62.12
182.383	45.74
182.602	39.59
182.822	25.26
183.042	35.5
183.262	-54.61
183.482	-7.51
183.701	35.5
183.921	31.4
184.141	-9.56
184.361	-13.65
184.58	-13.65
184.8	47.79
185.02	66.22
185.239	49.83
185.459	35.5
185.679	60.07
185.898	43.69
186.118	37.55
186.338	2.73
186.557	78.51
186.777	15.02
186.997	-19.8
187.216	2.73
187.436	121.51
187.655	6.83
187.875	45.74
188.095	-25.94
188.314	62.12
188.534	15.02
188.753	29.35
188.973	19.11
189.192	6.83
189.412	0.68
189.631	62.12
189.851	86.7
190.07	29.35
190.29	31.4
190.509	90.79
190.729	92.84
190.948	2.73
191.168	51.88
191.387	-19.8
191.607	27.31
191.826	35.5
192.045	41.64
192.265	90.79
192.484	31.4
192.704	-34.13
192.923	23.21
193.142	27.31
193.362	70.31
193.581	21.16
193.8	19.11
194.02	19.11
194.239	-54.61
194.458	37.55
194.678	4.78
194.897	39.59
195.116	53.93
195.335	45.74
195.555	6.83
195.774	15.02
195.993	47.79
196.212	17.07
196.432	41.64
196.651	37.55
196.87	31.4
197.089	-13.65
197.308	19.11
197.528	49.83
197.747	2.73
197.966	70.31
198.185	-3.41
198.404	8.87
198.623	78.51
198.842	45.74
199.062	41.64
199.281	-27.99
199.5	8.87
199.719	17.07
199.938	43.69
200.157	47.79
200.376	-23.89
200.595	101.03
200.814	2.73
201.033	39.59
201.252	37.55
201.471	45.74
201.69	33.45
201.909	6.83
202.128	39.59
202.347	117.42
202.566	31.4
202.785	68.27
203.004	76.46
203.223	88.75
203.442	74.41
203.661	53.93
203.879	58.03
204.098	2.73
204.317	15.02
204.536	70.31
204.755	80.55
204.974	70.31
205.193	6.83
205.411	-17.75
205.63	55.98
205.849	8.87
206.068	29.35
206.287	-7.51
206.505	41.64
206.724	15.02
206.943	33.45
207.162	51.88
207.381	80.55
207.599	27.31
207.818	35.5
208.037	12.97
208.255	55.98
208.474	58.03
208.693	25.26
208.911	21.16
209.13	66.22
209.349	66.22
209.567	-13.65
209.786	37.55
210.005	-21.85
210.223	-15.7
210.442	51.88
210.661	-11.61
210.879	51.88
211.098	72.36
211.316	19.11
211.535	78.51
211.753	27.31
211.972	96.94
212.191	37.55
212.409	49.83
212.628	8.87
212.846	58.03
213.065	80.55
213.283	31.4
213.502	64.17
213.72	33.45
213.938	39.59
214.157	66.22
214.375	58.03
214.594	53.93
214.812	37.55
215.031	70.31
215.249	86.7
215.467	33.45
215.686	15.02
215.904	15.02
216.122	-15.7
216.341	86.7
216.559	47.79
216.778	76.46
216.996	60.07
217.214	62.12
217.432	12.97
217.651	76.46
217.869	68.27
218.087	58.03
218.306	-62.8
218.524	25.26
218.742	-5.46
218.96	47.79
219.179	55.98
219.397	-60.76
219.615	66.22
219.833	70.31
220.051	27.31
220.27	47.79
220.488	35.5
220.706	31.4
220.924	25.26
221.142	37.55
221.36	92.84
221.578	64.17
221.796	66.22
222.015	86.7
222.233	27.31
222.451	17.07
222.669	49.83
222.887	35.5
223.105	47.79
223.323	88.75
223.541	27.31
223.759	19.11
223.977	-50.52
224.195	62.12
224.413	19.11
224.631	80.55
224.849	15.02
225.067	47.79
225.285	10.92
225.503	96.94
225.721	29.35
225.939	39.59
226.157	-13.65
226.375	113.32
226.592	-50.52
226.81	62.12
227.028	-1.37
227.246	0.68
227.464	96.94
227.682	35.5
227.9	31.4
228.117	86.7
228.335	29.35
228.553	33.45
228.771	125.61
228.989	23.21
229.206	41.64
229.424	43.69
229.642	0.68
229.86	109.23
230.077	27.31
230.295	23.21
230.513	60.07
230.731	96.94
230.948	17.07
231.166	64.17
231.384	76.46
231.601	84.65
231.819	-17.75
232.037	78.51
232.254	-3.41
232.472	4.78
232.689	17.07
232.907	37.55
233.125	10.92
233.342	31.4
233.56	15.02
233.777	4.78
233.995	-75.09
234.213	21.16
234.43	-15.7
234.648	68.27
234.865	41.64
235.083	31.4
235.3	70.31
235.518	-11.61
235.735	31.4
235.953	47.79
236.17	66.22
236.388	27.31
236.605	-116.05
236.822	66.22
237.04	-1.37
237.257	33.45
237.475	-21.85
237.692	-19.8
237.909	51.88
238.127	123.56
238.344	4.78
238.562	39.59
238.779	72.36
238.996	76.46
239.214	23.21
239.431	45.74
239.648	55.98
239.865	144.04
240.083	-5.46
240.3	58.03
240.517	62.12
240.735	74.41
240.952	4.78
241.169	60.07
241.386	6.83
241.603	70.31
241.821	68.27
242.038	119.46
242.255	72.36
242.472	68.27
242.689	-5.46
242.907	58.03
243.124	-11.61
243.341	62.12
243.558	45.74
243.775	33.45
243.992	25.26
244.209	58.03
244.426	39.59
244.643	37.55
244.86	51.88
245.078	62.12
245.295	43.69
245.512	-71
245.729	66.22
245.946	109.23
246.163	-27.99
246.38	64.17
246.597	-9.56
246.814	-9.56
247.031	45.74
247.248	55.98
247.464	-15.7
247.681	66.22
247.898	58.03
248.115	19.11
248.332	10.92
248.549	51.88
248.766	96.94
248.983	68.27
249.2	60.07
249.417	37.55
249.633	98.99
249.85	58.03
250.067	-19.8
250.284	101.03
250.501	80.55
250.717	62.12
250.934	8.87
251.151	-19.8
251.368	68.27
251.585	37.55
251.801	15.02
252.018	29.35
252.235	8.87
252.451	-3.41
252.668	64.17
252.885	53.93
253.102	8.87
253.318	8.87
253.535	78.51
253.752	45.74
253.968	74.41
254.185	58.03
254.401	68.27
254.618	27.31
254.835	74.41
255.051	164.52
255.268	25.26
255.484	-9.56
255.701	51.88
255.917	33.45
256.134	19.11
256.351	101.03
256.567	-46.42
256.784	23.21
257	-7.51
257.217	129.7
257.433	37.55
257.65	101.03
257.866	74.41
258.082	66.22
258.299	41.64
258.515	45.74
258.732	-27.99
258.948	39.59
259.165	19.11
259.381	60.07
259.597	10.92
259.814	96.94
260.03	51.88
260.246	80.55
260.463	43.69
260.679	62.12
260.895	84.65
261.112	117.42
261.328	41.64
261.544	21.16
261.761	72.36
261.977	53.93
262.193	-7.51
262.409	33.45
262.626	41.64
262.842	101.03
263.058	-19.8
263.274	8.87
263.49	64.17
263.707	23.21
263.923	29.35
264.139	19.11
264.355	51.88
264.571	39.59
264.787	64.17
265.004	15.02
265.22	86.7
265.436	-17.75
265.652	98.99
265.868	88.75
266.084	53.93
266.3	21.16
266.516	35.5
266.732	-1.37
266.948	58.03
267.164	37.55
267.38	-5.46
267.596	80.55
267.812	107.18
268.028	86.7
268.244	43.69
268.46	45.74
268.676	78.51
268.892	19.11
269.108	-7.51
269.324	10.92
269.54	23.21
269.756	70.31
269.972	123.56
270.188	76.46
270.403	27.31
270.619	35.5
270.835	55.98
271.051	4.78
271.267	43.69
271.483	94.89
271.698	72.36
271.914	-42.32
272.13	8.87
272.346	27.31
272.562	45.74
272.777	19.11
272.993	29.35
273.209	82.6
273.425	62.12
273.64	84.65
273.856	41.64
274.072	10.92
274.287	37.55
274.503	62.12
274.719	64.17
274.934	47.79
275.15	31.4
275.366	43.69
275.581	8.87
275.797	107.18
276.012	19.11
276.228	-25.94
276.444	25.26
276.659	-50.52
276.875	58.03
277.09	15.02
277.306	68.27
277.521	96.94
277.737	51.88
277.952	74.41
278.168	72.36
278.383	107.18
278.599	19.11
278.814	47.79
279.03	58.03
279.245	39.59
279.461	-5.46
279.676	76.46
279.892	51.88
280.107	-7.51
280.322	58.03
280.538	23.21
280.753	25.26
280.969	76.46
281.184	19.11
281.399	90.79
281.615	66.22
281.83	49.83
282.045	-23.89
282.26	19.11
282.476	35.5
282.691	21.16
282.906	33.45
283.122	-42.32
283.337	33.45
283.552	31.4
283.767	96.94
283.983	-30.04
284.198	129.7
284.413	141.99
284.628	19.11
284.843	41.64
285.058	15.02
285.274	58.03
285.489	51.88
285.704	62.12
285.919	60.07
286.134	4.78
286.349	4.78
286.564	115.37
286.779	8.87
286.995	43.69
287.21	19.11
287.425	105.13
287.64	35.5
287.855	2.73
288.07	-30.04
288.285	86.7
288.5	25.26
288.715	47.79
288.93	12.97
289.145	60.07
289.36	15.02
289.575	84.65
289.79	68.27
290.004	45.74
290.219	60.07
290.434	10.92
290.649	27.31
290.864	29.35
291.079	23.21
291.294	-40.28
291.509	0.68
291.724	31.4
291.938	55.98
292.153	25.26
292.368	35.5
292.583	29.35
292.798	43.69
293.012	80.55
293.227	35.5
293.442	68.27
293.657	-5.46
293.871	113.32
294.086	45.74
294.301	64.17
294.516	35.5
294.73	60.07
294.945	-3.41
295.16	12.97
295.374	72.36
295.589	25.26
295.804	47.79
296.018	37.55
296.233	66.22
296.447	31.4
296.662	101.03
296.877	12.97
297.091	-23.89
297.306	76.46
297.52	4.78
297.735	29.35
297.949	19.11
298.164	25.26
298.378	-23.89
298.593	74.41
298.807	41.64
299.022	12.97
299.236	82.6
299.451	37.55
299.665	31.4
299.88	41.64
300.094	-25.94
300.309	64.17
300.523	49.83
300.737	62.12
300.952	43.69
301.166	19.11
301.381	41.64
301.595	-40.28
301.809	47.79
302.024	62.12
302.238	41.64
302.452	-3.41
302.667	82.6
302.881	76.46
303.095	41.64
303.309	74.41
303.524	80.55
303.738	96.94
303.952	49.83
304.166	6.83
304.381	64.17
304.595	49.83
304.809	41.64
305.023	68.27
305.237	60.07
305.452	19.11
305.666	70.31
305.88	39.59
306.094	78.51
306.308	141.99
306.522	103.08
306.736	35.5
306.95	51.88
307.164	31.4
307.379	94.89
307.593	64.17
307.807	64.17
308.021	27.31
308.235	35.5
308.449	35.5
308.663	19.11
308.877	94.89
309.091	64.17
309.305	55.98
309.519	127.66
309.733	0.68
309.947	35.5
310.161	25.26
310.374	92.84
310.588	62.12
310.802	21.16
311.016	-5.46
311.23	64.17
311.444	49.83
311.658	41.64
311.872	49.83
312.085	115.37
312.299	146.09
312.513	39.59
312.727	76.46
312.941	6.83
313.154	0.68
313.368	43.69
313.582	-17.75
313.796	72.36
314.009	23.21
314.223	19.11
314.437	80.55
314.651	58.03
314.864	92.84
315.078	-38.23
315.292	105.13
315.505	35.5
315.719	33.45
315.933	68.27
316.146	27.31
316.36	10.92
316.573	60.07
316.787	39.59
317.001	-17.75
317.214	43.69
317.428	27.31
317.641	74.41
317.855	62.12
318.068	113.32
318.282	47.79
318.495	47.79
318.709	101.03
318.922	43.69
319.136	94.89
319.349	55.98
319.563	8.87
319.776	45.74
319.99	60.07
320.203	31.4
320.417	47.79
320.63	29.35
320.843	111.27
321.057	-11.61
321.27	12.97
321.483	66.22
321.697	43.69
321.91	-15.7
322.124	49.83
322.337	96.94
322.55	80.55
322.763	-15.7
322.977	41.64
323.19	80.55
323.403	41.64
323.617	51.88
323.83	92.84
324.043	90.79
324.256	101.03
324.469	-13.65
324.683	60.07
324.896	117.42
325.109	51.88
325.322	88.75
325.535	68.27
325.748	-13.65
325.962	25.26
326.175	35.5
326.388	115.37
326.601	98.99
326.814	29.35
327.027	-15.7
327.24	49.83
327.453	8.87
327.666	92.84
327.879	31.4
328.092	4.78
328.305	6.83
328.518	119.46
328.731	-19.8
328.944	-3.41
329.157	88.75
329.37	86.7
329.583	-19.8
329.796	62.12
330.009	6.83
330.222	31.4
330.435	41.64
330.648	64.17
330.861	121.51
331.073	29.35
331.286	58.03
331.499	133.8
331.712	2.73
331.925	80.55
332.138	74.41
332.35	35.5
332.563	-62.8
332.776	35.5
332.989	88.75
333.202	55.98
333.414	53.93
333.627	8.87
333.84	60.07
334.053	21.16
334.265	15.02
334.478	84.65
334.691	51.88
334.903	94.89
335.116	-44.37
335.329	25.26
335.541	80.55
335.754	84.65
335.966	68.27
336.179	19.11
336.392	58.03
336.604	45.74
336.817	96.94
337.029	27.31
337.242	109.23
337.454	8.87
337.667	-27.99
337.88	123.56
338.092	105.13
338.305	8.87
338.517	55.98
338.729	35.5
338.942	49.83
339.154	58.03
339.367	101.03
339.579	2.73
339.792	23.21
340.004	45.74
340.217	2.73
340.429	23.21
340.641	37.55
340.854	27.31
341.066	80.55
341.278	62.12
341.491	15.02
341.703	25.26
341.915	-7.51
342.128	125.61
342.34	51.88
342.552	64.17
342.764	43.69
342.977	-44.37
343.189	8.87
343.401	60.07
343.613	109.23
343.826	-3.41
344.038	133.8
344.25	62.12
344.462	15.02
344.674	51.88
344.886	23.21
345.099	47.79
345.311	15.02
345.523	66.22
345.735	-23.89
345.947	-3.41
346.159	58.03
346.371	58.03
346.583	-64.85
346.795	84.65
347.007	66.22
347.219	29.35
347.431	68.27
347.643	105.13
347.855	74.41
348.067	55.98
348.279	88.75
348.491	8.87
348.703	33.45
348.915	-3.41
349.127	37.55
349.339	45.74
349.551	45.74
349.763	58.03
349.975	39.59
350.187	-5.46
350.399	90.79
350.61	29.35
350.822	86.7
351.034	37.55
351.246	37.55
351.458	-3.41
351.669	84.65
351.881	47.79
352.093	62.12
352.305	125.61
352.517	55.98
352.728	76.46
352.94	47.79
353.152	19.11
353.363	41.64
353.575	31.4
353.787	70.31
353.999	90.79
354.21	86.7
354.422	131.75
354.633	21.16
354.845	101.03
355.057	17.07
355.268	70.31
355.48	60.07
355.692	4.78
355.903	78.51
356.115	12.97
356.326	8.87
356.538	64.17
356.749	101.03
356.961	37.55
357.172	111.27
357.384	90.79
357.595	27.31
357.807	4.78
358.018	-1.37
358.23	25.26
358.441	121.51
358.653	21.16
358.864	31.4
359.075	60.07
359.287	62.12
359.498	53.93
359.709	78.51
359.921	92.84
360.132	53.93
360.344	72.36
360.555	55.98
360.766	139.94
360.977	80.55
361.189	4.78
361.4	10.92
361.611	84.65
361.823	88.75
362.034	29.35
362.245	60.07
362.456	109.23
362.667	55.98
362.879	90.79
363.09	4.78
363.301	41.64
363.512	25.26
363.723	19.11
363.935	25.26
364.146	68.27
364.357	49.83
364.568	121.51
364.779	17.07
364.99	55.98
365.201	25.26
365.412	74.41
365.623	76.46
365.834	68.27
366.045	60.07
366.256	64.17
366.467	47.79
366.678	49.83
366.889	92.84
367.1	76.46
367.311	35.5
367.522	55.98
367.733	29.35
367.944	10.92
368.155	82.6
368.366	25.26
368.577	27.31
368.788	21.16
368.999	88.75
369.209	68.27
369.42	6.83
369.631	53.93
369.842	117.42
370.053	64.17
370.264	49.83
370.474	68.27
370.685	125.61
370.896	27.31
371.107	10.92
371.317	43.69
371.528	84.65
371.739	58.03
371.95	68.27
372.16	76.46
372.371	60.07
372.582	129.7
372.792	55.98
373.003	49.83
373.214	74.41
373.424	141.99
373.635	21.16
373.846	111.27
374.056	-13.65
374.267	82.6
374.477	23.21
374.688	70.31
374.898	23.21
375.109	131.75
375.319	111.27
375.53	8.87
375.74	6.83
375.951	68.27
376.161	-42.32
376.372	119.46
376.582	62.12
376.793	35.5
377.003	86.7
377.214	35.5
377.424	58.03
377.635	21.16
377.845	58.03
378.055	15.02
378.266	60.07
378.476	29.35
378.686	51.88
378.897	53.93
379.107	113.32
379.317	55.98
379.528	-1.37
379.738	98.99
379.948	55.98
380.158	113.32
380.369	27.31
380.579	8.87
380.789	27.31
380.999	76.46
381.21	47.79
381.42	53.93
381.63	66.22
381.84	0.68
382.05	17.07
382.261	29.35
382.471	29.35
382.681	17.07
382.891	117.42
383.101	115.37
383.311	19.11
383.521	60.07
383.731	90.79
383.941	19.11
384.151	39.59
384.361	135.85
384.571	76.46
384.781	27.31
384.991	60.07
385.201	64.17
385.411	78.51
385.621	60.07
385.831	29.35
386.041	107.18
386.251	92.84
386.461	35.5
386.671	10.92
386.881	74.41
387.091	117.42
387.301	90.79
387.511	23.21
387.72	25.26
387.93	123.56
388.14	51.88
388.35	80.55
388.56	64.17
388.769	51.88
388.979	117.42
389.189	41.64
389.399	96.94
389.609	107.18
389.818	29.35
390.028	-1.37
390.238	76.46
390.447	66.22
390.657	78.51
390.867	154.28
391.076	135.85
391.286	92.84
391.496	113.32
391.705	45.74
391.915	152.23
392.125	86.7
392.334	94.89
392.544	62.12
392.753	92.84
392.963	47.79
393.172	37.55
393.382	35.5
393.591	107.18
393.801	74.41
394.01	88.75
394.22	107.18
394.429	64.17
394.639	58.03
394.848	107.18
395.058	133.8
395.267	131.75
395.477	68.27
395.686	55.98
395.895	47.79
396.105	123.56
396.314	98.99
396.524	115.37
396.733	60.07
396.942	119.46
397.152	88.75
397.361	141.99
397.57	84.65
397.78	55.98
397.989	53.93
398.198	107.18
398.407	107.18
398.617	74.41
398.826	62.12
399.035	98.99
399.244	158.38
399.453	92.84
399.663	45.74
399.872	150.18
400.081	51.88
400.29	172.71
400.499	111.27
400.708	90.79
400.917	103.08
401.127	94.89
401.336	115.37
401.545	121.51
401.754	117.42
401.963	160.42
402.172	107.18
402.381	76.46
402.59	86.7
402.799	135.85
403.008	86.7
403.217	121.51
403.426	162.47
403.635	203.43
403.844	146.09
404.053	94.89
404.262	127.66
404.471	90.79
404.68	125.61
404.888	166.57
405.097	180.9
405.306	135.85
405.515	94.89
405.724	162.47
405.933	144.04
406.142	189.1
406.35	129.7
406.559	166.57
406.768	178.86
406.977	234.15
407.185	156.33
407.394	180.9
407.603	201.38
407.812	248.49
408.02	164.52
408.229	201.38
408.438	174.76
408.646	246.44
408.855	213.67
409.064	86.7
409.272	236.2
409.481	240.3
409.69	271.01
409.898	225.96
410.107	311.97
410.315	271.01
410.524	365.22
410.733	289.45
410.941	332.45
411.15	305.83
411.358	363.17
411.567	354.98
411.775	408.23
411.984	336.55
412.192	365.22
412.401	395.94
412.609	416.42
412.818	395.94
413.026	377.51
413.234	381.6
413.443	465.57
413.651	391.84
413.86	467.62
414.068	471.72
414.276	469.67
414.485	494.24
414.693	477.86
414.901	508.58
415.11	563.87
415.318	496.29
415.526	641.7
415.734	623.27
415.943	660.13
416.151	713.38
416.359	727.71
416.567	817.82
416.776	799.39
416.984	785.05
417.192	819.87
417.4	737.95
417.608	811.68
417.817	885.41
418.025	799.39
418.233	1008.28
418.441	969.37
418.649	936.6
418.857	1069.72
419.065	1079.96
419.273	987.8
419.481	1082.01
419.689	1192.6
419.897	1213.08
420.105	1262.23
420.313	1378.97
420.521	1350.29
420.729	1196.7
420.937	1383.06
421.145	1454.74
421.353	1452.69
421.561	1682.06
421.769	1548.95
421.977	1690.26
422.185	1749.65
422.393	1776.27
422.601	1868.43
422.809	1815.18
423.017	1854.09
423.224	1954.44
423.432	2110.09
423.64	2214.54
423.848	2179.72
424.056	2095.75
424.263	2241.16
424.471	2415.24
424.679	2247.3
424.887	2509.44
425.094	2638.47
425.302	2704
425.51	2658.95
425.718	2744.96
425.925	2847.36
426.133	2968.19
426.341	3152.51
426.548	3179.13
426.756	3181.18
426.964	3236.47
427.171	3541.62
427.379	3560.05
427.586	3512.95
427.794	3750.51
428.001	3885.68
428.209	4000.37
428.417	4010.61
428.624	4205.16
428.832	4262.51
429.039	4287.08
429.247	4156.01
429.454	4737.63
429.662	4924
429.869	4543.08
430.076	4979.29
430.284	4852.32
430.491	4958.81
430.699	5460.57
430.906	5384.79
431.114	5481.05
431.321	5368.41
431.528	5667.41
431.736	5993.04
431.943	6306.38
432.15	6132.3
432.358	6226.51
432.565	6310.47
432.772	6505.03
432.979	6883.91
433.187	6959.68
433.394	6888
433.601	7389.75
433.808	7469.62
434.016	7473.72
434.223	7770.68
434.43	8225.33
434.637	8022.58
434.844	8579.62
435.052	8620.58
435.259	8604.2
435.466	8743.46
435.673	8774.18
435.88	9257.5
436.087	9753.11
436.294	9718.29
436.501	9196.06
436.708	9740.82
436.915	10160.66
437.122	10445.32
437.329	10353.16
437.537	10676.74
437.743	10930.69
437.95	10910.21
438.157	11295.23
438.364	11813.37
438.571	11641.34
438.778	11799.03
438.985	12902.89
439.192	12243.44
439.399	12810.73
439.606	12452.33
439.813	13287.9
440.02	13982.17
440.227	13992.41
440.433	13861.34
440.64	13992.41
440.847	14041.56
441.054	14461.39
441.261	15086.02
441.467	15432.13
441.674	15557.05
441.881	16105.91
442.088	15825.34
442.294	15694.27
442.501	16335.28
442.708	16658.86
442.914	17220
443.121	17947.03
443.328	17418.66
443.534	18649.49
443.741	18071.96
443.948	18252.18
444.154	19206.53
444.361	19042.7
444.568	19290.5
444.774	19360.13
444.981	19538.3
445.187	19945.85
445.394	20822.38
445.6	20517.23
445.807	22722.9
446.013	21635.42
446.22	22042.97
446.426	22890.83
446.633	23128.39
446.839	23648.58
447.046	22882.64
447.252	23980.35
447.459	24228.15
447.665	23859.52
447.871	25092.4
448.078	26081.56
448.284	24828.21
448.491	25413.93
448.697	26507.54
448.903	26906.9
449.11	26847.5
449.316	26497.3
449.522	27123.98
449.728	27246.86
449.935	27832.58
450.141	27967.74
450.347	28506.36
450.553	27834.63
450.76	28160.25
450.966	28879.09
451.172	28432.63
451.378	29268.2
451.584	28399.87
451.791	29305.07
451.997	29264.11
452.203	29581.54
452.409	29518.06
452.615	29380.84
452.821	28168.44
453.027	27781.38
453.233	29569.26
453.44	28012.8
453.646	28340.47
453.852	28598.52
454.058	28758.26
454.264	28145.92
454.47	29153.52
454.676	27932.93
454.882	28565.75
455.088	26282.27
455.294	26431.77
455.5	26970.38
455.705	27402.5
455.911	26118.43
456.117	25590.05
456.323	25131.31
456.529	23849.28
456.735	24879.41
456.941	24406.33
457.147	23771.46
457.352	23132.49
457.558	22534.48
457.764	23120.2
457.97	22770
458.176	22241.62
458.381	22014.3
458.587	20877.68
458.793	20969.83
458.999	19898.75
459.204	21320.04
459.41	20615.54
459.616	19472.77
459.821	19294.6
460.027	19243.4
460.233	18827.66
460.438	17924.51
460.644	18102.68
460.85	17144.23
461.055	16806.31
461.261	17111.46
461.466	15776.19
461.672	15206.85
461.878	16353.71
462.083	15327.68
462.289	14975.43
462.494	14684.62
462.7	14260.69
462.905	13763.03
463.111	14365.14
463.316	14541.26
463.522	14129.62
463.727	14197.2
463.932	13982.17
464.138	13855.19
464.343	13824.47
464.549	13617.63
464.754	14016.98
464.959	13916.63
465.165	13943.25
465.37	13365.73
465.575	12999.14
465.781	13570.52
465.986	13375.97
466.191	12952.04
466.397	12763.62
466.602	12255.73
466.807	12802.54
467.012	12732.9
467.218	12732.9
467.423	12323.31
467.628	12433.9
467.833	13056.48
468.038	12407.28
468.244	12351.98
468.449	12622.31
468.654	12169.71
468.859	11975.16
469.064	12083.7
469.269	11549.18
469.474	11772.41
469.679	12071.41
469.885	11614.71
470.09	11764.22
470.295	11731.45
470.5	11250.17
470.705	11452.92
470.91	11059.71
471.115	10904.07
471.32	11325.95
471.525	11108.87
471.73	10945.03
471.935	10768.9
472.139	10426.89
472.344	10455.56
472.549	10619.4
472.754	10203.66
472.959	10099.22
473.164	9847.32
473.369	10007.06
473.574	10021.39
473.778	10054.16
473.983	9830.93
474.188	10041.87
474.393	9357.85
474.598	9513.5
474.802	9495.07
475.007	9064.99
475.212	9259.55
475.417	9132.58
475.621	8872.48
475.826	9167.39
476.031	8890.91
476.235	8647.21
476.44	9040.42
476.645	8509.99
476.849	8690.21
477.054	8591.91
477.259	8542.76
477.463	8483.37
477.668	8155.69
477.872	8276.52
478.077	8331.82
478.282	8092.21
478.486	7907.89
478.691	7944.75
478.895	7856.69
479.1	7885.36
479.304	7936.56
479.509	7461.43
479.713	7746.1
479.918	7660.09
480.122	7633.46
480.326	7643.7
480.531	7809.59
480.735	7621.17
480.94	7443
481.144	7768.63
481.348	7391.8
481.553	7436.86
481.757	7297.6
481.961	7391.8
482.166	7518.78
482.37	7436.86
482.574	7275.07
482.778	7225.92
482.983	7379.51
483.187	7330.36
483.391	7180.86
483.595	7146.05
483.8	7299.64
484.004	7350.84
484.208	7334.46
484.412	7250.49
484.616	7144
484.821	7375.42
485.025	7086.65
485.229	7447.1
485.433	7320.12
485.637	7307.84
485.841	7408.19
486.045	7109.18
486.249	7203.39
486.453	7189.05
486.657	7371.32
486.861	7148.09
487.065	7246.4
487.269	7240.25
487.473	7129.66
487.677	7236.16
487.881	7336.51
488.085	7219.77
488.289	7496.25
488.493	7252.54
488.697	7324.22
488.901	7410.23
489.105	7330.36
489.309	7451.19
489.512	7352.89
489.716	7283.26
489.92	7203.39
490.124	7326.27
490.328	7416.38
490.531	7344.7
490.735	7430.71
490.939	7647.8
491.143	7504.44
491.346	7471.67
491.55	7655.99
491.754	7672.37
491.958	7584.31
492.161	7653.94
492.365	7772.72
492.569	7737.91
492.772	7721.52
492.976	7598.65
493.18	7858.74
493.383	7809.59
493.587	7979.57
493.79	7934.51
493.994	7963.19
494.197	8170.03
494.401	8256.04
494.605	8135.21
494.808	8135.21
495.012	8161.84
495.215	8436.27
495.419	8604.2
495.622	8368.68
495.825	8550.95
496.029	8399.4
496.232	8596.01
496.436	8616.49
496.639	9036.32
496.843	8829.48
497.046	9177.63
497.249	9185.82
497.453	9167.39
497.656	9445.91
497.859	9277.98
498.063	9329.18
498.266	9482.78
498.469	9644.57
498.673	9652.76
498.876	9769.49
499.079	9966.1
499.282	9959.95
499.485	10320.4
499.689	10230.29
499.892	10351.12
500.095	10373.64
500.298	10754.57
500.501	10564.11
500.705	10844.68
500.908	10990.08
501.111	11227.65
501.314	11039.23
501.517	11657.72
501.72	11643.39
501.923	11278.85
502.126	11647.48
502.329	11868.66
502.532	12067.31
502.735	12024.31
502.938	12280.3
503.141	12182
503.344	12792.3
503.547	12593.64
503.75	12712.42
503.953	13138.4
504.156	13144.55
504.359	13261.28
504.562	13320.67
504.765	13724.12
504.968	13429.21
505.17	13990.36
505.373	14098.9
505.576	14262.74
505.779	14211.54
505.982	14549.45
506.185	14756.3
506.387	14903.75
506.59	14997.96
506.793	15342.02
506.996	15182.27
507.198	15630.78
507.401	15708.6
507.604	15888.82
507.807	16187.83
508.009	16308.66
508.212	16374.19
508.415	16701.87
508.617	17037.73
508.82	17056.17
509.022	17158.56
509.225	17377.7
509.428	17459.62
509.63	17887.64
509.833	18119.06
510.035	18397.59
510.238	18342.29
510.44	18448.79
510.643	18917.77
510.845	18983.3
511.048	19245.44
511.25	19458.43
511.453	19437.95
511.655	20124.02
511.858	20117.88
512.06	20380.02
512.262	20724.08
512.465	20400.5
512.667	20851.05
512.87	21135.72
513.072	20957.55
513.274	21649.76
513.477	21899.61
513.679	22163.8
513.881	22501.72
514.084	22442.32
514.286	22380.89
514.488	22899.02
514.69	23411.01
514.893	23501.12
515.095	23836.99
515.297	23857.47
515.499	24129.85
515.701	24488.24
515.904	24713.52
516.106	24785.2
516.308	25209.13
516.51	25424.17
516.712	25610.53
516.914	25973.02
517.116	26190.11
517.318	26472.73
517.52	26607.89
517.722	26962.19
517.925	27521.29
518.127	27740.42
518.329	27732.23
518.531	27797.76
518.733	28289.27
518.935	28741.88
519.136	28973.3
519.338	29069.55
519.54	29327.6
519.742	29513.96
519.944	29821.16
520.146	29724.9
520.348	30705.88
520.55	30294.24
520.752	30470.36
520.954	31412.43
521.155	31105.23
521.357	31914.18
521.559	31838.4
521.761	32223.42
521.963	32473.28
522.164	32694.46
522.366	32653.5
522.568	33069.23
522.77	32964.79
522.971	33964.2
523.173	33345.71
523.375	34142.37
523.576	34095.27
523.778	34293.92
523.98	34603.16
524.181	35014.8
524.383	34752.66
524.584	35135.63
524.786	35547.28
524.988	35610.76
525.189	35854.47
525.391	35973.25
525.592	36196.48
525.794	36413.57
525.995	36458.62
526.197	36352.13
526.398	36581.5
526.6	37267.57
526.801	37169.27
527.003	37263.47
527.204	37245.04
527.406	37904.49
527.607	37824.62
527.808	38111.33
528.01	37572.72
528.211	37808.23
528.412	38871.13
528.614	38602.85
528.815	38295.65
529.016	39196.76
529.218	38365.28
529.419	38787.16
529.62	38273.12
529.822	38400.1
530.023	38903.9
530.224	39202.9
530.425	39065.69
530.626	38627.42
530.828	38668.38
531.029	39585.87
531.23	39329.87
531.431	39346.26
531.632	39313.49
531.833	40026.18
532.035	39336.02
532.236	39731.28
532.437	39667.79
532.638	39647.31
532.839	39817.29
533.04	39768.14
533.241	39313.49
533.442	40427.59
533.643	40030.28
533.844	39475.28
534.045	40425.54
534.246	39460.94
534.447	40017.99
534.648	39727.18
534.849	40024.14
535.05	40042.57
535.251	39983.18
535.451	40329.28
535.652	39987.27
535.853	40368.19
536.054	40435.78
536.255	40486.98
536.456	39884.87
536.657	40304.71
536.857	40187.97
537.058	39737.42
537.259	40261.7
537.46	40478.78
537.66	39886.92
537.861	39735.37
538.062	40380.48
538.263	40403.01
538.463	39866.44
538.664	40032.33
538.865	40439.87
539.065	40669.25
539.266	40011.85
539.466	40192.07
539.667	39880.78
539.868	40663.1
540.068	40071.24
540.269	40310.85
540.469	40237.12
540.67	39905.35
540.87	40257.6
541.071	40067.14
541.271	40620.09
541.472	40190.02
541.672	40118.34
541.873	40083.53
542.073	39999.56
542.274	40050.76
542.474	40304.71
542.675	39977.03
542.875	39972.94
543.075	40372.29
543.276	39637.07
543.476	40347.71
543.676	40130.63
543.877	40183.88
544.077	40296.52
544.277	39858.25
544.478	40273.99
544.678	40104.01
544.878	39987.27
545.078	39974.98
545.279	39913.55
545.479	39874.63
545.679	40333.38
545.879	39790.67
546.079	40026.18
546.28	39946.31
546.48	39718.99
546.68	40161.35
546.88	39909.45
547.08	40161.35
547.28	39827.53
547.48	39737.42
547.68	39841.87
547.88	39432.27
548.081	39942.22
548.281	40153.16
548.481	40048.71
548.681	40392.77
548.881	39952.46
549.081	39831.63
549.28	39819.34
549.48	40212.55
549.68	39878.73
549.88	40595.52
550.08	39817.29
550.28	40134.73
550.48	39827.53
550.68	40128.58
550.88	39784.52
551.08	39934.03
551.279	40022.09
551.479	39733.32
551.679	40071.24
551.879	40013.9
552.079	40253.51
552.278	39776.33
552.478	40112.2
552.678	39288.92
552.878	39682.13
553.077	40007.75
553.277	39399.51
553.477	40151.11
553.676	39583.82
553.876	39553.1
554.076	39538.77
554.275	39452.75
554.475	39049.3
554.674	39534.67
554.874	39403.6
555.074	39137.37
555.273	39784.52
555.473	39428.18
555.672	39057.49
555.872	39147.61
556.071	39344.21
556.271	39401.55
556.47	39252.05
556.67	38891.61
556.869	39512.14
557.068	39374.93
557.268	38658.14
557.467	39000.15
557.667	38785.11
557.866	38572.13
558.065	38484.06
558.265	38854.75
558.464	38113.38
558.663	39096.41
558.863	38176.87
559.062	38752.35
559.261	37951.59
559.461	38670.43
559.66	38361.19
559.859	38510.69
560.058	38297.7
560.258	38238.31
560.457	37802.09
560.656	38119.52
560.855	38522.97
561.054	38226.02
561.253	37679.21
561.453	37888.1
561.652	38037.61
561.851	38223.97
562.05	37830.76
562.249	37249.14
562.448	37990.5
562.647	37511.28
562.846	37474.41
563.045	37607.53
563.244	37038.2
563.443	37664.88
563.642	37083.25
563.841	37476.46
564.04	36968.57
564.239	37482.61
564.438	36941.94
564.637	37245.04
564.836	37193.84
565.035	36700.28
565.234	36931.7
565.432	36704.38
565.631	36900.98
565.83	37009.53
566.029	36386.94
566.228	36628.6
566.427	36548.73
566.625	36055.17
566.824	36024.45
567.023	36464.77
567.222	35827.85
567.42	36413.57
567.619	36065.41
567.818	36153.47
568.016	36092.04
568.215	36296.83
568.414	35491.98
568.612	36094.08
568.811	35530.89
569.01	35580.04
569.208	35352.72
569.407	35633.29
569.605	34805.91
569.804	35123.35
570.002	34787.48
570.201	35102.87
570.4	34623.64
570.598	34463.9
570.797	34322.59
570.995	34721.94
571.193	34402.46
571.392	34535.58
571.59	34140.32
571.789	34265.25
571.987	34511
572.186	34037.92
572.384	33994.92
572.582	34015.4
572.781	34175.14
572.979	33274.03
573.177	33353.9
573.376	33716.39
573.574	33437.87
573.772	33339.57
573.971	33310.89
574.169	32970.93
574.367	32987.32
574.565	32919.73
574.763	32997.56
574.962	32891.06
575.16	32549.05
575.358	32723.13
575.556	32047.3
575.754	32794.81
575.952	32297.15
576.151	32131.26
576.349	31756.49
576.547	32108.74
576.745	31840.45
576.943	32190.66
577.141	31830.21
577.339	31973.57
577.537	31850.69
577.735	31637.7
577.933	31295.69
578.131	31551.69
578.329	31244.49
578.527	30879.96
578.725	31013.07
578.923	31787.21
579.121	30699.73
579.319	30744.79
579.516	30986.45
579.714	30935.25
579.912	30699.73
580.11	30363.87
580.308	30634.2
580.506	30228.7
580.704	29941.99
580.901	30318.81
581.099	30202.08
581.297	29737.19
581.495	29870.31
581.692	29960.42
581.89	29665.51
582.088	29583.59
582.285	29696.23
582.483	29751.52
582.681	29458.67
582.878	29370.6
583.076	29133.04
583.274	29655.27
583.471	29153.52
583.669	29257.96
583.866	28901.62
584.064	28940.53
584.262	28578.04
584.459	28870.9
584.657	28578.04
584.854	28850.42
585.052	28129.53
585.249	28698.87
585.447	28365.05
585.644	27754.76
585.841	28180.73
586.039	28066.05
586.236	27855.11
586.434	27799.81
586.631	27564.29
586.828	28123.39
587.026	27939.07
587.223	27758.85
587.42	27347.21
587.618	27328.78
587.815	27207.95
588.012	27248.91
588.21	26849.55
588.407	27502.85
588.604	27185.42
588.801	26773.78
588.999	26800.4
589.196	26775.83
589.393	26730.77
589.59	26718.48
589.787	26585.36
589.984	26433.82
590.182	25915.68
590.379	26241.31
590.576	26374.42
590.773	26192.15
590.97	26040.61
591.167	26046.75
591.364	25762.08
591.561	26218.78
591.758	25721.12
591.955	25606.44
592.152	25815.33
592.349	25669.92
592.546	25645.35
592.743	25608.48
592.94	25241.9
593.137	25141.55
593.334	25180.46
593.531	25202.99
593.727	25092.4
593.924	25198.89
594.121	25082.16
594.318	25108.78
594.515	24690.99
594.712	24852.78
594.908	24496.44
595.105	24877.36
595.302	24506.68
595.499	24680.75
595.696	24375.61
595.892	23945.53
596.089	24381.75
596.286	24191.29
596.482	24047.93
596.679	23863.61
596.876	23920.96
597.072	23988.54
597.269	24068.41
597.466	23771.46
597.662	23501.12
597.859	23562.56
598.055	23677.25
598.252	23224.65
598.448	23607.62
598.645	23535.94
598.841	23281.99
599.038	23472.45
599.234	23058.76
599.431	22819.15
599.627	22686.03
599.824	22933.84
600.02	22724.94
600.217	22651.22
600.413	22915.4
600.609	22616.4
600.806	22374.74
601.002	22745.42
601.198	22395.22
601.395	22419.8
601.591	22153.56
601.787	22100.31
601.984	22083.93
602.18	22311.25
602.376	21823.84
602.572	21983.58
602.769	21645.66
602.965	21551.46
603.161	21461.35
603.357	21590.37
603.553	21676.38
603.75	21836.13
603.946	21629.28
604.142	21733.73
604.338	21129.58
604.534	21342.56
604.73	20943.21
604.926	20877.68
605.122	20978.03
605.318	20846.96
605.514	20644.21
605.71	20478.32
605.906	20640.11
606.102	20869.48
606.298	20713.84
606.494	20482.42
606.69	20334.96
606.886	20433.27
607.082	20402.55
607.278	20351.35
607.474	19859.84
607.67	20281.72
607.866	19947.9
608.062	20232.57
608.257	20044.15
608.453	19763.58
608.649	20025.72
608.845	19538.3
609.041	19765.63
609.236	19974.52
609.432	19620.22
609.628	19767.68
609.824	19513.73
610.019	19419.52
610.215	19601.79
610.411	19372.42
610.606	19222.92
610.802	19394.95
610.998	19331.46
611.193	19343.75
611.389	18850.19
611.584	19083.66
611.78	19298.69
611.976	19108.23
612.171	19081.61
612.367	19057.03
612.562	18682.25
612.758	18485.65
612.953	18608.53
613.149	18753.93
613.344	18631.05
613.539	18645.39
613.735	18663.82
613.93	18803.08
614.126	18399.63
614.321	18305.43
614.517	18446.74
614.712	18295.19
614.907	18239.89
615.103	18399.63
615.298	18395.54
615.493	18289.04
615.688	18139.54
615.884	18268.56
616.079	18026.9
616.274	17883.55
616.47	18125.21
616.665	18080.15
616.86	17891.74
617.055	17895.83
617.25	17881.5
617.445	17807.77
617.641	17451.42
617.836	17529.25
618.031	17146.28
618.226	17574.3
618.421	17242.53
618.616	17316.26
618.811	17306.02
619.006	17519.01
619.201	17021.35
619.396	17148.32
619.591	16802.22
619.786	17119.65
619.981	16431.54
620.176	16871.85
620.371	16638.38
620.566	16662.96
620.761	16406.96
620.956	16685.48
621.151	16247.22
621.346	16466.35
621.541	16273.84
621.735	16331.19
621.93	16091.57
622.125	15942.07
622.32	15839.67
622.515	15839.67
622.709	15468.99
622.904	15579.58
623.099	15714.75
623.294	15632.83
623.488	15325.63
623.683	15229.38
623.878	14922.18
624.072	15305.15
624.267	15253.95
624.462	14952.9
624.656	14811.59
624.851	14983.62
625.046	14619.08
625.24	14913.99
625.435	14596.56
625.629	14617.04
625.824	14311.89
626.018	14397.9
626.213	13976.02
626.407	14160.34
626.602	14076.37
626.796	14221.78
626.991	13984.21
627.185	13871.57
627.38	13951.45
627.574	13746.65
627.768	13763.03
627.963	13412.83
628.157	13416.93
628.352	13408.73
628.546	13367.77
628.74	13455.84
628.935	13308.38
629.129	13294.05
629.323	13222.37
629.517	13079.01
629.712	12894.69
629.906	12964.32
630.1	12642.79
630.294	12945.89
630.489	12669.42
630.683	12704.23
630.877	12519.92
631.071	12548.59
631.265	12673.51
631.459	12444.14
631.653	12456.43
631.848	12470.76
632.042	12184.05
632.236	12304.88
632.43	11846.13
632.624	12120.56
632.818	11864.57
633.012	11772.41
633.206	12032.5
633.4	11807.22
633.594	11534.84
633.788	11557.37
633.982	11764.22
634.176	11561.47
634.369	11377.15
634.563	11364.86
634.757	11422.2
634.951	11442.68
635.145	11252.22
635.339	11244.03
635.533	11096.58
635.726	11139.58
635.92	10959.36
636.114	10893.83
636.308	10830.34
636.501	11026.95
636.695	11002.37
636.889	10693.13
637.083	10578.44
637.276	10512.91
637.47	10545.67
637.664	10445.32
637.857	10547.72
638.051	10267.15
638.244	10293.77
638.438	10166.8
638.632	10080.78
638.825	9972.24
639.019	10056.21
639.212	10091.02
639.406	9878.04
639.599	9910.8
639.793	10033.68
639.986	9810.45
640.18	9732.63
640.373	9691.67
640.567	9794.07
640.76	9568.79
640.954	9458.2
641.147	9327.13
641.34	9450.01
641.534	9312.8
641.727	9302.56
641.92	9132.58
642.114	9132.58
642.307	9206.3
642.5	9259.55
642.694	8841.76
642.887	8882.72
643.08	8952.35
643.273	8978.98
643.467	8870.44
643.66	8755.75
643.853	8663.59
644.046	8581.67
644.239	8718.89
644.432	8628.77
644.626	8475.18
644.819	8497.7
645.012	8428.07
645.205	8530.47
645.398	8577.58
645.591	8335.92
645.784	8292.91
645.977	8149.55
646.17	8231.47
646.363	8114.73
646.556	7922.23
646.749	8065.58
646.942	8043.06
647.135	7950.9
647.328	7889.46
647.521	7903.79
647.714	7651.89
647.907	7731.76
648.099	7563.83
648.292	7758.39
648.485	7670.33
648.678	7565.88
648.871	7422.52
649.064	7397.95
649.256	7381.56
649.449	7299.64
649.642	7133.76
649.835	7131.71
650.027	7328.31
650.22	7125.57
650.413	7256.64
650.605	7125.57
650.798	7043.65
650.991	7057.98
651.183	7000.64
651.376	6885.95
651.568	6754.88
651.761	6779.46
651.954	6705.73
652.146	6744.64
652.339	6609.48
652.531	6814.27
652.724	6754.88
652.916	6554.18
653.109	6619.72
653.301	6539.85
653.494	6533.7
653.686	6419.02
653.879	6404.68
654.071	6345.29
654.263	6345.29
654.456	6232.65
654.648	6328.91
654.84	6163.02
655.033	6234.7
655.225	6277.71
655.417	6220.36
655.61	6191.69
655.802	6011.47
655.994	6021.71
656.186	5935.7
656.379	5853.78
656.571	5945.94
656.763	6023.76
656.955	5831.25
657.148	5829.2
657.34	5782.1
657.532	5778
657.724	5644.88
657.916	5696.08
658.108	5556.82
658.3	5532.25
658.492	5685.84
658.684	5415.51
658.876	5511.77
659.068	5487.19
659.26	5460.57
659.452	5425.75
659.644	5382.74
659.836	5450.33
660.028	5253.72
660.22	5253.72
660.412	5229.15
660.604	5214.81
660.796	5069.41
660.988	5104.22
661.18	5061.21
661.372	5071.45
661.563	4999.77
661.755	5114.46
661.947	5110.36
662.139	4917.86
662.331	4921.95
662.522	4893.28
662.714	4928.1
662.906	4870.75
663.097	4852.32
663.289	4799.07
663.481	4774.5
663.673	4719.2
663.864	4786.79
664.056	4596.32
664.247	4661.86
664.439	4708.96
664.631	4657.76
664.822	4549.22
665.014	4463.21
665.205	4469.35
665.397	4469.35
665.588	4581.99
665.78	4369
665.971	4323.94
666.163	4512.36
666.354	4424.3
666.546	4278.89
666.737	4229.74
666.929	4260.46
667.12	4448.87
667.311	4381.29
667.503	4256.36
667.694	4199.02
667.885	4090.48
668.077	4149.87
668.268	4256.36
668.459	4149.87
668.651	4143.72
668.842	4059.76
669.033	4098.67
669.224	4053.61
669.416	3963.5
669.607	3900.02
669.798	3869.3
669.989	4047.47
670.18	3867.25
670.371	3873.39
670.563	3822.19
670.754	3932.78
670.945	3814
671.136	3869.3
671.327	3906.16
671.518	3750.51
671.709	3852.91
671.9	3857.01
672.091	3787.38
672.282	3727.99
672.473	3732.08
672.664	3625.59
672.855	3691.12
673.046	3601.01
673.237	3748.47
673.428	3594.87
673.619	3637.88
673.809	3551.86
674	3512.95
674.191	3551.86
674.382	3422.84
674.573	3560.05
674.764	3529.33
674.954	3510.9
675.145	3383.93
675.336	3385.98
675.527	3447.41
675.717	3437.17
675.908	3449.46
676.099	3447.41
676.289	3570.29
676.48	3392.12
676.671	3388.02
676.861	3381.88
677.052	3267.19
677.243	3463.8
677.433	3297.91
677.624	3299.96
677.814	3363.45
678.005	3355.26
678.195	3297.91
678.386	3385.98
678.576	3183.23
678.767	3299.96
678.957	3261.05
679.148	3238.52
679.338	3293.82
679.529	3119.74
679.719	3263.1
679.909	3230.33
680.1	3205.75
680.29	3230.33
680.481	3203.71
680.671	3275.38
680.861	3224.19
681.052	3203.71
681.242	3056.25
681.432	3072.64
681.622	3076.73
681.813	3095.16
682.003	3007.1
682.193	2960
682.383	3140.22
682.573	2980.48
682.764	3107.45
682.954	3097.21
683.144	3035.77
683.334	3043.96
683.524	3033.72
683.714	3101.31
683.904	2925.18
684.094	2972.29
684.284	2937.47
684.474	3084.92
684.664	2962.05
684.854	2962.05
685.044	2912.89
685.234	2847.36
685.424	2953.85
685.614	2982.53
685.804	2929.28
685.994	2900.61
686.184	2970.24
686.374	2896.51
686.564	2888.32
686.753	2919.04
686.943	2947.71
687.133	3009.15
687.323	2861.69
687.513	2804.35
687.702	2814.59
687.892	2769.54
688.082	2828.93
688.272	2869.89
688.461	2980.48
688.651	2833.02
688.841	2865.79
689.03	2878.08
689.22	2900.61
689.41	2769.54
689.599	2744.96
689.789	2845.31
689.979	2765.44
690.168	2849.41
690.358	2800.26
690.547	2687.62
690.737	2777.73
690.926	2841.22
691.116	2773.63
691.305	2820.74
691.495	2710.15
691.684	2620.03
691.874	2790.02
692.063	2732.67
692.252	2830.98
692.442	2763.39
692.631	2724.48
692.82	2669.19
693.01	2742.91
693.199	2689.67
693.388	2691.71
693.578	2699.91
693.767	2724.48
693.956	2665.09
694.146	2736.77
694.335	2720.39
694.524	2740.86
694.713	2765.44
694.902	2652.8
695.092	2732.67
695.281	2652.8
695.47	2695.81
695.659	2777.73
695.848	2816.64
696.037	2636.42
696.226	2673.28
696.415	2660.99
696.604	2785.92
696.793	2726.53
696.982	2636.42
697.171	2624.13
697.36	2599.56
697.549	2665.09
697.738	2564.74
697.927	2620.03
698.116	2742.91
698.305	2673.28
698.494	2704
698.683	2660.99
698.872	2609.79
699.061	2560.64
699.25	2521.73
699.438	2699.91
699.627	2595.46
699.816	2628.23
700.005	2681.47
700.193	2513.54
700.382	2617.99
700.571	2710.15
700.76	2572.93
700.948	2599.56
701.137	2458.25
701.326	2617.99
701.514	2486.92
701.703	2538.12
701.892	2577.03
702.08	2488.96
702.269	2499.2
702.457	2476.68
702.646	2527.88
702.834	2566.79
703.023	2497.16
703.212	2493.06
703.4	2626.18
703.589	2538.12
703.777	2534.02
703.965	2566.79
704.154	2505.35
704.342	2521.73
704.531	2429.57
704.719	2450.05
704.907	2445.96
705.096	2482.82
705.284	2452.1
705.472	2478.72
705.661	2443.91
705.849	2405
706.037	2380.42
706.226	2437.77
706.414	2435.72
706.602	2368.13
706.79	2419.33
706.979	2458.25
707.167	2433.67
707.355	2409.09
707.543	2321.03
707.731	2435.72
707.919	2347.65
708.107	2318.98
708.296	2275.98
708.484	2359.94
708.672	2351.75
708.86	2292.36
709.048	2357.89
709.236	2226.82
709.424	2353.8
709.612	2419.33
709.8	2361.99
709.988	2224.78
710.176	2314.89
710.364	2237.06
710.551	2345.61
710.739	2310.79
710.927	2257.54
711.115	2222.73
711.303	2175.63
711.491	2237.06
711.679	2220.68
711.866	2181.77
712.054	2200.2
712.242	2263.69
712.43	2284.17
712.617	2196.11
712.805	2224.78
712.993	1948.3
713.181	2083.47
713.368	2157.19
713.556	2097.8
713.744	2095.75
713.931	2226.82
714.119	2214.54
714.306	2169.48
714.494	2011.79
714.682	2110.09
714.869	1958.54
715.057	2052.75
715.244	2093.71
715.432	2003.6
715.619	2040.46
715.807	2056.84
715.994	1997.45
716.182	1950.35
716.369	2030.22
716.556	1979.02
716.744	1987.21
716.931	2011.79
717.119	1911.44
717.306	1948.3
717.493	2003.6
717.681	1931.92
717.868	1985.16
718.055	1913.49
718.242	1997.45
718.43	1909.39
718.617	2011.79
718.804	1868.43
718.991	1798.8
719.179	1870.48
719.366	1835.66
719.553	1845.9
719.74	1761.94
719.927	1868.43
720.114	1817.23
720.301	1843.85
720.488	1831.57
720.676	1882.77
720.863	1796.75
721.05	1776.27
721.237	1852.05
721.424	1747.6
721.611	1743.5
721.798	1737.36
721.985	1766.03
722.172	1870.48
722.358	1659.54
722.545	1739.41
722.732	1716.88
722.919	1737.36
723.106	1800.85
723.293	1675.92
723.48	1747.6
723.667	1645.2
723.853	1663.63
724.04	1682.06
724.227	1671.83
724.414	1751.7
724.6	1657.49
724.787	1720.98
724.974	1720.98
725.161	1702.54
725.347	1692.3
725.534	1610.39
725.72	1632.91
725.907	1649.3
726.094	1688.21
726.28	1565.33
726.467	1608.34
726.653	1575.57
726.84	1643.15
727.027	1667.73
727.213	1512.08
727.4	1571.47
727.586	1645.2
727.773	1653.39
727.959	1532.56
728.145	1483.41
728.332	1534.61
728.518	1536.66
728.705	1575.57
728.891	1505.94
729.077	1540.76
729.264	1526.42
729.45	1622.67
729.636	1555.09
729.823	1534.61
730.009	1528.47
730.195	1514.13
730.382	1477.27
730.568	1487.51
730.754	1456.79
730.94	1598.1
731.126	1587.86
731.313	1495.7
731.499	1530.52
731.685	1430.16
731.871	1479.32
732.057	1487.51
732.243	1460.88
732.429	1426.07
732.615	1354.39
732.801	1378.97
732.987	1456.79
733.173	1444.5
733.359	1364.63
733.545	1387.16
733.731	1448.6
733.917	1338.01
734.103	1381.01
734.289	1450.64
734.475	1276.57
734.661	1340.05
734.847	1350.29
735.033	1411.73
735.219	1426.07
735.404	1340.05
735.59	1358.49
735.776	1286.81
735.962	1292.95
736.148	1311.38
736.333	1335.96
736.519	1305.24
736.705	1450.64
736.89	1387.16
737.076	1342.1
737.262	1342.1
737.447	1352.34
737.633	1323.67
737.819	1223.32
738.004	1295
738.19	1213.08
738.375	1229.46
738.561	1278.62
738.747	1235.61
738.932	1282.71
739.118	1256.09
739.303	1254.04
739.489	1200.79
739.674	1122.97
739.859	1196.7
740.045	1178.26
740.23	1161.88
740.416	1204.89
740.601	1231.51
740.786	1174.17
740.972	1204.89
741.157	1315.48
741.342	1190.55
741.528	1219.22
741.713	1168.02
741.898	1165.98
742.084	1237.66
742.269	1217.18
742.454	1204.89
742.639	1120.92
742.824	1165.98
743.01	1129.11
743.195	1112.73
743.38	1122.97
743.565	1176.22
743.75	1118.87
743.935	1118.87
744.12	1125.02
744.305	1030.81
744.49	1110.68
744.675	1047.19
744.86	987.8
745.045	1075.87
745.23	940.7
745.415	1157.79
745.6	1057.43
745.785	957.08
745.97	996
746.155	1036.95
746.34	1034.91
746.525	1071.77
746.71	1030.81
746.895	1016.48
747.079	973.47
747.264	991.9
747.449	983.71
747.634	950.94
747.819	1043.1
748.003	924.32
748.188	946.84
748.373	1002.14
748.557	996
748.742	955.04
748.927	924.32
749.111	875.17
749.296	907.93
749.481	932.51
749.665	873.12
749.85	885.41
750.034	993.95
750.219	793.25
750.404	909.98
750.588	932.51
750.773	926.36
750.957	922.27
751.141	864.93
751.326	928.41
751.51	952.99
751.695	856.73
751.879	903.84
752.064	922.27
752.248	801.44
752.432	864.93
752.617	750.24
752.801	793.25
752.985	830.11
753.17	854.69
753.354	848.54
753.538	809.63
753.722	828.06
753.907	826.01
754.091	752.29
754.275	791.2
754.459	760.48
754.643	770.72
754.828	764.58
755.012	682.66
755.196	789.15
755.38	776.86
755.564	713.38
755.748	778.91
755.932	797.34
756.116	717.47
756.3	719.52
756.484	842.4
756.668	680.61
756.852	664.22
757.036	719.52
757.22	715.42
757.404	664.22
757.588	633.51
757.772	692.9
757.956	692.9
758.14	754.34
758.323	723.62
758.507	740
758.691	664.22
758.875	723.62
759.059	780.96
759.242	699.04
759.426	664.22
759.61	649.89
759.794	670.37
759.977	664.22
760.161	699.04
760.345	621.22
760.528	662.18
760.712	701.09
760.895	572.07
761.079	651.94
761.263	617.12
761.446	613.03
761.63	551.59
761.813	660.13
761.997	619.17
762.18	588.45
762.364	588.45
762.547	567.97
762.731	606.88
762.914	627.36
763.098	537.25
763.281	576.16
763.464	600.74
763.648	563.87
763.831	477.86
764.015	533.15
764.198	578.21
764.381	590.5
764.564	590.5
764.748	588.45
764.931	643.74
765.114	633.51
765.297	565.92
765.481	572.07
765.664	578.21
765.847	531.11
766.03	600.74
766.213	557.73
766.397	610.98
766.58	549.54
766.763	582.31
766.946	547.49
767.129	651.94
767.312	494.24
767.495	545.44
767.678	629.41
767.861	537.25
768.044	539.3
768.227	559.78
768.41	543.39
768.593	574.11
768.776	580.26
768.959	596.64
769.142	553.63
769.324	531.11
769.507	570.02
769.69	578.21
769.873	545.44
770.056	596.64
770.239	539.3
770.421	535.2
770.604	529.06
770.787	518.82
770.97	436.9
771.152	541.35
771.335	484
771.518	561.83
771.7	502.43
771.883	512.67
772.066	494.24
772.248	543.39
772.431	533.15
772.613	529.06
772.796	500.39
772.978	553.63
773.161	553.63
773.343	422.56
773.526	469.67
773.708	539.3
773.891	518.82
774.073	471.72
774.256	426.66
774.438	469.67
774.621	494.24
774.803	424.61
774.985	416.42
775.168	535.2
775.35	479.91
775.532	383.65
775.715	320.17
775.897	441
776.079	481.96
776.261	479.91
776.444	467.62
776.626	459.43
776.808	455.33
776.99	447.14
777.173	441
777.355	463.52
777.537	438.95
777.719	422.56
777.901	438.95
778.083	475.81
778.265	254.63
778.447	385.7
778.629	422.56
778.811	418.47
778.993	385.7
779.175	430.76
779.357	395.94
779.539	408.23
779.721	352.93
779.903	381.6
780.085	369.32
780.267	461.48
780.449	424.61
780.631	338.6
780.812	330.41
780.994	273.06
781.176	385.7
781.358	303.78
781.54	371.37
781.721	383.65
781.903	393.89
782.085	352.93
782.267	330.41
782.448	352.93
782.63	301.73
782.812	314.02
782.993	336.55
783.175	328.36
783.357	397.99
783.538	361.13
783.72	336.55
783.901	320.17
784.083	336.55
784.264	279.21
784.446	268.97
784.627	303.78
784.809	383.65
784.99	273.06
785.172	303.78
785.353	338.6
785.535	273.06
785.716	285.35
785.897	340.65
786.079	320.17
786.26	250.53
786.441	305.83
786.623	240.3
786.804	359.08
786.985	244.39
787.167	322.21
787.348	287.4
787.529	293.54
787.71	301.73
787.891	266.92
788.073	238.25
788.254	324.26
788.435	266.92
788.616	256.68
788.797	273.06
788.978	246.44
789.159	191.14
789.34	225.96
789.522	299.69
789.703	285.35
789.884	281.25
790.065	230.06
790.246	250.53
790.427	252.58
790.607	240.3
790.788	217.77
790.969	271.01
791.15	242.34
791.331	201.38
791.512	320.17
791.693	137.9
791.874	187.05
792.054	223.91
792.235	250.53
792.416	234.15
792.597	260.77
792.778	309.93
792.958	197.29
793.139	240.3
793.32	203.43
793.5	174.76
793.681	221.86
793.862	281.25
794.042	240.3
794.223	256.68
794.404	236.2
794.584	205.48
794.765	219.82
794.945	258.73
795.126	234.15
795.306	195.24
795.487	174.76
795.667	139.94
795.848	219.82
796.028	160.42
796.209	103.08
796.389	230.06
796.57	195.24
796.75	199.34
796.93	211.62
797.111	162.47
797.291	205.48
797.471	215.72
797.652	238.25
797.832	127.66
798.012	150.18
798.192	264.87
798.373	201.38
798.553	172.71
798.733	174.76
798.913	203.43
799.093	254.63
799.274	98.99
799.454	246.44
799.634	211.62
799.814	209.58
799.994	148.14
800.174	195.24
800.354	109.23
800.534	144.04
800.714	221.86
800.894	191.14
801.074	96.94
801.254	107.18
801.434	217.77
801.614	211.62
801.794	205.48
801.974	342.69
802.154	148.14
802.334	187.05
802.514	158.38
802.693	154.28
802.873	98.99
803.053	223.91
803.233	172.71
803.413	154.28
803.592	178.86
803.772	141.99
803.952	139.94
804.131	109.23
804.311	90.79
804.491	133.8
804.67	211.62
804.85	160.42
805.03	158.38
805.209	121.51
805.389	125.61
805.568	195.24
805.748	115.37
805.928	103.08
806.107	98.99
806.287	123.56
806.466	70.31
806.646	74.41
806.825	172.71
807.004	105.13
807.184	135.85
807.363	174.76
807.543	141.99
807.722	125.61
807.901	195.24
808.081	113.32
808.26	105.13
808.439	162.47
808.619	135.85
808.798	103.08
808.977	115.37
809.156	195.24
809.336	160.42
809.515	101.03
809.694	123.56
809.873	195.24
810.052	101.03
810.231	146.09
810.411	232.1
810.59	121.51
810.769	115.37
810.948	207.53
811.127	0.68
811.306	113.32
811.485	168.62
811.664	168.62
811.843	125.61
812.022	80.55
812.201	121.51
812.38	107.18
812.559	105.13
812.737	160.42
812.916	160.42
813.095	176.81
813.274	148.14
813.453	162.47
813.632	45.74
813.811	109.23
813.989	45.74
814.168	94.89
814.347	111.27
814.526	98.99
814.704	211.62
814.883	96.94
815.062	90.79
815.24	182.95
815.419	94.89
815.598	58.03
815.776	90.79
815.955	119.46
816.133	107.18
816.312	178.86
816.49	64.17
816.669	86.7
816.847	119.46
817.026	115.37
817.204	51.88
817.383	86.7
817.561	133.8
817.74	41.64
817.918	86.7
818.097	60.07
818.275	113.32
818.453	109.23
818.632	111.27
818.81	125.61
818.988	115.37
819.167	49.83
819.345	74.41
819.523	103.08
819.701	129.7
819.879	150.18
820.058	21.16
820.236	141.99
820.414	62.12
820.592	68.27
820.77	152.23
820.948	103.08
821.127	105.13
821.305	160.42
821.483	80.55
821.661	86.7
821.839	92.84
822.017	19.11
822.195	51.88
822.373	90.79
822.551	10.92
822.729	158.38
822.907	62.12
823.085	146.09
823.262	78.51
823.44	92.84
823.618	68.27
823.796	88.75
823.974	58.03
824.152	119.46
824.329	115.37
824.507	127.66
824.685	55.98
824.863	66.22
825.04	129.7
825.218	72.36
825.396	39.59
825.574	58.03
825.751	23.21
825.929	137.9
826.107	45.74
826.284	80.55
826.462	49.83
826.639	31.4
826.817	41.64
826.994	47.79
827.172	166.57
827.349	49.83
827.527	109.23
827.704	41.64
827.882	86.7
828.059	135.85
828.237	137.9
828.414	66.22
828.591	33.45
828.769	51.88
828.946	101.03
829.124	47.79
829.301	25.26
829.478	35.5
829.655	111.27
829.833	86.7
830.01	121.51
830.187	103.08
830.364	74.41
830.542	121.51
830.719	72.36
830.896	33.45
831.073	119.46
831.25	78.51
831.427	76.46
831.604	55.98
831.782	82.6
831.959	86.7
832.136	146.09
832.313	92.84
832.49	-5.46
832.667	150.18
832.844	60.07
833.021	131.75
833.198	25.26
833.374	82.6
833.551	62.12
833.728	80.55
833.905	82.6
834.082	-9.56
834.259	66.22
834.436	137.9
834.612	-5.46
834.789	109.23
834.966	72.36
835.143	33.45
835.319	19.11
835.496	35.5
835.673	27.31
835.85	70.31
836.026	90.79
836.203	43.69
836.38	133.8
836.556	86.7
836.733	103.08
836.909	141.99
837.086	64.17
837.262	98.99
837.439	33.45
837.616	60.07
837.792	23.21
837.968	68.27
838.145	45.74
838.321	107.18
838.498	31.4
838.674	37.55
838.851	55.98
839.027	4.78
839.203	23.21
839.38	39.59
839.556	23.21
839.732	39.59
839.909	-1.37
840.085	74.41
840.261	98.99
840.437	49.83
840.614	86.7
840.79	33.45
840.966	60.07
841.142	17.07
841.318	68.27
841.494	78.51
841.671	41.64
841.847	31.4
842.023	45.74
842.199	76.46
842.375	29.35
842.551	51.88
842.727	-17.75
842.903	53.93
843.079	-3.41
843.255	8.87
843.431	-7.51
843.607	125.61
843.783	41.64
843.959	41.64
844.134	21.16
844.31	72.36
844.486	47.79
844.662	62.12
844.838	-5.46
845.013	39.59
845.189	31.4
845.365	4.78
845.541	66.22
845.716	43.69
845.892	0.68
846.068	25.26
846.244	31.4
846.419	92.84
846.595	8.87
846.77	23.21
846.946	58.03
847.122	10.92
847.297	10.92
847.473	12.97
847.648	72.36
847.824	70.31
847.999	37.55
848.175	43.69
848.35	78.51
848.526	-17.75
848.701	107.18
848.876	70.31
849.052	90.79
849.227	43.69
849.403	55.98
849.578	53.93
849.753	66.22
849.929	84.65
850.104	88.75
850.279	119.46
850.454	10.92
850.63	21.16
850.805	33.45
850.98	101.03
851.155	78.51
851.33	-25.94
851.505	23.21
851.681	80.55
851.856	19.11
852.031	51.88
852.206	66.22
852.381	80.55
852.556	76.46
852.731	19.11
852.906	76.46
853.081	45.74
853.256	103.08
853.431	15.02
853.606	15.02
853.781	51.88
853.956	47.79
854.131	4.78
854.305	-1.37
854.48	15.02
854.655	41.64
854.83	60.07
855.005	35.5
855.18	-15.7
855.354	2.73
855.529	90.79
855.704	21.16
855.879	39.59
856.053	-30.04
856.228	64.17
856.403	78.51
856.577	41.64
856.752	68.27
856.926	62.12
857.101	37.55
857.276	43.69
857.45	4.78
857.625	31.4
857.799	64.17
857.974	-7.51
858.148	10.92
858.323	43.69
858.497	55.98
858.672	55.98
858.846	8.87
859.02	33.45
859.195	62.12
859.369	-9.56
859.543	51.88
859.718	27.31
859.892	12.97
860.066	10.92
860.241	45.74
860.415	60.07
860.589	64.17
860.763	-13.65
860.938	41.64
861.112	58.03
861.286	-5.46
861.46	10.92
861.634	37.55
861.808	29.35
861.982	37.55
862.157	86.7
862.331	27.31
862.505	19.11
862.679	66.22
862.853	47.79
863.027	4.78
863.201	41.64
863.375	2.73
863.549	58.03
863.722	-36.18
863.896	19.11
864.07	64.17
864.244	25.26
864.418	80.55
864.592	31.4
864.766	37.55
864.939	2.73
865.113	39.59
865.287	51.88
865.461	6.83
865.634	39.59
865.808	41.64
865.982	15.02
866.156	55.98
866.329	51.88
866.503	35.5
866.676	131.75
866.85	43.69
867.024	-5.46
867.197	-68.95
867.371	47.79
867.544	27.31
867.718	-5.46
867.891	51.88
868.065	58.03
868.238	37.55
868.412	39.59
868.585	4.78
868.759	45.74
868.932	2.73
869.105	-23.89
869.279	-68.95
869.452	51.88
869.625	15.02
869.799	68.27
869.972	35.5
870.145	49.83
870.319	41.64
870.492	19.11
870.665	64.17
870.838	35.5
871.011	-11.61
871.185	49.83
871.358	60.07
871.531	21.16
871.704	98.99
871.877	76.46
872.05	-17.75
872.223	76.46
872.396	55.98
872.569	15.02
872.742	51.88
872.915	15.02
873.088	113.32
873.261	39.59
873.434	25.26
873.607	-3.41
873.78	68.27
873.953	47.79
874.126	8.87
874.299	33.45
874.471	35.5
874.644	37.55
874.817	55.98
874.99	49.83
875.163	129.7
875.335	66.22
875.508	17.07
875.681	10.92
875.853	-5.46
876.026	12.97
876.199	39.59
876.371	58.03
876.544	8.87
876.717	39.59
876.889	39.59
877.062	33.45
877.234	-34.13
877.407	4.78
877.579	37.55
877.752	49.83
877.924	64.17
878.097	49.83
878.269	33.45
878.442	66.22
878.614	37.55
878.786	8.87
878.959	-30.04
879.131	43.69
879.303	49.83
879.476	29.35
879.648	55.98
879.82	43.69
879.993	-32.08
880.165	58.03
880.337	45.74
880.509	10.92
880.681	-5.46
880.854	55.98
881.026	88.75
881.198	68.27
881.37	55.98
881.542	35.5
881.714	74.41
881.886	129.7
882.058	27.31
882.23	103.08
882.402	113.32
882.574	27.31
882.746	68.27
882.918	47.79
883.09	37.55
883.262	8.87
883.434	80.55
883.606	39.59
883.778	37.55
883.95	76.46
884.122	-19.8
884.293	37.55
884.465	-38.23
884.637	90.79
884.809	2.73
884.98	21.16
885.152	105.13
885.324	4.78
885.496	-25.94
885.667	-13.65
885.839	17.07
886.011	31.4
886.182	49.83
886.354	84.65
886.525	15.02
886.697	74.41
886.869	17.07
887.04	12.97
887.212	19.11
887.383	-15.7
887.555	8.87
887.726	31.4
887.897	27.31
888.069	-25.94
888.24	-5.46
888.412	94.89
888.583	-15.7
888.754	47.79
888.926	-13.65
889.097	17.07
889.268	17.07
889.44	90.79
889.611	29.35
889.782	92.84
889.953	-3.41
890.125	8.87
890.296	29.35
890.467	-13.65
890.638	41.64
890.809	55.98
890.98	45.74
891.151	39.59
891.323	29.35
891.494	74.41
891.665	-42.32
891.836	-5.46
892.007	37.55
892.178	23.21
892.349	0.68
892.52	47.79
892.691	39.59
892.862	47.79
893.032	23.21
893.203	70.31
893.374	37.55
893.545	-15.7
893.716	0.68
893.887	4.78
894.057	-21.85
894.228	43.69
894.399	-5.46
894.57	53.93
894.74	27.31
894.911	8.87
895.082	53.93
895.253	-62.8
895.423	53.93
895.594	39.59
895.764	4.78
895.935	-19.8
896.106	15.02
896.276	8.87
896.447	45.74
896.617	21.16
896.788	37.55
896.958	160.42
897.129	21.16
897.299	-1.37
897.47	68.27
897.64	92.84
897.81	47.79
897.981	92.84
898.151	21.16
898.322	117.42
898.492	27.31
898.662	39.59
898.832	62.12
899.003	80.55
899.173	-3.41
899.343	37.55
899.513	43.69
