Data from USB4F104151__145__13-58-16-855.txt Node

Date: Thu Mar 13 13:58:16 EDT 2025
User: louis
Spectrometer: USB4F10415
Trigger mode: 4
Integration Time (sec): 1.000000E-2
Scans to average: 1
Electric dark correction enabled: true
Nonlinearity correction enabled: false
Boxcar width: 0
XAxis mode: Wavelengths
Number of Pixels in Spectrum: 3648
>>>>>Begin Spectral Data<<<<<
178.204	-93.18
178.424	-93.18
178.644	-93.18
178.864	-95.23
179.084	-29.7
179.304	3.07
179.524	17.41
179.744	41.98
179.964	5.12
180.184	35.84
180.404	9.22
180.624	17.41
180.844	-37.89
181.064	-68.61
181.283	11.26
181.503	-33.79
181.723	-1.02
181.943	25.6
182.163	11.26
182.383	-5.12
182.602	52.22
182.822	23.55
183.042	-7.17
183.262	-41.98
183.482	-17.41
183.701	-21.5
183.921	-72.7
184.141	-39.94
184.361	48.13
184.58	-37.89
184.8	-1.02
185.02	-33.79
185.239	-7.17
185.459	-7.17
185.679	-41.98
185.898	-15.36
186.118	-39.94
186.338	-9.22
186.557	-41.98
186.777	23.55
186.997	-11.26
187.216	-37.89
187.436	-23.55
187.655	19.46
187.875	-17.41
188.095	-11.26
188.314	21.5
188.534	-21.5
188.753	48.13
188.973	54.27
189.192	21.5
189.412	-76.8
189.631	-46.08
189.851	35.84
190.07	-15.36
190.29	19.46
190.509	-3.07
190.729	21.5
190.948	7.17
191.168	93.18
191.387	37.89
191.607	21.5
191.826	44.03
192.045	48.13
192.265	17.41
192.484	60.42
192.704	-68.61
192.923	-58.37
193.142	-15.36
193.362	21.5
193.581	41.98
193.8	-5.12
194.02	31.74
194.239	-7.17
194.458	-17.41
194.678	-29.7
194.897	-13.31
195.116	-31.74
195.335	44.03
195.555	9.22
195.774	-3.07
195.993	44.03
196.212	-33.79
196.432	3.07
196.651	27.65
196.87	-115.71
197.089	48.13
197.308	-21.5
197.528	-39.94
197.747	-46.08
197.966	-23.55
198.185	21.5
198.404	52.22
198.623	48.13
198.842	-15.36
199.062	-37.89
199.281	31.74
199.5	-74.75
199.719	-9.22
199.938	13.31
200.157	58.37
200.376	1.02
200.595	-23.55
200.814	-17.41
201.033	3.07
201.252	84.99
201.471	-13.31
201.69	-17.41
201.909	52.22
202.128	11.26
202.347	27.65
202.566	23.55
202.785	-37.89
203.004	3.07
203.223	25.6
203.442	15.36
203.661	7.17
203.879	23.55
204.098	41.98
204.317	-17.41
204.536	-15.36
204.755	5.12
204.974	23.55
205.193	17.41
205.411	72.7
205.63	33.79
205.849	-54.27
206.068	35.84
206.287	80.89
206.505	7.17
206.724	25.6
206.943	5.12
207.162	-29.7
207.381	-17.41
207.599	-23.55
207.818	-13.31
208.037	13.31
208.255	-66.56
208.474	9.22
208.693	33.79
208.911	27.65
209.13	-35.84
209.349	-31.74
209.567	11.26
209.786	52.22
210.005	35.84
210.223	-33.79
210.442	-72.7
210.661	-3.07
210.879	-1.02
211.098	-25.6
211.316	19.46
211.535	-23.55
211.753	-48.13
211.972	-1.02
212.191	-5.12
212.409	-5.12
212.628	-39.94
212.846	3.07
213.065	-1.02
213.283	21.5
213.502	11.26
213.72	-76.8
213.938	-13.31
214.157	-23.55
214.375	19.46
214.594	-27.65
214.812	-35.84
215.031	-1.02
215.249	11.26
215.467	-1.02
215.686	41.98
215.904	39.94
216.122	-78.85
216.341	-15.36
216.559	25.6
216.778	-9.22
216.996	9.22
217.214	-5.12
217.432	80.89
217.651	9.22
217.869	-37.89
218.087	-3.07
218.306	-5.12
218.524	7.17
218.742	-44.03
218.96	25.6
219.179	-5.12
219.397	39.94
219.615	-17.41
219.833	25.6
220.051	-27.65
220.27	3.07
220.488	-27.65
220.706	-39.94
220.924	-11.26
221.142	-37.89
221.36	27.65
221.578	9.22
221.796	23.55
222.015	9.22
222.233	-39.94
222.451	13.31
222.669	52.22
222.887	-29.7
223.105	3.07
223.323	-3.07
223.541	-25.6
223.759	11.26
223.977	9.22
224.195	-19.46
224.413	-35.84
224.631	101.37
224.849	-13.31
225.067	13.31
225.285	-46.08
225.503	-23.55
225.721	29.7
225.939	-15.36
226.157	-23.55
226.375	25.6
226.592	-39.94
226.81	60.42
227.028	-7.17
227.246	3.07
227.464	39.94
227.682	-19.46
227.9	17.41
228.117	31.74
228.335	31.74
228.553	-13.31
228.771	-1.02
228.989	-31.74
229.206	-1.02
229.424	31.74
229.642	11.26
229.86	44.03
230.077	56.32
230.295	-58.37
230.513	27.65
230.731	5.12
230.948	-39.94
231.166	54.27
231.384	-52.22
231.601	68.61
231.819	-27.65
232.037	15.36
232.254	39.94
232.472	-58.37
232.689	44.03
232.907	-37.89
233.125	15.36
233.342	-41.98
233.56	-19.46
233.777	5.12
233.995	-11.26
234.213	-23.55
234.43	23.55
234.648	-54.27
234.865	-25.6
235.083	5.12
235.3	-25.6
235.518	-5.12
235.735	80.89
235.953	62.46
236.17	-13.31
236.388	-15.36
236.605	-17.41
236.822	23.55
237.04	25.6
237.257	-78.85
237.475	7.17
237.692	29.7
237.909	15.36
238.127	-3.07
238.344	23.55
238.562	33.79
238.779	23.55
238.996	-66.56
239.214	-5.12
239.431	27.65
239.648	68.61
239.865	7.17
240.083	-25.6
240.3	62.46
240.517	-3.07
240.735	19.46
240.952	109.57
241.169	-1.02
241.386	-3.07
241.603	62.46
241.821	-54.27
242.038	13.31
242.255	25.6
242.472	33.79
242.689	48.13
242.907	35.84
243.124	-13.31
243.341	-5.12
243.558	78.85
243.775	-23.55
243.992	19.46
244.209	7.17
244.426	58.37
244.643	23.55
244.86	-29.7
245.078	-13.31
245.295	-7.17
245.512	29.7
245.729	-31.74
245.946	7.17
246.163	3.07
246.38	-60.42
246.597	-17.41
246.814	-1.02
247.031	-7.17
247.248	15.36
247.464	-27.65
247.681	-7.17
247.898	9.22
248.115	17.41
248.332	-17.41
248.549	37.89
248.766	3.07
248.983	-27.65
249.2	-41.98
249.417	-7.17
249.633	13.31
249.85	-23.55
250.067	-21.5
250.284	3.07
250.501	13.31
250.717	-41.98
250.934	-21.5
251.151	11.26
251.368	23.55
251.585	-41.98
251.801	117.76
252.018	-7.17
252.235	25.6
252.451	52.22
252.668	3.07
252.885	17.41
253.102	68.61
253.318	9.22
253.535	-35.84
253.752	27.65
253.968	-13.31
254.185	15.36
254.401	48.13
254.618	17.41
254.835	-23.55
255.051	56.32
255.268	33.79
255.484	11.26
255.701	-33.79
255.917	3.07
256.134	21.5
256.351	5.12
256.567	-9.22
256.784	60.42
257	-64.51
257.217	17.41
257.433	25.6
257.65	62.46
257.866	48.13
258.082	7.17
258.299	-46.08
258.515	3.07
258.732	15.36
258.948	-17.41
259.165	-31.74
259.381	-9.22
259.597	31.74
259.814	50.18
260.03	-1.02
260.246	25.6
260.463	-17.41
260.679	46.08
260.895	37.89
261.112	-1.02
261.328	-37.89
261.544	-50.18
261.761	46.08
261.977	-39.94
262.193	-13.31
262.409	-17.41
262.626	-58.37
262.842	13.31
263.058	-25.6
263.274	50.18
263.49	-62.46
263.707	-1.02
263.923	5.12
264.139	-17.41
264.355	7.17
264.571	48.13
264.787	39.94
265.004	56.32
265.22	35.84
265.436	54.27
265.652	-9.22
265.868	-11.26
266.084	-44.03
266.3	37.89
266.516	-37.89
266.732	-17.41
266.948	15.36
267.164	23.55
267.38	23.55
267.596	-56.32
267.812	35.84
268.028	39.94
268.244	39.94
268.46	-21.5
268.676	1.02
268.892	37.89
269.108	44.03
269.324	31.74
269.54	-23.55
269.756	31.74
269.972	99.33
270.188	-13.31
270.403	3.07
270.619	-9.22
270.835	-44.03
271.051	-3.07
271.267	-33.79
271.483	84.99
271.698	-7.17
271.914	-9.22
272.13	-62.46
272.346	-64.51
272.562	21.5
272.777	-1.02
272.993	-35.84
273.209	-52.22
273.425	68.61
273.64	25.6
273.856	3.07
274.072	70.65
274.287	-19.46
274.503	7.17
274.719	-44.03
274.934	19.46
275.15	-5.12
275.366	56.32
275.581	-13.31
275.797	89.09
276.012	17.41
276.228	15.36
276.444	95.23
276.659	44.03
276.875	-62.46
277.09	-15.36
277.306	5.12
277.521	23.55
277.737	25.6
277.952	60.42
278.168	37.89
278.383	25.6
278.599	-13.31
278.814	-9.22
279.03	-3.07
279.245	58.37
279.461	50.18
279.676	-17.41
279.892	-9.22
280.107	41.98
280.322	-78.85
280.538	-27.65
280.753	5.12
280.969	9.22
281.184	-33.79
281.399	35.84
281.615	64.51
281.83	84.99
282.045	56.32
282.26	-7.17
282.476	37.89
282.691	7.17
282.906	-7.17
283.122	50.18
283.337	-56.32
283.552	-56.32
283.767	11.26
283.983	44.03
284.198	-17.41
284.413	37.89
284.628	-7.17
284.843	-17.41
285.058	39.94
285.274	52.22
285.489	-1.02
285.704	37.89
285.919	-39.94
286.134	27.65
286.349	7.17
286.564	5.12
286.779	-1.02
286.995	7.17
287.21	-15.36
287.425	-21.5
287.64	15.36
287.855	-15.36
288.07	29.7
288.285	21.5
288.5	7.17
288.715	-3.07
288.93	-19.46
289.145	-50.18
289.36	-52.22
289.575	46.08
289.79	-17.41
290.004	13.31
290.219	93.18
290.434	-7.17
290.649	-82.94
290.864	-21.5
291.079	-44.03
291.294	-9.22
291.509	37.89
291.724	76.8
291.938	64.51
292.153	33.79
292.368	21.5
292.583	-11.26
292.798	-15.36
293.012	-1.02
293.227	-21.5
293.442	48.13
293.657	19.46
293.871	39.94
294.086	21.5
294.301	23.55
294.516	21.5
294.73	50.18
294.945	23.55
295.16	-70.65
295.374	1.02
295.589	68.61
295.804	-13.31
296.018	25.6
296.233	41.98
296.447	-25.6
296.662	66.56
296.877	41.98
297.091	-17.41
297.306	11.26
297.52	35.84
297.735	-68.61
297.949	11.26
298.164	35.84
298.378	-13.31
298.593	23.55
298.807	93.18
299.022	15.36
299.236	-44.03
299.451	66.56
299.665	-64.51
299.88	-25.6
300.094	76.8
300.309	21.5
300.523	60.42
300.737	29.7
300.952	-27.65
301.166	-7.17
301.381	5.12
301.595	-9.22
301.809	-48.13
302.024	1.02
302.238	-7.17
302.452	-13.31
302.667	3.07
302.881	5.12
303.095	23.55
303.309	25.6
303.524	3.07
303.738	7.17
303.952	-1.02
304.166	9.22
304.381	9.22
304.595	-31.74
304.809	1.02
305.023	-82.94
305.237	-13.31
305.452	1.02
305.666	33.79
305.88	7.17
306.094	-1.02
306.308	11.26
306.522	-15.36
306.736	7.17
306.95	-5.12
307.164	-1.02
307.379	17.41
307.593	54.27
307.807	7.17
308.021	3.07
308.235	9.22
308.449	19.46
308.663	3.07
308.877	56.32
309.091	-5.12
309.305	37.89
309.519	-3.07
309.733	-50.18
309.947	1.02
310.161	23.55
310.374	-72.7
310.588	-9.22
310.802	-5.12
311.016	5.12
311.23	52.22
311.444	31.74
311.658	-25.6
311.872	31.74
312.085	13.31
312.299	-68.61
312.513	25.6
312.727	64.51
312.941	-27.65
313.154	23.55
313.368	-17.41
313.582	68.61
313.796	-62.46
314.009	-46.08
314.223	-13.31
314.437	31.74
314.651	27.65
314.864	-66.56
315.078	-31.74
315.292	-17.41
315.505	1.02
315.719	72.7
315.933	-39.94
316.146	23.55
316.36	-13.31
316.573	23.55
316.787	-23.55
317.001	19.46
317.214	-76.8
317.428	50.18
317.641	-35.84
317.855	74.75
318.068	-23.55
318.282	23.55
318.495	27.65
318.709	-23.55
318.922	-13.31
319.136	33.79
319.349	27.65
319.563	1.02
319.776	-58.37
319.99	-66.56
320.203	-66.56
320.417	-7.17
320.63	-25.6
320.843	56.32
321.057	39.94
321.27	60.42
321.483	-3.07
321.697	7.17
321.91	7.17
322.124	7.17
322.337	-21.5
322.55	-17.41
322.763	9.22
322.977	-7.17
323.19	-27.65
323.403	33.79
323.617	19.46
323.83	74.75
324.043	9.22
324.256	74.75
324.469	-9.22
324.683	39.94
324.896	41.98
325.109	-5.12
325.322	11.26
325.535	-23.55
325.748	44.03
325.962	19.46
326.175	-54.27
326.388	-27.65
326.601	-7.17
326.814	35.84
327.027	-56.32
327.24	44.03
327.453	-31.74
327.666	31.74
327.879	1.02
328.092	48.13
328.305	5.12
328.518	41.98
328.731	54.27
328.944	-72.7
329.157	-31.74
329.37	-17.41
329.583	-58.37
329.796	-5.12
330.009	3.07
330.222	27.65
330.435	-27.65
330.648	-9.22
330.861	19.46
331.073	37.89
331.286	15.36
331.499	-5.12
331.712	44.03
331.925	-70.65
332.138	-54.27
332.35	107.52
332.563	-33.79
332.776	1.02
332.989	-23.55
333.202	-3.07
333.414	9.22
333.627	35.84
333.84	48.13
334.053	-5.12
334.265	74.75
334.478	58.37
334.691	15.36
334.903	74.75
335.116	-44.03
335.329	31.74
335.541	23.55
335.754	-15.36
335.966	-41.98
336.179	23.55
336.392	-33.79
336.604	9.22
336.817	-19.46
337.029	48.13
337.242	-78.85
337.454	-50.18
337.667	27.65
337.88	11.26
338.092	-64.51
338.305	29.7
338.517	5.12
338.729	-3.07
338.942	-21.5
339.154	60.42
339.367	121.85
339.579	58.37
339.792	-11.26
340.004	-31.74
340.217	-39.94
340.429	35.84
340.641	-17.41
340.854	17.41
341.066	-41.98
341.278	3.07
341.491	56.32
341.703	37.89
341.915	15.36
342.128	5.12
342.34	-13.31
342.552	39.94
342.764	66.56
342.977	72.7
343.189	27.65
343.401	91.13
343.613	-31.74
343.826	41.98
344.038	3.07
344.25	68.61
344.462	23.55
344.674	91.13
344.886	19.46
345.099	72.7
345.311	-41.98
345.523	-23.55
345.735	29.7
345.947	37.89
346.159	-3.07
346.371	-27.65
346.583	-9.22
346.795	-52.22
347.007	1.02
347.219	-19.46
347.431	1.02
347.643	-11.26
347.855	17.41
348.067	50.18
348.279	13.31
348.491	29.7
348.703	9.22
348.915	-11.26
349.127	19.46
349.339	27.65
349.551	37.89
349.763	-5.12
349.975	-25.6
350.187	37.89
350.399	-27.65
350.61	56.32
350.822	-13.31
351.034	41.98
351.246	-27.65
351.458	-80.89
351.669	-11.26
351.881	68.61
352.093	-7.17
352.305	27.65
352.517	64.51
352.728	37.89
352.94	35.84
353.152	54.27
353.363	7.17
353.575	50.18
353.787	-25.6
353.999	82.94
354.21	17.41
354.422	64.51
354.633	-31.74
354.845	-1.02
355.057	13.31
355.268	5.12
355.48	39.94
355.692	-72.7
355.903	5.12
356.115	56.32
356.326	-11.26
356.538	78.85
356.749	-44.03
356.961	74.75
357.172	29.7
357.384	7.17
357.595	25.6
357.807	-54.27
358.018	-41.98
358.23	66.56
358.441	15.36
358.653	-5.12
358.864	7.17
359.075	11.26
359.287	27.65
359.498	17.41
359.709	3.07
359.921	39.94
360.132	9.22
360.344	23.55
360.555	-3.07
360.766	-1.02
360.977	-23.55
361.189	29.7
361.4	48.13
361.611	48.13
361.823	62.46
362.034	74.75
362.245	9.22
362.456	29.7
362.667	31.74
362.879	37.89
363.09	70.65
363.301	48.13
363.512	19.46
363.723	11.26
363.935	23.55
364.146	7.17
364.357	-3.07
364.568	-56.32
364.779	-23.55
364.99	33.79
365.201	3.07
365.412	66.56
365.623	-13.31
365.834	64.51
366.045	-5.12
366.256	9.22
366.467	-7.17
366.678	70.65
366.889	-13.31
367.1	72.7
367.311	-13.31
367.522	37.89
367.733	-58.37
367.944	31.74
368.155	41.98
368.366	41.98
368.577	-25.6
368.788	-23.55
368.999	13.31
369.209	99.33
369.42	25.6
369.631	-52.22
369.842	-64.51
370.053	-7.17
370.264	33.79
370.474	7.17
370.685	13.31
370.896	11.26
371.107	29.7
371.317	33.79
371.528	46.08
371.739	9.22
371.95	3.07
372.16	-17.41
372.371	-89.09
372.582	19.46
372.792	1.02
373.003	15.36
373.214	-11.26
373.424	39.94
373.635	-19.46
373.846	107.52
374.056	3.07
374.267	-29.7
374.477	21.5
374.688	-37.89
374.898	7.17
375.109	29.7
375.319	52.22
375.53	27.65
375.74	76.8
375.951	27.65
376.161	23.55
376.372	-15.36
376.582	50.18
376.793	-15.36
377.003	58.37
377.214	56.32
377.424	-25.6
377.635	9.22
377.845	35.84
378.055	29.7
378.266	1.02
378.476	27.65
378.686	13.31
378.897	44.03
379.107	-1.02
379.317	130.05
379.528	-1.02
379.738	-29.7
379.948	25.6
380.158	-37.89
380.369	19.46
380.579	72.7
380.789	56.32
380.999	39.94
381.21	11.26
381.42	107.52
381.63	-84.99
381.84	5.12
382.05	-41.98
382.261	31.74
382.471	11.26
382.681	21.5
382.891	35.84
383.101	-17.41
383.311	-84.99
383.521	29.7
383.731	19.46
383.941	27.65
384.151	25.6
384.361	41.98
384.571	48.13
384.781	3.07
384.991	44.03
385.201	-3.07
385.411	52.22
385.621	72.7
385.831	27.65
386.041	-5.12
386.251	27.65
386.461	23.55
386.671	-17.41
386.881	-41.98
387.091	15.36
387.301	25.6
387.511	37.89
387.72	64.51
387.93	66.56
388.14	-9.22
388.35	-13.31
388.56	23.55
388.769	5.12
388.979	48.13
389.189	15.36
389.399	25.6
389.609	1.02
389.818	29.7
390.028	27.65
390.238	15.36
390.447	7.17
390.657	70.65
390.867	25.6
391.076	89.09
391.286	15.36
391.496	39.94
391.705	82.94
391.915	-7.17
392.125	48.13
392.334	56.32
392.544	7.17
392.753	3.07
392.963	46.08
393.172	46.08
393.382	13.31
393.591	82.94
393.801	91.13
394.01	93.18
394.22	52.22
394.429	-58.37
394.639	29.7
394.848	91.13
395.058	5.12
395.267	9.22
395.477	9.22
395.686	56.32
395.895	97.28
396.105	72.7
396.314	46.08
396.524	21.5
396.733	27.65
396.942	70.65
397.152	-5.12
397.361	58.37
397.57	23.55
397.78	33.79
397.989	44.03
398.198	113.66
398.407	29.7
398.617	7.17
398.826	7.17
399.035	105.47
399.244	99.33
399.453	29.7
399.663	66.56
399.872	41.98
400.081	27.65
400.29	15.36
400.499	27.65
400.708	121.85
400.917	-13.31
401.127	23.55
401.336	19.46
401.545	144.38
401.754	107.52
401.963	74.75
402.172	76.8
402.381	50.18
402.59	101.37
402.799	91.13
403.008	140.29
403.217	7.17
403.426	80.89
403.635	35.84
403.844	-3.07
404.053	41.98
404.262	99.33
404.471	44.03
404.68	130.05
404.888	113.66
405.097	76.8
405.306	11.26
405.515	82.94
405.724	39.94
405.933	113.66
406.142	29.7
406.35	115.71
406.559	113.66
406.768	39.94
406.977	121.85
407.185	138.24
407.394	166.91
407.603	101.37
407.812	50.18
408.02	123.9
408.229	70.65
408.438	84.99
408.646	121.85
408.855	117.76
409.064	136.19
409.272	87.04
409.481	130.05
409.69	138.24
409.898	166.91
410.107	107.52
410.315	144.38
410.524	211.96
410.733	123.9
410.941	142.33
411.15	207.87
411.358	222.2
411.567	189.44
411.775	160.77
411.984	150.53
412.192	195.58
412.401	216.06
412.609	136.19
412.818	193.53
413.026	218.11
413.234	216.06
413.443	189.44
413.651	269.31
413.86	365.56
414.068	314.36
414.276	244.73
414.485	250.88
414.693	289.79
414.901	279.55
415.11	367.61
415.318	297.98
415.526	361.47
415.734	295.93
415.943	261.12
416.151	398.33
416.359	343.03
416.567	441.34
416.776	377.85
416.984	400.38
417.192	418.81
417.4	424.95
417.608	424.95
417.817	396.28
418.025	478.2
418.233	535.54
418.441	525.3
418.649	435.19
418.857	537.59
419.065	574.46
419.273	556.02
419.481	558.07
419.689	633.85
419.897	654.33
420.105	558.07
420.313	660.47
420.521	723.96
420.729	650.23
420.937	637.94
421.145	723.96
421.353	807.92
421.561	809.97
421.769	840.69
421.977	885.75
422.185	809.97
422.393	846.84
422.601	865.27
422.809	957.43
423.017	898.03
423.224	924.66
423.432	1031.15
423.64	971.76
423.848	1127.41
424.056	1006.58
424.263	1225.71
424.471	1129.45
424.679	1209.33
424.887	1407.98
425.094	1256.43
425.302	1326.06
425.51	1342.44
425.718	1453.03
425.925	1450.99
426.133	1598.44
426.341	1414.12
426.548	1690.6
426.756	1686.5
426.964	1721.32
427.171	1819.62
427.379	1801.19
427.586	1864.68
427.794	1844.2
428.001	2005.99
428.209	2018.27
428.417	2003.94
428.624	2182.11
428.832	2233.31
429.039	2169.82
429.247	2286.56
429.454	2491.35
429.662	2524.12
429.869	2479.07
430.076	2587.61
430.284	2403.29
430.491	2622.42
430.699	2745.3
430.906	2702.29
431.114	2708.44
431.321	2903
431.528	2886.61
431.736	3144.66
431.943	3216.33
432.15	3222.48
432.358	3247.05
432.565	3290.06
432.772	3314.64
432.979	3576.78
433.187	3546.06
433.394	3564.49
433.601	3800.01
433.808	3920.84
434.016	3826.63
434.223	4144.06
434.43	4176.83
434.637	4250.56
434.844	4420.54
435.052	4547.51
435.259	4412.35
435.466	4365.25
435.673	4506.56
435.88	4656.06
436.087	5041.08
436.294	4989.88
436.501	5000.12
436.708	5069.75
436.915	5174.19
437.122	5368.75
437.329	5407.66
437.537	5520.3
437.743	5647.27
437.95	5747.62
438.157	5786.54
438.364	6228.9
438.571	6177.7
438.778	6116.26
438.985	6626.2
439.192	6341.54
439.399	6572.96
439.606	6583.2
439.813	6859.67
440.02	7203.73
440.227	7162.77
440.433	7054.23
440.64	7113.62
440.847	7357.33
441.054	7414.67
441.261	7844.74
441.467	7848.84
441.674	8027.01
441.881	8446.85
442.088	8133.51
442.294	8252.29
442.501	8489.85
442.708	8555.39
442.914	8594.3
443.121	9085.81
443.328	9010.04
443.534	9583.47
443.741	9239.41
443.948	9433.97
444.154	9775.98
444.361	9870.19
444.568	9859.95
444.774	9962.34
444.981	10050.41
445.187	10173.28
445.394	10640.22
445.6	10693.47
445.807	11748.17
446.013	11379.54
446.22	11273.04
446.426	11828.04
446.633	11995.98
446.839	12147.53
447.046	11686.73
447.252	12305.22
447.459	12372.8
447.665	12428.1
447.871	13191.99
448.078	13388.6
448.284	12966.71
448.491	13175.61
448.697	13673.26
448.903	13896.49
449.11	14082.86
449.316	13699.89
449.522	14041.9
449.728	14349.09
449.935	14465.83
450.141	14545.7
450.347	14830.37
450.553	14345
450.76	14539.55
450.966	15082.27
451.172	14840.61
451.378	15381.27
451.584	14951.2
451.791	15227.67
451.997	15192.86
452.203	15436.56
452.409	15395.61
452.615	15477.52
452.821	14949.15
453.027	14709.54
453.233	15510.29
453.44	14766.88
453.646	14809.89
453.852	15455
454.058	15452.95
454.264	14742.3
454.47	15203.1
454.676	14680.86
454.882	15424.28
455.088	14048.04
455.294	14164.78
455.5	14443.3
455.705	14353.19
455.911	14037.8
456.117	13761.33
456.323	13568.82
456.529	12729.15
456.735	13538.1
456.941	13122.36
457.147	13009.72
457.352	12538.69
457.558	12368.71
457.764	12319.56
457.97	12108.62
458.176	11834.19
458.381	11936.59
458.587	11375.44
458.793	11260.76
458.999	10740.57
459.204	11391.83
459.41	11176.79
459.616	10480.48
459.821	10357.6
460.027	10451.81
460.233	10236.77
460.438	9550.7
460.644	9851.75
460.85	9306.99
461.055	9134.96
461.261	9073.53
461.466	8440.7
461.672	8385.41
461.878	8905.59
462.083	8153.99
462.289	8043.4
462.494	8096.64
462.7	7660.43
462.905	7424.91
463.111	7635.85
463.316	7695.24
463.522	7553.93
463.727	7578.51
463.932	7635.85
464.138	7515.02
464.343	7613.32
464.549	7291.79
464.754	7701.39
464.959	7429.01
465.165	7467.92
465.37	7224.21
465.575	6986.65
465.781	7373.71
465.986	7232.4
466.191	7150.48
466.397	6837.14
466.602	6546.33
466.807	6742.94
467.012	6906.77
467.218	6740.89
467.423	6652.83
467.628	6611.87
467.833	7136.15
468.038	6857.62
468.244	6603.68
468.449	6781.85
468.654	6595.48
468.859	6513.56
469.064	6638.49
469.269	6319.01
469.474	6316.96
469.679	6448.03
469.885	6108.07
470.09	6368.16
470.295	6282.14
470.5	6120.35
470.705	6271.9
470.91	5958.57
471.115	6087.59
471.32	5946.28
471.525	6185.89
471.73	5741.48
471.935	5858.21
472.139	5634.99
472.344	5739.43
472.549	5653.42
472.754	5637.03
472.959	5417.9
473.164	5360.56
473.369	5391.28
473.574	5637.03
473.778	5419.95
473.983	5364.65
474.188	5292.98
474.393	5174.19
474.598	5024.69
474.802	5125.04
475.007	5235.63
475.212	4955.06
475.417	4932.53
475.621	4905.91
475.826	4879.29
476.031	4848.57
476.235	4727.74
476.44	4819.89
476.645	4721.59
476.849	4756.41
477.054	4826.04
477.259	4647.87
477.463	4613.05
477.668	4539.32
477.872	4506.56
478.077	4316.09
478.282	4389.82
478.486	4477.88
478.691	4494.27
478.895	4236.22
479.1	4162.5
479.304	4293.57
479.509	4174.78
479.713	4086.72
479.918	4148.16
480.122	3955.65
480.326	4101.06
480.531	4094.91
480.735	4187.07
480.94	4049.86
481.144	4139.97
481.348	4010.95
481.553	4019.14
481.757	3957.7
481.961	3974.08
482.166	4146.11
482.37	4041.67
482.574	3890.12
482.778	3994.56
482.983	4101.06
483.187	4217.79
483.391	3984.32
483.595	3926.98
483.8	3910.6
484.004	4000.71
484.208	4101.06
484.412	4025.28
484.616	4072.39
484.821	3980.23
485.025	3937.22
485.229	3935.17
485.433	3996.61
485.637	3773.38
485.841	4062.15
486.045	3875.78
486.249	3988.42
486.453	3886.02
486.657	4006.85
486.861	4056
487.065	3918.79
487.269	3972.04
487.473	3910.6
487.677	4103.11
487.881	4021.19
488.085	3953.6
488.289	3779.53
488.493	4006.85
488.697	3978.18
488.901	3908.55
489.105	4006.85
489.309	3908.55
489.512	3957.7
489.716	3947.46
489.92	4004.8
490.124	4045.76
490.328	4103.11
490.531	4152.26
490.735	3986.37
490.939	3980.23
491.143	4088.77
491.346	4111.3
491.55	4135.87
491.754	4094.91
491.958	4264.89
492.161	4045.76
492.365	4150.21
492.569	4281.28
492.772	4301.76
492.976	4242.37
493.18	4248.51
493.383	4316.09
493.587	4301.76
493.79	4404.16
493.994	4365.25
494.197	4496.32
494.401	4395.96
494.605	4469.69
494.808	4443.07
495.012	4613.05
495.215	4465.6
495.419	4623.29
495.622	4477.88
495.825	4582.33
496.029	4694.97
496.232	4885.43
496.436	4826.04
496.639	4963.25
496.843	4852.66
497.046	4809.65
497.249	5055.41
497.453	5036.98
497.656	5137.33
497.859	5104.56
498.063	5198.77
498.266	5241.78
498.469	5270.45
498.673	5274.54
498.876	5317.55
499.079	5532.59
499.282	5460.91
499.485	5553.07
499.689	5725.1
499.892	5677.99
500.095	5741.48
500.298	5774.25
500.501	5858.21
500.705	6011.81
500.908	6112.16
501.111	6243.23
501.314	6151.07
501.517	6263.71
501.72	6394.78
501.923	6400.93
502.126	6503.32
502.329	6679.45
502.532	6732.7
502.735	6697.88
502.938	7093.14
503.141	6974.36
503.344	7084.95
503.547	7031.7
503.75	7111.57
503.953	7304.08
504.156	7357.33
504.359	7496.59
504.562	7502.73
504.765	7707.53
504.968	7631.76
505.17	7771.02
505.373	7754.63
505.576	8024.97
505.779	8235.91
505.982	8250.24
506.185	8373.12
506.387	8426.37
506.59	8424.32
506.793	8629.12
506.996	8686.46
507.198	8846.2
507.401	8905.59
507.604	9042.81
507.807	9319.28
508.009	9352.05
508.212	9378.67
508.415	9755.5
508.617	9577.33
508.82	9603.95
509.022	9739.12
509.225	9945.96
509.428	9993.06
509.63	10255.2
509.833	10240.87
510.035	10646.37
510.238	10509.15
510.44	10740.57
510.643	10656.61
510.845	10961.75
511.048	11125.59
511.25	11070.3
511.453	11248.47
511.655	11662.16
511.858	11537.23
512.06	11594.58
512.262	11793.23
512.465	11809.61
512.667	12340.04
512.87	12323.65
513.072	12151.62
513.274	12405.57
513.477	12659.52
513.679	13050.68
513.881	13108.02
514.084	13183.8
514.286	13042.49
514.488	13300.53
514.69	13671.22
514.893	13916.97
515.095	14170.92
515.297	14099.24
515.499	14152.49
515.701	14322.47
515.904	14678.82
516.106	14607.14
516.308	14838.56
516.51	15029.02
516.712	15155.99
516.914	15405.84
517.116	15727.38
517.318	15596.31
517.52	15934.22
517.722	15620.88
517.925	16210.7
518.127	16446.21
518.329	16614.15
518.531	16528.13
518.733	16988.92
518.935	17167.1
519.136	17040.12
519.338	17511.16
519.54	17476.34
519.742	17654.51
519.944	17861.36
520.146	18305.77
520.348	17988.33
520.55	18461.41
520.752	18805.47
520.954	18983.65
521.155	18756.32
521.357	19333.85
521.559	19229.4
521.761	19522.26
521.963	19550.93
522.164	19962.58
522.366	19729.11
522.568	20026.06
522.77	20077.26
522.971	20679.36
523.173	20323.02
523.375	20736.71
523.576	20814.53
523.778	21111.49
523.98	20927.17
524.181	21424.83
524.383	21637.81
524.584	21818.04
524.786	21789.36
524.988	21646.01
525.189	22270.64
525.391	22198.96
525.592	22264.49
525.794	22223.53
525.995	22270.64
526.197	22796.96
526.398	22540.97
526.6	22743.72
526.801	23052.96
527.003	23173.79
527.204	23304.86
527.406	23462.55
527.607	23282.33
527.808	23618.2
528.01	23210.65
528.211	23550.62
528.412	24017.55
528.614	24054.42
528.815	23894.68
529.016	24001.17
529.218	24205.97
529.419	23974.55
529.62	24171.15
529.822	24025.75
530.023	24371.85
530.224	24210.06
530.425	24281.74
530.626	24142.48
530.828	24046.23
531.029	24963.72
531.23	24431.24
531.431	24726.15
531.632	24834.69
531.833	24629.9
532.035	24908.42
532.236	25152.13
532.437	25115.26
532.638	25004.67
532.839	25100.93
533.04	25318.01
533.241	24967.81
533.442	25401.98
533.643	25094.79
533.844	25248.38
534.045	25352.83
534.246	25016.96
534.447	25277.05
534.648	25137.79
534.849	25139.84
535.05	25430.65
535.251	25475.71
535.451	25420.41
535.652	25307.77
535.853	25342.59
536.054	25590.39
536.255	25479.8
536.456	25262.72
536.657	25762.42
536.857	25766.52
537.058	25551.48
537.259	25674.36
537.46	25754.23
537.66	25741.94
537.861	25551.48
538.062	25295.49
538.263	25508.47
538.463	25399.93
538.664	25449.08
538.865	25664.12
539.065	25541.24
539.266	25463.42
539.466	25823.86
539.667	25315.97
539.868	26034.8
540.068	25655.93
540.269	25565.82
540.469	25725.56
540.67	25590.39
540.87	25793.14
541.071	25696.89
541.271	25795.19
541.472	25832.05
541.672	25510.52
541.873	25608.83
542.073	25522.81
542.274	25760.37
542.474	25602.68
542.675	25475.71
542.875	25967.22
543.075	25561.72
543.276	25229.95
543.476	26126.96
543.676	25438.84
543.877	25524.86
544.077	25574.01
544.277	25483.9
544.478	25678.46
544.678	25621.11
544.878	25735.8
545.078	25868.92
545.279	25959.03
545.479	25442.94
545.679	25924.21
545.879	25508.47
546.079	25619.07
546.28	25649.78
546.48	25557.63
546.68	25967.22
546.88	25619.07
547.08	25674.36
547.28	25512.57
547.48	25537.15
547.68	25721.46
547.88	25490.04
548.081	25512.57
548.281	25913.97
548.481	25739.9
548.681	26006.13
548.881	25797.24
549.081	25686.65
549.28	25498.23
549.48	25346.69
549.68	25444.99
549.88	26215.02
550.08	25565.82
550.28	25408.12
550.48	25823.86
550.68	25825.91
550.88	25578.11
551.08	25289.34
551.279	25582.2
551.479	25303.68
551.679	25666.17
551.879	25336.45
552.079	25692.79
552.278	25391.74
552.478	25780.85
552.678	25672.31
552.878	25545.34
553.077	25320.06
553.277	25158.27
553.477	25444.99
553.676	25510.52
553.876	25277.05
554.076	25481.85
554.275	25086.59
554.475	24994.43
554.674	25111.17
554.874	25340.54
555.074	25604.73
555.273	25440.89
555.473	25258.62
555.672	25252.48
555.872	25090.69
556.071	25483.9
556.271	25539.19
556.47	25285.25
556.67	25117.31
556.869	25008.77
557.068	25207.42
557.268	24949.38
557.467	24853.12
557.667	24904.32
557.866	25131.65
558.065	24785.54
558.265	24691.34
558.464	24959.62
558.663	25070.21
558.863	24607.37
559.062	24904.32
559.261	24396.43
559.461	24838.79
559.66	24349.32
559.859	24666.76
560.058	24312.46
560.258	24482.44
560.457	24296.08
560.656	24877.7
560.855	24672.9
561.054	24478.35
561.253	24277.65
561.453	24378
561.652	24324.75
561.851	24165.01
562.05	24097.42
562.249	24013.46
562.448	24228.49
562.647	24230.54
562.846	24148.62
563.045	24183.44
563.244	23861.91
563.443	24144.53
563.642	23943.83
563.841	24046.23
564.04	23677.59
564.239	23761.56
564.438	23515.8
564.637	23548.57
564.836	23550.62
565.035	23222.94
565.234	23702.17
565.432	23341.72
565.631	23317.15
565.83	23571.1
566.029	23392.92
566.228	23386.78
566.427	23126.69
566.625	22999.71
566.824	23128.74
567.023	23067.3
567.222	22696.61
567.42	23335.58
567.619	23143.07
567.818	22991.52
568.016	22790.82
568.215	22942.37
568.414	22839.97
568.612	23063.2
568.811	22567.59
569.01	23038.62
569.208	22543.02
569.407	22354.6
569.605	22278.83
569.804	22563.5
570.002	22106.8
570.201	22567.59
570.4	22244.01
570.598	22078.13
570.797	22143.66
570.995	22213.29
571.193	21611.19
571.392	22084.27
571.59	21760.69
571.789	21682.87
571.987	21572.28
572.186	21564.09
572.384	21660.34
572.582	21736.12
572.781	21584.57
572.979	21123.77
573.177	21146.3
573.376	21402.3
573.574	21332.67
573.772	21091.01
573.971	21185.21
574.169	20779.71
574.367	20843.2
574.565	21158.59
574.763	20714.18
574.962	20794.05
575.16	20386.5
575.358	20366.03
575.556	20488.9
575.754	20751.04
575.952	20439.75
576.151	20693.7
576.349	20056.78
576.547	20449.99
576.745	20296.39
576.943	20021.97
577.141	20280.01
577.339	19845.84
577.537	19692.24
577.735	19677.91
577.933	19784.4
578.131	19737.3
578.329	19665.62
578.527	19450.58
578.725	19651.28
578.923	19462.87
579.121	19360.47
579.319	19133.15
579.516	19428.06
579.714	19219.16
579.912	19258.07
580.11	18850.53
580.308	19047.13
580.506	18866.91
580.704	18819.81
580.901	18940.64
581.099	18809.57
581.297	18774.75
581.495	18719.46
581.692	18793.19
581.89	18500.33
582.088	18610.92
582.285	18424.55
582.483	18504.42
582.681	18289.38
582.878	18615.01
583.076	18154.22
583.274	18543.33
583.471	17963.76
583.669	18162.41
583.866	18057.96
584.064	18049.77
584.262	17746.67
584.459	18268.91
584.657	17586.93
584.854	18027.24
585.052	17709.81
585.249	17830.64
585.447	17685.23
585.644	17603.32
585.841	17681.14
586.039	17775.34
586.236	17242.87
586.434	17314.55
586.631	17009.4
586.828	17363.7
587.026	17163
587.223	17109.75
587.42	16958.21
587.618	17070.84
587.815	16716.54
588.012	16898.81
588.21	16943.87
588.407	17044.22
588.604	16743.17
588.801	16702.21
588.999	16448.26
589.196	16745.22
589.393	16962.3
589.59	16583.43
589.787	16833.28
589.984	16478.98
590.182	16325.38
590.379	16288.52
590.576	16388.87
590.773	16292.62
590.97	16161.55
591.167	16149.26
591.364	15956.75
591.561	16061.19
591.758	15921.93
591.955	16098.06
592.152	16003.85
592.349	15866.64
592.546	15889.17
592.743	15889.17
592.94	15792.91
593.137	15788.82
593.334	15754
593.531	15147.8
593.727	15440.66
593.924	15538.96
594.121	15295.25
594.318	15391.51
594.515	15219.48
594.712	15424.28
594.908	15174.42
595.105	15309.59
595.302	14861.09
595.499	14934.81
595.696	14869.28
595.892	14918.43
596.089	14885.66
596.286	15035.16
596.482	14785.31
596.679	14799.65
596.876	14856.99
597.072	14781.21
597.269	14353.19
597.466	14668.58
597.662	14617.38
597.859	14535.46
598.055	14926.62
598.252	14402.34
598.448	14658.34
598.645	14312.23
598.841	14222.12
599.038	14318.37
599.234	14306.09
599.431	14318.37
599.627	14170.92
599.824	14132.01
600.02	14256.93
600.217	14160.68
600.413	14025.51
600.609	13792.05
600.806	14148.39
601.002	13923.12
601.198	13957.93
601.395	13806.38
601.591	13828.91
601.787	13626.16
601.984	13744.94
602.18	13775.66
602.376	13476.66
602.572	13587.25
602.769	13599.54
602.965	13447.99
603.161	13507.38
603.357	13179.7
603.553	13259.57
603.75	13245.24
603.946	13030.2
604.142	13239.09
604.338	13042.49
604.534	12952.38
604.73	13140.79
604.926	13110.07
605.122	12929.85
605.318	12901.18
605.514	12884.8
605.71	12639.04
605.906	12686.14
606.102	12563.26
606.298	12680
606.494	12516.16
606.69	12548.93
606.886	12452.67
607.082	12170.05
607.278	12526.4
607.474	12274.5
607.67	12118.86
607.866	12198.73
608.062	12311.36
608.257	12151.62
608.453	12309.32
608.649	12393.28
608.845	12063.56
609.041	12098.38
609.236	12020.55
609.432	12143.43
609.628	11932.49
609.824	12004.17
610.019	11602.77
610.215	11725.65
610.411	11793.23
610.606	11680.59
610.802	11866.95
610.998	11832.14
611.193	11756.36
611.389	11580.24
611.584	11580.24
611.78	11615.05
611.976	11543.38
612.171	11412.31
612.367	11477.84
612.562	11205.46
612.758	11309.91
612.953	11221.84
613.149	11551.57
613.344	11264.85
613.539	11236.18
613.735	11238.23
613.93	11357.01
614.126	11305.81
614.321	10984.28
614.517	11107.16
614.712	11109.21
614.907	11221.84
615.103	11150.17
615.298	11148.12
615.493	11242.32
615.688	10824.54
615.884	10928.99
616.079	10967.9
616.274	10912.6
616.47	10707.8
616.665	10783.58
616.86	10629.98
617.055	10716
617.25	10668.89
617.445	10916.7
617.641	10500.96
617.836	10582.88
618.031	10357.6
618.226	10576.73
618.421	10423.14
618.616	10449.76
618.811	10267.49
619.006	10541.92
619.201	10095.46
619.396	10230.63
619.591	10111.85
619.786	10128.23
619.981	9968.49
620.176	10236.77
620.371	10003.3
620.566	10011.5
620.761	9841.51
620.956	9939.82
621.151	9763.69
621.346	9882.47
621.541	9653.1
621.735	9689.96
621.93	9673.58
622.125	9689.96
622.32	9223.03
622.515	9562.99
622.709	9395.06
622.904	9481.07
623.099	9173.88
623.294	9442.16
623.488	9100.15
623.683	9325.43
623.878	9149.3
624.072	9263.99
624.267	9091.96
624.462	8874.87
624.656	8887.16
624.851	9046.9
625.046	8821.63
625.24	8883.06
625.435	8721.27
625.629	8614.78
625.824	8573.82
626.018	8514.43
626.213	8436.61
626.407	8430.46
626.602	8309.63
626.796	8573.82
626.991	8649.6
627.185	8319.87
627.38	8283.01
627.574	8278.91
627.768	8194.95
627.963	8131.46
628.157	7969.67
628.352	8149.89
628.546	8067.97
628.74	8139.65
628.935	7852.94
629.129	8072.07
629.323	7975.81
629.517	7662.48
629.712	7721.87
629.906	7820.17
630.1	7566.22
630.294	7816.07
630.489	7674.76
630.683	7756.68
630.877	7672.71
631.071	7510.93
631.265	7531.41
631.459	7308.18
631.653	7435.15
631.848	7308.18
632.042	7304.08
632.236	7383.95
632.43	7205.78
632.624	7209.87
632.818	7375.76
633.012	7003.03
633.206	7000.98
633.4	7113.62
633.594	7070.61
633.788	6984.6
633.982	6865.82
634.176	6865.82
634.369	6808.47
634.563	6814.62
634.757	6871.96
634.951	6839.19
635.145	6837.14
635.339	6679.45
635.533	6765.46
635.726	6560.67
635.92	6587.29
636.114	6398.88
636.308	6568.86
636.501	6534.04
636.695	6486.94
636.889	6497.18
637.083	6478.75
637.276	6189.99
637.47	6298.53
637.664	6200.23
637.857	6255.52
638.051	6312.86
638.244	6167.46
638.438	6237.09
638.632	6214.56
638.825	6101.92
639.019	6130.59
639.212	6091.68
639.406	5790.63
639.599	5966.76
639.793	5921.7
639.986	5821.35
640.18	5657.51
640.373	5835.69
640.567	5745.58
640.76	5796.78
640.954	5675.95
641.147	5557.16
641.34	5634.99
641.534	5628.84
641.727	5624.75
641.92	5591.98
642.114	5522.35
642.307	5542.83
642.5	5413.81
642.694	5303.22
642.887	5323.69
643.08	5333.93
643.273	5047.22
643.467	5229.49
643.66	5288.88
643.853	5188.53
644.046	5362.61
644.239	5170.1
644.432	5106.61
644.626	4883.38
644.819	4975.54
645.012	5016.5
645.205	5067.7
645.398	5041.08
645.591	4654.01
645.784	4752.31
645.977	4963.25
646.17	4924.34
646.363	4801.46
646.556	4678.58
646.749	4647.87
646.942	4629.43
647.135	4744.12
647.328	4805.56
647.521	4578.23
647.714	4621.24
647.907	4465.6
648.099	4455.36
648.292	4514.75
648.485	4363.2
648.678	4430.78
648.871	4414.4
649.064	4291.52
649.256	4473.79
649.449	4275.13
649.642	4408.25
649.835	4277.18
650.027	4080.58
650.22	4219.84
650.413	4164.54
650.605	4072.39
650.798	4062.15
650.991	4111.3
651.183	4135.87
651.376	4088.77
651.568	4041.67
651.761	3906.5
651.954	4008.9
652.146	3949.51
652.339	4010.95
652.531	3898.31
652.724	3840.97
652.916	3818.44
653.109	3603.4
653.301	3724.23
653.494	3816.39
653.686	3843.01
653.879	3822.53
654.071	3660.74
654.263	3697.61
654.456	3527.63
654.648	3720.14
654.84	3423.18
655.033	3564.49
655.225	3537.87
655.417	3521.48
655.61	3570.63
655.802	3552.2
655.994	3521.48
656.186	3584.97
656.379	3515.34
656.571	3591.11
656.763	3419.08
656.955	3216.33
657.148	3271.63
657.34	3290.06
657.532	3296.21
657.724	3300.3
657.916	3316.69
658.108	3251.15
658.3	3259.34
658.492	3208.14
658.684	3218.38
658.876	3146.7
659.068	3251.15
659.26	3142.61
659.452	3081.17
659.644	3132.37
659.836	3042.26
660.028	2950.1
660.22	2997.2
660.412	2948.05
660.604	3054.55
660.796	2978.77
660.988	2999.25
661.18	2882.52
661.372	3023.83
661.563	2874.32
661.755	2788.31
661.947	2948.05
662.139	2894.8
662.331	2933.72
662.522	2843.6
662.714	2825.17
662.906	2853.84
663.097	2755.54
663.289	2718.68
663.481	2778.07
663.673	2513.88
663.864	2616.28
664.056	2804.69
664.247	2585.56
664.439	2640.86
664.631	2538.46
664.822	2628.57
665.014	2575.32
665.205	2587.61
665.397	2546.65
665.588	2591.7
665.78	2493.4
665.971	2575.32
666.163	2497.5
666.354	2530.27
666.546	2452.44
666.737	2378.72
666.929	2409.44
667.12	2243.55
667.311	2472.92
667.503	2407.39
667.694	2474.97
667.885	2362.33
668.077	2368.48
668.268	2403.29
668.459	2237.41
668.651	2302.94
668.842	2231.26
669.033	2255.84
669.224	2259.93
669.416	2182.11
669.607	2323.42
669.798	2171.87
669.989	2237.41
670.18	2169.82
670.371	2272.22
670.563	2153.44
670.754	2264.03
670.945	2116.58
671.136	2057.18
671.327	2175.97
671.518	2128.86
671.709	2141.15
671.9	2071.52
672.091	2116.58
672.282	2194.4
672.473	2032.61
672.664	2137.06
672.855	2075.62
673.046	2149.34
673.237	2014.18
673.428	2010.08
673.619	2010.08
673.809	2026.47
674	2175.97
674.191	1985.51
674.382	1989.6
674.573	1993.7
674.764	1987.55
674.954	2020.32
675.145	1936.35
675.336	2018.27
675.527	1991.65
675.717	1987.55
675.908	1895.4
676.099	1960.93
676.289	1899.49
676.48	2012.13
676.671	1872.87
676.861	1940.45
677.052	1840.1
677.243	1924.07
677.433	1909.73
677.624	1922.02
677.814	1946.59
678.005	1813.48
678.195	1905.63
678.386	1770.47
678.576	1876.96
678.767	1907.68
678.957	1827.81
679.148	1825.76
679.338	1917.92
679.529	1842.15
679.719	1917.92
679.909	1768.42
680.1	1932.26
680.29	1846.24
680.481	1922.02
680.671	1770.47
680.861	1774.56
681.052	1903.59
681.242	1838.05
681.432	1752.04
681.622	1770.47
681.813	1809.38
682.003	1819.62
682.193	1811.43
682.383	1817.57
682.573	1819.62
682.764	1776.61
682.954	1745.89
683.144	1764.33
683.334	1735.65
683.524	1721.32
683.714	1774.56
683.904	1790.95
684.094	1784.8
684.284	1672.17
684.474	1915.87
684.664	1739.75
684.854	1780.71
685.044	1803.24
685.234	1680.36
685.424	1747.94
685.614	1723.37
685.804	1786.85
685.994	1852.39
686.184	1825.76
686.374	1709.03
686.564	1793
686.753	1659.88
686.943	1631.21
687.133	1606.63
687.323	1688.55
687.513	1663.97
687.702	1758.18
687.892	1717.22
688.082	1756.13
688.272	1610.73
688.461	1635.3
688.651	1670.12
688.841	1647.59
689.03	1666.02
689.22	1780.71
689.41	1647.59
689.599	1692.65
689.789	1528.81
689.979	1735.65
690.168	1702.89
690.358	1682.41
690.547	1676.26
690.737	1733.61
690.926	1606.63
691.116	1596.39
691.305	1729.51
691.495	1639.4
691.684	1623.02
691.874	1635.3
692.063	1639.4
692.252	1633.26
692.442	1668.07
692.631	1657.83
692.82	1627.11
693.01	1696.74
693.199	1676.26
693.388	1727.46
693.578	1596.39
693.767	1711.08
693.956	1657.83
694.146	1645.54
694.335	1575.91
694.524	1752.04
694.713	1553.38
694.902	1729.51
695.092	1588.2
695.281	1694.69
695.47	1688.55
695.659	1612.78
695.848	1680.36
696.037	1584.1
696.226	1629.16
696.415	1678.31
696.604	1649.64
696.793	1747.94
696.982	1723.37
697.171	1694.69
697.36	1610.73
697.549	1539.05
697.738	1692.65
697.927	1637.35
698.116	1696.74
698.305	1582.06
698.494	1752.04
698.683	1629.16
698.872	1676.26
699.061	1661.93
699.25	1604.58
699.438	1727.46
699.627	1768.42
699.816	1625.06
700.005	1641.45
700.193	1649.64
700.382	1618.92
700.571	1670.12
700.76	1616.87
700.948	1606.63
701.137	1657.83
701.326	1663.97
701.514	1487.85
701.703	1686.5
701.892	1649.64
702.08	1582.06
702.269	1625.06
702.457	1756.13
702.646	1719.27
702.834	1635.3
703.023	1702.89
703.212	1561.58
703.4	1649.64
703.589	1549.29
703.777	1676.26
703.965	1618.92
704.154	1725.41
704.342	1506.28
704.531	1545.19
704.719	1627.11
704.907	1651.69
705.096	1489.9
705.284	1539.05
705.472	1657.83
705.661	1541.1
705.849	1600.49
706.037	1539.05
706.226	1561.58
706.414	1545.19
706.602	1559.53
706.79	1661.93
706.979	1481.71
707.167	1618.92
707.355	1575.91
707.543	1500.14
707.731	1614.82
707.919	1541.1
708.107	1539.05
708.296	1524.71
708.484	1588.2
708.672	1520.62
708.86	1592.3
709.048	1555.43
709.236	1516.52
709.424	1582.06
709.612	1555.43
709.8	1600.49
709.988	1555.43
710.176	1399.79
710.364	1569.77
710.551	1526.76
710.739	1506.28
710.927	1504.23
711.115	1430.51
711.303	1457.13
711.491	1534.95
711.679	1475.56
711.866	1426.41
712.054	1399.79
712.242	1477.61
712.43	1395.69
712.617	1491.95
712.805	1418.22
712.993	1407.98
713.181	1354.73
713.368	1424.36
713.556	1379.31
713.744	1450.99
713.931	1465.32
714.119	1352.68
714.306	1377.26
714.494	1498.09
714.682	1364.97
714.869	1360.88
715.057	1346.54
715.244	1436.65
715.432	1340.4
715.619	1403.88
715.807	1385.45
715.994	1395.69
716.182	1342.44
716.369	1340.4
716.556	1401.83
716.744	1379.31
716.931	1326.06
717.119	1350.64
717.306	1231.85
717.493	1336.3
717.681	1340.4
717.868	1293.29
718.055	1328.11
718.242	1287.15
718.43	1272.81
718.617	1381.35
718.804	1303.53
718.991	1281
719.179	1258.48
719.366	1297.39
719.553	1272.81
719.74	1278.96
719.927	1274.86
720.114	1211.37
720.301	1303.53
720.488	1199.09
720.676	1133.55
720.863	1225.71
721.05	1283.05
721.237	1123.31
721.424	1197.04
721.611	1188.85
721.798	1168.37
721.985	1231.85
722.172	1113.07
722.358	1186.8
722.545	1178.61
722.732	1203.18
722.919	1125.36
723.106	1213.42
723.293	1176.56
723.48	1080.3
723.667	1254.38
723.853	1129.45
724.04	1135.6
724.227	1164.27
724.414	1135.6
724.6	1133.55
724.787	1084.4
724.974	1123.31
725.161	1127.41
725.347	1123.31
725.534	1149.93
725.72	1147.89
725.907	1070.06
726.094	1178.61
726.28	1121.26
726.467	1055.73
726.653	1065.97
726.84	1014.77
727.027	1059.82
727.213	1090.54
727.4	1084.4
727.586	1096.69
727.773	1025.01
727.959	1104.88
728.145	1025.01
728.332	1147.89
728.518	1111.02
728.705	1014.77
728.891	988.14
729.077	998.38
729.264	1031.15
729.45	1022.96
729.636	1055.73
729.823	1022.96
730.009	990.19
730.195	988.14
730.382	1068.02
730.568	1043.44
730.754	951.28
730.94	982
731.126	1022.96
731.313	1063.92
731.499	975.86
731.685	1074.16
731.871	975.86
732.057	877.55
732.243	1014.77
732.429	842.74
732.615	986.1
732.801	1012.72
732.987	941.04
733.173	1016.82
733.359	941.04
733.545	1010.67
733.731	943.09
733.917	965.62
734.103	891.89
734.289	1031.15
734.475	975.86
734.661	973.81
734.847	934.9
735.033	867.31
735.219	920.56
735.404	922.61
735.59	930.8
735.776	830.45
735.962	969.71
736.148	953.33
736.333	891.89
736.519	818.16
736.705	949.23
736.89	859.12
737.076	842.74
737.262	928.75
737.447	822.26
737.633	900.08
737.819	818.16
738.004	822.26
738.19	949.23
738.375	809.97
738.561	877.55
738.747	828.4
738.932	855.03
739.118	846.84
739.303	805.88
739.489	852.98
739.674	789.49
739.859	912.37
740.045	812.02
740.23	848.88
740.416	836.6
740.601	844.79
740.786	908.27
740.972	791.54
741.157	812.02
741.342	791.54
741.528	781.3
741.713	848.88
741.898	891.89
742.084	809.97
742.269	764.92
742.454	826.36
742.639	779.25
742.824	766.96
743.01	781.3
743.195	795.64
743.38	824.31
743.565	789.49
743.75	748.53
743.935	750.58
744.12	803.83
744.305	742.39
744.49	791.54
744.675	822.26
744.86	793.59
745.045	830.45
745.23	777.2
745.415	746.48
745.6	775.16
745.785	754.68
745.97	719.86
746.155	754.68
746.34	760.82
746.525	662.52
746.71	658.42
746.895	674.81
747.079	668.66
747.264	732.15
747.449	678.9
747.634	674.81
747.819	629.75
748.003	695.29
748.188	625.65
748.373	691.19
748.557	642.04
748.742	654.33
748.927	607.22
749.111	662.52
749.296	592.89
749.481	674.81
749.665	689.14
749.85	639.99
750.034	556.02
750.219	523.26
750.404	566.26
750.588	568.31
750.773	603.13
750.957	570.36
751.141	615.41
751.326	691.19
751.51	537.59
751.695	568.31
751.879	580.6
752.064	556.02
752.248	586.74
752.432	592.89
752.617	605.17
752.801	674.81
752.985	613.37
753.17	515.06
753.354	590.84
753.538	572.41
753.722	457.72
753.907	498.68
754.091	470.01
754.275	535.54
754.459	543.74
754.643	513.02
754.828	488.44
755.012	605.17
755.196	472.06
755.38	529.4
755.564	486.39
755.748	467.96
755.932	510.97
756.116	556.02
756.3	459.77
756.484	535.54
756.668	527.35
756.852	465.91
757.036	513.02
757.22	404.47
757.404	379.9
757.588	502.78
757.772	437.24
757.956	410.62
758.14	429.05
758.323	484.34
758.507	510.97
758.691	322.56
758.875	459.77
759.059	484.34
759.242	441.34
759.426	447.48
759.61	500.73
759.794	410.62
759.977	488.44
760.161	461.82
760.345	463.86
760.528	445.43
760.712	410.62
760.895	412.67
761.079	427
761.263	336.89
761.446	308.22
761.63	416.76
761.813	343.03
761.997	293.88
762.18	519.16
762.364	455.67
762.547	502.78
762.731	392.19
762.914	306.17
763.098	422.91
763.281	414.71
763.464	420.86
763.648	349.18
763.831	363.51
764.015	361.47
764.198	381.95
764.381	402.43
764.564	388.09
764.748	410.62
764.931	343.03
765.114	418.81
765.297	388.09
765.481	334.84
765.664	410.62
765.847	377.85
766.03	461.82
766.213	371.71
766.397	394.23
766.58	439.29
766.763	332.79
766.946	334.84
767.129	326.65
767.312	359.42
767.495	338.94
767.678	306.17
767.861	388.09
768.044	383.99
768.227	336.89
768.41	394.23
768.593	392.19
768.776	250.88
768.959	377.85
769.142	334.84
769.324	314.36
769.507	363.51
769.69	293.88
769.873	287.74
770.056	347.13
770.239	349.18
770.421	410.62
770.604	326.65
770.787	355.32
770.97	283.64
771.152	250.88
771.335	359.42
771.518	377.85
771.7	304.12
771.883	429.05
772.066	332.79
772.248	283.64
772.431	347.13
772.613	402.43
772.796	343.03
772.978	343.03
773.161	375.8
773.343	289.79
773.526	263.16
773.708	269.31
773.891	324.6
774.073	250.88
774.256	316.41
774.438	340.99
774.621	308.22
774.803	267.26
774.985	361.47
775.168	289.79
775.35	224.25
775.532	275.45
775.715	211.96
775.897	285.69
776.079	257.02
776.261	195.58
776.444	275.45
776.626	306.17
776.808	238.59
776.99	254.97
777.173	275.45
777.355	277.5
777.537	222.2
777.719	338.94
777.901	220.16
778.083	254.97
778.265	205.82
778.447	295.93
778.629	293.88
778.811	277.5
778.993	191.49
779.175	209.92
779.357	189.44
779.539	234.49
779.721	228.35
779.903	232.44
780.085	211.96
780.267	238.59
780.449	263.16
780.631	246.78
780.812	228.35
780.994	224.25
781.176	246.78
781.358	240.64
781.54	230.4
781.721	257.02
781.903	224.25
782.085	140.29
782.267	211.96
782.448	242.68
782.63	246.78
782.812	154.62
782.993	175.1
783.175	205.82
783.357	316.41
783.538	250.88
783.72	144.38
783.901	205.82
784.083	242.68
784.264	257.02
784.446	209.92
784.627	195.58
784.809	171.01
784.99	205.82
785.172	218.11
785.353	203.77
785.535	209.92
785.716	146.43
785.897	211.96
786.079	107.52
786.26	187.39
786.441	224.25
786.623	203.77
786.804	211.96
786.985	121.85
787.167	130.05
787.348	105.47
787.529	222.2
787.71	183.29
787.891	191.49
788.073	89.09
788.254	199.68
788.435	209.92
788.616	189.44
788.797	123.9
788.978	211.96
789.159	138.24
789.34	162.81
789.522	171.01
789.703	150.53
789.884	113.66
790.065	185.34
790.246	130.05
790.427	236.54
790.607	117.76
790.788	128
790.969	228.35
791.15	214.01
791.331	152.57
791.512	160.77
791.693	130.05
791.874	142.33
792.054	156.67
792.235	136.19
792.416	179.2
792.597	158.72
792.778	173.05
792.958	117.76
793.139	119.81
793.32	146.43
793.5	103.42
793.681	134.14
793.862	164.86
794.042	162.81
794.223	111.61
794.404	52.22
794.584	136.19
794.765	97.28
794.945	136.19
795.126	125.95
795.306	183.29
795.487	156.67
795.667	97.28
795.848	160.77
796.028	121.85
796.209	142.33
796.389	91.13
796.57	154.62
796.75	97.28
796.93	66.56
797.111	132.09
797.291	128
797.471	103.42
797.652	130.05
797.832	103.42
798.012	97.28
798.192	199.68
798.373	113.66
798.553	99.33
798.733	128
798.913	109.57
799.093	95.23
799.274	60.42
799.454	52.22
799.634	158.72
799.814	72.7
799.994	52.22
800.174	154.62
800.354	181.25
800.534	150.53
800.714	119.81
800.894	197.63
801.074	7.17
801.254	142.33
801.434	115.71
801.614	82.94
801.794	97.28
801.974	218.11
802.154	128
802.334	111.61
802.514	107.52
802.693	130.05
802.873	97.28
803.053	52.22
803.233	35.84
803.413	3.07
803.592	119.81
803.772	128
803.952	140.29
804.131	97.28
804.311	54.27
804.491	128
804.67	23.55
804.85	82.94
805.03	117.76
805.209	128
805.389	17.41
805.568	76.8
805.748	74.75
805.928	113.66
806.107	101.37
806.287	134.14
806.466	66.56
806.646	130.05
806.825	60.42
807.004	72.7
807.184	185.34
807.363	130.05
807.543	50.18
807.722	29.7
807.901	21.5
808.081	132.09
808.26	35.84
808.439	105.47
808.619	31.74
808.798	134.14
808.977	68.61
809.156	91.13
809.336	80.89
809.515	95.23
809.694	70.65
809.873	17.41
810.052	52.22
810.231	82.94
810.411	52.22
810.59	101.37
810.769	50.18
810.948	136.19
811.127	58.37
811.306	93.18
811.485	58.37
811.664	121.85
811.843	97.28
812.022	1.02
812.201	35.84
812.38	44.03
812.559	-25.6
812.737	23.55
812.916	52.22
813.095	33.79
813.274	78.85
813.453	-17.41
813.632	7.17
813.811	66.56
813.989	74.75
814.168	113.66
814.347	-27.65
814.526	54.27
814.704	48.13
814.883	66.56
815.062	111.61
815.24	93.18
815.419	13.31
815.598	80.89
815.776	33.79
815.955	29.7
816.133	-13.31
816.312	58.37
816.49	15.36
816.669	31.74
816.847	89.09
817.026	44.03
817.204	31.74
817.383	72.7
817.561	48.13
817.74	119.81
817.918	-7.17
818.097	97.28
818.275	72.7
818.453	80.89
818.632	68.61
818.81	60.42
818.988	33.79
819.167	84.99
819.345	64.51
819.523	39.94
819.701	54.27
819.879	44.03
820.058	1.02
820.236	72.7
820.414	68.61
820.592	78.85
820.77	31.74
820.948	15.36
821.127	-1.02
821.305	70.65
821.483	39.94
821.661	68.61
821.839	105.47
822.017	27.65
822.195	64.51
822.373	146.43
822.551	76.8
822.729	31.74
822.907	-23.55
823.085	17.41
823.262	37.89
823.44	23.55
823.618	3.07
823.796	35.84
823.974	-9.22
824.152	17.41
824.329	19.46
824.507	-33.79
824.685	41.98
824.863	107.52
825.04	35.84
825.218	68.61
825.396	54.27
825.574	56.32
825.751	27.65
825.929	35.84
826.107	-11.26
826.284	64.51
826.462	44.03
826.639	-1.02
826.817	93.18
826.994	31.74
827.172	-1.02
827.349	27.65
827.527	25.6
827.704	23.55
827.882	3.07
828.059	7.17
828.237	46.08
828.414	76.8
828.591	1.02
828.769	87.04
828.946	5.12
829.124	44.03
829.301	39.94
829.478	33.79
829.655	60.42
829.833	23.55
830.01	33.79
830.187	62.46
830.364	44.03
830.542	44.03
830.719	-13.31
830.896	97.28
831.073	56.32
831.25	89.09
831.427	-15.36
831.604	48.13
831.782	-9.22
831.959	-7.17
832.136	7.17
832.313	84.99
832.49	-17.41
832.667	-13.31
832.844	64.51
833.021	58.37
833.198	91.13
833.374	29.7
833.551	48.13
833.728	54.27
833.905	78.85
834.082	15.36
834.259	27.65
834.436	-19.46
834.612	-7.17
834.789	11.26
834.966	9.22
835.143	13.31
835.319	-9.22
835.496	35.84
835.673	27.65
835.85	15.36
836.026	37.89
836.203	-29.7
836.38	31.74
836.556	13.31
836.733	1.02
836.909	23.55
837.086	37.89
837.262	33.79
837.439	-13.31
837.616	3.07
837.792	89.09
837.968	72.7
838.145	-1.02
838.321	23.55
838.498	15.36
838.674	-15.36
838.851	15.36
839.027	-33.79
839.203	-23.55
839.38	66.56
839.556	-25.6
839.732	-5.12
839.909	60.42
840.085	-19.46
840.261	-46.08
840.437	48.13
840.614	15.36
840.79	-1.02
840.966	64.51
841.142	-41.98
841.318	25.6
841.494	1.02
841.671	62.46
841.847	7.17
842.023	-21.5
842.199	76.8
842.375	23.55
842.551	48.13
842.727	15.36
842.903	27.65
843.079	37.89
843.255	54.27
843.431	-25.6
843.607	72.7
843.783	13.31
843.959	29.7
844.134	3.07
844.31	41.98
844.486	19.46
844.662	66.56
844.838	-76.8
845.013	11.26
845.189	-70.65
845.365	-1.02
845.541	62.46
845.716	-7.17
845.892	9.22
846.068	15.36
846.244	-48.13
846.419	25.6
846.595	35.84
846.77	-3.07
846.946	27.65
847.122	19.46
847.297	35.84
847.473	7.17
847.648	-17.41
847.824	35.84
847.999	-74.75
848.175	-78.85
848.35	-27.65
848.526	60.42
848.701	41.98
848.876	-11.26
849.052	54.27
849.227	15.36
849.403	46.08
849.578	-19.46
849.753	19.46
849.929	-3.07
850.104	39.94
850.279	50.18
850.454	1.02
850.63	31.74
850.805	128
850.98	-25.6
851.155	-103.42
851.33	-21.5
851.505	23.55
851.681	-46.08
851.856	3.07
852.031	-15.36
852.206	60.42
852.381	19.46
852.556	-62.46
852.731	11.26
852.906	27.65
853.081	15.36
853.256	35.84
853.431	-35.84
853.606	39.94
853.781	15.36
853.956	-5.12
854.131	-31.74
854.305	-29.7
854.48	101.37
854.655	-11.26
854.83	7.17
855.005	-13.31
855.18	11.26
855.354	-50.18
855.529	3.07
855.704	13.31
855.879	-13.31
856.053	35.84
856.228	23.55
856.403	-62.46
856.577	-15.36
856.752	5.12
856.926	23.55
857.101	-3.07
857.276	50.18
857.45	-35.84
857.625	-21.5
857.799	-37.89
857.974	-56.32
858.148	-31.74
858.323	39.94
858.497	-33.79
858.672	-1.02
858.846	17.41
859.02	1.02
859.195	31.74
859.369	25.6
859.543	-35.84
859.718	-25.6
859.892	-78.85
860.066	39.94
860.241	27.65
860.415	-21.5
860.589	-33.79
860.763	-21.5
860.938	-5.12
861.112	68.61
861.286	-13.31
861.46	56.32
861.634	76.8
861.808	62.46
861.982	17.41
862.157	-21.5
862.331	-3.07
862.505	-37.89
862.679	33.79
862.853	-37.89
863.027	-23.55
863.201	5.12
863.375	-33.79
863.549	15.36
863.722	-31.74
863.896	-46.08
864.07	29.7
864.244	-41.98
864.418	3.07
864.592	31.74
864.766	-15.36
864.939	-35.84
865.113	-3.07
865.287	25.6
865.461	-25.6
865.634	-41.98
865.808	17.41
865.982	17.41
866.156	-13.31
866.329	35.84
866.503	-72.7
866.676	7.17
866.85	44.03
867.024	-56.32
867.197	-1.02
867.371	-25.6
867.544	74.75
867.718	41.98
867.891	-33.79
868.065	50.18
868.238	17.41
868.412	23.55
868.585	39.94
868.759	-91.13
868.932	-15.36
869.105	33.79
869.279	37.89
869.452	-27.65
869.625	46.08
869.799	-21.5
869.972	-39.94
870.145	-31.74
870.319	1.02
870.492	-23.55
870.665	1.02
870.838	1.02
871.011	-15.36
871.185	-37.89
871.358	19.46
871.531	93.18
871.704	-27.65
871.877	-37.89
872.05	7.17
872.223	-29.7
872.396	39.94
872.569	25.6
872.742	-29.7
872.915	33.79
873.088	64.51
873.261	-23.55
873.434	11.26
873.607	7.17
873.78	7.17
873.953	-25.6
874.126	-11.26
874.299	23.55
874.471	-41.98
874.644	50.18
874.817	3.07
874.99	-1.02
875.163	-33.79
875.335	1.02
875.508	-1.02
875.681	25.6
875.853	-15.36
876.026	-29.7
876.199	-13.31
876.371	37.89
876.544	17.41
876.717	50.18
876.889	-54.27
877.062	-15.36
877.234	-17.41
877.407	-60.42
877.579	9.22
877.752	48.13
877.924	-68.61
878.097	-17.41
878.269	-58.37
878.442	13.31
878.614	-9.22
878.786	41.98
878.959	-25.6
879.131	3.07
879.303	-17.41
879.476	56.32
879.648	11.26
879.82	13.31
879.993	-70.65
880.165	78.85
880.337	17.41
880.509	13.31
880.681	29.7
880.854	-54.27
881.026	9.22
881.198	54.27
881.37	-23.55
881.542	5.12
881.714	-72.7
881.886	-9.22
882.058	13.31
882.23	-58.37
882.402	-3.07
882.574	-1.02
882.746	-15.36
882.918	76.8
883.09	-9.22
883.262	-23.55
883.434	3.07
883.606	7.17
883.778	-9.22
883.95	15.36
884.122	-60.42
884.293	7.17
884.465	52.22
884.637	-46.08
884.809	-66.56
884.98	15.36
885.152	-21.5
885.324	-39.94
885.496	-13.31
885.667	-15.36
885.839	5.12
886.011	-23.55
886.182	-35.84
886.354	-3.07
886.525	52.22
886.697	48.13
886.869	-66.56
887.04	-13.31
887.212	-13.31
887.383	23.55
887.555	-15.36
887.726	-9.22
887.897	-37.89
888.069	-37.89
888.24	-13.31
888.412	-17.41
888.583	1.02
888.754	5.12
888.926	-17.41
889.097	-5.12
889.268	-21.5
889.44	-15.36
889.611	-56.32
889.782	-3.07
889.953	-39.94
890.125	-1.02
890.296	13.31
890.467	50.18
890.638	-7.17
890.809	-11.26
890.98	-39.94
891.151	-13.31
891.323	44.03
891.494	-17.41
891.665	33.79
891.836	1.02
892.007	-25.6
892.178	1.02
892.349	-64.51
892.52	-46.08
892.691	-48.13
892.862	21.5
893.032	31.74
893.203	62.46
893.374	-56.32
893.545	-9.22
893.716	-11.26
893.887	-17.41
894.057	-21.5
894.228	-37.89
894.399	-46.08
894.57	21.5
894.74	-50.18
894.911	-23.55
895.082	-44.03
895.253	-78.85
895.423	-31.74
895.594	-56.32
895.764	-50.18
895.935	35.84
896.106	-39.94
896.276	-33.79
896.447	33.79
896.617	15.36
896.788	-23.55
896.958	35.84
897.129	-5.12
897.299	-82.94
897.47	-1.02
897.64	21.5
897.81	-9.22
897.981	23.55
898.151	-80.89
898.322	19.46
898.492	-60.42
898.662	3.07
898.832	-1.02
899.003	-31.74
899.173	-39.94
899.343	-11.26
899.513	5.12
