Data from USB4F104151__206__13-59-54-865.txt Node

Date: Thu Mar 13 13:59:54 EDT 2025
User: louis
Spectrometer: USB4F10415
Trigger mode: 4
Integration Time (sec): 1.000000E-2
Scans to average: 1
Electric dark correction enabled: true
Nonlinearity correction enabled: false
Boxcar width: 0
XAxis mode: Wavelengths
Number of Pixels in Spectrum: 3648
>>>>>Begin Spectral Data<<<<<
178.204	-55.81
178.424	-55.81
178.644	-55.81
178.864	-39.42
179.084	-8.7
179.304	-14.85
179.524	-29.18
179.744	-86.53
179.964	3.58
180.184	19.97
180.404	60.93
180.624	17.92
180.844	22.02
181.064	-16.9
181.283	-72.19
181.503	52.74
181.723	42.5
181.943	60.93
182.163	-16.9
182.383	34.3
182.602	75.26
182.822	-31.23
183.042	19.97
183.262	73.21
183.482	128.51
183.701	52.74
183.921	42.5
184.141	11.78
184.361	-64
184.58	58.88
184.8	13.82
185.02	-6.66
185.239	81.41
185.459	15.87
185.679	50.69
185.898	26.11
186.118	50.69
186.338	30.21
186.557	-12.8
186.777	-78.33
186.997	58.88
187.216	108.03
187.436	54.78
187.655	62.98
187.875	46.59
188.095	-49.66
188.314	77.31
188.534	-2.56
188.753	101.89
188.973	34.3
189.192	103.93
189.412	73.21
189.631	40.45
189.851	-10.75
190.07	46.59
190.29	56.83
190.509	1.54
190.729	28.16
190.948	22.02
191.168	83.45
191.387	3.58
191.607	5.63
191.826	50.69
192.045	-4.61
192.265	-20.99
192.484	9.73
192.704	34.3
192.923	-51.71
193.142	-4.61
193.362	73.21
193.581	-8.7
193.8	42.5
194.02	36.35
194.239	-0.51
194.458	50.69
194.678	5.63
194.897	13.82
195.116	5.63
195.335	54.78
195.555	22.02
195.774	13.82
195.993	3.58
196.212	-4.61
196.432	-10.75
196.651	34.3
196.87	15.87
197.089	95.74
197.308	-39.42
197.528	116.22
197.747	-29.18
197.966	3.58
198.185	7.68
198.404	44.54
198.623	11.78
198.842	81.41
199.062	50.69
199.281	62.98
199.5	-33.28
199.719	-12.8
199.938	13.82
200.157	85.5
200.376	26.11
200.595	83.45
200.814	-14.85
201.033	-53.76
201.252	26.11
201.471	44.54
201.69	99.84
201.909	26.11
202.128	38.4
202.347	60.93
202.566	-27.14
202.785	32.26
203.004	-35.33
203.223	99.84
203.442	81.41
203.661	-23.04
203.879	17.92
204.098	81.41
204.317	-23.04
204.536	77.31
204.755	17.92
204.974	87.55
205.193	-27.14
205.411	15.87
205.63	28.16
205.849	-27.14
206.068	99.84
206.287	-2.56
206.505	-16.9
206.724	89.6
206.943	81.41
207.162	-23.04
207.381	69.12
207.599	-18.94
207.818	-8.7
208.037	7.68
208.255	95.74
208.474	5.63
208.693	28.16
208.911	9.73
209.13	58.88
209.349	48.64
209.567	50.69
209.786	-14.85
210.005	17.92
210.223	-2.56
210.442	-12.8
210.661	110.08
210.879	1.54
211.098	36.35
211.316	69.12
211.535	5.63
211.753	69.12
211.972	91.65
212.191	77.31
212.409	81.41
212.628	19.97
212.846	52.74
213.065	11.78
213.283	17.92
213.502	-59.9
213.72	-23.04
213.938	42.5
214.157	42.5
214.375	26.11
214.594	-8.7
214.812	36.35
215.031	17.92
215.249	15.87
215.467	89.6
215.686	3.58
215.904	56.83
216.122	-6.66
216.341	-6.66
216.559	19.97
216.778	42.5
216.996	56.83
217.214	1.54
217.432	-27.14
217.651	71.17
217.869	-49.66
218.087	-31.23
218.306	75.26
218.524	19.97
218.742	9.73
218.96	62.98
219.179	26.11
219.397	50.69
219.615	108.03
219.833	-47.62
220.051	-14.85
220.27	54.78
220.488	22.02
220.706	87.55
220.924	30.21
221.142	69.12
221.36	1.54
221.578	69.12
221.796	62.98
222.015	79.36
222.233	95.74
222.451	50.69
222.669	17.92
222.887	52.74
223.105	50.69
223.323	-8.7
223.541	-29.18
223.759	22.02
223.977	-43.52
224.195	11.78
224.413	67.07
224.631	-12.8
224.849	19.97
225.067	19.97
225.285	9.73
225.503	58.88
225.721	99.84
225.939	26.11
226.157	101.89
226.375	73.21
226.592	26.11
226.81	-14.85
227.028	85.5
227.246	19.97
227.464	7.68
227.682	-33.28
227.9	9.73
228.117	-6.66
228.335	-18.94
228.553	69.12
228.771	-47.62
228.989	54.78
229.206	69.12
229.424	-27.14
229.642	30.21
229.86	38.4
230.077	19.97
230.295	24.06
230.513	75.26
230.731	75.26
230.948	11.78
231.166	-6.66
231.384	48.64
231.601	19.97
231.819	83.45
232.037	22.02
232.254	7.68
232.472	-2.56
232.689	26.11
232.907	-2.56
233.125	42.5
233.342	22.02
233.56	-16.9
233.777	69.12
233.995	56.83
234.213	60.93
234.43	-12.8
234.648	11.78
234.865	-10.75
235.083	19.97
235.3	3.58
235.518	52.74
235.735	1.54
235.953	50.69
236.17	34.3
236.388	38.4
236.605	71.17
236.822	15.87
237.04	95.74
237.257	17.92
237.475	-10.75
237.692	22.02
237.909	5.63
238.127	42.5
238.344	1.54
238.562	19.97
238.779	19.97
238.996	-8.7
239.214	79.36
239.431	22.02
239.648	28.16
239.865	28.16
240.083	-8.7
240.3	91.65
240.517	-0.51
240.735	48.64
240.952	-14.85
241.169	44.54
241.386	7.68
241.603	58.88
241.821	-6.66
242.038	79.36
242.255	40.45
242.472	44.54
242.689	-55.81
242.907	71.17
243.124	50.69
243.341	22.02
243.558	26.11
243.775	-12.8
243.992	-0.51
244.209	9.73
244.426	-4.61
244.643	77.31
244.86	17.92
245.078	44.54
245.295	17.92
245.512	83.45
245.729	24.06
245.946	108.03
246.163	34.3
246.38	17.92
246.597	3.58
246.814	24.06
247.031	71.17
247.248	-4.61
247.464	67.07
247.681	77.31
247.898	75.26
248.115	56.83
248.332	-33.28
248.549	44.54
248.766	5.63
248.983	28.16
249.2	24.06
249.417	67.07
249.633	38.4
249.85	128.51
250.067	71.17
250.284	91.65
250.501	-43.52
250.717	30.21
250.934	-49.66
251.151	89.6
251.368	-10.75
251.585	58.88
251.801	22.02
252.018	48.64
252.235	56.83
252.451	83.45
252.668	38.4
252.885	60.93
253.102	30.21
253.318	75.26
253.535	-2.56
253.752	36.35
253.968	118.27
254.185	99.84
254.401	28.16
254.618	26.11
254.835	19.97
255.051	87.55
255.268	108.03
255.484	-4.61
255.701	36.35
255.917	11.78
256.134	60.93
256.351	19.97
256.567	75.26
256.784	5.63
257	11.78
257.217	44.54
257.433	26.11
257.65	52.74
257.866	83.45
258.082	85.5
258.299	-6.66
258.515	-6.66
258.732	34.3
258.948	83.45
259.165	60.93
259.381	56.83
259.597	26.11
259.814	36.35
260.03	69.12
260.246	38.4
260.463	73.21
260.679	77.31
260.895	28.16
261.112	52.74
261.328	77.31
261.544	54.78
261.761	15.87
261.977	-18.94
262.193	-10.75
262.409	77.31
262.626	46.59
262.842	-31.23
263.058	-6.66
263.274	-4.61
263.49	36.35
263.707	83.45
263.923	50.69
264.139	19.97
264.355	108.03
264.571	42.5
264.787	48.64
265.004	60.93
265.22	-14.85
265.436	1.54
265.652	9.73
265.868	46.59
266.084	1.54
266.3	-27.14
266.516	44.54
266.732	120.32
266.948	1.54
267.164	42.5
267.38	60.93
267.596	65.02
267.812	54.78
268.028	77.31
268.244	-10.75
268.46	19.97
268.676	58.88
268.892	105.98
269.108	-27.14
269.324	42.5
269.54	13.82
269.756	65.02
269.972	79.36
270.188	89.6
270.403	13.82
270.619	50.69
270.835	71.17
271.051	126.46
271.267	52.74
271.483	-20.99
271.698	26.11
271.914	75.26
272.13	157.18
272.346	67.07
272.562	77.31
272.777	34.3
272.993	11.78
273.209	34.3
273.425	67.07
273.64	-18.94
273.856	5.63
274.072	-2.56
274.287	42.5
274.503	75.26
274.719	40.45
274.934	56.83
275.15	34.3
275.366	-4.61
275.581	36.35
275.797	58.88
276.012	95.74
276.228	54.78
276.444	54.78
276.659	19.97
276.875	-6.66
277.09	44.54
277.306	15.87
277.521	-8.7
277.737	56.83
277.952	52.74
278.168	42.5
278.383	50.69
278.599	46.59
278.814	-12.8
279.03	75.26
279.245	83.45
279.461	42.5
279.676	48.64
279.892	34.3
280.107	58.88
280.322	-6.66
280.538	36.35
280.753	-6.66
280.969	42.5
281.184	-6.66
281.399	-0.51
281.615	56.83
281.83	77.31
282.045	-43.52
282.26	17.92
282.476	44.54
282.691	19.97
282.906	60.93
283.122	83.45
283.337	50.69
283.552	46.59
283.767	44.54
283.983	91.65
284.198	15.87
284.413	44.54
284.628	91.65
284.843	60.93
285.058	36.35
285.274	95.74
285.489	42.5
285.704	67.07
285.919	-10.75
286.134	3.58
286.349	38.4
286.564	42.5
286.779	-25.09
286.995	65.02
287.21	52.74
287.425	62.98
287.64	50.69
287.855	48.64
288.07	13.82
288.285	11.78
288.5	103.93
288.715	52.74
288.93	99.84
289.145	52.74
289.36	60.93
289.575	75.26
289.79	67.07
290.004	79.36
290.219	-4.61
290.434	-39.42
290.649	30.21
290.864	-14.85
291.079	38.4
291.294	103.93
291.509	5.63
291.724	22.02
291.938	-57.86
292.153	1.54
292.368	22.02
292.583	75.26
292.798	75.26
293.012	46.59
293.227	28.16
293.442	77.31
293.657	22.02
293.871	75.26
294.086	77.31
294.301	1.54
294.516	83.45
294.73	24.06
294.945	58.88
295.16	44.54
295.374	9.73
295.589	110.08
295.804	-10.75
296.018	44.54
296.233	19.97
296.447	50.69
296.662	67.07
296.877	9.73
297.091	38.4
297.306	38.4
297.52	-23.04
297.735	-20.99
297.949	91.65
298.164	42.5
298.378	97.79
298.593	-16.9
298.807	-23.04
299.022	65.02
299.236	42.5
299.451	58.88
299.665	1.54
299.88	75.26
300.094	60.93
300.309	54.78
300.523	-6.66
300.737	46.59
300.952	28.16
301.166	-10.75
301.381	28.16
301.595	101.89
301.809	38.4
302.024	95.74
302.238	81.41
302.452	85.5
302.667	1.54
302.881	89.6
303.095	58.88
303.309	52.74
303.524	17.92
303.738	11.78
303.952	52.74
304.166	28.16
304.381	3.58
304.595	42.5
304.809	-12.8
305.023	99.84
305.237	75.26
305.452	-72.19
305.666	56.83
305.88	36.35
306.094	46.59
306.308	15.87
306.522	30.21
306.736	30.21
306.95	89.6
307.164	67.07
307.379	32.26
307.593	54.78
307.807	101.89
308.021	60.93
308.235	50.69
308.449	54.78
308.663	17.92
308.877	67.07
309.091	30.21
309.305	69.12
309.519	38.4
309.733	7.68
309.947	75.26
310.161	19.97
310.374	83.45
310.588	85.5
310.802	-18.94
311.016	69.12
311.23	130.56
311.444	58.88
311.658	89.6
311.872	67.07
312.085	54.78
312.299	99.84
312.513	-4.61
312.727	108.03
312.941	103.93
313.154	7.68
313.368	97.79
313.582	58.88
313.796	54.78
314.009	30.21
314.223	87.55
314.437	60.93
314.651	58.88
314.864	7.68
315.078	32.26
315.292	56.83
315.505	34.3
315.719	122.37
315.933	56.83
316.146	97.79
316.36	-20.99
316.573	83.45
316.787	13.82
317.001	52.74
317.214	87.55
317.428	79.36
317.641	69.12
317.855	85.5
318.068	83.45
318.282	5.63
318.495	69.12
318.709	83.45
318.922	26.11
319.136	69.12
319.349	44.54
319.563	65.02
319.776	65.02
319.99	28.16
320.203	99.84
320.417	83.45
320.63	71.17
320.843	89.6
321.057	67.07
321.27	-6.66
321.483	97.79
321.697	77.31
321.91	67.07
322.124	62.98
322.337	-4.61
322.55	87.55
322.763	73.21
322.977	50.69
323.19	-0.51
323.403	128.51
323.617	48.64
323.83	62.98
324.043	26.11
324.256	19.97
324.469	22.02
324.683	73.21
324.896	-2.56
325.109	32.26
325.322	-0.51
325.535	79.36
325.748	5.63
325.962	56.83
326.175	93.69
326.388	3.58
326.601	46.59
326.814	32.26
327.027	69.12
327.24	13.82
327.453	17.92
327.666	77.31
327.879	69.12
328.092	73.21
328.305	73.21
328.518	58.88
328.731	22.02
328.944	30.21
329.157	46.59
329.37	65.02
329.583	24.06
329.796	48.64
330.009	69.12
330.222	50.69
330.435	77.31
330.648	46.59
330.861	69.12
331.073	65.02
331.286	34.3
331.499	97.79
331.712	48.64
331.925	54.78
332.138	58.88
332.35	75.26
332.563	9.73
332.776	1.54
332.989	26.11
333.202	46.59
333.414	91.65
333.627	-23.04
333.84	122.37
334.053	-14.85
334.265	7.68
334.478	60.93
334.691	30.21
334.903	1.54
335.116	28.16
335.329	26.11
335.541	93.69
335.754	11.78
335.966	122.37
336.179	60.93
336.392	34.3
336.604	58.88
336.817	19.97
337.029	38.4
337.242	69.12
337.454	134.65
337.667	40.45
337.88	99.84
338.092	40.45
338.305	83.45
338.517	32.26
338.729	79.36
338.942	28.16
339.154	38.4
339.367	-29.18
339.579	60.93
339.792	50.69
340.004	120.32
340.217	91.65
340.429	77.31
340.641	62.98
340.854	116.22
341.066	13.82
341.278	38.4
341.491	77.31
341.703	91.65
341.915	83.45
342.128	24.06
342.34	24.06
342.552	73.21
342.764	56.83
342.977	69.12
343.189	44.54
343.401	58.88
343.613	36.35
343.826	13.82
344.038	144.89
344.25	56.83
344.462	9.73
344.674	34.3
344.886	22.02
345.099	148.99
345.311	54.78
345.523	54.78
345.735	69.12
345.947	56.83
346.159	69.12
346.371	32.26
346.583	54.78
346.795	85.5
347.007	75.26
347.219	52.74
347.431	38.4
347.643	19.97
347.855	-59.9
348.067	26.11
348.279	26.11
348.491	56.83
348.703	-6.66
348.915	26.11
349.127	65.02
349.339	73.21
349.551	30.21
349.763	54.78
349.975	44.54
350.187	32.26
350.399	46.59
350.61	77.31
350.822	58.88
351.034	9.73
351.246	108.03
351.458	40.45
351.669	58.88
351.881	101.89
352.093	34.3
352.305	77.31
352.517	83.45
352.728	56.83
352.94	65.02
353.152	116.22
353.363	-10.75
353.575	124.41
353.787	91.65
353.999	71.17
354.21	28.16
354.422	71.17
354.633	13.82
354.845	42.5
355.057	95.74
355.268	52.74
355.48	77.31
355.692	93.69
355.903	105.98
356.115	91.65
356.326	48.64
356.538	28.16
356.749	46.59
356.961	38.4
357.172	54.78
357.384	103.93
357.595	99.84
357.807	105.98
358.018	58.88
358.23	46.59
358.441	71.17
358.653	56.83
358.864	83.45
359.075	19.97
359.287	9.73
359.498	58.88
359.709	58.88
359.921	67.07
360.132	99.84
360.344	40.45
360.555	42.5
360.766	58.88
360.977	89.6
361.189	62.98
361.4	13.82
361.611	89.6
361.823	79.36
362.034	103.93
362.245	24.06
362.456	52.74
362.667	108.03
362.879	19.97
363.09	42.5
363.301	62.98
363.512	34.3
363.723	5.63
363.935	65.02
364.146	124.41
364.357	159.23
364.568	26.11
364.779	105.98
364.99	17.92
365.201	28.16
365.412	95.74
365.623	89.6
365.834	38.4
366.045	91.65
366.256	77.31
366.467	97.79
366.678	77.31
366.889	83.45
367.1	89.6
367.311	17.92
367.522	26.11
367.733	87.55
367.944	105.98
368.155	120.32
368.366	44.54
368.577	75.26
368.788	73.21
368.999	71.17
369.209	62.98
369.42	101.89
369.631	114.17
369.842	26.11
370.053	28.16
370.264	28.16
370.474	38.4
370.685	79.36
370.896	85.5
371.107	112.13
371.317	44.54
371.528	32.26
371.739	36.35
371.95	44.54
372.16	50.69
372.371	87.55
372.582	58.88
372.792	99.84
373.003	95.74
373.214	13.82
373.424	126.46
373.635	36.35
373.846	52.74
374.056	85.5
374.267	-49.66
374.477	22.02
374.688	58.88
374.898	69.12
375.109	99.84
375.319	40.45
375.53	17.92
375.74	38.4
375.951	19.97
376.161	169.47
376.372	81.41
376.582	60.93
376.793	93.69
377.003	99.84
377.214	36.35
377.424	91.65
377.635	93.69
377.845	56.83
378.055	83.45
378.266	13.82
378.476	89.6
378.686	56.83
378.897	9.73
379.107	58.88
379.317	87.55
379.528	108.03
379.738	77.31
379.948	161.28
380.158	118.27
380.369	56.83
380.579	54.78
380.789	116.22
380.999	110.08
381.21	83.45
381.42	120.32
381.63	73.21
381.84	77.31
382.05	28.16
382.261	79.36
382.471	52.74
382.681	34.3
382.891	97.79
383.101	52.74
383.311	30.21
383.521	69.12
383.731	62.98
383.941	42.5
384.151	71.17
384.361	132.61
384.571	95.74
384.781	44.54
384.991	95.74
385.201	75.26
385.411	126.46
385.621	42.5
385.831	65.02
386.041	58.88
386.251	34.3
386.461	108.03
386.671	103.93
386.881	77.31
387.091	132.61
387.301	83.45
387.511	87.55
387.72	99.84
387.93	112.13
388.14	3.58
388.35	71.17
388.56	105.98
388.769	167.42
388.979	9.73
389.189	3.58
389.399	105.98
389.609	99.84
389.818	110.08
390.028	52.74
390.238	26.11
390.447	50.69
390.657	99.84
390.867	112.13
391.076	126.46
391.286	19.97
391.496	110.08
391.705	58.88
391.915	44.54
392.125	112.13
392.334	128.51
392.544	56.83
392.753	65.02
392.963	83.45
393.172	114.17
393.382	128.51
393.591	124.41
393.801	114.17
394.01	134.65
394.22	77.31
394.429	69.12
394.639	91.65
394.848	138.75
395.058	126.46
395.267	108.03
395.477	73.21
395.686	42.5
395.895	153.09
396.105	110.08
396.314	112.13
396.524	144.89
396.733	124.41
396.942	151.04
397.152	146.94
397.361	198.14
397.57	163.33
397.78	146.94
397.989	134.65
398.198	159.23
398.407	108.03
398.617	140.8
398.826	169.47
399.035	157.18
399.244	159.23
399.453	126.46
399.663	142.85
399.872	93.69
400.081	91.65
400.29	105.98
400.499	99.84
400.708	179.71
400.917	140.8
401.127	75.26
401.336	114.17
401.545	189.95
401.754	153.09
401.963	157.18
402.172	122.37
402.381	175.61
402.59	148.99
402.799	208.38
403.008	87.55
403.217	120.32
403.426	202.24
403.635	169.47
403.844	214.52
404.053	171.52
404.262	122.37
404.471	247.29
404.68	167.42
404.888	230.91
405.097	136.7
405.306	214.52
405.515	255.48
405.724	189.95
405.933	261.63
406.142	120.32
406.35	249.34
406.559	245.24
406.768	247.29
406.977	237.05
407.185	235
407.394	271.87
407.603	247.29
407.812	296.44
408.02	323.07
408.229	224.76
408.438	329.21
408.646	314.88
408.855	292.35
409.064	333.31
409.272	355.83
409.481	364.03
409.69	345.59
409.898	308.73
410.107	349.69
410.315	355.83
410.524	337.4
410.733	339.45
410.941	407.03
411.15	409.08
411.358	476.66
411.567	470.52
411.775	462.33
411.984	466.42
412.192	607.73
412.401	484.86
412.609	546.3
412.818	568.82
413.026	673.27
413.234	548.34
413.443	630.26
413.651	697.85
413.86	740.85
414.068	701.94
414.276	751.09
414.485	820.72
414.693	790
414.901	830.96
415.11	949.75
415.318	880.11
415.526	884.21
415.734	904.69
415.943	939.51
416.151	1068.53
416.359	1027.57
416.567	1224.17
416.776	1017.33
416.984	1033.71
417.192	1101.3
417.4	1205.74
417.608	1191.41
417.817	1254.89
418.025	1312.24
418.233	1388.01
418.441	1463.79
418.649	1478.12
418.857	1459.69
419.065	1506.79
419.273	1617.38
419.481	1644.01
419.689	1682.92
419.897	1828.32
420.105	1877.48
420.313	1947.11
420.521	1877.48
420.729	1996.26
420.937	2006.5
421.145	2110.94
421.353	2188.77
421.561	2385.37
421.769	2393.56
421.977	2469.34
422.185	2409.95
422.393	2721.24
422.601	2852.31
422.809	2827.73
423.017	2741.72
423.224	2917.84
423.432	3169.74
423.64	2989.52
423.848	3366.35
424.056	3206.61
424.263	3331.53
424.471	3515.85
424.679	3515.85
424.887	3640.78
425.094	3802.57
425.302	3796.42
425.51	3911.11
425.718	4036.03
425.925	4107.71
426.133	4324.8
426.341	4552.12
426.548	4599.23
426.756	4621.75
426.964	4744.63
427.171	5023.16
427.379	5184.94
427.586	5344.69
427.794	5434.8
428.001	5723.56
428.209	5934.5
428.417	5817.77
428.624	6215.07
428.832	6182.31
429.039	6206.88
429.247	6223.27
429.454	6792.6
429.662	7034.26
429.869	6686.11
430.076	7398.8
430.284	7091.6
430.491	7359.89
430.699	7792.01
430.906	7873.93
431.114	7861.64
431.321	8138.12
431.528	8400.26
431.736	8650.11
431.943	9196.92
432.15	9182.58
432.358	9020.79
432.565	9475.44
432.772	9571.69
432.979	10134.89
433.187	10339.68
433.394	10241.38
433.601	10798.43
433.808	11099.48
434.016	10925.4
434.223	11595.09
434.43	12082.5
434.637	11822.41
434.844	12397.89
435.052	12682.56
435.259	12604.74
435.466	12889.4
435.673	12764.48
435.88	13528.37
436.087	14011.69
436.294	14245.16
436.501	13888.81
436.708	14277.93
436.915	14499.11
437.122	15242.52
437.329	15228.18
437.537	15484.18
437.743	16170.25
437.95	15938.83
438.157	16776.45
438.364	17128.7
438.571	16930.05
438.778	17276.15
438.985	18840.8
439.192	18347.24
439.399	18687.2
439.606	18320.62
439.813	19506.39
440.02	20499.66
440.227	20239.56
440.433	20008.14
440.64	20458.7
440.847	20350.15
441.054	20989.12
441.261	22305.96
441.467	21820.6
441.674	22695.08
441.881	23413.91
442.088	23262.37
442.294	22815.91
442.501	24016.02
442.708	24329.36
442.914	25173.12
443.121	26162.29
443.328	25642.1
443.534	27350.11
443.741	26719.34
443.948	25994.36
444.154	28372.05
444.361	27874.39
444.568	27706.46
444.774	28019.8
444.981	28329.04
445.187	29375.55
445.394	30862.38
445.6	30075.96
445.807	32906.25
446.013	31392.8
446.22	31863.83
446.426	33379.33
446.633	33444.87
446.839	34874.35
447.046	33217.54
447.252	35191.78
447.459	35161.06
447.665	34481.14
447.871	36398.04
448.078	37972.92
448.284	36013.02
448.491	37206.98
448.697	38525.88
448.903	39146.41
449.11	39144.36
449.316	38450.1
449.522	39277.48
449.728	40264.6
449.935	40983.44
450.141	40592.28
450.347	41788.29
450.553	40375.19
450.76	40891.28
450.966	41919.36
451.172	41706.37
451.378	42638.2
451.584	41751.43
451.791	42869.62
451.997	42574.71
452.203	43465.58
452.409	43311.98
452.615	43156.33
452.821	41415.56
453.027	40967.05
453.233	43488.1
453.44	41325.45
453.646	41937.79
453.852	42118.01
454.058	42996.59
454.264	41427.85
454.47	42271.61
454.676	41405.32
454.882	42912.63
455.088	39127.98
455.294	39363.5
455.5	40373.14
455.705	40661.91
455.911	39265.19
456.117	38319.03
456.323	37790.66
456.529	36299.73
456.735	37438.4
456.941	36506.58
457.147	35677.15
457.352	34507.76
457.558	34382.84
457.764	34458.61
457.97	33862.65
458.176	33047.56
458.381	33213.45
458.587	31405.09
458.793	31579.17
458.999	29873.21
459.204	32429.07
459.41	30880.81
459.616	29064.26
459.821	29094.98
460.027	28998.73
460.233	28574.8
460.438	27155.55
460.644	27579.48
460.85	26133.62
461.055	25703.54
461.261	25437.31
461.466	23776.41
461.672	23139.49
461.878	24683.66
462.083	23233.69
462.289	22809.76
462.494	22502.57
462.7	21384.38
462.905	20628.68
463.111	21525.69
463.316	21714.1
463.522	21445.82
463.727	21126.33
463.932	21165.25
464.138	21279.93
464.343	21136.57
464.549	20440.26
464.754	21161.15
464.959	21185.72
465.165	20802.75
465.37	20128.97
465.575	19676.37
465.781	20329.67
465.986	20466.89
466.191	19811.54
466.397	19422.42
466.602	18390.25
466.807	18795.75
467.012	19164.38
467.218	18916.58
467.423	18476.26
467.628	19012.83
467.833	19715.28
468.038	18808.03
468.244	18167.02
468.449	19115.23
468.654	18216.17
468.859	18341.1
469.064	18392.3
469.269	17423.61
469.474	17992.94
469.679	17870.06
469.885	17554.68
470.09	17782
470.295	17515.76
470.5	17462.52
470.705	17396.98
470.91	17042.68
471.115	16807.17
471.32	17050.88
471.525	16657.67
471.73	16639.23
471.935	16327.94
472.139	15631.63
472.344	16178.44
472.549	15805.71
472.754	15799.57
472.959	15535.38
473.164	15095.07
473.369	14863.65
473.574	15400.21
473.778	15314.2
473.983	15238.42
474.188	15023.39
474.393	14572.83
474.598	14714.14
474.802	14626.08
475.007	14126.38
475.212	14333.22
475.417	13794.61
475.621	13823.28
475.826	13778.22
476.031	13454.64
476.235	13186.36
476.44	13464.88
476.645	12965.18
476.849	13296.95
477.054	13004.09
477.259	12750.14
477.463	12707.13
477.668	12358.98
477.872	12414.27
478.077	12420.42
478.282	12021.06
478.486	12305.73
478.691	12025.16
478.895	12109.13
479.1	11853.13
479.304	11836.75
479.509	11461.97
479.713	11928.91
479.918	11525.46
480.122	11310.42
480.326	11830.6
480.531	11339.09
480.735	11509.07
480.94	11365.71
481.144	11677.01
481.348	11199.83
481.553	11033.94
481.757	10775.9
481.961	11183.45
482.166	11357.52
482.37	11294.04
482.574	10763.61
482.778	10970.46
482.983	11267.41
483.187	11023.7
483.391	10980.7
483.595	10786.14
483.8	10976.6
484.004	10870.11
484.208	11146.58
484.412	10874.2
484.616	11003.22
484.821	10880.35
485.025	10958.17
485.229	11113.81
485.433	10833.24
485.637	11111.77
485.841	10935.64
486.045	11093.33
486.249	11038.04
486.453	11031.9
486.657	11033.94
486.861	11185.49
487.065	10855.77
487.269	10954.07
487.473	10732.89
487.677	10943.83
487.881	10884.44
488.085	10773.85
488.289	11097.43
488.493	10857.82
488.697	10915.16
488.901	11035.99
489.105	11181.4
489.309	11046.23
489.512	11017.56
489.716	11052.38
489.92	11068.76
490.124	11150.68
490.328	11384.15
490.531	11079
490.735	11146.58
490.939	11306.32
491.143	11404.63
491.346	11484.5
491.55	11421.01
491.754	11701.58
491.958	11644.24
492.161	11437.39
492.365	11537.74
492.569	11570.51
492.772	11550.03
492.976	11836.75
493.18	11822.41
493.383	11988.3
493.587	11994.44
493.79	12125.51
493.994	12033.35
494.197	12258.63
494.401	12389.7
494.605	12287.3
494.808	12535.1
495.012	12436.8
495.215	12600.64
495.419	12897.6
495.622	12911.93
495.825	12774.72
496.029	12842.3
496.232	13227.32
496.436	13305.14
496.639	13612.34
496.843	13491.51
497.046	13571.38
497.249	13741.36
497.453	13767.98
497.656	14228.77
497.859	14060.84
498.063	14298.41
498.266	14761.25
498.469	14611.75
498.673	14896.41
498.876	14847.26
499.079	15084.83
499.282	15158.55
499.485	15619.35
499.689	15750.42
499.892	15729.94
500.095	15924.49
500.298	16248.07
500.501	16112.91
500.705	16966.91
500.908	16979.2
501.111	17093.88
501.314	16944.38
501.517	17499.38
501.72	17433.85
501.923	17673.46
502.126	17997.04
502.329	18285.8
502.532	18341.1
502.735	18273.51
502.938	19037.41
503.141	18883.81
503.344	19254.49
503.547	19449.05
503.75	19530.97
503.953	20079.82
504.156	20358.35
504.359	20294.86
504.562	20720.84
504.765	21023.94
504.968	21056.7
505.17	21531.83
505.373	21505.21
505.576	21941.43
505.779	22129.84
505.982	22633.64
506.185	22838.44
506.387	22889.63
506.59	23022.75
506.793	23725.21
506.996	23682.2
507.198	24386.7
507.401	24345.74
507.604	24235.15
507.807	24972.42
508.009	25126.02
508.212	25330.81
508.415	25924.72
508.617	26080.37
508.82	26274.93
509.022	26520.68
509.225	26956.9
509.428	27591.77
509.63	27653.21
509.833	27456.61
510.035	28462.16
510.238	28114
510.44	28515.4
510.643	29166.66
510.845	29760.57
511.048	29535.29
511.25	30055.48
511.453	29918.26
511.655	31282.21
511.858	31251.49
512.06	31259.68
512.262	31865.88
512.465	31894.55
512.667	32730.12
512.87	32562.19
513.072	32570.38
513.274	33940.47
513.477	34114.55
513.679	34681.84
513.881	34780.14
514.084	34884.59
514.286	34989.03
514.488	35582.95
514.69	36168.66
514.893	36633.55
515.095	36426.71
515.297	37372.87
515.499	37684.16
515.701	38095.8
515.904	38302.65
516.106	38769.58
516.308	39052.2
516.51	39119.79
516.712	39308.2
516.914	39924.64
517.116	40666
517.318	40930.19
517.52	41227.15
517.722	41347.98
517.925	41923.46
518.127	42486.65
518.329	42765.17
518.531	42552.18
518.733	43758.44
518.935	43889.51
519.136	44114.78
519.338	44954.45
519.54	45036.37
519.742	45327.18
519.944	45841.22
520.146	46240.57
520.348	46594.87
520.55	46842.68
520.752	47125.3
520.954	47971.11
521.155	47643.43
521.357	48429.85
521.559	48812.82
521.761	49421.07
521.963	49566.48
522.164	49976.07
522.366	50066.18
522.568	50518.78
522.77	50758.39
522.971	51688.17
523.173	51124.98
523.375	51757.8
523.576	51731.18
523.778	52132.58
523.98	52675.29
524.181	53039.83
524.383	52894.42
524.584	53363.41
524.786	53656.27
524.988	53625.55
525.189	54125.25
525.391	54491.84
525.592	54491.84
525.794	54721.21
525.995	54807.23
526.197	54782.65
526.398	55507.63
526.6	55710.38
526.801	55939.75
527.003	55843.5
527.204	56126.12
527.406	56857.24
527.607	56289.96
527.808	57391.76
528.01	56009.39
528.211	56920.73
528.412	58167.94
528.614	57442.96
528.815	57836.17
529.016	57987.72
529.218	57830.03
529.419	57840.27
529.62	58172.04
529.822	58167.94
530.023	58335.88
530.224	58323.59
530.425	58595.97
530.626	57993.87
530.828	58215.05
531.029	59486.84
531.23	58425.99
531.431	58722.94
531.632	58937.98
531.833	58845.82
532.035	59193.98
532.236	59312.76
532.437	59589.23
532.638	58262.15
532.839	59251.32
533.04	59193.98
533.241	58518.15
533.442	59871.85
533.643	59650.67
533.844	59241.08
534.045	59810.42
534.246	58593.92
534.447	59587.19
534.648	59058.81
534.849	59673.2
535.05	59003.52
535.251	59847.28
535.451	59535.99
535.652	60119.66
535.853	59630.19
536.054	59914.86
536.255	59806.32
536.456	59626.1
536.657	60357.22
536.857	59212.41
537.058	59789.94
537.259	60060.27
537.46	59806.32
537.66	59724.4
537.861	59474.55
538.062	59546.23
538.263	60338.79
538.463	59632.24
538.664	59748.98
538.865	59929.2
539.065	60080.75
539.266	59558.52
539.466	60136.04
539.667	58952.32
539.868	60420.71
540.068	59552.37
540.269	59912.81
540.469	60117.61
540.67	59220.6
540.87	59464.31
541.071	59572.85
541.271	59781.74
541.472	59882.09
541.672	59472.5
541.873	59574.9
542.073	58675.84
542.274	60322.41
542.474	59857.52
542.675	59157.11
542.875	60312.17
543.075	59341.43
543.276	59353.72
543.476	59742.83
543.676	59216.5
543.877	59927.15
544.077	59652.72
544.277	59503.22
544.478	59757.17
544.678	59521.65
544.878	59382.39
545.078	59951.73
545.279	59091.58
545.479	59107.96
545.679	59439.73
545.879	59970.16
546.079	59458.16
546.28	59611.76
546.48	58911.36
546.68	59675.25
546.88	59415.16
547.08	59398.77
547.28	59177.59
547.48	58942.08
547.68	59406.97
547.88	59005.56
548.081	59501.17
548.281	59527.8
548.481	59282.04
548.681	59738.74
548.881	59497.08
549.081	59124.35
549.28	58909.31
549.48	59409.01
549.68	58677.89
549.88	60107.37
550.08	58421.89
550.28	59419.25
550.48	59239.03
550.68	59273.85
550.88	59126.39
551.08	58960.51
551.279	59288.18
551.479	58718.85
551.679	59212.41
551.879	58827.39
552.079	59259.51
552.278	58806.91
552.478	58727.04
552.678	58405.51
552.878	59333.24
553.077	58727.04
553.277	58456.71
553.477	59024
553.676	58485.38
553.876	58849.92
554.076	58587.78
554.275	59001.47
554.475	58104.46
554.674	58614.4
554.874	58643.07
555.074	58700.42
555.273	58452.61
555.473	58698.37
555.672	58290.82
555.872	58284.68
556.071	58854.01
556.271	58634.88
556.47	58479.24
556.67	57756.3
556.869	57864.85
557.068	58210.95
557.268	58223.24
557.467	58182.28
557.667	58002.06
557.866	57922.19
558.065	57514.64
558.265	57670.29
558.464	57512.59
558.663	57877.13
558.863	56900.25
559.062	58206.86
559.261	57004.7
559.461	58012.3
559.66	56826.52
559.859	57287.32
560.058	56912.54
560.258	57252.5
560.457	56640.16
560.656	57201.3
560.855	56679.07
561.054	56908.44
561.253	56320.68
561.453	56410.79
561.652	56709.79
561.851	56951.45
562.05	56388.26
562.249	56414.88
562.448	56677.02
562.647	56251.05
562.846	56205.99
563.045	56533.67
563.244	56148.65
563.443	56603.3
563.642	55667.37
563.841	55880.36
564.04	55720.62
564.239	56373.92
564.438	55708.33
564.637	56113.83
564.836	56343.2
565.035	55390.9
565.234	55552.69
565.432	55698.09
565.631	55331.51
565.83	55634.61
566.029	55405.23
566.228	55374.52
566.427	55198.39
566.625	55433.91
566.824	54497.98
567.023	54917.82
567.222	54031.05
567.42	54909.63
567.619	54606.53
567.818	54555.33
568.016	54475.46
568.215	54891.19
568.414	54340.29
568.612	54680.25
568.811	54196.93
569.01	53650.13
569.208	54074.05
569.407	54022.86
569.605	53390.03
569.804	54475.46
570.002	53338.83
570.201	53678.8
570.4	52951.77
570.598	53207.76
570.797	52882.14
570.995	53146.33
571.193	52632.28
571.392	53336.79
571.59	52378.34
571.789	52488.93
571.987	52509.41
572.186	52622.05
572.384	52134.63
572.582	52552.41
572.781	52083.43
572.979	51641.07
573.177	52122.34
573.376	52331.23
573.574	51454.7
573.772	51774.19
573.971	51495.66
574.169	51499.76
574.367	50592.51
574.565	51110.64
574.763	50942.71
574.962	50782.97
575.16	50195.2
575.358	50672.38
575.556	49738.51
575.754	50811.64
575.952	50029.32
576.151	50496.25
576.349	49599.24
576.547	49615.63
576.745	49851.14
576.943	49636.11
577.141	49761.03
577.339	49285.9
577.537	49531.66
577.735	49031.96
577.933	49093.39
578.131	49165.07
578.329	48831.25
578.527	48364.32
578.725	48386.85
578.923	48950.04
579.121	48356.13
579.319	48235.3
579.516	48593.69
579.714	48018.21
579.912	47659.82
580.11	47538.99
580.308	47883.05
580.506	47956.77
580.704	46902.07
580.901	47477.55
581.099	47358.77
581.297	47180.59
581.495	46656.31
581.692	46881.59
581.89	46381.88
582.088	47158.06
582.285	46437.18
582.483	46715.7
582.681	46134.08
582.878	45923.14
583.076	45597.51
583.274	45673.29
583.471	45527.88
583.669	45663.05
583.866	45646.66
584.064	45353.8
584.262	44940.11
584.459	45280.08
584.657	44954.45
584.854	45134.67
585.052	44428.12
585.249	44577.62
585.447	44958.55
585.644	44510.04
585.841	44569.43
586.039	44661.59
586.236	43860.83
586.434	43819.88
586.631	44026.72
586.828	43924.32
587.026	43961.19
587.223	43565.93
587.42	43512.68
587.618	43404.14
587.815	43037.55
588.012	42912.63
588.21	42670.96
588.407	43289.45
588.604	42619.77
588.801	42312.57
588.999	42521.46
589.196	42406.78
589.393	42425.21
589.59	42126.21
589.787	41923.46
589.984	41880.45
590.182	41704.32
590.379	41716.61
590.576	41407.37
590.773	41563.01
590.97	41278.35
591.167	41655.17
591.364	40815.51
591.561	41184.14
591.758	40577.94
591.955	40954.77
592.152	41098.12
592.349	40618.9
592.546	40428.44
592.743	40364.95
592.94	39699.36
593.137	40240.03
593.334	40049.56
593.531	39678.88
593.727	39842.72
593.924	39951.26
594.121	39439.27
594.318	39697.31
594.515	39078.83
594.712	39959.45
594.908	39281.58
595.105	39314.34
595.302	38962.09
595.499	39218.09
595.696	38822.83
595.892	38579.12
596.089	38998.96
596.286	38622.13
596.482	38316.98
596.679	38370.23
596.876	38441.91
597.072	37911.49
597.269	38081.47
597.466	37723.07
597.662	37622.72
597.859	37712.83
598.055	37723.07
598.252	37157.83
598.448	37272.52
598.645	37147.59
598.841	37037
599.038	36846.54
599.234	36957.13
599.431	36477.91
599.627	36588.5
599.824	36641.74
600.02	36178.9
600.217	36707.28
600.413	36611.03
600.609	36248.53
600.806	36082.65
601.002	36094.94
601.198	35939.29
601.395	35443.68
601.591	35111.91
601.787	35617.76
601.984	35003.37
602.18	35572.71
602.376	35296.23
602.572	35140.58
602.769	35099.62
602.965	34698.22
603.161	34802.67
603.357	34448.37
603.553	34440.18
603.75	34493.43
603.946	33907.71
604.142	34440.18
604.338	33719.29
604.534	34206.71
604.73	33899.51
604.926	33786.88
605.122	34073.59
605.318	33620.99
605.514	33500.16
605.71	33299.46
605.906	33092.62
606.102	33332.23
606.298	33035.27
606.494	33188.87
606.69	32840.71
606.886	32695.31
607.082	32455.7
607.278	32738.32
607.474	32009.24
607.67	32726.03
607.866	31757.34
608.062	32451.6
608.257	32232.47
608.453	31900.7
608.649	32216.08
608.845	31556.64
609.041	31841.31
609.236	31767.58
609.432	31482.91
609.628	31601.69
609.824	30989.35
610.019	30983.21
610.215	31558.69
610.411	31114.28
610.606	30942.25
610.802	31024.17
610.998	30577.71
611.193	30485.55
611.389	30555.18
611.584	30553.13
611.78	30483.5
611.976	30577.71
612.171	30377.01
612.367	30381.1
612.562	30239.79
612.758	30045.24
612.953	29744.19
613.149	30178.36
613.344	29617.21
613.539	30200.88
613.735	29695.03
613.93	29613.12
614.126	29574.2
614.321	29498.43
614.517	29647.93
614.712	29412.42
614.907	29244.48
615.103	29363.26
615.298	28712.01
615.493	29525.05
615.688	28421.2
615.884	29285.44
616.079	28310.61
616.274	29131.84
616.47	28748.87
616.665	28628.04
616.86	28767.31
617.055	28480.59
617.25	28347.47
617.445	28785.74
617.641	28132.43
617.836	28490.83
618.031	27860.05
618.226	28144.72
618.421	27933.78
618.616	28062.8
618.811	27417.69
619.006	27810.9
619.201	27073.63
619.396	27602.01
619.591	26956.9
619.786	27268.19
619.981	26903.65
620.176	26993.76
620.371	26666.09
620.566	26559.59
620.761	26578.03
620.956	26698.86
621.151	26387.57
621.346	26227.82
621.541	25443.45
621.735	26225.78
621.93	25709.69
622.125	26127.47
622.32	25476.22
622.515	25691.26
622.709	25169.02
622.904	25105.54
623.099	24900.74
623.294	25220.22
623.488	24773.77
623.683	24716.42
623.878	24398.99
624.072	24067.22
624.267	24437.9
624.462	24052.88
624.656	23944.34
624.851	23948.43
625.046	23815.32
625.24	23712.92
625.435	23645.34
625.629	23180.45
625.824	23069.86
626.018	23336.09
626.213	22611.11
626.407	22817.96
626.602	22424.75
626.796	22549.67
626.991	22703.27
627.185	22148.27
627.38	22037.68
627.574	22121.65
627.768	21929.14
627.963	21777.59
628.157	21517.5
628.352	21775.54
628.546	21476.54
628.74	21515.45
628.935	21458.1
629.129	21265.6
629.323	21066.94
629.517	20702.4
629.712	20999.36
629.906	20698.31
630.1	20518.09
630.294	20696.26
630.489	20382.92
630.683	20329.67
630.877	20020.43
631.071	19954.9
631.265	19901.65
631.459	19936.46
631.653	19938.51
631.848	19832.02
632.042	19440.86
632.236	19625.17
632.43	19453.14
632.624	19440.86
632.818	19348.7
633.012	19088.6
633.206	19043.55
633.4	19285.21
633.594	18603.24
633.788	18705.63
633.982	18889.95
634.176	18566.37
634.369	18410.73
634.563	18511.08
634.757	18287.85
634.951	18203.88
635.145	18371.82
635.339	18320.62
635.533	17870.06
635.726	18111.72
635.92	17802.48
636.114	17691.89
636.308	17722.61
636.501	17442.04
636.695	17894.64
636.889	17417.46
637.083	17224.95
637.276	17106.17
637.47	16948.48
637.664	16835.84
637.857	17034.49
638.051	16762.11
638.244	16624.9
638.438	16983.29
638.632	16663.81
638.825	16256.26
639.019	16643.33
639.212	16440.58
639.406	16182.54
639.599	16137.48
639.793	16237.83
639.986	15887.63
640.18	15967.5
640.373	15830.29
640.567	15754.51
640.76	15715.6
640.954	15492.37
641.147	15244.57
641.34	15310.1
641.534	15492.37
641.727	15158.55
641.92	15244.57
642.114	15330.58
642.307	14894.36
642.5	14814.49
642.694	14708
642.887	14503.2
643.08	14857.5
643.273	14499.11
643.467	14441.76
643.66	14435.62
643.853	14398.76
644.046	14032.17
644.239	14085.42
644.432	14214.44
644.626	13856.04
644.819	13878.57
645.012	13913.39
645.205	13845.8
645.398	13942.06
645.591	13587.76
645.784	13571.38
645.977	13311.28
646.17	13487.41
646.363	13231.41
646.556	12979.51
646.749	13210.93
646.942	12948.79
647.135	13071.67
647.328	13059.38
647.521	12977.47
647.714	12739.9
647.907	12614.98
648.099	12485.95
648.292	12520.77
648.485	12545.34
648.678	12506.43
648.871	12365.12
649.064	12068.17
649.256	12201.29
649.449	12275.01
649.642	11941.19
649.835	11869.51
650.027	11842.89
650.22	11683.15
650.413	11658.57
650.605	11625.81
650.798	11543.89
650.991	11461.97
651.183	11652.43
651.376	11220.31
651.568	11412.82
651.761	11093.33
651.954	11148.63
652.146	11027.8
652.339	10958.17
652.531	10978.65
652.724	10837.34
652.916	10878.3
653.109	10974.55
653.301	10823
653.494	10829.15
653.686	10456.42
653.879	10433.89
654.071	10650.97
654.263	10378.59
654.456	10341.73
654.648	10268
654.84	9969
655.033	10030.44
655.225	9837.93
655.417	9938.28
655.61	9807.21
655.802	9882.99
655.994	9774.44
656.186	9796.97
656.379	9670
656.571	9620.85
656.763	9618.8
656.955	9338.23
657.148	9336.18
657.34	9178.48
657.532	9250.16
657.724	9166.2
657.916	9246.07
658.108	9033.08
658.3	8940.92
658.492	9110.9
658.684	8852.86
658.876	8770.94
659.068	8766.84
659.26	8729.98
659.452	8783.23
659.644	8553.85
659.836	8304
660.028	8324.48
660.22	8400.26
660.412	8148.36
660.604	8121.73
660.796	8353.15
660.988	8295.81
661.18	8031.62
661.372	7925.13
661.563	8031.62
661.755	7935.37
661.947	8064.39
662.139	7789.96
662.331	7730.57
662.522	7705.99
662.714	7667.08
662.906	7468.43
663.097	7480.72
663.289	7505.29
663.481	7456.14
663.673	7472.53
663.864	7249.3
664.056	7382.42
664.247	7081.36
664.439	7005.59
664.631	7144.85
664.822	6989.21
665.014	6981.01
665.205	6989.21
665.397	6774.17
665.588	6825.37
665.78	6854.04
665.971	6968.73
666.163	6813.08
666.354	6759.83
666.546	6614.43
666.737	6618.52
666.929	6679.96
667.12	6530.46
667.311	6471.07
667.503	6606.24
667.694	6602.14
667.885	6274.46
668.077	6303.14
668.268	6389.15
668.459	6129.06
668.651	6153.63
668.842	6198.69
669.033	6167.97
669.224	6108.58
669.416	6133.15
669.607	5954.98
669.798	5928.36
669.989	6112.67
670.18	5891.49
670.371	5930.41
670.563	5948.84
670.754	5813.67
670.945	5641.64
671.136	5733.8
671.327	5817.77
671.518	5655.98
671.709	5555.63
671.9	5645.74
672.091	5498.28
672.282	5576.11
672.473	5502.38
672.664	5670.31
672.855	5590.44
673.046	5383.6
673.237	5516.72
673.428	5424.56
673.619	5514.67
673.809	5369.26
674	5457.32
674.191	5344.69
674.382	5270.96
674.573	5393.84
674.764	5305.78
674.954	5303.73
675.145	5313.97
675.336	5189.04
675.527	5301.68
675.717	5182.9
675.908	5090.74
676.099	5045.68
676.289	5072.31
676.48	5123.51
676.671	5043.64
676.861	4943.28
677.052	5043.64
677.243	4799.93
677.433	4990.39
677.624	4959.67
677.814	4707.77
678.005	4885.94
678.195	4976.05
678.386	4955.57
678.576	4847.03
678.767	4847.03
678.957	4728.25
679.148	4791.73
679.338	4787.64
679.529	4693.43
679.719	4748.73
679.909	4844.98
680.1	4781.5
680.29	4726.2
680.481	4711.86
680.671	4613.56
680.861	4672.95
681.052	4662.71
681.242	4691.38
681.432	4711.86
681.622	4496.83
681.813	4568.51
682.003	4591.03
682.193	4445.63
682.383	4488.64
682.573	4462.01
682.764	4357.57
682.954	4472.25
683.144	4462.01
683.334	4394.43
683.524	4492.73
683.714	4310.46
683.904	4320.7
684.094	4484.54
684.284	4498.88
684.474	4410.81
684.664	4427.2
684.854	4257.22
685.044	4367.81
685.234	4251.07
685.424	4365.76
685.614	4476.35
685.804	4292.03
685.994	4249.02
686.184	4242.88
686.374	4226.5
686.564	4294.08
686.753	4246.98
686.943	4185.54
687.133	4249.02
687.323	4244.93
687.513	4187.58
687.702	4206.02
687.892	4128.19
688.082	4302.27
688.272	4122.05
688.461	4242.88
688.651	4134.34
688.841	4167.1
689.03	4208.06
689.22	4183.49
689.41	4238.78
689.599	4201.92
689.789	4289.98
689.979	4109.76
690.168	4228.54
690.358	4079.04
690.547	4140.48
690.737	4058.56
690.926	4050.37
691.116	4126.15
691.305	4246.98
691.495	3902.92
691.684	4158.91
691.874	4150.72
692.063	4048.32
692.252	4033.99
692.442	4044.23
692.631	4033.99
692.82	4095.43
693.01	4152.77
693.199	4001.22
693.388	4031.94
693.578	3894.72
693.767	4068.8
693.956	4005.31
694.146	3960.26
694.335	3888.58
694.524	3982.79
694.713	4056.51
694.902	3990.98
695.092	3960.26
695.281	4015.55
695.47	4042.18
695.659	3925.44
695.848	4044.23
696.037	3937.73
696.226	3958.21
696.415	3902.92
696.604	3794.37
696.793	3845.57
696.982	3814.85
697.171	3894.72
697.36	3888.58
697.549	3857.86
697.738	3927.49
697.927	3904.96
698.116	3896.77
698.305	3839.43
698.494	3802.57
698.683	3902.92
698.872	3810.76
699.061	3814.85
699.25	3804.61
699.438	3734.98
699.627	3902.92
699.816	3716.55
700.005	3792.33
700.193	3706.31
700.382	3835.33
700.571	3734.98
700.76	3780.04
700.948	3630.54
701.137	3728.84
701.326	3739.08
701.514	3577.29
701.703	3540.43
701.892	3700.17
702.08	3773.89
702.269	3491.27
702.457	3638.73
702.646	3554.76
702.834	3591.63
703.023	3593.67
703.212	3509.71
703.4	3499.47
703.589	3521.99
703.777	3438.03
703.965	3395.02
704.154	3509.71
704.342	3464.65
704.531	3376.59
704.719	3509.71
704.907	3435.98
705.096	3478.99
705.284	3503.56
705.472	3376.59
705.661	3251.66
705.849	3337.68
706.037	3296.72
706.226	3284.43
706.414	3352.01
706.602	3270.09
706.79	3243.47
706.979	3327.44
707.167	3364.3
707.355	3206.61
707.543	3136.98
707.731	3270.09
707.919	3253.71
708.107	3042.77
708.296	3093.97
708.484	3040.72
708.672	3151.31
708.86	3108.3
709.048	3206.61
709.236	3016.15
709.424	2973.14
709.612	3126.74
709.8	3042.77
709.988	2958.8
710.176	3091.92
710.364	2983.38
710.551	2926.04
710.739	3034.58
710.927	2921.94
711.115	2946.52
711.303	2977.23
711.491	2743.77
711.679	3007.95
711.866	2952.66
712.054	2840.02
712.242	2999.76
712.43	2905.56
712.617	2856.4
712.805	2682.33
712.993	2870.74
713.181	2782.68
713.368	2770.39
713.556	2835.92
713.744	2594.26
713.931	2831.83
714.119	2567.64
714.306	2758.1
714.494	2805.21
714.682	2604.5
714.869	2661.85
715.057	2663.9
715.244	2588.12
715.432	2627.03
715.619	2581.98
715.807	2682.33
715.994	2567.64
716.182	2555.35
716.369	2608.6
716.556	2639.32
716.744	2581.98
716.931	2534.87
717.119	2512.35
717.306	2397.66
717.493	2479.58
717.681	2457.05
717.868	2463.19
718.055	2545.11
718.242	2397.66
718.43	2434.52
718.617	2366.94
718.804	2444.76
718.991	2354.65
719.179	2291.17
719.366	2360.8
719.553	2407.9
719.74	2317.79
719.927	2440.67
720.114	2285.02
720.301	2317.79
720.488	2219.49
720.676	2250.21
720.863	2166.24
721.05	2213.34
721.237	1996.26
721.424	2323.93
721.611	2174.43
721.798	2092.51
721.985	2205.15
722.172	2205.15
722.358	2043.36
722.545	2217.44
722.732	2172.38
722.919	2184.67
723.106	1957.35
723.293	2137.57
723.48	2078.18
723.667	2057.7
723.853	2045.41
724.04	1975.78
724.227	2119.14
724.414	2057.7
724.6	2008.55
724.787	1959.39
724.974	2139.62
725.161	1981.92
725.347	2006.5
725.534	1969.63
725.72	1971.68
725.907	1836.52
726.094	1969.63
726.28	1871.33
726.467	1981.92
726.653	1805.8
726.84	1840.61
727.027	1912.29
727.213	1859.04
727.4	1797.6
727.586	1871.33
727.773	1813.99
727.959	1887.72
728.145	1777.12
728.332	1873.38
728.518	1807.84
728.705	1822.18
728.891	1813.99
729.077	1813.99
729.264	1770.98
729.45	1791.46
729.636	1824.23
729.823	1672.68
730.009	1709.54
730.195	1775.08
730.382	1770.98
730.568	1734.12
730.754	1691.11
730.94	1719.78
731.126	1734.12
731.313	1746.41
731.499	1689.06
731.685	1730.02
731.871	1566.18
732.057	1723.88
732.243	1582.57
732.429	1713.64
732.615	1623.53
732.801	1752.55
732.987	1560.04
733.173	1627.62
733.359	1560.04
733.545	1715.69
733.731	1615.34
733.917	1566.18
734.103	1545.7
734.289	1601
734.475	1613.29
734.661	1578.47
734.847	1582.57
735.033	1609.19
735.219	1535.46
735.404	1506.79
735.59	1551.85
735.776	1486.31
735.962	1349.1
736.148	1476.07
736.333	1439.21
736.519	1492.46
736.705	1486.31
736.89	1467.88
737.076	1418.73
737.262	1400.3
737.447	1443.31
737.633	1480.17
737.819	1377.77
738.004	1441.26
738.19	1322.48
738.375	1394.15
738.561	1492.46
738.747	1271.28
738.932	1357.29
739.118	1340.91
739.303	1373.68
739.489	1414.63
739.674	1291.76
739.859	1394.15
740.045	1308.14
740.23	1349.1
740.416	1203.69
740.601	1279.47
740.786	1234.41
740.972	1304.04
741.157	1328.62
741.342	1289.71
741.528	1263.08
741.713	1271.28
741.898	1228.27
742.084	1220.08
742.269	1295.85
742.454	1267.18
742.639	1279.47
742.824	1129.97
743.01	1302
743.195	1336.81
743.38	1213.93
743.565	1166.83
743.75	1185.26
743.935	1185.26
744.12	1125.87
744.305	1140.21
744.49	1068.53
744.675	1109.49
744.86	1187.31
745.045	1230.32
745.23	1175.02
745.415	1181.17
745.6	1111.54
745.785	1041.9
745.97	1170.93
746.155	1166.83
746.34	1121.77
746.525	1035.76
746.71	1150.45
746.895	1132.01
747.079	1189.36
747.264	1084.91
747.449	1119.73
747.634	1002.99
747.819	1082.86
748.003	1000.94
748.188	994.8
748.373	1060.34
748.557	986.61
748.742	1029.62
748.927	982.51
749.111	1000.94
749.296	1033.71
749.481	1017.33
749.665	878.07
749.85	931.31
750.034	992.75
750.219	929.27
750.404	949.75
750.588	929.27
750.773	947.7
750.957	822.77
751.141	953.84
751.326	919.03
751.51	941.55
751.695	910.83
751.879	863.73
752.064	968.18
752.248	747
752.432	935.41
752.617	919.03
752.801	1035.76
752.985	912.88
753.17	908.79
753.354	945.65
753.538	845.3
753.722	894.45
753.907	847.35
754.091	886.26
754.275	847.35
754.459	769.52
754.643	833.01
754.828	923.12
755.012	839.16
755.196	802.29
755.38	837.11
755.564	814.58
755.748	855.54
755.932	798.2
756.116	732.66
756.3	792.05
756.484	747
756.668	812.53
756.852	710.13
757.036	802.29
757.22	722.42
757.404	830.96
757.588	790
757.772	822.77
757.956	708.09
758.14	769.52
758.323	697.85
758.507	658.93
758.691	667.13
758.875	736.76
759.059	609.78
759.242	697.85
759.426	644.6
759.61	714.23
759.794	738.8
759.977	732.66
760.161	691.7
760.345	722.42
760.528	632.31
760.712	693.75
760.895	675.32
761.079	673.27
761.263	605.69
761.446	673.27
761.63	669.17
761.813	683.51
761.997	701.94
762.18	663.03
762.364	613.88
762.547	652.79
762.731	681.46
762.914	589.3
763.098	644.6
763.281	583.16
763.464	624.12
763.648	599.54
763.831	644.6
764.015	613.88
764.198	617.97
764.381	611.83
764.564	652.79
764.748	644.6
764.931	587.26
765.114	689.65
765.297	601.59
765.481	613.88
765.664	568.82
765.847	554.49
766.03	638.45
766.213	603.64
766.397	577.02
766.58	534.01
766.763	503.29
766.946	556.54
767.129	495.1
767.312	560.63
767.495	558.58
767.678	663.03
767.861	585.21
768.044	556.54
768.227	615.93
768.41	581.11
768.593	634.36
768.776	529.91
768.959	574.97
769.142	624.12
769.324	562.68
769.507	525.82
769.69	536.06
769.873	615.93
770.056	544.25
770.239	527.86
770.421	488.95
770.604	591.35
770.787	609.78
770.97	534.01
771.152	542.2
771.335	599.54
771.518	564.73
771.7	579.06
771.883	564.73
772.066	511.48
772.248	611.83
772.431	505.34
772.613	527.86
772.796	503.29
772.978	527.86
773.161	540.15
773.343	542.2
773.526	556.54
773.708	503.29
773.891	554.49
774.073	470.52
774.256	531.96
774.438	507.38
774.621	470.52
774.803	466.42
774.985	462.33
775.168	452.09
775.35	480.76
775.532	552.44
775.715	439.8
775.897	447.99
776.079	480.76
776.261	507.38
776.444	468.47
776.626	452.09
776.808	433.66
776.99	482.81
777.173	495.1
777.355	460.28
777.537	413.18
777.719	474.62
777.901	478.71
778.083	404.99
778.265	351.74
778.447	380.41
778.629	386.55
778.811	443.9
778.993	429.56
779.175	476.66
779.357	404.99
779.539	429.56
779.721	353.79
779.903	376.31
780.085	351.74
780.267	472.57
780.449	357.88
780.631	460.28
780.812	447.99
780.994	456.19
781.176	310.78
781.358	402.94
781.54	351.74
781.721	312.83
781.903	345.59
782.085	353.79
782.267	353.79
782.448	407.03
782.63	372.22
782.812	321.02
782.993	402.94
783.175	364.03
783.357	273.92
783.538	343.55
783.72	382.46
783.901	388.6
784.083	335.35
784.264	345.59
784.446	374.27
784.627	292.35
784.809	366.07
784.99	349.69
785.172	372.22
785.353	364.03
785.535	282.11
785.716	368.12
785.897	304.64
786.079	359.93
786.26	296.44
786.441	325.12
786.623	247.29
786.804	296.44
786.985	304.64
787.167	312.83
787.348	232.96
787.529	325.12
787.71	341.5
787.891	349.69
788.073	333.31
788.254	273.92
788.435	359.93
788.616	284.16
788.797	165.37
788.978	294.4
789.159	247.29
789.34	312.83
789.522	239.1
789.703	294.4
789.884	261.63
790.065	235
790.246	269.82
790.427	286.2
790.607	218.62
790.788	312.83
790.969	290.3
791.15	226.81
791.331	247.29
791.512	290.3
791.693	302.59
791.874	259.58
792.054	261.63
792.235	271.87
792.416	222.72
792.597	216.57
792.778	224.76
792.958	239.1
793.139	275.96
793.32	249.34
793.5	257.53
793.681	202.24
793.862	230.91
794.042	247.29
794.223	218.62
794.404	177.66
794.584	294.4
794.765	228.86
794.945	169.47
795.126	251.39
795.306	218.62
795.487	116.22
795.667	198.14
795.848	165.37
796.028	110.08
796.209	210.43
796.389	206.33
796.57	218.62
796.75	112.13
796.93	91.65
797.111	183.81
797.291	175.61
797.471	226.81
797.652	206.33
797.832	153.09
798.012	196.09
798.192	210.43
798.373	116.22
798.553	189.95
798.733	177.66
798.913	122.37
799.093	169.47
799.274	189.95
799.454	165.37
799.634	157.18
799.814	165.37
799.994	159.23
800.174	165.37
800.354	243.2
800.534	169.47
800.714	200.19
800.894	167.42
801.074	200.19
801.254	159.23
801.434	142.85
801.614	189.95
801.794	173.57
801.974	419.32
802.154	122.37
802.334	239.1
802.514	116.22
802.693	146.94
802.873	146.94
803.053	175.61
803.233	126.46
803.413	169.47
803.592	114.17
803.772	181.76
803.952	151.04
804.131	173.57
804.311	208.38
804.491	181.76
804.67	118.27
804.85	175.61
805.03	183.81
805.209	159.23
805.389	97.79
805.568	136.7
805.748	179.71
805.928	179.71
806.107	173.57
806.287	91.65
806.466	128.51
806.646	120.32
806.825	167.42
807.004	91.65
807.184	134.65
807.363	153.09
807.543	108.03
807.722	132.61
807.901	116.22
808.081	112.13
808.26	79.36
808.439	146.94
808.619	118.27
808.798	108.03
808.977	87.55
809.156	169.47
809.336	58.88
809.515	116.22
809.694	161.28
809.873	148.99
810.052	165.37
810.231	171.52
810.411	99.84
810.59	81.41
810.769	146.94
810.948	120.32
811.127	108.03
811.306	89.6
811.485	142.85
811.664	54.78
811.843	79.36
812.022	167.42
812.201	132.61
812.38	177.66
812.559	91.65
812.737	114.17
812.916	93.69
813.095	85.5
813.274	132.61
813.453	138.75
813.632	128.51
813.811	108.03
813.989	134.65
814.168	120.32
814.347	34.3
814.526	140.8
814.704	114.17
814.883	140.8
815.062	73.21
815.24	69.12
815.419	93.69
815.598	101.89
815.776	93.69
815.955	136.7
816.133	50.69
816.312	108.03
816.49	34.3
816.669	36.35
816.847	40.45
817.026	99.84
817.204	114.17
817.383	116.22
817.561	93.69
817.74	144.89
817.918	101.89
818.097	118.27
818.275	46.59
818.453	89.6
818.632	83.45
818.81	97.79
818.988	22.02
819.167	85.5
819.345	118.27
819.523	95.74
819.701	34.3
819.879	218.62
820.058	58.88
820.236	75.26
820.414	71.17
820.592	134.65
820.77	77.31
820.948	83.45
821.127	163.33
821.305	83.45
821.483	67.07
821.661	120.32
821.839	67.07
822.017	54.78
822.195	-10.75
822.373	101.89
822.551	116.22
822.729	46.59
822.907	5.63
823.085	110.08
823.262	89.6
823.44	62.98
823.618	83.45
823.796	122.37
823.974	114.17
824.152	44.54
824.329	71.17
824.507	67.07
824.685	69.12
824.863	124.41
825.04	26.11
825.218	110.08
825.396	120.32
825.574	101.89
825.751	67.07
825.929	101.89
826.107	5.63
826.284	77.31
826.462	48.64
826.639	91.65
826.817	62.98
826.994	116.22
827.172	71.17
827.349	126.46
827.527	65.02
827.704	69.12
827.882	48.64
828.059	87.55
828.237	148.99
828.414	67.07
828.591	54.78
828.769	103.93
828.946	77.31
829.124	85.5
829.301	93.69
829.478	91.65
829.655	56.83
829.833	75.26
830.01	75.26
830.187	40.45
830.364	38.4
830.542	101.89
830.719	1.54
830.896	103.93
831.073	30.21
831.25	81.41
831.427	108.03
831.604	44.54
831.782	58.88
831.959	81.41
832.136	26.11
832.313	114.17
832.49	9.73
832.667	50.69
832.844	69.12
833.021	89.6
833.198	34.3
833.374	112.13
833.551	24.06
833.728	75.26
833.905	46.59
834.082	44.54
834.259	9.73
834.436	144.89
834.612	42.5
834.789	30.21
834.966	99.84
835.143	75.26
835.319	26.11
835.496	138.75
835.673	-41.47
835.85	85.5
836.026	91.65
836.203	46.59
836.38	67.07
836.556	36.35
836.733	101.89
836.909	40.45
837.086	3.58
837.262	97.79
837.439	56.83
837.616	52.74
837.792	124.41
837.968	65.02
838.145	108.03
838.321	44.54
838.498	-16.9
838.674	65.02
838.851	124.41
839.027	42.5
839.203	17.92
839.38	32.26
839.556	22.02
839.732	40.45
839.909	48.64
840.085	85.5
840.261	124.41
840.437	34.3
840.614	-0.51
840.79	54.78
840.966	15.87
841.142	75.26
841.318	11.78
841.494	26.11
841.671	75.26
841.847	13.82
842.023	69.12
842.199	75.26
842.375	30.21
842.551	-0.51
842.727	48.64
842.903	36.35
843.079	91.65
843.255	87.55
843.431	56.83
843.607	71.17
843.783	99.84
843.959	34.3
844.134	60.93
844.31	46.59
844.486	89.6
844.662	1.54
844.838	-14.85
845.013	75.26
845.189	34.3
845.365	54.78
845.541	-25.09
845.716	40.45
845.892	67.07
846.068	81.41
846.244	-37.38
846.419	58.88
846.595	-0.51
846.77	93.69
846.946	87.55
847.122	-25.09
847.297	56.83
847.473	-23.04
847.648	5.63
847.824	81.41
847.999	1.54
848.175	58.88
848.35	-20.99
848.526	28.16
848.701	60.93
848.876	116.22
849.052	75.26
849.227	30.21
849.403	19.97
849.578	58.88
849.753	7.68
849.929	89.6
850.104	1.54
850.279	17.92
850.454	40.45
850.63	93.69
850.805	24.06
850.98	1.54
851.155	-16.9
851.33	99.84
851.505	-2.56
851.681	-6.66
851.856	24.06
852.031	108.03
852.206	7.68
852.381	26.11
852.556	3.58
852.731	7.68
852.906	73.21
853.081	-8.7
853.256	52.74
853.431	97.79
853.606	44.54
853.781	-6.66
853.956	22.02
854.131	81.41
854.305	54.78
854.48	22.02
854.655	58.88
854.83	9.73
855.005	132.61
855.18	38.4
855.354	-16.9
855.529	75.26
855.704	40.45
855.879	60.93
856.053	44.54
856.228	101.89
856.403	69.12
856.577	-12.8
856.752	-74.24
856.926	3.58
857.101	-6.66
857.276	54.78
857.45	114.17
857.625	65.02
857.799	77.31
857.974	7.68
858.148	17.92
858.323	-43.52
858.497	34.3
858.672	56.83
858.846	28.16
859.02	58.88
859.195	34.3
859.369	83.45
859.543	17.92
859.718	36.35
859.892	26.11
860.066	13.82
860.241	28.16
860.415	34.3
860.589	-8.7
860.763	19.97
860.938	44.54
861.112	13.82
861.286	69.12
861.46	-45.57
861.634	58.88
861.808	44.54
861.982	30.21
862.157	48.64
862.331	48.64
862.505	44.54
862.679	1.54
862.853	67.07
863.027	58.88
863.201	15.87
863.375	69.12
863.549	52.74
863.722	19.97
863.896	58.88
864.07	-45.57
864.244	13.82
864.418	34.3
864.592	-20.99
864.766	-18.94
864.939	34.3
865.113	7.68
865.287	26.11
865.461	85.5
865.634	-0.51
865.808	40.45
865.982	77.31
866.156	42.5
866.329	28.16
866.503	50.69
866.676	52.74
866.85	34.3
867.024	-0.51
867.197	95.74
867.371	60.93
867.544	3.58
867.718	108.03
867.891	28.16
868.065	-20.99
868.238	-61.95
868.412	-14.85
868.585	9.73
868.759	26.11
868.932	62.98
869.105	-53.76
869.279	38.4
869.452	-20.99
869.625	9.73
869.799	15.87
869.972	3.58
870.145	-6.66
870.319	-29.18
870.492	19.97
870.665	32.26
870.838	58.88
871.011	3.58
871.185	-45.57
871.358	97.79
871.531	-14.85
871.704	5.63
871.877	36.35
872.05	46.59
872.223	-4.61
872.396	69.12
872.569	-74.24
872.742	-16.9
872.915	69.12
873.088	24.06
873.261	17.92
873.434	26.11
873.607	-4.61
873.78	48.64
873.953	46.59
874.126	11.78
874.299	83.45
874.471	11.78
874.644	-14.85
874.817	48.64
874.99	42.5
875.163	13.82
875.335	83.45
875.508	-12.8
875.681	38.4
875.853	-12.8
876.026	54.78
876.199	26.11
876.371	54.78
876.544	-10.75
876.717	30.21
876.889	-78.33
877.062	124.41
877.234	-37.38
877.407	7.68
877.579	22.02
877.752	-10.75
877.924	17.92
878.097	50.69
878.269	15.87
878.442	50.69
878.614	22.02
878.786	-0.51
878.959	11.78
879.131	-16.9
879.303	-29.18
879.476	30.21
879.648	-53.76
879.82	15.87
879.993	7.68
880.165	56.83
880.337	36.35
880.509	34.3
880.681	-4.61
880.854	30.21
881.026	62.98
881.198	36.35
881.37	-16.9
881.542	48.64
881.714	-23.04
881.886	50.69
882.058	24.06
882.23	-53.76
882.402	15.87
882.574	48.64
882.746	-6.66
882.918	-2.56
883.09	24.06
883.262	36.35
883.434	38.4
883.606	52.74
883.778	-12.8
883.95	105.98
884.122	-61.95
884.293	50.69
884.465	30.21
884.637	-20.99
884.809	-27.14
884.98	5.63
885.152	9.73
885.324	-31.23
885.496	-14.85
885.667	-25.09
885.839	56.83
886.011	17.92
886.182	19.97
886.354	87.55
886.525	19.97
886.697	-6.66
886.869	9.73
887.04	-23.04
887.212	-39.42
887.383	11.78
887.555	79.36
887.726	-6.66
887.897	62.98
888.069	28.16
888.24	-14.85
888.412	44.54
888.583	-23.04
888.754	-16.9
888.926	-61.95
889.097	75.26
889.268	32.26
889.44	3.58
889.611	-45.57
889.782	-14.85
889.953	3.58
890.125	40.45
890.296	-20.99
890.467	-33.28
890.638	-6.66
890.809	-0.51
890.98	-2.56
891.151	17.92
891.323	22.02
891.494	5.63
891.665	-53.76
891.836	-25.09
892.007	44.54
892.178	-8.7
892.349	-6.66
892.52	-6.66
892.691	28.16
892.862	-6.66
893.032	-27.14
893.203	17.92
893.374	7.68
893.545	-29.18
893.716	-2.56
893.887	-31.23
894.057	7.68
894.228	19.97
894.399	-31.23
894.57	56.83
894.74	28.16
894.911	-33.28
895.082	15.87
895.253	77.31
895.423	38.4
895.594	-2.56
895.764	-6.66
895.935	52.74
896.106	28.16
896.276	-51.71
896.447	26.11
896.617	85.5
896.788	22.02
896.958	44.54
897.129	26.11
897.299	44.54
897.47	28.16
897.64	46.59
897.81	54.78
897.981	46.59
898.151	-78.33
898.322	-14.85
898.492	38.4
898.662	30.21
898.832	-8.7
899.003	-10.75
899.173	-10.75
899.343	112.13
899.513	26.11
