Data from USB4F104151__54__14-30-02-231.txt Node

Date: Thu Mar 13 14:30:02 EDT 2025
User: louis
Spectrometer: USB4F10415
Trigger mode: 4
Integration Time (sec): 2.500000E-2
Scans to average: 1
Electric dark correction enabled: true
Nonlinearity correction enabled: false
Boxcar width: 0
XAxis mode: Wavelengths
Number of Pixels in Spectrum: 3648
>>>>>Begin Spectral Data<<<<<
178.204	-129.88
178.424	-129.88
178.644	-129.88
178.864	-129.88
179.084	-136.02
179.304	-15.19
179.524	60.59
179.744	-13.14
179.964	38.06
180.184	-11.09
180.404	-41.81
180.624	-31.57
180.844	103.59
181.064	31.91
181.283	9.39
181.503	-64.34
181.723	-66.39
181.943	13.48
182.163	76.97
182.383	36.01
182.602	5.29
182.822	7.34
183.042	11.43
183.262	-41.81
183.482	1.19
183.701	-39.76
183.921	79.02
184.141	33.96
184.361	89.26
184.58	50.35
184.8	23.72
185.02	54.44
185.239	79.02
185.459	62.63
185.679	5.29
185.898	-35.67
186.118	79.02
186.338	-39.76
186.557	21.67
186.777	-43.86
186.997	15.53
187.216	33.96
187.436	48.3
187.655	62.63
187.875	7.34
188.095	62.63
188.314	99.5
188.534	89.26
188.753	-4.95
188.973	23.72
189.192	56.49
189.412	-39.76
189.631	62.63
189.851	29.87
190.07	58.54
190.29	5.29
190.509	-25.43
190.729	38.06
190.948	74.92
191.168	111.78
191.387	91.31
191.607	-25.43
191.826	25.77
192.045	46.25
192.265	-56.15
192.484	25.77
192.704	58.54
192.923	13.48
193.142	115.88
193.362	95.4
193.581	-17.24
193.8	44.2
194.02	17.58
194.239	95.4
194.458	66.73
194.678	5.29
194.897	-9.05
195.116	-0.85
195.335	21.67
195.555	-4.95
195.774	15.53
195.993	56.49
196.212	-35.67
196.432	-2.9
196.651	38.06
196.87	29.87
197.089	62.63
197.308	42.15
197.528	44.2
197.747	-37.72
197.966	-27.48
198.185	13.48
198.404	31.91
198.623	1.19
198.842	31.91
199.062	81.07
199.281	70.83
199.5	21.67
199.719	-25.43
199.938	25.77
200.157	89.26
200.376	-0.85
200.595	72.87
200.814	9.39
201.033	-27.48
201.252	-0.85
201.471	31.91
201.69	122.02
201.909	72.87
202.128	50.35
202.347	31.91
202.566	40.11
202.785	-33.62
203.004	-29.52
203.223	56.49
203.442	31.91
203.661	23.72
203.879	62.63
204.098	56.49
204.317	-60.24
204.536	40.11
204.755	19.63
204.974	62.63
205.193	33.96
205.411	52.39
205.63	25.77
205.849	62.63
206.068	38.06
206.287	46.25
206.505	115.88
206.724	-21.33
206.943	-33.62
207.162	-9.05
207.381	21.67
207.599	29.87
207.818	5.29
208.037	3.24
208.255	-0.85
208.474	21.67
208.693	-41.81
208.911	31.91
209.13	42.15
209.349	58.54
209.567	-2.9
209.786	19.63
210.005	79.02
210.223	11.43
210.442	-19.29
210.661	9.39
210.879	-52.05
211.098	-4.95
211.316	-31.57
211.535	-27.48
211.753	54.44
211.972	81.07
212.191	29.87
212.409	56.49
212.628	79.02
212.846	1.19
213.065	70.83
213.283	23.72
213.502	87.21
213.72	95.4
213.938	-2.9
214.157	9.39
214.375	5.29
214.594	19.63
214.812	48.3
215.031	7.34
215.249	23.72
215.467	27.82
215.686	74.92
215.904	60.59
216.122	-0.85
216.341	5.29
216.559	56.49
216.778	50.35
216.996	62.63
217.214	-27.48
217.432	21.67
217.651	38.06
217.869	29.87
218.087	27.82
218.306	-62.29
218.524	70.83
218.742	-2.9
218.96	156.84
219.179	-2.9
219.397	46.25
219.615	56.49
219.833	13.48
220.051	-25.43
220.27	52.39
220.488	46.25
220.706	93.35
220.924	5.29
221.142	23.72
221.36	-47.96
221.578	50.35
221.796	25.77
222.015	-23.38
222.233	-35.67
222.451	115.88
222.669	-11.09
222.887	-9.05
223.105	-17.24
223.323	-2.9
223.541	17.58
223.759	97.45
223.977	48.3
224.195	-9.05
224.413	62.63
224.631	52.39
224.849	-19.29
225.067	81.07
225.285	54.44
225.503	-60.24
225.721	13.48
225.939	74.92
226.157	95.4
226.375	54.44
226.592	7.34
226.81	-2.9
227.028	103.59
227.246	109.74
227.464	17.58
227.682	25.77
227.9	31.91
228.117	42.15
228.335	31.91
228.553	87.21
228.771	21.67
228.989	36.01
229.206	109.74
229.424	-47.96
229.642	19.63
229.86	5.29
230.077	113.83
230.295	83.11
230.513	109.74
230.731	21.67
230.948	62.63
231.166	66.73
231.384	54.44
231.601	-45.91
231.819	64.68
232.037	64.68
232.254	-25.43
232.472	52.39
232.689	-74.58
232.907	-15.19
233.125	29.87
233.342	7.34
233.56	-23.38
233.777	13.48
233.995	5.29
234.213	79.02
234.43	56.49
234.648	1.19
234.865	-39.76
235.083	85.16
235.3	31.91
235.518	-2.9
235.735	40.11
235.953	89.26
236.17	95.4
236.388	-0.85
236.605	7.34
236.822	38.06
237.04	-27.48
237.257	62.63
237.475	-52.05
237.692	13.48
237.909	-4.95
238.127	46.25
238.344	76.97
238.562	-31.57
238.779	-11.09
238.996	40.11
239.214	42.15
239.431	5.29
239.648	15.53
239.865	46.25
240.083	50.35
240.3	-0.85
240.517	58.54
240.735	-11.09
240.952	52.39
241.169	89.26
241.386	5.29
241.603	-7
241.821	31.91
242.038	36.01
242.255	-17.24
242.472	66.73
242.689	33.96
242.907	31.91
243.124	42.15
243.341	40.11
243.558	-11.09
243.775	-29.52
243.992	64.68
244.209	33.96
244.426	103.59
244.643	3.24
244.86	13.48
245.078	31.91
245.295	-7
245.512	25.77
245.729	29.87
245.946	50.35
246.163	66.73
246.38	72.87
246.597	17.58
246.814	79.02
247.031	46.25
247.248	-2.9
247.464	25.77
247.681	38.06
247.898	19.63
248.115	23.72
248.332	-35.67
248.549	66.73
248.766	95.4
248.983	50.35
249.2	-11.09
249.417	-7
249.633	25.77
249.85	27.82
250.067	-31.57
250.284	7.34
250.501	97.45
250.717	31.91
250.934	31.91
251.151	40.11
251.368	48.3
251.585	33.96
251.801	21.67
252.018	-2.9
252.235	117.93
252.451	38.06
252.668	27.82
252.885	13.48
253.102	-13.14
253.318	54.44
253.535	21.67
253.752	-39.76
253.968	-64.34
254.185	-17.24
254.401	5.29
254.618	-0.85
254.835	15.53
255.051	46.25
255.268	36.01
255.484	31.91
255.701	40.11
255.917	11.43
256.134	48.3
256.351	-7
256.567	-19.29
256.784	21.67
257	5.29
257.217	89.26
257.433	97.45
257.65	13.48
257.866	66.73
258.082	-39.76
258.299	42.15
258.515	46.25
258.732	48.3
258.948	-0.85
259.165	7.34
259.381	-82.77
259.597	9.39
259.814	-35.67
260.03	50.35
260.246	25.77
260.463	23.72
260.679	68.78
260.895	56.49
261.112	83.11
261.328	29.87
261.544	33.96
261.761	105.64
261.977	38.06
262.193	-9.05
262.409	48.3
262.626	-9.05
262.842	-47.96
263.058	81.07
263.274	38.06
263.49	-23.38
263.707	-0.85
263.923	5.29
264.139	-17.24
264.355	-33.62
264.571	5.29
264.787	79.02
265.004	99.5
265.22	25.77
265.436	62.63
265.652	58.54
265.868	46.25
266.084	-66.39
266.3	-2.9
266.516	-37.72
266.732	21.67
266.948	25.77
267.164	-29.52
267.38	17.58
267.596	5.29
267.812	66.73
268.028	72.87
268.244	48.3
268.46	54.44
268.676	-35.67
268.892	68.78
269.108	-60.24
269.324	38.06
269.54	-27.48
269.756	56.49
269.972	-11.09
270.188	95.4
270.403	-21.33
270.619	46.25
270.835	99.5
271.051	7.34
271.267	27.82
271.483	9.39
271.698	136.36
271.914	29.87
272.13	60.59
272.346	25.77
272.562	25.77
272.777	136.36
272.993	7.34
273.209	-0.85
273.425	-7
273.64	-25.43
273.856	76.97
274.072	1.19
274.287	36.01
274.503	50.35
274.719	87.21
274.934	42.15
275.15	-15.19
275.366	38.06
275.581	13.48
275.797	89.26
276.012	13.48
276.228	91.31
276.444	21.67
276.659	46.25
276.875	1.19
277.09	17.58
277.306	15.53
277.521	23.72
277.737	13.48
277.952	58.54
278.168	-27.48
278.383	-21.33
278.599	-2.9
278.814	95.4
279.03	54.44
279.245	107.69
279.461	13.48
279.676	62.63
279.892	-43.86
280.107	-21.33
280.322	-43.86
280.538	56.49
280.753	15.53
280.969	-17.24
281.184	29.87
281.399	48.3
281.615	70.83
281.83	-4.95
282.045	36.01
282.26	79.02
282.476	76.97
282.691	58.54
282.906	103.59
283.122	62.63
283.337	70.83
283.552	19.63
283.767	-11.09
283.983	70.83
284.198	56.49
284.413	33.96
284.628	-2.9
284.843	13.48
285.058	68.78
285.274	17.58
285.489	64.68
285.704	46.25
285.919	-23.38
286.134	27.82
286.349	31.91
286.564	5.29
286.779	97.45
286.995	62.63
287.21	-58.2
287.425	54.44
287.64	-17.24
287.855	46.25
288.07	9.39
288.285	-0.85
288.5	38.06
288.715	42.15
288.93	9.39
289.145	56.49
289.36	66.73
289.575	15.53
289.79	-4.95
290.004	17.58
290.219	76.97
290.434	-2.9
290.649	25.77
290.864	7.34
291.079	-56.15
291.294	46.25
291.509	19.63
291.724	48.3
291.938	56.49
292.153	5.29
292.368	-17.24
292.583	93.35
292.798	74.92
293.012	40.11
293.227	29.87
293.442	56.49
293.657	70.83
293.871	42.15
294.086	62.63
294.301	103.59
294.516	64.68
294.73	101.55
294.945	-35.67
295.16	-45.91
295.374	36.01
295.589	44.2
295.804	-11.09
296.018	95.4
296.233	122.02
296.447	76.97
296.662	17.58
296.877	1.19
297.091	89.26
297.306	40.11
297.52	33.96
297.735	11.43
297.949	-33.62
298.164	107.69
298.378	17.58
298.593	72.87
298.807	-19.29
299.022	46.25
299.236	-37.72
299.451	-0.85
299.665	17.58
299.88	-9.05
300.094	-7
300.309	13.48
300.523	11.43
300.737	46.25
300.952	44.2
301.166	111.78
301.381	81.07
301.595	15.53
301.809	46.25
302.024	38.06
302.238	3.24
302.452	21.67
302.667	-39.76
302.881	95.4
303.095	29.87
303.309	99.5
303.524	25.77
303.738	-60.24
303.952	19.63
304.166	42.15
304.381	-39.76
304.595	54.44
304.809	-9.05
305.023	70.83
305.237	36.01
305.452	33.96
305.666	87.21
305.88	99.5
306.094	70.83
306.308	72.87
306.522	-19.29
306.736	21.67
306.95	44.2
307.164	23.72
307.379	-13.14
307.593	46.25
307.807	17.58
308.021	38.06
308.235	58.54
308.449	17.58
308.663	-9.05
308.877	79.02
309.091	46.25
309.305	87.21
309.519	-41.81
309.733	15.53
309.947	31.91
310.161	23.72
310.374	46.25
310.588	85.16
310.802	-2.9
311.016	38.06
311.23	-9.05
311.444	38.06
311.658	21.67
311.872	95.4
312.085	68.78
312.299	23.72
312.513	54.44
312.727	15.53
312.941	81.07
313.154	27.82
313.368	46.25
313.582	17.58
313.796	17.58
314.009	-33.62
314.223	15.53
314.437	-19.29
314.651	29.87
314.864	23.72
315.078	38.06
315.292	60.59
315.505	83.11
315.719	31.91
315.933	89.26
316.146	-25.43
316.36	42.15
316.573	50.35
316.787	27.82
317.001	3.24
317.214	31.91
317.428	76.97
317.641	-2.9
317.855	48.3
318.068	40.11
318.282	54.44
318.495	60.59
318.709	29.87
318.922	-68.44
319.136	119.98
319.349	-2.9
319.563	-2.9
319.776	5.29
319.99	31.91
320.203	40.11
320.417	-23.38
320.63	-0.85
320.843	103.59
321.057	38.06
321.27	-19.29
321.483	-47.96
321.697	42.15
321.91	27.82
322.124	89.26
322.337	5.29
322.55	-23.38
322.763	52.39
322.977	7.34
323.19	5.29
323.403	-27.48
323.617	74.92
323.83	74.92
324.043	-9.05
324.256	54.44
324.469	-35.67
324.683	33.96
324.896	15.53
325.109	89.26
325.322	56.49
325.535	111.78
325.748	62.63
325.962	54.44
326.175	74.92
326.388	64.68
326.601	46.25
326.814	103.59
327.027	-33.62
327.24	64.68
327.453	9.39
327.666	-47.96
327.879	33.96
328.092	21.67
328.305	-33.62
328.518	48.3
328.731	33.96
328.944	40.11
329.157	19.63
329.37	62.63
329.583	93.35
329.796	62.63
330.009	36.01
330.222	72.87
330.435	46.25
330.648	79.02
330.861	-41.81
331.073	23.72
331.286	3.24
331.499	38.06
331.712	17.58
331.925	13.48
332.138	-19.29
332.35	117.93
332.563	27.82
332.776	124.07
332.989	21.67
333.202	79.02
333.414	27.82
333.627	-9.05
333.84	46.25
334.053	5.29
334.265	7.34
334.478	-17.24
334.691	-19.29
334.903	31.91
335.116	23.72
335.329	58.54
335.541	58.54
335.754	38.06
335.966	23.72
336.179	17.58
336.392	5.29
336.604	95.4
336.817	17.58
337.029	42.15
337.242	-11.09
337.454	1.19
337.667	89.26
337.88	87.21
338.092	23.72
338.305	-0.85
338.517	-13.14
338.729	36.01
338.942	89.26
339.154	29.87
339.367	13.48
339.579	17.58
339.792	5.29
340.004	95.4
340.217	3.24
340.429	50.35
340.641	13.48
340.854	21.67
341.066	31.91
341.278	25.77
341.491	136.36
341.703	9.39
341.915	66.73
342.128	87.21
342.34	21.67
342.552	76.97
342.764	62.63
342.977	25.77
343.189	48.3
343.401	46.25
343.613	42.15
343.826	97.45
344.038	46.25
344.25	23.72
344.462	7.34
344.674	74.92
344.886	-19.29
345.099	62.63
345.311	36.01
345.523	46.25
345.735	-4.95
345.947	5.29
346.159	70.83
346.371	66.73
346.583	9.39
346.795	83.11
347.007	70.83
347.219	87.21
347.431	40.11
347.643	169.13
347.855	-11.09
348.067	95.4
348.279	33.96
348.491	74.92
348.703	93.35
348.915	72.87
349.127	-21.33
349.339	95.4
349.551	13.48
349.763	124.07
349.975	23.72
350.187	38.06
350.399	66.73
350.61	56.49
350.822	-2.9
351.034	29.87
351.246	72.87
351.458	-33.62
351.669	56.49
351.881	160.94
352.093	66.73
352.305	72.87
352.517	56.49
352.728	122.02
352.94	107.69
353.152	38.06
353.363	-11.09
353.575	5.29
353.787	11.43
353.999	33.96
354.21	95.4
354.422	-35.67
354.633	21.67
354.845	27.82
355.057	64.68
355.268	40.11
355.48	81.07
355.692	-2.9
355.903	-27.48
356.115	87.21
356.326	-39.76
356.538	97.45
356.749	-31.57
356.961	64.68
357.172	44.2
357.384	21.67
357.595	154.79
357.807	58.54
358.018	17.58
358.23	-35.67
358.441	177.32
358.653	46.25
358.864	21.67
359.075	38.06
359.287	70.83
359.498	46.25
359.709	136.36
359.921	138.41
360.132	46.25
360.344	62.63
360.555	54.44
360.766	66.73
360.977	25.77
361.189	33.96
361.4	-7
361.611	66.73
361.823	83.11
362.034	40.11
362.245	13.48
362.456	81.07
362.667	-66.39
362.879	83.11
363.09	23.72
363.301	50.35
363.512	-41.81
363.723	62.63
363.935	74.92
364.146	38.06
364.357	68.78
364.568	-2.9
364.779	29.87
364.99	70.83
365.201	89.26
365.412	72.87
365.623	-33.62
365.834	29.87
366.045	58.54
366.256	1.19
366.467	79.02
366.678	42.15
366.889	38.06
367.1	81.07
367.311	23.72
367.522	46.25
367.733	87.21
367.944	74.92
368.155	15.53
368.366	79.02
368.577	46.25
368.788	126.12
368.999	-2.9
369.209	40.11
369.42	89.26
369.631	81.07
369.842	38.06
370.053	60.59
370.264	66.73
370.474	81.07
370.685	62.63
370.896	119.98
371.107	33.96
371.317	23.72
371.528	33.96
371.739	60.59
371.95	95.4
372.16	-11.09
372.371	-41.81
372.582	91.31
372.792	74.92
373.003	97.45
373.214	7.34
373.424	101.55
373.635	-2.9
373.846	70.83
374.056	103.59
374.267	56.49
374.477	-7
374.688	50.35
374.898	23.72
375.109	27.82
375.319	50.35
375.53	56.49
375.74	25.77
375.951	-15.19
376.161	46.25
376.372	21.67
376.582	33.96
376.793	113.83
377.003	97.45
377.214	5.29
377.424	52.39
377.635	40.11
377.845	79.02
378.055	70.83
378.266	-43.86
378.476	146.6
378.686	-23.38
378.897	-9.05
379.107	29.87
379.317	5.29
379.528	38.06
379.738	38.06
379.948	29.87
380.158	81.07
380.369	70.83
380.579	13.48
380.789	52.39
380.999	70.83
381.21	-25.43
381.42	128.17
381.63	-21.33
381.84	113.83
382.05	33.96
382.261	66.73
382.471	89.26
382.681	-2.9
382.891	99.5
383.101	54.44
383.311	13.48
383.521	40.11
383.731	58.54
383.941	79.02
384.151	29.87
384.361	5.29
384.571	79.02
384.781	99.5
384.991	97.45
385.201	119.98
385.411	109.74
385.621	54.44
385.831	46.25
386.041	91.31
386.251	38.06
386.461	72.87
386.671	29.87
386.881	54.44
387.091	50.35
387.301	79.02
387.511	54.44
387.72	54.44
387.93	154.79
388.14	50.35
388.35	46.25
388.56	103.59
388.769	144.55
388.979	66.73
389.189	60.59
389.399	40.11
389.609	70.83
389.818	58.54
390.028	66.73
390.238	42.15
390.447	66.73
390.657	-31.57
390.867	74.92
391.076	25.77
391.286	70.83
391.496	89.26
391.705	33.96
391.915	95.4
392.125	95.4
392.334	7.34
392.544	38.06
392.753	31.91
392.963	54.44
393.172	91.31
393.382	64.68
393.591	140.46
393.801	87.21
394.01	122.02
394.22	50.35
394.429	74.92
394.639	74.92
394.848	128.17
395.058	93.35
395.267	105.64
395.477	70.83
395.686	74.92
395.895	167.08
396.105	138.41
396.314	50.35
396.524	89.26
396.733	54.44
396.942	119.98
397.152	79.02
397.361	152.74
397.57	111.78
397.78	56.49
397.989	48.3
398.198	119.98
398.407	42.15
398.617	138.41
398.826	132.26
399.035	89.26
399.244	128.17
399.453	97.45
399.663	33.96
399.872	128.17
400.081	66.73
400.29	181.42
400.499	95.4
400.708	132.26
400.917	40.11
401.127	160.94
401.336	169.13
401.545	244.9
401.754	171.18
401.963	165.03
402.172	144.55
402.381	56.49
402.59	87.21
402.799	201.9
403.008	101.55
403.217	160.94
403.426	146.6
403.635	81.07
403.844	160.94
404.053	111.78
404.262	160.94
404.471	181.42
404.68	119.98
404.888	152.74
405.097	251.05
405.306	169.13
405.515	238.76
405.724	218.28
405.933	185.51
406.142	119.98
406.35	236.71
406.559	162.98
406.768	267.43
406.977	283.81
407.185	218.28
407.394	220.33
407.603	238.76
407.812	242.85
408.02	341.16
408.229	263.33
408.438	246.95
408.646	253.09
408.855	310.44
409.064	308.39
409.272	251.05
409.481	298.15
409.69	373.92
409.898	275.62
410.107	326.82
410.315	384.16
410.524	357.54
410.733	382.12
410.941	418.98
411.15	418.98
411.358	416.93
411.567	605.35
411.775	418.98
411.984	548
412.192	455.84
412.401	513.19
412.609	533.67
412.818	619.68
413.026	636.06
413.234	574.63
413.443	548
413.651	588.96
413.86	652.45
414.068	713.89
414.276	787.61
414.485	720.03
414.693	826.53
414.901	922.78
415.11	990.36
415.318	726.18
415.526	840.86
415.734	933.02
415.943	865.44
416.151	1000.6
416.359	957.6
416.567	1014.94
416.776	1055.9
416.984	1096.86
417.192	1121.43
417.4	1176.73
417.608	1209.5
417.817	1193.11
418.025	1260.7
418.233	1465.49
418.441	1369.24
418.649	1465.49
418.857	1494.16
419.065	1520.79
419.273	1463.44
419.481	1545.36
419.689	1629.33
419.897	1799.31
420.105	1752.21
420.313	1907.85
420.521	1817.74
420.729	1973.39
420.937	1922.19
421.145	2122.89
421.353	2221.19
421.561	2278.54
421.769	2391.17
421.977	2374.79
422.185	2512
422.393	2536.58
422.601	2692.23
422.809	2710.66
423.017	2645.12
423.224	2858.11
423.432	2901.12
423.64	2915.45
423.848	3257.46
424.056	3032.19
424.263	3376.25
424.471	3318.9
424.679	3505.27
424.887	3560.56
425.094	3644.53
425.302	3742.83
425.51	3939.44
425.718	3914.86
425.925	4056.17
426.133	4125.8
426.341	4383.85
426.548	4578.4
426.756	4641.89
426.964	4627.56
427.171	4942.94
427.379	5098.59
427.586	4975.71
427.794	5176.41
428.001	5565.53
428.209	5676.12
428.417	5829.71
428.624	6036.56
428.832	5987.41
429.039	6057.04
429.247	6224.97
429.454	6747.2
429.662	6984.77
429.869	6620.23
430.076	7189.56
430.284	6687.81
430.491	7162.94
430.699	7531.58
430.906	7576.63
431.114	7705.65
431.321	7904.31
431.528	7988.27
431.736	8567.85
431.943	8909.86
432.15	8713.25
432.358	8934.43
432.565	9296.92
432.772	9282.59
432.979	9600.02
433.187	10122.26
433.394	9913.36
433.601	10681.35
433.808	10568.71
434.016	10724.36
434.223	11125.76
434.43	11748.34
434.637	11344.89
434.844	12264.43
435.052	12534.76
435.259	12239.86
435.466	12448.75
435.673	12323.82
435.88	13136.87
436.087	13669.34
436.294	13734.87
436.501	13431.77
436.708	13689.82
436.915	14201.81
437.122	14640.08
437.329	14515.15
437.537	15371.2
437.743	15512.51
437.95	15219.65
438.157	16053.17
438.364	16667.56
438.571	16634.8
438.778	16602.03
438.985	18264.98
439.192	17585.05
439.399	18101.14
439.606	17730.46
439.813	18557.84
440.02	19966.84
440.227	19479.43
440.433	19475.33
440.64	19712.89
440.847	19655.55
441.054	20323.19
441.261	21416.8
441.467	20865.9
441.674	21547.87
441.881	22588.24
442.088	22135.64
442.294	22303.57
442.501	22600.53
442.708	23087.95
442.914	23710.53
443.121	24652.59
443.328	24570.68
443.534	25957.15
443.741	25389.86
443.948	24994.61
444.154	26940.18
444.361	26346.26
444.568	27132.68
444.774	26737.43
444.981	27317
445.187	27972.35
445.394	29131.5
445.6	28472.06
445.807	31453.9
446.013	29948.64
446.22	30388.95
446.426	31828.68
446.633	32293.57
446.839	33321.65
447.046	31865.54
447.252	33325.74
447.459	33508.01
447.665	33176.24
447.871	34505.37
448.078	36127.36
448.284	34675.35
448.491	35799.69
448.697	37046.9
448.903	37403.25
449.11	37773.93
449.316	36909.69
449.522	37708.4
449.728	38652.51
449.935	38781.53
450.141	39184.98
450.347	39580.24
450.553	38578.78
450.76	39197.27
450.966	40313.41
451.172	39883.34
451.378	41165.37
451.584	40043.08
451.791	40890.94
451.997	41200.18
452.203	41841.2
452.409	41622.06
452.615	41280.05
452.821	39914.06
453.027	39406.16
453.233	41497.14
453.44	39668.3
453.646	40510.02
453.852	40354.37
454.058	41175.61
454.264	39701.07
454.47	40690.24
454.676	39465.55
454.882	41134.65
455.088	37601.9
455.294	38058.6
455.5	38257.25
455.705	39086.68
455.911	37114.48
456.117	36741.75
456.323	36004.49
456.529	34339.49
456.735	35379.85
456.941	34998.93
457.147	34144.93
457.352	33356.46
457.558	32819.89
457.764	32932.53
457.97	32152.26
458.176	31271.63
458.381	31785.67
458.587	29895.39
458.793	30069.47
458.999	28406.52
459.204	30395.1
459.41	29754.08
459.616	27585.29
459.821	27675.4
460.027	27400.97
460.233	26911.5
460.438	25439.01
460.644	25654.05
460.85	24542
461.055	24441.65
461.261	24097.59
461.466	22281.05
461.672	21621.6
461.878	22993.74
462.083	21850.97
462.289	21154.66
462.494	21099.37
462.7	20208.5
462.905	19536.77
463.111	20274.04
463.316	20267.89
463.522	19766.14
463.727	19921.79
463.932	19737.47
464.138	19475.33
464.343	19434.37
464.549	19018.63
464.754	19659.65
464.959	19348.36
465.165	19549.06
465.37	18578.32
465.575	18125.72
465.781	18942.86
465.986	18834.32
466.191	18199.44
466.397	17755.04
466.602	16982.95
466.807	17587.1
467.012	17576.86
467.218	17263.52
467.423	17163.17
467.628	17460.13
467.833	17941.4
468.038	17161.12
468.244	16823.21
468.449	17269.67
468.654	16952.23
468.859	16827.31
469.064	16745.39
469.269	16008.12
469.474	16135.09
469.679	16376.75
469.885	15993.78
470.09	16167.86
470.295	16092.09
470.5	15635.39
470.705	15592.38
470.91	15346.62
471.115	15291.33
471.32	15715.26
471.525	15242.18
471.73	14924.74
471.935	14760.91
472.139	14121.94
472.344	14529.48
472.549	14584.78
472.754	14400.46
472.959	14003.16
473.164	13827.03
473.369	13710.3
473.574	14013.4
473.778	13824.98
473.983	13599.71
474.188	13726.68
474.393	13009.89
474.598	12913.64
474.802	12884.97
475.007	12911.59
475.212	12889.06
475.417	12250.1
475.621	12489.71
475.826	12428.27
476.031	12284.91
476.235	12024.82
476.44	12028.92
476.645	11824.12
476.849	12035.06
477.054	11858.93
477.259	11584.51
477.463	11615.23
477.668	11387.9
477.872	11437.05
478.077	11314.17
478.282	11150.34
478.486	10875.91
478.691	10861.57
478.895	10710.02
479.1	10630.15
479.304	10793.99
479.509	10607.62
479.713	10677.26
479.918	10492.94
480.122	10327.05
480.326	10562.57
480.531	10392.59
480.735	10241.04
480.94	10257.42
481.144	10494.99
481.348	10026
481.553	9987.09
481.757	9862.16
481.961	10122.26
482.166	10191.89
482.37	9962.51
482.574	9849.88
482.778	9901.08
482.983	10064.91
483.187	9978.9
483.391	9813.01
483.595	9853.97
483.8	9534.49
484.004	9901.08
484.208	10083.34
484.412	9860.12
484.616	9843.73
484.821	10009.62
485.025	9774.1
485.229	9788.44
485.433	9837.59
485.637	10001.43
485.841	9841.68
486.045	9905.17
486.249	9770.01
486.453	9561.11
486.657	9874.45
486.861	9948.18
487.065	9542.68
487.269	9698.33
487.473	9636.89
487.677	9743.38
487.881	9913.36
488.085	9894.93
488.289	9569.3
488.493	9845.78
488.697	9843.73
488.901	10013.71
489.105	9647.13
489.309	9774.1
489.512	9792.53
489.716	9917.46
489.92	9849.88
490.124	9759.77
490.328	9987.09
490.531	9960.47
490.735	10056.72
490.939	9856.02
491.143	9866.26
491.346	9798.68
491.55	10023.95
491.754	9960.47
491.958	10046.48
492.161	10171.41
492.365	10126.35
492.569	10050.58
492.772	10167.31
492.976	10142.74
493.18	10365.96
493.383	10300.43
493.587	10404.88
493.79	10458.12
493.994	10173.46
494.197	10331.15
494.401	10542.09
494.605	10732.55
494.808	10972.16
495.012	10777.61
495.215	10789.89
495.419	10738.69
495.622	11058.18
495.825	10787.85
496.029	10693.64
496.232	11164.67
496.436	11066.37
496.639	11412.48
496.843	11295.74
497.046	11576.31
497.249	11750.39
497.453	11867.13
497.656	11815.93
497.859	11820.02
498.063	12194.8
498.266	12039.15
498.469	12076.02
498.673	12090.35
498.876	12444.65
499.079	12565.48
499.282	12522.48
499.485	12776.42
499.689	13013.99
499.892	13249.5
500.095	13210.59
500.298	13149.15
500.501	13261.79
500.705	13487.07
500.908	13614.04
501.111	13695.96
501.314	13964.25
501.517	14015.44
501.72	13939.67
501.923	14154.71
502.126	14504.91
502.329	14805.96
502.532	14762.95
502.735	14838.73
502.938	15158.21
503.141	15078.34
503.344	15418.3
503.547	15537.09
503.75	15856.57
503.953	15807.42
504.156	16124.85
504.359	16090.04
504.562	16063.41
504.765	16366.51
504.968	16536.49
505.17	16925.61
505.373	16853.93
505.576	17093.54
505.779	17388.45
505.982	17331.11
506.185	17683.36
506.387	17572.77
506.59	17652.64
506.793	18144.15
506.996	18359.19
507.198	18457.49
507.401	18627.47
507.604	18916.23
507.807	18822.03
508.009	19157.89
508.212	19389.31
508.415	19501.95
508.617	19745.66
508.82	20020.09
509.022	20104.06
509.225	20233.08
509.428	20276.09
509.63	20609.9
509.833	20763.5
510.035	21005.16
510.238	21125.99
510.44	21418.85
510.643	21646.18
510.845	21834.59
511.048	21953.37
511.25	22055.77
511.453	22534.99
511.655	23087.95
511.858	22393.68
512.06	23069.51
512.262	23485.25
512.465	23198.54
512.667	23747.39
512.87	23677.76
513.072	23802.69
513.274	24443.7
513.477	24511.28
513.679	24845.1
513.881	25031.47
514.084	25256.75
514.286	25244.46
514.488	25309.99
514.69	25649.96
514.893	25994.01
515.095	26172.19
515.297	26506.01
515.499	26231.58
515.701	26553.11
515.904	27083.53
516.106	27476.74
516.308	27464.46
516.51	27925.25
516.712	27785.99
516.914	28113.66
517.116	28259.07
517.318	28777.2
517.52	29045.49
517.722	29053.68
517.925	29096.69
518.127	29672.17
518.329	29620.97
518.531	29684.45
518.733	30284.51
518.935	30429.91
519.136	30051.04
519.338	30948.05
519.54	30741.21
519.742	31050.45
519.944	31136.46
520.146	31531.72
520.348	31525.58
520.55	31738.57
520.752	31713.99
520.954	32387.77
521.155	32156.35
521.357	32697.02
521.559	32768.69
521.761	33260.21
521.963	33264.3
522.164	33196.72
522.366	33315.5
522.568	33571.5
522.77	33606.31
522.971	34069.15
523.173	33835.69
523.375	34298.53
523.576	34017.96
523.778	33952.42
523.98	34509.47
524.181	34755.22
524.383	34224.8
524.584	34943.64
524.786	34966.17
524.988	35136.15
525.189	35156.63
525.391	35164.82
525.592	35531.4
525.794	35228.31
525.995	35687.05
526.197	35056.28
526.398	35480.21
526.6	36098.69
526.801	35465.87
527.003	35814.02
527.204	35785.35
527.406	36319.87
527.607	36246.15
527.808	36190.85
528.01	35574.41
528.211	36100.74
528.412	36530.81
528.614	36151.94
528.815	36244.1
529.016	36618.88
529.218	35857.03
529.419	36344.45
529.62	36244.1
529.822	36129.41
530.023	36344.45
530.224	36086.4
530.425	36461.18
530.626	35822.22
530.828	35578.51
531.029	36352.64
531.23	36127.36
531.431	35875.46
531.632	36022.92
531.833	36493.95
532.035	36121.22
532.236	35713.67
532.437	36002.44
532.638	35846.79
532.839	35838.6
533.04	36192.9
533.241	35562.12
533.442	36629.12
533.643	35867.27
533.844	35676.81
534.045	35807.88
534.246	35429.01
534.447	36366.98
534.648	35760.78
534.849	35811.98
535.05	35099.28
535.251	35424.91
535.451	35498.64
535.652	35388.05
535.853	35775.11
536.054	35267.22
536.255	35771.02
536.456	35060.37
536.657	35455.63
536.857	35338.9
537.058	34980.5
537.259	35580.56
537.46	35568.27
537.66	35336.85
537.861	35359.38
538.062	35295.89
538.263	35115.67
538.463	34482.84
538.664	35273.36
538.865	34798.23
539.065	35043.99
539.266	34781.85
539.466	35261.07
539.667	34796.18
539.868	35121.81
540.068	34595.48
540.269	34683.55
540.469	35103.38
540.67	34632.35
540.87	34704.03
541.071	34173.6
541.271	34710.17
541.472	34757.27
541.672	34368.16
541.873	34542.24
542.073	33944.23
542.274	34411.17
542.474	34345.63
542.675	34071.2
542.875	34744.98
543.075	34448.03
543.276	34296.48
543.476	34546.33
543.676	34130.59
543.877	34327.2
544.077	34263.71
544.277	34415.26
544.478	34177.7
544.678	34603.67
544.878	34085.54
545.078	34179.75
545.279	33958.56
545.479	33819.3
545.679	34204.32
545.879	34200.22
546.079	34343.58
546.28	33858.21
546.48	33874.6
546.68	34259.62
546.88	34353.82
547.08	34106.02
547.28	34099.87
547.48	33878.69
547.68	34210.46
547.88	34075.3
548.081	33948.32
548.281	34116.26
548.481	33827.49
548.681	34212.51
548.881	34046.63
549.081	34040.48
549.28	33997.48
549.48	34249.38
549.68	33729.19
549.88	34548.38
550.08	34020
550.28	33964.71
550.48	34003.62
550.68	34034.34
550.88	34218.66
551.08	33911.46
551.279	34386.59
551.479	33747.62
551.679	34185.89
551.879	34153.12
552.079	34065.06
552.278	34050.72
552.478	34081.44
552.678	34282.14
552.878	34362.01
553.077	33956.52
553.277	33821.35
553.477	34343.58
553.676	33968.8
553.876	34060.96
554.076	33890.98
554.275	33872.55
554.475	34187.94
554.674	34548.38
554.874	34286.24
555.074	34142.88
555.273	34394.78
555.473	34599.58
555.672	34230.94
555.872	34529.95
556.071	34314.91
556.271	34669.21
556.47	33995.43
556.67	34216.61
556.869	34355.87
557.068	34417.31
557.268	34321.05
557.467	34480.8
557.667	34478.75
557.866	34335.39
558.065	34212.51
558.265	34173.6
558.464	34007.72
558.663	34439.84
558.863	34210.46
559.062	34421.41
559.261	34103.97
559.461	34708.12
559.66	33907.37
559.859	34448.03
560.058	33827.49
560.258	34081.44
560.457	33954.47
560.656	34441.89
560.855	34179.75
561.054	34534.04
561.253	34640.54
561.453	33981.09
561.652	34423.45
561.851	34556.57
562.05	34267.81
562.249	34022.05
562.448	34206.37
562.647	34433.69
562.846	34142.88
563.045	34007.72
563.244	34206.37
563.443	34663.07
563.642	33813.16
563.841	33850.02
564.04	33563.31
564.239	34269.86
564.438	33936.04
564.637	33874.6
564.836	34097.83
565.035	33665.7
565.234	34089.63
565.432	33729.19
565.631	33764.01
565.83	33958.56
566.029	33766.06
566.228	33649.32
566.427	33624.75
566.625	33399.47
566.824	33215.15
567.023	33739.43
567.222	33168.05
567.42	33385.13
567.619	33106.61
567.818	33012.4
568.016	33252.02
568.215	33514.16
568.414	32985.78
568.612	33219.25
568.811	33428.14
569.01	33155.76
569.208	32764.6
569.407	33245.87
569.605	32498.36
569.804	33430.19
570.002	32717.5
570.201	32764.6
570.4	32582.33
570.598	32217.79
570.797	32058.05
570.995	32498.36
571.193	32172.74
571.392	32533.18
571.59	32000.71
571.789	32119.49
571.987	32350.91
572.186	31621.83
572.384	31666.89
572.582	31918.79
572.781	31781.57
572.979	31476.43
573.177	31789.77
573.376	31728.33
573.574	31388.36
573.772	31640.26
573.971	31019.73
574.169	31261.39
574.367	31453.9
574.565	31220.43
574.763	31279.82
574.962	30886.61
575.16	30636.76
575.358	31050.45
575.556	30597.85
575.754	30784.21
575.952	30319.32
576.151	30614.23
576.349	30364.38
576.547	30321.37
576.745	30290.65
576.943	30552.79
577.141	30587.61
577.339	30139.1
577.537	30026.46
577.735	30333.66
577.933	29942.5
578.131	29874.91
578.329	29903.59
578.527	29547.24
578.725	29733.6
578.923	29524.71
579.121	29240.04
579.319	29336.3
579.516	29588.2
579.714	29588.2
579.912	29356.78
580.11	29051.63
580.308	28941.04
580.506	28947.18
580.704	28429.05
580.901	28861.17
581.099	28934.9
581.297	28543.74
581.495	28709.62
581.692	28461.82
581.89	28226.3
582.088	28408.57
582.285	28373.75
582.483	28216.06
582.681	28373.75
582.878	28164.86
583.076	28093.18
583.274	28232.44
583.471	27951.87
583.669	28136.19
583.866	27644.68
584.064	27828.99
584.262	27489.03
584.459	27382.54
584.657	27529.99
584.854	27677.44
585.052	27288.33
585.249	27480.84
585.447	27558.66
585.644	27314.95
585.841	27382.54
586.039	27482.89
586.236	26901.26
586.434	27030.29
586.631	26944.27
586.828	26778.39
587.026	26977.04
587.223	26759.95
587.42	26565.4
587.618	26788.63
587.815	26315.55
588.012	26841.87
588.21	26598.16
588.407	26532.63
588.604	26358.55
588.801	26176.28
588.999	26381.08
589.196	26250.01
589.393	26327.83
589.59	25807.65
589.787	26008.35
589.984	25914.14
590.182	25830.18
590.379	25801.5
590.576	25674.53
590.773	25905.95
590.97	25428.77
591.167	26018.59
591.364	25367.34
591.561	25643.81
591.758	25383.72
591.955	25615.14
592.152	25316.14
592.349	25387.82
592.546	25260.84
592.743	25375.53
592.94	24910.64
593.137	25023.28
593.334	25408.29
593.531	24746.8
593.727	25146.15
593.924	25027.37
594.121	24865.58
594.318	25039.66
594.515	24785.71
594.712	25152.3
594.908	24918.83
595.105	24789.81
595.302	24580.92
595.499	24754.99
595.696	24662.83
595.892	24542
596.089	24752.94
596.286	24793.9
596.482	24369.97
596.679	24542
596.876	24826.67
597.072	24402.74
597.269	24523.57
597.466	24714.03
597.662	23991.1
597.859	24599.35
598.055	24509.24
598.252	24384.31
598.448	24351.54
598.645	24552.24
598.841	23984.96
599.038	24335.16
599.234	24245.05
599.431	24245.05
599.627	24116.03
599.824	24566.58
600.02	24406.84
600.217	24431.41
600.413	24199.99
600.609	24220.47
600.806	23999.29
601.002	24269.62
601.198	23845.69
601.395	24130.36
601.591	23814.98
601.787	24281.91
601.984	24113.98
602.18	24574.77
602.376	24179.51
602.572	24306.49
602.769	24486.71
602.965	24109.88
603.161	24357.69
603.357	24146.75
603.553	24103.74
603.75	24109.88
603.946	24134.46
604.142	24345.4
604.338	24124.22
604.534	24453.94
604.73	24372.02
604.926	24593.2
605.122	24316.73
605.318	24517.43
605.514	24306.49
605.71	24505.14
605.906	24027.96
606.102	24474.42
606.298	24574.77
606.494	24703.79
606.69	24724.27
606.886	24554.29
607.082	24228.66
607.278	24533.81
607.474	24372.02
607.67	24890.16
607.866	24345.4
608.062	25131.82
608.257	24793.9
608.453	24806.19
608.649	24847.15
608.845	24654.64
609.041	24832.82
609.236	24912.69
609.432	25049.9
609.628	24980.27
609.824	25189.16
610.019	25209.64
610.215	24974.13
610.411	24978.22
610.606	25170.73
610.802	25183.02
610.998	25117.48
611.193	25332.52
611.389	25062.19
611.584	25262.89
611.78	24959.79
611.976	25232.17
612.171	25248.55
612.367	25013.04
612.562	25297.7
612.758	25154.35
612.953	25209.64
613.149	25561.89
613.344	25240.36
613.539	25887.52
613.735	25582.37
613.93	25795.36
614.126	25402.15
614.321	26028.83
614.517	25586.47
614.712	25604.9
614.907	25539.36
615.103	25914.14
615.298	25738.02
615.493	25783.07
615.688	25379.62
615.884	26184.48
616.079	25338.66
616.274	25527.08
616.47	25768.74
616.665	25709.35
616.86	25750.31
617.055	25697.06
617.25	25684.77
617.445	26014.49
617.641	25281.32
617.836	25942.81
618.031	25291.56
618.226	25897.76
618.421	25262.89
618.616	25496.36
618.811	25371.43
619.006	25400.1
619.201	24894.25
619.396	25594.66
619.591	25072.43
619.786	25459.49
619.981	24744.75
620.176	25127.72
620.371	24705.84
620.566	24996.65
620.761	24816.43
620.956	24855.34
621.151	24451.89
621.346	24662.83
621.541	24232.76
621.735	24570.68
621.93	24245.05
622.125	24159.03
622.32	24185.66
622.515	24337.21
622.709	23853.89
622.904	23984.96
623.099	23892.8
623.294	23870.27
623.488	23417.67
623.683	23532.36
623.878	23575.36
624.072	23663.43
624.267	23323.46
624.462	23417.67
624.656	23014.22
624.851	23145.29
625.046	22928.2
625.24	22932.3
625.435	22537.04
625.629	22678.35
625.824	22532.95
626.018	22567.76
626.213	22133.59
626.407	22356.82
626.602	21830.49
626.796	22094.68
626.991	22016.86
627.185	21656.42
627.38	21871.45
627.574	21748.57
627.768	21248.87
627.963	21267.3
628.157	21377.89
628.352	21248.87
628.546	21029.74
628.74	21197.67
628.935	21222.25
629.129	20925.29
629.323	20585.33
629.517	20745.07
629.712	20413.3
629.906	20640.62
630.1	20347.76
630.294	20026.23
630.489	20079.48
630.683	20118.39
630.877	19780.48
631.071	19897.21
631.265	19966.84
631.459	19540.86
631.653	19678.08
631.848	19598.21
632.042	19536.77
632.236	19665.79
632.43	19049.35
632.624	19168.13
632.818	18887.56
633.012	18901.9
633.206	18856.84
633.4	18822.03
633.594	18578.32
633.788	18539.41
633.982	18428.82
634.176	18437.01
634.369	17986.46
634.563	18461.58
634.757	18062.23
634.951	18264.98
635.145	18088.85
635.339	18051.99
635.533	17730.46
635.726	17759.13
635.92	17540
636.114	17494.94
636.308	17550.24
636.501	17392.55
636.695	17331.11
636.889	17212.32
637.083	17167.27
637.276	16597.93
637.47	16694.19
637.664	16540.59
637.857	16628.65
638.051	16655.28
638.244	16421.81
638.438	16354.23
638.632	16333.75
638.825	16298.93
639.019	15975.35
639.212	16018.36
639.406	15889.34
639.599	16040.89
639.793	16110.52
639.986	15707.07
640.18	15852.47
640.373	15684.54
640.567	15147.97
640.76	15430.59
640.954	15219.65
641.147	14961.61
641.34	14840.78
641.534	14793.67
641.727	15107.01
641.92	14756.81
642.114	14599.12
642.307	14656.46
642.5	14623.69
642.694	14255.06
642.887	14267.34
643.08	14388.18
643.273	14316.5
643.467	14271.44
643.66	14033.88
643.853	13927.38
644.046	13790.17
644.239	13741.02
644.432	13505.5
644.626	13624.28
644.819	13546.46
645.012	13507.55
645.205	13329.38
645.398	13439.97
645.591	13143.01
645.784	13149.15
645.977	13013.99
646.17	12997.6
646.363	12755.94
646.556	12805.1
646.749	12864.49
646.942	12704.74
647.135	12403.69
647.328	12631.02
647.521	12465.13
647.714	12524.52
647.907	12129.27
648.099	12088.31
648.292	12164.08
648.485	12151.79
648.678	12016.63
648.871	11998.2
649.064	11916.28
649.256	12106.74
649.449	11850.74
649.642	11586.55
649.835	11709.43
650.027	11594.75
650.22	11705.34
650.413	11377.66
650.605	11494.4
650.798	11361.28
650.991	11160.58
651.183	11248.64
651.376	11232.26
651.568	11166.72
651.761	11105.28
651.954	11052.03
652.146	10937.35
652.339	10906.63
652.531	10789.89
652.724	10705.93
652.916	10671.11
653.109	10771.46
653.301	10607.62
653.494	10660.87
653.686	10429.45
653.879	10480.65
654.071	10361.87
654.263	10261.52
654.456	10107.92
654.648	10282
654.84	10249.23
655.033	10069.01
655.225	9860.12
655.417	9978.9
655.61	10073.1
655.802	9782.29
655.994	9868.31
656.186	9921.56
656.379	9634.84
656.571	9710.61
656.763	9393.18
656.955	9505.82
657.148	9438.23
657.34	9565.21
657.532	9409.56
657.724	9421.85
657.916	9454.62
658.108	9278.49
658.3	9231.39
658.492	9376.8
658.684	9081.89
658.876	9020.45
659.068	8985.63
659.26	9008.16
659.452	8985.63
659.644	8903.71
659.836	8766.5
660.028	8832.04
660.22	8641.57
660.412	8762.4
660.604	8721.45
660.796	8688.68
660.988	8516.65
661.18	8387.63
661.372	8557.61
661.563	8469.55
661.755	8195.12
661.947	8272.94
662.139	8098.86
662.331	8203.31
662.522	8102.96
662.714	8270.89
662.906	7926.83
663.097	8102.96
663.289	7918.64
663.481	7857.2
663.673	8041.52
663.864	7795.76
664.056	7789.62
664.247	7672.89
664.439	7748.66
664.631	7562.3
664.822	7705.65
665.014	7447.61
665.205	7619.64
665.397	7568.44
665.588	7349.31
665.78	7337.02
665.971	7365.69
666.163	7334.97
666.354	7541.82
666.546	7431.23
666.737	7334.97
666.929	7263.29
667.12	7066.69
667.311	7226.43
667.503	7091.26
667.694	7070.78
667.885	6984.77
668.077	7019.58
668.268	6757.44
668.459	7001.15
668.651	6954.05
668.842	6835.27
669.033	6792.26
669.224	6739.01
669.416	6972.48
669.607	6673.48
669.798	6609.99
669.989	6704.2
670.18	6689.86
670.371	6755.4
670.563	6394.95
670.754	6573.13
670.945	6648.9
671.136	6487.11
671.327	6480.97
671.518	6431.82
671.709	6507.59
671.9	6452.3
672.091	6440.01
672.282	6364.23
672.473	6274.12
672.664	6413.38
672.855	6190.16
673.046	6366.28
673.237	6198.35
673.428	6157.39
673.619	6235.21
673.809	6218.83
674	6153.29
674.191	6153.29
674.382	6075.47
674.573	5954.64
674.764	5983.31
674.954	6054.99
675.145	5987.41
675.336	6102.09
675.527	5897.3
675.717	6104.14
675.908	5944.4
676.099	5960.78
676.289	6057.04
676.48	5829.71
676.671	5923.92
676.861	5821.52
677.052	5842
677.243	5895.25
677.433	5866.58
677.624	5848.15
677.814	5977.17
678.005	5932.11
678.195	5858.39
678.386	5837.91
678.576	5686.36
678.767	5862.48
678.957	5768.27
679.148	5825.62
679.338	5692.5
679.529	5946.45
679.719	5600.34
679.909	5899.34
680.1	5676.12
680.29	5712.98
680.481	5690.45
680.671	5676.12
680.861	5669.97
681.052	5708.88
681.242	5506.13
681.432	5596.25
681.622	5526.61
681.813	5459.03
682.003	5604.44
682.193	5559.38
682.383	5518.42
682.573	5534.81
682.764	5422.17
682.954	5545.05
683.144	5526.61
683.334	5538.9
683.524	5491.8
683.714	5473.37
683.904	5373.02
684.094	5348.44
684.284	5581.91
684.474	5526.61
684.664	5489.75
684.854	5463.13
685.044	5379.16
685.234	5413.98
685.424	5479.51
685.614	5405.78
685.804	5327.96
685.994	5272.67
686.184	5350.49
686.374	5502.04
686.564	5268.57
686.753	5264.47
686.943	5143.64
687.133	5334.11
687.323	5280.86
687.513	5319.77
687.702	5151.84
687.892	5219.42
688.082	5131.36
688.272	5149.79
688.461	5241.95
688.651	5239.9
688.841	5051.49
689.03	5190.75
689.22	5119.07
689.41	4944.99
689.599	5119.07
689.789	5176.41
689.979	5117.02
690.168	5108.83
690.358	4944.99
690.547	5059.68
690.737	5024.86
690.926	5010.53
691.116	4844.64
691.305	4899.94
691.495	5002.33
691.684	4928.61
691.874	4838.5
692.063	4873.31
692.252	4830.3
692.442	4996.19
692.631	4674.66
692.82	4834.4
693.01	4695.14
693.199	4883.55
693.388	4625.51
693.578	4863.07
693.767	4867.17
693.956	4670.56
694.146	4559.97
694.335	4709.47
694.524	4635.75
694.713	4627.56
694.902	4596.84
695.092	4772.96
695.281	4609.12
695.47	4756.58
695.659	4486.25
695.848	4783.2
696.037	4734.05
696.226	4693.09
696.415	4656.23
696.604	4576.36
696.793	4590.69
696.982	4605.03
697.171	4615.27
697.36	4594.79
697.549	4527.21
697.738	4277.35
697.927	4357.22
698.116	4437.09
698.305	4519.01
698.494	4392.04
698.683	4445.29
698.872	4445.29
699.061	4375.66
699.25	4504.68
699.438	4428.9
699.627	4283.5
699.816	4439.14
700.005	4281.45
700.193	4232.3
700.382	4351.08
700.571	4332.65
700.76	4363.37
700.948	4250.73
701.137	4314.22
701.326	4275.31
701.514	4363.37
701.703	4269.16
701.892	4162.67
702.08	4162.67
702.269	4156.52
702.457	4158.57
702.646	4248.68
702.834	4035.69
703.023	4263.02
703.212	4095.08
703.4	4125.8
703.589	3933.29
703.777	4136.04
703.965	4002.93
704.154	4152.43
704.342	3937.39
704.531	3988.59
704.719	4000.88
704.907	4187.24
705.096	3847.28
705.284	4045.93
705.472	3990.64
705.661	3923.05
705.849	4068.46
706.037	3961.97
706.226	3863.66
706.414	3961.97
706.602	3888.24
706.79	3970.16
706.979	3933.29
707.167	3902.58
707.355	3910.77
707.543	4011.12
707.731	3886.19
707.919	3902.58
708.107	3767.41
708.296	3695.73
708.484	3777.65
708.672	3894.38
708.86	3783.79
709.048	3732.59
709.236	3728.5
709.424	3781.74
709.612	3677.3
709.8	3828.85
709.988	3818.61
710.176	3703.92
710.364	3667.06
710.551	3691.63
710.739	3619.96
710.927	3748.98
711.115	3765.36
711.303	3654.77
711.491	3535.99
711.679	3535.99
711.866	3439.73
712.054	3519.6
712.242	3574.9
712.43	3589.24
712.617	3558.52
712.805	3507.32
712.993	3503.22
713.181	3398.77
713.368	3386.49
713.556	3642.48
713.744	3433.59
713.931	3505.27
714.119	3413.11
714.306	3460.21
714.494	3388.53
714.682	3363.96
714.869	3458.17
715.057	3423.35
715.244	3380.34
715.432	3411.06
715.619	3331.19
715.807	3320.95
715.994	3331.19
716.182	3339.38
716.369	3380.34
716.556	3306.62
716.744	3171.45
716.931	3224.7
717.119	3363.96
717.306	3316.86
717.493	3200.12
717.681	3136.63
717.868	3212.41
718.055	3163.26
718.242	3095.68
718.43	3228.79
718.617	3204.22
718.804	3118.2
718.991	3019.9
719.179	3126.39
719.366	3308.66
719.553	3175.55
719.74	3019.9
719.927	3204.22
720.114	3204.22
720.301	3150.97
720.488	3064.96
720.676	2974.85
720.863	2993.28
721.05	3140.73
721.237	3112.06
721.424	3060.86
721.611	3175.55
721.798	2974.85
721.985	3015.8
722.172	3054.72
722.358	2915.45
722.545	2974.85
722.732	3007.61
722.919	2987.13
723.106	2972.8
723.293	2866.3
723.48	2874.49
723.667	2790.53
723.853	2780.29
724.04	2997.37
724.227	2952.32
724.414	2888.83
724.6	2884.73
724.787	2890.88
724.974	2929.79
725.161	2831.49
725.347	2815.1
725.534	2864.25
725.72	2708.61
725.907	2841.73
726.094	2765.95
726.28	2802.82
726.467	2802.82
726.653	2804.86
726.84	2907.26
727.027	2958.46
727.213	2780.29
727.4	2800.77
727.586	2753.66
727.773	2655.36
727.959	2811.01
728.145	2823.3
728.332	2684.03
728.518	2620.55
728.705	2749.57
728.891	2636.93
729.077	2694.27
729.264	2671.75
729.45	2512
729.636	2806.91
729.823	2634.88
730.009	2688.13
730.195	2833.54
730.382	2585.73
730.568	2643.07
730.754	2634.88
730.94	2516.1
731.126	2552.96
731.313	2624.64
731.499	2622.59
731.685	2587.78
731.871	2544.77
732.057	2626.69
732.243	2567.3
732.429	2483.33
732.615	2544.77
732.801	2528.39
732.987	2610.31
733.173	2483.33
733.359	2503.81
733.545	2532.48
733.731	2509.96
733.917	2505.86
734.103	2522.24
734.289	2555.01
734.475	2485.38
734.661	2454.66
734.847	2481.28
735.033	2421.89
735.219	2471.04
735.404	2393.22
735.59	2385.03
735.776	2333.83
735.962	2514.05
736.148	2423.94
736.333	2430.09
736.519	2380.93
736.705	2366.6
736.89	2282.63
737.076	2382.98
737.262	2327.69
737.447	2417.8
737.633	2286.73
737.819	2481.28
738.004	2344.07
738.19	2258.06
738.375	2344.07
738.561	2358.41
738.747	2344.07
738.932	2186.38
739.118	2358.41
739.303	2311.3
739.489	2229.38
739.674	2176.14
739.859	2186.38
740.045	2161.8
740.23	2227.34
740.416	2294.92
740.601	2204.81
740.786	2176.14
740.972	2153.61
741.157	2188.43
741.342	2151.56
741.528	1993.87
741.713	2116.75
741.898	2169.99
742.084	2100.36
742.269	2151.56
742.454	2073.74
742.639	2118.79
742.824	2065.55
743.01	2110.6
743.195	2126.99
743.38	2065.55
743.565	1930.38
743.75	2020.49
743.935	1965.2
744.12	1963.15
744.305	1909.9
744.49	1946.76
744.675	1991.82
744.86	1969.29
745.045	2055.31
745.23	1993.87
745.415	1905.81
745.6	2002.06
745.785	1873.04
745.97	1926.29
746.155	1901.71
746.34	1967.24
746.525	1823.89
746.71	1950.86
746.895	1914
747.079	1881.23
747.264	1850.51
747.449	1852.56
747.634	1889.42
747.819	1819.79
748.003	1686.67
748.188	1754.26
748.373	1850.51
748.557	1797.26
748.742	1717.39
748.927	1766.54
749.111	1754.26
749.296	1692.82
749.481	1643.67
749.665	1698.96
749.85	1670.29
750.034	1602.71
750.219	1664.15
750.404	1614.99
750.588	1688.72
750.773	1582.23
750.957	1719.44
751.141	1553.55
751.326	1551.51
751.51	1512.6
751.695	1580.18
751.879	1492.12
752.064	1574.03
752.248	1483.92
752.432	1559.7
752.617	1571.99
752.801	1404.05
752.985	1479.83
753.17	1512.6
753.354	1402.01
753.538	1481.88
753.722	1389.72
753.907	1418.39
754.091	1420.44
754.275	1453.2
754.459	1440.92
754.643	1406.1
754.828	1438.87
755.012	1422.48
755.196	1391.77
755.38	1397.91
755.564	1361.05
755.748	1359
755.932	1373.33
756.116	1350.81
756.3	1326.23
756.484	1275.03
756.668	1383.57
756.852	1291.41
757.036	1242.26
757.22	1229.98
757.404	1234.07
757.588	1152.15
757.772	1299.61
757.956	1193.11
758.14	1225.88
758.323	1184.92
758.507	1103
758.691	1129.63
758.875	1242.26
759.059	1197.21
759.242	1047.71
759.426	1244.31
759.61	1201.3
759.794	1135.77
759.977	1135.77
760.161	1234.07
760.345	1184.92
760.528	1152.15
760.712	1107.1
760.895	1164.44
761.079	1164.44
761.263	1094.81
761.446	1043.61
761.63	1066.14
761.813	1139.87
761.997	1012.89
762.18	1105.05
762.364	1078.43
762.547	1037.47
762.731	996.51
762.914	1100.95
763.098	1029.27
763.281	1019.04
763.464	943.26
763.648	1037.47
763.831	1021.08
764.015	965.79
764.198	1033.37
764.381	998.56
764.564	982.17
764.748	988.32
764.931	1006.75
765.114	955.55
765.297	1090.71
765.481	890.01
765.664	1082.52
765.847	943.26
766.03	1027.23
766.213	885.92
766.397	973.98
766.58	953.5
766.763	1035.42
766.946	887.97
767.129	1039.51
767.312	885.92
767.495	922.78
767.678	971.93
767.861	875.68
768.044	980.12
768.227	984.22
768.41	906.4
768.593	965.79
768.776	873.63
768.959	996.51
769.142	982.17
769.324	994.46
769.507	883.87
769.69	875.68
769.873	898.2
770.056	963.74
770.239	892.06
770.421	900.25
770.604	832.67
770.787	875.68
770.97	865.44
771.152	804
771.335	871.58
771.518	867.49
771.7	914.59
771.883	892.06
772.066	873.63
772.248	873.63
772.431	890.01
772.613	859.29
772.796	898.2
772.978	836.77
773.161	844.96
773.343	830.62
773.526	887.97
773.708	705.7
773.891	775.33
774.073	758.94
774.256	703.65
774.438	867.49
774.621	697.5
774.803	832.67
774.985	738.46
775.168	797.85
775.35	754.85
775.532	844.96
775.715	709.79
775.897	726.18
776.079	578.72
776.261	722.08
776.444	781.47
776.626	685.22
776.808	603.3
776.99	619.68
777.173	658.59
777.355	687.26
777.537	648.35
777.719	672.93
777.901	636.06
778.083	691.36
778.265	640.16
778.447	701.6
778.629	603.3
778.811	703.65
778.993	611.49
779.175	586.91
779.357	646.3
779.539	548
779.721	523.43
779.903	556.19
780.085	578.72
780.267	607.39
780.449	597.15
780.631	586.91
780.812	662.69
780.994	490.66
781.176	595.11
781.358	607.39
781.54	586.91
781.721	541.86
781.903	601.25
782.085	521.38
782.267	599.2
782.448	531.62
782.63	498.85
782.812	504.99
782.993	545.95
783.175	513.19
783.357	629.92
783.538	482.47
783.72	478.37
783.901	484.52
784.083	523.43
784.264	521.38
784.446	502.95
784.627	523.43
784.809	472.23
784.99	558.24
785.172	478.37
785.353	507.04
785.535	482.47
785.716	408.74
785.897	439.46
786.079	482.47
786.26	423.08
786.441	431.27
786.623	406.69
786.804	545.95
786.985	408.74
787.167	455.84
787.348	404.64
787.529	529.57
787.71	521.38
787.891	459.94
788.073	345.25
788.254	328.87
788.435	447.65
788.616	441.51
788.797	345.25
788.978	433.32
789.159	390.31
789.34	461.99
789.522	365.73
789.703	365.73
789.884	410.79
790.065	367.78
790.246	507.04
790.427	394.4
790.607	375.97
790.788	378.02
790.969	369.83
791.15	308.39
791.331	312.49
791.512	306.34
791.693	416.93
791.874	447.65
792.054	382.12
792.235	390.31
792.416	347.3
792.597	375.97
792.778	300.2
792.958	332.97
793.139	324.77
793.32	326.82
793.5	380.07
793.681	357.54
793.862	404.64
794.042	337.06
794.223	193.7
794.404	283.81
794.584	287.91
794.765	296.1
794.945	308.39
795.126	292.01
795.306	406.69
795.487	326.82
795.667	273.57
795.848	218.28
796.028	302.25
796.209	312.49
796.389	302.25
796.57	326.82
796.75	195.75
796.93	361.64
797.111	259.24
797.291	308.39
797.471	324.77
797.652	259.24
797.832	277.67
798.012	302.25
798.192	285.86
798.373	208.04
798.553	255.14
798.733	292.01
798.913	238.76
799.093	292.01
799.274	238.76
799.454	283.81
799.634	283.81
799.814	326.82
799.994	302.25
800.174	312.49
800.354	226.47
800.534	242.85
800.714	234.66
800.894	222.38
801.074	99.5
801.254	210.09
801.434	230.57
801.614	222.38
801.794	195.75
801.974	824.48
802.154	201.9
802.334	242.85
802.514	193.7
802.693	240.81
802.873	165.03
803.053	242.85
803.233	246.95
803.413	246.95
803.592	222.38
803.772	181.42
803.952	216.23
804.131	201.9
804.311	261.29
804.491	277.67
804.67	249
804.85	210.09
805.03	201.9
805.209	263.33
805.389	214.18
805.568	177.32
805.748	189.61
805.928	265.38
806.107	261.29
806.287	236.71
806.466	169.13
806.646	173.22
806.825	156.84
807.004	203.94
807.184	136.36
807.363	162.98
807.543	175.27
807.722	154.79
807.901	277.67
808.081	226.47
808.26	111.78
808.439	201.9
808.619	93.35
808.798	195.75
808.977	240.81
809.156	193.7
809.336	175.27
809.515	179.37
809.694	230.57
809.873	208.04
810.052	197.8
810.231	179.37
810.411	183.46
810.59	152.74
810.769	181.42
810.948	144.55
811.127	103.59
811.306	146.6
811.485	115.88
811.664	117.93
811.843	136.36
812.022	154.79
812.201	201.9
812.38	117.93
812.559	130.22
812.737	152.74
812.916	130.22
813.095	115.88
813.274	179.37
813.453	193.7
813.632	214.18
813.811	220.33
813.989	134.31
814.168	169.13
814.347	79.02
814.526	97.45
814.704	162.98
814.883	171.18
815.062	93.35
815.24	165.03
815.419	91.31
815.598	132.26
815.776	70.83
815.955	214.18
816.133	113.83
816.312	177.32
816.49	144.55
816.669	48.3
816.847	128.17
817.026	138.41
817.204	126.12
817.383	103.59
817.561	87.21
817.74	122.02
817.918	152.74
818.097	111.78
818.275	87.21
818.453	169.13
818.632	154.79
818.81	136.36
818.988	97.45
819.167	64.68
819.345	124.07
819.523	144.55
819.701	87.21
819.879	148.65
820.058	144.55
820.236	132.26
820.414	91.31
820.592	119.98
820.77	109.74
820.948	99.5
821.127	109.74
821.305	154.79
821.483	154.79
821.661	115.88
821.839	154.79
822.017	70.83
822.195	-23.38
822.373	160.94
822.551	83.11
822.729	95.4
822.907	25.77
823.085	107.69
823.262	115.88
823.44	72.87
823.618	79.02
823.796	154.79
823.974	83.11
824.152	97.45
824.329	97.45
824.507	60.59
824.685	136.36
824.863	79.02
825.04	91.31
825.218	136.36
825.396	29.87
825.574	64.68
825.751	103.59
825.929	48.3
826.107	142.5
826.284	148.65
826.462	60.59
826.639	81.07
826.817	68.78
826.994	113.83
827.172	148.65
827.349	52.39
827.527	113.83
827.704	152.74
827.882	134.31
828.059	101.55
828.237	29.87
828.414	162.98
828.591	87.21
828.769	68.78
828.946	89.26
829.124	111.78
829.301	44.2
829.478	136.36
829.655	87.21
829.833	46.25
830.01	95.4
830.187	181.42
830.364	136.36
830.542	91.31
830.719	126.12
830.896	79.02
831.073	-7
831.25	97.45
831.427	156.84
831.604	72.87
831.782	31.91
831.959	42.15
832.136	60.59
832.313	124.07
832.49	70.83
832.667	23.72
832.844	25.77
833.021	62.63
833.198	62.63
833.374	79.02
833.551	56.49
833.728	107.69
833.905	124.07
834.082	-37.72
834.259	83.11
834.436	60.59
834.612	113.83
834.789	46.25
834.966	74.92
835.143	70.83
835.319	62.63
835.496	79.02
835.673	111.78
835.85	38.06
836.026	52.39
836.203	58.54
836.38	-21.33
836.556	-0.85
836.733	113.83
836.909	85.16
837.086	13.48
837.262	-19.29
837.439	105.64
837.616	50.35
837.792	105.64
837.968	89.26
838.145	-2.9
838.321	76.97
838.498	44.2
838.674	31.91
838.851	48.3
839.027	54.44
839.203	-19.29
839.38	113.83
839.556	66.73
839.732	154.79
839.909	21.67
840.085	38.06
840.261	50.35
840.437	48.3
840.614	46.25
840.79	128.17
840.966	79.02
841.142	-27.48
841.318	54.44
841.494	136.36
841.671	58.54
841.847	-15.19
842.023	97.45
842.199	62.63
842.375	79.02
842.551	-52.05
842.727	50.35
842.903	95.4
843.079	21.67
843.255	83.11
843.431	42.15
843.607	81.07
843.783	21.67
843.959	111.78
844.134	64.68
844.31	25.77
844.486	13.48
844.662	-2.9
844.838	9.39
845.013	54.44
845.189	154.79
845.365	60.59
845.541	64.68
845.716	-31.57
845.892	62.63
846.068	9.39
846.244	-2.9
846.419	40.11
846.595	-31.57
846.77	-33.62
846.946	56.49
847.122	-2.9
847.297	50.35
847.473	48.3
847.648	-52.05
847.824	91.31
847.999	-52.05
848.175	44.2
848.35	144.55
848.526	-2.9
848.701	31.91
848.876	54.44
849.052	70.83
849.227	38.06
849.403	64.68
849.578	134.31
849.753	5.29
849.929	68.78
850.104	1.19
850.279	21.67
850.454	42.15
850.63	122.02
850.805	-35.67
850.98	58.54
851.155	5.29
851.33	81.07
851.505	-29.52
851.681	101.55
851.856	-7
852.031	83.11
852.206	70.83
852.381	-68.44
852.556	54.44
852.731	56.49
852.906	-23.38
853.081	99.5
853.256	21.67
853.431	1.19
853.606	29.87
853.781	7.34
853.956	50.35
854.131	23.72
854.305	5.29
854.48	13.48
854.655	87.21
854.83	-21.33
855.005	-9.05
855.18	21.67
855.354	99.5
855.529	-27.48
855.704	-33.62
855.879	-7
856.053	21.67
856.228	38.06
856.403	-27.48
856.577	113.83
856.752	-66.39
856.926	13.48
857.101	54.44
857.276	17.58
857.45	-4.95
857.625	56.49
857.799	-9.05
857.974	38.06
858.148	3.24
858.323	15.53
858.497	27.82
858.672	-50
858.846	-27.48
859.02	9.39
859.195	13.48
859.369	62.63
859.543	29.87
859.718	17.58
859.892	29.87
860.066	13.48
860.241	25.77
860.415	27.82
860.589	1.19
860.763	29.87
860.938	-7
861.112	52.39
861.286	-19.29
861.46	13.48
861.634	52.39
861.808	62.63
861.982	7.34
862.157	15.53
862.331	38.06
862.505	70.83
862.679	-0.85
862.853	-11.09
863.027	38.06
863.201	122.02
863.375	-33.62
863.549	9.39
863.722	38.06
863.896	62.63
864.07	50.35
864.244	95.4
864.418	5.29
864.592	-0.85
864.766	38.06
864.939	-43.86
865.113	7.34
865.287	46.25
865.461	-47.96
865.634	60.59
865.808	17.58
865.982	-19.29
866.156	-56.15
866.329	-86.87
866.503	-25.43
866.676	38.06
866.85	-47.96
867.024	5.29
867.197	81.07
867.371	56.49
867.544	7.34
867.718	-17.24
867.891	44.2
868.065	-68.44
868.238	-43.86
868.412	48.3
868.585	-33.62
868.759	23.72
868.932	21.67
869.105	-54.1
869.279	-7
869.452	-2.9
869.625	38.06
869.799	-4.95
869.972	-47.96
870.145	-95.06
870.319	-7
870.492	23.72
870.665	29.87
870.838	46.25
871.011	-52.05
871.185	5.29
871.358	-62.29
871.531	29.87
871.704	-99.16
871.877	11.43
872.05	-9.05
872.223	-60.24
872.396	9.39
872.569	54.44
872.742	21.67
872.915	54.44
873.088	3.24
873.261	15.53
873.434	29.87
873.607	62.63
873.78	87.21
873.953	-19.29
874.126	-76.63
874.299	95.4
874.471	38.06
874.644	23.72
874.817	-31.57
874.99	31.91
875.163	-27.48
875.335	17.58
875.508	33.96
875.681	95.4
875.853	-47.96
876.026	42.15
876.199	-11.09
876.371	38.06
876.544	1.19
876.717	1.19
876.889	-13.14
877.062	58.54
877.234	42.15
877.407	-27.48
877.579	31.91
877.752	-43.86
877.924	21.67
878.097	25.77
878.269	62.63
878.442	11.43
878.614	42.15
878.786	-15.19
878.959	-58.2
879.131	-58.2
879.303	-27.48
879.476	1.19
879.648	33.96
879.82	-27.48
879.993	-41.81
880.165	-39.76
880.337	-13.14
880.509	31.91
880.681	15.53
880.854	1.19
881.026	46.25
881.198	15.53
881.37	-9.05
881.542	31.91
881.714	-0.85
881.886	25.77
882.058	-0.85
882.23	-7
882.402	-4.95
882.574	-15.19
882.746	-17.24
882.918	-2.9
883.09	1.19
883.262	-58.2
883.434	-60.24
883.606	-23.38
883.778	-2.9
883.95	87.21
884.122	-31.57
884.293	29.87
884.465	11.43
884.637	115.88
884.809	27.82
884.98	5.29
885.152	-11.09
885.324	79.02
885.496	-31.57
885.667	29.87
885.839	50.35
886.011	5.29
886.182	-11.09
886.354	38.06
886.525	-56.15
886.697	36.01
886.869	-52.05
887.04	-17.24
887.212	54.44
887.383	54.44
887.555	11.43
887.726	46.25
887.897	-19.29
888.069	-43.86
888.24	68.78
888.412	-41.81
888.583	-35.67
888.754	13.48
888.926	7.34
889.097	-23.38
889.268	-76.63
889.44	-9.05
889.611	-72.53
889.782	7.34
889.953	-99.16
890.125	42.15
890.296	-39.76
890.467	48.3
890.638	13.48
890.809	5.29
890.98	-45.91
891.151	5.29
891.323	36.01
891.494	7.34
891.665	36.01
891.836	-2.9
892.007	-17.24
892.178	29.87
892.349	-29.52
892.52	29.87
892.691	5.29
892.862	21.67
893.032	25.77
893.203	-25.43
893.374	13.48
893.545	48.3
893.716	-21.33
893.887	36.01
894.057	17.58
894.228	103.59
894.399	-50
894.57	-11.09
894.74	-7
894.911	111.78
895.082	-17.24
895.253	-0.85
895.423	-9.05
895.594	31.91
895.764	58.54
895.935	9.39
896.106	-2.9
896.276	79.02
896.447	-9.05
896.617	31.91
896.788	-68.44
896.958	-2.9
897.129	31.91
897.299	50.35
897.47	-31.57
897.64	-4.95
897.81	46.25
897.981	29.87
898.151	38.06
898.322	64.68
898.492	25.77
898.662	-2.9
898.832	-68.44
899.003	7.34
899.173	97.45
899.343	-35.67
899.513	-27.48
