Data from USB4F104151__212__14-33-31-871.txt Node

Date: Thu Mar 13 14:33:31 EDT 2025
User: louis
Spectrometer: USB4F10415
Trigger mode: 4
Integration Time (sec): 2.500000E-2
Scans to average: 1
Electric dark correction enabled: true
Nonlinearity correction enabled: false
Boxcar width: 0
XAxis mode: Wavelengths
Number of Pixels in Spectrum: 3648
>>>>>Begin Spectral Data<<<<<
178.204	-113.83
178.424	-113.83
178.644	-113.83
178.864	-162.98
179.084	-122.02
179.304	-31.91
179.524	84.82
179.744	-54.44
179.964	43.86
180.184	11.09
180.404	-21.67
180.624	-11.43
180.844	-42.15
181.064	-44.2
181.283	9.05
181.503	25.43
181.723	31.57
181.943	2.9
182.163	123.73
182.383	58.2
182.602	33.62
182.822	-1.19
183.042	117.59
183.262	0.85
183.482	33.62
183.701	54.1
183.921	80.72
184.141	-5.29
184.361	62.29
184.58	35.67
184.8	58.2
185.02	66.39
185.239	35.67
185.459	4.95
185.679	9.05
185.898	21.33
186.118	74.58
186.338	66.39
186.557	50
186.777	19.29
186.997	58.2
187.216	-21.67
187.436	125.78
187.655	70.48
187.875	17.24
188.095	50
188.314	97.11
188.534	86.87
188.753	45.91
188.973	17.24
189.192	74.58
189.412	117.59
189.631	58.2
189.851	43.86
190.07	76.63
190.29	-13.48
190.509	2.9
190.729	56.15
190.948	66.39
191.168	217.94
191.387	-25.77
191.607	-13.48
191.826	15.19
192.045	50
192.265	58.2
192.484	52.05
192.704	66.39
192.923	41.81
193.142	183.12
193.362	84.82
193.581	136.02
193.8	21.33
194.02	168.79
194.239	109.4
194.458	13.14
194.678	60.24
194.897	43.86
195.116	50
195.335	-7.34
195.555	52.05
195.774	95.06
195.993	74.58
196.212	52.05
196.432	-13.48
196.651	54.1
196.87	-54.44
197.089	150.36
197.308	-3.24
197.528	66.39
197.747	-101.55
197.966	86.87
198.185	183.12
198.404	99.16
198.623	4.95
198.842	176.98
199.062	74.58
199.281	78.68
199.5	-9.39
199.719	84.82
199.938	62.29
200.157	54.1
200.376	78.68
200.595	129.88
200.814	39.76
201.033	33.62
201.252	119.64
201.471	33.62
201.69	52.05
201.909	84.82
202.128	99.16
202.347	117.59
202.566	82.77
202.785	52.05
203.004	19.29
203.223	131.92
203.442	35.67
203.661	-31.91
203.879	45.91
204.098	123.73
204.317	84.82
204.536	27.48
204.755	-11.43
204.974	45.91
205.193	127.83
205.411	127.83
205.63	25.43
205.849	54.1
206.068	2.9
206.287	121.68
206.505	13.14
206.724	56.15
206.943	13.14
207.162	4.95
207.381	56.15
207.599	115.54
207.818	41.81
208.037	31.57
208.255	41.81
208.474	11.09
208.693	50
208.911	66.39
209.13	27.48
209.349	99.16
209.567	-11.43
209.786	90.96
210.005	27.48
210.223	66.39
210.442	58.2
210.661	52.05
210.879	80.72
211.098	15.19
211.316	113.49
211.535	41.81
211.753	29.52
211.972	58.2
212.191	-3.24
212.409	-21.67
212.628	72.53
212.846	74.58
213.065	41.81
213.283	90.96
213.502	0.85
213.72	80.72
213.938	150.36
214.157	74.58
214.375	41.81
214.594	19.29
214.812	74.58
215.031	33.62
215.249	-3.24
215.467	50
215.686	15.19
215.904	35.67
216.122	27.48
216.341	-13.48
216.559	62.29
216.778	74.58
216.996	50
217.214	23.38
217.432	62.29
217.651	21.33
217.869	95.06
218.087	-7.34
218.306	9.05
218.524	13.14
218.742	-15.53
218.96	90.96
219.179	76.63
219.397	82.77
219.615	103.25
219.833	52.05
220.051	41.81
220.27	90.96
220.488	21.33
220.706	123.73
220.924	-3.24
221.142	-19.63
221.36	27.48
221.578	66.39
221.796	54.1
222.015	-1.19
222.233	99.16
222.451	131.92
222.669	33.62
222.887	99.16
223.105	66.39
223.323	84.82
223.541	21.33
223.759	127.83
223.977	35.67
224.195	74.58
224.413	58.2
224.631	70.48
224.849	17.24
225.067	82.77
225.285	-5.29
225.503	2.9
225.721	-3.24
225.939	39.76
226.157	74.58
226.375	144.21
226.592	23.38
226.81	68.44
227.028	76.63
227.246	117.59
227.464	56.15
227.682	56.15
227.9	86.87
228.117	11.09
228.335	50
228.553	9.05
228.771	-23.72
228.989	35.67
229.206	86.87
229.424	70.48
229.642	-85.16
229.86	-23.72
230.077	70.48
230.295	21.33
230.513	107.35
230.731	156.5
230.948	80.72
231.166	68.44
231.384	35.67
231.601	25.43
231.819	117.59
232.037	54.1
232.254	-11.43
232.472	70.48
232.689	140.12
232.907	82.77
233.125	33.62
233.342	25.43
233.56	21.33
233.777	68.44
233.995	107.35
234.213	76.63
234.43	93.01
234.648	2.9
234.865	27.48
235.083	68.44
235.3	17.24
235.518	68.44
235.735	68.44
235.953	74.58
236.17	58.2
236.388	35.67
236.605	37.72
236.822	115.54
237.04	54.1
237.257	66.39
237.475	-36.01
237.692	93.01
237.909	70.48
238.127	41.81
238.344	103.25
238.562	74.58
238.779	52.05
238.996	54.1
239.214	29.52
239.431	23.38
239.648	90.96
239.865	103.25
240.083	60.24
240.3	107.35
240.517	41.81
240.735	62.29
240.952	119.64
241.169	50
241.386	25.43
241.603	72.53
241.821	35.67
242.038	27.48
242.255	74.58
242.472	47.96
242.689	86.87
242.907	39.76
243.124	17.24
243.341	-13.48
243.558	140.12
243.775	25.43
243.992	-19.63
244.209	56.15
244.426	90.96
244.643	78.68
244.86	-7.34
245.078	127.83
245.295	58.2
245.512	111.44
245.729	-27.82
245.946	84.82
246.163	99.16
246.38	-19.63
246.597	64.34
246.814	90.96
247.031	150.36
247.248	90.96
247.464	78.68
247.681	9.05
247.898	93.01
248.115	62.29
248.332	4.95
248.549	115.54
248.766	119.64
248.983	101.2
249.2	115.54
249.417	50
249.633	2.9
249.85	54.1
250.067	29.52
250.284	19.29
250.501	119.64
250.717	125.78
250.934	0.85
251.151	-15.53
251.368	121.68
251.585	68.44
251.801	80.72
252.018	-70.83
252.235	50
252.451	41.81
252.668	76.63
252.885	90.96
253.102	70.48
253.318	-5.29
253.535	-7.34
253.752	82.77
253.968	54.1
254.185	-23.72
254.401	58.2
254.618	15.19
254.835	33.62
255.051	148.31
255.268	62.29
255.484	45.91
255.701	-40.11
255.917	82.77
256.134	17.24
256.351	62.29
256.567	13.14
256.784	50
257	-19.63
257.217	99.16
257.433	146.26
257.65	78.68
257.866	84.82
258.082	4.95
258.299	0.85
258.515	54.1
258.732	2.9
258.948	33.62
259.165	54.1
259.381	21.33
259.597	54.1
259.814	64.34
260.03	123.73
260.246	109.4
260.463	19.29
260.679	-7.34
260.895	95.06
261.112	29.52
261.328	54.1
261.544	11.09
261.761	90.96
261.977	121.68
262.193	19.29
262.409	21.33
262.626	66.39
262.842	82.77
263.058	17.24
263.274	66.39
263.49	68.44
263.707	76.63
263.923	172.88
264.139	13.14
264.355	31.57
264.571	99.16
264.787	0.85
265.004	117.59
265.22	37.72
265.436	29.52
265.652	90.96
265.868	43.86
266.084	21.33
266.3	115.54
266.516	70.48
266.732	33.62
266.948	54.1
267.164	64.34
267.38	99.16
267.596	27.48
267.812	72.53
268.028	101.2
268.244	41.81
268.46	68.44
268.676	-79.02
268.892	39.76
269.108	-11.43
269.324	17.24
269.54	-40.11
269.756	-13.48
269.972	29.52
270.188	58.2
270.403	2.9
270.619	60.24
270.835	45.91
271.051	84.82
271.267	68.44
271.483	27.48
271.698	156.5
271.914	68.44
272.13	70.48
272.346	43.86
272.562	25.43
272.777	133.97
272.993	35.67
273.209	21.33
273.425	-3.24
273.64	76.63
273.856	152.4
274.072	66.39
274.287	31.57
274.503	82.77
274.719	93.01
274.934	60.24
275.15	29.52
275.366	33.62
275.581	70.48
275.797	70.48
276.012	82.77
276.228	133.97
276.444	11.09
276.659	74.58
276.875	35.67
277.09	41.81
277.306	84.82
277.521	115.54
277.737	31.57
277.952	88.92
278.168	64.34
278.383	95.06
278.599	17.24
278.814	62.29
279.03	80.72
279.245	103.25
279.461	17.24
279.676	74.58
279.892	-27.82
280.107	9.05
280.322	-1.19
280.538	78.68
280.753	4.95
280.969	39.76
281.184	101.2
281.399	123.73
281.615	82.77
281.83	50
282.045	15.19
282.26	41.81
282.476	29.52
282.691	50
282.906	99.16
283.122	25.43
283.337	35.67
283.552	41.81
283.767	72.53
283.983	41.81
284.198	86.87
284.413	58.2
284.628	17.24
284.843	103.25
285.058	123.73
285.274	45.91
285.489	47.96
285.704	140.12
285.919	41.81
286.134	27.48
286.349	58.2
286.564	25.43
286.779	45.91
286.995	52.05
287.21	17.24
287.425	82.77
287.64	76.63
287.855	50
288.07	-48.3
288.285	156.5
288.5	52.05
288.715	58.2
288.93	76.63
289.145	68.44
289.36	78.68
289.575	19.29
289.79	11.09
290.004	86.87
290.219	131.92
290.434	99.16
290.649	54.1
290.864	41.81
291.079	54.1
291.294	29.52
291.509	54.1
291.724	4.95
291.938	25.43
292.153	80.72
292.368	45.91
292.583	58.2
292.798	148.31
293.012	-7.34
293.227	21.33
293.442	82.77
293.657	95.06
293.871	242.51
294.086	17.24
294.301	127.83
294.516	78.68
294.73	62.29
294.945	54.1
295.16	70.48
295.374	58.2
295.589	66.39
295.804	90.96
296.018	64.34
296.233	148.31
296.447	107.35
296.662	62.29
296.877	72.53
297.091	37.72
297.306	115.54
297.52	123.73
297.735	115.54
297.949	4.95
298.164	103.25
298.378	103.25
298.593	90.96
298.807	-46.25
299.022	99.16
299.236	107.35
299.451	43.86
299.665	29.52
299.88	131.92
300.094	52.05
300.309	35.67
300.523	-5.29
300.737	47.96
300.952	19.29
301.166	127.83
301.381	27.48
301.595	43.86
301.809	82.77
302.024	19.29
302.238	43.86
302.452	68.44
302.667	82.77
302.881	136.02
303.095	82.77
303.309	-46.25
303.524	45.91
303.738	101.2
303.952	119.64
304.166	74.58
304.381	-56.49
304.595	123.73
304.809	19.29
305.023	90.96
305.237	0.85
305.452	35.67
305.666	133.97
305.88	129.88
306.094	90.96
306.308	133.97
306.522	93.01
306.736	109.4
306.95	35.67
307.164	33.62
307.379	0.85
307.593	76.63
307.807	41.81
308.021	93.01
308.235	70.48
308.449	136.02
308.663	131.92
308.877	99.16
309.091	64.34
309.305	123.73
309.519	-7.34
309.733	52.05
309.947	9.05
310.161	35.67
310.374	60.24
310.588	131.92
310.802	-5.29
311.016	152.4
311.23	50
311.444	4.95
311.658	125.78
311.872	115.54
312.085	84.82
312.299	50
312.513	115.54
312.727	29.52
312.941	37.72
313.154	60.24
313.368	45.91
313.582	82.77
313.796	0.85
314.009	60.24
314.223	181.07
314.437	115.54
314.651	62.29
314.864	90.96
315.078	58.2
315.292	25.43
315.505	50
315.719	-1.19
315.933	74.58
316.146	58.2
316.36	2.9
316.573	19.29
316.787	109.4
317.001	66.39
317.214	9.05
317.428	50
317.641	25.43
317.855	90.96
318.068	99.16
318.282	58.2
318.495	74.58
318.709	54.1
318.922	-5.29
319.136	72.53
319.349	90.96
319.563	41.81
319.776	111.44
319.99	109.4
320.203	133.97
320.417	62.29
320.63	4.95
320.843	105.3
321.057	58.2
321.27	66.39
321.483	50
321.697	127.83
321.91	50
322.124	41.81
322.337	84.82
322.55	9.05
322.763	43.86
322.977	107.35
323.19	9.05
323.403	33.62
323.617	60.24
323.83	156.5
324.043	125.78
324.256	25.43
324.469	7
324.683	58.2
324.896	103.25
325.109	90.96
325.322	-7.34
325.535	127.83
325.748	-27.82
325.962	136.02
326.175	76.63
326.388	43.86
326.601	76.63
326.814	90.96
327.027	66.39
327.24	189.27
327.453	-21.67
327.666	84.82
327.879	37.72
328.092	123.73
328.305	25.43
328.518	-5.29
328.731	99.16
328.944	54.1
329.157	4.95
329.37	17.24
329.583	111.44
329.796	115.54
330.009	-23.72
330.222	84.82
330.435	50
330.648	140.12
330.861	50
331.073	90.96
331.286	93.01
331.499	131.92
331.712	-21.67
331.925	66.39
332.138	17.24
332.35	115.54
332.563	115.54
332.776	74.58
332.989	66.39
333.202	125.78
333.414	17.24
333.627	54.1
333.84	19.29
334.053	58.2
334.265	19.29
334.478	66.39
334.691	70.48
334.903	62.29
335.116	37.72
335.329	97.11
335.541	103.25
335.754	109.4
335.966	41.81
336.179	76.63
336.392	35.67
336.604	27.48
336.817	127.83
337.029	80.72
337.242	-44.2
337.454	54.1
337.667	99.16
337.88	103.25
338.092	78.68
338.305	39.76
338.517	84.82
338.729	21.33
338.942	127.83
339.154	97.11
339.367	68.44
339.579	119.64
339.792	66.39
340.004	66.39
340.217	25.43
340.429	107.35
340.641	86.87
340.854	41.81
341.066	21.33
341.278	101.2
341.491	35.67
341.703	82.77
341.915	58.2
342.128	107.35
342.34	-27.82
342.552	-7.34
342.764	76.63
342.977	74.58
343.189	84.82
343.401	29.52
343.613	-13.48
343.826	84.82
344.038	66.39
344.25	90.96
344.462	99.16
344.674	90.96
344.886	50
345.099	80.72
345.311	84.82
345.523	86.87
345.735	2.9
345.947	72.53
346.159	125.78
346.371	66.39
346.583	43.86
346.795	144.21
347.007	45.91
347.219	68.44
347.431	93.01
347.643	66.39
347.855	13.14
348.067	127.83
348.279	25.43
348.491	101.2
348.703	31.57
348.915	84.82
349.127	129.88
349.339	66.39
349.551	-21.67
349.763	105.3
349.975	4.95
350.187	88.92
350.399	99.16
350.61	142.16
350.822	156.5
351.034	125.78
351.246	72.53
351.458	66.39
351.669	113.49
351.881	113.49
352.093	146.26
352.305	201.55
352.517	66.39
352.728	64.34
352.94	35.67
353.152	181.07
353.363	80.72
353.575	103.25
353.787	115.54
353.999	43.86
354.21	199.51
354.422	78.68
354.633	166.74
354.845	111.44
355.057	115.54
355.268	103.25
355.48	136.02
355.692	25.43
355.903	29.52
356.115	101.2
356.326	86.87
356.538	109.4
356.749	58.2
356.961	111.44
357.172	121.68
357.384	43.86
357.595	86.87
357.807	93.01
358.018	84.82
358.23	84.82
358.441	152.4
358.653	107.35
358.864	50
359.075	74.58
359.287	76.63
359.498	60.24
359.709	-19.63
359.921	82.77
360.132	52.05
360.344	29.52
360.555	97.11
360.766	82.77
360.977	101.2
361.189	176.98
361.4	78.68
361.611	107.35
361.823	86.87
362.034	142.16
362.245	56.15
362.456	117.59
362.667	101.2
362.879	37.72
363.09	27.48
363.301	45.91
363.512	86.87
363.723	156.5
363.935	88.92
364.146	52.05
364.357	107.35
364.568	82.77
364.779	35.67
364.99	74.58
365.201	41.81
365.412	111.44
365.623	7
365.834	109.4
366.045	148.31
366.256	123.73
366.467	101.2
366.678	101.2
366.889	43.86
367.1	86.87
367.311	99.16
367.522	0.85
367.733	105.3
367.944	156.5
368.155	58.2
368.366	99.16
368.577	62.29
368.788	193.36
368.999	68.44
369.209	60.24
369.42	125.78
369.631	246.61
369.842	99.16
370.053	66.39
370.264	15.19
370.474	29.52
370.685	115.54
370.896	111.44
371.107	158.55
371.317	131.92
371.528	54.1
371.739	123.73
371.95	84.82
372.16	144.21
372.371	41.81
372.582	144.21
372.792	97.11
373.003	107.35
373.214	111.44
373.424	74.58
373.635	33.62
373.846	113.49
374.056	131.92
374.267	103.25
374.477	93.01
374.688	29.52
374.898	64.34
375.109	56.15
375.319	142.16
375.53	21.33
375.74	68.44
375.951	19.29
376.161	156.5
376.372	115.54
376.582	17.24
376.793	43.86
377.003	52.05
377.214	68.44
377.424	140.12
377.635	50
377.845	41.81
378.055	31.57
378.266	54.1
378.476	50
378.686	86.87
378.897	136.02
379.107	-7.34
379.317	35.67
379.528	50
379.738	166.74
379.948	2.9
380.158	93.01
380.369	82.77
380.579	199.51
380.789	52.05
380.999	119.64
381.21	170.83
381.42	101.2
381.63	95.06
381.84	136.02
382.05	66.39
382.261	95.06
382.471	82.77
382.681	125.78
382.891	109.4
383.101	99.16
383.311	95.06
383.521	33.62
383.731	66.39
383.941	76.63
384.151	52.05
384.361	27.48
384.571	101.2
384.781	144.21
384.991	166.74
385.201	119.64
385.411	166.74
385.621	119.64
385.831	0.85
386.041	45.91
386.251	74.58
386.461	111.44
386.671	176.98
386.881	127.83
387.091	41.81
387.301	115.54
387.511	29.52
387.72	125.78
387.93	52.05
388.14	109.4
388.35	62.29
388.56	72.53
388.769	99.16
388.979	115.54
389.189	33.62
389.399	25.43
389.609	107.35
389.818	101.2
390.028	60.24
390.238	115.54
390.447	50
390.657	156.5
390.867	109.4
391.076	93.01
391.286	119.64
391.496	58.2
391.705	82.77
391.915	86.87
392.125	148.31
392.334	84.82
392.544	136.02
392.753	115.54
392.963	84.82
393.172	62.29
393.382	54.1
393.591	179.03
393.801	56.15
394.01	93.01
394.22	119.64
394.429	107.35
394.639	142.16
394.848	107.35
395.058	66.39
395.267	172.88
395.477	164.69
395.686	150.36
395.895	197.46
396.105	82.77
396.314	74.58
396.524	39.76
396.733	174.93
396.942	258.9
397.152	131.92
397.361	158.55
397.57	164.69
397.78	166.74
397.989	191.31
398.198	332.62
398.407	105.3
398.617	189.27
398.826	156.5
399.035	125.78
399.244	207.7
399.453	205.65
399.663	131.92
399.872	136.02
400.081	142.16
400.29	174.93
400.499	150.36
400.708	234.32
400.917	142.16
401.127	148.31
401.336	160.59
401.545	162.64
401.754	133.97
401.963	240.47
402.172	172.88
402.381	226.13
402.59	47.96
402.799	193.36
403.008	142.16
403.217	133.97
403.426	179.03
403.635	176.98
403.844	131.92
404.053	209.75
404.262	199.51
404.471	265.04
404.68	232.27
404.888	189.27
405.097	256.85
405.306	168.79
405.515	222.03
405.724	250.71
405.933	232.27
406.142	213.84
406.35	262.99
406.559	346.96
406.768	265.04
406.977	287.57
407.185	306
407.394	363.34
407.603	222.03
407.812	322.38
408.02	301.9
408.229	287.57
408.438	308.05
408.646	342.86
408.855	389.97
409.064	394.06
409.272	426.83
409.481	281.43
409.69	312.14
409.898	318.29
410.107	365.39
410.315	467.79
410.524	473.93
410.733	475.98
410.941	445.26
411.15	363.34
411.358	500.56
411.567	549.71
411.775	570.19
411.984	510.8
412.192	506.7
412.401	588.62
412.609	684.87
412.818	656.2
413.026	650.06
413.234	711.5
413.443	691.02
413.651	680.78
413.86	758.6
414.068	764.75
414.276	813.9
414.485	781.13
414.693	848.71
414.901	928.58
415.11	901.96
415.318	949.06
415.526	1098.56
415.734	994.12
415.943	992.07
416.151	1069.89
416.359	1090.37
416.567	1123.14
416.776	1207.11
416.984	1280.83
417.192	1379.14
417.4	1344.32
417.608	1254.21
417.817	1270.59
418.025	1420.1
418.233	1569.6
418.441	1442.62
418.649	1686.33
418.857	1688.38
419.065	1901.37
419.273	1639.23
419.481	1794.87
419.689	1866.55
419.897	1878.84
420.105	2014.01
420.313	2059.06
420.521	1995.57
420.729	2100.02
420.937	2163.51
421.145	2157.36
421.353	2263.86
421.561	2476.85
421.769	2566.96
421.977	2695.98
422.185	2640.69
422.393	2710.32
422.601	2966.31
422.809	2929.45
423.017	2994.98
423.224	3117.86
423.432	3156.77
423.64	3296.04
423.848	3640.09
424.056	3384.1
424.263	3689.25
424.471	3752.73
424.679	3685.15
424.887	3924.76
425.094	4115.22
425.302	4277.01
425.51	4287.25
425.718	4336.4
425.925	4561.68
426.133	4635.41
426.341	4770.57
426.548	4997.9
426.756	5171.97
426.964	5305.09
427.171	5438.21
427.379	5573.38
427.586	5645.06
427.794	5636.86
428.001	6038.27
428.209	6234.87
428.417	6251.25
428.624	6507.25
428.832	6652.66
429.039	6564.59
429.247	6546.16
429.454	7183.08
429.662	7594.72
429.869	7224.04
430.076	7799.52
430.284	7539.43
430.491	7791.33
430.699	8106.71
430.906	8297.17
431.114	8266.46
431.321	8630.99
431.528	8864.46
431.736	9235.14
431.943	9972.41
432.15	9446.09
432.358	9552.58
432.565	10207.93
432.772	9921.21
432.979	10701.49
433.187	10863.28
433.394	10801.84
433.601	11629.22
433.808	11631.27
434.016	11492.01
434.223	11864.74
434.43	12804.75
434.637	12593.81
434.844	13167.24
435.052	13392.52
435.259	13658.76
435.466	13367.95
435.673	13460.1
435.88	14336.63
436.087	15174.25
436.294	15186.54
436.501	14555.77
436.708	14811.76
436.915	15491.69
437.122	16097.89
437.329	16353.88
437.537	16513.63
437.743	16994.9
437.95	16691.8
438.157	17750.6
438.364	18006.59
438.571	18084.42
438.778	18219.58
438.985	19782.18
439.192	19130.93
439.399	19845.67
439.606	19255.86
439.813	20374.05
440.02	21598.73
440.227	21088.79
440.433	20990.49
440.64	21975.56
440.847	21572.11
441.054	21983.75
441.261	23798.25
441.467	23120.37
441.674	23458.29
441.881	24340.96
442.088	24338.91
442.294	24306.15
442.501	24592.86
442.708	25180.63
442.914	26241.48
443.121	27404.72
443.328	26452.42
443.534	28111.27
443.741	27609.52
443.948	26878.4
444.154	29276.57
444.361	29092.25
444.568	29251.99
444.774	29254.04
444.981	29440.4
445.187	30327.17
445.394	31637.87
445.6	31392.12
445.807	34171.21
446.013	32606.56
446.22	33208.67
446.426	34904.38
446.633	34963.78
446.839	35682.61
447.046	34623.81
447.252	36167.98
447.459	36219.18
447.665	36274.48
447.871	37847.32
448.078	39563.51
448.284	37900.56
448.491	38623.5
448.697	40143.09
448.903	40915.17
449.11	41136.35
449.316	40382.7
449.522	41105.63
449.728	42162.39
449.935	42592.46
450.141	42709.19
450.347	43186.37
450.553	42389.71
450.76	42641.61
450.966	43925.69
451.172	43180.23
451.378	44685.48
451.584	43628.73
451.791	44798.12
451.997	44640.43
452.203	45729.95
452.409	45430.94
452.615	45375.65
452.821	43374.78
453.027	43247.81
453.233	45539.49
453.44	43360.45
453.646	43792.57
453.852	43913.4
454.058	44986.53
454.264	43434.17
454.47	44890.28
454.676	43466.94
454.882	45029.54
455.088	41277.66
455.294	41679.07
455.5	42344.66
455.705	42635.47
455.911	40970.47
456.117	40507.63
456.323	39672.06
456.529	38271.25
456.735	39432.44
456.941	38603.02
457.147	37978.39
457.352	36702.5
457.558	36153.65
457.764	36104.49
457.97	35676.47
458.176	35010.88
458.381	34961.73
458.587	33313.11
458.793	32819.55
458.999	31336.82
459.204	33929.55
459.41	32663.91
459.616	30865.79
459.821	30642.56
460.027	30505.35
460.233	29602.19
460.438	28258.73
460.644	28619.17
460.85	27212.21
461.055	26716.61
461.261	26679.74
461.466	24875.48
461.672	24277.47
461.878	26159.56
462.083	24146.4
462.289	23740.91
462.494	23116.28
462.7	22174.21
462.905	21809.67
463.111	22305.28
463.316	22501.89
463.522	21930.5
463.727	21969.41
463.932	21856.78
464.138	21565.96
464.343	21678.6
464.549	21006.87
464.754	21684.75
464.959	21375.5
465.165	21236.24
465.37	20353.57
465.575	19722.79
465.781	20623.9
465.986	20668.95
466.191	19833.38
466.397	19739.18
466.602	18436.67
466.807	19278.38
467.012	19337.77
467.218	19153.46
467.423	18971.19
467.628	19253.81
467.833	20109.86
468.038	19124.79
468.244	18555.45
468.449	19235.38
468.654	18408
468.859	18307.65
469.064	18487.87
469.269	17668.68
469.474	17699.4
469.679	18211.39
469.885	17740.36
470.09	17623.62
470.295	17744.45
470.5	16917.08
470.705	17424.97
470.91	17138.26
471.115	16861.78
471.32	16910.93
471.525	16794.2
471.73	16519.77
471.935	16415.32
472.139	15866.47
472.344	15995.49
472.549	15712.87
472.754	16138.85
472.959	15499.88
473.164	15028.85
473.369	14942.83
473.574	15424.11
473.778	15272.56
473.983	15123.05
474.188	15041.14
474.393	14267
474.598	14701.17
474.802	14381.69
475.007	14324.35
475.212	14156.41
475.417	13871.75
475.621	13476.49
475.826	13732.48
476.031	13595.27
476.235	13154.96
476.44	13689.48
476.645	13398.66
476.849	13163.15
477.054	13073.04
477.259	12755.6
477.463	12833.43
477.668	12395.16
477.872	12544.66
478.077	12397.21
478.282	12006.05
478.486	12100.25
478.691	12010.14
478.895	11782.82
479.1	12040.86
479.304	11899.55
479.509	11571.88
479.713	11748
479.918	11498.15
480.122	11352.74
480.326	11436.71
480.531	11395.75
480.735	11291.31
480.94	11242.15
481.144	11594.4
481.348	10961.58
481.553	11172.52
481.757	10822.32
481.961	10910.38
482.166	11154.09
482.37	11152.04
482.574	10748.59
482.778	11002.54
482.983	11264.68
483.187	11219.63
483.391	10920.62
483.595	10955.44
483.8	10724.02
484.004	11027.12
484.208	11059.88
484.412	10816.18
484.616	10912.43
484.821	11063.98
485.025	10713.78
485.229	10932.91
485.433	10816.18
485.637	10842.8
485.841	10760.88
486.045	10740.4
486.249	10850.99
486.453	10711.73
486.657	10840.75
486.861	10896.05
487.065	10728.11
487.269	10896.05
487.473	10633.91
487.677	10830.51
487.881	10953.39
488.085	10814.13
488.289	10896.05
488.493	10564.28
488.697	10920.62
488.901	10920.62
489.105	10930.86
489.309	10789.55
489.512	10580.66
489.716	11059.88
489.92	10803.89
490.124	10840.75
490.328	11084.46
490.531	10863.28
490.735	11008.69
490.939	10988.21
491.143	10920.62
491.346	10799.79
491.55	11213.48
491.754	11076.27
491.958	11098.8
492.161	11199.15
492.365	11000.49
492.569	11141.8
492.772	11090.6
492.976	11313.83
493.18	11319.98
493.383	11657.89
493.587	11471.53
493.79	11559.59
493.994	11479.72
494.197	11520.68
494.401	11657.89
494.605	11553.45
494.808	11864.74
495.012	11592.36
495.215	11872.93
495.419	11920.03
495.622	11899.55
495.825	12075.68
496.029	12051.1
496.232	12432.02
496.436	12190.36
496.639	12602.01
496.843	12417.69
497.046	12966.54
497.249	13048.46
497.453	13060.75
497.656	13009.55
497.859	12935.82
498.063	13173.39
498.266	13451.91
498.469	13331.08
498.673	13478.54
498.876	13728.39
499.079	13671.04
499.282	13746.82
499.485	14207.61
499.689	14043.78
499.892	14451.32
500.095	14510.71
500.298	14717.56
500.501	14688.89
500.705	14922.35
500.908	15000.18
501.111	15182.45
501.314	15237.74
501.517	15477.35
501.72	15557.22
501.923	15604.33
502.126	15909.47
502.329	16077.41
502.532	16259.68
502.735	16245.34
502.938	16654.94
503.141	16579.16
503.344	17304.14
503.547	16945.75
503.75	17308.24
503.953	17353.29
504.156	17721.93
504.359	17621.58
504.562	17785.41
504.765	18321.98
504.968	18360.89
505.17	18461.24
505.373	18489.92
505.576	18967.09
505.779	18565.69
505.982	19178.03
506.185	19425.84
506.387	19677.74
506.59	19534.38
506.793	20136.48
506.996	20120.1
507.198	20488.73
507.401	20292.13
507.604	20777.5
507.807	21156.37
508.009	21316.11
508.212	21135.89
508.415	21656.07
508.617	22012.42
508.82	21801.48
509.022	21893.64
509.225	22557.18
509.428	22475.26
509.63	22620.67
509.833	23110.13
510.035	23536.11
510.238	23417.33
510.44	23548.4
510.643	23790.06
510.845	24127.97
511.048	23788.01
511.25	24363.49
511.453	24723.93
511.655	25625.04
511.858	24900.06
512.06	24936.92
512.262	25184.73
512.465	25690.57
512.667	26124.74
512.87	26102.22
513.072	26198.47
513.274	27081.14
513.477	26898.87
513.679	27101.62
513.881	27474.35
514.084	27806.13
514.286	27687.34
514.488	28248.49
514.69	28649.89
514.893	28846.49
515.095	28649.89
515.297	29295
515.499	29395.35
515.701	29249.94
515.904	29882.77
516.106	30048.65
516.308	30280.07
516.51	30749.06
516.712	30476.68
516.914	31060.35
517.116	31502.71
517.318	31334.78
517.52	31547.76
517.722	31586.68
517.925	31846.77
518.127	32543.08
518.329	32735.59
518.531	32414.05
518.733	33241.43
518.935	33372.5
519.136	33530.2
519.338	33749.33
519.54	33626.45
519.742	34455.88
519.944	34093.39
520.146	34955.58
520.348	35150.14
520.55	34961.73
520.752	34840.9
520.954	35346.75
521.155	34933.06
521.357	35782.96
521.559	36075.82
521.761	36550.95
521.963	36628.77
522.164	36647.21
522.366	36745.51
522.568	36649.25
522.77	36765.99
522.971	37566.74
523.173	36944.16
523.375	37261.6
523.576	37646.61
523.778	37611.8
523.98	38158.61
524.181	38025.49
524.383	37875.99
524.584	38521.1
524.786	38439.18
524.988	38111.5
525.189	38707.46
525.391	38811.91
525.592	38705.41
525.794	39149.82
525.995	39217.41
526.197	39012.61
526.398	39239.93
526.6	39407.87
526.801	39532.79
527.003	39295.23
527.204	39328
527.406	39633.14
527.607	39708.92
527.808	40016.11
528.01	39160.06
528.211	39502.07
528.412	39880.95
528.614	39964.92
528.815	39958.77
529.016	40210.67
529.218	39629.05
529.419	40128.75
529.62	39891.19
529.822	39817.46
530.023	39872.76
530.224	39829.75
530.425	39706.87
530.626	39522.55
530.828	39440.64
531.029	40134.9
531.23	39504.12
531.431	39440.64
531.632	39833.85
531.833	40050.93
532.035	39667.96
532.236	39344.38
532.437	40038.64
532.638	39299.33
532.839	39981.3
533.04	39663.86
533.241	39155.97
533.442	40106.23
533.643	39635.19
533.844	39450.88
534.045	39674.1
534.246	38740.23
534.447	39610.62
534.648	39037.19
534.849	39794.93
535.05	39014.66
535.251	38965.51
535.451	38832.39
535.652	38932.74
535.853	38764.81
536.054	39162.11
536.255	39119.1
536.456	38613.26
536.657	39086.34
536.857	38842.63
537.058	38387.98
537.259	38967.55
537.46	38904.07
537.66	38744.33
537.861	38807.81
538.062	38500.62
538.263	38560.01
538.463	38342.92
538.664	38539.53
538.865	38369.55
539.065	38287.63
539.266	38240.53
539.466	38850.82
539.667	37787.92
539.868	38500.62
540.068	38256.91
540.269	38410.51
540.469	38199.57
540.67	37959.95
540.87	37988.63
541.071	38064.4
541.271	38070.54
541.472	38119.7
541.672	37882.13
541.873	37648.66
542.073	37398.81
542.274	38334.73
542.474	37900.56
542.675	37716.25
542.875	37914.9
543.075	37617.94
543.276	37366.04
543.476	37857.56
543.676	37382.43
543.877	37888.28
544.077	37730.58
544.277	37325.08
544.478	37589.27
544.678	37843.22
544.878	37857.56
545.078	37581.08
545.279	37294.36
545.479	37122.33
545.679	37314.84
545.879	37155.1
546.079	37388.57
546.28	37450.01
546.48	37058.85
546.68	37589.27
546.88	37237.02
547.08	37112.1
547.28	37259.55
547.48	37136.67
547.68	37241.12
547.88	37163.29
548.081	37433.63
548.281	37359.9
548.481	37224.73
548.681	37318.94
548.881	37564.7
549.081	37245.21
549.28	37181.73
549.48	37245.21
549.68	37562.65
549.88	37398.81
550.08	37357.85
550.28	37798.16
550.48	37490.97
550.68	37785.88
550.88	37404.95
551.08	37361.95
551.279	37607.7
551.479	37271.84
551.679	37765.4
551.879	37439.77
552.079	37869.84
552.278	37542.17
552.478	37427.48
552.678	37468.44
552.878	38156.56
553.077	37427.48
553.277	37044.51
553.477	38062.35
553.676	37267.74
553.876	37900.56
554.076	37681.43
554.275	37425.43
554.475	37103.9
554.674	37695.77
554.874	38082.83
555.074	37507.35
555.273	37796.12
555.473	37818.64
555.672	37916.95
555.872	37808.4
556.071	37902.61
556.271	37783.83
556.47	37706.01
556.67	36935.97
556.869	37648.66
557.068	38154.51
557.268	37628.18
557.467	37984.53
557.667	37900.56
557.866	37847.32
558.065	37546.26
558.265	37648.66
558.464	37703.96
558.663	38033.68
558.863	37607.7
559.062	38115.6
559.261	37781.78
559.461	38050.06
559.66	37781.78
559.859	37925.14
560.058	37511.45
560.258	37837.08
560.457	37736.73
560.656	37984.53
560.855	37740.82
561.054	37816.6
561.253	37499.16
561.453	38052.11
561.652	38035.73
561.851	37865.75
562.05	37667.09
562.249	37900.56
562.448	38048.02
562.647	38037.78
562.846	37460.25
563.045	37286.17
563.244	37255.45
563.443	38121.74
563.642	37185.82
563.841	37269.79
564.04	37548.31
564.239	37640.47
564.438	37478.68
564.637	37570.84
564.836	37155.1
565.035	36890.91
565.234	37368.09
565.432	37042.46
565.631	37101.86
565.83	37294.36
566.029	36989.22
566.228	37028.13
566.427	36854.05
566.625	36761.89
566.824	36868.39
567.023	37294.36
567.222	36303.15
567.42	36440.36
567.619	36790.56
567.818	36684.07
568.016	36567.34
568.215	36643.11
568.414	36462.89
568.612	36702.5
568.811	36217.13
569.01	36210.99
569.208	35928.37
569.407	36127.02
569.605	36006.19
569.804	36102.45
570.002	35852.59
570.201	35838.26
570.4	35328.31
570.598	35600.69
570.797	35529.02
570.995	35655.99
571.193	35158.33
571.392	35531.06
571.59	35246.4
571.789	34984.26
571.987	34777.41
572.186	35410.23
572.384	34263.37
572.582	34974.02
572.781	34996.54
572.979	34642.24
573.177	34568.52
573.376	34310.47
573.574	34623.81
573.772	34949.44
573.971	34206.03
574.169	33833.3
574.367	34021.71
574.565	33919.31
574.763	33968.46
574.962	33460.57
575.16	33370.46
575.358	33954.13
575.556	32856.42
575.754	33487.19
575.952	32883.04
576.151	33638.74
576.349	33229.15
576.547	33177.95
576.745	33071.45
576.943	33028.45
577.141	32854.37
577.339	33016.16
577.537	32426.34
577.735	32647.52
577.933	32115.05
578.131	32407.91
578.329	32170.35
578.527	31934.83
578.725	32223.59
578.923	32285.03
579.121	32137.58
579.319	32129.39
579.516	31777.14
579.714	31783.28
579.912	31807.86
580.11	31398.26
580.308	31385.97
580.506	31230.33
580.704	30894.46
580.901	30906.75
581.099	31533.43
581.297	30876.03
581.495	30710.14
581.692	30839.17
581.89	30607.75
582.088	31035.77
582.285	30615.94
582.483	30701.95
582.681	30085.51
582.878	30263.69
583.076	30093.71
583.274	30484.87
583.471	30226.82
583.669	30120.33
583.866	29886.86
584.064	30128.52
584.262	29741.46
584.459	30405
584.657	29503.89
584.854	29514.13
585.052	29481.36
585.249	29317.53
585.447	29884.81
585.644	29061.53
585.841	29342.1
586.039	29106.59
586.236	29118.87
586.434	28922.27
586.631	28852.64
586.828	28823.97
587.026	28760.48
587.223	28963.23
587.42	28797.34
587.618	28653.98
587.815	28383.65
588.012	28365.22
588.21	27939.24
588.407	28385.7
588.604	28348.84
588.801	28131.75
588.999	28334.5
589.196	28258.73
589.393	28266.92
589.59	28029.35
589.787	27797.93
589.984	27875.76
590.182	27824.56
590.379	27828.65
590.576	27478.45
590.773	27754.93
590.97	27453.87
591.167	27439.54
591.364	27589.04
591.561	27693.49
591.758	27341.24
591.955	27120.06
592.152	27726.25
592.349	27410.87
592.546	27148.73
592.743	27218.36
592.94	26968.51
593.137	27427.25
593.334	27300.28
593.531	26655.17
593.727	27351.48
593.924	27087.29
594.121	26751.42
594.318	26974.65
594.515	26499.52
594.712	27281.85
594.908	26653.12
595.105	27021.75
595.302	26425.79
595.499	26943.93
595.696	26595.78
595.892	26264
596.089	26769.85
596.286	26464.71
596.482	26685.89
596.679	26565.06
596.876	26489.28
597.072	26599.87
597.269	26431.94
597.466	26290.63
597.662	26208.71
597.859	26606.02
598.055	26649.02
598.252	26436.03
598.448	26552.77
598.645	25950.67
598.841	25919.95
599.038	26214.85
599.234	26329.54
599.431	26177.99
599.627	26186.18
599.824	26255.81
600.02	25921.99
600.217	26368.45
600.413	26051.02
600.609	26319.3
600.806	26216.9
601.002	26280.39
601.198	25862.6
601.395	26005.96
601.591	26276.29
601.787	26229.19
601.984	26163.65
602.18	26386.88
602.376	26081.74
602.572	26231.24
602.769	26276.29
602.965	25795.02
603.161	26229.19
603.357	26249.67
603.553	26569.15
603.75	26180.04
603.946	26071.5
604.142	26288.58
604.338	25958.86
604.534	26440.13
604.73	25876.94
604.926	26030.54
605.122	26382.79
605.318	26200.52
605.514	26132.93
605.71	26042.82
605.906	26171.85
606.102	26358.21
606.298	26526.14
606.494	26255.81
606.69	26585.54
606.886	26743.23
607.082	25956.81
607.278	26702.27
607.474	26331.59
607.67	26569.15
607.866	26384.83
608.062	26630.59
608.257	26409.41
608.453	26405.31
608.649	26421.7
608.845	26384.83
609.041	26679.74
609.236	26864.06
609.432	26368.45
609.628	26773.95
609.824	26499.52
610.019	26454.47
610.215	26782.14
610.411	26782.14
610.606	26722.75
610.802	26894.78
610.998	26675.65
611.193	26925.5
611.389	26661.31
611.584	26534.34
611.78	26644.93
611.976	26909.11
612.171	27003.32
612.367	27050.42
612.562	26782.14
612.758	26403.27
612.953	26671.55
613.149	27066.81
613.344	26661.31
613.539	27247.03
613.735	26786.24
613.93	26943.93
614.126	26956.22
614.321	27267.51
614.517	26839.48
614.712	26692.03
614.907	26579.39
615.103	26909.11
615.298	26411.46
615.493	27034.04
615.688	26409.41
615.884	27277.75
616.079	26673.6
616.274	27126.2
616.47	26655.17
616.665	26931.64
616.86	26931.64
617.055	26991.03
617.25	26886.59
617.445	27013.56
617.641	26708.41
617.836	26831.29
618.031	26429.89
618.226	26710.46
618.421	26438.08
618.616	26700.22
618.811	26016.2
619.006	26714.56
619.201	25993.67
619.396	26452.42
619.591	25827.79
619.786	26261.96
619.981	25969.1
620.176	26501.57
620.371	26104.26
620.566	25856.46
620.761	25622.99
620.956	26077.64
621.151	25457.1
621.346	25805.26
621.541	25346.51
621.735	25674.19
621.93	25139.67
622.125	25244.12
622.32	25043.42
622.515	24932.82
622.709	24723.93
622.904	24809.95
623.099	24943.06
623.294	24791.52
623.488	24619.49
623.683	24752.6
623.878	24390.11
624.072	24267.24
624.267	24238.56
624.462	24254.95
624.656	23626.22
624.851	23998.95
625.046	23560.69
625.24	23845.35
625.435	23441.9
625.629	23581.17
625.824	23259.63
626.018	23349.75
626.213	22966.77
626.407	23163.38
626.602	22714.87
626.796	22948.34
626.991	22694.4
627.185	22604.28
627.38	22413.82
627.574	22305.28
627.768	22147.59
627.963	22217.22
628.157	22032.9
628.352	22249.99
628.546	21367.31
628.74	21936.65
628.935	21733.9
629.129	21676.55
629.323	21422.61
629.517	21551.63
629.712	21129.75
629.906	21053.97
630.1	20853.27
630.294	20941.33
630.489	20859.42
630.683	21029.4
630.877	20191.78
631.071	20464.16
631.265	20468.25
631.459	20218.4
631.653	20263.46
631.848	20363.81
632.042	20070.95
632.236	20124.19
632.43	19915.3
632.624	20085.28
632.818	19618.35
633.012	19350.06
633.206	19423.79
633.4	19333.68
633.594	19175.98
633.788	19216.94
633.982	19434.03
634.176	18782.77
634.369	19008.05
634.563	18596.41
634.757	18663.99
634.951	18801.21
635.145	18596.41
635.339	18559.55
635.533	18416.19
635.726	18254.4
635.92	17996.35
636.114	18010.69
636.308	17633.86
636.501	17916.48
636.695	17982.02
636.889	17916.48
637.083	17549.9
637.276	17472.07
637.47	17158.74
637.664	17371.72
637.857	17283.66
638.051	17334.86
638.244	16857.68
638.438	17013.33
638.632	16673.37
638.825	16796.25
639.019	16695.89
639.212	16441.95
639.406	16411.23
639.599	16323.16
639.793	16382.56
639.986	15848.04
640.18	16192.09
640.373	16120.42
640.567	16040.54
640.76	15958.63
640.954	15712.87
641.147	15735.4
641.34	15278.7
641.534	15471.21
641.727	15176.3
641.92	15266.41
642.114	14983.79
642.307	14987.89
642.5	15182.45
642.694	15028.85
642.887	14860.91
643.08	14889.59
643.273	14826.1
643.467	14488.18
643.66	14463.61
643.853	14467.7
644.046	14219.9
644.239	14205.56
644.432	13945.47
644.626	13968
644.819	14162.56
645.012	13869.7
645.205	13617.8
645.398	13935.23
645.591	13716.1
645.784	13542.02
645.977	13568.65
646.17	13144.72
646.363	13249.16
646.556	13111.95
646.749	13097.61
646.942	13288.07
647.135	13046.41
647.328	12860.05
647.521	12833.43
647.714	12931.73
647.907	12812.95
648.099	12843.67
648.292	12583.57
648.485	12442.26
648.678	12460.7
648.871	12384.92
649.064	12362.39
649.256	12278.43
649.449	12186.27
649.642	12149.4
649.835	12075.68
650.027	11895.46
650.22	11997.85
650.413	11528.87
650.605	11733.67
650.798	11631.27
650.991	11588.26
651.183	11672.23
651.376	11494.05
651.568	11709.09
651.761	11326.12
651.954	11301.54
652.146	11115.18
652.339	11045.55
652.531	11262.63
652.724	10848.94
652.916	10855.09
653.109	10971.82
653.301	10902.19
653.494	10980.01
653.686	10429.11
653.879	10824.37
654.071	10605.24
654.263	10406.58
654.456	10562.23
654.648	10488.5
654.84	10113.72
655.033	10246.84
655.225	10209.98
655.417	10138.3
655.61	10177.21
655.802	10218.17
655.994	10078.91
656.186	10228.41
656.379	10005.18
656.571	9902.78
656.763	9814.72
656.955	9841.34
657.148	9693.89
657.34	9712.32
657.532	9579.2
657.724	9493.19
657.916	9622.21
658.108	9558.72
658.3	9343.69
658.492	9427.65
658.684	9151.18
658.876	9249.48
659.068	9298.63
659.26	9304.78
659.452	9245.38
659.644	9071.31
659.836	8946.38
660.028	8948.43
660.22	8850.13
660.412	8803.02
660.604	8733.39
660.796	8704.72
660.988	8790.74
661.18	8430.29
661.372	8413.91
661.563	8688.34
661.755	8366.81
661.947	8276.7
662.139	8461.01
662.331	8106.71
662.522	8272.6
662.714	8196.82
662.906	8202.97
663.097	8192.73
663.289	8028.89
663.481	8045.27
663.673	8159.96
663.864	7973.6
664.056	7987.93
664.247	7942.88
664.439	7650.02
664.631	8016.6
664.822	7963.36
665.014	7733.98
665.205	7717.6
665.397	7615.2
665.588	7609.06
665.78	7637.73
665.971	7494.37
666.163	7588.58
666.354	7443.17
666.546	7471.84
666.737	7342.82
666.929	7332.58
667.12	7271.14
667.311	7303.91
667.503	7201.51
667.694	7131.88
667.885	6998.76
668.077	7101.16
668.268	6998.76
668.459	7015.15
668.651	7086.83
668.842	6841.07
669.033	6902.51
669.224	6769.39
669.416	6855.4
669.607	7017.19
669.798	6851.31
669.989	6750.96
670.18	6755.05
670.371	6664.94
670.563	6824.69
670.754	6806.25
670.945	6570.74
671.136	6701.81
671.327	6431.48
671.518	6619.89
671.709	6572.79
671.9	6419.19
672.091	6390.52
672.282	6327.03
672.473	6370.04
672.664	6451.95
672.855	6365.94
673.046	6392.56
673.237	6441.72
673.428	6171.38
673.619	6243.06
673.809	6202.1
674	6179.58
674.191	6103.8
674.382	6019.83
674.573	6200.05
674.764	6120.18
674.954	6111.99
675.145	6042.36
675.336	6091.51
675.527	5993.21
675.717	6083.32
675.908	5868.28
676.099	5878.52
676.289	6040.31
676.48	5989.11
676.671	5681.92
676.861	5903.1
677.052	5841.66
677.243	5837.56
677.433	5694.21
677.624	5874.43
677.814	5581.57
678.005	5649.15
678.195	5782.27
678.386	5706.49
678.576	5663.49
678.767	5628.67
678.957	5645.06
679.148	5806.84
679.338	5710.59
679.529	5700.35
679.719	5610.24
679.909	5763.84
680.1	5563.14
680.29	5647.1
680.481	5688.06
680.671	5567.23
680.861	5763.84
681.052	5526.27
681.242	5409.54
681.432	5524.23
681.622	5466.88
681.813	5583.62
682.003	5425.92
682.193	5327.62
682.383	5520.13
682.573	5540.61
682.764	5466.88
682.954	5497.6
683.144	5393.16
683.334	5376.77
683.524	5251.85
683.714	5253.89
683.904	5346.05
684.094	5309.19
684.284	5253.89
684.474	5415.68
684.664	5296.9
684.854	5301
685.044	5171.97
685.234	5327.62
685.424	5145.35
685.614	5184.26
685.804	5133.06
685.994	5368.58
686.184	5182.21
686.374	5194.5
686.564	4997.9
686.753	5065.48
686.943	5235.46
687.133	5128.97
687.323	5022.47
687.513	5040.9
687.702	5001.99
687.892	4911.88
688.082	4973.32
688.272	4772.62
688.461	5030.66
688.651	4858.64
688.841	4924.17
689.03	4879.11
689.22	4967.18
689.41	4883.21
689.599	4842.25
689.789	4934.41
689.979	4852.49
690.168	4875.02
690.358	4819.72
690.547	4780.81
690.737	4836.11
690.926	4926.22
691.116	4688.65
691.305	4629.26
691.495	4741.9
691.684	4612.88
691.874	4795.15
692.063	4688.65
692.252	4735.76
692.442	4803.34
692.631	4731.66
692.82	4596.5
693.01	4657.93
693.199	4588.3
693.388	4629.26
693.578	4522.77
693.767	4539.15
693.956	4633.36
694.146	4627.21
694.335	4596.5
694.524	4592.4
694.713	4539.15
694.902	4469.52
695.092	4438.8
695.281	4557.58
695.47	4588.3
695.659	4653.84
695.848	4551.44
696.037	4555.54
696.226	4426.51
696.415	4500.24
696.604	4457.23
696.793	4350.74
696.982	4449.04
697.171	4702.99
697.36	4373.27
697.549	4360.98
697.738	4418.32
697.927	4358.93
698.116	4403.99
698.305	4295.44
698.494	4369.17
698.683	4274.96
698.872	4283.16
699.061	4320.02
699.25	4193.05
699.438	4371.22
699.627	4234
699.816	4350.74
700.005	4195.09
700.193	4266.77
700.382	4322.07
700.571	4270.87
700.76	4084.5
700.948	4293.4
701.137	4217.62
701.326	4133.65
701.514	4188.95
701.703	4221.72
701.892	4047.64
702.08	4047.64
702.269	4238.1
702.457	4172.57
702.646	4147.99
702.834	4074.26
703.023	3984.15
703.212	4188.95
703.4	4156.18
703.589	4055.83
703.777	4152.09
703.965	4131.61
704.154	4049.69
704.342	3912.47
704.531	3951.39
704.719	3867.42
704.907	4031.26
705.096	3998.49
705.284	4002.58
705.472	3998.49
705.661	3760.92
705.849	4051.74
706.037	3975.96
706.226	3928.86
706.414	3908.38
706.602	3826.46
706.79	3916.57
706.979	3828.51
707.167	3793.69
707.355	3679.01
707.543	3961.62
707.731	3769.12
707.919	3736.35
708.107	3683.1
708.296	3779.36
708.484	3695.39
708.672	3679.01
708.86	3695.39
709.048	3832.6
709.236	3785.5
709.424	3515.17
709.612	3625.76
709.8	3633.95
709.988	3599.13
710.176	3691.29
710.364	3660.57
710.551	3683.1
710.739	3504.93
710.927	3607.33
711.115	3523.36
711.303	3648.29
711.491	3693.34
711.679	3576.61
711.866	3785.5
712.054	3654.43
712.242	3519.26
712.43	3572.51
712.617	3437.34
712.805	3556.13
712.993	3490.59
713.181	3453.73
713.368	3443.49
713.556	3570.46
713.744	3332.9
713.931	3443.49
714.119	3494.69
714.306	3459.87
714.494	3336.99
714.682	3400.48
714.869	3318.56
715.057	3373.86
715.244	3310.37
715.432	3373.86
715.619	3392.29
715.807	3408.67
715.994	3369.76
716.182	3277.6
716.369	3171.11
716.556	3386.15
716.744	3334.95
716.931	3201.83
717.119	3246.88
717.306	3326.75
717.493	3244.84
717.681	3226.4
717.868	3197.73
718.055	3171.11
718.242	3121.96
718.43	3343.14
718.617	3185.44
718.804	3197.73
718.991	3230.5
719.179	3130.15
719.366	3171.11
719.553	3070.76
719.74	3146.53
719.927	3109.67
720.114	3064.61
720.301	3019.56
720.488	3124.01
720.676	3031.85
720.863	3164.97
721.05	3089.19
721.237	2992.94
721.424	3031.85
721.611	3064.61
721.798	2992.94
721.985	2992.94
722.172	2851.63
722.358	2859.82
722.545	3050.28
722.732	3048.23
722.919	3001.13
723.106	2947.88
723.293	2894.63
723.48	2966.31
723.667	2874.15
723.853	2937.64
724.04	2968.36
724.227	2974.5
724.414	2900.78
724.6	2919.21
724.787	2908.97
724.974	2941.74
725.161	2837.29
725.347	2755.37
725.534	2913.06
725.72	2788.14
725.907	2845.48
726.094	3023.66
726.28	2851.63
726.467	2769.71
726.653	2786.09
726.84	2921.26
727.027	2849.58
727.213	2798.38
727.4	2818.86
727.586	2865.96
727.773	2827.05
727.959	2698.03
728.145	2607.92
728.332	2618.16
728.518	2839.34
728.705	2695.98
728.891	2601.77
729.077	2673.45
729.264	2573.1
729.45	2734.89
729.636	2790.19
729.823	2638.64
730.009	2618.16
730.195	2640.69
730.382	2761.52
730.568	2585.39
730.754	2616.11
730.94	2657.07
731.126	2554.67
731.313	2558.77
731.499	2693.93
731.685	2652.97
731.871	2607.92
732.057	2599.73
732.243	2618.16
732.429	2474.8
732.615	2532.14
732.801	2519.85
732.987	2573.1
733.173	2566.96
733.359	2597.68
733.545	2556.72
733.731	2552.62
733.917	2630.45
734.103	2591.53
734.289	2499.38
734.475	2482.99
734.661	2528.05
734.847	2581.29
735.033	2378.55
735.219	2423.6
735.404	2476.85
735.59	2534.19
735.776	2405.17
735.962	2540.33
736.148	2421.55
736.333	2491.18
736.519	2343.73
736.705	2458.42
736.89	2394.93
737.076	2474.8
737.262	2401.07
737.447	2411.31
737.633	2380.59
737.819	2417.46
738.004	2286.39
738.19	2227
738.375	2321.2
738.561	2425.65
738.747	2319.15
738.932	2233.14
739.118	2476.85
739.303	2294.58
739.489	2157.36
739.674	2243.38
739.859	2257.71
740.045	2308.91
740.23	2263.86
740.416	2214.71
740.601	2286.39
740.786	2190.13
740.972	2163.51
741.157	2194.23
741.342	2206.52
741.528	2179.89
741.713	2143.03
741.898	2120.5
742.084	2229.04
742.269	2214.71
742.454	2227
742.639	2231.09
742.824	2116.41
743.01	2122.55
743.195	2122.55
743.38	2231.09
743.565	2026.29
743.75	2112.31
743.935	2206.52
744.12	2036.53
744.305	1995.57
744.49	1925.94
744.675	2003.77
744.86	2040.63
745.045	1960.76
745.23	1968.95
745.415	2016.05
745.6	1930.04
745.785	1911.61
745.97	1923.9
746.155	1975.1
746.34	1995.57
746.525	1846.07
746.71	1901.37
746.895	1803.07
747.079	1860.41
747.264	1889.08
747.449	1811.26
747.634	1846.07
747.819	1786.68
748.003	1805.11
748.188	1852.22
748.373	1868.6
748.557	1755.96
748.742	1762.11
748.927	1821.5
749.111	1739.58
749.296	1772.35
749.481	1712.96
749.665	1755.96
749.85	1770.3
750.034	1696.57
750.219	1753.91
750.404	1803.07
750.588	1688.38
750.773	1620.8
750.957	1715
751.141	1649.47
751.326	1573.69
751.51	1502.01
751.695	1606.46
751.879	1602.36
752.064	1573.69
752.248	1577.79
752.432	1592.13
752.617	1635.13
752.801	1540.93
752.985	1497.92
753.17	1528.64
753.354	1524.54
753.538	1524.54
753.722	1506.11
753.907	1467.2
754.091	1553.21
754.275	1520.45
754.459	1370.94
754.643	1409.86
754.828	1356.61
755.012	1356.61
755.196	1467.2
755.38	1520.45
755.564	1391.42
755.748	1422.14
755.932	1420.1
756.116	1481.53
756.3	1387.33
756.484	1377.09
756.668	1241.92
756.852	1323.84
757.036	1305.41
757.22	1133.38
757.404	1270.59
757.588	1289.03
757.772	1340.22
757.956	1196.87
758.14	1362.75
758.323	1239.87
758.507	1211.2
758.691	1280.83
758.875	1200.96
759.059	1213.25
759.242	1172.29
759.426	1246.02
759.61	1215.3
759.794	1227.59
759.977	1127.24
760.161	1299.27
760.345	1336.13
760.528	1286.98
760.712	1174.34
760.895	1237.83
761.079	1119.04
761.263	1131.33
761.446	1088.32
761.63	1143.62
761.813	1121.09
761.997	1174.34
762.18	1061.7
762.364	1172.29
762.547	1010.5
762.731	1094.47
762.914	1123.14
763.098	1112.9
763.281	1061.7
763.464	1047.37
763.648	1067.85
763.831	1076.04
764.015	996.17
764.198	1076.04
764.381	1069.89
764.564	1024.84
764.748	1078.08
764.931	1065.8
765.114	1045.32
765.297	1125.19
765.481	1073.99
765.664	1033.03
765.847	1012.55
766.03	1082.18
766.213	885.58
766.397	975.69
766.58	920.39
766.763	1016.65
766.946	1071.94
767.129	953.16
767.312	965.45
767.495	1020.74
767.678	1028.93
767.861	936.78
768.044	938.82
768.227	977.73
768.41	910.15
768.593	873.29
768.776	985.93
768.959	893.77
769.142	901.96
769.324	1033.03
769.507	930.63
769.69	926.54
769.873	1000.26
770.056	951.11
770.239	967.49
770.421	963.4
770.604	934.73
770.787	863.05
770.97	930.63
771.152	899.91
771.335	942.92
771.518	787.27
771.7	848.71
771.883	887.62
772.066	836.42
772.248	910.15
772.431	910.15
772.613	904.01
772.796	904.01
772.978	840.52
773.161	912.2
773.343	797.51
773.526	766.79
773.708	863.05
773.891	768.84
774.073	815.94
774.256	795.47
774.438	842.57
774.621	803.66
774.803	762.7
774.985	783.18
775.168	795.47
775.35	699.21
775.532	822.09
775.715	725.83
775.897	772.94
776.079	750.41
776.261	779.08
776.444	648.01
776.626	822.09
776.808	762.7
776.99	664.4
777.173	754.51
777.355	715.59
777.537	770.89
777.719	648.01
777.901	635.72
778.083	645.96
778.265	615.24
778.447	742.22
778.629	713.55
778.811	693.07
778.993	680.78
779.175	674.64
779.357	668.49
779.539	615.24
779.721	617.29
779.903	639.82
780.085	607.05
780.267	658.25
780.449	660.3
780.631	633.68
780.812	703.31
780.994	629.58
781.176	594.76
781.358	645.96
781.54	592.72
781.721	607.05
781.903	557.9
782.085	592.72
782.267	656.2
782.448	529.23
782.63	568.14
782.812	582.48
782.993	652.11
783.175	568.14
783.357	545.61
783.538	521.04
783.72	582.48
783.901	564.04
784.083	533.33
784.264	529.23
784.446	529.23
784.627	555.85
784.809	459.6
784.99	439.12
785.172	512.85
785.353	594.76
785.535	555.85
785.716	473.93
785.897	521.04
786.079	465.74
786.26	516.94
786.441	578.38
786.623	469.84
786.804	469.84
786.985	463.69
787.167	574.28
787.348	543.57
787.529	439.12
787.71	426.83
787.891	500.56
788.073	445.26
788.254	369.49
788.435	488.27
788.616	412.5
788.797	394.06
788.978	402.26
789.159	375.63
789.34	447.31
789.522	478.03
789.703	430.93
789.884	447.31
790.065	377.68
790.246	445.26
790.427	412.5
790.607	533.33
790.788	437.07
790.969	342.86
791.15	428.88
791.331	353.1
791.512	330.58
791.693	414.54
791.874	363.34
792.054	418.64
792.235	373.58
792.416	410.45
792.597	342.86
792.778	402.26
792.958	406.35
793.139	328.53
793.32	353.1
793.5	338.77
793.681	463.69
793.862	357.2
794.042	392.02
794.223	258.9
794.404	369.49
794.584	283.47
794.765	328.53
794.945	287.57
795.126	328.53
795.306	398.16
795.487	297.81
795.667	383.82
795.848	361.3
796.028	361.3
796.209	324.43
796.389	328.53
796.57	287.57
796.75	306
796.93	371.54
797.111	262.99
797.291	297.81
797.471	267.09
797.652	281.43
797.832	256.85
798.012	328.53
798.192	273.23
798.373	295.76
798.553	328.53
798.733	316.24
798.913	273.23
799.093	346.96
799.274	324.43
799.454	267.09
799.634	279.38
799.814	295.76
799.994	287.57
800.174	303.95
800.354	250.71
800.534	197.46
800.714	250.71
800.894	234.32
801.074	191.31
801.254	234.32
801.434	197.46
801.614	230.23
801.794	176.98
801.974	1043.27
802.154	197.46
802.334	187.22
802.514	248.66
802.693	209.75
802.873	256.85
803.053	287.57
803.233	226.13
803.413	320.34
803.592	230.23
803.772	242.51
803.952	242.51
804.131	74.58
804.311	346.96
804.491	346.96
804.67	262.99
804.85	279.38
805.03	185.17
805.209	248.66
805.389	197.46
805.568	189.27
805.748	246.61
805.928	197.46
806.107	271.19
806.287	293.71
806.466	320.34
806.646	262.99
806.825	297.81
807.004	230.23
807.184	189.27
807.363	232.27
807.543	217.94
807.722	236.37
807.901	248.66
808.081	222.03
808.26	191.31
808.439	254.8
808.619	246.61
808.798	181.07
808.977	275.28
809.156	238.42
809.336	205.65
809.515	152.4
809.694	168.79
809.873	179.03
810.052	201.55
810.231	293.71
810.411	213.84
810.59	238.42
810.769	131.92
810.948	262.99
811.127	140.12
811.306	217.94
811.485	199.51
811.664	222.03
811.843	199.51
812.022	205.65
812.201	248.66
812.38	197.46
812.559	148.31
812.737	287.57
812.916	193.36
813.095	193.36
813.274	170.83
813.453	207.7
813.632	197.46
813.811	250.71
813.989	181.07
814.168	240.47
814.347	240.47
814.526	199.51
814.704	199.51
814.883	187.22
815.062	152.4
815.24	201.55
815.419	99.16
815.598	84.82
815.776	103.25
815.955	209.75
816.133	86.87
816.312	222.03
816.49	152.4
816.669	230.23
816.847	152.4
817.026	217.94
817.204	250.71
817.383	84.82
817.561	181.07
817.74	183.12
817.918	136.02
818.097	181.07
818.275	148.31
818.453	176.98
818.632	183.12
818.81	152.4
818.988	127.83
819.167	160.59
819.345	156.5
819.523	156.5
819.701	117.59
819.879	201.55
820.058	131.92
820.236	109.4
820.414	148.31
820.592	133.97
820.77	150.36
820.948	183.12
821.127	99.16
821.305	158.55
821.483	150.36
821.661	78.68
821.839	140.12
822.017	127.83
822.195	131.92
822.373	156.5
822.551	136.02
822.729	113.49
822.907	90.96
823.085	140.12
823.262	103.25
823.44	131.92
823.618	82.77
823.796	191.31
823.974	111.44
824.152	107.35
824.329	54.1
824.507	123.73
824.685	60.24
824.863	86.87
825.04	111.44
825.218	201.55
825.396	101.2
825.574	119.64
825.751	121.68
825.929	140.12
826.107	50
826.284	107.35
826.462	138.07
826.639	62.29
826.817	70.48
826.994	115.54
827.172	125.78
827.349	168.79
827.527	97.11
827.704	99.16
827.882	90.96
828.059	58.2
828.237	50
828.414	47.96
828.591	33.62
828.769	172.88
828.946	62.29
829.124	109.4
829.301	123.73
829.478	113.49
829.655	174.93
829.833	107.35
830.01	107.35
830.187	66.39
830.364	156.5
830.542	133.97
830.719	158.55
830.896	133.97
831.073	41.81
831.25	82.77
831.427	93.01
831.604	131.92
831.782	115.54
831.959	164.69
832.136	117.59
832.313	119.64
832.49	158.55
832.667	93.01
832.844	7
833.021	52.05
833.198	54.1
833.374	95.06
833.551	84.82
833.728	136.02
833.905	150.36
834.082	-11.43
834.259	74.58
834.436	121.68
834.612	117.59
834.789	93.01
834.966	160.59
835.143	80.72
835.319	107.35
835.496	93.01
835.673	136.02
835.85	103.25
836.026	156.5
836.203	76.63
836.38	82.77
836.556	54.1
836.733	50
836.909	117.59
837.086	78.68
837.262	142.16
837.439	90.96
837.616	68.44
837.792	117.59
837.968	99.16
838.145	19.29
838.321	70.48
838.498	93.01
838.674	107.35
838.851	131.92
839.027	74.58
839.203	52.05
839.38	99.16
839.556	50
839.732	133.97
839.909	84.82
840.085	123.73
840.261	101.2
840.437	107.35
840.614	15.19
840.79	9.05
840.966	52.05
841.142	39.76
841.318	2.9
841.494	115.54
841.671	70.48
841.847	60.24
842.023	-23.72
842.199	107.35
842.375	119.64
842.551	62.29
842.727	50
842.903	166.74
843.079	66.39
843.255	101.2
843.431	9.05
843.607	78.68
843.783	-27.82
843.959	52.05
844.134	9.05
844.31	117.59
844.486	21.33
844.662	11.09
844.838	62.29
845.013	23.38
845.189	93.01
845.365	76.63
845.541	64.34
845.716	41.81
845.892	88.92
846.068	140.12
846.244	17.24
846.419	138.07
846.595	43.86
846.77	-29.87
846.946	66.39
847.122	21.33
847.297	107.35
847.473	166.74
847.648	66.39
847.824	105.3
847.999	27.48
848.175	84.82
848.35	74.58
848.526	66.39
848.701	103.25
848.876	90.96
849.052	78.68
849.227	43.86
849.403	68.44
849.578	9.05
849.753	125.78
849.929	17.24
850.104	78.68
850.279	125.78
850.454	93.01
850.63	-3.24
850.805	45.91
850.98	148.31
851.155	60.24
851.33	56.15
851.505	33.62
851.681	162.64
851.856	11.09
852.031	78.68
852.206	74.58
852.381	25.43
852.556	-36.01
852.731	156.5
852.906	86.87
853.081	45.91
853.256	103.25
853.431	84.82
853.606	-56.49
853.781	115.54
853.956	-44.2
854.131	148.31
854.305	-5.29
854.48	58.2
854.655	99.16
854.83	35.67
855.005	25.43
855.18	11.09
855.354	93.01
855.529	47.96
855.704	29.52
855.879	201.55
856.053	39.76
856.228	58.2
856.403	35.67
856.577	109.4
856.752	37.72
856.926	88.92
857.101	93.01
857.276	33.62
857.45	82.77
857.625	93.01
857.799	19.29
857.974	66.39
858.148	29.52
858.323	74.58
858.497	60.24
858.672	90.96
858.846	25.43
859.02	115.54
859.195	0.85
859.369	115.54
859.543	60.24
859.718	72.53
859.892	15.19
860.066	33.62
860.241	90.96
860.415	11.09
860.589	54.1
860.763	93.01
860.938	2.9
861.112	50
861.286	37.72
861.46	60.24
861.634	17.24
861.808	90.96
861.982	58.2
862.157	0.85
862.331	-29.87
862.505	50
862.679	-46.25
862.853	101.2
863.027	-33.96
863.201	99.16
863.375	19.29
863.549	41.81
863.722	50
863.896	146.26
864.07	9.05
864.244	27.48
864.418	25.43
864.592	62.29
864.766	9.05
864.939	148.31
865.113	52.05
865.287	60.24
865.461	82.77
865.634	72.53
865.808	35.67
865.982	33.62
866.156	-15.53
866.329	-29.87
866.503	86.87
866.676	13.14
866.85	142.16
867.024	-36.01
867.197	17.24
867.371	-48.3
867.544	-3.24
867.718	27.48
867.891	82.77
868.065	21.33
868.238	-25.77
868.412	78.68
868.585	21.33
868.759	31.57
868.932	66.39
869.105	21.33
869.279	-7.34
869.452	4.95
869.625	19.29
869.799	47.96
869.972	60.24
870.145	74.58
870.319	31.57
870.492	74.58
870.665	15.19
870.838	-64.68
871.011	-48.3
871.185	9.05
871.358	-5.29
871.531	62.29
871.704	25.43
871.877	66.39
872.05	17.24
872.223	58.2
872.396	13.14
872.569	90.96
872.742	-7.34
872.915	33.62
873.088	-21.67
873.261	-5.29
873.434	13.14
873.607	33.62
873.78	78.68
873.953	17.24
874.126	2.9
874.299	148.31
874.471	-15.53
874.644	35.67
874.817	35.67
874.99	-5.29
875.163	-11.43
875.335	82.77
875.508	-19.63
875.681	29.52
875.853	58.2
876.026	58.2
876.199	93.01
876.371	58.2
876.544	-40.11
876.717	99.16
876.889	11.09
877.062	60.24
877.234	17.24
877.407	-17.58
877.579	2.9
877.752	86.87
877.924	27.48
878.097	136.02
878.269	41.81
878.442	13.14
878.614	-3.24
878.786	37.72
878.959	84.82
879.131	50
879.303	7
879.476	15.19
879.648	90.96
879.82	-5.29
879.993	4.95
880.165	-13.48
880.337	33.62
880.509	27.48
880.681	-7.34
880.854	4.95
881.026	62.29
881.198	76.63
881.37	21.33
881.542	60.24
881.714	62.29
881.886	19.29
882.058	25.43
882.23	37.72
882.402	66.39
882.574	25.43
882.746	136.02
882.918	66.39
883.09	76.63
883.262	29.52
883.434	17.24
883.606	17.24
883.778	68.44
883.95	66.39
884.122	33.62
884.293	41.81
884.465	70.48
884.637	78.68
884.809	62.29
884.98	66.39
885.152	35.67
885.324	52.05
885.496	41.81
885.667	58.2
885.839	37.72
886.011	45.91
886.182	31.57
886.354	101.2
886.525	27.48
886.697	11.09
886.869	-31.91
887.04	45.91
887.212	37.72
887.383	129.88
887.555	39.76
887.726	31.57
887.897	2.9
888.069	76.63
888.24	33.62
888.412	33.62
888.583	9.05
888.754	60.24
888.926	-7.34
889.097	-44.2
889.268	-21.67
889.44	66.39
889.611	2.9
889.782	-3.24
889.953	54.1
890.125	64.34
890.296	-7.34
890.467	66.39
890.638	29.52
890.809	21.33
890.98	-7.34
891.151	17.24
891.323	13.14
891.494	58.2
891.665	9.05
891.836	41.81
892.007	43.86
892.178	127.83
892.349	56.15
892.52	9.05
892.691	70.48
892.862	45.91
893.032	-13.48
893.203	127.83
893.374	64.34
893.545	54.1
893.716	66.39
893.887	74.58
894.057	-19.63
894.228	9.05
894.399	9.05
894.57	123.73
894.74	0.85
894.911	-81.07
895.082	17.24
895.253	-13.48
895.423	39.76
895.594	107.35
895.764	-64.68
895.935	-7.34
896.106	0.85
896.276	74.58
896.447	-46.25
896.617	50
896.788	13.14
896.958	58.2
897.129	-21.67
897.299	25.43
897.47	17.24
897.64	29.52
897.81	25.43
897.981	58.2
898.151	-31.91
898.322	-13.48
898.492	9.05
898.662	-1.19
898.832	-9.39
899.003	45.91
899.173	60.24
899.343	-36.01
899.513	-11.43
