Data from USB4F104151__254__14-34-16-883.txt Node

Date: Thu Mar 13 14:34:16 EDT 2025
User: louis
Spectrometer: USB4F10415
Trigger mode: 4
Integration Time (sec): 2.500000E-2
Scans to average: 1
Electric dark correction enabled: true
Nonlinearity correction enabled: false
Boxcar width: 0
XAxis mode: Wavelengths
Number of Pixels in Spectrum: 3648
>>>>>Begin Spectral Data<<<<<
178.204	-175.44
178.424	-175.44
178.644	-175.44
178.864	-159.06
179.084	-122.2
179.304	23.21
179.524	-91.48
179.744	-9.56
179.964	80.55
180.184	-9.56
180.404	23.21
180.624	-27.99
180.844	-9.56
181.064	-15.7
181.283	66.22
181.503	-60.76
181.723	31.4
181.943	-3.41
182.163	109.22
182.383	-9.56
182.602	25.26
182.822	41.64
183.042	25.26
183.262	0.68
183.482	-15.7
183.701	68.27
183.921	-9.56
184.141	0.68
184.361	27.31
184.58	25.26
184.8	25.26
185.02	-30.04
185.239	105.13
185.459	4.78
185.679	82.6
185.898	-27.99
186.118	113.32
186.338	39.59
186.557	45.74
186.777	51.88
186.997	-34.13
187.216	-5.46
187.436	33.45
187.655	70.31
187.875	35.5
188.095	27.31
188.314	115.37
188.534	15.02
188.753	15.02
188.973	23.21
189.192	105.13
189.412	125.61
189.631	23.21
189.851	23.21
190.07	-58.71
190.29	39.59
190.509	47.79
190.729	43.69
190.948	70.31
191.168	123.56
191.387	68.27
191.607	10.92
191.826	55.98
192.045	111.27
192.265	10.92
192.484	-40.28
192.704	31.4
192.923	-42.32
193.142	58.03
193.362	-7.51
193.581	133.8
193.8	68.27
194.02	107.18
194.239	-15.7
194.458	78.51
194.678	-11.61
194.897	70.31
195.116	-1.37
195.335	64.17
195.555	43.69
195.774	70.31
195.993	-19.8
196.212	17.07
196.432	12.97
196.651	-23.89
196.87	-38.23
197.089	113.32
197.308	43.69
197.528	47.79
197.747	-46.42
197.966	0.68
198.185	8.87
198.404	10.92
198.623	72.36
198.842	53.93
199.062	86.7
199.281	12.97
199.5	121.51
199.719	-5.46
199.938	133.8
200.157	105.13
200.376	80.55
200.595	43.69
200.814	45.74
201.033	90.79
201.252	105.13
201.471	70.31
201.69	55.98
201.909	49.83
202.128	6.83
202.347	78.51
202.566	-21.85
202.785	-5.46
203.004	21.16
203.223	96.94
203.442	-5.46
203.661	12.97
203.879	-17.75
204.098	6.83
204.317	8.87
204.536	39.59
204.755	17.07
204.974	4.78
205.193	51.88
205.411	146.09
205.63	47.79
205.849	35.5
206.068	58.03
206.287	72.36
206.505	78.51
206.724	-42.32
206.943	35.5
207.162	-9.56
207.381	15.02
207.599	-1.37
207.818	37.55
208.037	15.02
208.255	-3.41
208.474	-7.51
208.693	-23.89
208.911	74.41
209.13	6.83
209.349	-5.46
209.567	-9.56
209.786	39.59
210.005	74.41
210.223	-7.51
210.442	31.4
210.661	-32.08
210.879	45.74
211.098	-1.37
211.316	64.17
211.535	15.02
211.753	-30.04
211.972	-17.75
212.191	-13.65
212.409	55.98
212.628	23.21
212.846	17.07
213.065	35.5
213.283	94.89
213.502	-13.65
213.72	-5.46
213.938	72.36
214.157	8.87
214.375	6.83
214.594	35.5
214.812	29.35
215.031	121.51
215.249	-3.41
215.467	23.21
215.686	6.83
215.904	55.98
216.122	55.98
216.341	96.94
216.559	55.98
216.778	103.08
216.996	55.98
217.214	-17.75
217.432	41.64
217.651	-25.94
217.869	58.03
218.087	35.5
218.306	84.65
218.524	60.07
218.742	43.69
218.96	62.12
219.179	21.16
219.397	-9.56
219.615	64.17
219.833	-15.7
220.051	2.73
220.27	121.51
220.488	62.12
220.706	27.31
220.924	2.73
221.142	6.83
221.36	43.69
221.578	6.83
221.796	27.31
222.015	19.11
222.233	6.83
222.451	80.55
222.669	-1.37
222.887	68.27
223.105	19.11
223.323	-1.37
223.541	15.02
223.759	58.03
223.977	0.68
224.195	66.22
224.413	6.83
224.631	8.87
224.849	17.07
225.067	27.31
225.285	-17.75
225.503	78.51
225.721	-1.37
225.939	25.26
226.157	15.02
226.375	86.7
226.592	12.97
226.81	-15.7
227.028	92.84
227.246	107.18
227.464	31.4
227.682	23.21
227.9	41.64
228.117	31.4
228.335	-5.46
228.553	15.02
228.771	-15.7
228.989	47.79
229.206	35.5
229.424	15.02
229.642	15.02
229.86	98.99
230.077	17.07
230.295	31.4
230.513	-1.37
230.731	127.66
230.948	31.4
231.166	19.11
231.384	-38.23
231.601	96.94
231.819	119.46
232.037	-5.46
232.254	-36.18
232.472	-1.37
232.689	-9.56
232.907	47.79
233.125	51.88
233.342	23.21
233.56	0.68
233.777	25.26
233.995	0.68
234.213	64.17
234.43	47.79
234.648	88.75
234.865	15.02
235.083	58.03
235.3	15.02
235.518	15.02
235.735	72.36
235.953	55.98
236.17	29.35
236.388	64.17
236.605	-13.65
236.822	60.07
237.04	39.59
237.257	2.73
237.475	-50.52
237.692	6.83
237.909	39.59
238.127	-7.51
238.344	-9.56
238.562	15.02
238.779	-9.56
238.996	10.92
239.214	-30.04
239.431	41.64
239.648	-7.51
239.865	19.11
240.083	23.21
240.3	23.21
240.517	-52.56
240.735	6.83
240.952	-21.85
241.169	-5.46
241.386	37.55
241.603	4.78
241.821	-34.13
242.038	72.36
242.255	8.87
242.472	-34.13
242.689	17.07
242.907	33.45
243.124	92.84
243.341	88.75
243.558	-1.37
243.775	19.11
243.992	23.21
244.209	0.68
244.426	113.32
244.643	96.94
244.86	2.73
245.078	15.02
245.295	64.17
245.512	41.64
245.729	39.59
245.946	-9.56
246.163	-34.13
246.38	115.37
246.597	33.45
246.814	39.59
247.031	-1.37
247.248	-13.65
247.464	-34.13
247.681	72.36
247.898	105.13
248.115	47.79
248.332	55.98
248.549	45.74
248.766	137.9
248.983	25.26
249.2	39.59
249.417	68.27
249.633	37.55
249.85	49.83
250.067	-42.32
250.284	31.4
250.501	60.07
250.717	72.36
250.934	39.59
251.151	19.11
251.368	-5.46
251.585	23.21
251.801	41.64
252.018	-9.56
252.235	58.03
252.451	10.92
252.668	84.65
252.885	101.03
253.102	23.21
253.318	88.75
253.535	8.87
253.752	33.45
253.968	19.11
254.185	15.02
254.401	-1.37
254.618	6.83
254.835	33.45
255.051	82.6
255.268	66.22
255.484	66.22
255.701	-9.56
255.917	121.51
256.134	37.55
256.351	55.98
256.567	-75.09
256.784	33.45
257	33.45
257.217	49.83
257.433	74.41
257.65	103.08
257.866	55.98
258.082	-83.28
258.299	23.21
258.515	-17.75
258.732	41.64
258.948	15.02
259.165	10.92
259.381	15.02
259.597	-17.75
259.814	51.88
260.03	23.21
260.246	-83.28
260.463	8.87
260.679	-7.51
260.895	117.42
261.112	64.17
261.328	-11.61
261.544	60.07
261.761	72.36
261.977	35.5
262.193	-15.7
262.409	31.4
262.626	68.27
262.842	105.13
263.058	-23.89
263.274	51.88
263.49	6.83
263.707	62.12
263.923	-15.7
264.139	55.98
264.355	74.41
264.571	86.7
264.787	-32.08
265.004	113.32
265.22	-46.42
265.436	-7.51
265.652	-34.13
265.868	47.79
266.084	64.17
266.3	58.03
266.516	-23.89
266.732	55.98
266.948	-9.56
267.164	-5.46
267.38	92.84
267.596	60.07
267.812	41.64
268.028	68.27
268.244	10.92
268.46	45.74
268.676	-23.89
268.892	15.02
269.108	4.78
269.324	-21.85
269.54	4.78
269.756	31.4
269.972	-5.46
270.188	58.03
270.403	-13.65
270.619	10.92
270.835	25.26
271.051	74.41
271.267	55.98
271.483	23.21
271.698	43.69
271.914	25.26
272.13	35.5
272.346	39.59
272.562	-1.37
272.777	0.68
272.993	-9.56
273.209	-32.08
273.425	98.99
273.64	-17.75
273.856	2.73
274.072	8.87
274.287	-23.89
274.503	115.37
274.719	72.36
274.934	-9.56
275.15	-50.52
275.366	45.74
275.581	-21.85
275.797	80.55
276.012	23.21
276.228	-48.47
276.444	29.35
276.659	96.94
276.875	8.87
277.09	88.75
277.306	29.35
277.521	111.27
277.737	35.5
277.952	88.75
278.168	113.32
278.383	139.94
278.599	27.31
278.814	62.12
279.03	39.59
279.245	25.26
279.461	72.36
279.676	10.92
279.892	55.98
280.107	27.31
280.322	21.16
280.538	17.07
280.753	-7.51
280.969	123.56
281.184	31.4
281.399	64.17
281.615	-9.56
281.83	90.79
282.045	-50.52
282.26	49.83
282.476	39.59
282.691	31.4
282.906	72.36
283.122	88.75
283.337	107.18
283.552	-15.7
283.767	43.69
283.983	2.73
284.198	2.73
284.413	66.22
284.628	31.4
284.843	117.42
285.058	80.55
285.274	33.45
285.489	6.83
285.704	64.17
285.919	-9.56
286.134	64.17
286.349	-17.75
286.564	-9.56
286.779	82.6
286.995	35.5
287.21	-30.04
287.425	6.83
287.64	72.36
287.855	39.59
288.07	-52.56
288.285	47.79
288.5	72.36
288.715	60.07
288.93	31.4
289.145	6.83
289.36	17.07
289.575	-13.65
289.79	15.02
290.004	35.5
290.219	66.22
290.434	31.4
290.649	17.07
290.864	-9.56
291.079	33.45
291.294	39.59
291.509	45.74
291.724	-1.37
291.938	-9.56
292.153	19.11
292.368	15.02
292.583	41.64
292.798	-3.41
293.012	105.13
293.227	43.69
293.442	-9.56
293.657	62.12
293.871	82.6
294.086	15.02
294.301	47.79
294.516	35.5
294.73	12.97
294.945	-1.37
295.16	80.55
295.374	92.84
295.589	98.99
295.804	47.79
296.018	-9.56
296.233	82.6
296.447	55.98
296.662	0.68
296.877	37.55
297.091	66.22
297.306	6.83
297.52	0.68
297.735	55.98
297.949	55.98
298.164	31.4
298.378	94.89
298.593	23.21
298.807	23.21
299.022	39.59
299.236	88.75
299.451	-105.81
299.665	39.59
299.88	68.27
300.094	41.64
300.309	105.13
300.523	35.5
300.737	-25.94
300.952	39.59
301.166	72.36
301.381	47.79
301.595	-1.37
301.809	33.45
302.024	15.02
302.238	-1.37
302.452	47.79
302.667	66.22
302.881	72.36
303.095	64.17
303.309	31.4
303.524	-9.56
303.738	-15.7
303.952	-7.51
304.166	-3.41
304.381	35.5
304.595	84.65
304.809	-11.61
305.023	39.59
305.237	12.97
305.452	39.59
305.666	-5.46
305.88	19.11
306.094	55.98
306.308	8.87
306.522	60.07
306.736	33.45
306.95	47.79
307.164	74.41
307.379	-48.47
307.593	39.59
307.807	121.51
308.021	35.5
308.235	90.79
308.449	-50.52
308.663	-25.94
308.877	96.94
309.091	6.83
309.305	41.64
309.519	15.02
309.733	129.7
309.947	53.93
310.161	-32.08
310.374	33.45
310.588	98.99
310.802	-23.89
311.016	-30.04
311.23	64.17
311.444	27.31
311.658	49.83
311.872	113.32
312.085	17.07
312.299	19.11
312.513	-5.46
312.727	31.4
312.941	-17.75
313.154	17.07
313.368	8.87
313.582	31.4
313.796	25.26
314.009	53.93
314.223	82.6
314.437	39.59
314.651	31.4
314.864	-32.08
315.078	-23.89
315.292	17.07
315.505	66.22
315.719	0.68
315.933	62.12
316.146	-32.08
316.36	-7.51
316.573	6.83
316.787	49.83
317.001	74.41
317.214	-40.28
317.428	55.98
317.641	4.78
317.855	39.59
318.068	6.83
318.282	27.31
318.495	70.31
318.709	133.8
318.922	31.4
319.136	113.32
319.349	-7.51
319.563	39.59
319.776	80.55
319.99	-11.61
320.203	90.79
320.417	29.35
320.63	115.37
320.843	88.75
321.057	10.92
321.27	51.88
321.483	51.88
321.697	80.55
321.91	74.41
322.124	55.98
322.337	21.16
322.55	66.22
322.763	43.69
322.977	2.73
323.19	2.73
323.403	25.26
323.617	101.03
323.83	49.83
324.043	25.26
324.256	49.83
324.469	-75.09
324.683	80.55
324.896	-50.52
325.109	39.59
325.322	-38.23
325.535	96.94
325.748	39.59
325.962	-32.08
326.175	60.07
326.388	64.17
326.601	-3.41
326.814	64.17
327.027	58.03
327.24	66.22
327.453	-62.8
327.666	12.97
327.879	51.88
328.092	15.02
328.305	25.26
328.518	19.11
328.731	-50.52
328.944	68.27
329.157	113.32
329.37	51.88
329.583	98.99
329.796	133.8
330.009	31.4
330.222	15.02
330.435	47.79
330.648	64.17
330.861	39.59
331.073	107.18
331.286	39.59
331.499	109.22
331.712	-13.65
331.925	90.79
332.138	41.64
332.35	43.69
332.563	15.02
332.776	84.65
332.989	0.68
333.202	-34.13
333.414	-7.51
333.627	88.75
333.84	8.87
334.053	0.68
334.265	80.55
334.478	86.7
334.691	55.98
334.903	64.17
335.116	25.26
335.329	8.87
335.541	31.4
335.754	70.31
335.966	-62.8
336.179	88.75
336.392	23.21
336.604	51.88
336.817	90.79
337.029	96.94
337.242	-21.85
337.454	88.75
337.667	-23.89
337.88	15.02
338.092	15.02
338.305	41.64
338.517	-11.61
338.729	98.99
338.942	135.85
339.154	-9.56
339.367	-32.08
339.579	135.85
339.792	2.73
340.004	31.4
340.217	15.02
340.429	35.5
340.641	6.83
340.854	10.92
341.066	64.17
341.278	72.36
341.491	105.13
341.703	123.56
341.915	-34.13
342.128	86.7
342.34	31.4
342.552	-50.52
342.764	47.79
342.977	17.07
343.189	72.36
343.401	17.07
343.613	-27.99
343.826	23.21
344.038	-42.32
344.25	43.69
344.462	-15.7
344.674	49.83
344.886	31.4
345.099	55.98
345.311	31.4
345.523	66.22
345.735	-58.71
345.947	96.94
346.159	35.5
346.371	29.35
346.583	47.79
346.795	131.75
347.007	-9.56
347.219	39.59
347.431	47.79
347.643	-9.56
347.855	-34.13
348.067	41.64
348.279	66.22
348.491	35.5
348.703	58.03
348.915	58.03
349.127	19.11
349.339	115.37
349.551	27.31
349.763	101.03
349.975	51.88
350.187	58.03
350.399	156.33
350.61	49.83
350.822	-17.75
351.034	121.51
351.246	15.02
351.458	39.59
351.669	29.35
351.881	64.17
352.093	41.64
352.305	47.79
352.517	6.83
352.728	96.94
352.94	39.59
353.152	-19.8
353.363	-1.37
353.575	49.83
353.787	94.89
353.999	31.4
354.21	96.94
354.422	-7.51
354.633	19.11
354.845	53.93
355.057	92.84
355.268	137.9
355.48	8.87
355.692	51.88
355.903	53.93
356.115	8.87
356.326	31.4
356.538	23.21
356.749	27.31
356.961	162.47
357.172	33.45
357.384	68.27
357.595	80.55
357.807	47.79
358.018	-7.51
358.23	2.73
358.441	154.28
358.653	64.17
358.864	58.03
359.075	-11.61
359.287	96.94
359.498	107.18
359.709	23.21
359.921	-7.51
360.132	-5.46
360.344	47.79
360.555	31.4
360.766	113.32
360.977	8.87
361.189	33.45
361.4	41.64
361.611	72.36
361.823	53.93
362.034	74.41
362.245	35.5
362.456	8.87
362.667	47.79
362.879	76.46
363.09	-1.37
363.301	33.45
363.512	98.99
363.723	64.17
363.935	41.64
364.146	58.03
364.357	27.31
364.568	-42.32
364.779	27.31
364.99	47.79
365.201	15.02
365.412	53.93
365.623	6.83
365.834	19.11
366.045	80.55
366.256	47.79
366.467	84.65
366.678	23.21
366.889	-66.9
367.1	35.5
367.311	105.13
367.522	64.17
367.733	25.26
367.944	109.22
368.155	23.21
368.366	25.26
368.577	55.98
368.788	92.84
368.999	17.07
369.209	98.99
369.42	121.51
369.631	84.65
369.842	2.73
370.053	6.83
370.264	70.31
370.474	23.21
370.685	39.59
370.896	76.46
371.107	47.79
371.317	84.65
371.528	8.87
371.739	25.26
371.95	88.75
372.16	58.03
372.371	29.35
372.582	15.02
372.792	39.59
373.003	25.26
373.214	31.4
373.424	146.09
373.635	76.46
373.846	131.75
374.056	25.26
374.267	74.41
374.477	72.36
374.688	64.17
374.898	121.51
375.109	64.17
375.319	98.99
375.53	84.65
375.74	94.89
375.951	72.36
376.161	64.17
376.372	72.36
376.582	92.84
376.793	25.26
377.003	31.4
377.214	76.46
377.424	129.7
377.635	105.13
377.845	17.07
378.055	113.32
378.266	74.41
378.476	27.31
378.686	96.94
378.897	31.4
379.107	101.03
379.317	23.21
379.528	6.83
379.738	35.5
379.948	-25.94
380.158	105.13
380.369	10.92
380.579	82.6
380.789	53.93
380.999	125.61
381.21	84.65
381.42	113.32
381.63	-11.61
381.84	47.79
382.05	55.98
382.261	82.6
382.471	109.22
382.681	47.79
382.891	43.69
383.101	49.83
383.311	43.69
383.521	39.59
383.731	80.55
383.941	49.83
384.151	66.22
384.361	96.94
384.571	41.64
384.781	58.03
384.991	129.7
385.201	74.41
385.411	80.55
385.621	96.94
385.831	80.55
386.041	72.36
386.251	121.51
386.461	55.98
386.671	82.6
386.881	66.22
387.091	121.51
387.301	78.51
387.511	139.94
387.72	49.83
387.93	94.89
388.14	27.31
388.35	88.75
388.56	37.55
388.769	51.88
388.979	39.59
389.189	35.5
389.399	25.26
389.609	53.93
389.818	33.45
390.028	33.45
390.238	80.55
390.447	10.92
390.657	88.75
390.867	-34.13
391.076	68.27
391.286	-66.9
391.496	80.55
391.705	68.27
391.915	105.13
392.125	96.94
392.334	113.32
392.544	150.18
392.753	88.75
392.963	74.41
393.172	43.69
393.382	123.56
393.591	154.28
393.801	107.18
394.01	105.13
394.22	107.18
394.429	35.5
394.639	47.79
394.848	35.5
395.058	60.07
395.267	66.22
395.477	211.62
395.686	172.71
395.895	170.66
396.105	148.14
396.314	105.13
396.524	80.55
396.733	82.6
396.942	223.91
397.152	129.7
397.361	47.79
397.57	103.08
397.78	131.75
397.989	107.18
398.198	103.08
398.407	27.31
398.617	152.23
398.826	88.75
399.035	33.45
399.244	105.13
399.453	121.51
399.663	207.53
399.872	92.84
400.081	84.65
400.29	123.56
400.499	49.83
400.708	213.67
400.917	119.46
401.127	15.02
401.336	150.18
401.545	170.66
401.754	172.71
401.963	131.75
402.172	27.31
402.381	23.21
402.59	92.84
402.799	76.46
403.008	64.17
403.217	148.14
403.426	98.99
403.635	113.32
403.844	109.22
404.053	168.62
404.262	180.9
404.471	191.14
404.68	236.2
404.888	170.66
405.097	105.13
405.306	238.25
405.515	160.42
405.724	170.66
405.933	219.82
406.142	197.29
406.35	197.29
406.559	211.62
406.768	162.47
406.977	324.26
407.185	185
407.394	228.01
407.603	211.62
407.812	225.96
408.02	324.26
408.229	301.73
408.438	264.87
408.646	228.01
408.855	260.77
409.064	303.78
409.272	277.16
409.481	271.01
409.69	354.98
409.898	314.02
410.107	297.64
410.315	309.93
410.524	301.73
410.733	334.5
410.941	342.69
411.15	336.55
411.358	432.8
411.567	412.32
411.775	428.71
411.984	486.05
412.192	424.61
412.401	518.82
412.609	522.91
412.818	514.72
413.026	572.07
413.234	557.73
413.443	592.55
413.651	617.12
413.86	596.64
414.068	719.52
414.276	711.33
414.485	711.33
414.693	793.25
414.901	805.53
415.11	776.86
415.318	805.53
415.526	785.05
415.734	899.74
415.943	907.93
416.151	967.32
416.359	979.61
416.567	998.04
416.776	1086.11
416.984	1088.15
417.192	1125.02
417.4	1073.82
417.608	1059.48
417.817	1288.85
418.025	1313.43
418.233	1352.34
418.441	1354.39
418.649	1295
418.857	1497.75
419.065	1481.36
419.273	1407.64
419.481	1514.13
419.689	1647.25
419.897	1686.16
420.105	1686.16
420.313	1804.94
420.521	1819.28
420.729	1944.2
420.937	1905.29
421.145	1979.02
421.353	2030.22
421.561	2181.77
421.769	2202.25
421.977	2259.59
422.185	2312.84
422.393	2364.04
422.601	2601.6
422.809	2630.27
423.017	2601.6
423.224	2685.57
423.432	2730.62
423.64	2992.76
423.848	2960
424.056	3064.44
424.263	3240.57
424.471	3197.56
424.679	3310.2
424.887	3414.65
425.094	3527.28
425.302	3607.16
425.51	3594.87
425.718	3816.05
425.925	3848.82
426.133	4012.65
426.341	4262.51
426.548	4360.81
426.756	4350.57
426.964	4538.98
427.171	4686.44
427.379	4874.85
427.586	5061.21
427.794	5050.97
428.001	5300.83
428.209	5522.01
428.417	5546.58
428.624	5861.97
428.832	5845.59
429.039	5782.1
429.247	5753.43
429.454	6347.34
429.662	6824.51
429.869	6257.23
430.076	6724.16
430.284	6679.11
430.491	7086.65
430.699	7289.4
430.906	7244.35
431.114	7141.95
431.321	7531.06
431.528	7739.96
431.736	8098.35
431.943	8694.31
432.15	8188.46
432.358	8489.51
432.565	8809
432.772	8755.75
432.979	9181.73
433.187	9583.13
433.394	9570.84
433.601	10187.28
433.808	10021.39
434.016	10066.45
434.223	10502.67
434.43	11194.88
434.637	11008.51
434.844	11641.34
435.052	11811.32
435.259	11784.69
435.466	12009.97
435.673	11772.41
435.88	12374.51
436.087	13146.59
436.294	13154.79
436.501	12749.29
436.708	13171.17
436.915	13578.72
437.122	14232.02
437.329	14240.21
437.537	14514.64
437.743	14811.59
437.95	14539.21
438.157	15495.61
438.364	15935.93
438.571	15978.93
438.778	16036.28
438.985	17271.2
439.192	16796.07
439.399	17562.01
439.606	16581.04
439.813	17975.7
440.02	18987.4
440.227	18487.7
440.433	18483.6
440.64	18909.58
440.847	18907.53
441.054	19609.98
441.261	20506.99
441.467	20330.87
441.674	20670.83
441.881	21471.59
442.088	21328.23
442.294	21266.79
442.501	21985.63
442.708	22280.53
442.914	23167.31
443.121	23994.68
443.328	23480.64
443.534	24938.8
443.741	24195.39
443.948	23929.15
444.154	25882.91
444.361	25614.63
444.568	25588
444.774	25561.38
444.981	25870.62
445.187	26874.13
445.394	27861.25
445.6	27611.4
445.807	30247.13
446.013	28999.92
446.22	29378.79
446.426	30511.32
446.633	30908.63
446.839	31873.22
447.046	30470.36
447.252	32612.54
447.459	32407.74
447.665	31953.09
447.871	33255.6
448.078	34969.75
448.284	33181.87
448.491	34562.2
448.697	35592.33
448.903	36249.73
449.11	35801.22
449.316	35459.21
449.522	36530.3
449.728	37185.65
449.935	37613.68
450.141	37744.75
450.347	38107.24
450.553	37165.17
450.76	37873.77
450.966	38762.59
451.172	38447.2
451.378	39708.75
451.584	38512.74
451.791	39653.45
451.997	39598.16
452.203	39977.03
452.409	40282.18
452.615	39549.01
452.821	38439.01
453.027	37814.38
453.233	39514.19
453.44	38312.03
453.646	38809.69
453.852	38664.28
454.058	39802.96
454.264	38703.2
454.47	39454.8
454.676	38258.79
454.882	39555.15
455.088	36493.44
455.294	36669.56
455.5	37443.7
455.705	37714.03
455.911	36096.13
456.117	35715.21
456.323	35508.36
456.529	33358
456.735	34666.65
456.941	33697.96
457.147	33106.1
457.352	32147.65
457.558	31854.79
457.764	32092.35
457.97	31172.82
458.176	30654.68
458.381	30658.77
458.587	29126.89
458.793	29100.27
458.999	27504.9
459.204	29679.85
459.41	28858.61
459.616	26818.83
459.821	26900.75
460.027	26505.49
460.233	26186.01
460.438	25108.78
460.644	25299.24
460.85	24140.09
461.055	23529.8
461.261	23755.07
461.466	21690.72
461.672	21127.53
461.878	22432.08
462.083	20849
462.289	20699.5
462.494	20337.01
462.7	19730.81
462.905	19200.39
463.111	19749.25
463.316	19794.3
463.522	19050.89
463.727	19343.75
463.932	19292.55
464.138	18913.67
464.343	19079.56
464.549	18426.26
464.754	19153.29
464.959	19095.94
465.165	18786.7
465.37	17906.07
465.575	17639.84
465.781	18233.75
465.986	18112.92
466.191	17320.35
466.397	17258.92
466.602	16216.5
466.807	16935.34
467.012	16964.01
467.218	16622
467.423	16374.19
467.628	16787.88
467.833	17201.57
468.038	16824.75
468.244	16017.85
468.449	16877.99
468.654	16468.4
468.859	16355.76
469.064	16054.71
469.269	15532.48
469.474	15520.19
469.679	15833.53
469.885	15571.39
470.09	15651.26
470.295	15712.7
470.5	14934.47
470.705	15092.16
470.91	14850.5
471.115	14582.22
471.32	14789.07
471.525	14842.31
471.73	14451.15
471.935	14268.88
472.139	13943.25
472.344	14025.17
472.549	13810.14
472.754	13621.72
472.959	13640.15
473.164	13312.48
473.369	13138.4
473.574	13427.17
473.778	13259.23
473.983	13144.55
474.188	13222.37
474.393	12573.16
474.598	12728.81
474.802	12798.44
475.007	12229.1
475.212	12413.42
475.417	11926
475.621	11958.77
475.826	12098.03
476.031	11753.98
476.235	11446.78
476.44	11555.32
476.645	11518.46
476.849	11758.07
477.054	11194.88
477.259	11033.09
477.463	11151.87
477.668	10891.78
477.872	11012.61
478.077	10854.92
478.282	10433.04
478.486	10580.49
478.691	10297.87
478.895	10383.88
479.1	10322.45
479.304	10291.73
479.509	10174.99
479.713	10459.66
479.918	10103.31
480.122	9904.66
480.326	10013.2
480.531	10082.83
480.735	9896.47
480.94	9656.86
481.144	9994.77
481.348	9443.87
481.553	9708.05
481.757	9413.15
481.961	9550.36
482.166	9927.19
482.37	9812.5
482.574	9292.32
482.778	9599.51
482.983	9587.22
483.187	9609.75
483.391	9665.05
483.595	9458.2
483.8	9445.91
484.004	9558.55
484.208	9697.81
484.412	9548.31
484.616	9525.79
484.821	9650.71
485.025	9413.15
485.229	9771.54
485.433	9357.85
485.637	9427.48
485.841	9439.77
486.045	9314.84
486.249	9300.51
486.453	9263.65
486.657	9447.96
486.861	9329.18
487.065	9474.59
487.269	9292.32
487.473	9366.04
487.677	9339.42
487.881	9693.72
488.085	9245.21
488.289	9394.72
488.493	9382.43
488.697	9554.46
488.901	9468.44
489.105	9460.25
489.309	9345.56
489.512	9550.36
489.716	9466.39
489.92	9562.65
490.124	9417.24
490.328	9505.31
490.531	9470.49
490.735	9701.91
490.939	9579.03
491.143	9558.55
491.346	9669.14
491.55	9912.85
491.754	9626.14
491.958	9656.86
492.161	9716.25
492.365	9800.21
492.569	9552.41
492.772	9746.97
492.976	9863.7
493.18	9871.89
493.383	10187.28
493.587	9953.81
493.79	9888.28
493.994	9804.31
494.197	10142.22
494.401	10174.99
494.605	10162.7
494.808	10291.73
495.012	10172.94
495.215	10332.68
495.419	10562.06
495.622	10412.56
495.825	10418.7
496.029	10648.07
496.232	10623.5
496.436	10586.63
496.639	10797.57
496.843	10865.16
497.046	11123.2
497.249	11084.29
497.453	11205.12
497.656	11506.17
497.859	11428.35
498.063	11424.25
498.266	11690.49
498.469	11604.47
498.673	11745.78
498.876	11696.63
499.079	11930.1
499.282	12075.51
499.485	12216.82
499.689	12241.39
499.892	12562.92
500.095	12435.95
500.298	12737
500.501	12657.13
500.705	13150.69
500.908	13048.29
501.111	13208.03
501.314	13181.41
501.517	13617.63
501.72	13533.66
501.923	13496.8
502.126	13867.48
502.329	14111.19
502.532	13971.93
502.735	14168.53
502.938	14424.53
503.141	14549.45
503.344	14531.02
503.547	14725.58
503.75	14959.05
503.953	15290.82
504.156	15153.6
504.359	15411.65
504.562	15278.53
504.765	15823.29
504.968	15743.42
505.17	16153.01
505.373	16062.9
505.576	16382.38
505.779	16392.62
505.982	16667.05
506.185	16761.26
506.387	17070.5
506.59	16927.14
506.793	17457.57
506.996	17406.37
507.198	17998.23
507.401	17648.03
507.604	18031
507.807	18114.97
508.009	18356.63
508.212	18620.81
508.415	18966.92
508.617	18661.77
508.82	19116.42
509.022	19069.32
509.225	19483.01
509.428	19347.84
509.63	19648.89
509.833	19937.66
510.035	20171.13
510.238	20070.78
510.44	20394.36
510.643	20740.46
510.845	20851.05
511.048	20568.43
511.25	21287.27
511.453	21303.65
511.655	22055.26
511.858	21573.99
512.06	22139.22
512.262	22235.48
512.465	22180.18
512.667	22358.36
512.87	22757.71
513.072	22999.37
513.274	23484.74
513.477	23808.32
513.679	23566.66
513.881	24101.18
514.084	24004.92
514.286	24295.74
514.488	24518.96
514.69	25026.86
514.893	24942.89
515.095	24903.98
515.297	25391.4
515.499	25071.92
515.701	25778.47
515.904	25983.26
516.106	26224.92
516.308	26341.66
516.51	26874.13
516.712	26661.14
516.914	27085.07
517.116	27400.46
517.318	27347.21
517.52	27640.07
517.722	27363.59
517.925	28256.51
518.127	28285.18
518.329	28500.22
518.531	28285.18
518.733	28688.63
518.935	29305.07
519.136	28872.95
519.338	29348.07
519.54	29464.81
519.742	30081.25
519.944	29753.57
520.146	30200.03
520.348	30310.62
520.55	30382.3
520.752	30795.99
520.954	31166.67
521.155	30793.94
521.357	31119.57
521.559	31606.98
521.761	31899.84
521.963	31643.85
522.164	31787.21
522.366	31746.25
522.568	32121.02
522.77	32211.14
522.971	32647.35
523.173	32309.44
523.375	32878.77
523.576	32667.83
523.778	32764.09
523.98	33022.13
524.181	33427.63
524.383	33370.29
524.584	33777.83
524.786	33718.44
524.988	33482.92
525.189	34019.49
525.391	34113.7
525.592	33992.87
525.794	34267.3
525.995	33935.52
526.197	34031.78
526.398	33980.58
526.6	34240.67
526.801	34529.44
527.003	34412.7
527.204	34160.8
527.406	34613.4
527.607	34668.7
527.808	34767
528.01	34064.55
528.211	34511
528.412	35270.8
528.614	34830.49
528.815	34377.89
529.016	35145.87
529.218	34752.66
529.419	34816.15
529.62	34814.1
529.822	34900.12
530.023	34695.32
530.224	34683.03
530.425	35104.92
530.626	34683.03
530.828	34615.45
531.029	34998.42
531.23	34597.02
531.431	34474.14
531.632	34748.57
531.833	34936.98
532.035	34515.1
532.236	34601.11
532.437	34355.36
532.638	34586.78
532.839	34551.96
533.04	34922.65
533.241	34023.59
533.442	34683.03
533.643	34640.03
533.844	34355.36
534.045	34402.46
534.246	34201.76
534.447	34597.02
534.648	34021.54
534.849	34291.87
535.05	34261.15
535.251	33980.58
535.451	33747.11
535.652	34076.83
535.853	33808.55
536.054	33898.66
536.255	33812.65
536.456	33566.89
536.657	34128.03
536.857	33740.97
537.058	33816.74
537.259	33958.05
537.46	33640.62
537.66	33902.76
537.861	33896.61
538.062	33675.43
538.263	33255.6
538.463	33546.41
538.664	33515.69
538.865	33487.02
539.065	33558.7
539.266	33261.74
539.466	33515.69
539.667	33188.02
539.868	33405.1
540.068	32966.84
540.269	33153.2
540.469	33114.29
540.67	32825.53
540.87	32989.36
541.071	32929.97
541.271	33136.82
541.472	33333.42
541.672	32837.81
541.873	32716.98
542.073	32395.45
542.274	33175.73
542.474	32831.67
542.675	32604.35
542.875	33364.14
543.075	32639.16
543.276	32266.43
543.476	32936.12
543.676	32293.05
543.877	32698.55
544.077	32481.47
544.277	32764.09
544.478	32522.43
544.678	32755.89
544.878	32716.98
545.078	32737.46
545.279	32671.93
545.479	32659.64
545.679	32747.7
545.879	32426.17
546.079	32581.82
546.28	32487.61
546.48	31965.38
546.68	32432.32
546.88	32823.48
547.08	32604.35
547.28	32788.66
547.48	32432.32
547.68	32364.73
547.88	32549.05
548.081	32819.38
548.281	32620.73
548.481	32256.19
548.681	32792.76
548.881	32381.12
549.081	32524.47
549.28	32340.16
549.48	32796.85
549.68	32555.19
549.88	33042.61
550.08	32651.45
550.28	32671.93
550.48	32850.1
550.68	32692.41
550.88	32657.59
551.08	32409.79
551.279	32581.82
551.479	32553.15
551.679	32334.01
551.879	32624.82
552.079	32846.01
552.278	32868.53
552.478	32764.09
552.678	33155.25
552.878	32901.3
553.077	32970.93
553.277	32624.82
553.477	33020.08
553.676	33036.47
553.876	32903.35
554.076	32903.35
554.275	32786.61
554.475	32485.56
554.674	33204.4
554.874	33034.42
555.074	32641.21
555.273	33177.78
555.473	33351.85
555.672	32608.44
555.872	32995.51
556.071	33212.59
556.271	33280.17
556.47	33065.14
556.67	32972.98
556.869	33456.3
557.068	33157.3
557.268	33054.9
557.467	33382.57
557.667	33468.59
557.866	33419.44
558.065	33198.26
558.265	33155.25
558.464	33118.39
558.663	33818.79
558.863	32882.87
559.062	33482.92
559.261	33269.93
559.461	33523.88
559.66	33003.7
559.859	33124.53
560.058	33145.01
560.258	33321.13
560.457	33050.8
560.656	33597.61
560.855	33024.18
561.054	33271.98
561.253	32979.12
561.453	33335.47
561.652	33233.07
561.851	33728.68
562.05	33026.23
562.249	32952.5
562.448	33114.29
562.647	33173.68
562.846	33185.97
563.045	32839.86
563.244	32821.43
563.443	33349.81
563.642	32862.39
563.841	33073.33
564.04	32811.19
564.239	32964.79
564.438	32958.64
564.637	33210.54
564.836	32846.01
565.035	32712.89
565.234	33032.37
565.432	32663.74
565.631	32733.37
565.83	32503.99
566.029	32626.87
566.228	32792.76
566.427	32698.55
566.625	32280.77
566.824	32235.71
567.023	32360.64
567.222	32032.96
567.42	32309.44
567.619	32180.42
567.818	32235.71
568.016	32209.09
568.215	32540.86
568.414	31985.86
568.612	32223.42
568.811	32256.19
569.01	31873.22
569.208	31371.47
569.407	31961.28
569.605	31525.07
569.804	31795.4
570.002	31361.23
570.201	31822.02
570.4	31600.84
570.598	31647.94
570.797	31439.05
570.995	31170.77
571.193	30980.31
571.392	31144.14
571.59	30955.73
571.789	31023.31
571.987	30703.83
572.186	30605.53
572.384	30488.79
572.582	30712.02
572.781	30781.65
572.979	30193.89
573.177	30394.59
573.376	30488.79
573.574	30216.41
573.772	30441.69
573.971	29946.08
574.169	30046.43
574.367	29683.94
574.565	30046.43
574.763	29755.62
574.962	29526.25
575.16	29300.97
575.358	29757.67
575.556	29450.47
575.754	29702.37
575.952	29464.81
576.151	29282.54
576.349	29112.56
576.547	29415.66
576.745	29186.29
576.943	29184.24
577.141	28625.14
577.339	28848.37
577.537	28727.54
577.735	28545.27
577.933	28395.77
578.131	28596.47
578.329	28354.81
578.527	28039.42
578.725	28281.08
578.923	28227.84
579.121	27873.54
579.319	28035.33
579.516	28201.21
579.714	27930.88
579.912	28100.86
580.11	27562.25
580.308	27592.97
580.506	27435.27
580.704	26954
580.901	27345.16
581.099	27621.64
581.297	27244.81
581.495	27461.9
581.692	27193.61
581.89	26933.52
582.088	27408.65
582.285	27226.38
582.483	27113.74
582.681	26986.77
582.878	26794.26
583.076	26616.08
583.274	26886.42
583.471	26218.78
583.669	26132.76
583.866	26226.97
584.064	26392.86
584.262	26202.39
584.459	26528.02
584.657	26272.03
584.854	26536.21
585.052	25950.49
585.249	26325.27
585.447	25686.31
585.644	25688.35
585.841	26147.1
586.039	25872.67
586.236	25626.92
586.434	25684.26
586.631	25391.4
586.828	25473.32
587.026	25313.58
587.223	25567.52
587.42	25440.55
587.618	25182.51
587.815	25166.12
588.012	25317.67
588.21	25069.87
588.407	25221.42
588.604	25063.72
588.801	24609.08
588.999	25258.28
589.196	24897.84
589.393	24885.55
589.59	24277.3
589.787	24555.83
589.984	24486.2
590.182	24254.78
590.379	24637.75
590.576	24373.56
590.773	24701.23
590.97	24367.41
591.167	24506.68
591.364	24283.45
591.561	24461.62
591.758	24508.72
591.955	24324.41
592.152	24451.38
592.349	24021.31
592.546	24340.79
592.743	24527.16
592.94	24058.17
593.137	24197.43
593.334	23851.33
593.531	23904.57
593.727	24215.87
593.924	23998.78
594.121	23517.51
594.318	23814.46
594.515	23349.57
594.712	23671.11
594.908	23527.75
595.105	23869.76
595.302	23564.61
595.499	23830.85
595.696	23648.58
595.892	23562.56
596.089	23656.77
596.286	23603.52
596.482	23212.36
596.679	23638.34
596.876	23826.75
597.072	23775.55
597.269	23566.66
597.466	23296.33
597.662	23263.56
597.859	23454.02
598.055	23642.43
598.252	23337.29
598.448	23439.68
598.645	23306.57
598.841	23159.11
599.038	23533.89
599.234	23470.4
599.431	23255.37
599.627	23243.08
599.824	23312.71
600.02	23370.05
600.217	23365.96
600.413	23374.15
600.609	23462.21
600.806	23578.95
601.002	23730.5
601.198	23284.04
601.395	23247.18
601.591	23306.57
601.787	23660.87
601.984	23208.26
602.18	23169.35
602.376	23144.78
602.572	23251.27
602.769	23435.59
602.965	23404.87
603.161	23386.44
603.357	23337.29
603.553	23316.81
603.75	23454.02
603.946	23173.45
604.142	23587.14
604.338	23376.2
604.534	23656.77
604.73	23355.72
604.926	23456.07
605.122	23927.1
605.318	23411.01
605.514	23591.23
605.71	23710.02
605.906	23927.1
606.102	23730.5
606.298	23556.42
606.494	23869.76
606.69	23804.22
606.886	24023.36
607.082	23836.99
607.278	23859.52
607.474	23832.89
607.67	24328.5
607.866	23812.42
608.062	24222.01
608.257	24015.16
608.453	23902.53
608.649	24271.16
608.845	23873.85
609.041	24203.58
609.236	23990.59
609.432	24033.6
609.628	24316.22
609.824	24185.15
610.019	24041.79
610.215	24226.1
610.411	24459.57
610.606	23978.3
610.802	24535.35
610.998	24760.62
611.193	24463.67
611.389	24297.78
611.584	24334.65
611.78	24172.86
611.976	24381.75
612.171	24772.91
612.367	24099.13
612.562	24535.35
612.758	24076.6
612.953	24457.53
613.149	24445.24
613.344	24566.07
613.539	24885.55
613.735	24578.36
613.93	24697.14
614.126	24389.94
614.321	25200.94
614.517	24832.3
614.712	24865.07
614.907	24731.95
615.103	24586.55
615.298	24832.3
615.493	24832.3
615.688	24578.36
615.884	25004.33
616.079	24807.73
616.274	24930.61
616.47	24672.56
616.665	24537.4
616.86	24586.55
617.055	24334.65
617.25	24688.95
617.445	24729.91
617.641	24267.06
617.836	24830.26
618.031	24322.36
618.226	24394.04
618.421	24568.12
618.616	24539.44
618.811	24119.61
619.006	24555.83
619.201	24101.18
619.396	24502.58
619.591	23839.04
619.786	24428.85
619.981	23681.35
620.176	24193.34
620.371	23929.15
620.566	23918.91
620.761	23882.05
620.956	24043.84
621.151	23564.61
621.346	23753.02
621.541	23429.45
621.735	23642.43
621.93	23419.21
622.125	23494.98
622.32	23267.66
622.515	23218.5
622.709	23380.29
622.904	23015.76
623.099	22886.73
623.294	23165.26
623.488	22585.68
623.683	22772.05
623.878	22247.77
624.072	22610.26
624.267	22284.63
624.462	22124.89
624.656	21879.13
624.851	21895.52
625.046	21829.98
625.24	21789.02
625.435	21844.32
625.629	21502.31
625.824	21518.69
626.018	21518.69
626.213	21016.94
626.407	21328.23
626.602	21133.67
626.796	21029.23
626.991	21176.68
627.185	20920.68
627.38	20601.2
627.574	20582.77
627.768	20429.17
627.963	20380.02
628.157	20334.96
628.352	20568.43
628.546	19995
628.74	20396.4
628.935	20035.96
629.129	19724.67
629.323	19986.81
629.517	20050.3
629.712	19614.08
629.906	19970.43
630.1	19493.25
630.294	19753.34
630.489	19396.99
630.683	19278.21
630.877	19116.42
631.071	19087.75
631.265	19112.33
631.459	18932.11
631.653	18661.77
631.848	18551.18
632.042	18502.03
632.236	18348.43
632.43	18393.49
632.624	18618.77
632.818	18350.48
633.012	18119.06
633.206	18043.29
633.4	18010.52
633.594	17947.03
633.788	17930.65
633.982	17738.14
634.176	17516.96
634.369	17684.89
634.563	17623.45
634.757	17367.46
634.951	17398.18
635.145	16814.51
635.339	17172.9
635.533	17037.73
635.726	17121.7
635.92	16871.85
636.114	16691.63
636.308	16628.14
636.501	16785.83
636.695	16603.57
636.889	16257.46
637.083	16400.82
637.276	16329.14
637.47	16212.4
637.664	16093.62
637.857	16026.04
638.051	16054.71
638.244	15933.88
638.438	15878.58
638.632	15571.39
638.825	15698.36
639.019	15614.4
639.212	15354.3
639.406	15528.38
639.599	15346.11
639.793	15194.56
639.986	14991.81
640.18	15045.06
640.373	14909.9
640.567	14531.02
640.76	14850.5
640.954	14371.28
641.147	14240.21
641.34	14354.9
641.534	14336.46
641.727	14375.38
641.92	14213.59
642.114	14197.2
642.307	14115.28
642.5	13900.25
642.694	13785.56
642.887	13699.55
643.08	13808.09
643.273	13705.69
643.467	13656.54
643.66	13310.43
643.853	13425.12
644.046	13105.63
644.239	13324.77
644.432	13087.2
644.626	13251.04
644.819	13177.31
645.012	12937.7
645.205	12771.82
645.398	12872.17
645.591	12863.97
645.784	12683.75
645.977	12497.39
646.17	12403.18
646.363	12403.18
646.556	12124.66
646.749	12321.26
646.942	12382.7
647.135	12030.45
647.328	11997.68
647.521	12003.83
647.714	11868.66
647.907	11983.35
648.099	11655.67
648.292	11926
648.485	11688.44
648.678	11438.59
648.871	11442.68
649.064	11409.92
649.256	11627
649.449	11313.66
649.642	11252.22
649.835	11338.24
650.027	11194.88
650.22	11141.63
650.413	11049.47
650.605	11072
650.798	10983.94
650.991	10885.64
651.183	10871.3
651.376	10562.06
651.568	10539.53
651.761	10666.5
651.954	10643.98
652.146	10525.19
652.339	10455.56
652.531	10261.01
652.724	10336.78
652.916	10287.63
653.109	10033.68
653.301	10209.81
653.494	10269.2
653.686	9773.59
653.879	10107.41
654.071	10033.68
654.263	9972.24
654.456	9984.53
654.648	9996.82
654.84	9603.61
655.033	9773.59
655.225	9544.22
655.417	9546.26
655.61	9646.62
655.802	9468.44
655.994	9386.52
656.186	9486.87
656.379	9277.98
656.571	9384.48
656.763	9394.72
656.955	9124.38
657.148	8944.16
657.34	9165.34
657.532	8862.24
657.724	8954.4
657.916	9087.52
658.108	8903.2
658.3	8829.48
658.492	8864.29
658.684	8747.56
658.876	8675.88
659.068	8657.45
659.26	8518.18
659.452	8634.92
659.644	8686.12
659.836	8600.1
660.028	8516.14
660.22	8374.83
660.412	8366.64
660.604	8167.98
660.796	8266.28
660.988	8116.78
661.18	8151.6
661.372	7979.57
661.563	8096.3
661.755	7944.75
661.947	7936.56
662.139	7758.39
662.331	7531.06
662.522	7813.68
662.714	7770.68
662.906	7721.52
663.097	7639.61
663.289	7397.95
663.481	7723.57
663.673	7432.76
663.864	7588.41
664.056	7322.17
664.247	7330.36
664.439	7195.2
664.631	7359.03
664.822	7318.07
665.014	7371.32
665.205	7150.14
665.397	7162.43
665.588	6994.5
665.78	6971.97
665.971	7060.03
666.163	7023.17
666.354	6941.25
666.546	6933.06
666.737	6888
666.929	6756.93
667.12	6715.97
667.311	6789.7
667.503	6652.49
667.694	6756.93
667.885	6787.65
668.077	6613.57
668.268	6406.73
668.459	6685.25
668.651	6672.96
668.842	6496.84
669.033	6556.23
669.224	6498.89
669.416	6539.85
669.607	6380.11
669.798	6257.23
669.989	6421.06
670.18	6373.96
670.371	6285.9
670.563	6199.88
670.754	6337.1
670.945	6191.69
671.136	6363.72
671.327	5999.18
671.518	6306.38
671.709	6101.58
671.9	6318.67
672.091	6185.55
672.282	5984.85
672.473	5884.5
672.664	6085.2
672.855	5954.13
673.046	6038.09
673.237	5950.03
673.428	5929.55
673.619	5972.56
673.809	5964.37
674	5685.84
674.191	5757.52
674.382	5843.54
674.573	5724.76
674.764	5939.79
674.954	5659.22
675.145	5743.19
675.336	5845.59
675.527	5577.3
675.717	5591.64
675.908	5519.96
676.099	5622.36
676.289	5542.49
676.48	5603.93
676.671	5587.54
676.861	5724.76
677.052	5597.78
677.243	5522.01
677.433	5472.86
677.624	5577.3
677.814	5501.53
678.005	5446.23
678.195	5476.95
678.386	5487.19
678.576	5405.27
678.767	5464.66
678.957	5528.15
679.148	5499.48
679.338	5423.7
679.529	5270.11
679.719	5317.21
679.909	5487.19
680.1	5511.77
680.29	5411.42
680.481	5292.63
680.671	5450.33
680.861	5378.65
681.052	5352.02
681.242	5196.38
681.432	5251.67
681.622	5282.39
681.813	5263.96
682.003	5311.07
682.193	5167.71
682.383	5110.36
682.573	5186.14
682.764	5261.91
682.954	4975.2
683.144	5331.55
683.334	5096.03
683.524	5186.14
683.714	5200.48
683.904	5048.93
684.094	5063.26
684.284	4946.53
684.474	5237.34
684.664	5032.54
684.854	5167.71
685.044	5139.04
685.234	5012.06
685.424	4971.1
685.614	5038.69
685.804	4973.15
685.994	4954.72
686.184	4983.39
686.374	4919.9
686.564	4924
686.753	4962.91
686.943	4938.34
687.133	4893.28
687.323	4803.17
687.513	4979.29
687.702	4770.4
687.892	4897.38
688.082	4856.42
688.272	4807.27
688.461	4823.65
688.651	4807.27
688.841	4848.22
689.03	4864.61
689.22	4825.7
689.41	4760.16
689.599	4573.8
689.789	4782.69
689.979	4835.94
690.168	4758.11
690.358	4645.48
690.547	4815.46
690.737	4686.44
690.926	4579.94
691.116	4581.99
691.305	4729.44
691.495	4659.81
691.684	4487.78
691.874	4446.82
692.063	4541.03
692.252	4680.29
692.442	4612.71
692.631	4522.6
692.82	4584.04
693.01	4448.87
693.199	4438.63
693.388	4414.06
693.578	4391.53
693.767	4422.25
693.956	4391.53
694.146	4344.42
694.335	4369
694.524	4418.15
694.713	4307.56
694.902	4426.34
695.092	4360.81
695.281	4399.72
695.47	4348.52
695.659	4276.84
695.848	4174.44
696.037	4336.23
696.226	4369
696.415	4266.6
696.604	4225.64
696.793	4209.26
696.982	4217.45
697.171	4178.54
697.36	4162.16
697.549	4133.48
697.738	4143.72
697.927	4225.64
698.116	4235.88
698.305	4151.92
698.494	4188.78
698.683	4153.96
698.872	4186.73
699.061	4170.35
699.25	3981.93
699.438	4070
699.627	4176.49
699.816	3990.13
700.005	4012.65
700.193	4039.28
700.382	4055.66
700.571	4078.19
700.76	3967.6
700.948	3988.08
701.137	3949.17
701.326	3893.87
701.514	3922.54
701.703	4024.94
701.892	3881.58
702.08	4037.23
702.269	3955.31
702.457	3963.5
702.646	3893.87
702.834	3885.68
703.023	4012.65
703.212	3801.71
703.4	3895.92
703.589	3746.42
703.777	3883.63
703.965	3703.41
704.154	3760.75
704.342	3766.9
704.531	3746.42
704.719	3705.46
704.907	3779.18
705.096	3730.03
705.284	3717.75
705.472	3852.91
705.661	3668.59
705.849	3801.71
706.037	3818.1
706.226	3611.25
706.414	3730.03
706.602	3641.97
706.79	3777.14
706.979	3537.52
707.167	3637.88
707.355	3535.48
707.543	3652.21
707.731	3703.41
707.919	3580.53
708.107	3545.72
708.296	3635.83
708.484	3480.18
708.672	3533.43
708.86	3654.26
709.048	3578.48
709.236	3471.99
709.424	3492.47
709.612	3486.33
709.8	3400.31
709.988	3512.95
710.176	3547.76
710.364	3398.26
710.551	3451.51
710.739	3324.54
710.927	3392.12
711.115	3404.41
711.303	3480.18
711.491	3431.03
711.679	3293.82
711.866	3410.55
712.054	3422.84
712.242	3299.96
712.43	3322.49
712.617	3332.73
712.805	3308.15
712.993	3383.93
713.181	3181.18
713.368	3269.24
713.556	3385.97
713.744	3291.77
713.931	3457.65
714.119	3353.21
714.306	3275.38
714.494	3170.94
714.682	3222.14
714.869	3160.7
715.057	3213.95
715.244	3048.06
715.432	3095.16
715.619	3236.47
715.807	3142.27
715.994	3189.37
716.182	3177.08
716.369	3164.79
716.556	3089.02
716.744	3031.68
716.931	3220.09
717.119	3129.98
717.306	2984.57
717.493	3230.33
717.681	3078.78
717.868	3031.68
718.055	3119.74
718.242	2972.29
718.43	3125.88
718.617	3058.3
718.804	3023.48
718.991	3054.2
719.179	3041.92
719.366	3015.29
719.553	3066.49
719.74	2966.14
719.927	3043.96
720.114	2941.57
720.301	3062.4
720.488	2869.89
720.676	2906.75
720.863	2906.75
721.05	2908.8
721.237	2878.08
721.424	2910.85
721.611	2996.86
721.798	2843.26
721.985	2876.03
722.172	2865.79
722.358	2812.54
722.545	2837.12
722.732	2792.06
722.919	2849.41
723.106	2726.53
723.293	2677.38
723.48	2695.81
723.667	2695.81
723.853	2826.88
724.04	2775.68
724.227	2890.37
724.414	2796.16
724.6	2800.26
724.787	2693.76
724.974	2783.87
725.161	2679.43
725.347	2699.91
725.534	2620.03
725.72	2660.99
725.907	2693.76
726.094	2712.19
726.28	2763.39
726.467	2693.76
726.653	2701.95
726.84	2669.19
727.027	2636.42
727.213	2523.78
727.4	2683.52
727.586	2710.15
727.773	2650.75
727.959	2673.28
728.145	2734.72
728.332	2636.42
728.518	2656.9
728.705	2683.52
728.891	2630.27
729.077	2597.51
729.264	2540.16
729.45	2595.46
729.636	2570.88
729.823	2488.96
730.009	2581.12
730.195	2484.87
730.382	2538.12
730.568	2579.08
730.754	2491.01
730.94	2554.5
731.126	2577.03
731.313	2628.23
731.499	2499.2
731.685	2488.96
731.871	2445.96
732.057	2448.01
732.243	2411.14
732.429	2556.55
732.615	2538.12
732.801	2413.19
732.987	2407.05
733.173	2388.61
733.359	2448.01
733.545	2341.51
733.731	2452.1
733.917	2386.57
734.103	2325.13
734.289	2443.91
734.475	2361.99
734.661	2538.12
734.847	2382.47
735.033	2413.19
735.219	2337.41
735.404	2394.76
735.59	2247.3
735.776	2345.61
735.962	2345.61
736.148	2425.48
736.333	2415.24
736.519	2402.95
736.705	2345.61
736.89	2232.97
737.076	2286.22
737.262	2294.41
737.447	2284.17
737.633	2175.63
737.819	2218.63
738.004	2206.34
738.19	2202.25
738.375	2206.34
738.561	2251.4
738.747	2243.21
738.932	2304.65
739.118	2282.12
739.303	2171.53
739.489	2212.49
739.674	2278.02
739.859	2196.11
740.045	2284.17
740.23	2247.3
740.416	2124.43
740.601	2171.53
740.786	2132.62
740.972	2128.52
741.157	2032.27
741.342	2067.08
741.528	2038.41
741.713	2050.7
741.898	1966.73
742.084	2153.1
742.269	2153.1
742.454	1997.45
742.639	2054.8
742.824	1997.45
743.01	2114.19
743.195	2015.88
743.38	1981.07
743.565	1989.26
743.75	2036.36
743.935	2036.36
744.12	2015.88
744.305	1899.15
744.49	1942.16
744.675	1909.39
744.86	1938.06
745.045	1974.92
745.23	1786.51
745.415	1981.07
745.6	1985.16
745.785	1909.39
745.97	2022.03
746.155	1866.38
746.34	1739.41
746.525	1860.24
746.71	1882.77
746.895	1747.6
747.079	1735.31
747.264	1759.89
747.449	1806.99
747.634	1876.62
747.819	1872.53
748.003	1657.49
748.188	1778.32
748.373	1696.4
748.557	1702.54
748.742	1704.59
748.927	1747.6
749.111	1622.67
749.296	1706.64
749.481	1645.2
749.665	1743.5
749.85	1555.09
750.034	1653.39
750.219	1688.21
750.404	1598.1
750.588	1587.86
750.773	1524.37
750.957	1567.38
751.141	1553.04
751.326	1624.72
751.51	1497.75
751.695	1563.28
751.879	1491.6
752.064	1645.2
752.248	1559.19
752.432	1573.52
752.617	1516.18
752.801	1563.28
752.985	1479.32
753.17	1495.7
753.354	1442.45
753.538	1450.64
753.722	1417.88
753.907	1489.56
754.091	1344.15
754.275	1473.17
754.459	1430.16
754.643	1356.44
754.828	1391.25
755.012	1288.85
755.196	1348.25
755.38	1268.38
755.564	1325.72
755.748	1356.44
755.932	1444.5
756.116	1374.87
756.3	1354.39
756.484	1292.95
756.668	1301.14
756.852	1219.22
757.036	1235.61
757.22	1247.9
757.404	1202.84
757.588	1161.88
757.772	1211.03
757.956	1225.37
758.14	1319.57
758.323	1194.65
758.507	1243.8
758.691	1251.99
758.875	1139.35
759.059	1301.14
759.242	1206.94
759.426	1106.59
759.61	1186.46
759.794	1096.35
759.977	1161.88
760.161	1161.88
760.345	1186.46
760.528	1153.69
760.712	1041.05
760.895	1077.91
761.079	985.76
761.263	1090.2
761.446	1079.96
761.63	1041.05
761.813	1137.31
761.997	1071.77
762.18	1096.35
762.364	1051.29
762.547	1020.57
762.731	1090.2
762.914	1008.28
763.098	1096.35
763.281	1067.67
763.464	942.75
763.648	1057.43
763.831	991.9
764.015	891.55
764.198	1002.14
764.381	887.45
764.564	871.07
764.748	998.04
764.931	1104.54
765.114	940.7
765.297	1045.15
765.481	916.12
765.664	952.99
765.847	1006.24
766.03	998.04
766.213	959.13
766.397	973.47
766.58	950.94
766.763	1055.39
766.946	895.64
767.129	909.98
767.312	920.22
767.495	899.74
767.678	950.94
767.861	981.66
768.044	1049.24
768.227	793.25
768.41	916.12
768.593	924.32
768.776	942.75
768.959	891.55
769.142	907.93
769.324	881.31
769.507	862.88
769.69	873.12
769.873	809.63
770.056	922.27
770.239	811.68
770.421	934.56
770.604	828.06
770.787	832.16
770.97	826.01
771.152	801.44
771.335	899.74
771.518	811.68
771.7	871.07
771.883	916.12
772.066	823.97
772.248	817.82
772.431	877.21
772.613	770.72
772.796	703.14
772.978	768.67
773.161	834.21
773.343	727.71
773.526	842.4
773.708	756.38
773.891	762.53
774.073	744.1
774.256	828.06
774.438	801.44
774.621	750.24
774.803	811.68
774.985	668.32
775.168	711.33
775.35	694.94
775.532	793.25
775.715	666.27
775.897	662.18
776.079	701.09
776.261	705.18
776.444	746.14
776.626	752.29
776.808	694.94
776.99	664.22
777.173	633.5
777.355	703.14
777.537	690.85
777.719	649.89
777.901	637.6
778.083	735.9
778.265	541.35
778.447	672.42
778.629	641.7
778.811	647.84
778.993	586.4
779.175	772.77
779.357	615.07
779.539	645.79
779.721	680.61
779.903	604.83
780.085	670.37
780.267	600.74
780.449	633.5
780.631	696.99
780.812	608.93
780.994	608.93
781.176	494.24
781.358	576.16
781.54	559.78
781.721	567.97
781.903	590.5
782.085	494.24
782.267	608.93
782.448	567.97
782.63	498.34
782.812	563.87
782.993	547.49
783.175	604.83
783.357	441
783.538	508.58
783.72	475.81
783.901	535.2
784.083	580.26
784.264	512.67
784.446	451.24
784.627	420.52
784.809	574.11
784.99	481.96
785.172	524.96
785.353	510.63
785.535	453.28
785.716	395.94
785.897	428.71
786.079	420.52
786.26	428.71
786.441	494.24
786.623	457.38
786.804	457.38
786.985	379.56
787.167	492.2
787.348	455.33
787.529	387.75
787.71	479.91
787.891	506.53
788.073	443.04
788.254	375.46
788.435	418.47
788.616	441
788.797	467.62
788.978	326.31
789.159	484
789.34	445.09
789.522	322.21
789.703	344.74
789.884	281.25
790.065	359.08
790.246	438.95
790.427	420.52
790.607	375.46
790.788	334.5
790.969	359.08
791.15	412.32
791.331	359.08
791.512	316.07
791.693	424.61
791.874	318.12
792.054	383.65
792.235	361.13
792.416	346.79
792.597	363.17
792.778	320.17
792.958	334.5
793.139	400.04
793.32	350.89
793.5	314.02
793.681	387.75
793.862	328.36
794.042	322.21
794.223	289.45
794.404	385.7
794.584	197.29
794.765	332.45
794.945	309.93
795.126	244.39
795.306	309.93
795.487	320.17
795.667	311.97
795.848	342.69
796.028	295.59
796.209	289.45
796.389	363.17
796.57	285.35
796.75	295.59
796.93	228.01
797.111	164.52
797.291	295.59
797.471	266.92
797.652	334.5
797.832	234.15
798.012	277.16
798.192	211.62
798.373	328.36
798.553	260.77
798.733	291.49
798.913	158.38
799.093	187.05
799.274	244.39
799.454	340.65
799.634	228.01
799.814	303.78
799.994	236.2
800.174	297.64
800.354	301.73
800.534	252.58
800.714	252.58
800.894	264.87
801.074	137.9
801.254	228.01
801.434	293.54
801.614	232.1
801.794	221.86
801.974	969.37
802.154	215.72
802.334	311.97
802.514	195.24
802.693	189.1
802.873	256.68
803.053	246.44
803.233	238.25
803.413	180.9
803.592	236.2
803.772	146.09
803.952	219.82
804.131	195.24
804.311	121.51
804.491	205.48
804.67	185
804.85	148.14
805.03	219.82
805.209	238.25
805.389	162.47
805.568	219.82
805.748	260.77
805.928	236.2
806.107	160.42
806.287	205.48
806.466	154.28
806.646	191.14
806.825	148.14
807.004	139.94
807.184	123.56
807.363	228.01
807.543	213.67
807.722	195.24
807.901	187.05
808.081	242.34
808.26	146.09
808.439	158.38
808.619	187.05
808.798	158.38
808.977	174.76
809.156	195.24
809.336	154.28
809.515	178.86
809.694	80.55
809.873	139.94
810.052	84.65
810.231	256.68
810.411	176.81
810.59	182.95
810.769	66.22
810.948	248.49
811.127	105.13
811.306	164.52
811.485	115.37
811.664	187.05
811.843	119.46
812.022	141.99
812.201	182.95
812.38	137.9
812.559	189.1
812.737	211.62
812.916	107.18
813.095	211.62
813.274	162.47
813.453	178.86
813.632	47.79
813.811	223.91
813.989	127.66
814.168	244.39
814.347	180.9
814.526	103.08
814.704	178.86
814.883	234.15
815.062	117.42
815.24	209.58
815.419	74.41
815.598	154.28
815.776	31.4
815.955	166.57
816.133	107.18
816.312	172.71
816.49	141.99
816.669	121.51
816.847	107.18
817.026	141.99
817.204	90.79
817.383	129.7
817.561	92.84
817.74	131.75
817.918	148.14
818.097	58.03
818.275	141.99
818.453	141.99
818.632	88.75
818.81	176.81
818.988	164.52
819.167	137.9
819.345	101.03
819.523	125.61
819.701	166.57
819.879	129.7
820.058	33.45
820.236	178.86
820.414	98.99
820.592	117.42
820.77	123.56
820.948	88.75
821.127	31.4
821.305	166.57
821.483	45.74
821.661	146.09
821.839	101.03
822.017	144.04
822.195	74.41
822.373	90.79
822.551	92.84
822.729	230.06
822.907	90.79
823.085	96.94
823.262	146.09
823.44	129.7
823.618	55.98
823.796	166.57
823.974	31.4
824.152	96.94
824.329	117.42
824.507	103.08
824.685	150.18
824.863	129.7
825.04	86.7
825.218	96.94
825.396	146.09
825.574	55.98
825.751	92.84
825.929	64.17
826.107	80.55
826.284	137.9
826.462	88.75
826.639	64.17
826.817	55.98
826.994	35.5
827.172	60.07
827.349	121.51
827.527	98.99
827.704	74.41
827.882	88.75
828.059	148.14
828.237	86.7
828.414	72.36
828.591	62.12
828.769	166.57
828.946	23.21
829.124	74.41
829.301	29.35
829.478	88.75
829.655	82.6
829.833	96.94
830.01	127.66
830.187	64.17
830.364	107.18
830.542	25.26
830.719	105.13
830.896	-1.37
831.073	115.37
831.25	15.02
831.427	125.61
831.604	47.79
831.782	74.41
831.959	139.94
832.136	158.38
832.313	148.14
832.49	92.84
832.667	35.5
832.844	25.26
833.021	105.13
833.198	47.79
833.374	68.27
833.551	117.42
833.728	113.32
833.905	115.37
834.082	64.17
834.259	35.5
834.436	131.75
834.612	66.22
834.789	123.56
834.966	0.68
835.143	72.36
835.319	39.59
835.496	74.41
835.673	76.46
835.85	80.55
836.026	-34.13
836.203	51.88
836.38	62.12
836.556	84.65
836.733	80.55
836.909	49.83
837.086	-17.75
837.262	-5.46
837.439	68.27
837.616	51.88
837.792	47.79
837.968	31.4
838.145	15.02
838.321	10.92
838.498	45.74
838.674	88.75
838.851	96.94
839.027	53.93
839.203	37.55
839.38	31.4
839.556	27.31
839.732	113.32
839.909	-5.46
840.085	37.55
840.261	78.51
840.437	8.87
840.614	39.59
840.79	23.21
840.966	19.11
841.142	131.75
841.318	125.61
841.494	70.31
841.671	94.89
841.847	29.35
842.023	-27.99
842.199	27.31
842.375	94.89
842.551	15.02
842.727	17.07
842.903	84.65
843.079	12.97
843.255	80.55
843.431	29.35
843.607	58.03
843.783	-5.46
843.959	23.21
844.134	53.93
844.31	19.11
844.486	47.79
844.662	31.4
844.838	-58.71
845.013	-9.56
845.189	96.94
845.365	25.26
845.541	12.97
845.716	41.64
845.892	64.17
846.068	15.02
846.244	-17.75
846.419	2.73
846.595	35.5
846.77	0.68
846.946	88.75
847.122	-50.52
847.297	19.11
847.473	96.94
847.648	-21.85
847.824	47.79
847.999	15.02
848.175	31.4
848.35	-17.75
848.526	25.26
848.701	47.79
848.876	55.98
849.052	88.75
849.227	53.93
849.403	-75.09
849.578	-42.32
849.753	31.4
849.929	23.21
850.104	-5.46
850.279	55.98
850.454	68.27
850.63	15.02
850.805	15.02
850.98	78.51
851.155	64.17
851.33	23.21
851.505	-17.75
851.681	94.89
851.856	-42.32
852.031	74.41
852.206	94.89
852.381	-42.32
852.556	58.03
852.731	82.6
852.906	60.07
853.081	35.5
853.256	111.27
853.431	0.68
853.606	33.45
853.781	41.64
853.956	-15.7
854.131	-21.85
854.305	49.83
854.48	39.59
854.655	12.97
854.83	8.87
855.005	2.73
855.18	8.87
855.354	55.98
855.529	-5.46
855.704	17.07
855.879	141.99
856.053	-17.75
856.228	76.46
856.403	80.55
856.577	98.99
856.752	58.03
856.926	-5.46
857.101	-17.75
857.276	25.26
857.45	-11.61
857.625	96.94
857.799	27.31
857.974	-5.46
858.148	17.07
858.323	-40.28
858.497	35.5
858.672	6.83
858.846	-25.94
859.02	72.36
859.195	-25.94
859.369	51.88
859.543	35.5
859.718	-50.52
859.892	23.21
860.066	-1.37
860.241	39.59
860.415	78.51
860.589	-11.61
860.763	25.26
860.938	-34.13
861.112	-17.75
861.286	68.27
861.46	66.22
861.634	-34.13
861.808	-5.46
861.982	10.92
862.157	39.59
862.331	6.83
862.505	2.73
862.679	-17.75
862.853	-25.94
863.027	2.73
863.201	180.9
863.375	-58.71
863.549	-25.94
863.722	-9.56
863.896	74.41
864.07	-50.52
864.244	25.26
864.418	-23.89
864.592	55.98
864.766	10.92
864.939	51.88
865.113	6.83
865.287	66.22
865.461	37.55
865.634	15.02
865.808	6.83
865.982	27.31
866.156	-124.24
866.329	-21.85
866.503	31.4
866.676	35.5
866.85	-27.99
867.024	39.59
867.197	84.65
867.371	15.02
867.544	105.13
867.718	15.02
867.891	64.17
868.065	6.83
868.238	-19.8
868.412	17.07
868.585	27.31
868.759	-42.32
868.932	88.75
869.105	23.21
869.279	0.68
869.452	-40.28
869.625	6.83
869.799	35.5
869.972	-56.66
870.145	-21.85
870.319	8.87
870.492	84.65
870.665	-9.56
870.838	-58.71
871.011	-38.23
871.185	-34.13
871.358	0.68
871.531	15.02
871.704	51.88
871.877	23.21
872.05	6.83
872.223	0.68
872.396	76.46
872.569	29.35
872.742	-50.52
872.915	33.45
873.088	0.68
873.261	60.07
873.434	6.83
873.607	-34.13
873.78	51.88
873.953	-1.37
874.126	15.02
874.299	-19.8
874.471	-75.09
874.644	-23.89
874.817	12.97
874.99	47.79
875.163	10.92
875.335	-17.75
875.508	-66.9
875.681	-1.37
875.853	-1.37
876.026	-13.65
876.199	31.4
876.371	-32.08
876.544	-17.75
876.717	-42.32
876.889	-40.28
877.062	35.5
877.234	39.59
877.407	76.46
877.579	-1.37
877.752	-17.75
877.924	19.11
878.097	80.55
878.269	8.87
878.442	-25.94
878.614	68.27
878.786	-23.89
878.959	-13.65
879.131	72.36
879.303	-25.94
879.476	10.92
879.648	51.88
879.82	0.68
879.993	31.4
880.165	15.02
880.337	-5.46
880.509	6.83
880.681	-11.61
880.854	-17.75
881.026	19.11
881.198	39.59
881.37	-105.81
881.542	-13.65
881.714	41.64
881.886	51.88
882.058	2.73
882.23	-21.85
882.402	-25.94
882.574	51.88
882.746	6.83
882.918	72.36
883.09	-38.23
883.262	49.83
883.434	4.78
883.606	-1.37
883.778	51.88
883.95	101.03
884.122	72.36
884.293	51.88
884.465	29.35
884.637	-7.51
884.809	76.46
884.98	25.26
885.152	21.16
885.324	144.04
885.496	19.11
885.667	-1.37
885.839	-7.51
886.011	23.21
886.182	21.16
886.354	-5.46
886.525	-19.8
886.697	41.64
886.869	-9.56
887.04	17.07
887.212	19.11
887.383	111.27
887.555	-9.56
887.726	-52.56
887.897	-25.94
888.069	15.02
888.24	80.55
888.412	6.83
888.583	-15.7
888.754	39.59
888.926	-62.8
889.097	23.21
889.268	-50.52
889.44	-75.09
889.611	-42.32
889.782	0.68
889.953	-17.75
890.125	-17.75
890.296	-30.04
890.467	31.4
890.638	-64.85
890.809	35.5
890.98	-1.37
891.151	113.32
891.323	-21.85
891.494	15.02
891.665	2.73
891.836	-15.7
892.007	2.73
892.178	51.88
892.349	64.17
892.52	49.83
892.691	-9.56
892.862	-3.41
893.032	-15.7
893.203	8.87
893.374	-19.8
893.545	123.56
893.716	-62.8
893.887	-7.51
894.057	6.83
894.228	-50.52
894.399	19.11
894.57	35.5
894.74	2.73
894.911	33.45
895.082	-9.56
895.253	-42.32
895.423	19.11
895.594	-13.65
895.764	-23.89
895.935	-25.94
896.106	113.32
896.276	-15.7
896.447	6.83
896.617	31.4
896.788	-40.28
896.958	15.02
897.129	-17.75
897.299	-40.28
897.47	55.98
897.64	-68.95
897.81	-48.47
897.981	88.75
898.151	-42.32
898.322	-1.37
898.492	51.88
898.662	-32.08
898.832	58.03
899.003	-40.28
899.173	-15.7
899.343	-50.52
899.513	-48.47
