Data from USB4F104151__78__14-30-30-248.txt Node

Date: Thu Mar 13 14:30:30 EDT 2025
User: louis
Spectrometer: USB4F10415
Trigger mode: 4
Integration Time (sec): 2.500000E-2
Scans to average: 1
Electric dark correction enabled: true
Nonlinearity correction enabled: false
Boxcar width: 0
XAxis mode: Wavelengths
Number of Pixels in Spectrum: 3648
>>>>>Begin Spectral Data<<<<<
178.204	-181.07
178.424	-181.07
178.644	-181.07
178.864	-136.02
179.084	-103.25
179.304	-23.38
179.524	-9.05
179.744	-29.52
179.964	11.43
180.184	-19.29
180.404	15.53
180.624	3.24
180.844	-58.2
181.064	-13.14
181.283	19.63
181.503	7.34
181.723	95.4
181.943	62.63
182.163	126.12
182.383	64.68
182.602	29.87
182.822	64.68
183.042	79.02
183.262	38.06
183.482	-2.9
183.701	31.91
183.921	50.35
184.141	-29.52
184.361	68.78
184.58	11.43
184.8	128.17
185.02	29.87
185.239	128.17
185.459	31.91
185.679	46.25
185.898	-64.34
186.118	79.02
186.338	23.72
186.557	-13.14
186.777	31.91
186.997	5.29
187.216	-9.05
187.436	142.5
187.655	52.39
187.875	52.39
188.095	-4.95
188.314	109.74
188.534	91.31
188.753	60.59
188.973	13.48
189.192	48.3
189.412	68.78
189.631	40.11
189.851	-37.72
190.07	40.11
190.29	-66.39
190.509	-7
190.729	-0.85
190.948	68.78
191.168	191.66
191.387	93.35
191.607	-21.33
191.826	19.63
192.045	36.01
192.265	5.29
192.484	76.97
192.704	-9.05
192.923	-2.9
193.142	62.63
193.362	81.07
193.581	52.39
193.8	101.55
194.02	54.44
194.239	74.92
194.458	52.39
194.678	130.22
194.897	72.87
195.116	60.59
195.335	-0.85
195.555	19.63
195.774	11.43
195.993	29.87
196.212	11.43
196.432	13.48
196.651	-17.24
196.87	15.53
197.089	146.6
197.308	74.92
197.528	85.16
197.747	-60.24
197.966	-4.95
198.185	128.17
198.404	15.53
198.623	87.21
198.842	38.06
199.062	101.55
199.281	44.2
199.5	-2.9
199.719	11.43
199.938	36.01
200.157	93.35
200.376	5.29
200.595	122.02
200.814	13.48
201.033	-15.19
201.252	81.07
201.471	-0.85
201.69	85.16
201.909	62.63
202.128	5.29
202.347	36.01
202.566	29.87
202.785	-17.24
203.004	-2.9
203.223	81.07
203.442	38.06
203.661	70.83
203.879	60.59
204.098	3.24
204.317	31.91
204.536	160.94
204.755	83.11
204.974	19.63
205.193	31.91
205.411	64.68
205.63	87.21
205.849	-21.33
206.068	56.49
206.287	38.06
206.505	93.35
206.724	17.58
206.943	97.45
207.162	27.82
207.381	27.82
207.599	36.01
207.818	40.11
208.037	36.01
208.255	81.07
208.474	36.01
208.693	7.34
208.911	17.58
209.13	72.87
209.349	44.2
209.567	87.21
209.786	105.64
210.005	99.5
210.223	103.59
210.442	29.87
210.661	19.63
210.879	25.77
211.098	48.3
211.316	52.39
211.535	128.17
211.753	-2.9
211.972	74.92
212.191	36.01
212.409	87.21
212.628	76.97
212.846	29.87
213.065	54.44
213.283	81.07
213.502	85.16
213.72	60.59
213.938	-9.05
214.157	17.58
214.375	23.72
214.594	7.34
214.812	74.92
215.031	105.64
215.249	-4.95
215.467	68.78
215.686	107.69
215.904	56.49
216.122	38.06
216.341	52.39
216.559	36.01
216.778	81.07
216.996	93.35
217.214	9.39
217.432	23.72
217.651	-29.52
217.869	1.19
218.087	60.59
218.306	36.01
218.524	81.07
218.742	-39.76
218.96	72.87
219.179	87.21
219.397	11.43
219.615	128.17
219.833	68.78
220.051	3.24
220.27	109.74
220.488	72.87
220.706	23.72
220.924	11.43
221.142	-9.05
221.36	48.3
221.578	54.44
221.796	79.02
222.015	93.35
222.233	44.2
222.451	68.78
222.669	-76.63
222.887	11.43
223.105	-11.09
223.323	36.01
223.541	38.06
223.759	68.78
223.977	23.72
224.195	-2.9
224.413	5.29
224.631	93.35
224.849	48.3
225.067	85.16
225.285	15.53
225.503	44.2
225.721	-37.72
225.939	15.53
226.157	36.01
226.375	162.98
226.592	7.34
226.81	31.91
227.028	36.01
227.246	48.3
227.464	107.69
227.682	42.15
227.9	50.35
228.117	70.83
228.335	31.91
228.553	27.82
228.771	40.11
228.989	113.83
229.206	38.06
229.424	23.72
229.642	56.49
229.86	-17.24
230.077	-9.05
230.295	62.63
230.513	72.87
230.731	97.45
230.948	44.2
231.166	76.97
231.384	21.67
231.601	11.43
231.819	36.01
232.037	3.24
232.254	13.48
232.472	29.87
232.689	-27.48
232.907	62.63
233.125	36.01
233.342	31.91
233.56	13.48
233.777	36.01
233.995	93.35
234.213	85.16
234.43	81.07
234.648	5.29
234.865	68.78
235.083	68.78
235.3	3.24
235.518	-27.48
235.735	76.97
235.953	115.88
236.17	54.44
236.388	36.01
236.605	36.01
236.822	62.63
237.04	27.82
237.257	36.01
237.475	42.15
237.692	46.25
237.909	72.87
238.127	85.16
238.344	27.82
238.562	48.3
238.779	19.63
238.996	3.24
239.214	56.49
239.431	44.2
239.648	62.63
239.865	85.16
240.083	68.78
240.3	-35.67
240.517	-13.14
240.735	52.39
240.952	68.78
241.169	62.63
241.386	101.55
241.603	-19.29
241.821	62.63
242.038	101.55
242.255	128.17
242.472	109.74
242.689	-0.85
242.907	74.92
243.124	64.68
243.341	-21.33
243.558	52.39
243.775	21.67
243.992	-4.95
244.209	-9.05
244.426	115.88
244.643	5.29
244.86	21.67
245.078	11.43
245.295	21.67
245.512	93.35
245.729	-4.95
245.946	7.34
246.163	87.21
246.38	-50
246.597	-2.9
246.814	76.97
247.031	19.63
247.248	46.25
247.464	95.4
247.681	58.54
247.898	27.82
248.115	48.3
248.332	7.34
248.549	128.17
248.766	179.37
248.983	93.35
249.2	79.02
249.417	109.74
249.633	36.01
249.85	11.43
250.067	5.29
250.284	48.3
250.501	9.39
250.717	58.54
250.934	19.63
251.151	64.68
251.368	29.87
251.585	27.82
251.801	72.87
252.018	119.98
252.235	44.2
252.451	19.63
252.668	52.39
252.885	109.74
253.102	76.97
253.318	21.67
253.535	44.2
253.752	-58.2
253.968	87.21
254.185	-31.57
254.401	29.87
254.618	56.49
254.835	44.2
255.051	101.55
255.268	36.01
255.484	48.3
255.701	21.67
255.917	93.35
256.134	-0.85
256.351	1.19
256.567	11.43
256.784	54.44
257	-27.48
257.217	44.2
257.433	31.91
257.65	-62.29
257.866	72.87
258.082	-21.33
258.299	64.68
258.515	44.2
258.732	3.24
258.948	7.34
259.165	29.87
259.381	46.25
259.597	97.45
259.814	27.82
260.03	46.25
260.246	19.63
260.463	3.24
260.679	87.21
260.895	13.48
261.112	38.06
261.328	5.29
261.544	11.43
261.761	117.93
261.977	27.82
262.193	23.72
262.409	70.83
262.626	60.59
262.842	76.97
263.058	17.58
263.274	38.06
263.49	76.97
263.707	31.91
263.923	113.83
264.139	-2.9
264.355	36.01
264.571	115.88
264.787	36.01
265.004	89.26
265.22	27.82
265.436	7.34
265.652	44.2
265.868	52.39
266.084	-13.14
266.3	21.67
266.516	3.24
266.732	68.78
266.948	3.24
267.164	48.3
267.38	105.64
267.596	54.44
267.812	76.97
268.028	36.01
268.244	5.29
268.46	21.67
268.676	31.91
268.892	27.82
269.108	52.39
269.324	-19.29
269.54	74.92
269.756	36.01
269.972	52.39
270.188	19.63
270.403	36.01
270.619	31.91
270.835	27.82
271.051	23.72
271.267	23.72
271.483	52.39
271.698	46.25
271.914	87.21
272.13	54.44
272.346	-4.95
272.562	66.73
272.777	117.93
272.993	-17.24
273.209	60.59
273.425	42.15
273.64	52.39
273.856	81.07
274.072	72.87
274.287	-23.38
274.503	101.55
274.719	64.68
274.934	-43.86
275.15	29.87
275.366	44.2
275.581	-4.95
275.797	62.63
276.012	23.72
276.228	56.49
276.444	36.01
276.659	66.73
276.875	21.67
277.09	36.01
277.306	60.59
277.521	48.3
277.737	25.77
277.952	19.63
278.168	36.01
278.383	46.25
278.599	130.22
278.814	76.97
279.03	27.82
279.245	117.93
279.461	74.92
279.676	76.97
279.892	-11.09
280.107	5.29
280.322	-43.86
280.538	27.82
280.753	36.01
280.969	109.74
281.184	-4.95
281.399	132.26
281.615	36.01
281.83	76.97
282.045	-52.05
282.26	23.72
282.476	36.01
282.691	101.55
282.906	76.97
283.122	48.3
283.337	81.07
283.552	68.78
283.767	29.87
283.983	111.78
284.198	29.87
284.413	150.7
284.628	-4.95
284.843	42.15
285.058	44.2
285.274	54.44
285.489	56.49
285.704	56.49
285.919	-54.1
286.134	3.24
286.349	27.82
286.564	44.2
286.779	56.49
286.995	11.43
287.21	-19.29
287.425	-29.52
287.64	21.67
287.855	117.93
288.07	-13.14
288.285	15.53
288.5	44.2
288.715	101.55
288.93	-4.95
289.145	-4.95
289.36	76.97
289.575	-0.85
289.79	130.22
290.004	13.48
290.219	81.07
290.434	19.63
290.649	46.25
290.864	62.63
291.079	117.93
291.294	44.2
291.509	50.35
291.724	13.48
291.938	19.63
292.153	52.39
292.368	5.29
292.583	-23.38
292.798	132.26
293.012	54.44
293.227	60.59
293.442	76.97
293.657	89.26
293.871	68.78
294.086	19.63
294.301	136.36
294.516	44.2
294.73	93.35
294.945	52.39
295.16	68.78
295.374	68.78
295.589	27.82
295.804	11.43
296.018	44.2
296.233	68.78
296.447	62.63
296.662	54.44
296.877	93.35
297.091	33.96
297.306	15.53
297.52	38.06
297.735	62.63
297.949	5.29
298.164	101.55
298.378	44.2
298.593	-13.14
298.807	25.77
299.022	72.87
299.236	70.83
299.451	-11.09
299.665	113.83
299.88	85.16
300.094	11.43
300.309	76.97
300.523	64.68
300.737	21.67
300.952	13.48
301.166	68.78
301.381	33.96
301.595	38.06
301.809	3.24
302.024	60.59
302.238	42.15
302.452	25.77
302.667	46.25
302.881	97.45
303.095	76.97
303.309	54.44
303.524	38.06
303.738	31.91
303.952	-17.24
304.166	27.82
304.381	-45.91
304.595	97.45
304.809	23.72
305.023	126.12
305.237	17.58
305.452	-13.14
305.666	25.77
305.88	81.07
306.094	33.96
306.308	27.82
306.522	29.87
306.736	68.78
306.95	76.97
307.164	54.44
307.379	27.82
307.593	113.83
307.807	99.5
308.021	87.21
308.235	-9.05
308.449	-29.52
308.663	21.67
308.877	124.07
309.091	38.06
309.305	152.74
309.519	62.63
309.733	72.87
309.947	-9.05
310.161	27.82
310.374	23.72
310.588	152.74
310.802	-4.95
311.016	21.67
311.23	76.97
311.444	-29.52
311.658	103.59
311.872	48.3
312.085	60.59
312.299	109.74
312.513	93.35
312.727	119.98
312.941	46.25
313.154	50.35
313.368	109.74
313.582	115.88
313.796	-0.85
314.009	40.11
314.223	13.48
314.437	-2.9
314.651	27.82
314.864	-23.38
315.078	-33.62
315.292	52.39
315.505	42.15
315.719	76.97
315.933	52.39
316.146	11.43
316.36	19.63
316.573	58.54
316.787	48.3
317.001	27.82
317.214	19.63
317.428	76.97
317.641	-19.29
317.855	68.78
318.068	27.82
318.282	13.48
318.495	76.97
318.709	109.74
318.922	76.97
319.136	60.59
319.349	93.35
319.563	60.59
319.776	99.5
319.99	-21.33
320.203	103.59
320.417	62.63
320.63	140.46
320.843	66.73
321.057	36.01
321.27	13.48
321.483	115.88
321.697	54.44
321.91	-19.29
322.124	85.16
322.337	21.67
322.55	-7
322.763	11.43
322.977	46.25
323.19	58.54
323.403	-2.9
323.617	44.2
323.83	150.7
324.043	5.29
324.256	11.43
324.469	60.59
324.683	11.43
324.896	64.68
325.109	-11.09
325.322	60.59
325.535	19.63
325.748	93.35
325.962	5.29
326.175	48.3
326.388	52.39
326.601	97.45
326.814	60.59
327.027	38.06
327.24	103.59
327.453	11.43
327.666	52.39
327.879	101.55
328.092	46.25
328.305	23.72
328.518	17.58
328.731	138.41
328.944	3.24
329.157	11.43
329.37	60.59
329.583	85.16
329.796	81.07
330.009	64.68
330.222	19.63
330.435	64.68
330.648	79.02
330.861	38.06
331.073	111.78
331.286	93.35
331.499	119.98
331.712	66.73
331.925	38.06
332.138	103.59
332.35	70.83
332.563	66.73
332.776	126.12
332.989	-0.85
333.202	54.44
333.414	85.16
333.627	-11.09
333.84	33.96
334.053	68.78
334.265	87.21
334.478	-13.14
334.691	23.72
334.903	101.55
335.116	76.97
335.329	44.2
335.541	60.59
335.754	81.07
335.966	-11.09
336.179	66.73
336.392	46.25
336.604	13.48
336.817	23.72
337.029	113.83
337.242	-0.85
337.454	11.43
337.667	56.49
337.88	5.29
338.092	38.06
338.305	89.26
338.517	7.34
338.729	93.35
338.942	103.59
339.154	68.78
339.367	-37.72
339.579	44.2
339.792	81.07
340.004	117.93
340.217	70.83
340.429	66.73
340.641	5.29
340.854	19.63
341.066	40.11
341.278	40.11
341.491	105.64
341.703	76.97
341.915	56.49
342.128	87.21
342.34	85.16
342.552	7.34
342.764	85.16
342.977	74.92
343.189	44.2
343.401	29.87
343.613	-21.33
343.826	79.02
344.038	76.97
344.25	60.59
344.462	79.02
344.674	44.2
344.886	23.72
345.099	76.97
345.311	85.16
345.523	36.01
345.735	70.83
345.947	27.82
346.159	-19.29
346.371	81.07
346.583	15.53
346.795	105.64
347.007	11.43
347.219	48.3
347.431	11.43
347.643	79.02
347.855	-37.72
348.067	64.68
348.279	-4.95
348.491	15.53
348.703	76.97
348.915	113.83
349.127	128.17
349.339	23.72
349.551	31.91
349.763	60.59
349.975	89.26
350.187	48.3
350.399	60.59
350.61	76.97
350.822	93.35
351.034	52.39
351.246	79.02
351.458	81.07
351.669	27.82
351.881	117.93
352.093	52.39
352.305	101.55
352.517	95.4
352.728	109.74
352.94	64.68
353.152	38.06
353.363	-0.85
353.575	76.97
353.787	103.59
353.999	19.63
354.21	85.16
354.422	-17.24
354.633	83.11
354.845	87.21
355.057	23.72
355.268	11.43
355.48	122.02
355.692	23.72
355.903	-13.14
356.115	87.21
356.326	-21.33
356.538	46.25
356.749	81.07
356.961	79.02
357.172	107.69
357.384	-21.33
357.595	31.91
357.807	68.78
358.018	87.21
358.23	-37.72
358.441	148.65
358.653	93.35
358.864	27.82
359.075	52.39
359.287	36.01
359.498	56.49
359.709	19.63
359.921	25.77
360.132	38.06
360.344	72.87
360.555	7.34
360.766	97.45
360.977	15.53
361.189	60.59
361.4	48.3
361.611	93.35
361.823	76.97
362.034	62.63
362.245	58.54
362.456	87.21
362.667	5.29
362.879	93.35
363.09	15.53
363.301	62.63
363.512	15.53
363.723	17.58
363.935	29.87
364.146	109.74
364.357	36.01
364.568	68.78
364.779	31.91
364.99	85.16
365.201	31.91
365.412	154.79
365.623	23.72
365.834	11.43
366.045	60.59
366.256	54.44
366.467	68.78
366.678	117.93
366.889	42.15
367.1	93.35
367.311	81.07
367.522	87.21
367.733	54.44
367.944	93.35
368.155	74.92
368.366	81.07
368.577	126.12
368.788	62.63
368.999	85.16
369.209	21.67
369.42	50.35
369.631	167.08
369.842	95.4
370.053	130.22
370.264	93.35
370.474	-2.9
370.685	25.77
370.896	68.78
371.107	93.35
371.317	64.68
371.528	-35.67
371.739	109.74
371.95	62.63
372.16	56.49
372.371	38.06
372.582	95.4
372.792	85.16
373.003	60.59
373.214	52.39
373.424	54.44
373.635	68.78
373.846	60.59
374.056	87.21
374.267	29.87
374.477	-27.48
374.688	91.31
374.898	56.49
375.109	17.58
375.319	60.59
375.53	70.83
375.74	103.59
375.951	29.87
376.161	89.26
376.372	40.11
376.582	48.3
376.793	126.12
377.003	60.59
377.214	11.43
377.424	68.78
377.635	101.55
377.845	5.29
378.055	48.3
378.266	13.48
378.476	60.59
378.686	97.45
378.897	72.87
379.107	79.02
379.317	85.16
379.528	17.58
379.738	62.63
379.948	36.01
380.158	79.02
380.369	79.02
380.579	105.64
380.789	48.3
380.999	60.59
381.21	81.07
381.42	117.93
381.63	95.4
381.84	119.98
382.05	109.74
382.261	48.3
382.471	60.59
382.681	83.11
382.891	122.02
383.101	60.59
383.311	19.63
383.521	76.97
383.731	76.97
383.941	95.4
384.151	46.25
384.361	70.83
384.571	31.91
384.781	87.21
384.991	56.49
385.201	44.2
385.411	68.78
385.621	62.63
385.831	46.25
386.041	68.78
386.251	5.29
386.461	62.63
386.671	76.97
386.881	177.32
387.091	11.43
387.301	103.59
387.511	70.83
387.72	138.41
387.93	122.02
388.14	130.22
388.35	91.31
388.56	68.78
388.769	136.36
388.979	40.11
389.189	115.88
389.399	58.54
389.609	144.55
389.818	76.97
390.028	33.96
390.238	111.78
390.447	27.82
390.657	134.31
390.867	136.36
391.076	95.4
391.286	68.78
391.496	81.07
391.705	33.96
391.915	175.27
392.125	117.93
392.334	56.49
392.544	169.13
392.753	40.11
392.963	-23.38
393.172	54.44
393.382	36.01
393.591	193.7
393.801	81.07
394.01	132.26
394.22	76.97
394.429	146.6
394.639	36.01
394.848	126.12
395.058	154.79
395.267	103.59
395.477	76.97
395.686	148.65
395.895	54.44
396.105	109.74
396.314	126.12
396.524	81.07
396.733	93.35
396.942	117.93
397.152	76.97
397.361	124.07
397.57	136.36
397.78	115.88
397.989	167.08
398.198	216.23
398.407	13.48
398.617	214.18
398.826	89.26
399.035	60.59
399.244	201.9
399.453	95.4
399.663	132.26
399.872	113.83
400.081	117.93
400.29	103.59
400.499	68.78
400.708	95.4
400.917	232.62
401.127	103.59
401.336	81.07
401.545	193.7
401.754	19.63
401.963	113.83
402.172	236.71
402.381	33.96
402.59	111.78
402.799	154.79
403.008	122.02
403.217	218.28
403.426	146.6
403.635	193.7
403.844	134.31
404.053	150.7
404.262	154.79
404.471	162.98
404.68	138.41
404.888	134.31
405.097	158.89
405.306	156.84
405.515	201.9
405.724	218.28
405.933	244.9
406.142	158.89
406.35	208.04
406.559	134.31
406.768	236.71
406.977	177.32
407.185	156.84
407.394	265.38
407.603	210.09
407.812	224.42
408.02	326.82
408.229	240.81
408.438	265.38
408.646	222.38
408.855	236.71
409.064	324.77
409.272	302.25
409.481	289.96
409.69	289.96
409.898	277.67
410.107	316.58
410.315	324.77
410.524	410.79
410.733	400.55
410.941	386.21
411.15	474.28
411.358	396.45
411.567	449.7
411.775	392.36
411.984	457.89
412.192	486.56
412.401	439.46
412.609	543.91
412.818	535.71
413.026	539.81
413.234	562.34
413.443	588.96
413.651	548
413.86	642.21
414.068	693.41
414.276	732.32
414.485	720.03
414.693	726.18
414.901	760.99
415.11	638.11
415.318	693.41
415.526	722.08
415.734	847.01
415.943	779.42
416.151	982.17
416.359	887.97
416.567	1019.04
416.776	906.4
416.984	994.46
417.192	1053.85
417.4	1111.19
417.608	1100.95
417.817	1062.04
418.025	1076.38
418.233	1275.03
418.441	1266.84
418.649	1289.37
418.857	1277.08
419.065	1387.67
419.273	1379.48
419.481	1375.38
419.689	1559.7
419.897	1633.43
420.105	1678.48
420.313	1633.43
420.521	1670.29
420.729	1791.12
420.937	1744.02
421.145	1821.84
421.353	2006.16
421.561	1952.91
421.769	2036.88
421.977	2198.67
422.185	2233.48
422.393	2200.71
422.601	2378.89
422.809	2317.45
423.017	2346.12
423.224	2485.38
423.432	2569.35
423.64	2522.24
423.848	2780.29
424.056	2714.75
424.263	3026.04
424.471	2987.13
424.679	3073.15
424.887	3185.79
425.094	3497.08
425.302	3265.66
425.51	3378.3
425.718	3624.05
425.925	3599.48
426.133	3650.67
426.341	3855.47
426.548	4082.8
426.756	4164.72
426.964	4152.43
427.171	4342.89
427.379	4666.47
427.586	4617.32
427.794	4746.34
428.001	4869.22
428.209	5280.86
428.417	4947.04
428.624	5450.84
428.832	5518.42
429.039	5362.78
429.247	5401.69
429.454	5827.67
429.662	6372.43
429.869	5672.02
430.076	6368.33
430.284	5999.7
430.491	6544.45
430.699	6712.39
430.906	6638.66
431.114	6958.14
431.321	6917.19
431.528	7257.15
431.736	7478.33
431.943	7928.88
432.15	7795.76
432.358	7775.28
432.565	8330.28
432.772	8238.12
432.979	8506.41
433.187	8991.78
433.394	8858.66
433.601	9219.1
433.808	9468.95
434.016	9212.96
434.223	9874.45
434.43	10402.83
434.637	10177.55
434.844	10824.71
435.052	10931.2
435.259	10851.33
435.466	11090.95
435.673	10963.97
435.88	11414.52
436.087	12012.53
436.294	12168.18
436.501	11947
436.708	12133.36
436.915	12518.38
437.122	12999.65
437.329	13073.38
437.537	13474.78
437.743	13628.38
437.95	13804.5
438.157	14521.29
438.364	14709.71
438.571	14734.28
438.778	14699.47
438.985	16108.47
439.192	15760.31
439.399	16141.24
439.606	15604.67
439.813	16614.32
440.02	17298.34
440.227	17159.08
440.433	16812.97
440.64	17746.84
440.847	17572.77
441.054	17904.54
441.261	18967.43
441.467	18764.68
441.674	19227.53
441.881	20040.57
442.088	19829.63
442.294	19557.25
442.501	20360.05
442.708	20667.25
442.914	21363.56
443.121	22422.36
443.328	21474.15
443.534	23120.71
443.741	22383.45
443.948	22158.17
444.154	23913.28
444.361	23649.09
444.568	23935.81
444.774	23868.22
444.981	24400.69
445.187	24679.22
445.394	25934.62
445.6	25391.91
445.807	28037.89
446.013	26512.15
446.22	27370.25
446.426	28037.89
446.633	28347.13
446.839	29614.82
447.046	28033.79
447.252	29833.96
447.459	29874.91
447.665	29692.65
447.871	31292.11
448.078	32531.13
448.284	31109.84
448.491	31931.08
448.697	33161.9
448.903	33929.89
449.11	33587.88
449.316	32791.22
449.522	33587.88
449.728	35033.75
449.935	35052.18
450.141	34767.51
450.347	35510.92
450.553	34570.91
450.76	34826.9
450.966	36131.46
451.172	35908.23
451.378	36747.9
451.584	35949.19
451.791	36758.14
451.997	36510.33
452.203	37507.69
452.409	37380.72
452.615	37173.88
452.821	35627.66
453.027	35285.65
453.233	36983.41
453.44	35873.42
453.646	36174.47
453.852	36428.41
454.058	36764.28
454.264	35787.4
454.47	36637.31
454.676	35576.46
454.882	36792.95
455.088	33960.61
455.294	34069.15
455.5	34130.59
455.705	34960.02
455.911	33331.89
456.117	32815.8
456.323	31929.03
456.529	30667.48
456.735	31869.64
456.941	31353.55
457.147	30491.35
457.352	29844.2
457.558	29192.94
457.764	29483.75
457.97	29014.77
458.176	28287.74
458.381	27966.21
458.587	27007.76
458.793	26790.67
458.999	25137.96
459.204	27507.46
459.41	26262.3
459.616	24353.59
459.821	24771.38
460.027	24572.72
460.233	23800.64
460.438	23038.8
460.644	23335.75
460.85	22162.26
461.055	21904.22
461.261	21662.56
461.466	19989.37
461.672	19420.03
461.878	20671.34
462.083	19460.99
462.289	18826.12
462.494	18836.36
462.7	17922.97
462.905	17697.69
463.111	18312.08
463.316	18099.09
463.522	17814.43
463.727	17640.35
463.932	17609.63
464.138	17540
464.343	17462.18
464.549	17054.63
464.754	17630.11
464.959	17380.26
465.165	17304.48
465.37	16446.38
465.575	16094.13
465.781	16737.2
465.986	16681.9
466.191	16317.36
466.397	15944.63
466.602	15233.99
466.807	15522.75
467.012	15831.99
467.218	15551.42
467.423	15465.41
467.628	15367.1
467.833	15897.53
468.038	15563.71
468.244	15131.59
468.449	15563.71
468.654	15043.53
468.859	14990.28
469.064	14980.04
469.269	14332.88
469.474	14486.48
469.679	14646.22
469.885	14339.02
470.09	14480.33
470.295	14324.69
470.5	14050.26
470.705	13972.44
470.91	13777.88
471.115	13519.84
471.32	13765.59
471.525	13626.33
471.73	13497.31
471.935	13061.09
472.139	12805.1
472.344	13028.32
472.549	13028.32
472.754	12897.25
472.959	12522.48
473.164	11992.05
473.369	12078.07
473.574	12542.96
473.778	12514.28
473.983	12080.11
474.188	12209.14
474.393	11578.36
474.598	11652.09
474.802	11652.09
475.007	11324.41
475.212	11709.43
475.417	10892.29
475.621	11037.7
475.826	11293.69
476.031	10949.64
476.235	10550.28
476.44	10837
476.645	10648.58
476.849	10755.08
477.054	10296.33
477.259	10269.71
477.463	10343.44
477.668	10257.42
477.872	10189.84
478.077	9845.78
478.282	9849.88
478.486	9991.19
478.691	9733.14
478.895	9704.47
479.1	9395.23
479.304	9587.74
479.509	9157.66
479.713	9651.22
479.918	9362.46
480.122	9176.09
480.326	9387.04
480.531	9215.01
480.735	9006.11
480.94	8932.39
481.144	9456.67
481.348	8916
481.553	9128.99
481.757	8678.44
481.961	8973.35
482.166	8959.01
482.37	8965.15
482.574	8825.89
482.778	8918.05
482.983	9036.83
483.187	8870.95
483.391	8952.87
483.595	8678.44
483.8	8696.87
484.004	8887.33
484.208	8778.79
484.412	8672.29
484.616	8803.36
484.821	8883.24
485.025	8793.12
485.229	9067.55
485.433	8842.28
485.637	8850.47
485.841	8711.21
486.045	8629.29
486.249	8821.8
486.453	8696.87
486.657	8940.58
486.861	8713.25
487.065	8588.33
487.269	8653.86
487.473	8660.01
487.677	8680.49
487.881	8891.43
488.085	8627.24
488.289	8803.36
488.493	8754.21
488.697	8764.45
488.901	8676.39
489.105	8682.53
489.309	8713.25
489.512	8782.88
489.716	8698.92
489.92	8856.61
490.124	8801.32
490.328	9092.13
490.531	8703.01
490.735	8860.71
490.939	8973.35
491.143	8743.97
491.346	8698.92
491.55	8985.63
491.754	8895.52
491.958	8823.84
492.161	8956.96
492.365	9110.56
492.569	8926.24
492.772	8961.06
492.976	9143.33
493.18	9165.85
493.383	9186.33
493.587	9114.66
493.79	9235.49
493.994	9337.88
494.197	9387.04
494.401	9272.35
494.605	9434.14
494.808	9681.94
495.012	9481.24
495.215	9571.35
495.419	9694.23
495.622	9690.13
495.825	9743.38
496.029	9874.45
496.232	9767.96
496.436	10150.93
496.639	10093.58
496.843	10175.5
497.046	10374.16
497.249	10447.88
497.453	10357.77
497.656	10329.1
497.859	10345.48
498.063	10540.04
498.266	11049.99
498.469	10759.17
498.673	10984.45
498.876	10939.4
499.079	11113.47
499.282	11084.8
499.485	11381.76
499.689	11215.87
499.892	11521.02
500.095	11521.02
500.298	11906.04
500.501	11766.78
500.705	12028.92
500.908	12082.16
501.111	12299.25
501.314	12315.63
501.517	12424.17
501.72	12594.15
501.923	12805.1
502.126	12741.61
502.329	13128.67
502.532	13151.2
502.735	13134.82
502.938	13226.98
503.141	13419.49
503.344	13667.29
503.547	13683.67
503.75	13820.89
503.953	13978.58
504.156	14113.75
504.359	14146.51
504.562	14179.28
504.765	14482.38
504.968	14865.35
505.17	14918.6
505.373	15088.58
505.576	15387.58
505.779	15373.25
505.982	15397.82
506.185	15489.98
506.387	15700.92
506.59	15815.61
506.793	16051.13
506.996	16272.31
507.198	16509.87
507.401	16206.77
507.604	16745.39
507.807	16962.47
508.009	16825.26
508.212	17044.39
508.415	17128.36
508.617	17394.59
508.82	17595.29
509.022	17763.23
509.225	18242.45
509.428	18152.34
509.63	18398.1
509.833	18285.46
510.035	18762.64
510.238	19022.73
510.44	19082.12
510.643	19147.65
510.845	19458.95
511.048	19610.5
511.25	19829.63
511.453	20013.95
511.655	20517.75
511.858	20075.38
512.06	20388.72
512.262	21105.51
512.465	20892.52
512.667	21005.16
512.87	21029.74
513.072	21470.05
513.274	21881.69
513.477	22203.22
513.679	22285.14
513.881	22080.35
514.084	22504.28
514.286	22377.3
514.488	22643.54
514.69	23208.78
514.893	23501.64
515.095	23352.13
515.297	23587.65
515.499	23974.72
515.701	23919.42
515.904	24513.33
516.106	24423.22
516.308	24763.18
516.51	25094.96
516.712	25117.48
516.914	25094.96
517.116	25744.16
517.318	25596.71
517.52	25871.14
517.722	25781.03
517.925	26243.87
518.127	26485.53
518.329	26931.98
518.531	26428.18
518.733	27407.11
518.935	27228.94
519.136	27454.22
519.338	27548.42
519.54	27947.78
519.742	27790.08
519.944	28041.98
520.146	28717.81
520.348	28312.31
520.55	28762.87
520.752	28920.56
520.954	29264.62
521.155	29305.58
521.357	29348.59
521.559	29901.54
521.761	30048.99
521.963	29887.2
522.164	30005.98
522.366	30221.02
522.568	30126.81
522.77	30556.89
522.971	30749.4
523.173	30687.96
523.375	30915.28
523.576	30847.7
523.778	30896.85
523.98	31126.22
524.181	31204.05
524.383	31214.29
524.584	31486.67
524.786	31642.31
524.988	31417.04
525.189	31742.66
525.391	31625.93
525.592	31910.6
525.794	31740.61
525.995	32273.09
526.197	32162.5
526.398	32238.27
526.6	32342.72
526.801	32041.67
527.003	32250.56
527.204	32336.57
527.406	32776.89
527.607	32099.01
527.808	32645.82
528.01	31986.37
528.211	32441.02
528.412	32823.99
528.614	32438.97
528.815	32432.83
529.016	32717.5
529.218	32238.27
529.419	32596.67
529.62	32365.24
529.822	32416.44
530.023	32531.13
530.224	32342.72
530.425	32195.26
530.626	32033.47
530.828	31959.75
531.029	32768.69
531.23	32039.62
531.431	32189.12
531.632	32146.11
531.833	32123.58
532.035	32225.98
532.236	32012.99
532.437	32127.68
532.638	31836.87
532.839	32148.16
533.04	31929.03
533.241	31470.28
533.442	32223.93
533.643	31914.69
533.844	31597.26
534.045	32078.53
534.246	31206.09
534.447	31613.64
534.648	31210.19
534.849	31515.34
535.05	31527.63
535.251	31380.17
535.451	31199.95
535.652	31496.91
535.853	31390.41
536.054	31417.04
536.255	31355.6
536.456	31025.87
536.657	31695.56
536.857	30694.1
537.058	30735.06
537.259	31279.82
537.46	30821.08
537.66	31124.18
537.861	30806.74
538.062	30907.09
538.263	30917.33
538.463	30614.23
538.664	30343.9
538.865	30855.89
539.065	30556.89
539.266	30210.78
539.466	30644.95
539.667	30640.86
539.868	30700.25
540.068	30499.55
540.269	30227.17
540.469	30415.58
540.67	30147.29
540.87	30061.28
541.071	30053.09
541.271	30507.74
541.472	30372.57
541.672	30251.74
541.873	29999.84
542.073	29620.97
542.274	30196.45
542.474	30204.64
542.675	29807.33
542.875	30190.3
543.075	29784.8
543.276	29483.75
543.476	30120.67
543.676	29616.87
543.877	30059.23
544.077	29969.12
544.277	30096.1
544.478	29770.47
544.678	29848.29
544.878	29614.82
545.078	29819.62
545.279	29965.03
545.479	29801.19
545.679	29956.83
545.879	29973.22
546.079	29811.43
546.28	30096.1
546.48	29553.38
546.68	29831.91
546.88	29840.1
547.08	29831.91
547.28	29383.4
547.48	29289.2
547.68	29840.1
547.88	29565.67
548.081	29803.24
548.281	29491.94
548.481	29496.04
548.681	30212.83
548.881	29680.36
549.081	29954.79
549.28	29989.6
549.48	30018.27
549.68	29872.87
549.88	30261.98
550.08	30012.13
550.28	29973.22
550.48	30100.19
550.68	30159.58
550.88	29778.66
551.08	29950.69
551.279	30098.14
551.479	29682.41
551.679	30157.53
551.879	29870.82
552.079	30020.32
552.278	29958.88
552.478	30092
552.678	30153.44
552.878	30442.2
553.077	30315.23
553.277	29981.41
553.477	30524.12
553.676	29950.69
553.876	30468.83
554.076	30325.47
554.275	30028.51
554.475	30296.8
554.674	30388.95
554.874	30423.77
555.074	30470.87
555.273	30526.17
555.473	30548.7
555.672	30354.14
555.872	30702.29
556.071	30683.86
556.271	30595.8
556.47	30724.82
556.67	30477.02
556.869	30395.1
557.068	30687.96
557.268	30632.66
557.467	30751.45
557.667	30657.24
557.866	30788.31
558.065	30827.22
558.265	30671.57
558.464	30528.22
558.663	30798.55
558.863	30403.29
559.062	31087.31
559.261	30687.96
559.461	31363.79
559.66	30384.86
559.859	30386.91
560.058	30765.78
560.258	30835.41
560.457	30685.91
560.656	30618.33
560.855	30800.6
561.054	30980.82
561.253	30812.88
561.453	30769.88
561.652	30782.16
561.851	31011.54
562.05	30870.23
562.249	30411.48
562.448	30980.82
562.647	30724.82
562.846	30513.88
563.045	31058.64
563.244	30292.7
563.443	30931.67
563.642	30446.3
563.841	30343.9
564.04	30204.64
564.239	30880.47
564.438	30313.18
564.637	30802.64
564.836	30634.71
565.035	30286.56
565.234	30370.52
565.432	30401.24
565.631	30376.67
565.83	30329.56
566.029	30366.43
566.228	30151.39
566.427	30085.86
566.625	29919.97
566.824	29735.65
567.023	29956.83
567.222	29827.81
567.42	30010.08
567.619	30100.19
567.818	29692.65
568.016	29747.94
568.215	30051.04
568.414	29661.93
568.612	30024.42
568.811	29692.65
569.01	29866.72
569.208	29315.82
569.407	29528.81
569.605	29205.23
569.804	29577.96
570.002	29217.52
570.201	29356.78
570.4	29078.25
570.598	28990.19
570.797	28551.93
570.995	28816.11
571.193	28562.17
571.392	29014.77
571.59	28457.72
571.789	28472.06
571.987	28396.28
572.186	28377.85
572.384	28433.14
572.582	28265.21
572.781	28510.97
572.979	27974.4
573.177	28521.21
573.376	28011.26
573.574	27749.12
573.772	28054.27
573.971	27695.88
574.169	27476.74
574.367	27755.27
574.565	27611.91
574.763	27501.32
574.962	27261.71
575.16	26964.75
575.358	27112.2
575.556	26712.85
575.754	27374.34
575.952	26981.13
576.151	27065.1
576.349	26743.57
576.547	26766.1
576.745	26891.02
576.943	26610.45
577.141	26630.93
577.339	26581.78
577.537	26370.84
577.735	26270.49
577.933	26139.42
578.131	26399.51
578.329	26041.12
578.527	25883.42
578.725	26108.7
578.923	25873.18
579.121	25809.7
579.319	25873.18
579.516	25774.88
579.714	25705.25
579.912	25365.29
580.11	25207.59
580.308	25604.9
580.506	25017.13
580.704	25076.52
580.901	25262.89
581.099	25414.44
581.297	24861.49
581.495	24738.61
581.692	24908.59
581.89	24945.45
582.088	24767.28
582.285	24625.97
582.483	24646.45
582.681	24714.03
582.878	24177.47
583.076	24458.04
583.274	24503.09
583.471	23982.91
583.669	24417.08
583.866	23974.72
584.064	24546.1
584.262	23677.76
584.459	24136.51
584.657	24064.83
584.854	23808.83
585.052	23556.93
585.249	23831.36
585.447	23769.92
585.644	23700.29
585.841	23673.67
586.039	23522.12
586.236	23352.13
586.434	23432.01
586.631	22938.44
586.828	23382.85
587.026	23448.39
587.223	23593.79
587.42	23171.91
587.618	23092.04
587.815	22772.56
588.012	23208.78
588.21	23100.23
588.407	23067.47
588.604	23153.48
588.801	22633.3
588.999	22739.79
589.196	22930.25
589.393	22379.35
589.59	22829.9
589.787	22483.8
589.984	22422.36
590.182	22432.6
590.379	22299.48
590.576	22338.39
590.773	22590.29
590.97	22379.35
591.167	22207.32
591.364	22070.11
591.561	22244.18
591.758	21920.6
591.955	22426.45
592.152	22311.77
592.349	22068.06
592.546	22197.08
592.743	21924.7
592.94	21687.14
593.137	21814.11
593.334	22145.88
593.531	22068.06
593.727	21967.71
593.924	22186.84
594.121	21726.05
594.318	21992.28
594.515	21687.14
594.712	21832.54
594.908	21848.93
595.105	21992.28
595.302	21730.14
595.499	21918.56
595.696	21752.67
595.892	21607.26
596.089	21943.13
596.286	21564.26
596.482	21498.72
596.679	21738.33
596.876	21818.21
597.072	21611.36
597.269	21807.97
597.466	21515.11
597.662	21695.33
597.859	21533.54
598.055	21799.77
598.252	21844.83
598.448	21697.38
598.645	21762.91
598.841	21717.86
599.038	21812.06
599.234	21912.41
599.431	21574.5
599.627	21775.2
599.824	21767.01
600.02	21588.83
600.217	21967.71
600.413	22035.29
600.609	21916.51
600.806	21713.76
601.002	21996.38
601.198	21916.51
601.395	21668.7
601.591	21820.25
601.787	21971.8
601.984	21924.7
602.18	22440.79
602.376	22031.19
602.572	21961.56
602.769	21902.17
602.965	22133.59
603.161	22109.02
603.357	22111.07
603.553	22184.79
603.75	22051.67
603.946	22014.81
604.142	22389.59
604.338	22223.7
604.534	22557.52
604.73	22137.69
604.926	22506.32
605.122	22309.72
605.318	22534.99
605.514	22362.97
605.71	22637.39
605.906	22573.91
606.102	22467.41
606.298	22629.2
606.494	22750.03
606.69	22592.34
606.886	22852.43
607.082	22457.17
607.278	23014.22
607.474	22545.23
607.67	22848.33
607.866	22524.75
608.062	23302.98
608.257	22883.15
608.453	23100.23
608.649	22975.31
608.845	23098.19
609.041	22956.88
609.236	23298.89
609.432	23120.71
609.628	23262.02
609.824	23335.75
610.019	23259.98
610.215	23436.1
610.411	23569.22
610.606	23262.02
610.802	23479.11
610.998	23479.11
611.193	23585.6
611.389	23386.95
611.584	23477.06
611.78	23122.76
611.976	23624.51
612.171	23626.56
612.367	23595.84
612.562	23649.09
612.758	23569.22
612.953	23450.44
613.149	23790.4
613.344	23690.05
613.539	23962.43
613.735	23831.36
613.93	23806.78
614.126	23874.37
614.321	24013.63
614.517	24093.5
614.712	23716.67
614.907	23767.87
615.103	23855.93
615.298	23860.03
615.493	24185.66
615.688	23677.76
615.884	24257.34
616.079	23702.34
616.274	24384.31
616.47	23870.27
616.665	23931.71
616.86	23825.22
617.055	23868.22
617.25	24030.01
617.445	24165.18
617.641	23712.58
617.836	24341.3
618.031	23577.41
618.226	24023.87
618.421	23823.17
618.616	23741.25
618.811	23548.74
619.006	23989.05
619.201	23661.38
619.396	23552.84
619.591	23163.72
619.786	23612.23
619.981	23237.45
620.176	23395.14
620.371	23190.34
620.566	23311.17
620.761	23305.03
620.956	23200.58
621.151	22852.43
621.346	23167.82
621.541	22549.33
621.735	23139.15
621.93	22561.62
622.125	22838.09
622.32	22299.48
622.515	22408.02
622.709	22326.1
622.904	22104.92
623.099	22307.67
623.294	21873.5
623.488	21869.4
623.683	22061.91
623.878	21764.96
624.072	21744.48
624.267	21353.32
624.462	21433.19
624.656	21285.73
624.851	21508.96
625.046	21363.56
625.24	21222.25
625.435	20902.76
625.629	21103.46
625.824	20921.2
626.018	20839.28
626.213	20663.15
626.407	20835.18
626.602	20212.6
626.796	20720.49
626.991	20540.27
627.185	20216.69
627.38	20462.45
627.574	20104.06
627.768	19874.68
627.963	20011.9
628.157	19469.19
628.352	19698.56
628.546	19583.87
628.74	19514.24
628.935	19368.84
629.129	19469.19
629.323	19264.39
629.517	19274.63
629.712	19106.7
629.906	19305.35
630.1	18908.04
630.294	18666.38
630.489	18547.6
630.683	18586.51
630.877	18594.7
631.071	18510.74
631.265	18568.08
631.459	18318.23
631.653	18246.55
631.848	18262.93
632.042	18166.68
632.236	17875.87
632.43	17922.97
632.624	17949.59
632.818	17925.02
633.012	17537.95
633.206	17490.85
633.4	17456.03
633.594	17175.46
633.788	17363.87
633.982	17191.84
634.176	17138.6
634.369	17044.39
634.563	16853.93
634.757	16673.71
634.951	16679.85
635.145	16563.12
635.339	16726.96
635.533	16354.23
635.726	16436.14
635.92	16163.76
636.114	16090.04
636.308	16505.77
636.501	15815.61
636.695	15913.91
636.889	15856.57
637.083	15625.15
637.276	15657.92
637.47	15590.33
637.664	15473.6
637.857	15391.68
638.051	15584.19
638.244	15223.75
638.438	15242.18
638.632	15039.43
638.825	15027.14
639.019	14922.69
639.212	14676.94
639.406	14810.06
639.599	14699.47
639.793	14388.18
639.986	14455.76
640.18	14425.04
640.373	14445.52
640.567	14496.72
640.76	14117.84
640.954	13808.6
641.147	13708.25
641.34	13870.04
641.534	13829.08
641.727	13603.8
641.92	13763.54
642.114	13446.11
642.307	13442.01
642.5	13446.11
642.694	12973.03
642.887	13011.94
643.08	13175.78
643.273	13112.29
643.467	12827.62
643.66	12776.42
643.853	13007.84
644.046	12667.88
644.239	12461.04
644.432	12518.38
644.626	12401.65
644.819	12229.62
645.012	12512.24
645.205	12340.21
645.398	12463.08
645.591	11992.05
645.784	12082.16
645.977	11838.45
646.17	11817.97
646.363	11844.6
646.556	11738.1
646.749	11631.61
646.942	11750.39
647.135	11604.99
647.328	11494.4
647.521	11383.8
647.714	11183.1
647.907	11394.04
648.099	11179.01
648.292	11168.77
648.485	11066.37
648.678	10791.94
648.871	10841.09
649.064	10855.43
649.256	10894.34
649.449	10714.12
649.642	10800.13
649.835	10480.65
650.027	10607.62
650.22	10396.68
650.413	10333.2
650.605	10454.03
650.798	10443.79
650.991	10251.28
651.183	10310.67
651.376	10171.41
651.568	10228.75
651.761	9907.22
651.954	10136.59
652.146	10204.17
652.339	9853.97
652.531	9833.49
652.724	9896.98
652.916	9659.42
653.109	9489.43
653.301	9595.93
653.494	9710.61
653.686	9419.8
653.879	9559.06
654.071	9344.03
654.263	9276.45
654.456	9360.41
654.648	9368.6
654.84	9026.59
655.033	9055.26
655.225	9079.84
655.417	8821.8
655.61	8721.45
655.802	8885.28
655.994	9098.27
656.186	8893.47
656.379	8743.97
656.571	8809.51
656.763	8713.25
656.955	8719.4
657.148	8571.94
657.34	8711.21
657.532	8526.89
657.724	8375.34
657.916	8543.27
658.108	8526.89
658.3	8315.95
658.492	8311.85
658.684	8131.63
658.876	8256.56
659.068	8076.34
659.26	8121.39
659.452	8025.14
659.644	7932.98
659.836	8025.14
660.028	7998.51
660.22	7752.76
660.412	7806
660.604	7818.29
660.796	7834.68
660.988	7640.12
661.18	7648.31
661.372	7617.59
661.563	7593.01
661.755	7443.51
661.947	7384.12
662.139	7437.37
662.331	7330.87
662.522	7244.86
662.714	7371.83
662.906	7359.55
663.097	7361.59
663.289	7257.15
663.481	7117.89
663.673	7234.62
663.864	6911.04
664.056	6966.34
664.247	6970.43
664.439	6872.13
664.631	6863.94
664.822	6921.28
665.014	6952
665.205	6880.32
665.397	6839.36
665.588	6712.39
665.78	6777.92
665.971	6605.89
666.163	6517.83
666.354	6685.76
666.546	6745.16
666.737	6458.44
666.929	6366.28
667.12	6575.17
667.311	6435.91
667.503	6538.31
667.694	6405.19
667.885	6403.14
668.077	6351.95
668.268	6098
668.459	6294.6
668.651	6210.64
668.842	6179.92
669.033	6036.56
669.224	6057.04
669.416	6229.07
669.607	6216.78
669.798	6003.79
669.989	6212.68
670.18	5930.06
670.371	5993.55
670.563	5909.58
670.754	5844.05
670.945	5815.38
671.136	5833.81
671.327	5813.33
671.518	5717.08
671.709	5813.33
671.9	5837.91
672.091	5745.75
672.282	5583.96
672.473	5594.2
672.664	5688.4
672.855	5608.53
673.046	5712.98
673.237	5665.88
673.428	5712.98
673.619	5743.7
673.809	5598.29
674	5594.2
674.191	5581.91
674.382	5504.09
674.573	5504.09
674.764	5594.2
674.954	5629.01
675.145	5577.81
675.336	5491.8
675.527	5336.15
675.717	5409.88
675.908	5295.19
676.099	5428.31
676.289	5459.03
676.48	5295.19
676.671	5295.19
676.861	5282.91
677.052	5336.15
677.243	5336.15
677.433	5301.34
677.624	5268.57
677.814	5231.71
678.005	5293.15
678.195	5346.39
678.386	5366.87
678.576	5213.28
678.767	5289.05
678.957	5188.7
679.148	5151.84
679.338	5299.29
679.529	5246.04
679.719	5182.56
679.909	5215.32
680.1	5139.55
680.29	5270.62
680.481	5287
680.671	5164.12
680.861	5250.14
681.052	5229.66
681.242	5123.16
681.432	5250.14
681.622	5133.4
681.813	5266.52
682.003	5121.12
682.193	5041.25
682.383	5147.74
682.573	5008.48
682.764	5065.82
682.954	5053.53
683.144	5008.48
683.334	5088.35
683.524	5041.25
683.714	5243.99
683.904	5067.87
684.094	5254.23
684.284	5041.25
684.474	5164.12
684.664	5039.2
684.854	5246.04
685.044	5100.64
685.234	4928.61
685.424	4992.09
685.614	4975.71
685.804	5041.25
685.994	5006.43
686.184	5047.39
686.374	5033.05
686.564	4961.37
686.753	4992.09
686.943	4971.61
687.133	4930.66
687.323	4967.52
687.513	4959.33
687.702	4969.57
687.892	4904.03
688.082	4957.28
688.272	4969.57
688.461	4836.45
688.651	4856.93
688.841	4975.71
689.03	4899.94
689.22	4721.76
689.41	4985.95
689.599	4803.68
689.789	4854.88
689.979	4721.76
690.168	4844.64
690.358	4811.87
690.547	4660.32
690.737	4854.88
690.926	4715.62
691.116	4615.27
691.305	4691.04
691.495	4605.03
691.684	4629.6
691.874	4695.14
692.063	4662.37
692.252	4639.84
692.442	4689
692.631	4590.69
692.82	4740.19
693.01	4666.47
693.199	4674.66
693.388	4529.25
693.578	4578.4
693.767	4533.35
693.956	4426.86
694.146	4539.49
694.335	4578.4
694.524	4623.46
694.713	4512.87
694.902	4502.63
695.092	4422.76
695.281	4502.63
695.47	4467.81
695.659	4512.87
695.848	4459.62
696.037	4361.32
696.226	4412.52
696.415	4557.93
696.604	4316.26
696.793	4545.64
696.982	4373.61
697.171	4494.44
697.36	4361.32
697.549	4435.05
697.738	4215.91
697.927	4418.66
698.116	4254.83
698.305	4334.7
698.494	4246.63
698.683	4322.41
698.872	4308.07
699.061	4349.03
699.25	4308.07
699.438	4367.46
699.627	4291.69
699.816	4320.36
700.005	4209.77
700.193	4303.98
700.382	4107.37
700.571	4324.46
700.76	4105.32
700.948	4291.69
701.137	4240.49
701.326	4201.58
701.514	4193.39
701.703	4066.41
701.892	4093.04
702.08	4217.96
702.269	4185.19
702.457	4127.85
702.646	4140.14
702.834	4090.99
703.023	3980.4
703.212	3970.16
703.4	4177
703.589	4017.26
703.777	3931.25
703.965	4009.07
704.154	4015.21
704.342	3918.96
704.531	4041.84
704.719	3898.48
704.907	3955.82
705.096	3869.81
705.284	3902.58
705.472	3822.7
705.661	3855.47
705.849	3873.9
706.037	3894.38
706.226	4025.45
706.414	3828.85
706.602	3779.7
706.79	3847.28
706.979	3722.35
707.167	3812.46
707.355	3806.32
707.543	3761.27
707.731	3918.96
707.919	3628.15
708.107	3656.82
708.296	3650.67
708.484	3748.98
708.672	3552.37
708.86	3673.2
709.048	3724.4
709.236	3636.34
709.424	3748.98
709.612	3724.4
709.8	3703.92
709.988	3685.49
710.176	3550.32
710.364	3685.49
710.551	3595.38
710.739	3665.01
710.927	3542.13
711.115	3402.87
711.303	3597.43
711.491	3650.67
711.679	3542.13
711.866	3472.5
712.054	3603.57
712.242	3411.06
712.43	3589.24
712.617	3452.02
712.805	3361.91
712.993	3476.6
713.181	3486.84
713.368	3396.73
713.556	3357.82
713.744	3279.99
713.931	3433.59
714.119	3388.53
714.306	3284.09
714.494	3349.62
714.682	3312.76
714.869	3247.23
715.057	3394.68
715.244	3275.9
715.432	3425.4
715.619	3279.99
715.807	3232.89
715.994	3181.69
716.182	3167.35
716.369	3110.01
716.556	3290.23
716.744	3085.44
716.931	3159.16
717.119	3165.31
717.306	3247.23
717.493	3124.35
717.681	3161.21
717.868	3026.04
718.055	3161.21
718.242	3132.54
718.43	3081.34
718.617	3183.74
718.804	3179.64
718.991	3153.02
719.179	3140.73
719.366	3042.43
719.553	3069.05
719.74	3150.97
719.927	3011.71
720.114	2997.37
720.301	3091.58
720.488	3024
720.676	2944.13
720.863	3148.92
721.05	3099.77
721.237	2931.84
721.424	2972.8
721.611	2890.88
721.798	2864.25
721.985	2913.41
722.172	2985.09
722.358	2856.06
722.545	2921.6
722.732	2905.21
722.919	2790.53
723.106	2829.44
723.293	2866.3
723.48	2784.38
723.667	2743.42
723.853	2731.14
724.04	2827.39
724.227	2757.76
724.414	2839.68
724.6	2886.78
724.787	2845.82
724.974	2980.99
725.161	2829.44
725.347	2583.68
725.534	2815.1
725.72	2616.45
725.907	2751.62
726.094	2784.38
726.28	2749.57
726.467	2749.57
726.653	2626.69
726.84	2651.27
727.027	2772.1
727.213	2626.69
727.4	2731.14
727.586	2706.56
727.773	2614.4
727.959	2636.93
728.145	2698.37
728.332	2724.99
728.518	2669.7
728.705	2567.3
728.891	2583.68
729.077	2546.82
729.264	2534.53
729.45	2657.41
729.636	2600.07
729.823	2569.35
730.009	2702.47
730.195	2503.81
730.382	2628.74
730.568	2526.34
730.754	2505.86
730.94	2491.52
731.126	2571.4
731.313	2460.81
731.499	2483.33
731.685	2563.2
731.871	2550.92
732.057	2552.96
732.243	2374.79
732.429	2444.42
732.615	2552.96
732.801	2471.04
732.987	2428.04
733.173	2575.49
733.359	2534.53
733.545	2286.73
733.731	2391.17
733.917	2487.43
734.103	2526.34
734.289	2497.67
734.475	2309.26
734.661	2411.65
734.847	2333.83
735.033	2299.02
735.219	2344.07
735.404	2296.97
735.59	2403.46
735.776	2206.86
735.962	2354.31
736.148	2339.97
736.333	2239.62
736.519	2286.73
736.705	2272.39
736.89	2221.19
737.076	2393.22
737.262	2206.86
737.447	2229.38
737.633	2309.26
737.819	2143.37
738.004	2256.01
738.19	2194.57
738.375	2282.63
738.561	2186.38
738.747	2239.62
738.932	2169.99
739.118	2296.97
739.303	2206.86
739.489	2227.34
739.674	2151.56
739.859	2133.13
740.045	2227.34
740.23	2163.85
740.416	2126.99
740.601	2092.17
740.786	2133.13
740.972	2120.84
741.157	2088.07
741.342	2102.41
741.528	2083.98
741.713	2237.58
741.898	2122.89
742.084	1969.29
742.269	2088.07
742.454	2104.46
742.639	2096.27
742.824	2118.79
743.01	1993.87
743.195	2153.61
743.38	2088.07
743.565	2059.4
743.75	2063.5
743.935	2034.83
744.12	1985.68
744.305	1870.99
744.49	1811.6
744.675	1881.23
744.86	1887.37
745.045	1897.61
745.23	1938.57
745.415	1883.28
745.6	1772.69
745.785	1916.05
745.97	1922.19
746.155	1920.14
746.34	1862.8
746.525	1807.5
746.71	1830.03
746.895	1797.26
747.079	1784.98
747.264	1895.57
747.449	1799.31
747.634	1821.84
747.819	1764.5
748.003	1758.35
748.188	1637.52
748.373	1617.04
748.557	1690.77
748.742	1584.27
748.927	1692.82
749.111	1758.35
749.296	1641.62
749.481	1660.05
749.665	1729.68
749.85	1586.32
750.034	1701.01
750.219	1592.47
750.404	1651.86
750.588	1514.64
750.773	1608.85
750.957	1561.75
751.141	1518.74
751.326	1606.8
751.51	1547.41
751.695	1449.11
751.879	1447.06
752.064	1512.6
752.248	1473.68
752.432	1514.64
752.617	1453.2
752.801	1477.78
752.985	1379.48
753.17	1504.4
753.354	1463.44
753.538	1377.43
753.722	1373.33
753.907	1432.72
754.091	1420.44
754.275	1449.11
754.459	1408.15
754.643	1305.75
754.828	1283.22
755.012	1381.53
755.196	1342.61
755.38	1291.41
755.564	1275.03
755.748	1414.29
755.932	1389.72
756.116	1330.33
756.3	1281.18
756.484	1258.65
756.668	1371.29
756.852	1244.31
757.036	1324.18
757.22	1234.07
757.404	1174.68
757.588	1205.4
757.772	1225.88
757.956	1201.3
758.14	1160.34
758.323	1223.83
758.507	1178.78
758.691	1207.45
758.875	1162.39
759.059	1035.42
759.242	1111.19
759.426	1201.3
759.61	1135.77
759.794	1094.81
759.977	1127.58
760.161	1109.15
760.345	1184.92
760.528	1062.04
760.712	1006.75
760.895	1168.54
761.079	1127.58
761.263	1029.27
761.446	1047.71
761.63	1100.95
761.813	1100.95
761.997	1035.42
762.18	1039.51
762.364	1049.75
762.547	986.27
762.731	1051.8
762.914	1035.42
763.098	1072.28
763.281	945.31
763.464	996.51
763.648	971.93
763.831	892.06
764.015	953.5
764.198	1014.94
764.381	947.36
764.564	978.08
764.748	971.93
764.931	951.45
765.114	988.32
765.297	1008.8
765.481	994.46
765.664	990.36
765.847	986.27
766.03	998.56
766.213	908.44
766.397	849.05
766.58	912.54
766.763	916.64
766.946	937.12
767.129	892.06
767.312	863.39
767.495	818.33
767.678	887.97
767.861	900.25
768.044	797.85
768.227	887.97
768.41	861.34
768.593	896.16
768.776	830.62
768.959	892.06
769.142	887.97
769.324	849.05
769.507	773.28
769.69	906.4
769.873	797.85
770.056	973.98
770.239	781.47
770.421	916.64
770.604	871.58
770.787	818.33
770.97	812.19
771.152	861.34
771.335	910.49
771.518	855.2
771.7	867.49
771.883	814.24
772.066	756.9
772.248	775.33
772.431	818.33
772.613	758.94
772.796	791.71
772.978	742.56
773.161	806.05
773.343	738.46
773.526	707.74
773.708	791.71
773.891	760.99
774.073	732.32
774.256	758.94
774.438	828.57
774.621	775.33
774.803	754.85
774.985	746.66
775.168	677.02
775.35	777.37
775.532	750.75
775.715	677.02
775.897	670.88
776.079	691.36
776.261	720.03
776.444	638.11
776.626	715.94
776.808	654.5
776.99	566.43
777.173	627.87
777.355	711.84
777.537	636.06
777.719	650.4
777.901	679.07
778.083	568.48
778.265	611.49
778.447	670.88
778.629	634.02
778.811	668.83
778.993	619.68
779.175	679.07
779.357	603.3
779.539	556.19
779.721	642.21
779.903	687.26
780.085	601.25
780.267	644.26
780.449	580.77
780.631	529.57
780.812	580.77
780.994	623.78
781.176	599.2
781.358	595.11
781.54	631.97
781.721	494.76
781.903	584.87
782.085	527.52
782.267	539.81
782.448	523.43
782.63	425.12
782.812	478.37
782.993	570.53
783.175	539.81
783.357	578.72
783.538	529.57
783.72	490.66
783.901	502.95
784.083	466.08
784.264	470.18
784.446	437.41
784.627	466.08
784.809	539.81
784.99	470.18
785.172	461.99
785.353	488.61
785.535	552.1
785.716	425.12
785.897	330.92
786.079	421.03
786.26	552.1
786.441	410.79
786.623	402.6
786.804	431.27
786.985	425.12
787.167	474.28
787.348	437.41
787.529	412.84
787.71	425.12
787.891	412.84
788.073	359.59
788.254	300.2
788.435	519.33
788.616	398.5
788.797	373.92
788.978	437.41
789.159	310.44
789.34	392.36
789.522	341.16
789.703	345.25
789.884	339.11
790.065	320.68
790.246	445.6
790.427	298.15
790.607	398.5
790.788	384.16
790.969	339.11
791.15	363.69
791.331	324.77
791.512	339.11
791.693	363.69
791.874	257.19
792.054	412.84
792.235	365.73
792.416	300.2
792.597	398.5
792.778	371.88
792.958	361.64
793.139	275.62
793.32	341.16
793.5	373.92
793.681	359.59
793.862	296.1
794.042	388.26
794.223	339.11
794.404	283.81
794.584	275.62
794.765	357.54
794.945	238.76
795.126	261.29
795.306	273.57
795.487	322.73
795.667	302.25
795.848	300.2
796.028	306.34
796.209	345.25
796.389	298.15
796.57	265.38
796.75	234.66
796.93	330.92
797.111	249
797.291	326.82
797.471	300.2
797.652	261.29
797.832	275.62
798.012	355.49
798.192	251.05
798.373	269.48
798.553	335.01
798.733	232.62
798.913	199.85
799.093	230.57
799.274	253.09
799.454	294.05
799.634	201.9
799.814	310.44
799.994	265.38
800.174	339.11
800.354	222.38
800.534	212.14
800.714	220.33
800.894	201.9
801.074	251.05
801.254	228.52
801.434	289.96
801.614	277.67
801.794	201.9
801.974	806.05
802.154	261.29
802.334	199.85
802.514	195.75
802.693	263.33
802.873	208.04
803.053	306.34
803.233	259.24
803.413	244.9
803.592	271.53
803.772	214.18
803.952	271.53
804.131	167.08
804.311	246.95
804.491	314.53
804.67	224.42
804.85	189.61
805.03	212.14
805.209	232.62
805.389	160.94
805.568	179.37
805.748	95.4
805.928	236.71
806.107	158.89
806.287	249
806.466	220.33
806.646	162.98
806.825	134.31
807.004	238.76
807.184	117.93
807.363	183.46
807.543	216.23
807.722	138.41
807.901	234.66
808.081	216.23
808.26	119.98
808.439	138.41
808.619	208.04
808.798	199.85
808.977	253.09
809.156	275.62
809.336	158.89
809.515	142.5
809.694	173.22
809.873	144.55
810.052	126.12
810.231	285.86
810.411	226.47
810.59	124.07
810.769	177.32
810.948	189.61
811.127	138.41
811.306	130.22
811.485	191.66
811.664	179.37
811.843	144.55
812.022	183.46
812.201	130.22
812.38	193.7
812.559	136.36
812.737	191.66
812.916	152.74
813.095	220.33
813.274	197.8
813.453	199.85
813.632	208.04
813.811	160.94
813.989	109.74
814.168	175.27
814.347	105.64
814.526	160.94
814.704	228.52
814.883	175.27
815.062	85.16
815.24	224.42
815.419	117.93
815.598	144.55
815.776	81.07
815.955	119.98
816.133	95.4
816.312	117.93
816.49	89.26
816.669	136.36
816.847	193.7
817.026	158.89
817.204	117.93
817.383	81.07
817.561	126.12
817.74	150.7
817.918	101.55
818.097	103.59
818.275	109.74
818.453	126.12
818.632	152.74
818.81	201.9
818.988	126.12
819.167	126.12
819.345	81.07
819.523	142.5
819.701	142.5
819.879	195.75
820.058	117.93
820.236	165.03
820.414	146.6
820.592	81.07
820.77	83.11
820.948	72.87
821.127	146.6
821.305	142.5
821.483	136.36
821.661	132.26
821.839	212.14
822.017	146.6
822.195	122.02
822.373	119.98
822.551	40.11
822.729	162.98
822.907	109.74
823.085	119.98
823.262	103.59
823.44	52.39
823.618	52.39
823.796	101.55
823.974	107.69
824.152	134.31
824.329	136.36
824.507	126.12
824.685	111.78
824.863	105.64
825.04	105.64
825.218	138.41
825.396	93.35
825.574	54.44
825.751	68.78
825.929	85.16
826.107	81.07
826.284	105.64
826.462	132.26
826.639	64.68
826.817	3.24
826.994	150.7
827.172	60.59
827.349	87.21
827.527	154.79
827.704	93.35
827.882	122.02
828.059	103.59
828.237	119.98
828.414	111.78
828.591	-13.14
828.769	113.83
828.946	85.16
829.124	126.12
829.301	154.79
829.478	68.78
829.655	62.63
829.833	193.7
830.01	46.25
830.187	122.02
830.364	109.74
830.542	109.74
830.719	156.84
830.896	93.35
831.073	101.55
831.25	60.59
831.427	97.45
831.604	89.26
831.782	74.92
831.959	85.16
832.136	95.4
832.313	81.07
832.49	13.48
832.667	76.97
832.844	48.3
833.021	46.25
833.198	85.16
833.374	64.68
833.551	13.48
833.728	68.78
833.905	19.63
834.082	27.82
834.259	101.55
834.436	109.74
834.612	11.43
834.789	74.92
834.966	101.55
835.143	117.93
835.319	11.43
835.496	95.4
835.673	27.82
835.85	152.74
836.026	97.45
836.203	68.78
836.38	113.83
836.556	76.97
836.733	44.2
836.909	113.83
837.086	52.39
837.262	17.58
837.439	-2.9
837.616	60.59
837.792	103.59
837.968	44.2
838.145	23.72
838.321	66.73
838.498	64.68
838.674	87.21
838.851	11.43
839.027	48.3
839.203	52.39
839.38	56.49
839.556	138.41
839.732	142.5
839.909	107.69
840.085	68.78
840.261	68.78
840.437	87.21
840.614	70.83
840.79	103.59
840.966	89.26
841.142	52.39
841.318	70.83
841.494	142.5
841.671	23.72
841.847	52.39
842.023	36.01
842.199	23.72
842.375	64.68
842.551	-33.62
842.727	3.24
842.903	136.36
843.079	-13.14
843.255	3.24
843.431	31.91
843.607	115.88
843.783	54.44
843.959	101.55
844.134	117.93
844.31	68.78
844.486	23.72
844.662	52.39
844.838	-0.85
845.013	19.63
845.189	48.3
845.365	64.68
845.541	13.48
845.716	25.77
845.892	87.21
846.068	21.67
846.244	68.78
846.419	29.87
846.595	-17.24
846.77	85.16
846.946	64.68
847.122	62.63
847.297	54.44
847.473	60.59
847.648	-54.1
847.824	52.39
847.999	68.78
848.175	52.39
848.35	99.5
848.526	103.59
848.701	76.97
848.876	115.88
849.052	128.17
849.227	48.3
849.403	36.01
849.578	21.67
849.753	62.63
849.929	3.24
850.104	44.2
850.279	54.44
850.454	97.45
850.63	36.01
850.805	29.87
850.98	52.39
851.155	62.63
851.33	-21.33
851.505	1.19
851.681	58.54
851.856	-19.29
852.031	44.2
852.206	25.77
852.381	3.24
852.556	11.43
852.731	44.2
852.906	31.91
853.081	29.87
853.256	85.16
853.431	-39.76
853.606	-13.14
853.781	-4.95
853.956	31.91
854.131	5.29
854.305	1.19
854.48	27.82
854.655	-25.43
854.83	19.63
855.005	50.35
855.18	-2.9
855.354	66.73
855.529	52.39
855.704	29.87
855.879	40.11
856.053	31.91
856.228	76.97
856.403	56.49
856.577	93.35
856.752	27.82
856.926	3.24
857.101	5.29
857.276	40.11
857.45	19.63
857.625	19.63
857.799	-0.85
857.974	19.63
858.148	33.96
858.323	25.77
858.497	23.72
858.672	44.2
858.846	40.11
859.02	95.4
859.195	-2.9
859.369	72.87
859.543	89.26
859.718	44.2
859.892	-0.85
860.066	89.26
860.241	36.01
860.415	29.87
860.589	76.97
860.763	17.58
860.938	-27.48
861.112	160.94
861.286	64.68
861.46	79.02
861.634	1.19
861.808	52.39
861.982	-9.05
862.157	50.35
862.331	36.01
862.505	-21.33
862.679	-50
862.853	85.16
863.027	103.59
863.201	66.73
863.375	136.36
863.549	52.39
863.722	58.54
863.896	81.07
864.07	-66.39
864.244	60.59
864.418	-41.81
864.592	-13.14
864.766	60.59
864.939	103.59
865.113	62.63
865.287	52.39
865.461	-29.52
865.634	36.01
865.808	-4.95
865.982	11.43
866.156	-2.9
866.329	42.15
866.503	81.07
866.676	-15.19
866.85	-11.09
867.024	-37.72
867.197	56.49
867.371	7.34
867.544	48.3
867.718	-21.33
867.891	66.73
868.065	-45.91
868.238	-0.85
868.412	54.44
868.585	68.78
868.759	9.39
868.932	29.87
869.105	-50
869.279	36.01
869.452	-13.14
869.625	107.69
869.799	38.06
869.972	-21.33
870.145	-2.9
870.319	-13.14
870.492	19.63
870.665	9.39
870.838	15.53
871.011	5.29
871.185	68.78
871.358	-0.85
871.531	21.67
871.704	-35.67
871.877	79.02
872.05	56.49
872.223	72.87
872.396	19.63
872.569	13.48
872.742	-9.05
872.915	76.97
873.088	38.06
873.261	19.63
873.434	-19.29
873.607	72.87
873.78	-27.48
873.953	23.72
874.126	-17.24
874.299	11.43
874.471	-2.9
874.644	-4.95
874.817	81.07
874.99	44.2
875.163	-52.05
875.335	27.82
875.508	68.78
875.681	60.59
875.853	68.78
876.026	19.63
876.199	64.68
876.371	-43.86
876.544	31.91
876.717	36.01
876.889	23.72
877.062	36.01
877.234	-19.29
877.407	62.63
877.579	40.11
877.752	21.67
877.924	-4.95
878.097	13.48
878.269	13.48
878.442	-9.05
878.614	11.43
878.786	101.55
878.959	40.11
879.131	87.21
879.303	-13.14
879.476	5.29
879.648	36.01
879.82	-11.09
879.993	27.82
880.165	29.87
880.337	-31.57
880.509	15.53
880.681	-54.1
880.854	-13.14
881.026	31.91
881.198	38.06
881.37	-9.05
881.542	19.63
881.714	7.34
881.886	117.93
882.058	36.01
882.23	58.54
882.402	17.58
882.574	54.44
882.746	52.39
882.918	40.11
883.09	23.72
883.262	81.07
883.434	11.43
883.606	-29.52
883.778	13.48
883.95	68.78
884.122	19.63
884.293	11.43
884.465	5.29
884.637	19.63
884.809	-76.63
884.98	31.91
885.152	19.63
885.324	1.19
885.496	19.63
885.667	-62.29
885.839	13.48
886.011	76.97
886.182	31.91
886.354	-11.09
886.525	25.77
886.697	64.68
886.869	-0.85
887.04	17.58
887.212	1.19
887.383	48.3
887.555	36.01
887.726	-37.72
887.897	5.29
888.069	19.63
888.24	-29.52
888.412	54.44
888.583	27.82
888.754	70.83
888.926	-70.48
889.097	-15.19
889.268	72.87
889.44	42.15
889.611	-19.29
889.782	-37.72
889.953	-27.48
890.125	87.21
890.296	-21.33
890.467	17.58
890.638	-15.19
890.809	-0.85
890.98	-0.85
891.151	62.63
891.323	13.48
891.494	83.11
891.665	64.68
891.836	19.63
892.007	-62.29
892.178	-13.14
892.349	13.48
892.52	-17.24
892.691	54.44
892.862	5.29
893.032	-15.19
893.203	136.36
893.374	-23.38
893.545	44.2
893.716	-4.95
893.887	113.83
894.057	60.59
894.228	7.34
894.399	3.24
894.57	15.53
894.74	15.53
894.911	29.87
895.082	-33.62
895.253	58.54
895.423	-19.29
895.594	85.16
895.764	5.29
895.935	44.2
896.106	79.02
896.276	36.01
896.447	-45.91
896.617	-17.24
896.788	-4.95
896.958	-0.85
897.129	15.53
897.299	-101.2
897.47	56.49
897.64	19.63
897.81	19.63
897.981	31.91
898.151	-17.24
898.322	11.43
898.492	-25.43
898.662	-29.52
898.832	27.82
899.003	-0.85
899.173	3.24
899.343	31.91
899.513	1.19
