Data from USB4F104151__97__14-30-47-293.txt Node

Date: Thu Mar 13 14:30:47 EDT 2025
User: louis
Spectrometer: USB4F10415
Trigger mode: 4
Integration Time (sec): 2.500000E-2
Scans to average: 1
Electric dark correction enabled: true
Nonlinearity correction enabled: false
Boxcar width: 0
XAxis mode: Wavelengths
Number of Pixels in Spectrum: 3648
>>>>>Begin Spectral Data<<<<<
178.204	-150.01
178.424	-150.01
178.644	-150.01
178.864	-137.73
179.084	-219.64
179.304	-29.18
179.524	-43.52
179.744	-37.38
179.964	87.55
180.184	-12.8
180.404	-23.04
180.624	38.4
180.844	1.54
181.064	-4.61
181.283	-16.9
181.503	26.11
181.723	13.82
181.943	-76.29
182.163	42.5
182.383	58.88
182.602	42.5
182.822	58.88
183.042	46.59
183.262	11.78
183.482	-47.62
183.701	-35.33
183.921	26.11
184.141	11.78
184.361	38.4
184.58	9.73
184.8	-6.66
185.02	73.21
185.239	75.26
185.459	11.78
185.679	116.22
185.898	60.93
186.118	-20.99
186.338	3.58
186.557	75.26
186.777	-31.23
186.997	-31.23
187.216	3.58
187.436	136.7
187.655	-0.51
187.875	91.65
188.095	32.26
188.314	30.21
188.534	110.08
188.753	48.64
188.973	17.92
189.192	54.78
189.412	105.98
189.631	77.31
189.851	-29.18
190.07	58.88
190.29	85.5
190.509	40.45
190.729	36.35
190.948	85.5
191.168	200.19
191.387	38.4
191.607	11.78
191.826	85.5
192.045	65.02
192.265	56.83
192.484	-12.8
192.704	93.69
192.923	-96.77
193.142	83.45
193.362	-14.85
193.581	9.73
193.8	19.97
194.02	118.27
194.239	34.3
194.458	50.69
194.678	34.3
194.897	58.88
195.116	-0.51
195.335	116.22
195.555	65.02
195.774	9.73
195.993	38.4
196.212	19.97
196.432	-74.24
196.651	34.3
196.87	-35.33
197.089	42.5
197.308	36.35
197.528	17.92
197.747	-23.04
197.966	87.55
198.185	38.4
198.404	17.92
198.623	101.89
198.842	99.84
199.062	114.17
199.281	103.93
199.5	58.88
199.719	34.3
199.938	22.02
200.157	28.16
200.376	-20.99
200.595	87.55
200.814	-8.7
201.033	17.92
201.252	54.78
201.471	118.27
201.69	38.4
201.909	65.02
202.128	22.02
202.347	1.54
202.566	-35.33
202.785	17.92
203.004	44.54
203.223	101.89
203.442	9.73
203.661	-14.85
203.879	11.78
204.098	34.3
204.317	11.78
204.536	54.78
204.755	13.82
204.974	83.45
205.193	-25.09
205.411	67.07
205.63	-4.61
205.849	24.06
206.068	-2.56
206.287	26.11
206.505	-20.99
206.724	28.16
206.943	71.17
207.162	-20.99
207.381	-14.85
207.599	-10.75
207.818	38.4
208.037	58.88
208.255	28.16
208.474	95.74
208.693	42.5
208.911	42.5
209.13	52.74
209.349	65.02
209.567	52.74
209.786	34.3
210.005	65.02
210.223	3.58
210.442	-51.71
210.661	124.41
210.879	-14.85
211.098	19.97
211.316	-20.99
211.535	52.74
211.753	11.78
211.972	9.73
212.191	-0.51
212.409	3.58
212.628	42.5
212.846	40.45
213.065	58.88
213.283	22.02
213.502	-33.28
213.72	52.74
213.938	19.97
214.157	101.89
214.375	19.97
214.594	26.11
214.812	30.21
215.031	5.63
215.249	13.82
215.467	5.63
215.686	9.73
215.904	75.26
216.122	46.59
216.341	50.69
216.559	34.3
216.778	-14.85
216.996	-37.38
217.214	-23.04
217.432	22.02
217.651	-6.66
217.869	26.11
218.087	73.21
218.306	28.16
218.524	-4.61
218.742	32.26
218.96	60.93
219.179	11.78
219.397	44.54
219.615	134.65
219.833	54.78
220.051	19.97
220.27	42.5
220.488	46.59
220.706	69.12
220.924	-10.75
221.142	-2.56
221.36	36.35
221.578	99.84
221.796	79.36
222.015	103.93
222.233	50.69
222.451	50.69
222.669	-10.75
222.887	79.36
223.105	-37.38
223.323	28.16
223.541	36.35
223.759	58.88
223.977	36.35
224.195	13.82
224.413	62.98
224.631	118.27
224.849	60.93
225.067	99.84
225.285	-10.75
225.503	52.74
225.721	-53.76
225.939	50.69
226.157	-18.94
226.375	99.84
226.592	89.6
226.81	26.11
227.028	22.02
227.246	40.45
227.464	73.21
227.682	34.3
227.9	56.83
228.117	91.65
228.335	19.97
228.553	34.3
228.771	71.17
228.989	52.74
229.206	-0.51
229.424	83.45
229.642	-4.61
229.86	-64
230.077	54.78
230.295	95.74
230.513	19.97
230.731	60.93
230.948	91.65
231.166	52.74
231.384	5.63
231.601	9.73
231.819	67.07
232.037	77.31
232.254	-35.33
232.472	7.68
232.689	-2.56
232.907	126.46
233.125	42.5
233.342	110.08
233.56	13.82
233.777	-6.66
233.995	13.82
234.213	132.61
234.43	11.78
234.648	1.54
234.865	-37.38
235.083	34.3
235.3	42.5
235.518	28.16
235.735	89.6
235.953	50.69
236.17	77.31
236.388	75.26
236.605	-10.75
236.822	132.61
237.04	11.78
237.257	58.88
237.475	-20.99
237.692	60.93
237.909	69.12
238.127	19.97
238.344	89.6
238.562	114.17
238.779	50.69
238.996	-2.56
239.214	30.21
239.431	99.84
239.648	-29.18
239.865	93.69
240.083	105.98
240.3	1.54
240.517	58.88
240.735	15.87
240.952	153.09
241.169	58.88
241.386	13.82
241.603	-29.18
241.821	-18.94
242.038	67.07
242.255	110.08
242.472	-72.19
242.689	34.3
242.907	69.12
243.124	-14.85
243.341	-43.52
243.558	17.92
243.775	-2.56
243.992	36.35
244.209	22.02
244.426	85.5
244.643	22.02
244.86	26.11
245.078	99.84
245.295	-37.38
245.512	9.73
245.729	-14.85
245.946	77.31
246.163	26.11
246.38	30.21
246.597	85.5
246.814	11.78
247.031	71.17
247.248	19.97
247.464	79.36
247.681	79.36
247.898	34.3
248.115	54.78
248.332	48.64
248.549	46.59
248.766	50.69
248.983	34.3
249.2	30.21
249.417	30.21
249.633	-23.04
249.85	95.74
250.067	58.88
250.284	87.55
250.501	75.26
250.717	67.07
250.934	-70.14
251.151	118.27
251.368	58.88
251.585	67.07
251.801	83.45
252.018	3.58
252.235	118.27
252.451	1.54
252.668	-35.33
252.885	71.17
253.102	42.5
253.318	-14.85
253.535	34.3
253.752	-31.23
253.968	75.26
254.185	-76.29
254.401	91.65
254.618	34.3
254.835	-96.77
255.051	103.93
255.268	34.3
255.484	44.54
255.701	5.63
255.917	69.12
256.134	5.63
256.351	-4.61
256.567	9.73
256.784	11.78
257	-29.18
257.217	69.12
257.433	52.74
257.65	5.63
257.866	50.69
258.082	-29.18
258.299	83.45
258.515	17.92
258.732	9.73
258.948	-29.18
259.165	24.06
259.381	13.82
259.597	132.61
259.814	34.3
260.03	-25.09
260.246	-6.66
260.463	101.89
260.679	-61.95
260.895	58.88
261.112	60.93
261.328	-12.8
261.544	9.73
261.761	79.36
261.977	11.78
262.193	-82.43
262.409	36.35
262.626	22.02
262.842	69.12
263.058	34.3
263.274	-20.99
263.49	50.69
263.707	42.5
263.923	67.07
264.139	-12.8
264.355	50.69
264.571	75.26
264.787	13.82
265.004	69.12
265.22	-82.43
265.436	26.11
265.652	22.02
265.868	15.87
266.084	-4.61
266.3	52.74
266.516	3.58
266.732	-23.04
266.948	75.26
267.164	50.69
267.38	-2.56
267.596	30.21
267.812	122.37
268.028	58.88
268.244	-12.8
268.46	5.63
268.676	65.02
268.892	62.98
269.108	-14.85
269.324	22.02
269.54	75.26
269.756	3.58
269.972	38.4
270.188	3.58
270.403	54.78
270.619	42.5
270.835	50.69
271.051	30.21
271.267	67.07
271.483	46.59
271.698	132.61
271.914	85.5
272.13	42.5
272.346	19.97
272.562	30.21
272.777	15.87
272.993	46.59
273.209	19.97
273.425	52.74
273.64	17.92
273.856	73.21
274.072	-12.8
274.287	-27.14
274.503	58.88
274.719	-4.61
274.934	36.35
275.15	1.54
275.366	42.5
275.581	5.63
275.797	42.5
276.012	-4.61
276.228	83.45
276.444	-43.52
276.659	62.98
276.875	58.88
277.09	26.11
277.306	103.93
277.521	5.63
277.737	69.12
277.952	71.17
278.168	75.26
278.383	44.54
278.599	77.31
278.814	122.37
279.03	52.74
279.245	110.08
279.461	46.59
279.676	83.45
279.892	13.82
280.107	36.35
280.322	-47.62
280.538	120.32
280.753	-27.14
280.969	69.12
281.184	50.69
281.399	40.45
281.615	13.82
281.83	-18.94
282.045	-14.85
282.26	38.4
282.476	26.11
282.691	126.46
282.906	52.74
283.122	34.3
283.337	36.35
283.552	50.69
283.767	-23.04
283.983	58.88
284.198	-10.75
284.413	52.74
284.628	71.17
284.843	58.88
285.058	-2.56
285.274	54.78
285.489	-8.7
285.704	-23.04
285.919	42.5
286.134	58.88
286.349	60.93
286.564	9.73
286.779	-0.51
286.995	50.69
287.21	17.92
287.425	22.02
287.64	7.68
287.855	-18.94
288.07	-18.94
288.285	93.69
288.5	54.78
288.715	65.02
288.93	15.87
289.145	26.11
289.36	99.84
289.575	26.11
289.79	116.22
290.004	9.73
290.219	103.93
290.434	26.11
290.649	-10.75
290.864	34.3
291.079	-6.66
291.294	40.45
291.509	9.73
291.724	-4.61
291.938	101.89
292.153	99.84
292.368	42.5
292.583	34.3
292.798	22.02
293.012	60.93
293.227	60.93
293.442	30.21
293.657	-31.23
293.871	71.17
294.086	38.4
294.301	34.3
294.516	67.07
294.73	108.03
294.945	28.16
295.16	11.78
295.374	81.41
295.589	75.26
295.804	-14.85
296.018	3.58
296.233	-2.56
296.447	17.92
296.662	71.17
296.877	60.93
297.091	34.3
297.306	11.78
297.52	40.45
297.735	52.74
297.949	134.65
298.164	99.84
298.378	-0.51
298.593	42.5
298.807	67.07
299.022	83.45
299.236	62.98
299.451	-10.75
299.665	-10.75
299.88	-20.99
300.094	83.45
300.309	15.87
300.523	67.07
300.737	1.54
300.952	40.45
301.166	36.35
301.381	85.5
301.595	52.74
301.809	34.3
302.024	22.02
302.238	9.73
302.452	77.31
302.667	58.88
302.881	151.04
303.095	44.54
303.309	42.5
303.524	85.5
303.738	-10.75
303.952	60.93
304.166	44.54
304.381	-23.04
304.595	130.56
304.809	-51.71
305.023	69.12
305.237	1.54
305.452	85.5
305.666	13.82
305.88	58.88
306.094	69.12
306.308	83.45
306.522	46.59
306.736	83.45
306.95	79.36
307.164	34.3
307.379	-59.9
307.593	67.07
307.807	95.74
308.021	42.5
308.235	101.89
308.449	-33.28
308.663	50.69
308.877	140.8
309.091	83.45
309.305	54.78
309.519	-12.8
309.733	38.4
309.947	30.21
310.161	116.22
310.374	73.21
310.588	91.65
310.802	7.68
311.016	17.92
311.23	-23.04
311.444	-29.18
311.658	36.35
311.872	116.22
312.085	69.12
312.299	171.52
312.513	-31.23
312.727	52.74
312.941	-10.75
313.154	7.68
313.368	69.12
313.582	-12.8
313.796	44.54
314.009	13.82
314.223	62.98
314.437	-27.14
314.651	22.02
314.864	-35.33
315.078	69.12
315.292	-20.99
315.505	1.54
315.719	54.78
315.933	62.98
316.146	26.11
316.36	30.21
316.573	91.65
316.787	120.32
317.001	97.79
317.214	44.54
317.428	34.3
317.641	-29.18
317.855	105.98
318.068	54.78
318.282	79.36
318.495	83.45
318.709	103.93
318.922	-20.99
319.136	75.26
319.349	-6.66
319.563	-59.9
319.776	71.17
319.99	62.98
320.203	83.45
320.417	9.73
320.63	26.11
320.843	75.26
321.057	50.69
321.27	54.78
321.483	24.06
321.697	50.69
321.91	93.69
322.124	77.31
322.337	83.45
322.55	11.78
322.763	50.69
322.977	13.82
323.19	13.82
323.403	13.82
323.617	26.11
323.83	118.27
324.043	38.4
324.256	-78.33
324.469	-10.75
324.683	93.69
324.896	19.97
325.109	91.65
325.322	52.74
325.535	26.11
325.748	91.65
325.962	28.16
326.175	50.69
326.388	58.88
326.601	30.21
326.814	-27.14
327.027	17.92
327.24	89.6
327.453	17.92
327.666	22.02
327.879	87.55
328.092	93.69
328.305	77.31
328.518	-31.23
328.731	81.41
328.944	62.98
329.157	130.56
329.37	56.83
329.583	75.26
329.796	95.74
330.009	-27.14
330.222	128.51
330.435	19.97
330.648	58.88
330.861	44.54
331.073	85.5
331.286	13.82
331.499	65.02
331.712	-4.61
331.925	62.98
332.138	22.02
332.35	62.98
332.563	71.17
332.776	85.5
332.989	69.12
333.202	83.45
333.414	-29.18
333.627	3.58
333.84	77.31
334.053	58.88
334.265	-47.62
334.478	81.41
334.691	62.98
334.903	32.26
335.116	52.74
335.329	67.07
335.541	30.21
335.754	91.65
335.966	32.26
336.179	36.35
336.392	17.92
336.604	46.59
336.817	75.26
337.029	71.17
337.242	28.16
337.454	120.32
337.667	99.84
337.88	103.93
338.092	26.11
338.305	-16.9
338.517	44.54
338.729	67.07
338.942	50.69
339.154	40.45
339.367	75.26
339.579	85.5
339.792	-23.04
340.004	67.07
340.217	28.16
340.429	65.02
340.641	5.63
340.854	69.12
341.066	58.88
341.278	42.5
341.491	110.08
341.703	-23.04
341.915	56.83
342.128	91.65
342.34	71.17
342.552	58.88
342.764	3.58
342.977	52.74
343.189	38.4
343.401	67.07
343.613	42.5
343.826	73.21
344.038	-25.09
344.25	44.54
344.462	-23.04
344.674	93.69
344.886	-100.86
345.099	44.54
345.311	114.17
345.523	69.12
345.735	-12.8
345.947	34.3
346.159	17.92
346.371	75.26
346.583	99.84
346.795	136.7
347.007	-23.04
347.219	42.5
347.431	34.3
347.643	83.45
347.855	42.5
348.067	48.64
348.279	62.98
348.491	77.31
348.703	52.74
348.915	60.93
349.127	118.27
349.339	124.41
349.551	-14.85
349.763	101.89
349.975	83.45
350.187	99.84
350.399	50.69
350.61	116.22
350.822	-0.51
351.034	91.65
351.246	124.41
351.458	69.12
351.669	-18.94
351.881	91.65
352.093	79.36
352.305	120.32
352.517	15.87
352.728	36.35
352.94	56.83
353.152	56.83
353.363	-78.33
353.575	-2.56
353.787	124.41
353.999	69.12
354.21	177.66
354.422	71.17
354.633	52.74
354.845	83.45
355.057	58.88
355.268	85.5
355.48	124.41
355.692	22.02
355.903	46.59
356.115	17.92
356.326	-39.42
356.538	85.5
356.749	65.02
356.961	34.3
357.172	153.09
357.384	3.58
357.595	177.66
357.807	58.88
358.018	36.35
358.23	17.92
358.441	108.03
358.653	99.84
358.864	28.16
359.075	1.54
359.287	71.17
359.498	62.98
359.709	38.4
359.921	-10.75
360.132	60.93
360.344	58.88
360.555	108.03
360.766	58.88
360.977	28.16
361.189	99.84
361.4	-23.04
361.611	136.7
361.823	93.69
362.034	-4.61
362.245	15.87
362.456	52.74
362.667	108.03
362.879	1.54
363.09	-4.61
363.301	87.55
363.512	1.54
363.723	42.5
363.935	-35.33
364.146	132.61
364.357	26.11
364.568	67.07
364.779	58.88
364.99	75.26
365.201	30.21
365.412	77.31
365.623	-53.76
365.834	38.4
366.045	-6.66
366.256	69.12
366.467	60.93
366.678	54.78
366.889	122.37
367.1	-6.66
367.311	101.89
367.522	67.07
367.733	85.5
367.944	73.21
368.155	44.54
368.366	83.45
368.577	28.16
368.788	114.17
368.999	3.58
369.209	101.89
369.42	67.07
369.631	118.27
369.842	81.41
370.053	17.92
370.264	153.09
370.474	19.97
370.685	71.17
370.896	-23.04
371.107	58.88
371.317	46.59
371.528	60.93
371.739	54.78
371.95	120.32
372.16	99.84
372.371	-6.66
372.582	85.5
372.792	69.12
373.003	58.88
373.214	60.93
373.424	87.55
373.635	36.35
373.846	112.13
374.056	34.3
374.267	38.4
374.477	116.22
374.688	75.26
374.898	34.3
375.109	136.7
375.319	103.93
375.53	62.98
375.74	52.74
375.951	26.11
376.161	54.78
376.372	9.73
376.582	79.36
376.793	56.83
377.003	-39.42
377.214	38.4
377.424	136.7
377.635	67.07
377.845	52.74
378.055	132.61
378.266	32.26
378.476	93.69
378.686	71.17
378.897	99.84
379.107	48.64
379.317	52.74
379.528	120.32
379.738	101.89
379.948	54.78
380.158	91.65
380.369	9.73
380.579	91.65
380.789	132.61
380.999	30.21
381.21	79.36
381.42	69.12
381.63	83.45
381.84	60.93
382.05	17.92
382.261	52.74
382.471	71.17
382.681	44.54
382.891	144.89
383.101	58.88
383.311	79.36
383.521	9.73
383.731	56.83
383.941	79.36
384.151	110.08
384.361	93.69
384.571	30.21
384.781	130.56
384.991	83.45
385.201	114.17
385.411	134.65
385.621	91.65
385.831	67.07
386.041	97.79
386.251	75.26
386.461	93.69
386.671	91.65
386.881	108.03
387.091	58.88
387.301	69.12
387.511	5.63
387.72	13.82
387.93	99.84
388.14	1.54
388.35	157.18
388.56	165.37
388.769	116.22
388.979	108.03
389.189	99.84
389.399	36.35
389.609	101.89
389.818	116.22
390.028	126.46
390.238	108.03
390.447	-2.56
390.657	11.78
390.867	30.21
391.076	85.5
391.286	97.79
391.496	83.45
391.705	103.93
391.915	67.07
392.125	101.89
392.334	56.83
392.544	69.12
392.753	71.17
392.963	132.61
393.172	83.45
393.382	50.69
393.591	185.85
393.801	101.89
394.01	110.08
394.22	144.89
394.429	126.46
394.639	65.02
394.848	97.79
395.058	124.41
395.267	159.23
395.477	103.93
395.686	202.24
395.895	126.46
396.105	167.42
396.314	103.93
396.524	116.22
396.733	95.74
396.942	183.81
397.152	200.19
397.361	165.37
397.57	148.99
397.78	146.94
397.989	85.5
398.198	159.23
398.407	151.04
398.617	157.18
398.826	89.6
399.035	81.41
399.244	169.47
399.453	165.37
399.663	144.89
399.872	206.33
400.081	140.8
400.29	132.61
400.499	128.51
400.708	118.27
400.917	112.13
401.127	206.33
401.336	95.74
401.545	255.48
401.754	218.62
401.963	230.91
402.172	124.41
402.381	114.17
402.59	194.05
402.799	146.94
403.008	200.19
403.217	181.76
403.426	120.32
403.635	179.71
403.844	132.61
404.053	192
404.262	173.57
404.471	368.12
404.68	185.85
404.888	132.61
405.097	165.37
405.306	206.33
405.515	230.91
405.724	189.95
405.933	206.33
406.142	198.14
406.35	185.85
406.559	226.81
406.768	251.39
406.977	314.88
407.185	251.39
407.394	282.11
407.603	308.73
407.812	304.64
408.02	341.5
408.229	386.55
408.438	364.03
408.646	263.68
408.855	321.02
409.064	423.42
409.272	361.98
409.481	404.99
409.69	454.14
409.898	398.84
410.107	486.9
410.315	527.86
410.524	464.38
410.733	390.65
410.941	456.19
411.15	538.1
411.358	577.02
411.567	607.73
411.775	497.14
411.984	665.08
412.192	632.31
412.401	673.27
412.609	728.56
412.818	742.9
413.026	734.71
413.234	769.52
413.443	689.65
413.651	699.89
413.86	749.04
414.068	886.26
414.276	988.66
414.485	912.88
414.693	939.51
414.901	976.37
415.11	959.99
415.318	1043.95
415.526	1011.18
415.734	1082.86
415.943	1156.59
416.151	1246.7
416.359	1232.37
416.567	1304.04
416.776	1254.89
416.984	1435.11
417.192	1474.03
417.4	1459.69
417.608	1359.34
417.817	1566.18
418.025	1631.72
418.233	1795.56
418.441	1719.78
418.649	1641.96
418.857	1865.19
419.065	1832.42
419.273	1801.7
419.481	2035.17
419.689	2074.08
419.897	2180.57
420.105	2188.77
420.313	2319.84
420.521	2272.73
420.729	2522.59
420.937	2428.38
421.145	2467.29
421.353	2758.1
421.561	2835.92
421.769	2846.16
421.977	3026.39
422.185	3036.63
422.393	3257.81
422.601	3319.25
422.809	3325.39
423.017	3327.44
423.224	3583.43
423.432	3753.41
423.64	3610.06
423.848	4058.56
424.056	3900.87
424.263	4175.3
424.471	4220.35
424.679	4312.51
424.887	4494.78
425.094	4629.95
425.302	4730.3
425.51	4810.17
425.718	4974
425.925	5047.73
426.133	5285.3
426.341	5567.92
426.548	5625.26
426.756	5764.52
426.964	5795.24
427.171	6270.37
427.379	6311.33
427.586	6391.2
427.794	6800.79
428.001	7026.07
428.209	7259.54
428.417	7099.8
428.624	7595.4
428.832	7589.26
429.039	7648.65
429.247	7673.23
429.454	8301.95
429.662	8783.23
429.869	8088.96
430.076	8830.33
430.284	8547.71
430.491	8775.03
430.699	9663.85
430.906	9440.62
431.114	9692.52
431.321	9921.9
431.528	10151.27
431.736	10757.47
431.943	11160.92
432.15	10949.98
432.358	11189.59
432.565	11629.9
432.772	11468.11
432.979	12303.68
433.187	12553.54
433.394	12389.7
433.601	13235.51
433.808	13145.4
434.016	13116.73
434.223	13694.26
434.43	14648.61
434.637	14251.3
434.844	15385.88
435.052	15592.72
435.259	15486.23
435.466	15633.68
435.673	15385.88
435.88	16305.42
436.087	17300.73
436.294	17392.89
436.501	16839.94
436.708	17048.83
436.915	17753.33
437.122	18545.89
437.329	18539.75
437.537	18965.73
437.743	19522.77
437.95	19416.28
438.157	20384.97
438.364	20982.98
438.571	20862.15
438.778	21226.68
438.985	23000.23
439.192	22129.84
439.399	22676.65
439.606	22021.3
439.813	23422.11
440.02	24999.04
440.227	24724.61
440.433	24171.66
440.64	24941.7
440.847	24790.15
441.054	25625.72
441.261	26946.66
441.467	26586.22
441.674	27274.34
441.881	28396.62
442.088	28093.52
442.294	27434.08
442.501	28816.46
442.708	29197.38
442.914	30325.81
443.121	31634.46
443.328	30553.13
443.534	32902.15
443.741	31765.53
443.948	31767.58
444.154	33958.91
444.361	33616.9
444.568	33840.12
444.774	33750.01
444.981	34481.14
445.187	35159.02
445.394	36842.45
445.6	36275.16
445.807	39691.17
446.013	38114.23
446.22	38704.05
446.426	40356.76
446.633	40573.84
446.839	41603.97
447.046	40178.59
447.252	42306.43
447.459	42171.26
447.665	42218.36
447.871	43672.42
448.078	45894.47
448.284	43660.13
448.491	44725.08
448.697	46492.47
448.903	47244.08
449.11	47448.88
449.316	46895.92
449.522	47543.08
449.728	48438.04
449.935	48945.94
450.141	49318.67
450.347	50690.81
450.553	48517.92
450.76	49050.39
450.966	51182.32
451.172	50189.06
451.378	51362.54
451.584	50109.19
451.791	51831.53
451.997	51813.1
452.203	52443.87
452.409	52050.66
452.615	52122.34
452.821	50385.66
453.027	49871.62
453.233	52359.91
453.44	50010.88
453.646	50932.47
453.852	50606.84
454.058	51753.71
454.264	49804.04
454.47	51014.39
454.676	49896.2
454.882	51782.38
455.088	47207.22
455.294	48196.38
455.5	48804.63
455.705	49484.56
455.911	47352.62
456.117	46435.13
456.323	45681.48
456.529	43328.36
456.735	45155.15
456.941	44024.67
457.147	43621.22
457.352	41999.23
457.558	41747.33
457.764	41726.85
457.97	41089.93
458.176	40278.94
458.381	40207.26
458.587	38056.89
458.793	38300.6
458.999	36328.41
459.204	39031.72
459.41	37635.01
459.616	35124.2
459.821	35388.39
460.027	34835.44
460.233	34419.7
460.438	32705.55
460.644	33545.22
460.85	31591.45
461.055	31538.21
461.261	30983.21
461.466	28785.74
461.672	27929.69
461.878	29770.81
462.083	28003.41
462.289	27272.29
462.494	27155.55
462.7	25980.02
462.905	25078.91
463.111	26133.62
463.316	26201.2
463.522	25678.97
463.727	25975.92
463.932	25388.16
464.138	25222.27
464.343	25404.54
464.549	24403.08
464.754	25687.16
464.959	25185.41
465.165	25197.7
465.37	23786.65
465.575	23039.14
465.781	24243.34
465.986	24235.15
466.191	23315.61
466.397	23041.18
466.602	21822.64
466.807	22695.08
467.012	22475.95
467.218	22768.8
467.423	22564.01
467.628	22424.75
467.833	23350.43
468.038	22656.17
468.244	21603.51
468.449	22723.75
468.654	22082.74
468.859	21947.57
469.064	21408.95
469.269	20530.37
469.474	21023.94
469.679	21429.43
469.885	20479.18
470.09	20868.29
470.295	20696.26
470.5	20262.09
470.705	20245.71
470.91	19993.81
471.115	19584.21
471.32	20124.88
471.525	19743.95
471.73	19573.97
471.935	19516.63
472.139	18666.72
472.344	19086.56
472.549	18953.44
472.754	18808.03
472.959	18199.79
473.164	17775.86
473.369	17515.76
473.574	18263.27
473.778	18003.18
473.983	17843.44
474.188	17712.37
474.393	16817.41
474.598	16893.18
474.802	16854.27
475.007	16784.64
475.212	16868.61
475.417	16131.34
475.621	16213.26
475.826	16180.49
476.031	15938.83
476.235	15592.72
476.44	16225.54
476.645	15660.31
476.849	15586.58
477.054	15334.68
477.259	15117.59
477.463	15107.35
477.668	14736.67
477.872	15043.87
478.077	14599.46
478.282	14615.84
478.486	14243.11
478.691	14279.97
478.895	14163.24
479.1	14124.33
479.304	13970.73
479.509	13645.1
479.713	14064.94
479.918	13436.21
480.122	13452.59
480.326	13520.18
480.531	13552.95
480.735	13487.41
480.94	13497.65
481.144	13862.19
481.348	13235.51
481.553	13131.06
481.757	12983.61
481.961	12961.08
482.166	13372.72
482.37	13086.01
482.574	12940.6
482.778	12942.65
482.983	12952.89
483.187	12965.18
483.391	12942.65
483.595	13083.96
483.8	12555.58
484.004	12805.44
484.208	13053.24
484.412	13008.19
484.616	13032.76
484.821	12952.89
485.025	12791.1
485.229	12950.84
485.433	12879.16
485.637	12868.92
485.841	12942.65
486.045	12772.67
486.249	13006.14
486.453	12676.41
486.657	12936.51
486.861	13061.43
487.065	12619.07
487.269	12877.12
487.473	12479.81
487.677	12965.18
487.881	13081.91
488.085	12946.75
488.289	12813.63
488.493	12895.55
488.697	12989.75
488.901	12668.22
489.105	12936.51
489.309	13004.09
489.512	13030.71
489.716	12887.36
489.92	12938.55
490.124	12887.36
490.328	13501.75
490.531	13161.78
490.735	13292.85
490.939	13145.4
491.143	12954.94
491.346	12891.45
491.55	13126.97
491.754	13217.08
491.958	13411.64
492.161	13243.7
492.365	13503.79
492.569	13610.29
492.772	13217.08
492.976	13649.2
493.18	13690.16
493.383	13862.19
493.587	13888.81
493.79	14071.08
493.994	13894.96
494.197	13854
494.401	14066.99
494.605	14071.08
494.808	14492.96
495.012	14386.47
495.215	14153
495.419	14677.28
495.622	14365.99
495.825	14816.54
496.029	14581.03
496.232	14943.52
496.436	14935.32
496.639	15164.7
496.843	14884.12
497.046	15398.17
497.249	15535.38
497.453	15713.55
497.656	15832.33
497.859	15840.53
498.063	15811.85
498.266	16055.56
498.469	16203.02
498.673	16221.45
498.876	16608.51
499.079	16954.62
499.282	16663.81
499.485	17059.07
499.689	17274.1
499.892	17439.99
500.095	17396.98
500.298	17868.02
500.501	17769.71
500.705	18025.71
500.908	18306.28
501.111	18586.85
501.314	18482.41
501.517	18828.51
501.72	19006.69
501.923	19068.13
502.126	19150.04
502.329	19612.88
502.532	19666.13
502.735	20059.34
502.938	20348.11
503.141	20362.44
503.344	20790.47
503.547	20479.18
503.75	20870.34
503.953	21316.79
504.156	21558.46
504.359	21605.56
504.562	21441.72
504.765	22033.58
504.968	22156.46
505.17	22611.11
505.373	22709.41
505.576	23084.19
505.779	23241.89
505.982	23018.66
506.185	23602.33
506.387	23942.29
506.59	24108.18
506.793	24374.41
506.996	24532.11
507.198	24861.83
507.401	24974.47
507.604	25095.3
507.807	25805.94
508.009	25760.89
508.212	26055.79
508.415	26281.07
508.617	26655.85
508.82	26412.14
509.022	26645.61
509.225	27497.56
509.428	27264.1
509.63	27577.44
509.833	28025.94
510.035	28691.53
510.238	28458.06
510.44	28757.07
510.643	29490.24
510.845	29314.11
511.048	29740.09
511.25	29588.54
511.453	30235.7
511.655	30893.1
511.858	30360.62
512.06	30985.26
512.262	31083.56
512.465	31159.33
512.667	31945.75
512.87	32273.43
513.072	32218.13
513.274	32697.36
513.477	32939.02
513.679	33065.99
513.881	33586.18
514.084	33301.51
514.286	33465.35
514.488	34313.2
514.69	35218.41
514.893	35044.33
515.095	35134.44
515.297	35652.58
515.499	35288.04
515.701	35939.29
515.904	36635.6
516.106	36246.49
516.308	37129.16
516.51	37428.16
516.712	37581.76
516.914	37637.06
517.116	38339.51
517.318	38482.87
517.52	38943.66
517.722	38448.05
517.925	39015.34
518.127	39500.71
518.329	39689.12
518.531	39844.77
518.733	40500.12
518.935	40610.71
519.136	40430.49
519.338	41229.19
519.54	41425.8
519.742	41810.82
519.944	41849.73
520.146	42779.51
520.348	42240.89
520.55	42584.95
520.752	42752.88
520.954	43217.77
521.155	42935.15
521.357	43869.03
521.559	43991.9
521.761	44284.76
521.963	44411.74
522.164	44450.65
522.366	44526.42
522.568	44829.52
522.77	44901.2
522.971	45353.8
523.173	45632.33
523.375	45755.21
523.576	45669.19
523.778	46005.06
523.98	46607.16
524.181	46781.24
524.383	46203.71
524.584	46666.55
524.786	47070
524.988	46797.62
525.189	47350.57
525.391	47459.12
525.592	47352.62
525.794	47643.43
525.995	47782.69
526.197	47774.5
526.398	47766.31
526.6	47967.01
526.801	48145.19
527.003	48446.24
527.204	48304.93
527.406	48739.1
527.607	48298.78
527.808	48831.25
528.01	47815.46
528.211	48147.23
528.412	48978.71
528.614	48773.91
528.815	48962.32
529.016	49320.72
529.218	48925.46
529.419	48839.45
529.62	48864.02
529.822	49046.29
530.023	48790.3
530.224	48864.02
530.425	48638.75
530.626	48225.06
530.828	48182.05
531.029	49126.16
531.23	48831.25
531.431	48331.55
531.632	48843.54
531.833	48986.9
532.035	48487.2
532.236	48182.05
532.437	48706.33
532.638	48329.5
532.839	48616.22
533.04	48999.19
533.241	48325.41
533.442	48771.86
533.643	48446.24
533.844	48436
534.045	48345.89
534.246	47883.05
534.447	48296.74
534.648	47971.11
534.849	48233.25
535.05	47821.61
535.251	47979.3
535.451	47960.87
535.652	48169.76
535.853	47461.16
536.054	48272.16
536.255	48268.06
536.456	47321.9
536.657	48499.48
536.857	47608.62
537.058	47721.26
537.259	48102.18
537.46	48005.92
537.66	47668.01
537.861	47516.46
538.062	47311.66
538.263	48087.84
538.463	47348.53
538.664	47649.58
538.865	47743.78
539.065	47706.92
539.266	46912.31
539.466	47801.13
539.667	46603.06
539.868	47754.02
540.068	47127.34
540.269	46971.7
540.469	47182.64
540.67	47307.57
540.87	47108.91
541.071	46908.21
541.271	46998.32
541.472	46854.97
541.672	46732.09
541.873	46508.86
542.073	46353.21
542.274	47215.41
542.474	46848.82
542.675	46539.58
542.875	46719.8
543.075	46904.12
543.276	46093.12
543.476	47145.78
543.676	46504.76
543.877	46799.67
544.077	46187.33
544.277	46449.47
544.478	46250.81
544.678	46689.08
544.878	46832.44
545.078	46332.73
545.279	46484.28
545.479	46156.61
545.679	46435.13
545.879	46611.26
546.079	46396.22
546.28	46158.66
546.48	45957.95
546.68	46515
546.88	46019.39
547.08	46168.9
547.28	46205.76
547.48	46074.69
547.68	46449.47
547.88	46113.6
548.081	46312.25
548.281	46086.98
548.481	46078.78
548.681	46617.4
548.881	46236.48
549.081	46396.22
549.28	46068.55
549.48	46750.52
549.68	46330.69
549.88	46678.84
550.08	46060.35
550.28	46101.31
550.48	45781.83
550.68	46183.23
550.88	45943.62
551.08	46259.01
551.279	46240.57
551.479	45841.22
551.679	46189.38
551.879	45949.76
552.079	46459.71
552.278	46035.78
552.478	46562.11
552.678	46318.4
552.878	46609.21
553.077	45972.29
553.277	46086.98
553.477	47323.95
553.676	46246.72
553.876	46594.87
554.076	46598.97
554.275	46222.14
554.475	46222.14
554.674	46449.47
554.874	46418.75
555.074	46551.87
555.273	46373.69
555.473	46906.16
555.672	46635.83
555.872	46381.88
556.071	46490.43
556.271	47043.38
556.47	46455.61
556.67	46019.39
556.869	46445.37
557.068	46615.35
557.268	46308.16
557.467	46291.77
557.667	46543.67
557.866	46537.53
558.065	46465.85
558.265	46338.88
558.464	46289.73
558.663	46693.18
558.863	46347.07
559.062	46648.12
559.261	46340.92
559.461	46836.53
559.66	46103.36
559.859	46512.95
560.058	46373.69
560.258	46641.98
560.457	45579.08
560.656	46459.71
560.855	46177.09
561.054	46611.26
561.253	45873.99
561.453	46275.39
561.652	45953.86
561.851	46738.23
562.05	46279.49
562.249	46033.73
562.448	46408.51
562.647	45955.91
562.846	46101.31
563.045	45919.04
563.244	45781.83
563.443	46324.54
563.642	45638.47
563.841	45847.36
564.04	45953.86
564.239	45873.99
564.438	45849.41
564.637	46091.07
564.836	45972.29
565.035	45650.76
565.234	45939.52
565.432	45386.57
565.631	45390.67
565.83	45589.32
566.029	45529.93
566.228	45456.2
566.427	45685.57
566.625	45101.9
566.824	44432.22
567.023	45378.38
567.222	44686.17
567.42	45269.84
567.619	45374.28
567.818	44888.92
568.016	44677.97
568.215	45652.81
568.414	44626.78
568.612	45124.43
568.811	44596.06
569.01	44589.91
569.208	44432.22
569.407	44413.79
569.605	43944.8
569.804	44086.11
570.002	44247.9
570.201	44133.21
570.4	44417.88
570.598	43821.92
570.797	43740
570.995	43932.51
571.193	43277.16
571.392	43770.72
571.59	43277.16
571.789	43410.28
571.987	43551.59
572.186	43154.29
572.384	43133.81
572.582	43309.93
572.781	43154.29
572.979	42466.17
573.177	42652.53
573.376	42853.23
573.574	42404.73
573.772	42636.15
573.971	42400.63
574.169	42177.4
574.367	42308.47
574.565	41868.16
574.763	42206.08
574.962	42113.92
575.16	41309.07
575.358	42185.6
575.556	41421.7
575.754	41679.75
575.952	40782.74
576.151	41382.79
576.349	40942.48
576.547	41284.49
576.745	41468.81
576.943	41196.43
577.141	41061.26
577.339	41409.42
577.537	40758.16
577.735	40635.28
577.933	40377.24
578.131	40989.58
578.329	40145.82
578.527	39855.01
578.725	39644.07
578.923	39981.98
579.121	39777.19
579.319	39936.93
579.516	39775.14
579.714	39889.82
579.912	39558.05
580.11	39582.63
580.308	39445.41
580.506	39785.38
580.704	38775.73
580.901	39125.93
581.099	39230.38
581.297	38894.51
581.495	38720.43
581.692	39173.03
581.89	38564.79
582.088	38753.2
582.285	38568.88
582.483	38507.44
582.681	38482.87
582.878	38308.79
583.076	38290.36
583.274	38108.09
583.471	37776.32
583.669	37745.6
583.866	37215.18
584.064	37882.81
584.262	37411.78
584.459	37714.88
584.657	37372.87
584.854	37600.19
585.052	36813.77
585.249	37227.46
585.447	37020.62
585.644	36738
585.841	36930.51
586.039	37385.16
586.236	36508.63
586.434	36783.05
586.631	36701.14
586.828	36824.01
587.026	36690.9
587.223	36430.8
587.42	36027.35
587.618	36590.55
587.815	35976.16
588.012	36115.42
588.21	36107.23
588.407	36201.43
588.604	35785.69
588.801	35611.62
588.999	35554.27
589.196	35724.25
589.393	35752.93
589.59	35304.42
589.787	35210.21
589.984	34706.41
590.182	34919.4
590.379	35419.11
590.576	34857.96
590.773	34829.29
590.97	34669.55
591.167	34812.91
591.364	34888.68
591.561	34730.99
591.758	34307.06
591.955	34364.4
592.152	34604.02
592.349	34341.88
592.546	34470.9
592.743	34610.16
592.94	33817.6
593.137	34044.92
593.334	33999.87
593.531	33956.86
593.727	33942.52
593.924	34124.79
594.121	33745.92
594.318	33844.22
594.515	33278.98
594.712	33864.7
594.908	33412.1
595.105	33532.93
595.302	33074.18
595.499	33520.64
595.696	33391.62
595.892	33203.21
596.089	33473.54
596.286	33270.79
596.482	32979.98
596.679	33459.2
596.876	33123.33
597.072	32738.32
597.269	33020.94
597.466	32857.1
597.662	32926.73
597.859	32988.17
598.055	32805.9
598.252	32646.16
598.448	32883.72
598.645	32338.96
598.841	32513.04
599.038	32613.39
599.234	32650.25
599.431	32414.74
599.627	32547.86
599.824	32705.55
600.02	31992.86
600.217	32662.54
600.413	32304.15
600.609	32064.53
600.806	32635.92
601.002	32508.94
601.198	32580.62
601.395	32429.07
601.591	32412.69
601.787	32531.47
601.984	32412.69
602.18	32760.84
602.376	31859.74
602.572	31974.42
602.769	32205.84
602.965	31482.91
603.161	32300.05
603.357	31980.57
603.553	31996.95
603.75	32029.72
603.946	31687.71
604.142	32125.97
604.338	31892.51
604.534	32146.45
604.73	31515.68
604.926	31595.55
605.122	32162.84
605.318	31992.86
605.514	31980.57
605.71	31892.51
605.906	31656.99
606.102	31802.39
606.298	31900.7
606.494	31689.76
606.69	32322.58
606.886	31943.7
607.082	31896.6
607.278	32248.85
607.474	31507.49
607.67	32095.25
607.866	31644.7
608.062	32027.67
608.257	31994.9
608.453	32095.25
608.649	32056.34
608.845	31935.51
609.041	32011.29
609.236	32052.25
609.432	31908.89
609.628	32179.22
609.824	32025.62
610.019	32109.59
610.215	31958.04
610.411	32300.05
610.606	31964.18
610.802	32355.35
610.998	31880.22
611.193	32285.72
611.389	31982.62
611.584	32080.92
611.78	32035.86
611.976	32162.84
612.171	32148.5
612.367	32269.33
612.562	31980.57
612.758	31757.34
612.953	32140.31
613.149	32482.32
613.344	31859.74
613.539	32584.72
613.735	31939.61
613.93	32150.55
614.126	31878.17
614.321	32517.14
614.517	32125.97
614.712	31972.38
614.907	31716.38
615.103	32433.17
615.298	31970.33
615.493	32300.05
615.688	31994.9
615.884	32623.63
616.079	31740.96
616.274	32310.29
616.47	32142.36
616.665	32123.93
616.86	31851.55
617.055	31708.19
617.25	31843.35
617.445	32302.1
617.641	31779.87
617.836	32226.32
618.031	31554.59
618.226	32052.25
618.421	31484.96
618.616	31824.92
618.811	31319.07
619.006	31847.45
619.201	31112.23
619.396	31394.85
619.591	31183.91
619.786	31292.45
619.981	30460.98
620.176	31265.83
620.371	30872.62
620.566	31171.62
620.761	30745.64
620.956	30989.35
621.151	30327.86
621.346	30794.79
621.541	30256.18
621.735	30200.88
621.93	29834.3
622.125	29983.8
622.32	29373.5
622.515	29811.77
622.709	29680.7
622.904	29488.19
623.099	29152.32
623.294	29299.78
623.488	29152.32
623.683	28673.1
623.878	28918.85
624.072	28802.12
624.267	28638.28
624.462	28064.85
624.656	28034.13
624.851	28288.08
625.046	27907.16
625.24	27972.69
625.435	27851.86
625.629	27622.49
625.824	27800.66
626.018	27407.45
626.213	26934.37
626.407	27270.24
626.602	26936.42
626.796	27059.3
626.991	27053.16
627.185	26661.99
627.38	26604.65
627.574	26524.78
627.768	26276.98
627.963	26338.41
628.157	26092.66
628.352	26274.93
628.546	25685.11
628.74	25805.94
628.935	25769.08
629.129	25525.37
629.323	24972.42
629.517	25355.39
629.712	24931.46
629.906	25236.61
630.1	24382.6
630.294	24831.11
630.489	24489.1
630.683	24380.56
630.877	24300.69
631.071	24003.73
631.265	24349.84
631.459	23940.24
631.653	23829.65
631.848	23608.47
632.042	23739.54
632.236	23800.98
632.43	23065.76
632.624	23487.64
632.818	23143.58
633.012	22881.44
633.206	23112.86
633.4	22852.77
633.594	22475.95
633.788	22688.93
633.982	22287.53
634.176	22441.13
634.369	22297.77
634.563	22375.59
634.757	22090.93
634.951	22154.41
635.145	21871.79
635.339	21834.93
635.533	21583.03
635.726	21626.04
635.92	21198.01
636.114	21361.85
636.308	21142.72
636.501	21101.76
636.695	21046.46
636.889	20751.56
637.083	20862.15
637.276	20546.76
637.47	20489.42
637.664	20329.67
637.857	20470.98
638.051	20387.02
638.244	20186.32
638.438	19764.43
638.632	19762.39
638.825	19946.7
639.019	19842.26
639.212	19356.89
639.406	19490.01
639.599	19393.75
639.793	19336.41
639.986	18703.59
640.18	19088.6
640.373	18961.63
640.567	18754.79
640.76	18838.75
640.954	18539.75
641.147	18506.98
641.34	18361.58
641.534	18375.91
641.727	18232.55
641.92	18007.28
642.114	17915.12
642.307	17698.03
642.5	18015.47
642.694	17407.22
642.887	17489.14
643.08	17900.78
643.273	17229.05
643.467	17136.89
643.66	17073.4
643.853	17171.71
644.046	16807.17
644.239	17014.01
644.432	16860.41
644.626	16788.74
644.819	16528.64
645.012	16581.89
645.205	16278.79
645.398	16385.29
645.591	16196.87
645.784	15979.79
645.977	16008.46
646.17	15992.08
646.363	15795.47
646.556	15496.47
646.749	15527.19
646.942	15920.4
647.135	15586.58
647.328	15527.19
647.521	15279.38
647.714	14880.03
647.907	15125.79
648.099	14773.53
648.292	14982.43
648.485	14863.65
648.678	14507.3
648.871	14718.24
649.064	14296.36
649.256	14693.66
649.449	14378.28
649.642	14269.73
649.835	14337.32
650.027	14196.01
650.22	14173.48
650.413	14167.34
650.605	14204.2
650.798	13962.54
650.991	13839.66
651.183	13571.38
651.376	13487.41
651.568	13589.81
651.761	13219.13
651.954	13350.2
652.146	13393.2
652.339	13272.37
652.531	13063.48
652.724	13282.61
652.916	12787
653.109	13165.88
653.301	12854.59
653.494	12729.66
653.686	12678.46
653.879	12844.35
654.071	12789.05
654.263	12592.45
654.456	12588.35
654.648	12680.51
654.84	12125.51
655.033	12361.03
655.225	12301.64
655.417	12193.09
655.61	12174.66
655.802	12428.61
655.994	11830.6
656.186	11892.04
656.379	11818.32
656.571	11623.76
656.763	11617.61
656.955	11672.91
657.148	11543.89
657.34	11777.36
657.532	11427.15
657.724	11535.7
657.916	11365.71
658.108	11175.25
658.3	11212.12
658.492	11347.28
658.684	11079
658.876	11150.68
659.068	11181.4
659.26	10820.95
659.452	10773.85
659.644	10999.13
659.836	10614.11
660.028	10741.08
660.22	10685.79
660.412	10583.39
660.604	10454.37
660.796	10800.48
660.988	10225
661.18	10419.55
661.372	10085.73
661.563	10304.87
661.755	10071.4
661.947	10128.74
662.139	10075.49
662.331	10143.08
662.522	9854.31
662.714	9753.96
662.906	9702.76
663.097	9760.11
663.289	9504.11
663.481	9686.38
663.673	9694.57
663.864	9469.3
664.056	9516.4
664.247	9475.44
664.439	9299.31
664.631	9332.08
664.822	9350.51
665.014	9336.18
665.205	9307.51
665.397	8934.78
665.588	9186.68
665.78	8996.21
665.971	9020.79
666.163	9076.09
666.354	8807.8
666.546	8703.36
666.737	8703.36
666.929	8785.27
667.12	8689.02
667.311	8539.52
667.503	8619.39
667.694	8670.59
667.885	8394.11
668.077	8742.27
668.268	8553.85
668.459	8619.39
668.651	8209.79
668.842	8447.36
669.033	8140.16
669.224	8340.86
669.416	8494.46
669.607	8156.55
669.798	8097.16
669.989	8109.44
670.18	8048.01
670.371	7980.42
670.563	7865.74
670.754	8064.39
670.945	8021.38
671.136	7857.54
671.327	7792.01
671.518	7769.48
671.709	7826.82
671.9	8007.05
672.091	7714.19
672.282	7640.46
672.473	7544.2
672.664	7695.75
672.855	7521.68
673.046	7669.13
673.237	7554.44
673.428	7581.07
673.619	7628.17
673.809	7576.97
674	7556.49
674.191	7425.42
674.382	7353.74
674.573	7466.38
674.764	7497.1
674.954	7286.16
675.145	7052.69
675.336	7464.33
675.527	7351.7
675.717	7255.44
675.908	7134.61
676.099	7179.67
676.289	7140.76
676.48	7110.04
676.671	6841.75
676.861	7290.26
677.052	6983.06
677.243	6931.86
677.433	6854.04
677.624	6931.86
677.814	7024.02
678.005	6878.62
678.195	7081.36
678.386	6768.02
678.576	6702.49
678.767	6765.98
678.957	6776.22
679.148	6847.9
679.338	6858.14
679.529	6669.72
679.719	6780.31
679.909	6882.71
680.1	6784.41
680.29	6802.84
680.481	6561.18
680.671	6682.01
680.861	6665.63
681.052	6647.19
681.242	6714.78
681.432	6720.92
681.622	6563.23
681.813	6565.28
682.003	6514.08
682.193	6493.6
682.383	6651.29
682.573	6530.46
682.764	6512.03
682.954	6403.49
683.144	6499.74
683.334	6383.01
683.524	6563.23
683.714	6487.45
683.904	6579.61
684.094	6497.69
684.284	6483.36
684.474	6516.12
684.664	6376.86
684.854	6415.77
685.044	6194.59
685.234	6288.8
685.424	6432.16
685.614	6391.2
685.804	6200.74
685.994	6337.95
686.184	6227.36
686.374	6442.4
686.564	6108.58
686.753	6215.07
686.943	6178.21
687.133	6301.09
687.323	6139.3
687.513	6073.76
687.702	6071.72
687.892	6110.63
688.082	5985.7
688.272	5961.13
688.461	6059.43
688.651	6145.44
688.841	6120.87
689.03	6065.57
689.22	5989.8
689.41	5883.3
689.599	5887.4
689.789	5848.49
689.979	5721.51
690.168	5899.69
690.358	5836.2
690.547	5813.67
690.737	5875.11
690.926	5948.84
691.116	5612.97
691.305	5897.64
691.495	5651.88
691.684	5787.05
691.874	5606.83
692.063	5664.17
692.252	5641.64
692.442	5756.33
692.631	5453.23
692.82	5481.9
693.01	5588.39
693.199	5541.29
693.388	5533.1
693.578	5449.13
693.767	5567.92
693.956	5592.49
694.146	5490.09
694.335	5285.3
694.524	5322.16
694.713	5465.52
694.902	5268.91
695.092	5424.56
695.281	5383.6
695.47	5330.35
695.659	5303.73
695.848	5336.49
696.037	5238.19
696.226	5313.97
696.415	5328.3
696.604	5399.98
696.793	5203.38
696.982	5170.61
697.171	5246.38
697.36	5238.19
697.549	5160.37
697.738	5082.55
697.927	5152.18
698.116	5090.74
698.305	5213.62
698.494	5107.12
698.683	4959.67
698.872	4990.39
699.061	5117.36
699.25	4961.72
699.438	4857.27
699.627	5014.96
699.816	4851.13
700.005	5004.72
700.193	5043.64
700.382	4879.8
700.571	4967.86
700.76	4847.03
700.948	4941.24
701.137	4910.52
701.326	4924.85
701.514	4711.86
701.703	4853.17
701.892	4744.63
702.08	4875.7
702.269	4949.43
702.457	4728.25
702.646	4834.74
702.834	4687.29
703.023	4793.78
703.212	4928.95
703.4	4580.79
703.589	4672.95
703.777	4662.71
703.965	4658.62
704.154	4611.51
704.342	4699.58
704.531	4656.57
704.719	4566.46
704.907	4636.09
705.096	4658.62
705.284	4523.45
705.472	4486.59
705.661	4474.3
705.849	4533.69
706.037	4580.79
706.226	4502.97
706.414	4507.07
706.602	4498.88
706.79	4511.16
706.979	4402.62
707.167	4345.28
707.355	4490.68
707.543	4273.6
707.731	4414.91
707.919	4410.81
708.107	4392.38
708.296	4386.24
708.484	4238.78
708.672	4328.89
708.86	4279.74
709.048	4136.38
709.236	4187.58
709.424	4156.86
709.612	4154.82
709.8	4105.67
709.988	4130.24
710.176	4206.02
710.364	4109.76
710.551	4175.3
710.739	3966.4
710.927	4095.43
711.115	4163.01
711.303	4074.95
711.491	3964.36
711.679	4091.33
711.866	3986.88
712.054	4060.61
712.242	4066.75
712.43	3876.29
712.617	3935.68
712.805	3976.64
712.993	3927.49
713.181	4064.71
713.368	4009.41
713.556	3950.02
713.744	3802.57
713.931	3788.23
714.119	3890.63
714.306	3829.19
714.494	3859.91
714.682	3831.24
714.869	3689.93
715.057	3851.72
715.244	3876.29
715.432	3716.55
715.619	3794.37
715.807	3700.17
715.994	3810.76
716.182	3788.23
716.369	3737.03
716.556	3833.29
716.744	3716.55
716.931	3806.66
717.119	3659.21
717.306	3675.59
717.493	3558.86
717.681	3562.95
717.868	3638.73
718.055	3704.26
718.242	3704.26
718.43	3575.24
718.617	3509.71
718.804	3581.39
718.991	3667.4
719.179	3552.71
719.366	3454.41
719.553	3474.89
719.74	3444.17
719.927	3556.81
720.114	3343.82
720.301	3560.91
720.488	3378.64
720.676	3452.36
720.863	3397.07
721.05	3470.8
721.237	3483.08
721.424	3329.49
721.611	3354.06
721.798	3382.73
721.985	3206.61
722.172	3370.44
722.358	3253.71
722.545	3313.1
722.732	3446.22
722.919	3376.59
723.106	3335.63
723.293	3220.94
723.48	3290.57
723.667	3247.57
723.853	3380.68
724.04	3198.42
724.227	3337.68
724.414	3126.74
724.6	3167.7
724.787	3134.93
724.974	3220.94
725.161	3122.64
725.347	3149.26
725.534	3216.85
725.72	3245.52
725.907	3212.75
726.094	3241.42
726.28	3126.74
726.467	3059.15
726.653	3055.06
726.84	3038.67
727.027	3134.93
727.213	3012.05
727.4	3116.5
727.586	2917.84
727.773	2946.52
727.959	3059.15
728.145	3057.11
728.332	2999.76
728.518	3010
728.705	2995.67
728.891	2870.74
729.077	2981.33
729.264	2969.04
729.45	2971.09
729.636	2993.62
729.823	2893.27
730.009	2909.65
730.195	2942.42
730.382	2837.97
730.568	2872.79
730.754	2926.04
730.94	2835.92
731.126	2962.9
731.313	2966.99
731.499	2942.42
731.685	2846.16
731.871	2868.69
732.057	2899.41
732.243	2794.97
732.429	2696.66
732.615	2837.97
732.801	2829.78
732.987	2762.2
733.173	2909.65
733.359	2788.82
733.545	2788.82
733.731	2762.2
733.917	2749.91
734.103	2706.9
734.289	2602.46
734.475	2745.81
734.661	2848.21
734.847	2737.62
735.033	2696.66
735.219	2731.48
735.404	2659.8
735.59	2696.66
735.776	2706.9
735.962	2778.58
736.148	2754.01
736.333	2663.9
736.519	2674.14
736.705	2622.94
736.89	2651.61
737.076	2682.33
737.262	2727.38
737.447	2577.88
737.633	2534.87
737.819	2647.51
738.004	2661.85
738.19	2565.59
738.375	2573.78
738.561	2598.36
738.747	2586.07
738.932	2467.29
739.118	2657.75
739.303	2469.34
739.489	2565.59
739.674	2450.91
739.859	2467.29
740.045	2508.25
740.23	2491.87
740.416	2385.37
740.601	2389.47
740.786	2467.29
740.972	2391.52
741.157	2463.19
741.342	2430.43
741.528	2491.87
741.713	2487.77
741.898	2393.56
742.084	2407.9
742.269	2360.8
742.454	2442.71
742.639	2368.99
742.824	2280.93
743.01	2315.74
743.195	2426.33
743.38	2282.97
743.565	2303.45
743.75	2168.29
743.935	2143.71
744.12	2266.59
744.305	2127.33
744.49	2254.3
744.675	2172.38
744.86	2231.77
745.045	2256.35
745.23	2201.05
745.415	2215.39
745.6	2149.86
745.785	2237.92
745.97	2168.29
746.155	2000.35
746.34	2213.34
746.525	2053.6
746.71	2082.27
746.895	1912.29
747.079	1875.43
747.264	2029.03
747.449	2006.5
747.634	1992.16
747.819	2156
748.003	1904.1
748.188	1981.92
748.373	2106.85
748.557	1947.11
748.742	1934.82
748.927	1949.15
749.111	1918.43
749.296	1848.8
749.481	1861.09
749.665	1787.36
749.85	1857
750.034	1838.56
750.219	1852.9
750.404	1879.52
750.588	1828.32
750.773	1752.55
750.957	1725.93
751.141	1754.6
751.326	1795.56
751.51	1793.51
751.695	1754.6
751.879	1705.45
752.064	1631.72
752.248	1656.29
752.432	1705.45
752.617	1689.06
752.801	1760.74
752.985	1648.1
753.17	1672.68
753.354	1689.06
753.538	1740.26
753.722	1625.58
753.907	1588.71
754.091	1521.13
754.275	1547.75
754.459	1576.42
754.643	1574.38
754.828	1641.96
755.012	1510.89
755.196	1447.4
755.38	1492.46
755.564	1560.04
755.748	1576.42
755.932	1531.37
756.116	1502.7
756.3	1451.5
756.484	1488.36
756.668	1420.78
756.852	1293.8
757.036	1435.11
757.22	1453.55
757.404	1334.76
757.588	1447.4
757.772	1324.52
757.956	1381.87
758.14	1467.88
758.323	1291.76
758.507	1328.62
758.691	1240.56
758.875	1390.06
759.059	1418.73
759.242	1320.43
759.426	1293.8
759.61	1328.62
759.794	1254.89
759.977	1297.9
760.161	1396.2
760.345	1297.9
760.528	1175.02
760.712	1240.56
760.895	1195.5
761.079	1134.06
761.263	1240.56
761.446	1199.6
761.63	1209.84
761.813	1240.56
761.997	1170.93
762.18	1148.4
762.364	1209.84
762.547	1029.62
762.731	1197.55
762.914	1070.58
763.098	1166.83
763.281	1134.06
763.464	1148.4
763.648	1152.49
763.831	1140.21
764.015	1134.06
764.198	1197.55
764.381	1093.1
764.564	1168.88
764.748	1025.52
764.931	1107.44
765.114	1127.92
765.297	1129.97
765.481	1019.38
765.664	1148.4
765.847	1150.45
766.03	1107.44
766.213	996.85
766.397	1080.82
766.58	1115.63
766.763	1089.01
766.946	1058.29
767.129	1082.86
767.312	1078.77
767.495	1084.91
767.678	1007.09
767.861	1095.15
768.044	1084.91
768.227	1125.87
768.41	1056.24
768.593	1082.86
768.776	1064.43
768.959	1095.15
769.142	1017.33
769.324	892.4
769.507	1054.19
769.69	1007.09
769.873	931.31
770.056	1136.11
770.239	974.32
770.421	1011.18
770.604	1009.14
770.787	943.6
770.97	1005.04
771.152	953.84
771.335	976.37
771.518	869.87
771.7	976.37
771.883	919.03
772.066	886.26
772.248	908.79
772.431	921.07
772.613	904.69
772.796	869.87
772.978	861.68
773.161	882.16
773.343	890.35
773.526	808.44
773.708	790
773.891	859.63
774.073	902.64
774.256	718.33
774.438	873.97
774.621	959.99
774.803	781.81
774.985	783.86
775.168	820.72
775.35	726.52
775.532	871.92
775.715	757.24
775.897	800.24
776.079	777.72
776.261	837.11
776.444	796.15
776.626	804.34
776.808	755.19
776.99	757.24
777.173	847.35
777.355	835.06
777.537	777.72
777.719	722.42
777.901	738.8
778.083	755.19
778.265	841.2
778.447	779.76
778.629	699.89
778.811	714.23
778.993	701.94
779.175	742.9
779.357	712.18
779.539	726.52
779.721	755.19
779.903	650.74
780.085	607.73
780.267	798.2
780.449	677.37
780.631	681.46
780.812	607.73
780.994	693.75
781.176	620.02
781.358	701.94
781.54	656.89
781.721	677.37
781.903	589.3
782.085	644.6
782.267	708.09
782.448	536.06
782.63	509.43
782.812	675.32
782.993	644.6
783.175	601.59
783.357	519.67
783.538	642.55
783.72	601.59
783.901	585.21
784.083	560.63
784.264	534.01
784.446	454.14
784.627	450.04
784.809	507.38
784.99	503.29
785.172	529.91
785.353	529.91
785.535	554.49
785.716	511.48
785.897	568.82
786.079	511.48
786.26	478.71
786.441	407.03
786.623	529.91
786.804	447.99
786.985	413.18
787.167	511.48
787.348	517.62
787.529	470.52
787.71	486.9
787.891	501.24
788.073	484.86
788.254	513.53
788.435	435.71
788.616	464.38
788.797	329.21
788.978	431.61
789.159	335.35
789.34	519.67
789.522	443.9
789.703	435.71
789.884	470.52
790.065	419.32
790.246	468.47
790.427	411.13
790.607	447.99
790.788	409.08
790.969	390.65
791.15	402.94
791.331	419.32
791.512	464.38
791.693	370.17
791.874	402.94
792.054	423.42
792.235	372.22
792.416	284.16
792.597	329.21
792.778	439.8
792.958	443.9
793.139	372.22
793.32	361.98
793.5	290.3
793.681	423.42
793.862	419.32
794.042	345.59
794.223	298.49
794.404	380.41
794.584	394.75
794.765	325.12
794.945	247.29
795.126	386.55
795.306	374.27
795.487	329.21
795.667	331.26
795.848	361.98
796.028	411.13
796.209	380.41
796.389	321.02
796.57	306.68
796.75	314.88
796.93	247.29
797.111	318.97
797.291	312.83
797.471	196.09
797.652	265.72
797.832	308.73
798.012	282.11
798.192	257.53
798.373	239.1
798.553	345.59
798.733	388.6
798.913	296.44
799.093	265.72
799.274	321.02
799.454	284.16
799.634	275.96
799.814	282.11
799.994	312.83
800.174	306.68
800.354	284.16
800.534	222.72
800.714	282.11
800.894	230.91
801.074	247.29
801.254	294.4
801.434	280.06
801.614	230.91
801.794	230.91
801.974	933.36
802.154	275.96
802.334	251.39
802.514	222.72
802.693	198.14
802.873	224.76
803.053	312.83
803.233	282.11
803.413	321.02
803.592	312.83
803.772	214.52
803.952	151.04
804.131	122.37
804.311	214.52
804.491	261.63
804.67	226.81
804.85	226.81
805.03	243.2
805.209	263.68
805.389	224.76
805.568	235
805.748	263.68
805.928	280.06
806.107	296.44
806.287	267.77
806.466	200.19
806.646	194.05
806.825	280.06
807.004	206.33
807.184	159.23
807.363	249.34
807.543	200.19
807.722	214.52
807.901	235
808.081	280.06
808.26	251.39
808.439	198.14
808.619	206.33
808.798	228.86
808.977	142.85
809.156	208.38
809.336	251.39
809.515	253.44
809.694	167.42
809.873	161.28
810.052	294.4
810.231	206.33
810.411	173.57
810.59	165.37
810.769	142.85
810.948	232.96
811.127	206.33
811.306	165.37
811.485	148.99
811.664	241.15
811.843	77.31
812.022	183.81
812.201	126.46
812.38	124.41
812.559	189.95
812.737	202.24
812.916	167.42
813.095	151.04
813.274	198.14
813.453	91.65
813.632	148.99
813.811	263.68
813.989	157.18
814.168	140.8
814.347	126.46
814.526	173.57
814.704	218.62
814.883	239.1
815.062	146.94
815.24	165.37
815.419	153.09
815.598	200.19
815.776	157.18
815.955	122.37
816.133	118.27
816.312	142.85
816.49	81.41
816.669	153.09
816.847	112.13
817.026	140.8
817.204	95.74
817.383	108.03
817.561	71.17
817.74	185.85
817.918	103.93
818.097	189.95
818.275	169.47
818.453	177.66
818.632	181.76
818.81	138.75
818.988	122.37
819.167	200.19
819.345	189.95
819.523	173.57
819.701	26.11
819.879	77.31
820.058	151.04
820.236	108.03
820.414	95.74
820.592	126.46
820.77	91.65
820.948	138.75
821.127	93.69
821.305	103.93
821.483	159.23
821.661	124.41
821.839	138.75
822.017	134.65
822.195	112.13
822.373	192
822.551	24.06
822.729	148.99
822.907	116.22
823.085	118.27
823.262	173.57
823.44	159.23
823.618	91.65
823.796	187.9
823.974	120.32
824.152	114.17
824.329	114.17
824.507	124.41
824.685	89.6
824.863	124.41
825.04	89.6
825.218	159.23
825.396	108.03
825.574	124.41
825.751	140.8
825.929	146.94
826.107	38.4
826.284	62.98
826.462	99.84
826.639	134.65
826.817	28.16
826.994	77.31
827.172	60.93
827.349	173.57
827.527	71.17
827.704	132.61
827.882	118.27
828.059	85.5
828.237	89.6
828.414	144.89
828.591	42.5
828.769	58.88
828.946	69.12
829.124	241.15
829.301	120.32
829.478	48.64
829.655	95.74
829.833	60.93
830.01	71.17
830.187	99.84
830.364	58.88
830.542	91.65
830.719	93.69
830.896	101.89
831.073	95.74
831.25	67.07
831.427	173.57
831.604	79.36
831.782	3.58
831.959	134.65
832.136	112.13
832.313	116.22
832.49	97.79
832.667	26.11
832.844	71.17
833.021	128.51
833.198	38.4
833.374	114.17
833.551	130.56
833.728	79.36
833.905	91.65
834.082	24.06
834.259	36.35
834.436	140.8
834.612	99.84
834.789	151.04
834.966	52.74
835.143	163.33
835.319	26.11
835.496	46.59
835.673	50.69
835.85	91.65
836.026	54.78
836.203	75.26
836.38	42.5
836.556	140.8
836.733	50.69
836.909	159.23
837.086	9.73
837.262	67.07
837.439	34.3
837.616	54.78
837.792	50.69
837.968	114.17
838.145	26.11
838.321	128.51
838.498	28.16
838.674	58.88
838.851	58.88
839.027	89.6
839.203	26.11
839.38	87.55
839.556	91.65
839.732	108.03
839.909	58.88
840.085	159.23
840.261	-37.38
840.437	44.54
840.614	50.69
840.79	99.84
840.966	44.54
841.142	91.65
841.318	132.61
841.494	83.45
841.671	11.78
841.847	3.58
842.023	75.26
842.199	142.85
842.375	54.78
842.551	91.65
842.727	9.73
842.903	71.17
843.079	-45.57
843.255	30.21
843.431	50.69
843.607	34.3
843.783	-16.9
843.959	134.65
844.134	-6.66
844.31	71.17
844.486	116.22
844.662	93.69
844.838	15.87
845.013	26.11
845.189	58.88
845.365	30.21
845.541	114.17
845.716	-0.51
845.892	75.26
846.068	5.63
846.244	79.36
846.419	83.45
846.595	9.73
846.77	3.58
846.946	105.98
847.122	62.98
847.297	122.37
847.473	93.69
847.648	-23.04
847.824	-6.66
847.999	32.26
848.175	83.45
848.35	67.07
848.526	79.36
848.701	58.88
848.876	85.5
849.052	56.83
849.227	22.02
849.403	46.59
849.578	34.3
849.753	58.88
849.929	7.68
850.104	9.73
850.279	13.82
850.454	28.16
850.63	73.21
850.805	65.02
850.98	-2.56
851.155	19.97
851.33	5.63
851.505	13.82
851.681	120.32
851.856	11.78
852.031	58.88
852.206	62.98
852.381	28.16
852.556	1.54
852.731	132.61
852.906	69.12
853.081	71.17
853.256	97.79
853.431	93.69
853.606	17.92
853.781	-18.94
853.956	1.54
854.131	-57.86
854.305	-43.52
854.48	11.78
854.655	38.4
854.83	19.97
855.005	9.73
855.18	17.92
855.354	26.11
855.529	34.3
855.704	3.58
855.879	60.93
856.053	99.84
856.228	34.3
856.403	-23.04
856.577	22.02
856.752	-18.94
856.926	-29.18
857.101	99.84
857.276	19.97
857.45	58.88
857.625	58.88
857.799	-8.7
857.974	58.88
858.148	26.11
858.323	48.64
858.497	17.92
858.672	71.17
858.846	-35.33
859.02	44.54
859.195	-20.99
859.369	58.88
859.543	38.4
859.718	-23.04
859.892	7.68
860.066	17.92
860.241	-61.95
860.415	50.69
860.589	101.89
860.763	3.58
860.938	-4.61
861.112	11.78
861.286	5.63
861.46	40.45
861.634	69.12
861.808	38.4
861.982	-2.56
862.157	26.11
862.331	40.45
862.505	-12.8
862.679	-47.62
862.853	-4.61
863.027	-55.81
863.201	124.41
863.375	11.78
863.549	3.58
863.722	17.92
863.896	142.85
864.07	-18.94
864.244	24.06
864.418	44.54
864.592	5.63
864.766	-12.8
864.939	-0.51
865.113	13.82
865.287	38.4
865.461	-12.8
865.634	-31.23
865.808	-23.04
865.982	42.5
866.156	-90.62
866.329	-23.04
866.503	-31.23
866.676	36.35
866.85	69.12
867.024	11.78
867.197	54.78
867.371	3.58
867.544	11.78
867.718	1.54
867.891	3.58
868.065	32.26
868.238	-10.75
868.412	83.45
868.585	17.92
868.759	-14.85
868.932	-35.33
869.105	9.73
869.279	-20.99
869.452	-0.51
869.625	-39.42
869.799	-72.19
869.972	50.69
870.145	5.63
870.319	110.08
870.492	-23.04
870.665	-2.56
870.838	-80.38
871.011	-23.04
871.185	-16.9
871.358	-53.76
871.531	3.58
871.704	-10.75
871.877	42.5
872.05	3.58
872.223	-14.85
872.396	99.84
872.569	103.93
872.742	9.73
872.915	34.3
873.088	-41.47
873.261	28.16
873.434	30.21
873.607	26.11
873.78	52.74
873.953	85.5
874.126	-64
874.299	34.3
874.471	-27.14
874.644	17.92
874.817	62.98
874.99	73.21
875.163	-6.66
875.335	-37.38
875.508	11.78
875.681	67.07
875.853	1.54
876.026	5.63
876.199	-2.56
876.371	7.68
876.544	36.35
876.717	24.06
876.889	-18.94
877.062	13.82
877.234	7.68
877.407	-39.42
877.579	42.5
877.752	-51.71
877.924	91.65
878.097	-72.19
878.269	19.97
878.442	34.3
878.614	75.26
878.786	38.4
878.959	1.54
879.131	7.68
879.303	-74.24
879.476	-2.56
879.648	17.92
879.82	19.97
879.993	-12.8
880.165	9.73
880.337	-80.38
880.509	26.11
880.681	-8.7
880.854	-10.75
881.026	28.16
881.198	112.13
881.37	50.69
881.542	13.82
881.714	22.02
881.886	-4.61
882.058	34.3
882.23	34.3
882.402	-51.71
882.574	52.74
882.746	17.92
882.918	54.78
883.09	79.36
883.262	-4.61
883.434	44.54
883.606	-14.85
883.778	-2.56
883.95	95.74
884.122	-16.9
884.293	67.07
884.465	58.88
884.637	-10.75
884.809	-31.23
884.98	-80.38
885.152	15.87
885.324	56.83
885.496	-29.18
885.667	13.82
885.839	58.88
886.011	13.82
886.182	54.78
886.354	42.5
886.525	32.26
886.697	26.11
886.869	32.26
887.04	-14.85
887.212	-70.14
887.383	-6.66
887.555	11.78
887.726	-37.38
887.897	-8.7
888.069	34.3
888.24	-2.56
888.412	-104.96
888.583	-27.14
888.754	124.41
888.926	-61.95
889.097	-6.66
889.268	-43.52
889.44	-29.18
889.611	-78.33
889.782	3.58
889.953	-47.62
890.125	-51.71
890.296	7.68
890.467	1.54
890.638	9.73
890.809	9.73
890.98	-51.71
891.151	13.82
891.323	67.07
891.494	34.3
891.665	-53.76
891.836	-14.85
892.007	9.73
892.178	79.36
892.349	1.54
892.52	44.54
892.691	-18.94
892.862	-18.94
893.032	-23.04
893.203	-16.9
893.374	9.73
893.545	60.93
893.716	-16.9
893.887	32.26
894.057	-18.94
894.228	60.93
894.399	-92.67
894.57	-14.85
894.74	-25.09
894.911	-29.18
895.082	-39.42
895.253	-47.62
895.423	5.63
895.594	-6.66
895.764	38.4
895.935	-27.14
896.106	-35.33
896.276	-23.04
896.447	30.21
896.617	-29.18
896.788	-37.38
896.958	-33.28
897.129	-4.61
897.299	71.17
897.47	-2.56
897.64	-0.51
897.81	-68.09
897.981	71.17
898.151	-6.66
898.322	24.06
898.492	1.54
898.662	-4.61
898.832	-41.47
899.003	-51.71
899.173	-8.7
899.343	-78.33
899.513	24.06
