Data from USB4F104151__168__14-32-22-716.txt Node

Date: Thu Mar 13 14:32:22 EDT 2025
User: louis
Spectrometer: USB4F10415
Trigger mode: 4
Integration Time (sec): 2.500000E-2
Scans to average: 1
Electric dark correction enabled: true
Nonlinearity correction enabled: false
Boxcar width: 0
XAxis mode: Wavelengths
Number of Pixels in Spectrum: 3648
>>>>>Begin Spectral Data<<<<<
178.204	-119.98
178.424	-119.98
178.644	-119.98
178.864	-93.35
179.084	-130.22
179.304	39.76
179.524	13.14
179.744	-1.19
179.964	45.91
180.184	-13.48
180.404	-23.72
180.624	-48.3
180.844	0.85
181.064	-56.49
181.283	66.39
181.503	-42.15
181.723	19.29
181.943	-89.26
182.163	84.82
182.383	-1.19
182.602	-7.34
182.822	74.58
183.042	13.14
183.262	-31.91
183.482	23.38
183.701	-15.53
183.921	60.24
184.141	-17.58
184.361	78.68
184.58	35.67
184.8	54.1
185.02	2.9
185.239	41.81
185.459	11.09
185.679	2.9
185.898	-29.87
186.118	62.29
186.338	115.54
186.557	52.05
186.777	-52.39
186.997	-7.34
187.216	19.29
187.436	76.63
187.655	43.86
187.875	43.86
188.095	41.81
188.314	52.05
188.534	19.29
188.753	-23.72
188.973	25.43
189.192	74.58
189.412	41.81
189.631	29.52
189.851	9.05
190.07	29.52
190.29	-48.3
190.509	7
190.729	-70.83
190.948	111.44
191.168	131.92
191.387	17.24
191.607	27.48
191.826	54.1
192.045	47.96
192.265	-42.15
192.484	13.14
192.704	33.62
192.923	11.09
193.142	113.49
193.362	11.09
193.581	50
193.8	76.63
194.02	52.05
194.239	19.29
194.458	-3.24
194.678	-62.63
194.897	54.1
195.116	-40.11
195.335	25.43
195.555	84.82
195.774	-31.91
195.993	-27.82
196.212	-15.53
196.432	-21.67
196.651	-25.77
196.87	21.33
197.089	76.63
197.308	74.58
197.528	97.11
197.747	17.24
197.966	37.72
198.185	109.4
198.404	50
198.623	111.44
198.842	37.72
199.062	21.33
199.281	84.82
199.5	25.43
199.719	41.81
199.938	9.05
200.157	82.77
200.376	0.85
200.595	43.86
200.814	2.9
201.033	-64.68
201.252	31.57
201.471	-38.06
201.69	17.24
201.909	76.63
202.128	0.85
202.347	62.29
202.566	25.43
202.785	-89.26
203.004	29.52
203.223	109.4
203.442	84.82
203.661	35.67
203.879	101.2
204.098	74.58
204.317	35.67
204.536	29.52
204.755	-11.43
204.974	39.76
205.193	9.05
205.411	68.44
205.63	-23.72
205.849	2.9
206.068	-7.34
206.287	-46.25
206.505	50
206.724	9.05
206.943	76.63
207.162	7
207.381	52.05
207.599	27.48
207.818	29.52
208.037	33.62
208.255	50
208.474	66.39
208.693	62.29
208.911	0.85
209.13	35.67
209.349	17.24
209.567	37.72
209.786	19.29
210.005	13.14
210.223	66.39
210.442	-44.2
210.661	45.91
210.879	25.43
211.098	-1.19
211.316	60.24
211.535	148.31
211.753	11.09
211.972	58.2
212.191	21.33
212.409	31.57
212.628	33.62
212.846	88.92
213.065	52.05
213.283	21.33
213.502	-27.82
213.72	2.9
213.938	29.52
214.157	50
214.375	23.38
214.594	-21.67
214.812	56.15
215.031	-7.34
215.249	35.67
215.467	13.14
215.686	45.91
215.904	43.86
216.122	35.67
216.341	25.43
216.559	58.2
216.778	52.05
216.996	33.62
217.214	25.43
217.432	45.91
217.651	9.05
217.869	41.81
218.087	-60.59
218.306	41.81
218.524	107.35
218.742	84.82
218.96	-29.87
219.179	35.67
219.397	17.24
219.615	60.24
219.833	62.29
220.051	-31.91
220.27	68.44
220.488	103.25
220.706	-21.67
220.924	45.91
221.142	19.29
221.36	50
221.578	70.48
221.796	17.24
222.015	39.76
222.233	45.91
222.451	93.01
222.669	-3.24
222.887	25.43
223.105	-38.06
223.323	74.58
223.541	19.29
223.759	17.24
223.977	27.48
224.195	74.58
224.413	58.2
224.631	58.2
224.849	-21.67
225.067	115.54
225.285	-60.59
225.503	56.15
225.721	-62.63
225.939	72.53
226.157	-11.43
226.375	97.11
226.592	31.57
226.81	68.44
227.028	60.24
227.246	82.77
227.464	11.09
227.682	47.96
227.9	66.39
228.117	54.1
228.335	43.86
228.553	-11.43
228.771	95.06
228.989	90.96
229.206	11.09
229.424	-15.53
229.642	-19.63
229.86	33.62
230.077	90.96
230.295	0.85
230.513	17.24
230.731	17.24
230.948	-5.29
231.166	62.29
231.384	-13.48
231.601	74.58
231.819	142.16
232.037	-38.06
232.254	35.67
232.472	62.29
232.689	52.05
232.907	17.24
233.125	9.05
233.342	29.52
233.56	-44.2
233.777	31.57
233.995	-11.43
234.213	76.63
234.43	54.1
234.648	-31.91
234.865	43.86
235.083	29.52
235.3	-23.72
235.518	21.33
235.735	76.63
235.953	39.76
236.17	-7.34
236.388	-13.48
236.605	58.2
236.822	54.1
237.04	-46.25
237.257	9.05
237.475	0.85
237.692	64.34
237.909	41.81
238.127	-40.11
238.344	-5.29
238.562	52.05
238.779	-13.48
238.996	-48.3
239.214	45.91
239.431	4.95
239.648	9.05
239.865	27.48
240.083	45.91
240.3	50
240.517	11.09
240.735	15.19
240.952	107.35
241.169	68.44
241.386	62.29
241.603	2.9
241.821	-3.24
242.038	37.72
242.255	52.05
242.472	17.24
242.689	76.63
242.907	37.72
243.124	2.9
243.341	-3.24
243.558	86.87
243.775	66.39
243.992	9.05
244.209	68.44
244.426	84.82
244.643	60.24
244.86	-19.63
245.078	101.2
245.295	0.85
245.512	33.62
245.729	-19.63
245.946	54.1
246.163	62.29
246.38	-5.29
246.597	0.85
246.814	41.81
247.031	19.29
247.248	-7.34
247.464	-15.53
247.681	86.87
247.898	58.2
248.115	33.62
248.332	25.43
248.549	58.2
248.766	70.48
248.983	90.96
249.2	33.62
249.417	56.15
249.633	64.34
249.85	9.05
250.067	45.91
250.284	15.19
250.501	17.24
250.717	125.78
250.934	-3.24
251.151	-5.29
251.368	-7.34
251.585	-31.91
251.801	64.34
252.018	0.85
252.235	58.2
252.451	43.86
252.668	19.29
252.885	74.58
253.102	9.05
253.318	-64.68
253.535	74.58
253.752	50
253.968	0.85
254.185	78.68
254.401	58.2
254.618	-11.43
254.835	33.62
255.051	66.39
255.268	41.81
255.484	41.81
255.701	39.76
255.917	13.14
256.134	-15.53
256.351	54.1
256.567	17.24
256.784	43.86
257	-54.44
257.217	19.29
257.433	15.19
257.65	2.9
257.866	19.29
258.082	-3.24
258.299	17.24
258.515	-13.48
258.732	56.15
258.948	21.33
259.165	54.1
259.381	7
259.597	82.77
259.814	86.87
260.03	11.09
260.246	41.81
260.463	76.63
260.679	125.78
260.895	31.57
261.112	58.2
261.328	-7.34
261.544	-13.48
261.761	109.4
261.977	25.43
262.193	-72.87
262.409	0.85
262.626	-9.39
262.842	111.44
263.058	-7.34
263.274	41.81
263.49	74.58
263.707	95.06
263.923	-36.01
264.139	35.67
264.355	-29.87
264.571	76.63
264.787	66.39
265.004	33.62
265.22	25.43
265.436	82.77
265.652	-7.34
265.868	-31.91
266.084	-56.49
266.3	58.2
266.516	70.48
266.732	-5.29
266.948	84.82
267.164	39.76
267.38	86.87
267.596	82.77
267.812	17.24
268.028	62.29
268.244	-64.68
268.46	58.2
268.676	17.24
268.892	68.44
269.108	27.48
269.324	-60.59
269.54	-19.63
269.756	74.58
269.972	-27.82
270.188	-29.87
270.403	0.85
270.619	13.14
270.835	-13.48
271.051	54.1
271.267	0.85
271.483	25.43
271.698	23.38
271.914	39.76
272.13	50
272.346	70.48
272.562	-15.53
272.777	62.29
272.993	-3.24
273.209	74.58
273.425	21.33
273.64	2.9
273.856	68.44
274.072	68.44
274.287	31.57
274.503	17.24
274.719	41.81
274.934	45.91
275.15	-36.01
275.366	39.76
275.581	35.67
275.797	80.72
276.012	2.9
276.228	-3.24
276.444	33.62
276.659	17.24
276.875	-48.3
277.09	-3.24
277.306	-15.53
277.521	62.29
277.737	-52.39
277.952	74.58
278.168	2.9
278.383	-38.06
278.599	60.24
278.814	17.24
279.03	60.24
279.245	68.44
279.461	43.86
279.676	86.87
279.892	-46.25
280.107	0.85
280.322	107.35
280.538	50
280.753	9.05
280.969	-13.48
281.184	-5.29
281.399	17.24
281.615	64.34
281.83	74.58
282.045	-17.58
282.26	-33.96
282.476	-3.24
282.691	9.05
282.906	9.05
283.122	9.05
283.337	-23.72
283.552	80.72
283.767	-31.91
283.983	-7.34
284.198	21.33
284.413	99.16
284.628	11.09
284.843	52.05
285.058	19.29
285.274	29.52
285.489	-46.25
285.704	107.35
285.919	-23.72
286.134	-27.82
286.349	33.62
286.564	35.67
286.779	47.96
286.995	25.43
287.21	-9.39
287.425	2.9
287.64	-91.31
287.855	78.68
288.07	-5.29
288.285	23.38
288.5	25.43
288.715	76.63
288.93	-72.87
289.145	0.85
289.36	4.95
289.575	68.44
289.79	90.96
290.004	25.43
290.219	78.68
290.434	43.86
290.649	9.05
290.864	62.29
291.079	19.29
291.294	86.87
291.509	66.39
291.724	58.2
291.938	0.85
292.153	33.62
292.368	-70.83
292.583	21.33
292.798	33.62
293.012	115.54
293.227	-89.26
293.442	68.44
293.657	50
293.871	45.91
294.086	2.9
294.301	-15.53
294.516	17.24
294.73	84.82
294.945	-19.63
295.16	41.81
295.374	43.86
295.589	33.62
295.804	-56.49
296.018	58.2
296.233	-15.53
296.447	68.44
296.662	-21.67
296.877	58.2
297.091	50
297.306	35.67
297.52	11.09
297.735	62.29
297.949	50
298.164	68.44
298.378	50
298.593	74.58
298.807	27.48
299.022	41.81
299.236	66.39
299.451	29.52
299.665	-31.91
299.88	-36.01
300.094	-3.24
300.309	29.52
300.523	64.34
300.737	33.62
300.952	41.81
301.166	-13.48
301.381	-15.53
301.595	-7.34
301.809	39.76
302.024	47.96
302.238	21.33
302.452	82.77
302.667	-7.34
302.881	60.24
303.095	74.58
303.309	84.82
303.524	35.67
303.738	74.58
303.952	-27.82
304.166	-36.01
304.381	-56.49
304.595	74.58
304.809	-66.73
305.023	-15.53
305.237	2.9
305.452	78.68
305.666	52.05
305.88	99.16
306.094	23.38
306.308	50
306.522	-13.48
306.736	37.72
306.95	119.64
307.164	25.43
307.379	60.24
307.593	45.91
307.807	80.72
308.021	74.58
308.235	-7.34
308.449	-46.25
308.663	-15.53
308.877	82.77
309.091	76.63
309.305	-7.34
309.519	25.43
309.733	41.81
309.947	-48.3
310.161	86.87
310.374	0.85
310.588	58.2
310.802	2.9
311.016	-3.24
311.23	107.35
311.444	41.81
311.658	64.34
311.872	54.1
312.085	52.05
312.299	58.2
312.513	13.14
312.727	95.06
312.941	-44.2
313.154	-3.24
313.368	31.57
313.582	43.86
313.796	107.35
314.009	103.25
314.223	78.68
314.437	45.91
314.651	-23.72
314.864	41.81
315.078	-21.67
315.292	25.43
315.505	11.09
315.719	101.2
315.933	74.58
316.146	58.2
316.36	29.52
316.573	54.1
316.787	-1.19
317.001	-5.29
317.214	-23.72
317.428	7
317.641	74.58
317.855	13.14
318.068	4.95
318.282	7
318.495	68.44
318.709	58.2
318.922	-11.43
319.136	68.44
319.349	50
319.563	68.44
319.776	2.9
319.99	-7.34
320.203	105.3
320.417	9.05
320.63	80.72
320.843	21.33
321.057	31.57
321.27	25.43
321.483	21.33
321.697	58.2
321.91	-3.24
322.124	33.62
322.337	50
322.55	-5.29
322.763	0.85
322.977	-7.34
323.19	-11.43
323.403	-3.24
323.617	117.59
323.83	19.29
324.043	-56.49
324.256	70.48
324.469	50
324.683	76.63
324.896	43.86
325.109	127.83
325.322	11.09
325.535	88.92
325.748	29.52
325.962	52.05
326.175	97.11
326.388	-3.24
326.601	50
326.814	-13.48
327.027	-27.82
327.24	11.09
327.453	-52.39
327.666	4.95
327.879	47.96
328.092	41.81
328.305	54.1
328.518	21.33
328.731	99.16
328.944	9.05
329.157	78.68
329.37	27.48
329.583	82.77
329.796	142.16
330.009	-23.72
330.222	41.81
330.435	109.4
330.648	11.09
330.861	-11.43
331.073	-5.29
331.286	17.24
331.499	-5.29
331.712	-23.72
331.925	-40.11
332.138	9.05
332.35	66.39
332.563	33.62
332.776	90.96
332.989	-19.63
333.202	76.63
333.414	-23.72
333.627	11.09
333.84	35.67
334.053	78.68
334.265	68.44
334.478	33.62
334.691	35.67
334.903	37.72
335.116	11.09
335.329	21.33
335.541	29.52
335.754	88.92
335.966	33.62
336.179	25.43
336.392	-7.34
336.604	60.24
336.817	62.29
337.029	119.64
337.242	-23.72
337.454	17.24
337.667	33.62
337.88	74.58
338.092	-15.53
338.305	4.95
338.517	-48.3
338.729	9.05
338.942	90.96
339.154	45.91
339.367	37.72
339.579	33.62
339.792	17.24
340.004	82.77
340.217	2.9
340.429	82.77
340.641	-62.63
340.854	68.44
341.066	41.81
341.278	68.44
341.491	129.88
341.703	76.63
341.915	-40.11
342.128	13.14
342.34	76.63
342.552	-13.48
342.764	56.15
342.977	66.39
343.189	43.86
343.401	11.09
343.613	-23.72
343.826	78.68
344.038	13.14
344.25	78.68
344.462	23.38
344.674	88.92
344.886	58.2
345.099	52.05
345.311	82.77
345.523	-23.72
345.735	-11.43
345.947	31.57
346.159	25.43
346.371	27.48
346.583	52.05
346.795	37.72
347.007	37.72
347.219	105.3
347.431	-31.91
347.643	33.62
347.855	4.95
348.067	43.86
348.279	11.09
348.491	17.24
348.703	78.68
348.915	119.64
349.127	41.81
349.339	43.86
349.551	-7.34
349.763	37.72
349.975	17.24
350.187	107.35
350.399	41.81
350.61	33.62
350.822	17.24
351.034	86.87
351.246	-11.43
351.458	52.05
351.669	45.91
351.881	72.53
352.093	50
352.305	119.64
352.517	50
352.728	109.4
352.94	58.2
353.152	27.48
353.363	-3.24
353.575	45.91
353.787	82.77
353.999	50
354.21	119.64
354.422	45.91
354.633	72.53
354.845	33.62
355.057	45.91
355.268	-25.77
355.48	90.96
355.692	-19.63
355.903	37.72
356.115	-1.19
356.326	-62.63
356.538	115.54
356.749	41.81
356.961	33.62
357.172	13.14
357.384	9.05
357.595	170.83
357.807	43.86
358.018	-72.87
358.23	-9.39
358.441	58.2
358.653	164.69
358.864	25.43
359.075	-40.11
359.287	41.81
359.498	66.39
359.709	45.91
359.921	72.53
360.132	60.24
360.344	45.91
360.555	4.95
360.766	66.39
360.977	-9.39
361.189	52.05
361.4	-3.24
361.611	84.82
361.823	9.05
362.034	74.58
362.245	-7.34
362.456	2.9
362.667	66.39
362.879	33.62
363.09	54.1
363.301	84.82
363.512	66.39
363.723	78.68
363.935	35.67
364.146	17.24
364.357	-7.34
364.568	27.48
364.779	41.81
364.99	84.82
365.201	9.05
365.412	2.9
365.623	-40.11
365.834	52.05
366.045	52.05
366.256	25.43
366.467	-76.97
366.678	58.2
366.889	82.77
367.1	64.34
367.311	50
367.522	-17.58
367.733	88.92
367.944	25.43
368.155	45.91
368.366	19.29
368.577	74.58
368.788	68.44
368.999	-21.67
369.209	35.67
369.42	140.12
369.631	105.3
369.842	-13.48
370.053	25.43
370.264	123.73
370.474	37.72
370.685	58.2
370.896	62.29
371.107	21.33
371.317	99.16
371.528	21.33
371.739	99.16
371.95	41.81
372.16	41.81
372.371	-42.15
372.582	37.72
372.792	95.06
373.003	101.2
373.214	-50.35
373.424	13.14
373.635	-48.3
373.846	123.73
374.056	31.57
374.267	82.77
374.477	58.2
374.688	21.33
374.898	56.15
375.109	-5.29
375.319	33.62
375.53	52.05
375.74	58.2
375.951	9.05
376.161	47.96
376.372	99.16
376.582	43.86
376.793	72.53
377.003	17.24
377.214	17.24
377.424	0.85
377.635	76.63
377.845	25.43
378.055	119.64
378.266	-21.67
378.476	62.29
378.686	54.1
378.897	45.91
379.107	109.4
379.317	37.72
379.528	103.25
379.738	90.96
379.948	52.05
380.158	58.2
380.369	25.43
380.579	43.86
380.789	4.95
380.999	66.39
381.21	25.43
381.42	168.79
381.63	-25.77
381.84	66.39
382.05	17.24
382.261	97.11
382.471	66.39
382.681	43.86
382.891	82.77
383.101	109.4
383.311	-21.67
383.521	23.38
383.731	25.43
383.941	66.39
384.151	4.95
384.361	99.16
384.571	123.73
384.781	54.1
384.991	123.73
385.201	82.77
385.411	27.48
385.621	82.77
385.831	35.67
386.041	50
386.251	-46.25
386.461	131.92
386.671	27.48
386.881	60.24
387.091	0.85
387.301	72.53
387.511	74.58
387.72	50
387.93	50
388.14	-33.96
388.35	82.77
388.56	136.02
388.769	84.82
388.979	33.62
389.189	78.68
389.399	50
389.609	107.35
389.818	80.72
390.028	95.06
390.238	64.34
390.447	19.29
390.657	29.52
390.867	7
391.076	13.14
391.286	74.58
391.496	76.63
391.705	29.52
391.915	41.81
392.125	45.91
392.334	45.91
392.544	-13.48
392.753	90.96
392.963	33.62
393.172	39.76
393.382	33.62
393.591	58.2
393.801	43.86
394.01	115.54
394.22	45.91
394.429	33.62
394.639	25.43
394.848	66.39
395.058	7
395.267	66.39
395.477	138.07
395.686	43.86
395.895	191.31
396.105	99.16
396.314	11.09
396.524	76.63
396.733	72.53
396.942	97.11
397.152	90.96
397.361	97.11
397.57	90.96
397.78	90.96
397.989	107.35
398.198	80.72
398.407	35.67
398.617	27.48
398.826	101.2
399.035	68.44
399.244	117.59
399.453	99.16
399.663	232.27
399.872	117.59
400.081	86.87
400.29	52.05
400.499	27.48
400.708	166.74
400.917	131.92
401.127	33.62
401.336	47.96
401.545	78.68
401.754	154.45
401.963	41.81
402.172	121.68
402.381	76.63
402.59	140.12
402.799	164.69
403.008	158.55
403.217	172.88
403.426	138.07
403.635	103.25
403.844	183.12
404.053	213.84
404.262	111.44
404.471	156.5
404.68	156.5
404.888	183.12
405.097	88.92
405.306	222.03
405.515	107.35
405.724	86.87
405.933	170.83
406.142	88.92
406.35	209.75
406.559	158.55
406.768	168.79
406.977	207.7
407.185	150.36
407.394	168.79
407.603	172.88
407.812	181.07
408.02	262.99
408.229	199.51
408.438	181.07
408.646	197.46
408.855	160.59
409.064	322.38
409.272	191.31
409.481	273.23
409.69	291.66
409.898	273.23
410.107	332.62
410.315	344.91
410.524	295.76
410.733	275.28
410.941	283.47
411.15	383.82
411.358	373.58
411.567	385.87
411.775	303.95
411.984	381.78
412.192	459.6
412.401	361.3
412.609	396.11
412.818	475.98
413.026	504.65
413.234	445.26
413.443	406.35
413.651	502.61
413.86	506.7
414.068	508.75
414.276	664.4
414.485	557.9
414.693	672.59
414.901	684.87
415.11	629.58
415.318	674.64
415.526	623.44
415.734	715.59
415.943	748.36
416.151	664.4
416.359	752.46
416.567	717.64
416.776	836.42
416.984	863.05
417.192	838.47
417.4	805.71
417.608	942.92
417.817	883.53
418.025	963.4
418.233	1071.94
418.441	1024.84
418.649	942.92
418.857	1092.42
419.065	1211.2
419.273	1149.76
419.481	1233.73
419.689	1418.05
419.897	1411.9
420.105	1502.01
420.313	1434.43
420.521	1522.49
420.729	1516.35
420.937	1590.08
421.145	1620.8
421.353	1706.81
421.561	1749.82
421.769	1903.42
421.977	1884.98
422.185	1979.19
422.393	1950.52
422.601	2061.11
422.809	2018.1
423.017	2138.93
423.224	2237.24
423.432	2310.96
423.64	2335.54
423.848	2564.91
424.056	2474.8
424.263	2607.92
424.471	2599.73
424.679	2556.72
424.887	2738.99
425.094	2935.59
425.302	2908.97
425.51	3027.75
425.718	3150.63
425.925	3183.4
426.133	3255.08
426.341	3492.64
426.548	3392.29
426.756	3519.26
426.964	3613.47
427.171	3834.65
427.379	3855.13
427.586	3957.53
427.794	4098.84
428.001	4268.82
428.209	4557.58
428.417	4395.79
428.624	4655.89
428.832	4549.39
429.039	4694.8
429.247	4715.28
429.454	5137.16
429.662	5595.9
429.869	5153.54
430.076	5491.46
430.284	5284.61
430.491	5556.99
430.699	5696.25
430.906	5929.72
431.114	6013.69
431.321	5978.87
431.528	6138.62
431.736	6771.44
431.943	7029.48
432.15	6798.06
432.358	6787.82
432.565	7348.97
432.772	7119.59
432.979	7357.16
433.187	7602.91
433.394	7856.86
433.601	8286.93
433.808	8325.85
434.016	8157.91
434.223	8583.89
434.43	9102.03
434.637	8932.05
434.844	9405.13
435.052	9722.56
435.259	9628.35
435.466	9685.7
435.673	9704.13
435.88	10193.59
436.087	10863.28
436.294	10631.86
436.501	10365.62
436.708	10830.51
436.915	11025.07
437.122	11596.45
437.329	11422.38
437.537	11784.87
437.743	12155.55
437.95	11903.65
438.157	12728.98
438.364	12956.3
438.571	12788.37
438.778	12933.78
438.985	14477.94
439.192	13503.11
439.399	14127.74
439.606	13601.41
439.813	14463.61
440.02	15188.59
440.227	14991.98
440.433	14879.35
440.64	15448.68
440.847	15286.89
441.054	16015.97
441.261	16863.83
441.467	16282.2
441.674	16777.81
441.881	17654.34
442.088	17355.34
442.294	17365.58
442.501	17502.79
442.708	17885.76
442.914	18862.65
443.121	19429.93
443.328	18752.06
443.534	20396.57
443.741	19880.49
443.948	19501.61
444.154	20683.29
444.361	20947.48
444.568	20910.61
444.774	20806.17
444.981	21197.33
445.187	21592.59
445.394	22483.45
445.6	22153.73
445.807	24431.07
446.013	23200.24
446.22	23675.37
446.426	24674.78
446.633	25027.03
446.839	25276.88
447.046	24926.68
447.252	26151.37
447.459	25782.73
447.665	25858.51
447.871	27097.53
448.078	28375.46
448.284	26876.35
448.491	27607.47
448.697	28555.68
448.903	29241.75
449.11	29305.24
449.316	28744.09
449.522	29219.22
449.728	30269.83
449.935	30540.16
450.141	30249.35
450.347	31068.54
450.553	29985.16
450.76	30181.77
450.966	31498.61
451.172	31189.37
451.378	31914.35
451.584	31033.72
451.791	31912.3
451.997	32022.89
452.203	32428.39
452.409	32299.37
452.615	32067.95
452.821	30599.55
453.027	30495.11
453.233	32330.09
453.44	30939.52
453.646	31207.8
453.852	31531.38
454.058	32188.78
454.264	30736.77
454.47	31736.18
454.676	31084.92
454.882	31879.53
455.088	28993.95
455.294	29356.44
455.5	30155.15
455.705	30118.28
455.911	28774.81
456.117	28434.85
456.323	28111.27
456.529	26438.08
456.735	27615.66
456.941	27101.62
457.147	26780.09
457.352	25690.57
457.558	25551.31
457.764	25539.02
457.97	25156.05
458.176	24691.16
458.381	24343.01
458.587	23017.97
458.793	23251.44
458.999	21985.8
459.204	23896.55
459.41	23103.99
459.616	21334.54
459.821	21522.96
460.027	21246.48
460.233	20853.27
460.438	19915.3
460.644	20310.56
460.85	19362.35
461.055	18928.18
461.261	18926.13
461.466	17457.74
461.672	16650.84
461.878	18235.97
462.083	16919.12
462.289	16607.83
462.494	16339.55
462.7	15641.19
462.905	15352.43
463.111	15567.46
463.316	15864.42
463.522	15327.85
463.727	15407.72
463.932	15516.26
464.138	15075.95
464.343	15202.93
464.549	14930.55
464.754	15293.04
464.959	15276.65
465.165	15055.47
465.37	14557.82
465.575	14264.96
465.781	14500.47
465.986	14639.73
466.191	14252.67
466.397	13879.94
466.602	13181.58
466.807	13718.15
467.012	13703.81
467.218	13650.57
467.423	13378.19
467.628	13537.93
467.833	14160.51
468.038	13382.28
468.244	13171.34
468.449	13666.95
468.654	13220.49
468.859	12931.73
469.064	12944.02
469.269	12495.51
469.474	12528.28
469.679	12907.15
469.885	12489.37
470.09	12550.81
470.295	12546.71
470.5	12145.31
470.705	12466.84
470.91	12124.83
471.115	12108.44
471.32	12083.87
471.525	11938.46
471.73	11709.09
471.935	11553.45
472.139	11281.07
472.344	11457.19
472.549	11354.79
472.754	11281.07
472.959	11033.26
473.164	10855.09
473.369	10773.17
473.574	11104.94
473.778	10799.79
473.983	10795.7
474.188	10846.9
474.393	10373.82
474.598	10416.82
474.802	10298.04
475.007	10160.83
475.212	10371.77
475.417	9759.42
475.621	9755.33
475.826	9794.24
476.031	9661.12
476.235	9407.17
476.44	9716.42
476.645	9306.82
476.849	9530.05
477.054	9218.76
477.259	9147.08
477.463	9142.99
477.668	8907.47
477.872	9106.12
478.077	9061.07
478.282	8757.97
478.486	8774.35
478.691	8635.09
478.895	8610.51
479.1	8442.58
479.304	8547.03
479.509	8536.79
479.713	8585.94
479.918	8272.6
480.122	8135.39
480.326	8309.46
480.531	8284.89
480.735	8075.99
480.94	7899.87
481.144	8305.37
481.348	8084.19
481.553	8198.87
481.757	7867.1
481.961	8192.73
482.166	8080.09
482.37	8108.76
482.574	7901.92
482.778	8106.71
482.983	8172.25
483.187	7850.72
483.391	7867.1
483.595	7969.5
483.8	7711.46
484.004	7899.87
484.208	7994.08
484.412	7920.35
484.616	7971.55
484.821	7906.01
485.025	7787.23
485.229	7877.34
485.433	7959.26
485.637	7955.16
485.841	7815.9
486.045	7924.44
486.249	7826.14
486.453	7578.34
486.657	8022.75
486.861	7989.98
487.065	7881.44
487.269	7973.6
487.473	7768.8
487.677	7828.19
487.881	7897.82
488.085	7793.37
488.289	7930.59
488.493	7807.71
488.697	8090.33
488.901	8102.62
489.105	7865.05
489.309	7738.08
489.512	8041.18
489.716	8032.99
489.92	8104.67
490.124	7854.81
490.328	8090.33
490.531	7873.25
490.735	8016.6
490.939	7930.59
491.143	7998.17
491.346	8106.71
491.55	8137.43
491.754	7963.36
491.958	8147.67
492.161	8057.56
492.365	8368.85
492.569	8131.29
492.772	8245.98
492.976	8495.83
493.18	8147.67
493.383	8438.48
493.587	8678.1
493.79	8583.89
493.994	8323.8
494.197	8510.16
494.401	8614.61
494.605	8567.51
494.808	8565.46
495.012	8762.06
495.215	8790.74
495.419	8880.85
495.622	8659.67
495.825	8901.33
496.029	9018.06
496.232	8979.15
496.436	8872.65
496.639	9325.26
496.843	9241.29
497.046	9331.4
497.249	9540.29
497.453	9556.68
497.656	9554.63
497.859	9532.1
498.063	9792.19
498.266	9798.34
498.469	9906.88
498.673	9884.35
498.876	10101.44
499.079	10166.97
499.282	10255.03
499.485	10482.36
499.689	10465.97
499.892	10650.29
500.095	10617.52
500.298	10865.33
500.501	10595
500.705	11084.46
500.908	11172.52
501.111	11233.96
501.314	11252.39
501.517	11559.59
501.72	11561.64
501.923	11700.9
502.126	12049.05
502.329	12116.64
502.532	12036.77
502.735	12034.72
502.938	12145.31
503.141	12386.97
503.344	12444.31
503.547	12755.6
503.75	12774.03
503.953	13083.28
504.156	13042.32
504.359	13249.16
504.562	13171.34
504.765	13527.69
504.968	13585.03
505.17	13662.85
505.373	13685.38
505.576	13961.86
505.779	14240.38
505.982	13953.66
506.185	14500.47
506.387	14631.54
506.59	14531.19
506.793	14793.33
506.996	14971.5
507.198	15395.43
507.401	15166.06
507.604	15116.91
507.807	15831.65
508.009	15856.23
508.212	15784.55
508.415	15870.56
508.617	16226.91
508.82	16314.97
509.022	16282.2
509.225	16480.86
509.428	16732.76
509.63	16728.66
509.833	16835.16
510.035	17224.27
510.238	17410.64
510.44	17535.56
510.643	17455.69
510.845	17926.72
511.048	18045.51
511.25	18164.29
511.453	18152
511.655	19049.01
511.858	18399.8
512.06	18668.09
512.262	19092.02
512.465	18823.73
512.667	19188.27
512.87	19446.32
513.072	19591.72
513.274	19935.78
513.477	20193.83
513.679	20175.39
513.881	20498.97
514.084	20525.6
514.286	20466.21
514.488	20556.32
514.69	21279.25
514.893	21115.41
515.095	21408.27
515.297	21715.47
515.499	21953.03
515.701	22018.57
515.904	22249.99
516.106	22141.44
516.308	22475.26
516.51	22462.97
516.712	22864.38
516.914	23151.09
517.116	23235.06
517.318	23507.44
517.52	23450.1
517.722	23712.24
517.925	23890.41
518.127	23966.18
518.329	24525.28
518.531	24154.6
518.733	24609.25
518.935	24764.89
519.136	24910.3
519.338	25407.95
519.54	25260.5
519.742	25557.46
519.944	25407.95
520.146	25848.27
520.348	25907.66
520.55	26124.74
520.752	26120.65
520.954	26390.98
521.155	26493.38
521.357	26855.87
521.559	26739.13
521.761	27269.56
521.963	27290.04
522.164	27351.48
522.366	27507.12
522.568	27867.56
522.77	27697.58
522.971	28287.4
523.173	27705.77
523.375	27853.23
523.576	27756.97
523.778	28162.47
523.98	28465.57
524.181	28602.78
524.383	28590.5
524.584	28830.11
524.786	28582.31
524.988	28299.69
525.189	28932.51
525.391	29004.19
525.592	29096.35
525.794	29100.44
525.995	29237.66
526.197	29213.08
526.398	29424.02
526.6	29452.69
526.801	29278.61
527.003	29401.49
527.204	29630.87
527.406	29436.31
527.607	29819.28
527.808	29516.18
528.01	29147.54
528.211	29503.89
528.412	30091.66
528.614	29917.58
528.815	29837.71
529.016	29987.21
529.218	29913.48
529.419	29800.85
529.62	29784.46
529.822	29659.54
530.023	29864.33
530.224	29696.4
530.425	30128.52
530.626	29421.97
530.828	29628.82
531.029	29954.44
531.23	29680.02
531.431	29696.4
531.632	29716.88
531.833	29702.54
532.035	29845.9
532.236	29692.3
532.437	29686.16
532.638	29438.36
532.839	29770.13
533.04	30103.95
533.241	29467.03
533.442	30099.85
533.643	29516.18
533.844	29393.3
534.045	29251.99
534.246	29180.31
534.447	29655.44
534.648	29319.57
534.849	29243.8
535.05	29223.32
535.251	29141.4
535.451	29251.99
535.652	29129.11
535.853	29405.59
536.054	29125.02
536.255	29190.55
536.456	29057.43
536.657	29589.91
536.857	29100.44
537.058	28758.43
537.259	29194.65
537.46	28842.4
537.66	28897.69
537.861	29342.1
538.062	28881.31
538.263	29030.81
538.463	28924.32
538.664	28567.97
538.865	28649.89
539.065	29338.01
539.266	28467.62
539.466	28760.48
539.667	28567.97
539.868	29086.11
540.068	28619.17
540.269	28895.64
540.469	28522.91
540.67	28615.07
540.87	28352.93
541.071	28496.29
541.271	28453.28
541.472	28455.33
541.672	28348.84
541.873	28518.82
542.073	28250.53
542.274	28627.36
542.474	27990.44
542.675	28146.09
542.875	28750.24
543.075	28441
543.276	28000.68
543.476	28555.68
543.676	28383.65
543.877	28299.69
544.077	28316.07
544.277	28604.83
544.478	28002.73
544.678	28516.77
544.878	27926.96
545.078	28293.54
545.279	27953.58
545.479	28115.37
545.679	28281.25
545.879	28047.79
546.079	28283.3
546.28	27955.63
546.48	28172.71
546.68	28404.13
546.88	28402.08
547.08	28463.52
547.28	28211.62
547.48	27697.58
547.68	28250.53
547.88	28043.69
548.081	28316.07
548.281	28316.07
548.481	28324.26
548.681	28322.21
548.881	28547.49
549.081	28488.1
549.28	28080.55
549.48	28363.17
549.68	28299.69
549.88	28320.17
550.08	27996.59
550.28	28197.29
550.48	28395.94
550.68	28221.86
550.88	28289.45
551.08	28064.17
551.279	28535.2
551.479	28264.87
551.679	28350.88
551.879	28090.79
552.079	28473.76
552.278	28346.79
552.478	28365.22
552.678	28582.31
552.878	28514.72
553.077	28197.29
553.277	28185
553.477	28752.29
553.676	28344.74
553.876	28471.71
554.076	28307.88
554.275	28594.59
554.475	27816.36
554.674	28189.1
554.874	28699.04
555.074	28252.58
555.273	28424.61
555.473	28680.61
555.672	28539.3
555.872	28510.63
556.071	28840.35
556.271	28412.32
556.47	28537.25
556.67	28516.77
556.869	28559.78
557.068	28793.25
557.268	28467.62
557.467	28803.49
557.667	28443.04
557.866	28721.57
558.065	28572.07
558.265	28402.08
558.464	28991.9
558.663	28721.57
558.863	28283.3
559.062	29004.19
559.261	28443.04
559.461	28596.64
559.66	28068.27
559.859	28615.07
560.058	28555.68
560.258	28563.87
560.457	28314.02
560.656	28699.04
560.855	28459.43
561.054	28842.4
561.253	28201.38
561.453	28354.98
561.652	28742.05
561.851	28725.66
562.05	28496.29
562.249	28531.11
562.448	28527.01
562.647	28606.88
562.846	28361.12
563.045	28524.96
563.244	28264.87
563.443	28504.48
563.642	27988.39
563.841	28522.91
564.04	28371.36
564.239	28641.7
564.438	28223.91
564.637	28438.95
564.836	28199.34
565.035	27965.87
565.234	28660.13
565.432	28086.7
565.631	28172.71
565.83	28217.77
566.029	27863.47
566.228	27914.67
566.427	27986.35
566.625	27627.95
566.824	27404.72
567.023	28002.73
567.222	27603.38
567.42	27857.32
567.619	27711.92
567.818	27517.36
568.016	27400.63
568.215	27859.37
568.414	27466.16
568.612	27693.49
568.811	27716.01
569.01	27740.59
569.208	27306.42
569.407	27566.51
569.605	27595.18
569.804	27806.13
570.002	27005.37
570.201	26880.44
570.4	26988.99
570.598	26644.93
570.797	26765.76
570.995	27007.42
571.193	26612.16
571.392	26902.97
571.59	26620.35
571.789	26618.3
571.987	26638.78
572.186	26804.67
572.384	26491.33
572.582	26638.78
572.781	26577.34
572.979	26302.92
573.177	26452.42
573.376	26587.58
573.574	26108.36
573.772	26612.16
573.971	25856.46
574.169	25915.85
574.367	25592.27
574.565	25663.95
574.763	25973.19
574.962	25819.6
575.16	25518.54
575.358	25938.38
575.556	25117.14
575.754	25657.81
575.952	24981.98
576.151	25627.09
576.349	25301.46
576.547	25350.61
576.745	25242.07
576.943	25018.84
577.141	24826.33
577.339	25145.81
577.537	25065.94
577.735	24912.35
577.933	24525.28
578.131	24859.1
578.329	24609.25
578.527	24625.63
578.725	24547.81
578.923	24635.87
579.121	24250.85
579.319	24371.68
579.516	24418.78
579.714	24293.86
579.912	23835.11
580.11	23904.74
580.308	24089.06
580.506	24177.12
580.704	23437.81
580.901	23740.91
581.099	23906.79
581.297	23495.15
581.495	23583.21
581.692	23779.82
581.89	23341.55
582.088	23882.22
582.285	23572.97
582.483	23433.71
582.681	23476.72
582.878	23138.8
583.076	22874.62
583.274	23368.18
583.471	23124.47
583.669	22923.77
583.866	22766.07
584.064	23316.98
584.262	22583.8
584.459	23034.36
584.657	22872.57
584.854	23073.27
585.052	22413.82
585.249	22612.48
585.447	22448.64
585.644	22346.24
585.841	22475.26
586.039	22757.88
586.236	21950.98
586.434	22141.44
586.631	22188.55
586.828	22186.5
587.026	22268.42
587.223	22233.6
587.42	22270.47
587.618	22249.99
587.815	22018.57
588.012	21793.29
588.21	21770.76
588.407	21768.71
588.604	21676.55
588.801	21391.89
588.999	21486.09
589.196	21666.31
589.393	21559.82
589.59	21615.12
589.787	21512.72
589.984	21588.49
590.182	21295.63
590.379	21391.89
590.576	21322.26
590.773	21467.66
590.97	21074.45
591.167	21244.43
591.364	21213.71
591.561	21197.33
591.758	21107.22
591.955	20607.51
592.152	21023.25
592.349	20711.96
592.546	21080.6
592.743	21074.45
592.94	20433.44
593.137	20701.72
593.334	20621.85
593.531	20451.87
593.727	20740.63
593.924	20808.22
594.121	20259.36
594.318	20773.4
594.515	20322.85
594.712	20836.89
594.908	20660.76
595.105	20752.92
595.302	20541.98
595.499	20550.17
595.696	20578.84
595.892	20509.21
596.089	20511.26
596.286	20214.3
596.482	20167.2
596.679	20425.25
596.876	20570.65
597.072	20277.79
597.269	20367.9
597.466	20189.73
597.662	20185.63
597.859	20245.02
598.055	20333.09
598.252	19943.97
598.448	19821.09
598.645	20183.59
598.841	19874.34
599.038	19876.39
599.234	20298.27
599.431	19857.96
599.627	19874.34
599.824	20281.89
600.02	20054.56
600.217	20066.85
600.413	19931.69
600.609	20318.75
600.806	19980.84
601.002	20271.65
601.198	19935.78
601.395	19962.4
601.591	19812.9
601.787	19763.75
601.984	20128.29
602.18	20064.8
602.376	19778.09
602.572	19978.79
602.769	19980.84
602.965	19743.27
603.161	20093.47
603.357	19984.93
603.553	19970.6
603.75	20259.36
603.946	19974.69
604.142	20107.81
604.338	19755.56
604.534	20093.47
604.73	19952.16
604.926	20302.37
605.122	20077.09
605.318	19860.01
605.514	19954.21
605.71	20040.23
605.906	20130.34
606.102	20144.67
606.298	20120.1
606.494	20081.19
606.69	19997.22
606.886	20298.27
607.082	19958.31
607.278	20191.78
607.474	19792.42
607.67	20255.26
607.866	19864.1
608.062	20591.13
608.257	20165.15
608.453	20167.2
608.649	20376.09
608.845	20073
609.041	20335.14
609.236	20339.23
609.432	20597.28
609.628	20623.9
609.824	20242.98
610.019	20070.95
610.215	20349.47
610.411	20879.89
610.606	20435.49
610.802	20447.77
610.998	20345.37
611.193	20535.84
611.389	20429.34
611.584	20695.58
611.78	20324.9
611.976	20443.68
612.171	20460.06
612.367	20361.76
612.562	20357.66
612.758	20179.49
612.953	20236.83
613.149	20492.83
613.344	20230.69
613.539	20814.36
613.735	20511.26
613.93	20386.33
614.126	20437.53
614.321	21084.69
614.517	20501.02
614.712	20564.51
614.907	20238.88
615.103	20410.91
615.298	20255.26
615.493	20623.9
615.688	20290.08
615.884	20834.84
616.079	20316.7
616.274	20501.02
616.47	20582.94
616.665	20609.56
616.86	20337.18
617.055	20724.25
617.25	20417.05
617.445	20378.14
617.641	20298.27
617.836	20236.83
618.031	20148.77
618.226	20322.85
618.421	20390.43
618.616	20484.64
618.811	20013.6
619.006	20195.87
619.201	20146.72
619.396	20122.15
619.591	19929.64
619.786	20316.7
619.981	19491.37
620.176	20073
620.371	19747.37
620.566	19767.85
620.761	19638.83
620.956	19864.1
621.151	19530.28
621.346	19388.97
621.541	19393.07
621.735	19481.13
621.93	19403.31
622.125	19221.04
622.32	18928.18
622.515	18745.91
622.709	19206.7
622.904	19055.15
623.099	18866.74
623.294	18731.58
623.488	18647.61
623.683	18797.11
623.878	18213.44
624.072	18461.24
624.267	18219.58
624.462	18481.72
624.656	18326.08
624.851	18121.28
625.046	18047.55
625.24	17977.92
625.435	17922.63
625.629	17746.5
625.824	17850.95
626.018	17732.17
626.213	17478.22
626.407	17531.47
626.602	17009.23
626.796	17138.26
626.991	17121.87
627.185	17293.9
627.38	17080.91
627.574	16876.12
627.768	16974.42
627.963	16812.63
628.157	16749.14
628.352	16503.39
628.546	16626.26
628.74	16636.5
628.935	16251.49
629.129	16575.06
629.323	16386.65
629.517	16222.81
629.712	16151.13
629.906	16054.88
630.1	15721.06
630.294	16032.35
630.489	15790.69
630.683	15811.17
630.877	15475.31
631.071	15450.73
631.265	15653.48
631.459	15479.4
631.653	15284.84
631.848	15278.7
632.042	15254.12
632.236	15211.12
632.43	14932.59
632.624	15053.42
632.818	14795.38
633.012	14682.74
633.206	14772.85
633.4	14936.69
633.594	14330.49
633.788	14666.36
633.982	14557.82
634.176	14598.77
634.369	14131.84
634.563	14099.07
634.757	14248.57
634.951	14271.1
635.145	14113.41
635.339	14109.31
635.533	13937.28
635.726	13853.31
635.92	13709.96
636.114	13689.48
636.308	13677.19
636.501	13732.48
636.695	13611.65
636.889	13476.49
637.083	13271.69
637.276	13365.9
637.47	13171.34
637.664	13111.95
637.857	12982.93
638.051	13083.28
638.244	12960.4
638.438	12890.77
638.632	12870.29
638.825	12733.08
639.019	12802.71
639.212	12577.43
639.406	12602.01
639.599	12257.95
639.793	12384.92
639.986	12374.68
640.18	12290.71
640.373	12350.1
640.567	12012.19
640.76	11877.02
640.954	11926.18
641.147	11733.67
641.34	11889.31
641.534	11725.47
641.727	11817.63
641.92	11854.5
642.114	11598.5
642.307	11512.49
642.5	11510.44
642.694	11307.69
642.887	11391.66
643.08	11293.35
643.273	10859.18
643.467	11123.37
643.66	11055.79
643.853	10900.14
644.046	10838.7
644.239	10764.98
644.432	10871.47
644.626	10734.26
644.819	10629.81
645.012	10568.37
645.205	10541.75
645.398	10459.83
645.591	10392.25
645.784	10369.72
645.977	10269.37
646.17	10240.7
646.363	10189.5
646.556	10062.52
646.749	10093.24
646.942	10031.8
647.135	9822.91
647.328	9724.61
647.521	9757.38
647.714	9695.94
647.907	9560.77
648.099	9589.44
648.292	9652.93
648.485	9470.66
648.678	9444.04
648.871	9521.86
649.064	9390.79
649.256	9355.97
649.449	9282.25
649.642	9245.38
649.835	9052.88
650.027	9069.26
650.22	9046.73
650.413	9054.92
650.605	8950.48
650.798	8958.67
650.991	8956.62
651.183	8942.28
651.376	8823.5
651.568	8641.23
651.761	8604.37
651.954	8782.54
652.146	8372.95
652.339	8760.02
652.531	8524.5
652.724	8442.58
652.916	8360.66
653.109	8278.74
653.301	8356.57
653.494	8323.8
653.686	8127.19
653.879	8432.34
654.071	8055.51
654.263	8026.84
654.456	8225.5
654.648	8006.36
654.84	7951.07
655.033	7975.64
655.225	8075.99
655.417	7860.96
655.61	7848.67
655.802	7756.51
655.994	7791.33
656.186	7686.88
656.379	7604.96
656.571	7586.53
656.763	7455.46
656.955	7398.12
657.148	7488.23
657.34	7359.21
657.532	7297.77
657.724	7217.9
657.916	7291.62
658.108	7226.09
658.3	7215.85
658.492	7170.79
658.684	7205.61
658.876	7084.78
659.068	7224.04
659.26	7244.52
659.452	7142.12
659.644	6996.71
659.836	6843.12
660.028	6906.6
660.22	6847.21
660.412	6777.58
660.604	6845.16
660.796	6718.19
660.988	6744.81
661.18	6570.74
661.372	6587.12
661.563	6609.65
661.755	6572.79
661.947	6554.35
662.139	6451.95
662.331	6476.53
662.522	6320.88
662.714	6482.67
662.906	6220.53
663.097	6398.71
663.289	6120.18
663.481	6320.88
663.673	6234.87
663.864	6136.57
664.056	6087.42
664.247	5927.67
664.439	6095.61
664.631	5948.15
664.822	5864.19
665.014	6099.7
665.205	6042.36
665.397	5884.67
665.588	5964.54
665.78	5800.7
665.971	5980.92
666.163	5823.23
666.354	5860.09
666.546	5712.64
666.737	5686.01
666.929	5565.18
667.12	5608.19
667.311	5647.1
667.503	5628.67
667.694	5626.62
667.885	5612.29
668.077	5677.82
668.268	5415.68
668.459	5284.61
668.651	5505.79
668.842	5374.72
669.033	5374.72
669.224	5321.48
669.416	5448.45
669.607	5391.11
669.798	5137.16
669.989	5341.96
670.18	5272.32
670.371	5171.97
670.563	5122.82
670.754	5128.97
670.945	5182.21
671.136	5196.55
671.327	5079.82
671.518	5055.24
671.709	5038.86
671.9	5309.19
672.091	5212.93
672.282	5030.66
672.473	5030.66
672.664	5038.86
672.855	4844.3
673.046	5030.66
673.237	4965.13
673.428	5026.57
673.619	4915.98
673.809	4981.51
674	4846.35
674.191	4860.68
674.382	4743.95
674.573	4907.79
674.764	4793.1
674.954	4809.48
675.145	4727.57
675.336	4672.27
675.527	4641.55
675.717	4780.81
675.908	4588.3
676.099	4510.48
676.289	4649.74
676.48	4541.2
676.671	4580.11
676.861	4647.69
677.052	4653.84
677.243	4516.62
677.433	4600.59
677.624	4508.43
677.814	4516.62
678.005	4649.74
678.195	4647.69
678.386	4535.06
678.576	4512.53
678.767	4518.67
678.957	4547.34
679.148	4553.49
679.338	4473.62
679.529	4479.76
679.719	4412.18
679.909	4490
680.1	4530.96
680.29	4416.27
680.481	4270.87
680.671	4621.07
680.861	4530.96
681.052	4422.42
681.242	4344.6
681.432	4440.85
681.622	4322.07
681.813	4287.25
682.003	4403.99
682.193	4295.44
682.383	4350.74
682.573	4285.2
682.764	4338.45
682.954	4389.65
683.144	4385.55
683.334	4379.41
683.524	4182.81
683.714	4281.11
683.904	4317.97
684.094	4213.53
684.284	4252.44
684.474	4313.88
684.664	4313.88
684.854	4244.24
685.044	4238.1
685.234	4336.4
685.424	4293.4
685.614	4223.76
685.804	4219.67
685.994	4170.52
686.184	4191
686.374	4227.86
686.564	4203.29
686.753	4229.91
686.943	4131.61
687.133	4131.61
687.323	4006.68
687.513	4152.09
687.702	4049.69
687.892	4104.98
688.082	3998.49
688.272	3935
688.461	4125.46
688.651	4023.06
688.841	3975.96
689.03	4033.3
689.22	3801.88
689.41	3975.96
689.599	3871.51
689.789	4008.73
689.979	3916.57
690.168	3941.15
690.358	3867.42
690.547	3797.79
690.737	3787.55
690.926	3777.31
691.116	3930.91
691.305	3846.94
691.495	3752.73
691.684	3744.54
691.874	3701.53
692.063	3738.4
692.252	3717.92
692.442	3705.63
692.631	3758.88
692.82	3736.35
693.01	3660.57
693.199	3695.39
693.388	3580.7
693.578	3570.46
693.767	3652.38
693.956	3556.13
694.146	3549.98
694.335	3599.13
694.524	3654.43
694.713	3726.11
694.902	3463.97
695.092	3541.79
695.281	3517.22
695.47	3566.37
695.659	3582.75
695.848	3367.71
696.037	3484.45
696.226	3572.51
696.415	3525.41
696.604	3525.41
696.793	3523.36
696.982	3506.98
697.171	3429.15
697.36	3470.11
697.549	3353.38
697.738	3380
697.927	3441.44
698.116	3398.43
698.305	3359.52
698.494	3453.73
698.683	3339.04
698.872	3330.85
699.061	3261.22
699.25	3320.61
699.438	3304.23
699.627	3355.43
699.816	3322.66
700.005	3296.04
700.193	3244.84
700.382	3216.16
700.571	3330.85
700.76	3380
700.948	3195.68
701.137	3193.64
701.326	3234.6
701.514	3191.59
701.703	3236.64
701.892	3105.57
702.08	3300.13
702.269	3124.01
702.457	3023.66
702.646	3224.36
702.834	3052.33
703.023	3183.4
703.212	3066.66
703.4	3056.42
703.589	3107.62
703.777	3126.05
703.965	3162.92
704.154	3044.13
704.342	3064.61
704.531	2845.48
704.719	2937.64
704.907	3058.47
705.096	2931.5
705.284	2935.59
705.472	2900.78
705.661	2935.59
705.849	2980.65
706.037	2933.54
706.226	2949.93
706.414	3048.23
706.602	2818.86
706.79	2904.87
706.979	2966.31
707.167	2935.59
707.355	2781.99
707.543	2857.77
707.731	2966.31
707.919	2831.15
708.107	2700.08
708.296	2798.38
708.484	2743.08
708.672	2861.87
708.86	2810.67
709.048	2798.38
709.236	2827.05
709.424	2831.15
709.612	2720.56
709.8	2681.64
709.988	2540.33
710.176	2837.29
710.364	2802.47
710.551	2667.31
710.739	2646.83
710.927	2716.46
711.115	2687.79
711.303	2673.45
711.491	2677.55
711.679	2597.68
711.866	2661.16
712.054	2591.53
712.242	2650.92
712.43	2626.35
712.617	2585.39
712.805	2601.77
712.993	2515.76
713.181	2607.92
713.368	2607.92
713.556	2695.98
713.744	2530.09
713.931	2618.16
714.119	2601.77
714.306	2466.61
714.494	2558.77
714.682	2458.42
714.869	2558.77
715.057	2595.63
715.244	2550.57
715.432	2630.45
715.619	2468.66
715.807	2419.5
715.994	2507.57
716.182	2347.83
716.369	2468.66
716.556	2433.84
716.744	2353.97
716.931	2474.8
717.119	2523.95
717.306	2405.17
717.493	2384.69
717.681	2392.88
717.868	2362.16
718.055	2345.78
718.242	2270
718.43	2376.5
718.617	2347.83
718.804	2370.35
718.991	2331.44
719.179	2315.06
719.366	2323.25
719.553	2454.32
719.74	2229.04
719.927	2360.11
720.114	2188.08
720.301	2138.93
720.488	2214.71
720.676	2270
720.863	2198.32
721.05	2280.24
721.237	2097.97
721.424	2218.8
721.611	2143.03
721.798	2130.74
721.985	2186.04
722.172	2175.8
722.358	2138.93
722.545	2130.74
722.732	2140.98
722.919	2196.28
723.106	2149.17
723.293	2165.56
723.48	2122.55
723.667	2093.88
723.853	2020.15
724.04	2089.78
724.227	2124.6
724.414	2057.01
724.6	2100.02
724.787	2155.32
724.974	2042.68
725.161	2054.97
725.347	1884.98
725.534	2147.12
725.72	2108.21
725.907	2083.64
726.094	2091.83
726.28	2044.73
726.467	2065.21
726.653	1956.66
726.84	2034.49
727.027	2054.97
727.213	2100.02
727.4	2040.63
727.586	1942.33
727.773	2069.3
727.959	1921.85
728.145	2061.11
728.332	2018.1
728.518	1884.98
728.705	1952.57
728.891	2046.77
729.077	1934.14
729.264	1848.12
729.45	1921.85
729.636	1942.33
729.823	1975.1
730.009	1887.03
730.195	1893.18
730.382	2007.86
730.568	1870.65
730.754	1876.79
730.94	1815.35
731.126	1870.65
731.313	1936.18
731.499	1848.12
731.685	1864.5
731.871	1895.22
732.057	1778.49
732.243	1862.46
732.429	1811.26
732.615	1930.04
732.801	1852.22
732.987	1803.07
733.173	1790.78
733.359	1860.41
733.545	1762.11
733.731	1887.03
733.917	1819.45
734.103	1755.96
734.289	1794.87
734.475	1811.26
734.661	1868.6
734.847	1803.07
735.033	1817.4
735.219	1907.51
735.404	1868.6
735.59	1737.53
735.776	1755.96
735.962	1782.59
736.148	1696.57
736.333	1780.54
736.519	1676.09
736.705	1704.76
736.89	1669.95
737.076	1674.04
737.262	1569.6
737.447	1696.57
737.633	1784.63
737.819	1590.08
738.004	1639.23
738.19	1614.65
738.375	1696.57
738.561	1688.38
738.747	1581.89
738.932	1561.41
739.118	1684.28
739.303	1674.04
739.489	1618.75
739.674	1672
739.859	1633.08
740.045	1545.02
740.23	1780.54
740.416	1610.56
740.601	1549.12
740.786	1614.65
740.972	1614.65
741.157	1620.8
741.342	1450.82
741.528	1508.16
741.713	1532.73
741.898	1407.81
742.084	1532.73
742.269	1540.93
742.454	1561.41
742.639	1532.73
742.824	1477.44
743.01	1477.44
743.195	1538.88
743.38	1542.97
743.565	1514.3
743.75	1420.1
743.935	1358.66
744.12	1534.78
744.305	1411.9
744.49	1495.87
744.675	1454.91
744.86	1393.47
745.045	1448.77
745.23	1532.73
745.415	1393.47
745.6	1311.55
745.785	1383.23
745.97	1329.99
746.155	1352.51
746.34	1356.61
746.525	1344.32
746.71	1305.41
746.895	1338.18
747.079	1370.94
747.264	1278.79
747.449	1418.05
747.634	1258.31
747.819	1342.27
748.003	1293.12
748.188	1246.02
748.373	1293.12
748.557	1372.99
748.742	1327.94
748.927	1270.59
749.111	1237.83
749.296	1235.78
749.481	1182.53
749.665	1151.81
749.85	1192.77
750.034	1207.11
750.219	1196.87
750.404	1213.25
750.588	1149.76
750.773	1127.24
750.957	1188.68
751.141	1207.11
751.326	1117
751.51	1090.37
751.695	1108.8
751.879	1106.76
752.064	1119.04
752.248	1049.41
752.432	1127.24
752.617	1131.33
752.801	1041.22
752.985	1010.5
753.17	1157.96
753.354	1076.04
753.538	1057.61
753.722	992.07
753.907	994.12
754.091	1010.5
754.275	1063.75
754.459	942.92
754.643	967.49
754.828	910.15
755.012	932.68
755.196	1008.45
755.38	1047.37
755.564	951.11
755.748	887.62
755.932	930.63
756.116	1037.13
756.3	955.21
756.484	944.97
756.668	959.3
756.852	805.71
757.036	908.1
757.22	1008.45
757.404	922.44
757.588	871.24
757.772	889.67
757.956	965.45
758.14	856.9
758.323	828.23
758.507	893.77
758.691	854.86
758.875	881.48
759.059	930.63
759.242	846.66
759.426	883.53
759.61	803.66
759.794	783.18
759.977	830.28
760.161	852.81
760.345	852.81
760.528	871.24
760.712	764.75
760.895	795.47
761.079	756.55
761.263	768.84
761.446	779.08
761.63	836.42
761.813	809.8
761.997	711.5
762.18	770.89
762.364	723.79
762.547	637.77
762.731	684.87
762.914	762.7
763.098	752.46
763.281	836.42
763.464	678.73
763.648	729.93
763.831	729.93
764.015	709.45
764.198	815.94
764.381	623.44
764.564	709.45
764.748	723.79
764.931	754.51
765.114	699.21
765.297	795.47
765.481	738.12
765.664	656.2
765.847	672.59
766.03	664.4
766.213	701.26
766.397	705.35
766.58	672.59
766.763	738.12
766.946	656.2
767.129	697.16
767.312	582.48
767.495	660.3
767.678	668.49
767.861	680.78
768.044	664.4
768.227	598.86
768.41	637.77
768.593	684.87
768.776	721.74
768.959	693.07
769.142	664.4
769.324	586.57
769.507	656.2
769.69	572.24
769.873	602.96
770.056	713.55
770.239	664.4
770.421	664.4
770.604	656.2
770.787	621.39
770.97	645.96
771.152	627.53
771.335	648.01
771.518	600.91
771.7	588.62
771.883	709.45
772.066	609.1
772.248	660.3
772.431	639.82
772.613	602.96
772.796	570.19
772.978	631.63
773.161	629.58
773.343	557.9
773.526	545.61
773.708	506.7
773.891	459.6
774.073	570.19
774.256	578.38
774.438	600.91
774.621	533.33
774.803	541.52
774.985	586.57
775.168	508.75
775.35	531.28
775.532	566.09
775.715	504.65
775.897	467.79
776.079	508.75
776.261	525.13
776.444	430.93
776.626	635.72
776.808	502.61
776.99	533.33
777.173	428.88
777.355	512.85
777.537	537.42
777.719	508.75
777.901	531.28
778.083	514.89
778.265	459.6
778.447	500.56
778.629	523.09
778.811	473.93
778.993	521.04
779.175	541.52
779.357	437.07
779.539	418.64
779.721	486.22
779.903	488.27
780.085	406.35
780.267	461.65
780.449	369.49
780.631	410.45
780.812	492.37
780.994	320.34
781.176	455.5
781.358	451.41
781.54	377.68
781.721	414.54
781.903	383.82
782.085	394.06
782.267	402.26
782.448	344.91
782.63	275.28
782.812	459.6
782.993	373.58
783.175	328.53
783.357	394.06
783.538	389.97
783.72	310.1
783.901	353.1
784.083	242.51
784.264	394.06
784.446	353.1
784.627	342.86
784.809	314.19
784.99	303.95
785.172	299.86
785.353	254.8
785.535	332.62
785.716	273.23
785.897	369.49
786.079	349.01
786.26	279.38
786.441	303.95
786.623	271.19
786.804	408.4
786.985	346.96
787.167	377.68
787.348	283.47
787.529	344.91
787.71	373.58
787.891	328.53
788.073	285.52
788.254	299.86
788.435	328.53
788.616	299.86
788.797	324.43
788.978	308.05
789.159	291.66
789.34	351.06
789.522	209.75
789.703	275.28
789.884	299.86
790.065	262.99
790.246	369.49
790.427	197.46
790.607	357.2
790.788	254.8
790.969	232.27
791.15	262.99
791.331	230.23
791.512	256.85
791.693	271.19
791.874	248.66
792.054	281.43
792.235	226.13
792.416	213.84
792.597	142.16
792.778	279.38
792.958	287.57
793.139	240.47
793.32	215.89
793.5	205.65
793.681	291.66
793.862	193.36
794.042	222.03
794.223	172.88
794.404	201.55
794.584	197.46
794.765	283.47
794.945	256.85
795.126	267.09
795.306	230.23
795.487	242.51
795.667	238.42
795.848	205.65
796.028	191.31
796.209	209.75
796.389	240.47
796.57	131.92
796.75	164.69
796.93	246.61
797.111	232.27
797.291	183.12
797.471	265.04
797.652	197.46
797.832	176.98
798.012	164.69
798.192	123.73
798.373	148.31
798.553	215.89
798.733	248.66
798.913	146.26
799.093	156.5
799.274	164.69
799.454	197.46
799.634	219.99
799.814	234.32
799.994	209.75
800.174	201.55
800.354	248.66
800.534	150.36
800.714	148.31
800.894	189.27
801.074	164.69
801.254	70.48
801.434	176.98
801.614	148.31
801.794	226.13
801.974	906.06
802.154	111.44
802.334	179.03
802.514	84.82
802.693	236.37
802.873	115.54
803.053	189.27
803.233	164.69
803.413	189.27
803.592	103.25
803.772	88.92
803.952	150.36
804.131	172.88
804.311	125.78
804.491	193.36
804.67	99.16
804.85	148.31
805.03	215.89
805.209	224.08
805.389	103.25
805.568	74.58
805.748	164.69
805.928	115.54
806.107	144.21
806.287	197.46
806.466	160.59
806.646	78.68
806.825	90.96
807.004	144.21
807.184	181.07
807.363	195.41
807.543	176.98
807.722	183.12
807.901	115.54
808.081	187.22
808.26	50
808.439	222.03
808.619	101.2
808.798	136.02
808.977	58.2
809.156	123.73
809.336	115.54
809.515	148.31
809.694	90.96
809.873	86.87
810.052	123.73
810.231	193.36
810.411	129.88
810.59	181.07
810.769	172.88
810.948	142.16
811.127	52.05
811.306	146.26
811.485	93.01
811.664	119.64
811.843	140.12
812.022	105.3
812.201	90.96
812.38	181.07
812.559	148.31
812.737	164.69
812.916	86.87
813.095	152.4
813.274	95.06
813.453	164.69
813.632	133.97
813.811	115.54
813.989	90.96
814.168	95.06
814.347	86.87
814.526	105.3
814.704	176.98
814.883	127.83
815.062	35.67
815.24	160.59
815.419	33.62
815.598	172.88
815.776	35.67
815.955	58.2
816.133	17.24
816.312	103.25
816.49	68.44
816.669	152.4
816.847	109.4
817.026	93.01
817.204	93.01
817.383	74.58
817.561	107.35
817.74	95.06
817.918	99.16
818.097	148.31
818.275	86.87
818.453	84.82
818.632	156.5
818.81	195.41
818.988	93.01
819.167	74.58
819.345	90.96
819.523	123.73
819.701	41.81
819.879	160.59
820.058	60.24
820.236	148.31
820.414	84.82
820.592	90.96
820.77	115.54
820.948	17.24
821.127	68.44
821.305	99.16
821.483	41.81
821.661	58.2
821.839	33.62
822.017	90.96
822.195	129.88
822.373	66.39
822.551	86.87
822.729	115.54
822.907	33.62
823.085	93.01
823.262	50
823.44	4.95
823.618	123.73
823.796	45.91
823.974	133.97
824.152	64.34
824.329	82.77
824.507	115.54
824.685	78.68
824.863	31.57
825.04	80.72
825.218	115.54
825.396	74.58
825.574	62.29
825.751	45.91
825.929	123.73
826.107	74.58
826.284	99.16
826.462	127.83
826.639	17.24
826.817	4.95
826.994	56.15
827.172	4.95
827.349	99.16
827.527	97.11
827.704	25.43
827.882	107.35
828.059	62.29
828.237	25.43
828.414	150.36
828.591	41.81
828.769	11.09
828.946	2.9
829.124	43.86
829.301	164.69
829.478	35.67
829.655	125.78
829.833	41.81
830.01	9.05
830.187	50
830.364	78.68
830.542	-3.24
830.719	127.83
830.896	66.39
831.073	86.87
831.25	50
831.427	52.05
831.604	17.24
831.782	54.1
831.959	9.05
832.136	62.29
832.313	140.12
832.49	15.19
832.667	33.62
832.844	35.67
833.021	111.44
833.198	62.29
833.374	41.81
833.551	76.63
833.728	101.2
833.905	50
834.082	50
834.259	90.96
834.436	82.77
834.612	74.58
834.789	82.77
834.966	37.72
835.143	41.81
835.319	21.33
835.496	95.06
835.673	58.2
835.85	-11.43
836.026	160.59
836.203	115.54
836.38	56.15
836.556	58.2
836.733	-3.24
836.909	127.83
837.086	-7.34
837.262	-1.19
837.439	78.68
837.616	13.14
837.792	25.43
837.968	95.06
838.145	25.43
838.321	4.95
838.498	31.57
838.674	101.2
838.851	-13.48
839.027	76.63
839.203	-48.3
839.38	66.39
839.556	4.95
839.732	58.2
839.909	21.33
840.085	117.59
840.261	115.54
840.437	41.81
840.614	58.2
840.79	19.29
840.966	41.81
841.142	123.73
841.318	23.38
841.494	74.58
841.671	2.9
841.847	41.81
842.023	60.24
842.199	76.63
842.375	90.96
842.551	43.86
842.727	54.1
842.903	66.39
843.079	-21.67
843.255	58.2
843.431	-60.59
843.607	41.81
843.783	-15.53
843.959	33.62
844.134	23.38
844.31	58.2
844.486	33.62
844.662	50
844.838	78.68
845.013	45.91
845.189	115.54
845.365	52.05
845.541	13.14
845.716	35.67
845.892	45.91
846.068	52.05
846.244	-19.63
846.419	68.44
846.595	29.52
846.77	52.05
846.946	82.77
847.122	66.39
847.297	33.62
847.473	99.16
847.648	-19.63
847.824	2.9
847.999	-46.25
848.175	95.06
848.35	33.62
848.526	86.87
848.701	37.72
848.876	76.63
849.052	39.76
849.227	21.33
849.403	33.62
849.578	66.39
849.753	13.14
849.929	13.14
850.104	11.09
850.279	31.57
850.454	58.2
850.63	33.62
850.805	60.24
850.98	45.91
851.155	9.05
851.33	52.05
851.505	-15.53
851.681	115.54
851.856	-50.35
852.031	41.81
852.206	82.77
852.381	-23.72
852.556	29.52
852.731	25.43
852.906	-21.67
853.081	35.67
853.256	-27.82
853.431	50
853.606	58.2
853.781	-52.39
853.956	-60.59
854.131	60.24
854.305	-19.63
854.48	-7.34
854.655	-64.68
854.83	74.58
855.005	64.34
855.18	-23.72
855.354	50
855.529	41.81
855.704	41.81
855.879	45.91
856.053	25.43
856.228	-11.43
856.403	-13.48
856.577	54.1
856.752	-15.53
856.926	43.86
857.101	95.06
857.276	-15.53
857.45	-19.63
857.625	13.14
857.799	33.62
857.974	33.62
858.148	-1.19
858.323	35.67
858.497	9.05
858.672	-7.34
858.846	109.4
859.02	-15.53
859.195	4.95
859.369	-7.34
859.543	60.24
859.718	-1.19
859.892	-46.25
860.066	70.48
860.241	52.05
860.415	-1.19
860.589	15.19
860.763	58.2
860.938	31.57
861.112	58.2
861.286	-19.63
861.46	74.58
861.634	27.48
861.808	4.95
861.982	-11.43
862.157	-23.72
862.331	-38.06
862.505	0.85
862.679	-81.07
862.853	17.24
863.027	17.24
863.201	66.39
863.375	17.24
863.549	45.91
863.722	27.48
863.896	109.4
864.07	-15.53
864.244	11.09
864.418	41.81
864.592	43.86
864.766	-21.67
864.939	58.2
865.113	-25.77
865.287	35.67
865.461	45.91
865.634	-5.29
865.808	64.34
865.982	50
866.156	-60.59
866.329	99.16
866.503	31.57
866.676	37.72
866.85	33.62
867.024	27.48
867.197	25.43
867.371	17.24
867.544	-29.87
867.718	4.95
867.891	37.72
868.065	19.29
868.238	-27.82
868.412	66.39
868.585	33.62
868.759	-44.2
868.932	-52.39
869.105	-13.48
869.279	0.85
869.452	-87.21
869.625	31.57
869.799	0.85
869.972	29.52
870.145	-25.77
870.319	9.05
870.492	52.05
870.665	9.05
870.838	-15.53
871.011	-74.92
871.185	86.87
871.358	-11.43
871.531	11.09
871.704	-23.72
871.877	-7.34
872.05	-36.01
872.223	25.43
872.396	9.05
872.569	13.14
872.742	-46.25
872.915	39.76
873.088	43.86
873.261	-48.3
873.434	-23.72
873.607	37.72
873.78	25.43
873.953	13.14
874.126	-7.34
874.299	82.77
874.471	-3.24
874.644	-48.3
874.817	27.48
874.99	58.2
875.163	-13.48
875.335	2.9
875.508	-29.87
875.681	-29.87
875.853	21.33
876.026	-56.49
876.199	45.91
876.371	-11.43
876.544	-60.59
876.717	-7.34
876.889	-29.87
877.062	29.52
877.234	17.24
877.407	-31.91
877.579	17.24
877.752	33.62
877.924	25.43
878.097	66.39
878.269	-64.68
878.442	-27.82
878.614	43.86
878.786	-36.01
878.959	-15.53
879.131	-19.63
879.303	-81.07
879.476	74.58
879.648	-52.39
879.82	58.2
879.993	25.43
880.165	43.86
880.337	-36.01
880.509	0.85
880.681	-19.63
880.854	17.24
881.026	62.29
881.198	43.86
881.37	45.91
881.542	62.29
881.714	23.38
881.886	11.09
882.058	-42.15
882.23	43.86
882.402	37.72
882.574	-13.48
882.746	-31.91
882.918	72.53
883.09	58.2
883.262	-27.82
883.434	-1.19
883.606	-40.11
883.778	-31.91
883.95	66.39
884.122	-111.78
884.293	70.48
884.465	43.86
884.637	58.2
884.809	-33.96
884.98	17.24
885.152	13.14
885.324	-13.48
885.496	-54.44
885.667	17.24
885.839	-64.68
886.011	117.59
886.182	2.9
886.354	-15.53
886.525	0.85
886.697	-25.77
886.869	-42.15
887.04	-81.07
887.212	-5.29
887.383	50
887.555	-29.87
887.726	-31.91
887.897	13.14
888.069	-19.63
888.24	-7.34
888.412	-31.91
888.583	54.1
888.754	-23.72
888.926	-31.91
889.097	50
889.268	-76.97
889.44	62.29
889.611	-11.43
889.782	-7.34
889.953	-19.63
890.125	127.83
890.296	-64.68
890.467	25.43
890.638	-46.25
890.809	-27.82
890.98	25.43
891.151	25.43
891.323	60.24
891.494	11.09
891.665	13.14
891.836	0.85
892.007	-44.2
892.178	-7.34
892.349	-74.92
892.52	29.52
892.691	50
892.862	19.29
893.032	-11.43
893.203	50
893.374	17.24
893.545	25.43
893.716	-66.73
893.887	-5.29
894.057	-23.72
894.228	68.44
894.399	21.33
894.57	76.63
894.74	-31.91
894.911	11.09
895.082	-7.34
895.253	-38.06
895.423	-29.87
895.594	62.29
895.764	-25.77
895.935	-27.82
896.106	9.05
896.276	-19.63
896.447	43.86
896.617	-44.2
896.788	-19.63
896.958	35.67
897.129	-60.59
897.299	-7.34
897.47	68.44
897.64	58.2
897.81	-48.3
897.981	-27.82
898.151	-95.4
898.322	4.95
898.492	-36.01
898.662	0.85
898.832	9.05
899.003	-40.11
899.173	13.14
899.343	-19.63
899.513	29.52
