Data from USB4F104151__285__14-34-49-099.txt Node

Date: Thu Mar 13 14:34:49 EDT 2025
User: louis
Spectrometer: USB4F10415
Trigger mode: 4
Integration Time (sec): 2.500000E-2
Scans to average: 1
Electric dark correction enabled: true
Nonlinearity correction enabled: false
Boxcar width: 0
XAxis mode: Wavelengths
Number of Pixels in Spectrum: 3648
>>>>>Begin Spectral Data<<<<<
178.204	-106.84
178.424	-106.84
178.644	-106.84
178.864	-147.8
179.084	-188.75
179.304	-2.39
179.524	-10.58
179.744	5.8
179.964	24.23
180.184	-4.44
180.404	-49.49
180.624	57
180.844	-20.82
181.064	-139.6
181.283	106.15
181.503	38.57
181.723	-4.44
181.943	1.71
182.163	42.67
182.383	-0.34
182.602	24.23
182.822	-18.77
183.042	18.09
183.262	-24.92
183.482	-31.06
183.701	-8.53
183.921	32.43
184.141	-43.35
184.361	40.62
184.58	46.76
184.8	-8.53
185.02	30.38
185.239	28.33
185.459	57
185.679	11.95
185.898	-57.68
186.118	91.82
186.338	54.95
186.557	-39.25
186.777	-16.73
186.997	24.23
187.216	32.43
187.436	61.1
187.655	36.52
187.875	81.58
188.095	9.9
188.314	112.3
188.534	83.63
188.753	57
188.973	26.28
189.192	50.86
189.412	7.85
189.631	9.9
189.851	20.14
190.07	91.82
190.29	42.67
190.509	13.99
190.729	-26.96
190.948	57
191.168	155.3
191.387	97.96
191.607	108.2
191.826	32.43
192.045	-14.68
192.265	-22.87
192.484	11.95
192.704	-39.25
192.923	-98.64
193.142	87.72
193.362	-22.87
193.581	67.24
193.8	110.25
194.02	61.1
194.239	34.47
194.458	32.43
194.678	67.24
194.897	5.8
195.116	-63.83
195.335	57
195.555	34.47
195.774	26.28
195.993	69.29
196.212	-6.49
196.432	-41.3
196.651	52.91
196.87	-8.53
197.089	77.48
197.308	65.19
197.528	48.81
197.747	7.85
197.966	16.04
198.185	7.85
198.404	16.04
198.623	-18.77
198.842	28.33
199.062	40.62
199.281	-18.77
199.5	18.09
199.719	57
199.938	97.96
200.157	50.86
200.376	67.24
200.595	-20.82
200.814	65.19
201.033	7.85
201.252	48.81
201.471	57
201.69	54.95
201.909	104.11
202.128	9.9
202.347	1.71
202.566	40.62
202.785	59.05
203.004	1.71
203.223	34.47
203.442	-8.53
203.661	-47.44
203.879	93.87
204.098	16.04
204.317	28.33
204.536	7.85
204.755	54.95
204.974	89.77
205.193	91.82
205.411	169.64
205.63	20.14
205.849	73.39
206.068	50.86
206.287	32.43
206.505	20.14
206.724	42.67
206.943	-33.11
207.162	-53.59
207.381	75.43
207.599	18.09
207.818	11.95
208.037	32.43
208.255	38.57
208.474	3.75
208.693	-39.25
208.911	-29.01
209.13	130.73
209.349	16.04
209.567	-10.58
209.786	59.05
210.005	-31.06
210.223	3.75
210.442	-0.34
210.661	7.85
210.879	-4.44
211.098	30.38
211.316	59.05
211.535	-8.53
211.753	73.39
211.972	7.85
212.191	-10.58
212.409	24.23
212.628	110.25
212.846	-33.11
213.065	65.19
213.283	18.09
213.502	-6.49
213.72	48.81
213.938	11.95
214.157	-16.73
214.375	85.67
214.594	11.95
214.812	-37.2
215.031	-14.68
215.249	-14.68
215.467	59.05
215.686	11.95
215.904	48.81
216.122	24.23
216.341	59.05
216.559	32.43
216.778	108.2
216.996	61.1
217.214	-24.92
217.432	18.09
217.651	-24.92
217.869	24.23
218.087	-20.82
218.306	63.15
218.524	-4.44
218.742	52.91
218.96	40.62
219.179	-55.64
219.397	-41.3
219.615	112.3
219.833	59.05
220.051	7.85
220.27	16.04
220.488	-8.53
220.706	81.58
220.924	40.62
221.142	26.28
221.36	-12.63
221.578	46.76
221.796	28.33
222.015	38.57
222.233	50.86
222.451	87.72
222.669	-37.2
222.887	40.62
223.105	3.75
223.323	69.29
223.541	57
223.759	89.77
223.977	-0.34
224.195	122.54
224.413	34.47
224.631	93.87
224.849	67.24
225.067	32.43
225.285	-10.58
225.503	40.62
225.721	-57.68
225.939	-29.01
226.157	50.86
226.375	97.96
226.592	-41.3
226.81	40.62
227.028	52.91
227.246	116.39
227.464	-12.63
227.682	102.06
227.9	79.53
228.117	59.05
228.335	40.62
228.553	-14.68
228.771	18.09
228.989	75.43
229.206	32.43
229.424	9.9
229.642	-55.64
229.86	65.19
230.077	81.58
230.295	-16.73
230.513	89.77
230.731	48.81
230.948	63.15
231.166	85.67
231.384	-12.63
231.601	-12.63
231.819	108.2
232.037	28.33
232.254	11.95
232.472	48.81
232.689	40.62
232.907	40.62
233.125	40.62
233.342	-20.82
233.56	-69.97
233.777	81.58
233.995	26.28
234.213	83.63
234.43	81.58
234.648	-18.77
234.865	63.15
235.083	30.38
235.3	28.33
235.518	34.47
235.735	143.02
235.953	61.1
236.17	48.81
236.388	9.9
236.605	46.76
236.822	18.09
237.04	1.71
237.257	40.62
237.475	69.29
237.692	30.38
237.909	7.85
238.127	40.62
238.344	32.43
238.562	7.85
238.779	-88.4
238.996	-47.44
239.214	75.43
239.431	40.62
239.648	38.57
239.865	-12.63
240.083	75.43
240.3	-31.06
240.517	-49.49
240.735	40.62
240.952	-24.92
241.169	73.39
241.386	9.9
241.603	20.14
241.821	-53.59
242.038	57
242.255	32.43
242.472	-16.73
242.689	34.47
242.907	28.33
243.124	34.47
243.341	16.04
243.558	24.23
243.775	61.1
243.992	-16.73
244.209	52.91
244.426	124.58
244.643	-16.73
244.86	34.47
245.078	-0.34
245.295	77.48
245.512	57
245.729	-49.49
245.946	52.91
246.163	-6.49
246.38	-20.82
246.597	7.85
246.814	61.1
247.031	40.62
247.248	50.86
247.464	7.85
247.681	-6.49
247.898	46.76
248.115	34.47
248.332	3.75
248.549	81.58
248.766	97.96
248.983	116.39
249.2	112.3
249.417	50.86
249.633	79.53
249.85	116.39
250.067	36.52
250.284	34.47
250.501	-4.44
250.717	50.86
250.934	-39.25
251.151	-4.44
251.368	-6.49
251.585	65.19
251.801	40.62
252.018	24.23
252.235	-8.53
252.451	11.95
252.668	-51.54
252.885	24.23
253.102	1.71
253.318	-14.68
253.535	18.09
253.752	48.81
253.968	-4.44
254.185	50.86
254.401	40.62
254.618	20.14
254.835	44.71
255.051	149.16
255.268	24.23
255.484	34.47
255.701	61.1
255.917	26.28
256.134	-24.92
256.351	32.43
256.567	42.67
256.784	48.81
257	-8.53
257.217	67.24
257.433	87.72
257.65	-0.34
257.866	-6.49
258.082	30.38
258.299	20.14
258.515	16.04
258.732	-24.92
258.948	16.04
259.165	75.43
259.381	-31.06
259.597	100.01
259.814	9.9
260.03	42.67
260.246	32.43
260.463	9.9
260.679	34.47
260.895	93.87
261.112	-0.34
261.328	97.96
261.544	1.71
261.761	83.63
261.977	46.76
262.193	-8.53
262.409	73.39
262.626	65.19
262.842	65.19
263.058	-16.73
263.274	20.14
263.49	20.14
263.707	38.57
263.923	57
264.139	-20.82
264.355	-47.44
264.571	26.28
264.787	73.39
265.004	77.48
265.22	-10.58
265.436	20.14
265.652	-22.87
265.868	42.67
266.084	-4.44
266.3	100.01
266.516	30.38
266.732	48.81
266.948	16.04
267.164	-12.63
267.38	54.95
267.596	18.09
267.812	32.43
268.028	40.62
268.244	-6.49
268.46	18.09
268.676	-37.2
268.892	42.67
269.108	87.72
269.324	-0.34
269.54	32.43
269.756	93.87
269.972	-45.4
270.188	-24.92
270.403	-29.01
270.619	-33.11
270.835	61.1
271.051	7.85
271.267	-4.44
271.483	18.09
271.698	20.14
271.914	57
272.13	46.76
272.346	40.62
272.562	112.3
272.777	-8.53
272.993	52.91
273.209	118.44
273.425	83.63
273.64	-14.68
273.856	38.57
274.072	-8.53
274.287	20.14
274.503	59.05
274.719	-55.64
274.934	57
275.15	-22.87
275.366	26.28
275.581	-4.44
275.797	22.19
276.012	-0.34
276.228	-31.06
276.444	61.1
276.659	54.95
276.875	11.95
277.09	9.9
277.306	-35.16
277.521	40.62
277.737	28.33
277.952	48.81
278.168	20.14
278.383	3.75
278.599	-0.34
278.814	102.06
279.03	59.05
279.245	50.86
279.461	-0.34
279.676	110.25
279.892	44.71
280.107	124.58
280.322	-6.49
280.538	48.81
280.753	-20.82
280.969	7.85
281.184	57
281.399	26.28
281.615	32.43
281.83	48.81
282.045	32.43
282.26	36.52
282.476	75.43
282.691	130.73
282.906	1.71
283.122	28.33
283.337	-6.49
283.552	-2.39
283.767	-10.58
283.983	114.34
284.198	50.86
284.413	67.24
284.628	-47.44
284.843	-16.73
285.058	81.58
285.274	44.71
285.489	3.75
285.704	57
285.919	-37.2
286.134	42.67
286.349	-0.34
286.564	9.9
286.779	140.97
286.995	48.81
287.21	40.62
287.425	32.43
287.64	83.63
287.855	59.05
288.07	18.09
288.285	89.77
288.5	-24.92
288.715	104.11
288.93	69.29
289.145	20.14
289.36	20.14
289.575	-14.68
289.79	89.77
290.004	44.71
290.219	61.1
290.434	65.19
290.649	-8.53
290.864	52.91
291.079	26.28
291.294	77.48
291.509	83.63
291.724	32.43
291.938	-12.63
292.153	34.47
292.368	-0.34
292.583	16.04
292.798	20.14
293.012	18.09
293.227	48.81
293.442	-24.92
293.657	52.91
293.871	97.96
294.086	24.23
294.301	73.39
294.516	87.72
294.73	36.52
294.945	20.14
295.16	-49.49
295.374	69.29
295.589	67.24
295.804	-72.02
296.018	73.39
296.233	67.24
296.447	-0.34
296.662	18.09
296.877	63.15
297.091	79.53
297.306	-0.34
297.52	-61.78
297.735	32.43
297.949	38.57
298.164	138.92
298.378	61.1
298.593	16.04
298.807	-33.11
299.022	32.43
299.236	95.91
299.451	-16.73
299.665	-37.2
299.88	32.43
300.094	-41.3
300.309	24.23
300.523	42.67
300.737	-14.68
300.952	46.76
301.166	100.01
301.381	-104.79
301.595	26.28
301.809	40.62
302.024	1.71
302.238	57
302.452	83.63
302.667	16.04
302.881	57
303.095	24.23
303.309	87.72
303.524	40.62
303.738	-24.92
303.952	48.81
304.166	36.52
304.381	-16.73
304.595	126.63
304.809	20.14
305.023	34.47
305.237	-16.73
305.452	34.47
305.666	65.19
305.88	30.38
306.094	-12.63
306.308	67.24
306.522	67.24
306.736	44.71
306.95	32.43
307.164	124.58
307.379	40.62
307.593	110.25
307.807	40.62
308.021	87.72
308.235	48.81
308.449	5.8
308.663	32.43
308.877	81.58
309.091	18.09
309.305	36.52
309.519	-90.45
309.733	1.71
309.947	40.62
310.161	97.96
310.374	85.67
310.588	122.54
310.802	7.85
311.016	32.43
311.23	65.19
311.444	-4.44
311.658	9.9
311.872	69.29
312.085	30.38
312.299	122.54
312.513	75.43
312.727	65.19
312.941	-57.68
313.154	44.71
313.368	-12.63
313.582	89.77
313.796	24.23
314.009	26.28
314.223	108.2
314.437	-6.49
314.651	48.81
314.864	48.81
315.078	16.04
315.292	7.85
315.505	-47.44
315.719	24.23
315.933	26.28
316.146	38.57
316.36	-31.06
316.573	65.19
316.787	179.88
317.001	-16.73
317.214	32.43
317.428	16.04
317.641	34.47
317.855	67.24
318.068	106.15
318.282	9.9
318.495	67.24
318.709	-14.68
318.922	-10.58
319.136	65.19
319.349	30.38
319.563	1.71
319.776	57
319.99	75.43
320.203	-24.92
320.417	-8.53
320.63	65.19
320.843	83.63
321.057	7.85
321.27	24.23
321.483	71.34
321.697	77.48
321.91	42.67
322.124	67.24
322.337	40.62
322.55	38.57
322.763	59.05
322.977	52.91
323.19	13.99
323.403	48.81
323.617	89.77
323.83	57
324.043	-2.39
324.256	67.24
324.469	65.19
324.683	40.62
324.896	18.09
325.109	91.82
325.322	38.57
325.535	87.72
325.748	-4.44
325.962	9.9
326.175	3.75
326.388	59.05
326.601	13.99
326.814	44.71
327.027	-26.96
327.24	106.15
327.453	-22.87
327.666	61.1
327.879	40.62
328.092	91.82
328.305	24.23
328.518	-49.49
328.731	-6.49
328.944	22.19
329.157	3.75
329.37	50.86
329.583	81.58
329.796	83.63
330.009	-39.25
330.222	73.39
330.435	24.23
330.648	-14.68
330.861	-45.4
331.073	24.23
331.286	57
331.499	5.8
331.712	38.57
331.925	97.96
332.138	77.48
332.35	26.28
332.563	57
332.776	32.43
332.989	71.34
333.202	61.1
333.414	-26.96
333.627	5.8
333.84	26.28
334.053	32.43
334.265	-8.53
334.478	44.71
334.691	-10.58
334.903	-0.34
335.116	36.52
335.329	40.62
335.541	40.62
335.754	147.11
335.966	50.86
336.179	18.09
336.392	-10.58
336.604	24.23
336.817	73.39
337.029	-8.53
337.242	-57.68
337.454	16.04
337.667	48.81
337.88	85.67
338.092	57
338.305	91.82
338.517	22.19
338.729	28.33
338.942	65.19
339.154	20.14
339.367	16.04
339.579	42.67
339.792	104.11
340.004	7.85
340.217	40.62
340.429	89.77
340.641	-18.77
340.854	42.67
341.066	40.62
341.278	44.71
341.491	120.49
341.703	3.75
341.915	-14.68
342.128	61.1
342.34	50.86
342.552	1.71
342.764	40.62
342.977	24.23
343.189	1.71
343.401	48.81
343.613	42.67
343.826	-22.87
344.038	77.48
344.25	85.67
344.462	18.09
344.674	18.09
344.886	52.91
345.099	-6.49
345.311	44.71
345.523	-14.68
345.735	-16.73
345.947	75.43
346.159	122.54
346.371	7.85
346.583	44.71
346.795	75.43
347.007	11.95
347.219	-0.34
347.431	26.28
347.643	50.86
347.855	-35.16
348.067	36.52
348.279	48.81
348.491	28.33
348.703	-14.68
348.915	-8.53
349.127	67.24
349.339	34.47
349.551	155.3
349.763	52.91
349.975	44.71
350.187	97.96
350.399	42.67
350.61	42.67
350.822	73.39
351.034	81.58
351.246	34.47
351.458	67.24
351.669	3.75
351.881	79.53
352.093	24.23
352.305	106.15
352.517	46.76
352.728	73.39
352.94	-2.39
353.152	106.15
353.363	38.57
353.575	20.14
353.787	48.81
353.999	50.86
354.21	110.25
354.422	16.04
354.633	97.96
354.845	57
355.057	-10.58
355.268	20.14
355.48	59.05
355.692	50.86
355.903	-26.96
356.115	28.33
356.326	-16.73
356.538	91.82
356.749	28.33
356.961	52.91
357.172	61.1
357.384	-0.34
357.595	93.87
357.807	89.77
358.018	-4.44
358.23	61.1
358.441	102.06
358.653	20.14
358.864	20.14
359.075	20.14
359.287	48.81
359.498	16.04
359.709	20.14
359.921	122.54
360.132	77.48
360.344	81.58
360.555	26.28
360.766	32.43
360.977	91.82
361.189	44.71
361.4	120.49
361.611	7.85
361.823	-74.07
362.034	13.99
362.245	-31.06
362.456	102.06
362.667	40.62
362.879	16.04
363.09	83.63
363.301	52.91
363.512	40.62
363.723	11.95
363.935	57
364.146	65.19
364.357	-24.92
364.568	65.19
364.779	-24.92
364.99	106.15
365.201	-67.92
365.412	67.24
365.623	-57.68
365.834	34.47
366.045	50.86
366.256	7.85
366.467	42.67
366.678	50.86
366.889	32.43
367.1	81.58
367.311	69.29
367.522	81.58
367.733	-33.11
367.944	-22.87
368.155	7.85
368.366	40.62
368.577	-51.54
368.788	52.91
368.999	26.28
369.209	50.86
369.42	81.58
369.631	143.02
369.842	81.58
370.053	81.58
370.264	69.29
370.474	73.39
370.685	-16.73
370.896	91.82
371.107	5.8
371.317	95.91
371.528	40.62
371.739	122.54
371.95	48.81
372.16	24.23
372.371	34.47
372.582	-69.97
372.792	48.81
373.003	16.04
373.214	63.15
373.424	108.2
373.635	16.04
373.846	32.43
374.056	89.77
374.267	24.23
374.477	93.87
374.688	81.58
374.898	83.63
375.109	85.67
375.319	40.62
375.53	81.58
375.74	110.25
375.951	-4.44
376.161	-2.39
376.372	118.44
376.582	24.23
376.793	85.67
377.003	67.24
377.214	-72.02
377.424	65.19
377.635	9.9
377.845	61.1
378.055	83.63
378.266	18.09
378.476	73.39
378.686	81.58
378.897	24.23
379.107	13.99
379.317	-14.68
379.528	16.04
379.738	73.39
379.948	-8.53
380.158	138.92
380.369	106.15
380.579	65.19
380.789	-0.34
380.999	36.52
381.21	79.53
381.42	122.54
381.63	114.34
381.84	100.01
382.05	132.78
382.261	81.58
382.471	83.63
382.681	106.15
382.891	186.02
383.101	59.05
383.311	57
383.521	44.71
383.731	26.28
383.941	7.85
384.151	28.33
384.361	67.24
384.571	102.06
384.781	52.91
384.991	102.06
385.201	65.19
385.411	73.39
385.621	59.05
385.831	73.39
386.041	52.91
386.251	85.67
386.461	100.01
386.671	65.19
386.881	87.72
387.091	20.14
387.301	114.34
387.511	50.86
387.72	52.91
387.93	61.1
388.14	-8.53
388.35	40.62
388.56	126.63
388.769	81.58
388.979	61.1
389.189	65.19
389.399	48.81
389.609	95.91
389.818	59.05
390.028	97.96
390.238	59.05
390.447	61.1
390.657	50.86
390.867	73.39
391.076	50.86
391.286	20.14
391.496	54.95
391.705	75.43
391.915	130.73
392.125	57
392.334	7.85
392.544	134.82
392.753	13.99
392.963	28.33
393.172	114.34
393.382	44.71
393.591	128.68
393.801	61.1
394.01	132.78
394.22	173.74
394.429	93.87
394.639	110.25
394.848	89.77
395.058	48.81
395.267	77.48
395.477	57
395.686	16.04
395.895	124.58
396.105	208.55
396.314	165.54
396.524	59.05
396.733	136.87
396.942	106.15
397.152	122.54
397.361	122.54
397.57	114.34
397.78	147.11
397.989	89.77
398.198	83.63
398.407	26.28
398.617	126.63
398.826	65.19
399.035	77.48
399.244	157.35
399.453	147.11
399.663	102.06
399.872	175.78
400.081	97.96
400.29	155.3
400.499	73.39
400.708	91.82
400.917	67.24
401.127	126.63
401.336	81.58
401.545	222.89
401.754	163.5
401.963	130.73
402.172	34.47
402.381	97.96
402.59	147.11
402.799	183.98
403.008	261.8
403.217	179.88
403.426	163.5
403.635	165.54
403.844	208.55
404.053	114.34
404.262	179.88
404.471	222.89
404.68	181.93
404.888	124.58
405.097	155.3
405.306	188.07
405.515	206.5
405.724	65.19
405.933	161.45
406.142	134.82
406.35	204.46
406.559	224.94
406.768	188.07
406.977	212.65
407.185	253.61
407.394	220.84
407.603	165.54
407.812	208.55
408.02	306.85
408.229	257.7
408.438	251.56
408.646	149.16
408.855	269.99
409.064	243.37
409.272	284.33
409.481	319.14
409.69	280.23
409.898	351.91
410.107	325.29
410.315	335.53
410.524	384.68
410.733	356.01
410.941	384.68
411.15	409.25
411.358	405.16
411.567	470.69
411.775	476.84
411.984	515.75
412.192	544.42
412.401	511.65
412.609	618.15
412.818	614.05
413.026	605.86
413.234	632.48
413.443	650.91
413.651	614.05
413.86	691.87
414.068	798.37
414.276	818.85
414.485	720.54
414.693	824.99
414.901	872.09
415.11	960.16
415.318	915.1
415.526	859.81
415.734	927.39
415.943	921.24
416.151	1056.41
416.359	1021.6
416.567	1074.84
416.776	1066.65
416.984	1080.99
417.192	1244.82
417.4	1205.91
417.608	1255.06
417.817	1287.83
418.025	1382.04
418.233	1441.43
418.441	1390.23
418.649	1359.51
418.857	1484.44
419.065	1599.12
419.273	1590.93
419.481	1709.71
419.689	1728.14
419.897	1805.97
420.105	1760.91
420.313	1887.89
420.521	1986.19
420.729	2002.57
420.937	2113.16
421.145	2154.12
421.353	2152.07
421.561	2320.01
421.769	2375.3
421.977	2549.38
422.185	2481.8
422.393	2614.91
422.601	2717.31
422.809	2752.13
423.017	2793.09
423.224	2909.82
423.432	2991.74
423.64	3047.04
423.848	3202.68
424.056	3276.41
424.263	3444.34
424.471	3503.73
424.679	3485.3
424.887	3765.87
425.094	3939.95
425.302	3972.72
425.51	4103.79
425.718	4335.21
425.925	4257.39
426.133	4337.26
426.341	4689.51
426.548	4701.79
426.756	4701.79
426.964	4888.16
427.171	5097.05
427.379	5264.99
427.586	5187.16
427.794	5600.85
428.001	5729.88
428.209	6162
428.417	5901.9
428.624	6417.99
428.832	6176.33
429.039	6321.74
429.247	6426.18
429.454	7079.49
429.662	7300.67
429.869	6856.26
430.076	7302.72
430.284	7194.17
430.491	7525.94
430.699	7943.73
430.906	7880.24
431.114	8039.98
431.321	8273.45
431.528	8482.35
431.736	8769.06
431.943	9383.45
432.15	9117.22
432.358	9137.7
432.565	9887.25
432.772	9584.15
432.979	10348.04
433.187	10346
433.394	10438.16
433.601	10976.77
433.808	11210.24
434.016	10896.9
434.223	11347.45
434.43	12013.04
434.637	11994.61
434.844	12733.93
435.052	12701.16
435.259	12815.85
435.466	13094.37
435.673	12836.33
435.88	13487.58
436.087	14190.03
436.294	14265.81
436.501	14206.42
436.708	14347.73
436.915	14851.53
437.122	15484.35
437.329	15549.89
437.537	15732.15
437.743	15912.38
437.95	15916.47
438.157	16743.85
438.364	17464.74
438.571	17304.99
438.778	17421.73
438.985	18933.13
439.192	18120.09
439.399	18961.8
439.606	18302.36
439.813	19400.07
440.02	20663.66
440.227	20129.14
440.433	20258.17
440.64	20696.43
440.847	20610.42
441.054	20825.45
441.261	22451.54
441.467	22322.52
441.674	22861.13
441.881	23536.96
442.088	23278.92
442.294	23108.94
442.501	23858.49
442.708	24411.45
442.914	25144.62
443.121	25978.14
443.328	25554.21
443.534	27391.24
443.741	26613.01
443.948	26184.99
444.154	28351.74
444.361	27890.95
444.568	28181.76
444.774	28093.69
444.981	28214.52
445.187	29160.69
445.394	30391.51
445.6	30156
445.807	33090.74
446.013	31599.82
446.22	31759.56
446.426	33143.98
446.633	33895.59
446.839	34753.69
447.046	33352.88
447.252	35237.01
447.459	35249.3
447.665	35183.76
447.871	36639.87
448.078	38296.67
448.284	36355.2
448.491	37356.66
448.697	38753.37
448.903	39240.79
449.11	39621.71
449.316	38640.73
449.522	39742.54
449.728	40455.23
449.935	40823.87
450.141	40854.59
450.347	41931.82
450.553	40567.87
450.76	40926.27
450.966	42327.08
451.172	41823.28
451.378	42744.86
451.584	42044.46
451.791	43246.61
451.997	42998.81
452.203	43316.25
452.409	43525.14
452.615	43787.28
452.821	41661.49
453.027	41229.37
453.233	43619.35
453.44	41794.6
453.646	42087.46
453.852	42109.99
454.058	43478.04
454.264	41489.46
454.47	42503.2
454.676	41458.74
454.882	43023.39
455.088	39357.52
455.294	39812.17
455.5	40348.74
455.705	40817.72
455.911	39793.74
456.117	38440.03
456.323	37973.1
456.529	36023.43
456.735	37559.41
456.941	36371.58
457.147	35968.13
457.352	35122.32
457.558	34784.41
457.764	34616.47
457.97	33981.6
458.176	33295.53
458.381	33168.56
458.587	31767.75
458.793	31036.63
458.999	30014.69
459.204	31941.83
459.41	31309
459.616	29218.03
459.821	29218.03
460.027	29281.52
460.233	28611.83
460.438	27282.7
460.644	27581.7
460.85	26090.78
461.055	25818.4
461.261	25386.28
461.466	23690.56
461.672	22809.93
461.878	24548.66
462.083	23004.49
462.289	22412.63
462.494	22052.19
462.7	21349.73
462.905	20845.93
463.111	21409.12
463.316	21634.4
463.522	20997.48
463.727	21013.87
463.932	21079.4
464.138	20311.41
464.343	20809.07
464.549	20372.85
464.754	20903.28
464.959	20495.73
465.165	20309.36
465.37	19641.73
465.575	18988.42
465.781	19979.64
465.986	19799.42
466.191	19236.23
466.397	18820.49
466.602	17921.43
466.807	18408.85
467.012	18619.79
467.218	18664.85
467.423	18163.09
467.628	18412.95
467.833	18980.23
468.038	18548.11
468.244	17909.15
468.449	18593.17
468.654	17599.9
468.859	17667.49
469.064	17626.53
469.269	17003.94
469.474	17196.45
469.679	17651.1
469.885	16719.28
470.09	17198.5
470.295	16762.28
470.5	16692.65
470.705	16725.42
470.91	16367.02
471.115	16285.11
471.32	16338.35
471.525	16293.3
471.73	16172.47
471.935	16031.16
472.139	15111.62
472.344	15523.26
472.549	15506.88
472.754	15207.87
472.959	15029.7
473.164	14560.72
473.369	14554.57
473.574	14990.79
473.778	14663.11
473.983	14521.81
474.188	14534.09
474.393	14067.16
474.598	14319.06
474.802	13999.57
475.007	13798.87
475.212	13692.38
475.417	13067.75
475.621	13307.36
475.826	13256.16
476.031	13315.55
476.235	12862.95
476.44	13030.88
476.645	12903.91
476.849	12686.83
477.054	12676.59
477.259	12369.39
477.463	12326.38
477.668	12058.1
477.872	12203.5
478.077	12062.19
478.282	11623.93
478.486	11658.74
478.691	11798.01
478.895	11484.67
479.1	11257.34
479.304	11466.24
479.509	11208.19
479.713	11324.93
479.918	11177.47
480.122	11193.86
480.326	11085.31
480.531	10935.81
480.735	10958.34
480.94	10903.04
481.144	11236.86
481.348	10722.82
481.553	10855.94
481.757	10708.49
481.961	10767.88
482.166	11068.93
482.37	10728.97
482.574	10700.3
482.778	10583.56
482.983	10673.67
483.187	10814.98
483.391	10839.56
483.595	10595.85
483.8	10565.13
484.004	10720.78
484.208	10808.84
484.412	10569.23
484.616	10659.34
484.821	10651.14
485.025	10440.2
485.229	10726.92
485.433	10542.6
485.637	10706.44
485.841	10460.68
486.045	10618.38
486.249	10567.18
486.453	10468.87
486.657	10520.07
486.861	10620.42
487.065	10305.04
487.269	10532.36
487.473	10339.85
487.677	10548.75
487.881	10575.37
488.085	10493.45
488.289	10669.58
488.493	10448.4
488.697	10651.14
488.901	10309.13
489.105	10710.54
489.309	10520.07
489.512	10624.52
489.716	10489.35
489.92	10665.48
490.124	10735.11
490.328	10692.1
490.531	10741.25
490.735	10833.41
490.939	10862.08
491.143	10534.41
491.346	10698.25
491.55	11019.78
491.754	10948.1
491.958	11001.35
492.161	10771.97
492.365	10872.32
492.569	10960.39
492.772	11030.02
492.976	11136.51
493.18	11159.04
493.383	11214.34
493.587	11398.65
493.79	11249.15
493.994	11144.7
494.197	11544.06
494.401	11478.52
494.605	11488.76
494.808	11591.16
495.012	11732.47
495.215	11990.52
495.419	11722.23
495.622	11648.5
495.825	12008.95
496.029	11976.18
496.232	12217.84
496.436	12135.92
496.639	12490.22
496.843	12328.43
497.046	12629.48
497.249	12707.3
497.453	12918.25
497.656	12914.15
497.859	12787.18
498.063	12981.73
498.266	13213.15
498.469	13250.02
498.673	13561.31
498.876	13446.62
499.079	13624.79
499.282	13485.53
499.485	14020.05
499.689	14009.81
499.892	14421.45
500.095	14300.62
500.298	14566.86
500.501	14384.59
500.705	14867.91
500.908	14837.19
501.111	15072.71
501.314	15338.94
501.517	15334.85
501.72	15691.2
501.923	15631.8
502.126	15769.02
502.329	16188.85
502.532	16149.94
502.735	16154.04
502.938	16242.1
503.141	16432.56
503.344	16870.83
503.547	17042.85
503.75	17075.62
503.953	17325.47
504.156	17546.65
504.359	17659.29
504.562	17728.92
504.765	18011.54
504.968	18314.64
505.17	18341.27
505.373	18570.64
505.576	18709.9
505.779	19101.06
505.982	18924.94
506.185	19463.55
506.387	19514.75
506.59	19535.23
506.793	19887.48
506.996	19756.41
507.198	20561.26
507.401	20159.86
507.604	20409.72
507.807	21230.95
508.009	21073.26
508.212	21146.98
508.415	21392.74
508.617	21480.8
508.82	21640.54
509.022	21966.17
509.225	22154.58
509.428	22367.57
509.63	22693.2
509.833	22691.15
510.035	23350.6
510.238	23231.82
510.44	23565.64
510.643	23506.24
510.845	23676.23
511.048	23924.03
511.25	24167.74
511.453	24462.65
511.655	25330.98
511.858	24835.38
512.06	25283.88
512.262	25361.7
512.465	25210.15
512.667	25677.09
512.87	25939.23
513.072	25996.57
513.274	26563.86
513.477	26692.88
513.679	26950.93
513.881	27231.5
514.084	27505.93
514.286	27694.34
514.488	27661.57
514.69	28437.75
514.893	28470.52
515.095	28775.67
515.297	28970.22
515.499	28738.8
515.701	29463.79
515.904	29588.71
516.106	29629.67
516.308	29875.43
516.51	30258.4
516.712	30358.75
516.914	30801.11
517.116	31032.53
517.318	31237.33
517.52	31415.5
517.722	31605.96
517.925	31931.59
518.127	31995.07
518.329	32214.21
518.531	32283.84
518.733	33019.06
518.935	32734.39
519.136	33326.25
519.338	33326.25
519.54	33889.45
519.742	34098.34
519.944	34065.57
520.146	34526.36
520.348	34733.21
520.55	34419.87
520.752	34491.55
520.954	35605.64
521.155	35011.73
521.357	35855.5
521.559	35904.65
521.761	36238.47
521.963	36095.11
522.164	35968.13
522.366	36670.59
522.568	36527.23
522.77	36691.07
522.971	37383.28
523.173	36605.05
523.375	37186.68
523.576	37305.46
523.778	37315.7
523.98	37639.28
524.181	38134.88
524.383	37835.88
524.584	37958.76
524.786	38071.4
524.988	38098.02
525.189	38564.96
525.391	38452.32
525.592	38528.09
525.794	38765.66
525.995	38452.32
526.197	38640.73
526.398	38753.37
526.6	38734.94
526.801	38970.46
527.003	39236.69
527.204	39433.3
527.406	39519.31
527.607	39185.49
527.808	39453.78
528.01	38626.4
528.211	39339.09
528.412	39834.7
528.614	39416.91
528.815	39482.45
529.016	39900.23
529.218	39511.12
529.419	39560.27
529.62	39648.33
529.822	39466.06
530.023	39296.08
530.224	39953.48
530.425	39828.55
530.626	38968.41
530.828	39461.97
531.029	40076.36
531.23	39517.26
531.431	39339.09
531.632	39978.06
531.833	39842.89
532.035	39677.01
532.236	39617.61
532.437	40064.07
532.638	39455.82
532.839	39703.63
533.04	39742.54
533.241	39150.68
533.442	39695.44
533.643	39677.01
533.844	39367.76
534.045	39502.93
534.246	39058.52
534.447	39400.53
534.648	39251.03
534.849	39357.52
535.05	39132.25
535.251	39310.42
535.451	39056.47
535.652	39195.73
535.853	38988.89
536.054	39103.57
536.255	39275.6
536.456	38689.88
536.657	39689.29
536.857	39003.22
537.058	39015.51
537.259	39398.48
537.46	38949.98
537.66	38671.45
537.861	38806.62
538.062	38888.54
538.263	38882.39
538.463	38546.53
538.664	38767.71
538.865	38628.45
539.065	39138.39
539.266	38120.55
539.466	38984.79
539.667	38315.11
539.868	38509.66
540.068	38456.42
540.269	38272.1
540.469	39015.51
540.67	38501.47
540.87	37977.19
541.071	38331.49
541.271	38294.63
541.472	38603.87
541.672	38405.22
541.873	37971.05
542.073	37602.41
542.274	38552.67
542.474	38083.69
542.675	37674.09
542.875	38800.47
543.075	38390.88
543.276	37741.67
543.476	38456.42
543.676	38098.02
543.877	38509.66
544.077	38308.96
544.277	37846.12
544.478	37618.8
544.678	38171.75
544.878	38384.74
545.078	38257.76
545.279	37842.03
545.479	37667.95
545.679	38257.76
545.879	37948.52
546.079	38059.11
546.28	38065.25
546.48	37567.6
546.68	38069.35
546.88	37848.17
547.08	37948.52
547.28	37741.67
547.48	37989.48
547.68	37878.89
547.88	37547.12
548.081	37532.78
548.281	38042.73
548.481	38134.88
548.681	38378.59
548.881	38110.31
549.081	38085.73
549.28	37747.82
549.48	38138.98
549.68	38235.24
549.88	38616.16
550.08	37944.42
550.28	37983.34
550.48	37893.22
550.68	38042.73
550.88	38251.62
551.08	38151.27
551.279	38198.37
551.479	37817.45
551.679	38435.94
551.879	38040.68
552.079	38317.15
552.278	38184.04
552.478	38399.07
552.678	37764.2
552.878	38089.83
553.077	38231.14
553.277	38003.81
553.477	38331.49
553.676	37991.53
553.876	38050.92
554.076	37989.48
554.275	38059.11
554.475	37876.84
554.674	38161.51
554.874	37946.47
555.074	38108.26
555.273	38239.33
555.473	38308.96
555.672	37887.08
555.872	38138.98
556.071	38644.83
556.271	38249.57
556.47	38114.41
556.67	37811.31
556.869	38063.21
557.068	38300.77
557.268	38239.33
557.467	38110.31
557.667	38454.37
557.866	38157.41
558.065	38046.82
558.265	38376.55
558.464	37975.14
558.663	38497.38
558.863	37944.42
559.062	38765.66
559.261	38016.1
559.461	38263.91
559.66	38118.5
559.859	38196.32
560.058	37827.69
560.258	38145.12
560.457	37997.67
560.656	38470.75
560.855	38022.25
561.054	38018.15
561.253	37885.03
561.453	37778.54
561.652	38106.21
561.851	38472.8
562.05	38122.6
562.249	37921.9
562.448	38382.69
562.647	37989.48
562.846	38100.07
563.045	37911.66
563.244	37637.23
563.443	38362.21
563.642	37624.94
563.841	37833.83
564.04	37670
564.239	38052.97
564.438	37588.08
564.637	37653.61
564.836	37903.46
565.035	37309.55
565.234	37727.34
565.432	37530.73
565.631	37788.78
565.83	37590.13
566.029	37424.24
566.228	37309.55
566.427	37540.97
566.625	37260.4
566.824	37393.52
567.023	37739.63
567.222	37104.76
567.42	36957.3
567.619	37241.97
567.818	36902.01
568.016	37037.17
568.215	37303.41
568.414	36967.54
568.612	37106.8
568.811	36549.76
569.01	36709.5
569.208	36379.78
569.407	36906.1
569.605	36025.48
569.804	36584.57
570.002	36508.8
570.201	36291.71
570.4	36232.32
570.598	35865.74
570.797	35984.52
570.995	36166.79
571.193	36088.96
571.392	36058.24
571.59	35810.44
571.789	35423.37
571.987	35648.65
572.186	35591.31
572.384	35507.34
572.582	35742.86
572.781	35775.62
572.979	34968.73
573.177	35425.42
573.376	35427.47
573.574	34919.57
573.772	35202.19
573.971	35191.95
574.169	34897.05
574.367	34591.9
574.565	34786.46
574.763	34421.92
574.962	34880.66
575.16	34321.57
575.358	34614.43
575.556	34385.05
575.754	34415.77
575.952	34063.52
576.151	34327.71
576.349	33606.83
576.547	33979.56
576.745	34051.24
576.943	33866.92
577.141	33709.22
577.339	33604.78
577.537	33486
577.735	33473.71
577.933	33545.39
578.131	33524.91
578.329	33346.73
578.527	32928.95
578.725	32746.68
578.923	33170.61
579.121	32931
579.319	33068.21
579.516	33004.72
579.714	32715.96
579.912	32855.22
580.11	32750.77
580.308	32236.73
580.506	32492.73
580.704	32277.69
580.901	32222.4
581.099	32367.8
581.297	31825.09
581.495	32304.32
581.692	32404.67
581.89	31997.12
582.088	32177.34
582.285	31794.37
582.483	31958.21
582.681	31755.46
582.878	31175.89
583.076	31161.55
583.274	31675.59
583.471	31233.23
583.669	31585.48
583.866	31120.59
584.064	31196.37
584.262	30745.81
584.459	31327.44
584.657	31046.86
584.854	31356.11
585.052	30387.42
585.249	30868.69
585.447	30936.27
585.644	30530.78
585.841	30362.84
586.039	30842.07
586.236	30180.57
586.434	29951.2
586.631	30153.95
586.828	30209.25
587.026	30194.91
587.223	30047.46
587.42	29918.43
587.618	30141.66
587.815	29629.67
588.012	29744.36
588.21	29730.02
588.407	30235.87
588.604	29486.31
588.801	29611.24
588.999	29590.76
589.196	29310.19
589.393	29322.48
589.59	29170.93
589.787	28886.26
589.984	29080.81
590.182	28968.18
590.379	29199.6
590.576	28802.29
590.773	28867.83
590.97	28826.87
591.167	29013.23
591.364	28677.37
591.561	28873.97
591.758	28427.51
591.955	28501.24
592.152	28830.96
592.349	28441.85
592.546	28624.12
592.743	28552.44
592.94	27755.78
593.137	28710.13
593.334	28007.68
593.531	27913.47
593.727	28105.98
593.924	27979.01
594.121	28052.73
594.318	28038.4
594.515	27577.61
594.712	27776.26
594.908	27659.52
595.105	28005.63
595.302	27282.7
595.499	27440.39
595.696	27737.35
595.892	27206.92
596.089	27479.3
596.286	27884.8
596.482	27610.37
596.679	27264.27
596.876	27526.41
597.072	27202.83
597.269	27082
597.466	26834.19
597.662	27122.96
597.859	27421.96
598.055	27305.23
598.252	27006.22
598.448	27282.7
598.645	27161.87
598.841	26705.17
599.038	27180.3
599.234	27358.47
599.431	26629.4
599.627	26703.12
599.824	27088.14
600.02	26969.36
600.217	27159.82
600.413	26649.88
600.609	26809.62
600.806	26789.14
601.002	26815.76
601.198	26615.06
601.395	27120.91
601.591	26846.48
601.787	26686.74
601.984	26647.83
602.18	26879.25
602.376	26877.2
602.572	26658.07
602.769	26928.4
602.965	26692.88
603.161	27002.13
603.357	26623.25
603.553	26848.53
603.75	26694.93
603.946	26780.95
604.142	26924.3
604.338	26318.11
604.534	26852.62
604.73	26719.51
604.926	26660.12
605.122	26764.56
605.318	26735.89
605.514	26899.73
605.71	26846.48
605.906	26782.99
606.102	26940.69
606.298	26688.79
606.494	26811.67
606.69	26604.82
606.886	26838.29
607.082	26467.61
607.278	27065.61
607.474	26932.5
607.67	26606.87
607.866	26506.52
608.062	26932.5
608.257	26952.98
608.453	27045.13
608.649	27133.2
608.845	26735.89
609.041	26973.46
609.236	27002.13
609.432	26852.62
609.628	26850.58
609.824	27034.89
610.019	27065.61
610.215	27190.54
610.411	26950.93
610.606	26826
610.802	27139.34
610.998	27065.61
611.193	27196.68
611.389	27172.11
611.584	26938.64
611.78	27077.9
611.976	27510.02
612.171	27370.76
612.367	27370.76
612.562	27086.09
612.758	26858.77
612.953	27028.75
613.149	27798.79
613.344	27335.95
613.539	27526.41
613.735	27405.58
613.93	27469.06
614.126	27311.37
614.321	27776.26
614.517	27620.61
614.712	27536.65
614.907	27514.12
615.103	27452.68
615.298	27082
615.493	27817.22
615.688	27200.78
615.884	27587.85
616.079	27364.62
616.274	27573.51
616.47	27352.33
616.665	27479.3
616.86	27460.87
617.055	27383.05
617.25	27436.3
617.445	27639.04
617.641	27129.1
617.836	27286.79
618.031	27043.09
618.226	27526.41
618.421	27532.55
618.616	27520.26
618.811	26797.33
619.006	27143.44
619.201	26387.74
619.396	26799.38
619.591	26570.01
619.786	26916.11
619.981	26533.14
620.176	26707.22
620.371	26291.48
620.566	26053.92
620.761	26309.91
620.956	26318.11
621.151	26357.02
621.346	26322.2
621.541	25787.68
621.735	25836.83
621.93	25820.45
622.125	25515.3
622.32	25404.71
622.515	25574.69
622.709	24980.78
622.904	25386.28
623.099	25077.04
623.294	24913.2
623.488	24810.8
623.683	24876.34
623.878	24685.87
624.072	24526.13
624.267	24282.42
624.462	24571.19
624.656	24118.59
624.851	24376.63
625.046	24223.03
625.24	23977.28
625.435	23792.96
625.629	23715.14
625.824	23831.87
626.018	23532.87
626.213	23201.1
626.407	23543.11
626.602	22685.01
626.796	23174.47
626.991	23129.42
627.185	23135.56
627.38	23153.99
627.574	22828.37
627.768	22435.16
627.963	22494.55
628.157	22543.7
628.352	22402.39
628.546	22015.32
628.74	22240.6
628.935	21947.74
629.129	21884.25
629.323	22005.08
629.517	21654.88
629.712	21323.11
629.906	21697.89
630.1	21216.61
630.294	21255.53
630.489	21130.6
630.683	21271.91
630.877	20952.43
631.071	21099.88
631.265	21075.31
631.459	20772.21
631.653	20405.62
631.848	20764.01
632.042	20407.67
632.236	20434.29
632.43	20319.6
632.624	20059.51
632.818	20098.42
633.012	19748.22
633.206	19815.8
633.4	19963.26
633.594	19391.87
633.788	19991.93
633.982	19707.26
634.176	19432.83
634.369	19510.66
634.563	19150.21
634.757	19367.3
634.951	19289.48
635.145	18988.42
635.339	18763.15
635.533	18613.65
635.726	18830.73
635.92	18402.71
636.114	18769.29
636.308	18216.34
636.501	18359.7
636.695	18083.22
636.889	18210.2
637.083	18095.51
637.276	17585.57
637.47	17890.71
637.664	17675.68
637.857	17765.79
638.051	17692.06
638.244	17532.32
638.438	17122.73
638.632	17184.16
638.825	17053.09
639.019	17038.76
639.212	16752.04
639.406	16971.18
639.599	16809.39
639.793	16838.06
639.986	16498.09
640.18	16309.68
640.373	16532.91
640.567	16039.35
640.76	16121.27
640.954	15957.43
641.147	15934.9
641.34	15881.66
641.534	15660.48
641.727	15775.16
641.92	15785.4
642.114	15498.69
642.307	15515.07
642.5	15297.99
642.694	15230.4
642.887	14898.63
643.08	15052.23
643.273	15121.86
643.467	14833.1
643.66	14982.6
643.853	14708.17
644.046	14179.79
644.239	14530
644.432	14548.43
644.626	14603.72
644.819	14589.39
645.012	14390.74
645.205	14253.52
645.398	14112.21
645.591	14159.31
645.784	14087.64
645.977	13698.52
646.17	13729.24
646.363	13688.28
646.556	13489.63
646.749	13592.03
646.942	13551.07
647.135	13354.46
647.328	13245.92
647.521	13475.29
647.714	12942.82
647.907	13057.51
648.099	13151.71
648.292	13155.81
648.485	12750.31
648.678	12865
648.871	12664.3
649.064	12443.12
649.256	12709.35
649.449	12598.76
649.642	12590.57
649.835	12207.6
650.027	12125.68
650.22	12316.14
650.413	12187.12
650.605	11824.63
650.798	12021.24
650.991	11943.41
651.183	11865.59
651.376	11763.19
651.568	11886.07
651.761	11617.79
651.954	11585.02
652.146	11660.79
652.339	11505.15
652.531	11429.37
652.724	11523.58
652.916	11126.27
653.109	11171.33
653.301	11304.45
653.494	11245.06
653.686	10946.05
653.879	11331.07
654.071	10806.79
654.263	10806.79
654.456	10810.89
654.648	10898.95
654.84	10733.06
655.033	10790.41
655.225	10577.42
655.417	10593.8
655.61	10731.01
655.802	10608.14
655.994	10481.16
656.186	10493.45
656.379	10262.03
656.571	10257.93
656.763	10460.68
656.955	10130.96
657.148	10118.67
657.34	9825.81
657.532	10018.32
657.724	9895.44
657.916	9950.74
658.108	9956.88
658.3	9784.85
658.492	9670.17
658.684	9543.19
658.876	9764.37
659.068	9649.69
659.26	9463.32
659.452	9510.43
659.644	9434.65
659.836	9217.57
660.028	9383.45
660.22	9236
660.412	9270.81
660.604	9207.33
660.796	9094.69
660.988	9172.51
661.18	8896.03
661.372	9027.1
661.563	8873.51
661.755	8754.73
661.947	8805.92
662.139	8625.7
662.331	8822.31
662.522	8627.75
662.714	8674.85
662.906	8433.19
663.097	8551.98
663.289	8513.06
663.481	8416.81
663.673	8406.57
663.864	8257.07
664.056	8183.34
664.247	8390.19
664.439	8166.96
664.631	8324.65
664.822	8031.79
665.014	8060.46
665.205	7847.47
665.397	7978.54
665.588	8035.89
665.78	7800.37
665.971	7740.98
666.163	7620.15
666.354	7863.86
666.546	7607.86
666.737	7671.35
666.929	7720.5
667.12	7620.15
667.311	7691.83
667.503	7511.61
667.694	7503.42
667.885	7448.12
668.077	7296.57
668.268	7390.78
668.459	7290.43
668.651	6962.75
668.842	7331.39
669.033	7003.71
669.224	7077.44
669.416	7206.46
669.607	7118.4
669.798	7110.21
669.989	7083.58
670.18	7128.64
670.371	7089.73
670.563	6958.66
670.754	6907.46
670.945	6854.21
671.136	7056.96
671.327	6819.39
671.518	6798.91
671.709	6940.22
671.9	6821.44
672.091	6798.91
672.282	6717
672.473	6723.14
672.664	6653.51
672.855	6536.77
673.046	6696.52
673.237	6540.87
673.428	6682.18
673.619	6602.31
673.809	6499.91
674	6463.05
674.191	6610.5
674.382	6432.33
674.573	6432.33
674.764	6399.56
674.954	6475.34
675.145	6159.95
675.336	6327.88
675.527	6413.9
675.717	6325.83
675.908	6098.51
676.099	6270.54
676.289	6221.39
676.48	6243.92
676.671	6164.04
676.861	6233.68
677.052	6180.43
677.243	6178.38
677.433	6092.37
677.624	6071.89
677.814	6102.61
678.005	6090.32
678.195	6057.55
678.386	6098.51
678.576	5944.91
678.767	6121.04
678.957	6096.46
679.148	6045.26
679.338	6112.85
679.529	5860.95
679.719	5908.05
679.909	5744.21
680.1	5871.19
680.29	5848.66
680.481	6039.12
680.671	5938.77
680.861	5930.58
681.052	5951.06
681.242	5938.77
681.432	5854.8
681.622	5668.44
681.813	5697.11
682.003	5785.17
682.193	5715.54
682.383	5873.23
682.573	5801.55
682.764	5779.03
682.954	5725.78
683.144	5645.91
683.334	5588.57
683.524	5744.21
683.714	5664.34
683.904	5695.06
684.094	5551.7
684.284	5641.81
684.474	5852.75
684.664	5627.48
684.854	5602.9
685.044	5561.94
685.234	5633.62
685.424	5627.48
685.614	5613.14
685.804	5582.42
685.994	5666.39
686.184	5549.65
686.374	5465.69
686.564	5496.41
686.753	5508.69
686.943	5523.03
687.133	5529.17
687.323	5314.14
687.513	5592.66
687.702	5434.97
687.892	5396.06
688.082	5394.01
688.272	5402.2
688.461	5310.04
688.651	5281.37
688.841	5312.09
689.03	5318.23
689.22	5131.87
689.41	5097.05
689.599	5129.82
689.789	5316.19
689.979	5201.5
690.168	5307.99
690.358	5015.13
690.547	5135.96
690.737	5103.2
690.926	5170.78
691.116	5062.24
691.305	5176.92
691.495	4965.98
691.684	5008.99
691.874	5135.96
692.063	5056.09
692.252	4896.35
692.442	5047.9
692.631	4920.93
692.82	4910.69
693.01	4980.32
693.199	4867.68
693.388	4664.93
693.578	4914.78
693.767	4793.95
693.956	4882.02
694.146	4791.91
694.335	4791.91
694.524	4755.04
694.713	4697.7
694.902	4718.18
695.092	4736.61
695.281	4714.08
695.47	4806.24
695.659	4746.85
695.848	4636.26
696.037	4742.75
696.226	4687.46
696.415	4574.82
696.604	4789.86
696.793	4583.01
696.982	4691.56
697.171	4703.84
697.36	4595.3
697.549	4413.03
697.738	4423.27
697.927	4628.07
698.116	4517.48
698.305	4597.35
698.494	4531.81
698.683	4537.96
698.872	4517.48
699.061	4497
699.25	4505.19
699.438	4415.08
699.627	4347.5
699.816	4478.57
700.005	4447.85
700.193	4386.41
700.382	4449.89
700.571	4320.87
700.76	4361.83
700.948	4284.01
701.137	4419.18
701.326	4439.65
701.514	4316.78
701.703	4449.89
701.892	4316.78
702.08	4218.47
702.269	4273.77
702.457	4138.6
702.646	4234.86
702.834	4214.38
703.023	4154.99
703.212	4202.09
703.4	4210.28
703.589	4154.99
703.777	4114.03
703.965	3985.01
704.154	4216.43
704.342	4138.6
704.531	4089.45
704.719	4003.44
704.907	4013.68
705.096	4128.36
705.284	4118.12
705.472	3935.85
705.661	3976.81
705.849	3870.32
706.037	4140.65
706.226	3915.37
706.414	3956.33
706.602	3933.81
706.79	3853.94
706.979	3989.1
707.167	4021.87
707.355	3729.01
707.543	4013.68
707.731	3956.33
707.919	3778.16
708.107	3898.99
708.296	3792.5
708.484	3759.73
708.672	3827.31
708.86	3769.97
709.048	3784.3
709.236	3761.78
709.424	3835.5
709.612	3825.26
709.8	3792.5
709.988	3677.81
710.176	3731.06
710.364	3817.07
710.551	3735.15
710.739	3661.43
710.927	3673.71
711.115	3513.97
711.303	3747.44
711.491	3622.52
711.679	3626.61
711.866	3612.28
712.054	3739.25
712.242	3493.49
712.43	3645.04
712.617	3661.43
712.805	3497.59
712.993	3593.84
713.181	3405.43
713.368	3647.09
713.556	3591.8
713.744	3554.93
713.931	3499.64
714.119	3530.36
714.306	3513.97
714.494	3442.29
714.682	3479.16
714.869	3448.44
715.057	3378.81
715.244	3270.26
715.432	3370.62
715.619	3372.66
715.807	3440.25
715.994	3335.8
716.182	3292.79
716.369	3366.52
716.556	3200.63
716.744	3260.02
716.931	3337.85
717.119	3276.41
717.306	3251.83
717.493	3268.22
717.681	3186.3
717.868	3219.07
718.055	3272.31
718.242	3212.92
718.43	3010.17
718.617	3196.54
718.804	3196.54
718.991	3196.54
719.179	3122.81
719.366	3128.95
719.553	3133.05
719.74	2983.55
719.927	3165.82
720.114	3028.6
720.301	3133.05
720.488	3088
720.676	3112.57
720.863	3174.01
721.05	3063.42
721.237	3063.42
721.424	3141.24
721.611	2950.78
721.798	2977.41
721.985	3071.61
722.172	3145.34
722.358	2915.97
722.545	3077.76
722.732	2883.2
722.919	3079.8
723.106	2958.97
723.293	2930.3
723.48	2918.01
723.667	2858.62
723.853	2909.82
724.04	2938.49
724.227	2965.12
724.414	2844.29
724.6	2883.2
724.787	2823.81
724.974	2940.54
725.161	2832
725.347	2797.18
725.534	2899.58
725.72	2813.57
725.907	2932.35
726.094	2811.52
726.28	2850.43
726.467	2748.03
726.653	2768.51
726.84	2827.9
727.027	2997.88
727.213	2629.25
727.4	2866.81
727.586	2793.09
727.773	2670.21
727.959	2702.98
728.145	2668.16
728.332	2737.79
728.518	2674.31
728.705	2735.74
728.891	2743.94
729.077	2727.55
729.264	2573.96
729.45	2692.74
729.636	2748.03
729.823	2567.81
730.009	2743.94
730.195	2696.83
730.382	2612.87
730.568	2526.85
730.754	2657.92
730.94	2565.76
731.126	2729.6
731.313	2764.42
731.499	2623.11
731.685	2651.78
731.871	2389.64
732.057	2598.53
732.243	2588.29
732.429	2725.51
732.615	2514.56
732.801	2457.22
732.987	2608.77
733.173	2559.62
733.359	2461.32
733.545	2516.61
733.731	2645.63
733.917	2418.31
734.103	2467.46
734.289	2481.8
734.475	2338.44
734.661	2436.74
734.847	2475.65
735.033	2434.69
735.219	2346.63
735.404	2346.63
735.59	2383.49
735.776	2383.49
735.962	2594.44
736.148	2522.76
736.333	2344.58
736.519	2315.91
736.705	2463.37
736.89	2418.31
737.076	2346.63
737.262	2213.51
737.447	2387.59
737.633	2317.96
737.819	2342.53
738.004	2281.1
738.19	2416.26
738.375	2311.82
738.561	2377.35
738.747	2383.49
738.932	2217.61
739.118	2317.96
739.303	2254.47
739.489	2277
739.674	2195.08
739.859	2199.18
740.045	2281.1
740.23	2186.89
740.416	2203.27
740.601	2320.01
740.786	2244.23
740.972	2170.51
741.157	2186.89
741.342	2086.54
741.528	2154.12
741.713	2207.37
741.898	2080.39
742.084	2170.51
742.269	2186.89
742.454	2141.83
742.639	2203.27
742.824	2129.55
743.01	2256.52
743.195	2141.83
743.38	2121.35
743.565	2027.15
743.75	1982.09
743.935	2039.44
744.12	2080.39
744.305	1932.94
744.49	2016.91
744.675	2098.83
744.86	1949.32
745.045	1877.65
745.23	1998.48
745.415	1926.8
745.6	1959.56
745.785	1949.32
745.97	1898.13
746.155	1924.75
746.34	1947.28
746.525	1875.6
746.71	1969.8
746.895	1975.95
747.079	1777.3
747.264	1900.17
747.449	1820.3
747.634	1818.25
747.819	1808.02
748.003	1777.3
748.188	1744.53
748.373	1762.96
748.557	1771.15
748.742	1744.53
748.927	1705.62
749.111	1697.42
749.296	1781.39
749.481	1732.24
749.665	1734.29
749.85	1650.32
750.034	1728.14
750.219	1678.99
750.404	1638.03
750.588	1736.34
750.773	1597.07
750.957	1640.08
751.141	1654.42
751.326	1615.51
751.51	1523.35
751.695	1728.14
751.879	1603.22
752.064	1695.38
752.248	1621.65
752.432	1592.98
752.617	1580.69
752.801	1580.69
752.985	1453.72
753.17	1513.11
753.354	1455.76
753.538	1394.33
753.722	1418.9
753.907	1451.67
754.091	1443.48
754.275	1427.09
754.459	1459.86
754.643	1404.57
754.828	1330.84
755.012	1367.7
755.196	1246.87
755.38	1339.03
755.564	1365.65
755.748	1334.93
755.932	1386.13
756.116	1330.84
756.3	1310.36
756.484	1298.07
756.668	1326.74
756.852	1318.55
757.036	1345.17
757.22	1248.92
757.404	1197.72
757.588	1277.59
757.772	1277.59
757.956	1146.52
758.14	1330.84
758.323	1214.1
758.507	1197.72
758.691	1156.76
758.875	1216.15
759.059	1203.86
759.242	1181.34
759.426	1212.06
759.61	1275.54
759.794	1068.7
759.977	1156.76
760.161	1267.35
760.345	1146.52
760.528	1123.99
760.712	1296.02
760.895	1158.81
761.079	1179.29
761.263	1107.61
761.446	1083.03
761.63	1042.07
761.813	1123.99
761.997	1097.37
762.18	1097.37
762.364	1072.79
762.547	1066.65
762.731	1015.45
762.914	1085.08
763.098	884.38
763.281	992.92
763.464	974.49
763.648	1035.93
763.831	1015.45
764.015	1060.51
764.198	1031.83
764.381	992.92
764.564	1037.98
764.748	982.68
764.931	1087.13
765.114	1126.04
765.297	1023.64
765.481	902.81
765.664	906.91
765.847	1013.4
766.03	949.92
766.213	954.01
766.397	933.53
766.58	970.4
766.763	982.68
766.946	900.76
767.129	835.23
767.312	958.11
767.495	923.29
767.678	960.16
767.861	945.82
768.044	921.24
768.227	880.29
768.41	890.53
768.593	911
768.776	870.05
768.959	802.46
769.142	904.86
769.324	913.05
769.507	949.92
769.69	886.43
769.873	900.76
770.056	917.15
770.239	835.23
770.421	863.9
770.604	878.24
770.787	892.57
770.97	900.76
771.152	814.75
771.335	908.96
771.518	788.13
771.7	931.48
771.883	925.34
772.066	859.81
772.248	749.22
772.431	810.65
772.613	884.38
772.796	859.81
772.978	837.28
773.161	863.9
773.343	790.17
773.526	781.98
773.708	771.74
773.891	769.69
774.073	769.69
774.256	736.93
774.438	925.34
774.621	843.42
774.803	827.04
774.985	724.64
775.168	804.51
775.35	728.74
775.532	814.75
775.715	708.26
775.897	761.5
776.079	738.98
776.261	788.13
776.444	743.07
776.626	675.49
776.808	771.74
776.99	753.31
777.173	781.98
777.355	720.54
777.537	695.97
777.719	657.06
777.901	650.91
778.083	624.29
778.265	640.67
778.447	745.12
778.629	673.44
778.811	634.53
778.993	646.82
779.175	650.91
779.357	663.2
779.539	507.55
779.721	589.47
779.903	687.78
780.085	657.06
780.267	652.96
780.449	583.33
780.631	640.67
780.812	581.28
780.994	482.98
781.176	601.76
781.358	616.1
781.54	605.86
781.721	552.61
781.903	517.79
782.085	558.75
782.267	523.94
782.448	491.17
782.63	605.86
782.812	509.6
782.993	435.88
783.175	485.03
783.357	487.08
783.538	554.66
783.72	499.36
783.901	485.03
784.083	474.79
784.264	491.17
784.446	442.02
784.627	501.41
784.809	528.03
784.99	503.46
785.172	532.13
785.353	550.56
785.535	407.2
785.716	429.73
785.897	466.6
786.079	466.6
786.26	515.75
786.441	458.4
786.623	439.97
786.804	433.83
786.985	470.69
787.167	386.72
787.348	366.25
787.529	468.64
787.71	431.78
787.891	409.25
788.073	319.14
788.254	360.1
788.435	466.6
788.616	425.64
788.797	386.72
788.978	378.53
789.159	425.64
789.34	351.91
789.522	356.01
789.703	386.72
789.884	368.29
790.065	425.64
790.246	388.77
790.427	442.02
790.607	411.3
790.788	482.98
790.969	358.05
791.15	368.29
791.331	358.05
791.512	396.96
791.693	450.21
791.874	394.92
792.054	364.2
792.235	394.92
792.416	313
792.597	302.76
792.778	341.67
792.958	411.3
793.139	269.99
793.32	327.33
793.5	374.44
793.681	376.48
793.862	310.95
794.042	343.72
794.223	337.57
794.404	280.23
794.584	319.14
794.765	313
794.945	267.94
795.126	319.14
795.306	374.44
795.487	319.14
795.667	263.85
795.848	308.9
796.028	257.7
796.209	300.71
796.389	294.57
796.57	286.37
796.75	323.24
796.93	245.41
797.111	304.81
797.291	269.99
797.471	290.47
797.652	356.01
797.832	229.03
798.012	327.33
798.192	282.28
798.373	255.65
798.553	216.74
798.733	255.65
798.913	313
799.093	255.65
799.274	294.57
799.454	237.22
799.634	247.46
799.814	259.75
799.994	278.18
800.174	315.05
800.354	302.76
800.534	179.88
800.714	269.99
800.894	194.22
801.074	198.31
801.254	276.13
801.434	259.75
801.614	335.53
801.794	210.6
801.974	1050.27
802.154	257.7
802.334	222.89
802.514	239.27
802.693	188.07
802.873	224.94
803.053	261.8
803.233	220.84
803.413	198.31
803.592	233.13
803.772	224.94
803.952	231.08
804.131	200.36
804.311	265.89
804.491	274.09
804.67	151.21
804.85	216.74
805.03	224.94
805.209	212.65
805.389	198.31
805.568	212.65
805.748	257.7
805.928	204.46
806.107	183.98
806.287	196.26
806.466	253.61
806.646	138.92
806.825	224.94
807.004	151.21
807.184	212.65
807.363	261.8
807.543	204.46
807.722	81.58
807.901	151.21
808.081	249.51
808.26	106.15
808.439	163.5
808.619	181.93
808.798	179.88
808.977	159.4
809.156	212.65
809.336	157.35
809.515	122.54
809.694	196.26
809.873	112.3
810.052	188.07
810.231	212.65
810.411	202.41
810.59	237.22
810.769	161.45
810.948	124.58
811.127	138.92
811.306	151.21
811.485	100.01
811.664	261.8
811.843	132.78
812.022	173.74
812.201	106.15
812.38	179.88
812.559	138.92
812.737	175.78
812.916	132.78
813.095	233.13
813.274	147.11
813.453	149.16
813.632	171.69
813.811	122.54
813.989	73.39
814.168	151.21
814.347	48.81
814.526	181.93
814.704	214.7
814.883	140.97
815.062	83.63
815.24	138.92
815.419	194.22
815.598	112.3
815.776	59.05
815.955	147.11
816.133	73.39
816.312	216.74
816.49	181.93
816.669	102.06
816.847	171.69
817.026	151.21
817.204	212.65
817.383	93.87
817.561	32.43
817.74	97.96
817.918	100.01
818.097	85.67
818.275	38.57
818.453	196.26
818.632	108.2
818.81	130.73
818.988	134.82
819.167	73.39
819.345	93.87
819.523	108.2
819.701	138.92
819.879	138.92
820.058	63.15
820.236	132.78
820.414	108.2
820.592	140.97
820.77	100.01
820.948	52.91
821.127	114.34
821.305	116.39
821.483	163.5
821.661	181.93
821.839	130.73
822.017	73.39
822.195	108.2
822.373	102.06
822.551	65.19
822.729	42.67
822.907	143.02
823.085	81.58
823.262	65.19
823.44	81.58
823.618	89.77
823.796	65.19
823.974	149.16
824.152	95.91
824.329	-14.68
824.507	130.73
824.685	91.82
824.863	61.1
825.04	24.23
825.218	188.07
825.396	108.2
825.574	106.15
825.751	136.87
825.929	59.05
826.107	40.62
826.284	132.78
826.462	93.87
826.639	13.99
826.817	24.23
826.994	91.82
827.172	71.34
827.349	171.69
827.527	89.77
827.704	155.3
827.882	73.39
828.059	48.81
828.237	102.06
828.414	102.06
828.591	46.76
828.769	77.48
828.946	50.86
829.124	48.81
829.301	214.7
829.478	97.96
829.655	75.43
829.833	134.82
830.01	48.81
830.187	126.63
830.364	116.39
830.542	50.86
830.719	93.87
830.896	175.78
831.073	69.29
831.25	11.95
831.427	69.29
831.604	130.73
831.782	87.72
831.959	40.62
832.136	93.87
832.313	108.2
832.49	-4.44
832.667	67.24
832.844	83.63
833.021	77.48
833.198	97.96
833.374	87.72
833.551	89.77
833.728	89.77
833.905	61.1
834.082	-0.34
834.259	57
834.436	124.58
834.612	24.23
834.789	165.54
834.966	81.58
835.143	73.39
835.319	32.43
835.496	77.48
835.673	67.24
835.85	108.2
836.026	42.67
836.203	42.67
836.38	-4.44
836.556	40.62
836.733	-24.92
836.909	124.58
837.086	57
837.262	46.76
837.439	-35.16
837.616	26.28
837.792	97.96
837.968	106.15
838.145	28.33
838.321	83.63
838.498	100.01
838.674	226.98
838.851	32.43
839.027	97.96
839.203	130.73
839.38	48.81
839.556	40.62
839.732	59.05
839.909	52.91
840.085	122.54
840.261	24.23
840.437	118.44
840.614	79.53
840.79	79.53
840.966	73.39
841.142	7.85
841.318	44.71
841.494	93.87
841.671	91.82
841.847	-12.63
842.023	-47.44
842.199	91.82
842.375	102.06
842.551	-20.82
842.727	-26.96
842.903	57
843.079	-4.44
843.255	124.58
843.431	91.82
843.607	79.53
843.783	28.33
843.959	57
844.134	-24.92
844.31	65.19
844.486	-41.3
844.662	7.85
844.838	32.43
845.013	87.72
845.189	122.54
845.365	50.86
845.541	16.04
845.716	16.04
845.892	61.1
846.068	22.19
846.244	42.67
846.419	-16.73
846.595	57
846.77	-14.68
846.946	93.87
847.122	36.52
847.297	-12.63
847.473	110.25
847.648	34.47
847.824	20.14
847.999	9.9
848.175	73.39
848.35	69.29
848.526	147.11
848.701	30.38
848.876	97.96
849.052	18.09
849.227	-24.92
849.403	48.81
849.578	-16.73
849.753	89.77
849.929	16.04
850.104	63.15
850.279	77.48
850.454	50.86
850.63	89.77
850.805	34.47
850.98	9.9
851.155	9.9
851.33	48.81
851.505	-41.3
851.681	42.67
851.856	54.95
852.031	57
852.206	7.85
852.381	44.71
852.556	52.91
852.731	-18.77
852.906	24.23
853.081	106.15
853.256	28.33
853.431	-53.59
853.606	-20.82
853.781	26.28
853.956	7.85
854.131	-0.34
854.305	-24.92
854.48	30.38
854.655	24.23
854.83	-2.39
855.005	73.39
855.18	175.78
855.354	89.77
855.529	91.82
855.704	48.81
855.879	42.67
856.053	9.9
856.228	22.19
856.403	-35.16
856.577	153.26
856.752	-29.01
856.926	-16.73
857.101	61.1
857.276	-41.3
857.45	18.09
857.625	65.19
857.799	9.9
857.974	108.2
858.148	-31.06
858.323	75.43
858.497	-2.39
858.672	-0.34
858.846	-41.3
859.02	32.43
859.195	36.52
859.369	5.8
859.543	-49.49
859.718	7.85
859.892	-12.63
860.066	-12.63
860.241	46.76
860.415	9.9
860.589	-43.35
860.763	52.91
860.938	-16.73
861.112	108.2
861.286	9.9
861.46	3.75
861.634	40.62
861.808	52.91
861.982	-16.73
862.157	36.52
862.331	-4.44
862.505	20.14
862.679	30.38
862.853	7.85
863.027	18.09
863.201	100.01
863.375	7.85
863.549	3.75
863.722	16.04
863.896	65.19
864.07	32.43
864.244	-94.55
864.418	-0.34
864.592	1.71
864.766	-24.92
864.939	7.85
865.113	18.09
865.287	83.63
865.461	9.9
865.634	-8.53
865.808	40.62
865.982	-33.11
866.156	16.04
866.329	20.14
866.503	-41.3
866.676	81.58
866.85	1.71
867.024	7.85
867.197	110.25
867.371	-24.92
867.544	-45.4
867.718	24.23
867.891	95.91
868.065	-16.73
868.238	73.39
868.412	65.19
868.585	-0.34
868.759	-0.34
868.932	1.71
869.105	-37.2
869.279	7.85
869.452	-55.64
869.625	-10.58
869.799	57
869.972	26.28
870.145	24.23
870.319	28.33
870.492	-0.34
870.665	69.29
870.838	-14.68
871.011	-0.34
871.185	-49.49
871.358	-16.73
871.531	7.85
871.704	-16.73
871.877	46.76
872.05	-61.78
872.223	-20.82
872.396	28.33
872.569	81.58
872.742	-49.49
872.915	16.04
873.088	-33.11
873.261	40.62
873.434	65.19
873.607	40.62
873.78	97.96
873.953	44.71
874.126	28.33
874.299	-65.88
874.471	22.19
874.644	-41.3
874.817	-65.88
874.99	114.34
875.163	-37.2
875.335	28.33
875.508	22.19
875.681	-4.44
875.853	-41.3
876.026	-0.34
876.199	-24.92
876.371	36.52
876.544	13.99
876.717	83.63
876.889	26.28
877.062	16.04
877.234	-33.11
877.407	-24.92
877.579	1.71
877.752	-6.49
877.924	59.05
878.097	-2.39
878.269	-22.87
878.442	36.52
878.614	7.85
878.786	57
878.959	106.15
879.131	-12.63
879.303	-69.97
879.476	32.43
879.648	18.09
879.82	-0.34
879.993	1.71
880.165	-33.11
880.337	13.99
880.509	16.04
880.681	-14.68
880.854	-39.25
881.026	34.47
881.198	36.52
881.37	-0.34
881.542	7.85
881.714	-0.34
881.886	52.91
882.058	-67.92
882.23	-49.49
882.402	-8.53
882.574	-65.88
882.746	-18.77
882.918	54.95
883.09	24.23
883.262	36.52
883.434	16.04
883.606	18.09
883.778	3.75
883.95	59.05
884.122	-55.64
884.293	38.57
884.465	-12.63
884.637	48.81
884.809	-14.68
884.98	26.28
885.152	-6.49
885.324	7.85
885.496	-18.77
885.667	34.47
885.839	40.62
886.011	-4.44
886.182	89.77
886.354	-24.92
886.525	-16.73
886.697	-2.39
886.869	-55.64
887.04	-26.96
887.212	85.67
887.383	50.86
887.555	-57.68
887.726	-8.53
887.897	24.23
888.069	-37.2
888.24	48.81
888.412	-41.3
888.583	32.43
888.754	32.43
888.926	20.14
889.097	24.23
889.268	-37.2
889.44	9.9
889.611	-65.88
889.782	-20.82
889.953	9.9
890.125	57
890.296	-20.82
890.467	93.87
890.638	1.71
890.809	-39.25
890.98	-37.2
891.151	9.9
891.323	61.1
891.494	-8.53
891.665	-6.49
891.836	7.85
892.007	-22.87
892.178	-39.25
892.349	-8.53
892.52	16.04
892.691	-14.68
892.862	9.9
893.032	-82.26
893.203	-24.92
893.374	1.71
893.545	7.85
893.716	-20.82
893.887	36.52
894.057	-29.01
894.228	52.91
894.399	16.04
894.57	-4.44
894.74	16.04
894.911	11.95
895.082	7.85
895.253	9.9
895.423	-47.44
895.594	16.04
895.764	3.75
895.935	-14.68
896.106	-16.73
896.276	18.09
896.447	-90.45
896.617	-24.92
896.788	-24.92
896.958	-8.53
897.129	-76.12
897.299	-14.68
897.47	7.85
897.64	13.99
897.81	-22.87
897.981	40.62
898.151	-47.44
898.322	16.04
898.492	54.95
898.662	7.85
898.832	-16.73
899.003	-33.11
899.173	-16.73
899.343	-39.25
899.513	-57.68
