Data from USB4F104151__239__14-34-06-811.txt Node

Date: Thu Mar 13 14:34:06 EDT 2025
User: louis
Spectrometer: USB4F10415
Trigger mode: 4
Integration Time (sec): 2.500000E-2
Scans to average: 1
Electric dark correction enabled: true
Nonlinearity correction enabled: false
Boxcar width: 0
XAxis mode: Wavelengths
Number of Pixels in Spectrum: 3648
>>>>>Begin Spectral Data<<<<<
178.204	-108.03
178.424	-108.03
178.644	-108.03
178.864	-179.71
179.084	-99.84
179.304	-50.69
179.524	2.56
179.744	-1.54
179.964	61.95
180.184	-3.58
180.404	-32.26
180.624	18.94
180.844	-5.63
181.064	-52.74
181.283	10.75
181.503	-5.63
181.723	57.86
181.943	-15.87
182.163	86.53
182.383	-3.58
182.602	82.43
182.822	109.05
183.042	72.19
183.262	-46.59
183.482	94.72
183.701	4.61
183.921	41.47
184.141	16.9
184.361	39.42
184.58	66.05
184.8	16.9
185.02	29.18
185.239	70.14
185.459	31.23
185.679	98.81
185.898	64
186.118	104.96
186.338	61.95
186.557	14.85
186.777	-1.54
186.997	51.71
187.216	64
187.436	51.71
187.655	55.81
187.875	45.57
188.095	45.57
188.314	74.24
188.534	23.04
188.753	-3.58
188.973	39.42
189.192	64
189.412	68.09
189.631	66.05
189.851	80.38
190.07	104.96
190.29	16.9
190.509	8.7
190.729	45.57
190.948	37.38
191.168	145.92
191.387	113.15
191.607	39.42
191.826	20.99
192.045	72.19
192.265	70.14
192.484	55.81
192.704	-19.97
192.923	25.09
193.142	111.1
193.362	33.28
193.581	96.77
193.8	23.04
194.02	-3.58
194.239	-1.54
194.458	14.85
194.678	41.47
194.897	33.28
195.116	-17.92
195.335	64
195.555	-26.11
195.774	37.38
195.993	102.91
196.212	66.05
196.432	37.38
196.651	49.66
196.87	20.99
197.089	61.95
197.308	86.53
197.528	92.67
197.747	-30.21
197.966	109.05
198.185	100.86
198.404	8.7
198.623	72.19
198.842	23.04
199.062	102.91
199.281	100.86
199.5	72.19
199.719	20.99
199.938	78.33
200.157	47.62
200.376	-11.78
200.595	37.38
200.814	2.56
201.033	53.76
201.252	78.33
201.471	55.81
201.69	127.49
201.909	27.14
202.128	64
202.347	4.61
202.566	-11.78
202.785	37.38
203.004	45.57
203.223	152.06
203.442	53.76
203.661	61.95
203.879	84.48
204.098	45.57
204.317	61.95
204.536	90.62
204.755	59.9
204.974	51.71
205.193	39.42
205.411	127.49
205.63	94.72
205.849	37.38
206.068	-24.06
206.287	78.33
206.505	23.04
206.724	14.85
206.943	-7.68
207.162	4.61
207.381	86.53
207.599	102.91
207.818	47.62
208.037	66.05
208.255	-52.74
208.474	55.81
208.693	18.94
208.911	6.66
209.13	39.42
209.349	107.01
209.567	74.24
209.786	119.29
210.005	53.76
210.223	64
210.442	27.14
210.661	84.48
210.879	68.09
211.098	66.05
211.316	70.14
211.535	78.33
211.753	104.96
211.972	53.76
212.191	14.85
212.409	64
212.628	6.66
212.846	-17.92
213.065	49.66
213.283	64
213.502	6.66
213.72	66.05
213.938	-7.68
214.157	20.99
214.375	41.47
214.594	-17.92
214.812	90.62
215.031	18.94
215.249	47.62
215.467	88.57
215.686	8.7
215.904	70.14
216.122	49.66
216.341	37.38
216.559	20.99
216.778	86.53
216.996	115.2
217.214	78.33
217.432	80.38
217.651	53.76
217.869	16.9
218.087	78.33
218.306	4.61
218.524	61.95
218.742	53.76
218.96	70.14
219.179	55.81
219.397	78.33
219.615	193.02
219.833	80.38
220.051	20.99
220.27	94.72
220.488	68.09
220.706	49.66
220.924	-15.87
221.142	61.95
221.36	-7.68
221.578	66.05
221.796	57.86
222.015	152.06
222.233	55.81
222.451	102.91
222.669	20.99
222.887	20.99
223.105	-5.63
223.323	86.53
223.541	31.23
223.759	96.77
223.977	98.81
224.195	37.38
224.413	31.23
224.631	74.24
224.849	29.18
225.067	129.53
225.285	74.24
225.503	49.66
225.721	-17.92
225.939	86.53
226.157	45.57
226.375	107.01
226.592	-24.06
226.81	37.38
227.028	61.95
227.246	150.01
227.464	8.7
227.682	37.38
227.9	86.53
228.117	37.38
228.335	59.9
228.553	14.85
228.771	82.43
228.989	43.52
229.206	41.47
229.424	74.24
229.642	96.77
229.86	-11.78
230.077	82.43
230.295	70.14
230.513	35.33
230.731	4.61
230.948	129.53
231.166	113.15
231.384	20.99
231.601	80.38
231.819	84.48
232.037	-9.73
232.254	57.86
232.472	-1.54
232.689	-11.78
232.907	57.86
233.125	41.47
233.342	-42.5
233.56	-40.45
233.777	37.38
233.995	39.42
234.213	107.01
234.43	-1.54
234.648	37.38
234.865	111.1
235.083	-17.92
235.3	53.76
235.518	111.1
235.735	90.62
235.953	49.66
236.17	12.8
236.388	4.61
236.605	39.42
236.822	164.35
237.04	90.62
237.257	55.81
237.475	-40.45
237.692	37.38
237.909	53.76
238.127	2.56
238.344	86.53
238.562	68.09
238.779	-11.78
238.996	53.76
239.214	-1.54
239.431	94.72
239.648	88.57
239.865	37.38
240.083	119.29
240.3	86.53
240.517	70.14
240.735	45.57
240.952	90.62
241.169	111.1
241.386	68.09
241.603	61.95
241.821	33.28
242.038	78.33
242.255	14.85
242.472	12.8
242.689	57.86
242.907	96.77
243.124	25.09
243.341	-3.58
243.558	4.61
243.775	57.86
243.992	31.23
244.209	80.38
244.426	113.15
244.643	82.43
244.86	-3.58
245.078	72.19
245.295	86.53
245.512	23.04
245.729	70.14
245.946	74.24
246.163	82.43
246.38	31.23
246.597	80.38
246.814	20.99
247.031	86.53
247.248	127.49
247.464	57.86
247.681	70.14
247.898	57.86
248.115	59.9
248.332	12.8
248.549	51.71
248.766	109.05
248.983	25.09
249.2	23.04
249.417	96.77
249.633	20.99
249.85	86.53
250.067	61.95
250.284	55.81
250.501	57.86
250.717	57.86
250.934	16.9
251.151	53.76
251.368	25.09
251.585	80.38
251.801	39.42
252.018	70.14
252.235	57.86
252.451	29.18
252.668	51.71
252.885	61.95
253.102	-11.78
253.318	37.38
253.535	45.57
253.752	29.18
253.968	49.66
254.185	4.61
254.401	-13.82
254.618	61.95
254.835	61.95
255.051	154.11
255.268	55.81
255.484	41.47
255.701	74.24
255.917	55.81
256.134	-1.54
256.351	53.76
256.567	-5.63
256.784	8.7
257	12.8
257.217	61.95
257.433	25.09
257.65	66.05
257.866	94.72
258.082	86.53
258.299	12.8
258.515	127.49
258.732	55.81
258.948	57.86
259.165	53.76
259.381	49.66
259.597	70.14
259.814	96.77
260.03	82.43
260.246	25.09
260.463	113.15
260.679	47.62
260.895	2.56
261.112	72.19
261.328	23.04
261.544	37.38
261.761	82.43
261.977	37.38
262.193	20.99
262.409	86.53
262.626	133.63
262.842	4.61
263.058	-19.97
263.274	147.97
263.49	96.77
263.707	90.62
263.923	70.14
264.139	55.81
264.355	20.99
264.571	107.01
264.787	53.76
265.004	86.53
265.22	70.14
265.436	31.23
265.652	-1.54
265.868	33.28
266.084	0.51
266.3	61.95
266.516	57.86
266.732	72.19
266.948	16.9
267.164	61.95
267.38	53.76
267.596	47.62
267.812	119.29
268.028	113.15
268.244	51.71
268.46	119.29
268.676	-1.54
268.892	127.49
269.108	-19.97
269.324	25.09
269.54	8.7
269.756	86.53
269.972	86.53
270.188	64
270.403	41.47
270.619	0.51
270.835	59.9
271.051	61.95
271.267	20.99
271.483	49.66
271.698	51.71
271.914	25.09
272.13	23.04
272.346	90.62
272.562	45.57
272.777	131.58
272.993	45.57
273.209	123.39
273.425	39.42
273.64	-3.58
273.856	72.19
274.072	49.66
274.287	31.23
274.503	66.05
274.719	53.76
274.934	31.23
275.15	41.47
275.366	33.28
275.581	31.23
275.797	25.09
276.012	41.47
276.228	25.09
276.444	53.76
276.659	-42.5
276.875	-24.06
277.09	53.76
277.306	78.33
277.521	37.38
277.737	20.99
277.952	129.53
278.168	0.51
278.383	6.66
278.599	70.14
278.814	102.91
279.03	49.66
279.245	86.53
279.461	31.23
279.676	127.49
279.892	35.33
280.107	59.9
280.322	23.04
280.538	61.95
280.753	39.42
280.969	57.86
281.184	16.9
281.399	80.38
281.615	0.51
281.83	29.18
282.045	37.38
282.26	59.9
282.476	61.95
282.691	-32.26
282.906	61.95
283.122	29.18
283.337	4.61
283.552	82.43
283.767	33.28
283.983	98.81
284.198	111.1
284.413	96.77
284.628	57.86
284.843	70.14
285.058	76.29
285.274	55.81
285.489	41.47
285.704	70.14
285.919	53.76
286.134	25.09
286.349	78.33
286.564	80.38
286.779	37.38
286.995	0.51
287.21	80.38
287.425	109.05
287.64	37.38
287.855	53.76
288.07	-11.78
288.285	57.86
288.5	94.72
288.715	102.91
288.93	16.9
289.145	88.57
289.36	29.18
289.575	37.38
289.79	45.57
290.004	68.09
290.219	78.33
290.434	61.95
290.649	88.57
290.864	-32.26
291.079	4.61
291.294	115.2
291.509	55.81
291.724	45.57
291.938	70.14
292.153	41.47
292.368	41.47
292.583	53.76
292.798	119.29
293.012	88.57
293.227	70.14
293.442	78.33
293.657	115.2
293.871	158.21
294.086	123.39
294.301	90.62
294.516	78.33
294.73	86.53
294.945	53.76
295.16	37.38
295.374	117.25
295.589	82.43
295.804	39.42
296.018	47.62
296.233	27.14
296.447	27.14
296.662	-42.5
296.877	66.05
297.091	123.39
297.306	12.8
297.52	31.23
297.735	47.62
297.949	53.76
298.164	57.86
298.378	53.76
298.593	66.05
298.807	-3.58
299.022	61.95
299.236	64
299.451	29.18
299.665	31.23
299.88	4.61
300.094	72.19
300.309	82.43
300.523	94.72
300.737	29.18
300.952	66.05
301.166	102.91
301.381	35.33
301.595	16.9
301.809	150.01
302.024	59.9
302.238	12.8
302.452	129.53
302.667	47.62
302.881	131.58
303.095	109.05
303.309	61.95
303.524	88.57
303.738	111.1
303.952	45.57
304.166	94.72
304.381	-54.78
304.595	61.95
304.809	33.28
305.023	74.24
305.237	102.91
305.452	59.9
305.666	119.29
305.88	59.9
306.094	86.53
306.308	86.53
306.522	55.81
306.736	45.57
306.95	119.29
307.164	23.04
307.379	72.19
307.593	127.49
307.807	76.29
308.021	82.43
308.235	10.75
308.449	12.8
308.663	-1.54
308.877	90.62
309.091	55.81
309.305	20.99
309.519	53.76
309.733	41.47
309.947	55.81
310.161	61.95
310.374	119.29
310.588	139.77
310.802	-1.54
311.016	20.99
311.23	53.76
311.444	6.66
311.658	-7.68
311.872	100.86
312.085	12.8
312.299	123.39
312.513	156.16
312.727	49.66
312.941	20.99
313.154	47.62
313.368	18.94
313.582	61.95
313.796	100.86
314.009	33.28
314.223	53.76
314.437	74.24
314.651	72.19
314.864	-7.68
315.078	86.53
315.292	55.81
315.505	6.66
315.719	78.33
315.933	78.33
316.146	80.38
316.36	59.9
316.573	-11.78
316.787	131.58
317.001	37.38
317.214	80.38
317.428	16.9
317.641	4.61
317.855	61.95
318.068	78.33
318.282	96.77
318.495	94.72
318.709	90.62
318.922	37.38
319.136	39.42
319.349	84.48
319.563	111.1
319.776	41.47
319.99	20.99
320.203	94.72
320.417	94.72
320.63	70.14
320.843	86.53
321.057	53.76
321.27	98.81
321.483	43.52
321.697	88.57
321.91	70.14
322.124	88.57
322.337	129.53
322.55	4.61
322.763	66.05
322.977	104.96
323.19	12.8
323.403	53.76
323.617	45.57
323.83	70.14
324.043	-60.93
324.256	139.77
324.469	47.62
324.683	78.33
324.896	35.33
325.109	111.1
325.322	37.38
325.535	131.58
325.748	57.86
325.962	27.14
326.175	86.53
326.388	104.96
326.601	82.43
326.814	25.09
327.027	70.14
327.24	113.15
327.453	-50.69
327.666	66.05
327.879	129.53
328.092	47.62
328.305	41.47
328.518	4.61
328.731	53.76
328.944	92.67
329.157	53.76
329.37	57.86
329.583	94.72
329.796	109.05
330.009	-58.88
330.222	59.9
330.435	49.66
330.648	86.53
330.861	29.18
331.073	61.95
331.286	16.9
331.499	49.66
331.712	14.85
331.925	88.57
332.138	61.95
332.35	86.53
332.563	-19.97
332.776	41.47
332.989	70.14
333.202	61.95
333.414	119.29
333.627	168.45
333.84	31.23
334.053	47.62
334.265	4.61
334.478	6.66
334.691	18.94
334.903	96.77
335.116	96.77
335.329	94.72
335.541	61.95
335.754	94.72
335.966	59.9
336.179	111.1
336.392	51.71
336.604	0.51
336.817	104.96
337.029	-52.74
337.242	139.77
337.454	135.68
337.667	80.38
337.88	143.87
338.092	78.33
338.305	47.62
338.517	23.04
338.729	66.05
338.942	61.95
339.154	70.14
339.367	-50.69
339.579	104.96
339.792	-3.58
340.004	78.33
340.217	37.38
340.429	49.66
340.641	-24.06
340.854	88.57
341.066	59.9
341.278	78.33
341.491	102.91
341.703	53.76
341.915	14.85
342.128	94.72
342.34	12.8
342.552	72.19
342.764	53.76
342.977	41.47
343.189	66.05
343.401	129.53
343.613	74.24
343.826	150.01
344.038	117.25
344.25	137.73
344.462	-3.58
344.674	55.81
344.886	64
345.099	119.29
345.311	94.72
345.523	31.23
345.735	20.99
345.947	90.62
346.159	47.62
346.371	66.05
346.583	41.47
346.795	131.58
347.007	121.34
347.219	127.49
347.431	20.99
347.643	72.19
347.855	70.14
348.067	162.3
348.279	35.33
348.491	61.95
348.703	74.24
348.915	29.18
349.127	127.49
349.339	45.57
349.551	37.38
349.763	53.76
349.975	55.81
350.187	119.29
350.399	127.49
350.61	45.57
350.822	92.67
351.034	127.49
351.246	49.66
351.458	35.33
351.669	88.57
351.881	139.77
352.093	109.05
352.305	107.01
352.517	70.14
352.728	115.2
352.94	86.53
353.152	88.57
353.363	64
353.575	135.68
353.787	115.2
353.999	70.14
354.21	190.97
354.422	14.85
354.633	135.68
354.845	158.21
355.057	86.53
355.268	64
355.48	115.2
355.692	109.05
355.903	74.24
356.115	35.33
356.326	20.99
356.538	94.72
356.749	82.43
356.961	137.73
357.172	57.86
357.384	37.38
357.595	131.58
357.807	23.04
358.018	102.91
358.23	61.95
358.441	131.58
358.653	111.1
358.864	86.53
359.075	66.05
359.287	80.38
359.498	137.73
359.709	55.81
359.921	80.38
360.132	96.77
360.344	104.96
360.555	12.8
360.766	104.96
360.977	61.95
361.189	45.57
361.4	0.51
361.611	121.34
361.823	154.11
362.034	57.86
362.245	31.23
362.456	78.33
362.667	96.77
362.879	84.48
363.09	10.75
363.301	92.67
363.512	12.8
363.723	45.57
363.935	41.47
364.146	47.62
364.357	-11.78
364.568	123.39
364.779	45.57
364.99	45.57
365.201	31.23
365.412	137.73
365.623	29.18
365.834	135.68
366.045	119.29
366.256	90.62
366.467	176.64
366.678	33.28
366.889	107.01
367.1	37.38
367.311	84.48
367.522	29.18
367.733	129.53
367.944	25.09
368.155	127.49
368.366	78.33
368.577	102.91
368.788	143.87
368.999	135.68
369.209	164.35
369.42	82.43
369.631	96.77
369.842	72.19
370.053	96.77
370.264	139.77
370.474	37.38
370.685	119.29
370.896	90.62
371.107	86.53
371.317	70.14
371.528	135.68
371.739	51.71
371.95	72.19
372.16	115.2
372.371	2.56
372.582	33.28
372.792	127.49
373.003	100.86
373.214	43.52
373.424	55.81
373.635	82.43
373.846	94.72
374.056	104.96
374.267	107.01
374.477	188.93
374.688	82.43
374.898	64
375.109	100.86
375.319	119.29
375.53	94.72
375.74	107.01
375.951	94.72
376.161	80.38
376.372	111.1
376.582	107.01
376.793	86.53
377.003	80.38
377.214	20.99
377.424	100.86
377.635	66.05
377.845	39.42
378.055	61.95
378.266	94.72
378.476	37.38
378.686	25.09
378.897	64
379.107	115.2
379.317	94.72
379.528	115.2
379.738	55.81
379.948	-34.3
380.158	88.57
380.369	72.19
380.579	88.57
380.789	33.28
380.999	141.82
381.21	123.39
381.42	70.14
381.63	86.53
381.84	61.95
382.05	37.38
382.261	121.34
382.471	168.45
382.681	29.18
382.891	61.95
383.101	111.1
383.311	41.47
383.521	86.53
383.731	88.57
383.941	178.69
384.151	80.38
384.361	195.07
384.571	78.33
384.781	70.14
384.991	164.35
385.201	145.92
385.411	109.05
385.621	135.68
385.831	123.39
386.041	88.57
386.251	111.1
386.461	37.38
386.671	102.91
386.881	80.38
387.091	20.99
387.301	127.49
387.511	72.19
387.72	137.73
387.93	94.72
388.14	66.05
388.35	70.14
388.56	96.77
388.769	49.66
388.979	102.91
389.189	61.95
389.399	84.48
389.609	135.68
389.818	133.63
390.028	49.66
390.238	137.73
390.447	96.77
390.657	78.33
390.867	94.72
391.076	90.62
391.286	98.81
391.496	133.63
391.705	90.62
391.915	86.53
392.125	94.72
392.334	143.87
392.544	107.01
392.753	55.81
392.963	152.06
393.172	78.33
393.382	184.83
393.591	129.53
393.801	102.91
394.01	133.63
394.22	86.53
394.429	121.34
394.639	143.87
394.848	197.12
395.058	154.11
395.267	201.21
395.477	158.21
395.686	145.92
395.895	172.54
396.105	264.7
396.314	72.19
396.524	119.29
396.733	39.42
396.942	233.98
397.152	113.15
397.361	125.44
397.57	186.88
397.78	102.91
397.989	162.3
398.198	238.08
398.407	82.43
398.617	176.64
398.826	152.06
399.035	96.77
399.244	211.45
399.453	115.2
399.663	203.26
399.872	147.97
400.081	160.25
400.29	225.79
400.499	139.77
400.708	211.45
400.917	199.16
401.127	221.69
401.336	170.49
401.545	180.73
401.754	139.77
401.963	102.91
402.172	197.12
402.381	72.19
402.59	164.35
402.799	193.02
403.008	176.64
403.217	229.88
403.426	143.87
403.635	193.02
403.844	193.02
404.053	86.53
404.262	260.6
404.471	238.08
404.68	242.17
404.888	186.88
405.097	305.66
405.306	256.51
405.515	209.4
405.724	233.98
405.933	283.13
406.142	211.45
406.35	342.52
406.559	309.76
406.768	279.04
406.977	244.22
407.185	299.52
407.394	315.9
407.603	336.38
407.812	367.1
408.02	324.09
408.229	344.57
408.438	430.59
408.646	338.43
408.855	346.62
409.064	293.37
409.272	383.48
409.481	385.53
409.69	369.15
409.898	442.87
410.107	516.6
410.315	446.97
410.524	545.27
410.733	485.88
410.941	569.85
411.15	567.8
411.358	614.9
411.567	659.96
411.775	619
411.984	606.71
412.192	711.16
412.401	647.67
412.609	752.12
412.818	799.22
413.026	766.45
413.234	782.84
413.443	823.8
413.651	768.5
413.86	823.8
414.068	963.06
414.276	981.49
414.485	956.91
414.693	938.48
414.901	1036.78
415.11	1081.84
415.318	1059.31
415.526	1221.1
415.734	1118.7
415.943	1192.43
416.151	1245.68
416.359	1247.72
416.567	1323.5
416.776	1294.83
416.984	1432.04
417.192	1475.05
417.4	1442.28
417.608	1487.34
417.817	1546.73
418.025	1661.41
418.233	1802.72
418.441	1821.16
418.649	1876.45
418.857	1853.92
419.065	2013.67
419.273	1929.7
419.481	1970.66
419.689	2142.69
419.897	2277.85
420.105	2335.2
420.313	2327
420.521	2564.57
420.729	2601.43
420.937	2576.86
421.145	2744.79
421.353	2691.54
421.561	2904.53
421.769	2906.58
421.977	3082.7
422.185	3064.27
422.393	3240.4
422.601	3506.63
422.809	3473.87
423.017	3473.87
423.224	3617.22
423.432	3699.14
423.64	3627.46
423.848	4153.79
424.056	3957.19
424.263	4409.79
424.471	4264.38
424.679	4420.03
424.887	4723.13
425.094	4671.93
425.302	4684.22
425.51	5056.95
425.718	5020.08
425.925	5112.24
426.133	5476.78
426.341	5626.28
426.548	5831.08
426.756	5894.57
426.964	5896.61
427.171	6095.27
427.379	6535.58
427.586	6527.39
427.794	6650.27
428.001	7119.25
428.209	7395.73
428.417	7313.81
428.624	7780.75
428.832	7747.98
429.039	7754.12
429.247	7770.51
429.454	8378.75
429.662	8872.31
429.869	8405.38
430.076	9154.93
430.284	8685.95
430.491	9261.43
430.699	9664.88
430.906	9691.5
431.114	9720.17
431.321	10230.12
431.528	10228.07
431.736	11217.24
431.943	11542.86
432.15	11133.27
432.358	11284.82
432.565	11903.31
432.772	11757.9
432.979	12425.54
433.187	12489.03
433.394	12683.58
433.601	13547.83
433.808	13836.59
434.016	13676.85
434.223	14043.43
434.43	15135
434.637	14766.37
434.844	15483.16
435.052	15841.55
435.259	15894.8
435.466	15847.69
435.673	15960.33
435.88	16615.68
436.087	17744.11
436.294	17643.76
436.501	16943.36
436.708	17834.22
436.915	18366.7
437.122	18880.74
437.329	19007.71
437.537	19747.03
437.743	19910.86
437.95	19615.96
438.157	20834.5
438.364	21381.31
438.571	21209.28
438.778	21446.84
438.985	23572.63
439.192	22417.58
439.399	23009.44
439.606	22456.49
439.813	24033.43
440.02	25565.31
440.227	24707.21
440.433	24852.61
440.64	25585.79
440.847	25614.46
441.054	25860.21
441.261	27943
441.467	27404.38
441.674	28076.12
441.881	28956.74
442.088	28627.02
442.294	28618.83
442.501	29130.82
442.708	29884.47
442.914	30818.35
443.121	32110.61
443.328	31770.65
443.534	33677.31
443.741	32542.74
443.948	32153.62
444.154	34469.87
444.361	34322.42
444.568	34543.6
444.774	34443.25
444.981	34914.28
445.187	35899.36
445.394	36986.83
445.6	36696.02
445.807	40361.88
446.013	38692.79
446.22	39229.35
446.426	41144.2
446.633	41432.97
446.839	42641.27
447.046	40718.23
447.252	43179.89
447.459	43192.17
447.665	43151.21
447.871	45080.4
448.078	46722.87
448.284	44423
448.491	45541.19
448.697	47241.01
448.903	48236.32
449.11	47851.3
449.316	47658.79
449.522	48469.79
449.728	49501.96
449.935	50063.11
450.141	49829.64
450.347	50351.87
450.553	49399.57
450.76	49770.25
450.966	51721.96
451.172	50867.96
451.378	52442.85
451.584	50890.49
451.791	52381.41
451.997	52590.3
452.203	53569.23
452.409	53239.51
452.615	53081.81
452.821	51001.08
453.027	50544.38
453.233	52862.68
453.44	51181.3
453.646	51474.16
453.852	51793.64
454.058	52557.53
454.264	50884.34
454.47	52029.16
454.676	50986.74
454.882	52692.7
455.088	48127.78
455.294	48715.54
455.5	49528.59
455.705	50112.26
455.911	48242.46
456.117	47357.74
456.323	46618.42
456.529	44334.94
456.735	46165.82
456.941	45195.09
457.147	44498.78
457.352	42884.98
457.558	42391.42
457.764	42780.53
457.97	41654.15
458.176	40824.72
458.381	41308.04
458.587	38764.46
458.793	38830
458.999	36941.77
459.204	39606.18
459.41	38604.72
459.616	35770.33
459.821	35915.74
460.027	35835.87
460.233	35141.61
460.438	33470.47
460.644	33931.26
460.85	32385.04
461.055	31477.79
461.261	31651.87
461.466	29048.9
461.672	28352.59
461.878	30292.02
462.083	28637.26
462.289	27756.63
462.494	27492.44
462.7	26380.4
462.905	25655.42
463.111	26267.76
463.316	26587.24
463.522	25872.5
463.727	26071.15
463.932	25935.99
464.138	25688.18
464.343	25469.05
464.549	25284.73
464.754	25542.78
464.959	25692.28
465.165	25579.64
465.37	24021.14
465.575	23769.24
465.781	24488.07
465.986	24602.76
466.191	23787.67
466.397	23349.4
466.602	22427.82
466.807	23224.48
467.012	23160.99
467.218	22845.6
467.423	22409.39
467.628	22681.77
467.833	23916.69
468.038	22538.41
468.244	22040.75
468.449	23005.34
468.654	22241.45
468.859	21774.52
469.064	22018.22
469.269	21336.25
469.474	21237.95
469.679	21637.3
469.885	21131.45
470.09	21358.78
470.295	21117.12
470.5	20648.13
470.705	20807.87
470.91	20426.95
471.115	20140.24
471.32	20502.73
471.525	20639.94
471.73	20095.18
471.935	19833.04
472.139	19118.3
472.344	19482.84
472.549	19142.88
472.754	18952.41
472.959	18501.86
473.164	18149.61
473.369	18057.45
473.574	18434.28
473.778	18100.46
473.983	18176.23
474.188	18278.63
474.393	17643.76
474.598	17529.08
474.802	17142.01
475.007	17225.98
475.212	17019.13
475.417	16283.91
475.621	16396.55
475.826	16668.93
476.031	16566.53
476.235	15862.03
476.44	16179.47
476.645	15888.65
476.849	16081.16
477.054	15538.45
477.259	15282.45
477.463	15530.26
477.668	15126.81
477.872	15223.06
478.077	15036.7
478.282	14518.56
478.486	14672.16
478.691	14330.15
478.895	14567.71
479.1	14571.81
479.304	14389.54
479.509	13916.46
479.713	14055.72
479.918	13848.88
480.122	13633.84
480.326	13973.8
480.531	13820.21
480.735	13740.33
480.94	13451.57
481.144	13881.64
481.348	13441.33
481.553	13519.15
481.757	13482.29
481.961	13328.69
482.166	13445.43
482.37	13447.47
482.574	13246.77
482.778	13136.18
482.983	13463.86
483.187	13238.58
483.391	13343.03
483.595	13209.91
483.8	13166.9
484.004	13119.8
484.208	13214.01
484.412	13209.91
484.616	13138.23
484.821	13340.98
485.025	13263.16
485.229	13373.75
485.433	13136.18
485.637	13320.5
485.841	13072.7
486.045	13132.09
486.249	13291.83
486.453	13248.82
486.657	13226.29
486.861	13254.97
487.065	12972.35
487.269	13193.53
487.473	12849.47
487.677	13254.97
487.881	13214.01
488.085	13103.42
488.289	13037.88
488.493	12921.15
488.697	13138.23
488.901	13293.88
489.105	13003.07
489.309	13230.39
489.512	13220.15
489.716	13463.86
489.92	13267.25
490.124	13357.36
490.328	13723.95
490.531	13084.98
490.735	13388.08
490.939	13480.24
491.143	13412.66
491.346	13392.18
491.55	13873.45
491.754	13570.35
491.958	13678.9
492.161	13947.18
492.365	13787.44
492.569	13672.75
492.772	13793.58
492.976	13822.25
493.18	13943.08
493.383	14164.26
493.587	14135.59
493.79	14313.77
493.994	14104.87
494.197	14123.3
494.401	14465.32
494.605	14352.68
494.808	14473.51
495.012	14461.22
495.215	14889.24
495.419	14852.38
495.622	14827.81
495.825	15120.67
496.029	14909.72
496.232	15358.23
496.436	15384.85
496.639	15782.16
496.843	15552.79
497.046	15702.29
497.249	15935.76
497.453	16034.06
497.656	16029.96
497.859	15868.17
498.063	16249.1
498.266	16685.31
498.469	16533.76
498.673	16509.19
498.876	16910.59
499.079	17053.95
499.282	17213.69
499.485	17608.95
499.689	17682.67
499.892	17701.11
500.095	17803.5
500.298	18198.76
500.501	18059.5
500.705	18471.14
500.908	18925.79
501.111	18680.03
501.314	18989.28
501.517	18987.23
501.72	19677.4
501.923	19181.79
502.126	19886.29
502.329	20181.2
502.532	20064.46
502.735	20082.89
502.938	20441.29
503.141	20771.01
503.344	21168.32
503.547	20961.47
503.75	21469.37
503.953	21799.09
504.156	21813.43
504.359	22110.38
504.562	22241.45
504.765	22491.3
504.968	22681.77
505.17	23064.74
505.373	22991.01
505.576	23312.54
505.779	23734.42
505.982	23824.53
506.185	24223.89
506.387	24350.86
506.59	24440.97
506.793	24936.58
506.996	24737.93
507.198	25383.04
507.401	25497.72
507.604	25618.55
507.807	26284.14
508.009	26339.44
508.212	26638.44
508.415	27191.39
508.617	27029.6
508.82	27277.41
509.022	27234.4
509.225	28061.78
509.428	27996.24
509.63	28475.47
509.833	28676.17
510.035	29259.84
510.238	29091.91
510.44	29333.57
510.643	29589.56
510.845	29878.33
511.048	30027.83
511.25	30187.57
511.453	30595.12
511.655	31619.1
511.858	31076.39
512.06	31381.54
512.262	31713.31
512.465	32127
512.667	32430.1
512.87	32643.09
513.072	32534.54
513.274	32886.79
513.477	33417.22
513.679	33820.67
513.881	33992.7
514.084	34424.82
514.286	34406.39
514.488	34496.5
514.69	35479.52
514.893	35360.74
515.095	35624.93
515.297	36042.71
515.499	36306.9
515.701	36317.14
515.904	36884.43
516.106	37070.79
516.308	37435.33
516.51	37801.92
516.712	38281.14
516.914	37965.76
517.116	38567.86
517.318	38830
517.52	39108.52
517.722	39516.07
517.925	39995.29
518.127	40163.23
518.329	40161.18
518.531	40183.71
518.733	41187.21
518.935	41176.97
519.136	41142.16
519.338	41789.31
519.54	41781.12
519.742	42325.88
519.944	42344.31
520.146	42895.22
520.348	42692.47
520.55	43065.2
520.752	43073.39
520.954	43978.59
521.155	43708.26
521.357	44171.1
521.559	44390.23
521.761	44867.41
521.963	45342.54
522.164	45000.53
522.366	45131.6
522.568	45760.33
522.77	45117.26
522.971	46174.02
523.173	45737.8
523.375	46335.8
523.576	45911.88
523.778	46499.64
523.98	46747.45
524.181	47109.94
524.383	46952.24
524.584	47185.71
524.786	47497
524.988	47134.51
525.189	47558.44
525.391	48006.95
525.592	48002.85
525.794	48490.27
525.995	47763.24
526.197	47888.17
526.398	48211.74
526.6	48709.4
526.801	48801.56
527.003	48520.99
527.204	48865.05
527.406	49002.26
527.607	48920.34
527.808	49188.63
528.01	48506.65
528.211	48883.48
528.412	49854.22
528.614	49209.11
528.815	49702.67
529.016	50226.95
529.218	49403.66
529.419	49454.86
529.62	49809.16
529.822	49243.92
530.023	49805.06
530.224	49471.25
530.425	49536.78
530.626	49428.24
530.828	48912.15
531.029	50257.67
531.23	49383.18
531.431	49301.26
531.632	49348.37
531.833	49790.73
532.035	49186.58
532.236	49501.96
532.437	49547.02
532.638	49016.6
532.839	49235.73
533.04	49622.79
533.241	48942.87
533.442	49585.93
533.643	49551.12
533.844	49372.94
534.045	49727.24
534.246	49088.27
534.447	49219.34
534.648	49071.89
534.849	49553.16
535.05	49172.24
535.251	49301.26
535.451	48809.75
535.652	49446.67
535.853	49118.99
536.054	48936.73
536.255	49053.46
536.456	48764.7
536.657	49170.19
536.857	48662.3
537.058	48455.45
537.259	49483.53
537.46	48748.31
537.66	48471.84
537.861	49065.75
538.062	48643.87
538.263	48989.97
538.463	48443.16
538.664	48338.72
538.865	49100.56
539.065	48959.25
539.266	48228.13
539.466	49141.52
539.667	47890.21
539.868	48731.93
540.068	48684.83
540.269	48215.84
540.469	48756.5
540.67	48342.81
540.87	48316.19
541.071	48203.55
541.271	48353.05
541.472	48473.88
541.672	48365.34
541.873	48058.15
542.073	47896.36
542.274	48414.49
542.474	47920.93
542.675	47238.96
542.875	48875.29
543.075	47918.88
543.276	47394.6
543.476	48316.19
543.676	47718.18
543.877	48039.71
544.077	47998.76
544.277	48308
544.478	47984.42
544.678	47877.93
544.878	47580.97
545.078	47824.68
545.279	47666.98
545.479	47808.29
545.679	47677.22
545.879	47697.7
546.079	47673.13
546.28	47597.35
546.48	47460.14
546.68	47871.78
546.88	47884.07
547.08	47484.72
547.28	47593.26
547.48	47527.72
547.68	47927.08
547.88	47552.3
548.081	48084.77
548.281	47877.93
548.481	47253.29
548.681	47961.89
548.881	47406.89
549.081	47689.51
549.28	46958.39
549.48	48099.11
549.68	47849.25
549.88	48045.86
550.08	47335.21
550.28	47882.02
550.48	47613.74
550.68	47724.33
550.88	47626.03
551.08	47521.58
551.279	47806.25
551.479	47572.78
551.679	47775.53
551.879	47908.64
552.079	47988.52
552.278	47632.17
552.478	47556.39
552.678	47998.76
552.878	47914.79
553.077	47578.92
553.277	47400.75
553.477	48293.66
553.676	47560.49
553.876	47941.41
554.076	47470.38
554.275	47718.18
554.475	47218.48
554.674	48150.31
554.874	47834.92
555.074	47750.95
555.273	47648.55
555.473	47673.13
555.672	47634.22
555.872	47882.02
556.071	47619.88
556.271	47843.11
556.47	47750.95
556.67	47118.13
556.869	47701.8
557.068	47816.49
557.268	47664.94
557.467	47722.28
557.667	47671.08
557.866	47626.03
558.065	47445.8
558.265	47435.56
558.464	47640.36
558.663	47687.46
558.863	47718.18
559.062	48430.88
559.261	47380.27
559.461	48166.69
559.66	47806.25
559.859	47820.58
560.058	47279.92
560.258	47447.85
560.457	47374.13
560.656	47742.76
560.855	47159.09
561.054	47642.41
561.253	47357.74
561.453	47404.84
561.652	47793.96
561.851	47890.21
562.05	47327.02
562.249	47554.35
562.448	47736.62
562.647	47511.34
562.846	47103.79
563.045	47349.55
563.244	47415.08
563.443	47712.04
563.642	46659.38
563.841	47054.64
564.04	47195.95
564.239	47580.97
564.438	47081.27
564.637	47601.45
564.836	47071.03
565.035	46380.86
565.234	47130.42
565.432	46976.82
565.631	46743.35
565.83	47071.03
566.029	47056.69
566.228	46683.96
566.427	46380.86
566.625	46573.37
566.824	46307.13
567.023	46548.79
567.222	45459.27
567.42	46780.21
567.619	46526.27
567.818	46151.49
568.016	46163.78
568.215	46606.14
568.414	46135.1
568.612	46622.52
568.811	45922.12
569.01	46133.06
569.208	46008.13
569.407	45875.01
569.605	45623.11
569.804	46040.9
570.002	45217.61
570.201	45590.34
570.4	45369.16
570.598	45438.79
570.797	45320.01
570.995	45322.06
571.193	44541.78
571.392	45213.52
571.59	45061.97
571.789	45279.05
571.987	44949.33
572.186	44771.16
572.384	44572.5
572.582	44906.32
572.781	44742.49
572.979	44035.94
573.177	44607.32
573.376	44547.93
573.574	44132.19
573.772	44367.71
573.971	43882.34
574.169	43523.94
574.367	43439.98
574.565	44222.3
574.763	43530.09
574.962	43224.94
575.16	42923.89
575.358	43489.13
575.556	42747.76
575.754	43411.31
575.952	42940.27
576.151	43167.6
576.349	42438.52
576.547	42647.41
576.745	43040.62
576.943	42702.71
577.141	43032.43
577.339	42608.5
577.537	42538.87
577.735	42684.28
577.933	42284.92
578.131	42200.96
578.329	42176.38
578.527	41748.35
578.725	41711.49
578.923	42073.98
579.121	41561.99
579.319	41709.44
579.516	41754.5
579.714	41396.1
579.912	41494.41
580.11	41230.22
580.308	41299.85
580.506	40738.71
580.704	40456.09
580.901	40714.13
581.099	41303.95
581.297	40800.15
581.495	40568.72
581.692	40916.88
581.89	40314.78
582.088	40796.05
582.285	40054.68
582.483	40642.45
582.681	40128.41
582.878	39868.32
583.076	39493.54
583.274	40142.75
583.471	39509.93
583.669	39827.36
583.866	39540.64
584.064	40069.02
584.262	39176.11
584.459	39565.22
584.657	39122.86
584.854	39413.67
585.052	38541.24
585.249	38864.81
585.447	38883.25
585.644	38526.9
585.841	38717.36
586.039	39034.8
586.236	38457.27
586.434	38596.53
586.631	38348.73
586.828	38227.9
587.026	38254.52
587.223	38272.95
587.42	38117.31
587.618	38029.24
587.815	37738.43
588.012	37492.68
588.21	37275.59
588.407	38143.93
588.604	37502.92
588.801	37421
588.999	37148.62
589.196	37181.38
589.393	37162.95
589.59	37214.15
589.787	36767.69
589.984	36603.86
590.182	36388.82
590.379	36884.43
590.576	36515.79
590.773	36661.2
590.97	36822.99
591.167	36605.91
591.364	36462.55
591.561	36569.04
591.758	36032.47
591.955	36421.59
592.152	36397.01
592.349	36089.82
592.546	36024.28
592.743	36485.08
592.94	35459.04
593.137	35799.01
593.334	35811.29
593.531	35317.73
593.727	35733.47
593.924	35377.12
594.121	35266.53
594.318	35485.67
594.515	35047.4
594.712	35622.88
594.908	35246.05
595.105	35119.08
595.302	34557.94
595.499	35006.44
595.696	35571.68
595.892	34717.68
596.089	35344.36
596.286	35110.89
596.482	34586.61
596.679	34711.53
596.876	34637.81
597.072	34736.11
597.269	34648.05
597.466	34363.38
597.662	34676.72
597.859	34482.16
598.055	34422.77
598.252	34373.62
598.448	34641.9
598.645	34525.17
598.841	34134.01
599.038	34250.74
599.234	34232.31
599.431	34138.1
599.627	33730.56
599.824	33986.55
600.02	34297.84
600.217	34015.22
600.413	34129.91
600.609	34019.32
600.806	33751.04
601.002	33828.86
601.198	33490.94
601.395	33525.76
601.591	33800.19
601.787	33570.82
601.984	33550.34
602.18	33931.26
602.376	33337.35
602.572	33273.86
602.769	33753.08
602.965	33009.67
603.161	33400.83
603.357	33472.51
603.553	33751.04
603.75	33513.47
603.946	33255.43
604.142	33492.99
604.338	33249.28
604.534	33406.98
604.73	33089.54
604.926	33024.01
605.122	33218.57
605.318	33071.11
605.514	33689.6
605.71	33138.69
605.906	33370.11
606.102	33212.42
606.298	33216.52
606.494	33269.76
606.69	33490.94
606.886	33378.31
607.082	32749.58
607.278	33495.04
607.474	32794.64
607.67	33632.25
607.866	32827.4
608.062	33458.18
608.257	33402.88
608.453	33277.96
608.649	33239.04
608.845	33286.15
609.041	33263.62
609.236	33370.11
609.432	33462.27
609.628	33341.44
609.824	33036.3
610.019	33230.85
610.215	33286.15
610.411	33275.91
610.606	33179.65
610.802	33140.74
610.998	33206.28
611.193	33200.13
611.389	32931.85
611.584	33398.79
611.78	33132.55
611.976	33333.25
612.171	33425.41
612.367	33583.1
612.562	33646.59
612.758	32995.34
612.953	33224.71
613.149	33957.88
613.344	32806.92
613.539	33875.96
613.735	33490.94
613.93	33617.92
614.126	33376.26
614.321	33527.81
614.517	33482.75
614.712	33198.09
614.907	33193.99
615.103	33271.81
615.298	33105.93
615.493	33587.2
615.688	32993.29
615.884	33531.9
616.079	32942.09
616.274	33650.69
616.47	33357.83
616.665	33505.28
616.86	33406.98
617.055	32903.18
617.25	33153.03
617.445	33521.66
617.641	32503.82
617.836	33101.83
618.031	32555.02
618.226	33310.72
618.421	33030.15
618.616	32696.33
618.811	32294.93
619.006	33101.83
619.201	32473.1
619.396	32317.46
619.591	32075.8
619.786	32397.33
619.981	31973.4
620.176	32329.75
620.371	32016.41
620.566	32000.02
620.761	32020.5
620.956	31922.2
621.151	31483.94
621.346	31610.91
621.541	31238.18
621.735	31617.05
621.93	31203.36
622.125	31320.1
622.32	30724.14
622.515	30916.65
622.709	30554.16
622.904	31084.58
623.099	30740.52
623.294	30388.27
623.488	30193.72
623.683	30390.32
623.878	29894.71
624.072	29947.96
624.267	29782.07
624.462	29679.68
624.656	29077.57
624.851	29245.51
625.046	29450.3
625.24	29239.36
625.435	29096
625.629	29059.14
625.824	28842.06
626.018	28690.51
626.213	27904.09
626.407	28446.8
626.602	27893.85
626.796	28121.17
626.991	28098.64
627.185	27965.53
627.38	27510.88
627.574	27777.11
627.768	27330.65
627.963	27160.67
628.157	26798.18
628.352	27080.8
628.546	26966.12
628.74	26945.64
628.935	26628.2
629.129	26708.07
629.323	26220.66
629.517	26165.36
629.712	26304.62
629.906	26151.02
630.1	25737.34
630.294	26218.61
630.489	25366.65
630.683	25718.9
630.877	25421.95
631.071	25157.76
631.265	25229.44
631.459	25088.13
631.653	24819.85
631.848	24588.42
632.042	24803.46
632.236	24588.42
632.43	24213.65
632.624	24324.24
632.818	24481.93
633.012	23834.77
633.206	23883.92
633.4	23961.75
633.594	23705.75
633.788	23748.76
633.982	23810.2
634.176	23290.01
634.369	23099.55
634.563	23249.05
634.757	23320.73
634.951	23124.13
635.145	23191.71
635.339	22859.94
635.533	22493.35
635.726	22542.5
635.92	22368.43
636.114	22433.96
636.308	22206.64
636.501	22274.22
636.695	22032.56
636.889	21676.21
637.083	22112.43
637.276	21647.54
637.47	21657.78
637.664	21579.96
637.857	21366.97
638.051	21278.91
638.244	21137.6
638.438	20859.07
638.632	20973.76
638.825	20852.93
639.019	20562.12
639.212	20394.18
639.406	20431.05
639.599	20373.71
639.793	20461.77
639.986	20121.8
640.18	20252.87
640.373	19992.78
640.567	19724.5
640.76	19693.78
640.954	19478.74
641.147	19339.48
641.34	19331.29
641.534	19259.61
641.727	18936.03
641.92	19054.81
642.114	18888.93
642.307	18591.97
642.5	18755.81
642.694	18419.94
642.887	18413.8
643.08	18579.68
643.273	18264.3
643.467	18194.67
643.66	18200.81
643.853	17826.03
644.046	17922.29
644.239	17811.7
644.432	17576.18
644.626	17756.4
644.819	17584.37
645.012	17498.36
645.205	17387.77
645.398	17092.86
645.591	17187.07
645.784	17209.59
645.977	16748.8
646.17	17019.13
646.363	16750.85
646.556	16584.96
646.749	16527.62
646.942	16417.03
647.135	16322.82
647.328	16265.48
647.521	16238.86
647.714	16204.04
647.907	16128.27
648.099	15950.09
648.292	15970.57
648.485	15900.94
648.678	15577.36
648.871	15501.59
649.064	15399.19
649.256	15544.59
649.449	15632.66
649.642	15249.69
649.835	15122.71
650.027	15298.84
650.22	15112.47
650.413	14930.2
650.605	14924.06
650.798	14651.68
650.991	14608.67
651.183	14780.7
651.376	14520.61
651.568	14715.17
651.761	14405.92
651.954	14440.74
652.146	14168.36
652.339	14522.66
652.531	14174.5
652.724	14092.58
652.916	14027.05
653.109	13967.66
653.301	13807.92
653.494	13689.14
653.686	13685.04
653.879	13807.92
654.071	13457.71
654.263	13340.98
654.456	13351.22
654.648	13472.05
654.84	13099.32
655.033	13160.76
655.225	13087.03
655.417	13050.17
655.61	13181.24
655.802	12978.49
655.994	12857.66
656.186	12806.46
656.379	12671.29
656.571	12835.13
656.763	12589.38
656.955	12593.47
657.148	12431.68
657.34	12403.01
657.532	12222.79
657.724	12212.55
657.916	12153.16
658.108	12171.59
658.3	12110.15
658.492	11999.56
658.684	11784.52
658.876	11854.16
659.068	11706.7
659.26	11641.17
659.452	11731.28
659.644	11706.7
659.836	11403.6
660.028	11653.45
660.22	11333.97
660.412	11442.51
660.604	11252.05
660.796	11219.28
660.988	11264.34
661.18	11067.74
661.372	11020.63
661.563	10989.91
661.755	10844.51
661.947	10965.34
662.139	10834.27
662.331	10762.59
662.522	10809.69
662.714	10621.28
662.906	10590.56
663.097	10508.64
663.289	10342.75
663.481	10457.44
663.673	10283.36
663.864	10373.47
664.056	10193.25
664.247	10193.25
664.439	10142.05
664.631	10078.57
664.822	10252.64
665.014	10045.8
665.205	9924.97
665.397	9748.84
665.588	10017.13
665.78	9761.13
665.971	9957.74
666.163	9744.75
666.354	9412.98
666.546	9474.42
666.737	9439.6
666.929	9429.36
667.12	9589.1
667.311	9329.01
667.503	9234.8
667.694	9410.93
667.885	9101.69
668.077	9130.36
668.268	9073.01
668.459	9040.25
668.651	9103.73
668.842	9159.03
669.033	8917.37
669.224	8784.25
669.416	9126.26
669.607	8690.04
669.798	8704.38
669.989	8849.78
670.18	8685.95
670.371	8565.12
670.563	8593.79
670.754	8622.46
670.945	8546.69
671.136	8569.21
671.327	8401.28
671.518	8356.22
671.709	8556.93
671.9	8515.97
672.091	8313.22
672.282	8262.02
672.473	8141.19
672.664	8288.64
672.855	8053.13
673.046	8049.03
673.237	8135.04
673.428	8130.95
673.619	8176
673.809	8016.26
674	7948.68
674.191	7911.82
674.382	7772.55
674.573	7954.82
674.764	7874.95
674.954	7856.52
675.145	7713.16
675.336	7805.32
675.527	7704.97
675.717	7745.93
675.908	7670.15
676.099	7655.82
676.289	7999.88
676.48	7393.68
676.671	7541.13
676.861	7684.49
677.052	7385.49
677.243	7475.6
677.433	7455.12
677.624	7393.68
677.814	7344.53
678.005	7416.21
678.195	7401.87
678.386	7422.35
678.576	7172.5
678.767	7307.66
678.957	7436.69
679.148	7254.42
679.338	7266.71
679.529	7289.23
679.719	7156.11
679.909	7055.76
680.1	6984.09
680.29	7008.66
680.481	6953.37
680.671	6971.8
680.861	6914.45
681.052	6936.98
681.242	6906.26
681.432	7027.09
681.622	6922.65
681.813	6943.13
682.003	6998.42
682.193	6918.55
682.383	6824.34
682.573	6863.26
682.764	6863.26
682.954	6650.27
683.144	6644.12
683.334	6799.77
683.524	6775.19
683.714	6758.81
683.904	6494.62
684.094	6877.59
684.284	6697.37
684.474	6820.25
684.664	6631.83
684.854	6678.94
685.044	6599.07
685.234	6609.31
685.424	6693.27
685.614	6570.4
685.804	6459.81
685.994	6371.74
686.184	6502.81
686.374	6592.92
686.564	6365.6
686.753	6431.13
686.943	6396.32
687.133	6212
687.323	6373.79
687.513	6355.36
687.702	6361.5
687.892	6273.44
688.082	6345.12
688.272	6267.3
688.461	6214.05
688.651	6248.86
688.841	6125.99
689.03	6166.95
689.22	6117.79
689.41	6060.45
689.599	6066.6
689.789	6162.85
689.979	6007.2
690.168	5968.29
690.358	6173.09
690.547	6005.16
690.737	5927.33
690.926	6003.11
691.116	5804.46
691.305	5861.8
691.495	5906.85
691.684	5837.22
691.874	5919.14
692.063	5820.84
692.252	5730.73
692.442	5802.41
692.631	5833.13
692.82	5706.15
693.01	5530.03
693.199	5702.06
693.388	5593.51
693.578	5646.76
693.767	5714.34
693.956	5405.1
694.146	5521.84
694.335	5566.89
694.524	5472.68
694.713	5487.02
694.902	5519.79
695.092	5403.05
695.281	5507.5
695.47	5437.87
695.659	5345.71
695.848	5519.79
696.037	5366.19
696.226	5331.37
696.415	5347.76
696.604	5319.09
696.793	5288.37
696.982	5261.74
697.171	5337.52
697.36	5265.84
697.549	5085.62
697.738	5245.36
697.927	5171.63
698.116	5183.92
698.305	5269.94
698.494	5112.24
698.683	5185.97
698.872	5226.93
699.061	5079.47
699.25	5112.24
699.438	5018.04
699.627	5030.32
699.816	5071.28
700.005	4970.93
700.193	5018.04
700.382	5034.42
700.571	4972.98
700.76	5018.04
700.948	4815.29
701.137	4837.81
701.326	4897.21
701.514	4850.1
701.703	4780.47
701.892	5050.8
702.08	4872.63
702.269	4946.36
702.457	4600.25
702.646	4706.74
702.834	4710.84
703.023	4809.14
703.212	4729.27
703.4	4606.39
703.589	4768.18
703.777	4788.66
703.965	4557.24
704.154	4635.07
704.342	4590.01
704.531	4698.55
704.719	4557.24
704.907	4708.79
705.096	4487.61
705.284	4673.98
705.472	4493.76
705.661	4532.67
705.849	4434.36
706.037	4532.67
706.226	4489.66
706.414	4536.76
706.602	4362.69
706.79	4340.16
706.979	4374.97
707.167	4250.05
707.355	4274.62
707.543	4411.84
707.731	4395.45
707.919	4370.88
708.107	4323.77
708.296	4272.57
708.484	4268.48
708.672	4264.38
708.86	4305.34
709.048	4260.29
709.236	4231.62
709.424	4186.56
709.612	4254.14
709.8	4186.56
709.988	4133.31
710.176	4020.67
710.364	4248
710.551	4088.26
710.739	4069.83
710.927	4075.97
711.115	4073.92
711.303	4008.39
711.491	3989.96
711.679	3914.18
711.866	3969.48
712.054	4084.16
712.242	3901.89
712.43	4014.53
712.617	3922.37
712.805	3914.18
712.993	3912.13
713.181	3750.34
713.368	3832.26
713.556	3944.9
713.744	3871.17
713.931	3865.03
714.119	3957.19
714.306	3729.86
714.494	3699.14
714.682	3746.25
714.869	3824.07
715.057	3750.34
715.244	3813.83
715.432	3736.01
715.619	3641.8
715.807	3715.53
715.994	3760.58
716.182	3578.31
716.369	3625.42
716.556	3559.88
716.744	3604.94
716.931	3437
717.119	3654.09
717.306	3578.31
717.493	3545.55
717.681	3459.53
717.868	3559.88
718.055	3572.17
718.242	3449.29
718.43	3627.46
718.617	3576.27
718.804	3529.16
718.991	3486.15
719.179	3545.55
719.366	3602.89
719.553	3383.76
719.74	3350.99
719.927	3412.43
720.114	3512.78
720.301	3365.32
720.488	3340.75
720.676	3314.13
720.863	3457.48
721.05	3496.39
721.237	3205.58
721.424	3215.82
721.611	3310.03
721.798	3269.07
721.985	3236.3
722.172	3205.58
722.358	3199.44
722.545	3226.06
722.732	3240.4
722.919	3203.54
723.106	3078.61
723.293	3187.15
723.48	3043.79
723.667	3041.75
723.853	3172.82
724.04	3135.95
724.227	3125.71
724.414	3166.67
724.6	3203.54
724.787	3152.34
724.974	3101.14
725.161	3092.94
725.347	2990.55
725.534	3125.71
725.72	3142.1
725.907	2974.16
726.094	3119.57
726.28	3150.29
726.467	2963.92
726.653	2968.02
726.84	3166.67
727.027	2976.21
727.213	2947.54
727.4	3125.71
727.586	2925.01
727.773	2912.72
727.959	2877.91
728.145	2808.28
728.332	2970.07
728.518	2785.75
728.705	2945.49
728.891	2888.15
729.077	2933.2
729.264	2916.82
729.45	2879.96
729.636	2828.76
729.823	2949.59
730.009	2798.04
730.195	2742.74
730.382	2865.62
730.568	2802.13
730.754	2798.04
730.94	2746.84
731.126	2863.57
731.313	2816.47
731.499	2826.71
731.685	2781.65
731.871	2781.65
732.057	2800.09
732.243	2744.79
732.429	2798.04
732.615	2650.58
732.801	2761.17
732.987	2693.59
733.173	2687.45
733.359	2712.02
733.545	2716.12
733.731	2683.35
733.917	2654.68
734.103	2650.58
734.289	2740.69
734.475	2617.82
734.661	2765.27
734.847	2671.06
735.033	2548.19
735.219	2529.75
735.404	2521.56
735.59	2462.17
735.776	2687.45
735.962	2646.49
736.148	2572.76
736.333	2552.28
736.519	2568.66
736.705	2499.03
736.89	2496.99
737.076	2472.41
737.262	2404.83
737.447	2474.46
737.633	2462.17
737.819	2572.76
738.004	2382.3
738.19	2531.8
738.375	2499.03
738.561	2503.13
738.747	2480.6
738.932	2361.82
739.118	2445.79
739.303	2408.92
739.489	2453.98
739.674	2310.62
739.859	2331.1
740.045	2304.48
740.23	2314.72
740.416	2238.94
740.601	2316.76
740.786	2238.94
740.972	2290.14
741.157	2257.37
741.342	2290.14
741.528	2220.51
741.713	2257.37
741.898	2259.42
742.084	2234.85
742.269	2249.18
742.454	2245.09
742.639	2228.7
742.824	2177.5
743.01	2302.43
743.195	2318.81
743.38	2183.65
743.565	2148.83
743.75	2085.34
743.935	2091.49
744.12	2179.55
744.305	2087.39
744.49	2101.73
744.675	2091.49
744.86	2109.92
745.045	2101.73
745.23	2114.02
745.415	2085.34
745.6	2138.59
745.785	2048.48
745.97	2038.24
746.155	2060.77
746.34	1964.51
746.525	2019.81
746.71	2140.64
746.895	1968.61
747.079	1999.33
747.264	1962.47
747.449	1976.8
747.634	1884.64
747.819	1798.63
748.003	1888.74
748.188	1890.79
748.373	1939.94
748.557	1944.03
748.742	1812.96
748.927	1831.4
749.111	1810.92
749.296	1888.74
749.481	1831.4
749.665	1835.49
749.85	1749.48
750.034	1866.21
750.219	1872.36
750.404	1640.93
750.588	1778.15
750.773	1640.93
750.957	1683.94
751.141	1749.48
751.326	1815.01
751.51	1604.07
751.695	1565.16
751.879	1602.02
752.064	1620.46
752.248	1724.9
752.432	1659.37
752.617	1540.58
752.801	1628.65
752.985	1630.7
753.17	1622.5
753.354	1610.22
753.538	1577.45
753.722	1464.81
753.907	1552.87
754.091	1526.25
754.275	1530.34
754.459	1575.4
754.643	1466.86
754.828	1458.67
755.012	1481.19
755.196	1380.84
755.38	1401.32
755.564	1481.19
755.748	1399.27
755.932	1470.95
756.116	1419.75
756.3	1372.65
756.484	1356.27
756.668	1358.32
756.852	1282.54
757.036	1323.5
757.22	1300.97
757.404	1325.55
757.588	1411.56
757.772	1331.69
757.956	1348.08
758.14	1339.88
758.323	1300.97
758.507	1323.5
758.691	1364.46
758.875	1274.35
759.059	1266.16
759.242	1147.37
759.426	1307.12
759.61	1260.01
759.794	1200.62
759.977	1282.54
760.161	1356.27
760.345	1188.33
760.528	1235.44
760.712	1227.25
760.895	1161.71
761.079	1208.81
761.263	1270.25
761.446	1180.14
761.63	1264.11
761.813	1194.48
761.997	1135.09
762.18	1176.05
762.364	1270.25
762.547	1210.86
762.731	1180.14
762.914	1153.52
763.098	1114.61
763.281	1200.62
763.464	1165.81
763.648	1133.04
763.831	1116.65
764.015	993.78
764.198	1149.42
764.381	1067.5
764.564	1192.43
764.748	1118.7
764.931	1077.74
765.114	903.67
765.297	1120.75
765.481	1028.59
765.664	1004.02
765.847	1024.5
766.03	1167.85
766.213	1090.03
766.397	1075.7
766.58	989.68
766.763	1104.37
766.946	971.25
767.129	922.1
767.312	967.15
767.495	989.68
767.678	995.82
767.861	930.29
768.044	979.44
768.227	936.43
768.41	1061.36
768.593	1006.06
768.776	913.91
768.959	995.82
769.142	940.53
769.324	928.24
769.507	981.49
769.69	971.25
769.873	993.78
770.056	1012.21
770.239	942.58
770.421	1008.11
770.604	1020.4
770.787	956.91
770.97	965.11
771.152	897.52
771.335	911.86
771.518	940.53
771.7	922.1
771.883	938.48
772.066	940.53
772.248	909.81
772.431	897.52
772.613	825.84
772.796	881.14
772.978	918
773.161	999.92
773.343	836.08
773.526	913.91
773.708	899.57
773.891	807.41
774.073	850.42
774.256	948.72
774.438	795.12
774.621	870.9
774.803	854.51
774.985	803.32
775.168	877.04
775.35	760.31
775.532	858.61
775.715	860.66
775.897	760.31
776.079	737.78
776.261	737.78
776.444	803.32
776.626	791.03
776.808	795.12
776.99	760.31
777.173	745.97
777.355	735.73
777.537	764.4
777.719	700.92
777.901	678.39
778.083	774.64
778.265	713.21
778.447	766.45
778.629	702.97
778.811	698.87
778.993	770.55
779.175	680.44
779.357	666.1
779.539	670.2
779.721	737.78
779.903	655.86
780.085	684.53
780.267	674.29
780.449	639.48
780.631	694.77
780.812	778.74
780.994	627.19
781.176	580.09
781.358	657.91
781.54	627.19
781.721	643.57
781.903	553.46
782.085	608.76
782.267	635.38
782.448	578.04
782.63	569.85
782.812	588.28
782.993	594.42
783.175	659.96
783.357	610.81
783.538	612.85
783.72	590.33
783.901	588.28
784.083	631.29
784.264	573.94
784.446	539.13
784.627	553.46
784.809	621.05
784.99	479.74
785.172	500.22
785.353	639.48
785.535	537.08
785.716	508.41
785.897	500.22
786.079	551.42
786.26	520.7
786.441	481.78
786.623	446.97
786.804	537.08
786.985	414.2
787.167	479.74
787.348	559.61
787.529	424.44
787.71	526.84
787.891	438.78
788.073	496.12
788.254	442.87
788.435	557.56
788.616	459.26
788.797	426.49
788.978	453.11
789.159	557.56
789.34	481.78
789.522	477.69
789.703	446.97
789.884	483.83
790.065	512.5
790.246	475.64
790.427	412.15
790.607	373.24
790.788	442.87
790.969	383.48
791.15	412.15
791.331	317.95
791.512	426.49
791.693	424.44
791.874	356.86
792.054	487.93
792.235	496.12
792.416	315.9
792.597	375.29
792.778	434.68
792.958	457.21
793.139	463.35
793.32	412.15
793.5	438.78
793.681	451.07
793.862	422.39
794.042	430.59
794.223	403.96
794.404	387.58
794.584	250.36
794.765	389.63
794.945	320
795.126	383.48
795.306	457.21
795.487	274.94
795.667	328.19
795.848	332.28
796.028	377.34
796.209	301.56
796.389	350.71
796.57	309.76
796.75	307.71
796.93	299.52
797.111	258.56
797.291	320
797.471	346.62
797.652	320
797.832	299.52
798.012	334.33
798.192	240.12
798.373	285.18
798.553	317.95
798.733	293.37
798.913	283.13
799.093	299.52
799.274	283.13
799.454	340.47
799.634	317.95
799.814	356.86
799.994	336.38
800.174	295.42
800.354	250.36
800.534	268.8
800.714	311.8
800.894	250.36
801.074	287.23
801.254	311.8
801.434	299.52
801.614	188.93
801.794	303.61
801.974	1016.3
802.154	250.36
802.334	291.32
802.514	221.69
802.693	252.41
802.873	291.32
803.053	254.46
803.233	320
803.413	266.75
803.592	242.17
803.772	240.12
803.952	209.4
804.131	184.83
804.311	301.56
804.491	283.13
804.67	186.88
804.85	205.31
805.03	135.68
805.209	266.75
805.389	283.13
805.568	225.79
805.748	201.21
805.928	283.13
806.107	256.51
806.287	236.03
806.466	195.07
806.646	205.31
806.825	217.6
807.004	252.41
807.184	264.7
807.363	258.56
807.543	203.26
807.722	233.98
807.901	262.65
808.081	242.17
808.26	207.36
808.439	322.04
808.619	207.36
808.798	172.54
808.977	113.15
809.156	307.71
809.336	180.73
809.515	322.04
809.694	178.69
809.873	219.64
810.052	215.55
810.231	240.12
810.411	227.84
810.59	250.36
810.769	184.83
810.948	225.79
811.127	119.29
811.306	180.73
811.485	199.16
811.664	219.64
811.843	201.21
812.022	203.26
812.201	190.97
812.38	250.36
812.559	78.33
812.737	270.84
812.916	90.62
813.095	168.45
813.274	180.73
813.453	197.12
813.632	217.6
813.811	193.02
813.989	147.97
814.168	145.92
814.347	172.54
814.526	158.21
814.704	147.97
814.883	201.21
815.062	162.3
815.24	168.45
815.419	225.79
815.598	276.99
815.776	201.21
815.955	137.73
816.133	135.68
816.312	147.97
816.49	137.73
816.669	154.11
816.847	190.97
817.026	262.65
817.204	160.25
817.383	193.02
817.561	156.16
817.74	186.88
817.918	209.4
818.097	188.93
818.275	143.87
818.453	250.36
818.632	111.1
818.81	131.58
818.988	111.1
819.167	150.01
819.345	121.34
819.523	170.49
819.701	152.06
819.879	178.69
820.058	213.5
820.236	176.64
820.414	184.83
820.592	168.45
820.77	96.77
820.948	31.23
821.127	111.1
821.305	193.02
821.483	104.96
821.661	158.21
821.839	102.91
822.017	133.63
822.195	152.06
822.373	156.16
822.551	109.05
822.729	141.82
822.907	160.25
823.085	254.46
823.262	147.97
823.44	96.77
823.618	127.49
823.796	98.81
823.974	111.1
824.152	137.73
824.329	72.19
824.507	127.49
824.685	156.16
824.863	131.58
825.04	164.35
825.218	119.29
825.396	125.44
825.574	111.1
825.751	197.12
825.929	154.11
826.107	119.29
826.284	143.87
826.462	123.39
826.639	12.8
826.817	64
826.994	86.53
827.172	80.38
827.349	113.15
827.527	115.2
827.704	88.57
827.882	96.77
828.059	145.92
828.237	154.11
828.414	160.25
828.591	78.33
828.769	143.87
828.946	78.33
829.124	133.63
829.301	119.29
829.478	104.96
829.655	107.01
829.833	107.01
830.01	72.19
830.187	145.92
830.364	90.62
830.542	135.68
830.719	195.07
830.896	123.39
831.073	117.25
831.25	131.58
831.427	88.57
831.604	145.92
831.782	113.15
831.959	86.53
832.136	70.14
832.313	131.58
832.49	53.76
832.667	90.62
832.844	92.67
833.021	141.82
833.198	76.29
833.374	127.49
833.551	121.34
833.728	61.95
833.905	115.2
834.082	78.33
834.259	94.72
834.436	129.53
834.612	61.95
834.789	170.49
834.966	131.58
835.143	61.95
835.319	80.38
835.496	70.14
835.673	94.72
835.85	211.45
836.026	121.34
836.203	78.33
836.38	111.1
836.556	37.38
836.733	82.43
836.909	150.01
837.086	129.53
837.262	113.15
837.439	59.9
837.616	88.57
837.792	16.9
837.968	45.57
838.145	-3.58
838.321	107.01
838.498	37.38
838.674	86.53
838.851	141.82
839.027	104.96
839.203	86.53
839.38	86.53
839.556	92.67
839.732	127.49
839.909	113.15
840.085	53.76
840.261	102.91
840.437	94.72
840.614	29.18
840.79	39.42
840.966	109.05
841.142	55.81
841.318	107.01
841.494	49.66
841.671	100.86
841.847	66.05
842.023	113.15
842.199	39.42
842.375	78.33
842.551	39.42
842.727	70.14
842.903	127.49
843.079	143.87
843.255	160.25
843.431	37.38
843.607	37.38
843.783	-19.97
843.959	94.72
844.134	45.57
844.31	133.63
844.486	104.96
844.662	12.8
844.838	135.68
845.013	137.73
845.189	53.76
845.365	64
845.541	143.87
845.716	164.35
845.892	37.38
846.068	43.52
846.244	74.24
846.419	49.66
846.595	35.33
846.77	107.01
846.946	43.52
847.122	-1.54
847.297	25.09
847.473	111.1
847.648	27.14
847.824	154.11
847.999	53.76
848.175	29.18
848.35	49.66
848.526	64
848.701	74.24
848.876	31.23
849.052	39.42
849.227	51.71
849.403	18.94
849.578	27.14
849.753	147.97
849.929	72.19
850.104	39.42
850.279	4.61
850.454	80.38
850.63	102.91
850.805	72.19
850.98	27.14
851.155	107.01
851.33	0.51
851.505	51.71
851.681	68.09
851.856	47.62
852.031	113.15
852.206	61.95
852.381	37.38
852.556	-1.54
852.731	-17.92
852.906	80.38
853.081	82.43
853.256	127.49
853.431	20.99
853.606	-26.11
853.781	45.57
853.956	33.28
854.131	27.14
854.305	45.57
854.48	18.94
854.655	20.99
854.83	86.53
855.005	53.76
855.18	43.52
855.354	31.23
855.529	94.72
855.704	4.61
855.879	45.57
856.053	-91.65
856.228	37.38
856.403	18.94
856.577	37.38
856.752	-3.58
856.926	45.57
857.101	14.85
857.276	66.05
857.45	74.24
857.625	147.97
857.799	41.47
857.974	49.66
858.148	-3.58
858.323	64
858.497	4.61
858.672	4.61
858.846	39.42
859.02	70.14
859.195	25.09
859.369	59.9
859.543	-19.97
859.718	-28.16
859.892	16.9
860.066	2.56
860.241	45.57
860.415	20.99
860.589	-19.97
860.763	64
860.938	31.23
861.112	139.77
861.286	18.94
861.46	61.95
861.634	39.42
861.808	-1.54
861.982	53.76
862.157	53.76
862.331	-19.97
862.505	-28.16
862.679	-19.97
862.853	72.19
863.027	74.24
863.201	53.76
863.375	37.38
863.549	96.77
863.722	102.91
863.896	29.18
864.07	-52.74
864.244	41.47
864.418	25.09
864.592	37.38
864.766	12.8
864.939	39.42
865.113	-1.54
865.287	64
865.461	43.52
865.634	12.8
865.808	25.09
865.982	-52.74
866.156	0.51
866.329	-26.11
866.503	55.81
866.676	45.57
866.85	102.91
867.024	49.66
867.197	88.57
867.371	86.53
867.544	70.14
867.718	12.8
867.891	78.33
868.065	45.57
868.238	-24.06
868.412	80.38
868.585	92.67
868.759	37.38
868.932	37.38
869.105	37.38
869.279	14.85
869.452	-50.69
869.625	-3.58
869.799	16.9
869.972	88.57
870.145	-75.26
870.319	61.95
870.492	53.76
870.665	29.18
870.838	70.14
871.011	-69.12
871.185	8.7
871.358	-7.68
871.531	61.95
871.704	-26.11
871.877	70.14
872.05	29.18
872.223	-26.11
872.396	12.8
872.569	-19.97
872.742	12.8
872.915	70.14
873.088	-28.16
873.261	2.56
873.434	39.42
873.607	66.05
873.78	45.57
873.953	-11.78
874.126	47.62
874.299	45.57
874.471	20.99
874.644	25.09
874.817	6.66
874.99	20.99
875.163	43.52
875.335	66.05
875.508	6.66
875.681	-15.87
875.853	-7.68
876.026	33.28
876.199	8.7
876.371	55.81
876.544	47.62
876.717	-19.97
876.889	25.09
877.062	61.95
877.234	35.33
877.407	6.66
877.579	-9.73
877.752	12.8
877.924	100.86
878.097	78.33
878.269	-24.06
878.442	84.48
878.614	20.99
878.786	-28.16
878.959	-13.82
879.131	12.8
879.303	14.85
879.476	61.95
879.648	43.52
879.82	45.57
879.993	-44.54
880.165	12.8
880.337	-7.68
880.509	61.95
880.681	-46.59
880.854	88.57
881.026	37.38
881.198	43.52
881.37	41.47
881.542	-69.12
881.714	4.61
881.886	0.51
882.058	4.61
882.23	57.86
882.402	-17.92
882.574	8.7
882.746	143.87
882.918	72.19
883.09	29.18
883.262	90.62
883.434	94.72
883.606	27.14
883.778	-9.73
883.95	33.28
884.122	-3.58
884.293	64
884.465	0.51
884.637	35.33
884.809	57.86
884.98	78.33
885.152	70.14
885.324	74.24
885.496	-34.3
885.667	37.38
885.839	-19.97
886.011	33.28
886.182	31.23
886.354	78.33
886.525	45.57
886.697	64
886.869	16.9
887.04	66.05
887.212	-28.16
887.383	98.81
887.555	20.99
887.726	37.38
887.897	-15.87
888.069	37.38
888.24	-3.58
888.412	57.86
888.583	-7.68
888.754	-3.58
888.926	33.28
889.097	-5.63
889.268	-44.54
889.44	57.86
889.611	12.8
889.782	29.18
889.953	6.66
890.125	45.57
890.296	-15.87
890.467	31.23
890.638	20.99
890.809	78.33
890.98	10.75
891.151	-3.58
891.323	33.28
891.494	23.04
891.665	41.47
891.836	-56.83
892.007	14.85
892.178	-56.83
892.349	49.66
892.52	66.05
892.691	12.8
892.862	10.75
893.032	-15.87
893.203	45.57
893.374	23.04
893.545	64
893.716	66.05
893.887	4.61
894.057	-3.58
894.228	-17.92
894.399	-24.06
894.57	78.33
894.74	20.99
894.911	102.91
895.082	-34.3
895.253	23.04
895.423	23.04
895.594	78.33
895.764	55.81
895.935	-7.68
896.106	25.09
896.276	-50.69
896.447	-60.93
896.617	-52.74
896.788	-28.16
896.958	-1.54
897.129	33.28
897.299	8.7
897.47	37.38
897.64	102.91
897.81	20.99
897.981	12.8
898.151	-11.78
898.322	4.61
898.492	35.33
898.662	-1.54
898.832	-5.63
899.003	66.05
899.173	-3.58
899.343	-1.54
899.513	-24.06
