Data from USB4F104151__55__14-30-02-631.txt Node

Date: Thu Mar 13 14:30:02 EDT 2025
User: louis
Spectrometer: USB4F10415
Trigger mode: 4
Integration Time (sec): 2.500000E-2
Scans to average: 1
Electric dark correction enabled: true
Nonlinearity correction enabled: false
Boxcar width: 0
XAxis mode: Wavelengths
Number of Pixels in Spectrum: 3648
>>>>>Begin Spectral Data<<<<<
178.204	-126.8
178.424	-126.8
178.644	-126.8
178.864	-87.89
179.084	-204.63
179.304	10.41
179.524	24.75
179.744	-57.17
179.964	22.7
180.184	-3.93
180.404	-10.07
180.624	-14.17
180.844	37.03
181.064	-8.02
181.283	37.03
181.503	-55.12
181.723	16.55
181.943	2.22
182.163	114.86
182.383	4.27
182.602	82.09
182.822	49.32
183.042	106.67
183.262	24.75
183.482	55.47
183.701	65.71
183.921	69.8
184.141	24.75
184.361	106.67
184.58	12.46
184.8	59.56
185.02	-24.4
185.239	108.71
185.459	53.42
185.679	16.55
185.898	37.03
186.118	127.14
186.338	32.94
186.557	73.9
186.777	24.75
186.997	59.56
187.216	37.03
187.436	37.03
187.655	37.03
187.875	65.71
188.095	18.6
188.314	82.09
188.534	100.52
188.753	34.99
188.973	45.23
189.192	145.58
189.412	28.84
189.631	61.61
189.851	-12.12
190.07	75.95
190.29	-12.12
190.509	53.42
190.729	65.71
190.948	143.53
191.168	170.15
191.387	32.94
191.607	57.51
191.826	59.56
192.045	67.75
192.265	20.65
192.484	0.17
192.704	65.71
192.923	20.65
193.142	123.05
193.362	69.8
193.581	10.41
193.8	49.32
194.02	104.62
194.239	41.13
194.458	10.41
194.678	16.55
194.897	92.33
195.116	-24.4
195.335	37.03
195.555	41.13
195.774	57.51
195.993	161.96
196.212	69.8
196.432	24.75
196.651	102.57
196.87	16.55
197.089	90.28
197.308	18.6
197.528	2.22
197.747	34.99
197.966	59.56
198.185	88.23
198.404	24.75
198.623	18.6
198.842	98.47
199.062	114.86
199.281	106.67
199.5	22.7
199.719	32.94
199.938	32.94
200.157	73.9
200.376	65.71
200.595	80.04
200.814	51.37
201.033	67.75
201.252	75.95
201.471	-36.69
201.69	92.33
201.909	41.13
202.128	102.57
202.347	47.27
202.566	57.51
202.785	16.55
203.004	80.04
203.223	143.53
203.442	98.47
203.661	67.75
203.879	43.18
204.098	92.33
204.317	88.23
204.536	49.32
204.755	49.32
204.974	123.05
205.193	39.08
205.411	151.72
205.63	102.57
205.849	43.18
206.068	80.04
206.287	75.95
206.505	28.84
206.724	59.56
206.943	-5.97
207.162	2.22
207.381	65.71
207.599	73.9
207.818	61.61
208.037	-22.36
208.255	59.56
208.474	82.09
208.693	106.67
208.911	4.27
209.13	98.47
209.349	59.56
209.567	90.28
209.786	51.37
210.005	90.28
210.223	65.71
210.442	-32.6
210.661	49.32
210.879	24.75
211.098	-14.17
211.316	67.75
211.535	63.66
211.753	90.28
211.972	41.13
212.191	26.79
212.409	24.75
212.628	-16.21
212.846	32.94
213.065	18.6
213.283	24.75
213.502	0.17
213.72	51.37
213.938	53.42
214.157	16.55
214.375	75.95
214.594	-8.02
214.812	37.03
215.031	67.75
215.249	37.03
215.467	32.94
215.686	10.41
215.904	94.38
216.122	45.23
216.341	65.71
216.559	49.32
216.778	90.28
216.996	102.57
217.214	28.84
217.432	32.94
217.651	16.55
217.869	59.56
218.087	10.41
218.306	65.71
218.524	125.1
218.742	63.66
218.96	106.67
219.179	4.27
219.397	172.2
219.615	147.62
219.833	0.17
220.051	22.7
220.27	135.34
220.488	96.43
220.706	65.71
220.924	-12.12
221.142	-32.6
221.36	41.13
221.578	59.56
221.796	39.08
222.015	63.66
222.233	37.03
222.451	102.57
222.669	59.56
222.887	90.28
223.105	34.99
223.323	51.37
223.541	80.04
223.759	67.75
223.977	2.22
224.195	100.52
224.413	77.99
224.631	90.28
224.849	73.9
225.067	45.23
225.285	75.95
225.503	-40.79
225.721	-26.45
225.939	30.89
226.157	32.94
226.375	196.78
226.592	10.41
226.81	98.47
227.028	30.89
227.246	63.66
227.464	-8.02
227.682	69.8
227.9	12.46
228.117	102.57
228.335	34.99
228.553	63.66
228.771	2.22
228.989	110.76
229.206	67.75
229.424	157.86
229.642	-28.5
229.86	16.55
230.077	16.55
230.295	0.17
230.513	121
230.731	127.14
230.948	61.61
231.166	4.27
231.384	18.6
231.601	30.89
231.819	-3.93
232.037	10.41
232.254	82.09
232.472	45.23
232.689	28.84
232.907	98.47
233.125	51.37
233.342	16.55
233.56	0.17
233.777	45.23
233.995	16.55
234.213	82.09
234.43	41.13
234.648	0.17
234.865	51.37
235.083	92.33
235.3	20.65
235.518	18.6
235.735	20.65
235.953	57.51
236.17	49.32
236.388	0.17
236.605	75.95
236.822	57.51
237.04	114.86
237.257	16.55
237.475	18.6
237.692	139.43
237.909	86.19
238.127	112.81
238.344	61.61
238.562	26.79
238.779	39.08
238.996	-14.17
239.214	73.9
239.431	100.52
239.648	-5.97
239.865	73.9
240.083	10.41
240.3	6.31
240.517	-5.97
240.735	28.84
240.952	65.71
241.169	116.9
241.386	59.56
241.603	16.55
241.821	0.17
242.038	116.9
242.255	100.52
242.472	43.18
242.689	98.47
242.907	82.09
243.124	-48.98
243.341	-48.98
243.558	47.27
243.775	59.56
243.992	-46.93
244.209	98.47
244.426	88.23
244.643	43.18
244.86	-28.5
245.078	26.79
245.295	57.51
245.512	75.95
245.729	26.79
245.946	59.56
246.163	90.28
246.38	0.17
246.597	67.75
246.814	69.8
247.031	43.18
247.248	92.33
247.464	88.23
247.681	67.75
247.898	37.03
248.115	-26.45
248.332	-34.64
248.549	94.38
248.766	114.86
248.983	53.42
249.2	145.58
249.417	90.28
249.633	-12.12
249.85	82.09
250.067	73.9
250.284	-5.97
250.501	90.28
250.717	57.51
250.934	28.84
251.151	28.84
251.368	16.55
251.585	24.75
251.801	61.61
252.018	18.6
252.235	73.9
252.451	41.13
252.668	51.37
252.885	141.48
253.102	65.71
253.318	30.89
253.535	41.13
253.752	88.23
253.968	-1.88
254.185	-18.26
254.401	82.09
254.618	2.22
254.835	65.71
255.051	80.04
255.268	24.75
255.484	8.36
255.701	88.23
255.917	43.18
256.134	43.18
256.351	10.41
256.567	-5.97
256.784	39.08
257	73.9
257.217	123.05
257.433	102.57
257.65	73.9
257.866	61.61
258.082	34.99
258.299	75.95
258.515	94.38
258.732	32.94
258.948	53.42
259.165	133.29
259.381	-36.69
259.597	82.09
259.814	43.18
260.03	49.32
260.246	90.28
260.463	71.85
260.679	118.95
260.895	98.47
261.112	24.75
261.328	86.19
261.544	47.27
261.761	51.37
261.977	-30.55
262.193	41.13
262.409	24.75
262.626	34.99
262.842	49.32
263.058	0.17
263.274	67.75
263.49	53.42
263.707	57.51
263.923	106.67
264.139	26.79
264.355	90.28
264.571	155.82
264.787	32.94
265.004	106.67
265.22	98.47
265.436	26.79
265.652	86.19
265.868	65.71
266.084	121
266.3	82.09
266.516	-16.21
266.732	118.95
266.948	92.33
267.164	88.23
267.38	80.04
267.596	47.27
267.812	106.67
268.028	77.99
268.244	41.13
268.46	-32.6
268.676	49.32
268.892	26.79
269.108	43.18
269.324	18.6
269.54	2.22
269.756	57.51
269.972	88.23
270.188	73.9
270.403	65.71
270.619	-10.07
270.835	75.95
271.051	26.79
271.267	-5.97
271.483	75.95
271.698	34.99
271.914	20.65
272.13	-16.21
272.346	90.28
272.562	71.85
272.777	106.67
272.993	45.23
273.209	-26.45
273.425	-30.55
273.64	34.99
273.856	139.43
274.072	-12.12
274.287	4.27
274.503	51.37
274.719	75.95
274.934	0.17
275.15	-73.56
275.366	65.71
275.581	41.13
275.797	18.6
276.012	28.84
276.228	32.94
276.444	12.46
276.659	82.09
276.875	32.94
277.09	24.75
277.306	12.46
277.521	57.51
277.737	8.36
277.952	-24.4
278.168	2.22
278.383	98.47
278.599	37.03
278.814	49.32
279.03	98.47
279.245	172.2
279.461	49.32
279.676	108.71
279.892	-14.17
280.107	8.36
280.322	10.41
280.538	75.95
280.753	-16.21
280.969	123.05
281.184	53.42
281.399	123.05
281.615	41.13
281.83	49.32
282.045	-16.21
282.26	24.75
282.476	45.23
282.691	53.42
282.906	77.99
283.122	-5.97
283.337	-40.79
283.552	108.71
283.767	-24.4
283.983	139.43
284.198	14.51
284.413	102.57
284.628	-20.31
284.843	0.17
285.058	77.99
285.274	22.7
285.489	65.71
285.704	73.9
285.919	49.32
286.134	26.79
286.349	65.71
286.564	45.23
286.779	12.46
286.995	102.57
287.21	-3.93
287.425	129.19
287.64	37.03
287.855	-16.21
288.07	20.65
288.285	65.71
288.5	92.33
288.715	67.75
288.93	-16.21
289.145	12.46
289.36	41.13
289.575	34.99
289.79	90.28
290.004	2.22
290.219	24.75
290.434	4.27
290.649	34.99
290.864	90.28
291.079	32.94
291.294	108.71
291.509	118.95
291.724	16.55
291.938	59.56
292.153	37.03
292.368	41.13
292.583	159.91
292.798	-1.88
293.012	92.33
293.227	2.22
293.442	51.37
293.657	59.56
293.871	82.09
294.086	16.55
294.301	92.33
294.516	73.9
294.73	-8.02
294.945	57.51
295.16	41.13
295.374	123.05
295.589	65.71
295.804	-3.93
296.018	84.14
296.233	32.94
296.447	41.13
296.662	82.09
296.877	92.33
297.091	10.41
297.306	18.6
297.52	32.94
297.735	127.14
297.949	104.62
298.164	125.1
298.378	82.09
298.593	16.55
298.807	41.13
299.022	147.62
299.236	100.52
299.451	4.27
299.665	75.95
299.88	-36.69
300.094	41.13
300.309	-14.17
300.523	96.43
300.737	49.32
300.952	4.27
301.166	-77.65
301.381	47.27
301.595	77.99
301.809	49.32
302.024	32.94
302.238	51.37
302.452	94.38
302.667	51.37
302.881	90.28
303.095	90.28
303.309	20.65
303.524	16.55
303.738	125.1
303.952	100.52
304.166	159.91
304.381	16.55
304.595	82.09
304.809	65.71
305.023	71.85
305.237	-28.5
305.452	20.65
305.666	112.81
305.88	4.27
306.094	90.28
306.308	59.56
306.522	18.6
306.736	92.33
306.95	57.51
307.164	65.71
307.379	-14.17
307.593	106.67
307.807	84.14
308.021	69.8
308.235	114.86
308.449	8.36
308.663	28.84
308.877	139.43
309.091	82.09
309.305	77.99
309.519	-69.46
309.733	22.7
309.947	-14.17
310.161	24.75
310.374	125.1
310.588	106.67
310.802	32.94
311.016	65.71
311.23	57.51
311.444	-26.45
311.658	57.51
311.872	55.47
312.085	147.62
312.299	84.14
312.513	92.33
312.727	73.9
312.941	-46.93
313.154	26.79
313.368	53.42
313.582	75.95
313.796	73.9
314.009	26.79
314.223	100.52
314.437	24.75
314.651	59.56
314.864	84.14
315.078	65.71
315.292	2.22
315.505	-8.02
315.719	16.55
315.933	4.27
316.146	0.17
316.36	-22.36
316.573	26.79
316.787	41.13
317.001	65.71
317.214	0.17
317.428	98.47
317.641	43.18
317.855	41.13
318.068	41.13
318.282	65.71
318.495	137.38
318.709	90.28
318.922	53.42
319.136	96.43
319.349	34.99
319.563	10.41
319.776	43.18
319.99	-48.98
320.203	116.9
320.417	57.51
320.63	131.24
320.843	82.09
321.057	43.18
321.27	61.61
321.483	49.32
321.697	82.09
321.91	143.53
322.124	164.01
322.337	0.17
322.55	49.32
322.763	47.27
322.977	114.86
323.19	118.95
323.403	55.47
323.617	123.05
323.83	71.85
324.043	80.04
324.256	16.55
324.469	-40.79
324.683	82.09
324.896	82.09
325.109	41.13
325.322	41.13
325.535	47.27
325.748	69.8
325.962	12.46
326.175	34.99
326.388	88.23
326.601	108.71
326.814	10.41
327.027	90.28
327.24	16.55
327.453	73.9
327.666	59.56
327.879	178.34
328.092	106.67
328.305	28.84
328.518	49.32
328.731	43.18
328.944	28.84
329.157	92.33
329.37	43.18
329.583	147.62
329.796	110.76
330.009	67.75
330.222	34.99
330.435	143.53
330.648	98.47
330.861	-14.17
331.073	18.6
331.286	143.53
331.499	100.52
331.712	41.13
331.925	90.28
332.138	43.18
332.35	157.86
332.563	16.55
332.776	88.23
332.989	18.6
333.202	26.79
333.414	16.55
333.627	65.71
333.84	51.37
334.053	34.99
334.265	65.71
334.478	90.28
334.691	63.66
334.903	26.79
335.116	26.79
335.329	4.27
335.541	106.67
335.754	73.9
335.966	32.94
336.179	82.09
336.392	94.38
336.604	-3.93
336.817	69.8
337.029	53.42
337.242	28.84
337.454	86.19
337.667	125.1
337.88	-30.55
338.092	82.09
338.305	129.19
338.517	24.75
338.729	67.75
338.942	131.24
339.154	59.56
339.367	16.55
339.579	57.51
339.792	26.79
340.004	57.51
340.217	-14.17
340.429	43.18
340.641	67.75
340.854	12.46
341.066	18.6
341.278	69.8
341.491	141.48
341.703	34.99
341.915	10.41
342.128	159.91
342.34	8.36
342.552	45.23
342.764	55.47
342.977	94.38
343.189	69.8
343.401	92.33
343.613	100.52
343.826	4.27
344.038	84.14
344.25	139.43
344.462	12.46
344.674	65.71
344.886	55.47
345.099	96.43
345.311	86.19
345.523	20.65
345.735	-14.17
345.947	98.47
346.159	10.41
346.371	59.56
346.583	4.27
346.795	88.23
347.007	51.37
347.219	34.99
347.431	61.61
347.643	90.28
347.855	-32.6
348.067	65.71
348.279	-5.97
348.491	53.42
348.703	53.42
348.915	61.61
349.127	28.84
349.339	22.7
349.551	22.7
349.763	16.55
349.975	88.23
350.187	43.18
350.399	123.05
350.61	63.66
350.822	73.9
351.034	82.09
351.246	65.71
351.458	75.95
351.669	86.19
351.881	-8.02
352.093	77.99
352.305	73.9
352.517	73.9
352.728	118.95
352.94	57.51
353.152	49.32
353.363	37.03
353.575	100.52
353.787	155.82
353.999	77.99
354.21	49.32
354.422	20.65
354.633	-32.6
354.845	121
355.057	65.71
355.268	75.95
355.48	55.47
355.692	59.56
355.903	82.09
356.115	-5.97
356.326	-28.5
356.538	77.99
356.749	90.28
356.961	49.32
357.172	69.8
357.384	18.6
357.595	135.34
357.807	164.01
358.018	37.03
358.23	34.99
358.441	141.48
358.653	116.9
358.864	82.09
359.075	28.84
359.287	86.19
359.498	92.33
359.709	92.33
359.921	18.6
360.132	114.86
360.344	127.14
360.555	41.13
360.766	80.04
360.977	-5.97
361.189	69.8
361.4	6.31
361.611	133.29
361.823	57.51
362.034	65.71
362.245	98.47
362.456	51.37
362.667	88.23
362.879	114.86
363.09	67.75
363.301	149.67
363.512	106.67
363.723	102.57
363.935	51.37
364.146	73.9
364.357	63.66
364.568	49.32
364.779	67.75
364.99	141.48
365.201	41.13
365.412	32.94
365.623	16.55
365.834	77.99
366.045	118.95
366.256	90.28
366.467	53.42
366.678	32.94
366.889	98.47
367.1	106.67
367.311	106.67
367.522	98.47
367.733	88.23
367.944	92.33
368.155	49.32
368.366	139.43
368.577	106.67
368.788	69.8
368.999	16.55
369.209	57.51
369.42	110.76
369.631	96.43
369.842	65.71
370.053	100.52
370.264	53.42
370.474	63.66
370.685	123.05
370.896	90.28
371.107	141.48
371.317	16.55
371.528	61.61
371.739	121
371.95	77.99
372.16	94.38
372.371	43.18
372.582	118.95
372.792	114.86
373.003	131.24
373.214	90.28
373.424	71.85
373.635	45.23
373.846	45.23
374.056	110.76
374.267	133.29
374.477	53.42
374.688	94.38
374.898	2.22
375.109	57.51
375.319	84.14
375.53	73.9
375.74	94.38
375.951	100.52
376.161	121
376.372	32.94
376.582	18.6
376.793	106.67
377.003	96.43
377.214	73.9
377.424	24.75
377.635	39.08
377.845	-48.98
378.055	114.86
378.266	12.46
378.476	131.24
378.686	75.95
378.897	77.99
379.107	65.71
379.317	100.52
379.528	82.09
379.738	92.33
379.948	22.7
380.158	51.37
380.369	34.99
380.579	127.14
380.789	77.99
380.999	155.82
381.21	94.38
381.42	114.86
381.63	88.23
381.84	127.14
382.05	63.66
382.261	127.14
382.471	116.9
382.681	80.04
382.891	51.37
383.101	47.27
383.311	16.55
383.521	73.9
383.731	16.55
383.941	110.76
384.151	125.1
384.361	98.47
384.571	86.19
384.781	75.95
384.991	108.71
385.201	118.95
385.411	59.56
385.621	32.94
385.831	98.47
386.041	100.52
386.251	0.17
386.461	90.28
386.671	147.62
386.881	88.23
387.091	96.43
387.301	123.05
387.511	41.13
387.72	90.28
387.93	108.71
388.14	127.14
388.35	131.24
388.56	98.47
388.769	92.33
388.979	98.47
389.189	102.57
389.399	84.14
389.609	139.43
389.818	45.23
390.028	69.8
390.238	88.23
390.447	102.57
390.657	4.27
390.867	90.28
391.076	20.65
391.286	82.09
391.496	61.61
391.705	71.85
391.915	141.48
392.125	131.24
392.334	73.9
392.544	164.01
392.753	98.47
392.963	110.76
393.172	172.2
393.382	10.41
393.591	178.34
393.801	84.14
394.01	118.95
394.22	116.9
394.429	123.05
394.639	190.63
394.848	153.77
395.058	8.36
395.267	196.78
395.477	151.72
395.686	127.14
395.895	180.39
396.105	215.21
396.314	106.67
396.524	82.09
396.733	65.71
396.942	133.29
397.152	137.38
397.361	94.38
397.57	198.82
397.78	196.78
397.989	67.75
398.198	182.44
398.407	121
398.617	108.71
398.826	24.75
399.035	147.62
399.244	180.39
399.453	174.25
399.663	90.28
399.872	184.49
400.081	73.9
400.29	174.25
400.499	106.67
400.708	127.14
400.917	110.76
401.127	168.1
401.336	88.23
401.545	221.35
401.754	139.43
401.963	159.91
402.172	129.19
402.381	118.95
402.59	129.19
402.799	164.01
403.008	157.86
403.217	168.1
403.426	153.77
403.635	159.91
403.844	174.25
404.053	196.78
404.262	141.48
404.471	237.74
404.68	170.15
404.888	184.49
405.097	137.38
405.306	209.06
405.515	266.41
405.724	153.77
405.933	311.46
406.142	227.5
406.35	219.3
406.559	250.02
406.768	190.63
406.977	250.02
407.185	327.85
407.394	284.84
407.603	196.78
407.812	303.27
408.02	243.88
408.229	233.64
408.438	317.61
408.646	260.26
408.855	319.65
409.064	352.42
409.272	237.74
409.481	237.74
409.69	303.27
409.898	403.62
410.107	377
410.315	479.4
410.524	393.38
410.733	426.15
410.941	350.37
411.15	426.15
411.358	454.82
411.567	415.91
411.775	477.35
411.984	495.78
412.192	589.99
412.401	549.03
412.609	649.38
412.818	616.61
413.026	573.6
413.234	561.31
413.443	581.79
413.651	704.67
413.86	667.81
414.068	737.44
414.276	762.02
414.485	792.73
414.693	721.06
414.901	872.61
415.11	802.97
415.318	819.36
415.526	850.08
415.734	979.1
415.943	899.23
416.151	901.28
416.359	1038.49
416.567	1020.06
416.776	1104.03
416.984	1181.85
417.192	1173.66
417.4	1124.51
417.608	1163.42
417.817	1355.93
418.025	1337.49
418.233	1384.6
418.441	1323.16
418.649	1480.85
418.857	1570.96
419.065	1673.36
419.273	1534.1
419.481	1593.49
419.689	1652.88
419.897	1763.47
420.105	1859.73
420.313	1847.44
420.521	1925.26
420.729	1939.6
420.937	2099.34
421.145	2042
421.353	2035.85
421.561	2388.1
421.769	2357.38
421.977	2322.57
422.185	2400.39
422.393	2531.46
422.601	2736.26
422.809	2795.65
423.017	2777.22
423.224	2803.84
423.432	3090.56
423.64	2900.09
423.848	3352.7
424.056	3137.66
424.263	3430.52
424.471	3502.2
424.679	3606.64
424.887	3631.22
425.094	3782.77
425.302	3745.91
425.51	3919.98
425.718	3858.54
425.925	4167.79
426.133	4210.79
426.341	4538.47
426.548	4671.59
426.756	4450.41
426.964	4771.94
427.171	4970.59
427.379	5138.52
427.586	5240.92
427.794	5417.05
428.001	5634.13
428.209	5757.01
428.417	5734.48
428.624	6135.89
428.832	6121.55
429.039	6037.58
429.247	6105.17
429.454	6647.88
429.662	7176.25
429.869	6699.08
430.076	7235.64
430.284	6774.85
430.491	7358.52
430.699	7501.88
430.906	7503.93
431.114	7602.23
431.321	8034.35
431.528	7981.1
431.736	8753.19
431.943	9052.19
432.15	8878.12
432.358	8898.59
432.565	9334.81
432.772	9379.87
432.979	9650.2
433.187	9863.19
433.394	9934.87
433.601	10457.1
433.808	10745.86
434.016	10715.14
434.223	11059.2
434.43	11700.22
434.637	11565.05
434.844	12253.17
435.052	12382.19
435.259	12238.83
435.466	12525.55
435.673	12091.38
435.88	13230.05
436.087	13907.93
436.294	13746.14
436.501	13535.2
436.708	13752.28
436.915	14297.04
437.122	14757.83
437.329	14729.16
437.537	15265.73
437.743	15484.86
437.95	15378.37
438.157	16361.39
438.364	16666.54
438.571	16744.36
438.778	16613.29
438.985	18454.42
439.192	17508.26
439.399	18169.75
439.606	17655.71
439.813	18442.13
440.02	19541.89
440.227	19343.24
440.433	19373.96
440.64	19965.82
440.847	19515.26
441.054	20512.63
441.261	21491.55
441.467	21122.92
441.674	21665.63
441.881	22603.6
442.088	22576.98
442.294	22404.95
442.501	22755.15
442.708	23109.45
442.914	24184.63
443.121	25167.66
443.328	24428.34
443.534	26111.77
443.741	25392.94
443.948	25028.4
444.154	26812.18
444.361	26795.79
444.568	26914.58
444.774	27168.52
444.981	27410.18
445.187	28032.77
445.394	28901.11
445.6	28612.34
445.807	31547.08
446.013	30127.84
446.22	30519
446.426	31829.7
446.633	32143.04
446.839	33052.34
447.046	31841.99
447.252	33672.87
447.459	33855.14
447.665	33398.45
447.871	35047.06
448.078	36380.29
448.284	34440.86
448.491	35747.47
448.697	36904.57
448.903	37729.9
449.11	37627.5
449.316	36974.2
449.522	38010.47
449.728	39274.07
449.935	39128.66
450.141	39151.19
450.347	40107.59
450.553	38563.42
450.76	39018.07
450.966	40226.37
451.172	39806.54
451.378	40998.46
451.584	39953.99
451.791	40932.92
451.997	41164.34
452.203	41825.84
452.409	41799.21
452.615	41223.73
452.821	39761.48
453.027	39315.03
453.233	41610.8
453.44	39982.66
453.646	40328.77
453.852	40552
454.058	41291.32
454.264	40089.16
454.47	40875.58
454.676	39659.09
454.882	41223.73
455.088	37631.6
455.294	38020.71
455.5	38749.79
455.705	39038.55
455.911	37488.24
456.117	36370.05
456.323	36175.49
456.529	34346.65
456.735	35774.09
456.941	34854.55
457.147	34150.05
457.352	33117.87
457.558	32999.09
457.764	33093.3
457.97	32456.38
458.176	31653.58
458.381	31409.87
458.587	29847.27
458.793	29916.9
458.999	28452.6
459.204	30512.86
459.41	29452.01
459.616	27672.32
459.821	27401.99
460.027	27631.37
460.233	26781.46
460.438	25720.61
460.644	26087.2
460.85	24753.97
461.055	24612.66
461.261	24375.09
461.466	22556.5
461.672	21589.86
461.878	23191.37
462.083	21862.24
462.289	21430.12
462.494	21065.58
462.7	20250.49
462.905	19449.73
463.111	20213.62
463.316	20526.96
463.522	19830.65
463.727	20010.87
463.932	19750.78
464.138	19609.47
464.343	19910.52
464.549	18718.61
464.754	19939.19
464.959	19439.49
465.165	19201.93
465.37	18507.66
465.575	18259.86
465.781	18988.94
465.986	19068.81
466.191	18190.23
466.397	17756.06
466.602	17063.85
466.807	17608.61
467.012	17706.91
467.218	17524.64
467.423	17086.37
467.628	17325.99
467.833	18077.59
468.038	17790.88
468.244	16885.67
468.449	17620.89
468.654	16996.26
468.859	16932.78
469.064	16750.51
469.269	15951.8
469.474	16390.06
469.679	16684.97
469.885	15996.85
470.09	16191.41
470.295	16119.73
470.5	15859.64
470.705	15572.93
470.91	15347.65
471.115	15196.1
471.32	15435.71
471.525	15501.25
471.73	14780.36
471.935	14727.11
472.139	14430.16
472.344	14665.67
472.549	14362.58
472.754	14469.07
472.959	14002.13
473.164	13780.95
473.369	13598.68
473.574	14114.77
473.778	13754.33
473.983	13807.58
474.188	13604.83
474.393	13324.26
474.598	13316.06
474.802	12976.1
475.007	12914.66
475.212	12953.57
475.417	12443.63
475.621	12374
475.826	12564.46
476.031	12472.3
476.235	12019.7
476.44	12029.94
476.645	11915.25
476.849	11765.75
477.054	11532.28
477.259	11812.85
477.463	11646.97
477.668	11292.67
477.872	11436.03
478.077	11223.04
478.282	10913.8
478.486	11005.95
478.691	10723.34
478.895	11042.82
479.1	10756.1
479.304	10864.64
479.509	10762.25
479.713	10698.76
479.918	10358.8
480.122	10186.77
480.326	10594.31
480.531	10455.05
480.735	10160.14
480.94	10182.67
481.144	10424.33
481.348	9846.8
481.553	10227.73
481.757	9879.57
481.961	10137.62
482.166	10127.38
482.37	10235.92
482.574	9760.79
482.778	9969.68
482.983	10127.38
483.187	9990.16
483.391	10018.83
483.595	9748.5
483.8	9834.52
484.004	10010.64
484.208	9947.15
484.412	9754.65
484.616	9928.72
484.821	10006.55
485.025	9586.71
485.229	9988.11
485.433	9857.04
485.637	9861.14
485.841	9725.97
486.045	9787.41
486.249	9783.32
486.453	9783.32
486.657	9633.82
486.861	9879.57
487.065	9625.62
487.269	9592.86
487.473	9560.09
487.677	9871.38
487.881	9822.23
488.085	9766.93
488.289	9822.23
488.493	9840.66
488.697	9820.18
488.901	10002.45
489.105	9912.34
489.309	9920.53
489.512	9930.77
489.716	9893.91
489.92	9824.28
490.124	9732.12
490.328	10092.56
490.531	9867.28
490.735	9914.39
490.939	10086.42
491.143	9945.11
491.346	9797.65
491.55	10176.53
491.754	10086.42
491.958	10020.88
492.161	9975.83
492.365	10115.09
492.569	10133.52
492.772	10154
492.976	10158.1
493.18	10305.55
493.383	10446.86
493.587	10389.52
493.79	10622.98
493.994	10383.37
494.197	10569.74
494.401	10549.26
494.605	10676.23
494.808	10883.08
495.012	10741.77
495.215	10670.09
495.419	10940.42
495.622	10883.08
495.825	11026.43
496.029	11022.34
496.232	11251.71
496.436	11114.5
496.639	11524.09
496.843	11575.29
497.046	11386.88
497.249	11696.12
497.453	11589.63
497.656	12015.6
497.859	11882.49
498.063	12044.27
498.266	12130.29
498.469	12308.46
498.673	12324.85
498.876	12429.29
499.079	12599.27
499.282	12822.5
499.485	12959.72
499.689	12730.34
499.892	13111.27
500.095	13037.54
500.298	13518.81
500.501	13361.12
500.705	13653.98
500.908	13780.95
501.111	13828.06
501.314	13770.71
501.517	14327.76
501.72	14004.18
501.923	14204.88
502.126	14643.15
502.329	14864.33
502.532	14704.59
502.735	14827.46
502.938	15224.77
503.141	15069.12
503.344	15306.69
503.547	15249.35
503.75	15859.64
503.953	15871.93
504.156	15810.49
504.359	15968.18
504.562	16162.74
504.765	16594.86
504.968	16705.45
505.17	16603.05
505.373	16682.92
505.576	17049.51
505.779	17362.85
505.982	17051.56
506.185	17571.74
506.387	17665.95
506.59	18016.15
506.793	18536.34
506.996	17911.71
507.198	18495.38
507.401	18452.37
507.604	18698.13
507.807	19052.42
508.009	19300.23
508.212	19167.11
508.415	19632
508.617	19767.17
508.82	19904.38
509.022	20051.83
509.225	20565.87
509.428	20510.58
509.63	20459.38
509.833	20805.49
510.035	21426.02
510.238	21303.14
510.44	21466.98
510.643	21452.64
510.845	21858.14
511.048	21634.91
511.25	22239.06
511.453	22212.44
511.655	23045.96
511.858	22728.53
512.06	23140.17
512.262	23205.7
512.465	23551.81
512.667	23674.69
512.87	23834.43
513.072	23938.88
513.274	24274.74
513.477	24833.84
513.679	24606.52
513.881	25233.19
514.084	25249.58
514.286	25081.64
514.488	25462.57
514.69	25964.32
514.893	26173.21
515.095	26255.13
515.297	26457.88
515.499	26623.76
515.701	26738.45
515.904	27256.59
516.106	27322.12
516.308	27653.89
516.51	28022.53
516.712	27920.13
516.914	28348.15
517.116	28577.53
517.318	28620.53
517.52	28780.28
517.722	28956.4
517.925	29036.27
518.127	29511.4
518.329	29882.08
518.531	29435.63
518.733	30072.54
518.935	30392.03
519.136	30414.55
519.338	30809.81
519.54	30899.92
519.742	31137.49
519.944	30947.03
520.146	31465.16
520.348	31604.42
520.55	32231.1
520.752	32249.53
520.954	32624.31
521.155	31979.2
521.357	32839.35
521.559	33050.29
521.761	33199.79
521.963	32906.93
522.164	32941.75
522.366	33515.18
522.568	33566.38
522.77	33523.37
522.971	34129.57
523.173	33861.29
523.375	34172.58
523.576	34119.33
523.778	34160.29
523.98	34369.18
524.181	34553.5
524.383	34725.53
524.584	35157.65
524.786	35327.63
524.988	35051.16
525.189	35034.77
525.391	35214.99
525.592	35686.03
525.794	35681.93
525.995	35245.71
526.197	35358.35
526.398	35532.43
526.6	35587.72
526.801	35661.45
527.003	35419.79
527.204	35743.37
527.406	36009.61
527.607	35933.83
527.808	36404.86
528.01	35628.68
528.211	36017.8
528.412	36679.29
528.614	36441.73
528.815	36318.85
529.016	36816.5
529.218	36171.39
529.419	36441.73
529.62	36058.76
529.822	35958.41
530.023	36642.43
530.224	36204.16
530.425	35913.35
530.626	35739.27
530.828	35942.02
531.029	36497.02
531.23	36109.96
531.431	36263.55
531.632	36226.69
531.833	35843.72
532.035	36054.66
532.236	36083.33
532.437	36112
532.638	35704.46
532.839	36198.02
533.04	36095.62
533.241	36062.85
533.442	36167.3
533.643	35841.67
533.844	35819.14
534.045	36017.8
534.246	35616.4
534.447	36064.9
534.648	35708.55
534.849	36032.13
535.05	35165.84
535.251	35518.09
535.451	35550.86
535.652	35614.35
535.853	35307.15
536.054	35468.94
536.255	35505.8
536.456	35012.24
536.657	35769.99
536.857	35186.32
537.058	35063.44
537.259	35516.04
537.46	35325.58
537.66	35325.58
537.861	35167.89
538.062	35067.54
538.263	35106.45
538.463	34922.13
538.664	35116.69
538.865	35321.49
539.065	34983.57
539.266	34606.75
539.466	35163.79
539.667	34657.95
539.868	35229.33
540.068	34780.82
540.269	34490.01
540.469	35079.83
540.67	34629.27
540.87	34537.12
541.071	34404
541.271	34500.25
541.472	34651.8
541.672	34684.57
541.873	34723.48
542.073	34391.71
542.274	34805.4
542.474	34463.39
542.675	34252.45
542.875	34739.86
543.075	34453.15
543.276	34066.08
543.476	34969.24
543.676	33982.12
543.877	34776.73
544.077	34205.34
544.277	34371.23
544.478	34700.95
544.678	34651.8
544.878	34174.63
545.078	34381.47
545.279	33910.44
545.479	34389.66
545.679	34369.18
545.879	34240.16
546.079	34535.07
546.28	33840.81
546.48	33996.45
546.68	34375.33
546.88	34148
547.08	34481.82
547.28	33959.59
547.48	33394.35
547.68	34301.6
547.88	33595.05
548.081	34348.7
548.281	34281.12
548.481	34518.68
548.681	34510.49
548.881	34313.89
549.081	33990.31
549.28	33605.29
549.48	34211.49
549.68	33978.02
549.88	34588.31
550.08	33855.14
550.28	34524.83
550.48	34041.51
550.68	34201.25
550.88	34037.41
551.08	34029.22
551.279	34131.62
551.479	34086.56
551.679	34277.02
551.879	34346.65
552.079	34358.94
552.278	34135.71
552.478	34096.8
552.678	33760.94
552.878	34408.09
553.077	34059.94
553.277	34053.8
553.477	34629.27
553.676	34256.54
553.876	34129.57
554.076	34070.18
554.275	34240.16
554.475	34041.51
554.674	34483.87
554.874	34770.58
555.074	34467.48
555.273	34473.63
555.473	34174.63
555.672	34354.85
555.872	34485.92
556.071	34672.28
556.271	34623.13
556.47	34242.21
556.67	34131.62
556.869	34088.61
557.068	34463.39
557.268	34283.17
557.467	34498.2
557.667	34285.22
557.866	34432.67
558.065	33992.36
558.265	34449.05
558.464	34107.04
558.663	34582.17
558.863	34012.84
559.062	34754.2
559.261	34016.93
559.461	34729.62
559.66	34188.96
559.859	34358.94
560.058	33967.78
560.258	34270.88
560.457	33937.06
560.656	34586.27
560.855	34254.5
561.054	34666.14
561.253	33867.43
561.453	34659.99
561.652	34494.11
561.851	34533.02
562.05	34303.65
562.249	34156.19
562.448	34522.78
562.647	34096.8
562.846	33961.64
563.045	34352.8
563.244	33838.76
563.443	34342.56
563.642	33836.71
563.841	34074.27
564.04	34051.75
564.239	34481.82
564.438	33986.21
564.637	33832.61
564.836	34035.36
565.035	33650.35
565.234	33910.44
565.432	33588.91
565.631	33529.52
565.83	33838.76
566.029	33875.62
566.228	33849
566.427	33662.63
566.625	33349.29
566.824	33494.7
567.023	33674.92
567.222	33003.19
567.42	33461.93
567.619	33279.66
567.818	33609.39
568.016	33437.36
568.215	33445.55
568.414	33050.29
568.612	33470.12
568.811	33128.11
569.01	33226.42
569.208	32997.04
569.407	32812.73
569.605	32624.31
569.804	33046.19
570.002	32763.57
570.201	32767.67
570.4	32374.46
570.598	32448.19
570.797	32093.89
570.995	32526.01
571.193	32007.87
571.392	32374.46
571.59	32132.8
571.789	32206.53
571.987	32386.75
572.186	32014.02
572.384	32038.59
572.582	31870.66
572.781	31891.14
572.979	31723.21
573.177	31633.1
573.376	31831.75
573.574	31450.83
573.772	31729.35
573.971	31528.65
574.169	31375.05
574.367	31235.79
574.565	31542.99
574.763	31090.38
574.962	30981.84
575.16	30836.44
575.358	31176.4
575.556	30686.93
575.754	31145.68
575.952	30656.21
576.151	31043.28
576.349	30283.48
576.547	30217.95
576.745	30328.54
576.943	30303.96
577.141	30240.48
577.339	30439.13
577.537	30090.98
577.735	29916.9
577.933	29941.47
578.131	30224.09
578.329	29959.91
578.527	29275.88
578.725	29796.07
578.923	29966.05
579.121	29351.66
579.319	29503.21
579.516	29886.18
579.714	29200.11
579.912	29521.64
580.11	29173.49
580.308	29153.01
580.506	28960.5
580.704	28710.64
580.901	28935.92
581.099	29286.12
581.297	28710.64
581.495	28487.42
581.692	28552.95
581.89	28438.26
582.088	28823.28
582.285	28350.2
582.483	28567.29
582.681	28145.41
582.878	28100.35
583.076	28063.49
583.274	28372.73
583.471	28016.38
583.669	28143.36
583.866	27582.21
584.064	27645.7
584.262	27750.15
584.459	27668.23
584.657	27531.01
584.854	27901.7
585.052	27074.32
585.249	27352.84
585.447	27488.01
585.644	27334.41
585.841	27479.82
586.039	27219.72
586.236	27143.95
586.434	27004.69
586.631	26734.35
586.828	26799.89
587.026	27211.53
587.223	27148.04
587.42	26545.94
587.618	26613.52
587.815	26406.68
588.012	26720.02
588.21	26562.33
588.407	26644.24
588.604	26396.44
588.801	26136.35
588.999	26371.86
589.196	26236.7
589.393	26351.38
589.59	26279.71
589.787	26062.62
589.984	25962.27
590.182	25747.23
590.379	26179.36
590.576	25706.27
590.773	25896.74
590.97	25919.26
591.167	25796.39
591.364	25517.86
591.561	25501.48
591.758	25460.52
591.955	25196.33
592.152	25569.06
592.349	25440.04
592.546	25222.95
592.743	25755.43
592.94	25024.3
593.137	25270.06
593.334	25354.02
593.531	24770.35
593.727	25245.48
593.924	25204.52
594.121	25036.59
594.318	25081.64
594.515	24626.99
594.712	25155.37
594.908	24569.65
595.105	24760.11
595.302	24713.01
595.499	24958.77
595.696	24743.73
595.892	24610.61
596.089	24923.95
596.286	25038.64
596.482	24553.27
596.679	24606.52
596.876	24407.86
597.072	24153.91
597.269	24622.9
597.466	24471.35
597.662	24526.64
597.859	24598.32
598.055	24528.69
598.252	24139.58
598.448	24635.19
598.645	24360.76
598.841	24450.87
599.038	24569.65
599.234	24203.07
599.431	24194.87
599.627	24260.41
599.824	24307.51
600.02	24229.69
600.217	24393.53
600.413	24303.42
600.609	24090.43
600.806	24299.32
601.002	24583.99
601.198	24051.52
601.395	23971.64
601.591	24164.15
601.787	24051.52
601.984	24039.23
602.18	24768.3
602.376	24221.5
602.572	24090.43
602.769	24620.85
602.965	23826.24
603.161	24422.2
603.357	24297.27
603.553	24184.63
603.75	24399.67
603.946	24211.26
604.142	24459.06
604.338	24223.55
604.534	24473.4
604.73	24495.92
604.926	24385.33
605.122	24571.7
605.318	24641.33
605.514	24336.18
605.71	24287.03
605.906	24362.81
606.102	24416.05
606.298	24465.21
606.494	24502.07
606.69	24495.92
606.886	24854.32
607.082	24481.59
607.278	24799.02
607.474	24588.08
607.67	24637.23
607.866	24565.56
608.062	24960.81
608.257	24870.7
608.453	24774.45
608.649	24704.82
608.845	24772.4
609.041	25175.85
609.236	25192.23
609.432	25104.17
609.628	24741.68
609.824	24979.25
610.019	24878.9
610.215	25200.43
610.411	25401.13
610.606	25077.55
610.802	25317.16
610.998	25173.8
611.193	25214.76
611.389	25284.39
611.584	25179.95
611.78	25130.8
611.976	25165.61
612.171	25257.77
612.367	25407.27
612.562	25073.45
612.758	25296.68
612.953	25108.27
613.149	25417.51
613.344	25472.81
613.539	25581.35
613.735	25458.47
613.93	25847.58
614.126	25661.22
614.321	25782.05
614.517	25712.42
614.712	25544.48
614.907	25730.85
615.103	25827.1
615.298	25556.77
615.493	26068.76
615.688	25542.44
615.884	25890.59
616.079	25343.78
616.274	25906.98
616.47	25554.72
616.665	25759.52
616.86	25755.43
617.055	25632.55
617.25	25548.58
617.445	25702.18
617.641	25530.15
617.836	25638.69
618.031	25487.14
618.226	25669.41
618.421	25450.28
618.616	25724.71
618.811	25251.63
619.006	25632.55
619.201	25231.15
619.396	25667.36
619.591	24766.26
619.786	25362.22
619.981	24987.44
620.176	25188.14
620.371	24776.5
620.566	25046.83
620.761	24874.8
620.956	25155.37
621.151	24645.43
621.346	25061.16
621.541	24289.08
621.735	24315.7
621.93	24088.38
622.125	24549.17
622.32	24022.84
622.515	24407.86
622.709	24026.94
622.904	24184.63
623.099	23783.23
623.294	24110.91
623.488	23768.9
623.683	23619.39
623.878	23433.03
624.072	23803.71
624.267	22984.52
624.462	23052.11
624.656	22986.57
624.851	23117.64
625.046	23127.88
625.24	23062.35
625.435	22884.17
625.629	22779.73
625.824	22554.45
626.018	22706
626.213	21876.57
626.407	22224.73
626.602	21886.81
626.796	22034.27
626.991	21991.26
627.185	21897.05
627.38	21839.71
627.574	21704.54
627.768	21245.8
627.963	21544.8
628.157	21227.37
628.352	21376.87
628.546	20862.83
628.74	21370.72
628.935	20840.3
629.129	20883.31
629.323	20574.06
629.517	20490.1
629.712	20518.77
629.906	20561.78
630.1	20283.25
630.294	20324.21
630.489	20172.66
630.683	20328.31
630.877	20205.43
631.071	19998.59
631.265	20084.6
631.459	19627.9
631.653	19509.12
631.848	19644.29
632.042	19558.27
632.236	19668.86
632.43	19281.8
632.624	19373.96
632.818	19058.57
633.012	18821
633.206	18851.72
633.4	19107.72
633.594	18679.69
633.788	18771.85
633.982	18378.64
634.176	18556.82
634.369	18102.17
634.563	18534.29
634.757	18116.5
634.951	18208.66
635.145	18003.86
635.339	18134.93
635.533	17792.92
635.726	18134.93
635.92	17168.29
636.114	17579.93
636.308	17426.34
636.501	17399.71
636.695	17287.07
636.889	17145.77
637.083	16902.06
637.276	16994.22
637.47	16963.5
637.664	17026.98
637.857	16785.32
638.051	16582.57
638.244	16359.35
638.438	16332.72
638.632	16498.61
638.825	16082.87
639.019	15888.31
639.212	15916.98
639.406	16199.6
639.599	15929.27
639.793	15753.15
639.986	15581.12
640.18	15497.15
640.373	15511.49
640.567	15310.79
640.76	15611.84
640.954	15407.04
641.147	15075.27
641.34	15204.29
641.534	15120.32
641.727	15155.14
641.92	14907.34
642.114	14653.39
642.307	14655.44
642.5	14686.15
642.694	14399.44
642.887	14567.37
643.08	14381.01
643.273	14133.2
643.467	14047.19
643.66	14149.59
643.853	13871.06
644.046	13785.05
644.239	13830.1
644.432	13846.49
644.626	13379.55
644.819	13565.92
645.012	13590.49
645.205	13578.2
645.398	13494.24
645.591	13258.72
645.784	13402.08
645.977	13080.55
646.17	13160.42
646.363	13096.93
646.556	12863.46
646.749	12738.54
646.942	12675.05
647.135	12812.26
647.328	12292.08
647.521	12662.76
647.714	12435.44
647.907	12562.41
648.099	12292.08
648.292	12234.74
648.485	12361.71
648.678	12181.49
648.871	12062.71
649.064	11958.26
649.256	11724.79
649.449	11726.84
649.642	11843.57
649.835	11407.36
650.027	11747.32
650.22	11421.69
650.413	11556.86
650.605	11386.88
650.798	11239.42
650.991	11442.17
651.183	11378.69
651.376	11184.13
651.568	11229.18
651.761	10932.23
651.954	11100.16
652.146	10938.37
652.339	10774.53
652.531	10811.4
652.724	10887.17
652.916	10709
653.109	10762.25
653.301	10674.18
653.494	10549.26
653.686	10487.82
653.879	10575.88
654.071	10362.89
654.263	10201.1
654.456	10231.82
654.648	10498.06
654.84	9994.26
655.033	10117.14
655.225	10000.4
655.417	9955.35
655.61	9973.78
655.802	9998.35
655.994	9795.61
656.186	9658.39
656.379	9768.98
656.571	9783.32
656.763	9611.29
656.955	9545.75
657.148	9676.82
657.34	9582.62
657.532	9310.24
657.724	9449.5
657.916	9095.2
658.108	9363.48
658.3	9220.13
658.492	9209.89
658.684	8982.56
658.876	9050.14
659.068	9211.93
659.26	9138.21
659.452	8937.51
659.644	8880.16
659.836	8863.78
660.028	8812.58
660.22	8622.12
660.412	8749.09
660.604	8724.52
660.796	8527.91
660.988	8464.43
661.18	8396.84
661.372	8372.27
661.563	8441.9
661.755	8243.24
661.947	8335.4
662.139	8257.58
662.331	8261.68
662.522	7972.91
662.714	8138.8
662.906	7911.47
663.097	8095.79
663.289	7948.34
663.481	7823.41
663.673	7923.76
663.864	7956.53
664.056	7979.06
664.247	7684.15
664.439	7831.6
664.631	7778.36
664.822	7561.27
665.014	7684.15
665.205	7538.74
665.397	7651.38
665.588	7614.52
665.78	7325.75
665.971	7411.77
666.163	7495.74
666.354	7340.09
666.546	7274.56
666.737	7184.45
666.929	7247.93
667.12	7350.33
667.311	7065.66
667.503	7137.34
667.694	7032.9
667.885	7069.76
668.077	7012.42
668.268	6926.4
668.459	6987.84
668.651	7032.9
668.842	6848.58
669.033	6848.58
669.224	6733.89
669.416	6701.12
669.607	6760.52
669.798	6727.75
669.989	6758.47
670.18	6660.17
670.371	6627.4
670.563	6604.87
670.754	6494.28
670.945	6586.44
671.136	6654.02
671.327	6525
671.518	6531.14
671.709	6406.22
671.9	6539.33
672.091	6348.87
672.282	6496.33
672.473	6058.06
672.664	6602.82
672.855	6283.34
673.046	6199.37
673.237	6303.82
673.428	6217.8
673.619	6269
673.809	6195.28
674	6242.38
674.191	6242.38
674.382	6148.17
674.573	6117.45
674.764	6078.54
674.954	6013.01
675.145	5957.71
675.336	5906.51
675.527	6041.68
675.717	6056.01
675.908	6004.82
676.099	5939.28
676.289	6008.91
676.48	5976.14
676.671	6080.59
676.861	5924.94
677.052	5890.13
677.243	5857.36
677.433	5826.64
677.624	5900.37
677.814	5908.56
678.005	5816.4
678.195	5843.03
678.386	5709.91
678.576	5703.76
678.767	5800.02
678.957	5834.83
679.148	5695.57
679.338	5773.39
679.529	5914.7
679.719	5718.1
679.909	5709.91
680.1	5703.76
680.29	5697.62
680.481	5627.99
680.671	5789.78
680.861	5627.99
681.052	5584.98
681.242	5451.86
681.432	5679.19
681.622	5556.31
681.813	5509.21
682.003	5560.41
682.193	5535.83
682.383	5537.88
682.573	5480.54
682.764	5462.1
682.954	5656.66
683.144	5615.7
683.334	5548.12
683.524	5521.49
683.714	5640.28
683.904	5378.14
684.094	5632.08
684.284	5447.77
684.474	5374.04
684.664	5537.88
684.854	5482.58
685.044	5509.21
685.234	5488.73
685.424	5371.99
685.614	5400.66
685.804	5427.29
685.994	5255.26
686.184	5455.96
686.374	5349.47
686.564	5210.2
686.753	5427.29
686.943	5285.98
687.133	5277.79
687.323	5107.8
687.513	5343.32
687.702	5236.83
687.892	5156.96
688.082	5187.68
688.272	5124.19
688.461	5202.01
688.651	5077.09
688.841	4915.3
689.03	4943.97
689.22	5169.24
689.41	5085.28
689.599	5040.22
689.789	5054.56
689.979	5019.74
690.168	5204.06
690.358	4962.4
690.547	5003.36
690.737	5070.94
690.926	4900.96
691.116	4931.68
691.305	5077.09
691.495	4909.15
691.684	5025.89
691.874	4890.72
692.063	4866.14
692.252	4933.73
692.442	4952.16
692.631	4737.12
692.82	4997.21
693.01	4659.3
693.199	4780.13
693.388	4841.57
693.578	4816.99
693.767	4882.53
693.956	4882.53
694.146	4610.15
694.335	4769.89
694.524	4702.31
694.713	4714.59
694.902	4778.08
695.092	4638.82
695.281	4591.72
695.47	4595.81
695.659	4579.43
695.848	4692.07
696.037	4587.62
696.226	4587.62
696.415	4616.29
696.604	4577.38
696.793	4620.39
696.982	4501.61
697.171	4581.48
697.36	4558.95
697.549	4466.79
697.738	4585.57
697.927	4415.59
698.116	4530.28
698.305	4593.76
698.494	4485.22
698.683	4499.56
698.872	4407.4
699.061	4337.77
699.25	4401.26
699.438	4479.08
699.627	4460.65
699.816	4448.36
700.005	4415.59
700.193	4358.25
700.382	4294.76
700.571	4368.49
700.76	4466.79
700.948	4382.82
701.137	4272.23
701.326	4341.86
701.514	4243.56
701.703	4272.23
701.892	4157.55
702.08	4294.76
702.269	4317.29
702.457	4149.36
702.646	4235.37
702.834	4042.86
703.023	4151.4
703.212	4087.92
703.4	4192.36
703.589	4057.2
703.777	4196.46
703.965	4139.12
704.154	4118.64
704.342	4022.38
704.531	4223.08
704.719	4063.34
704.907	4114.54
705.096	3975.28
705.284	4040.81
705.472	4190.31
705.661	3997.81
705.849	4102.25
706.037	3997.81
706.226	3971.18
706.414	3985.52
706.602	3848.3
706.79	3991.66
706.979	3913.84
707.167	3833.97
707.355	3866.74
707.543	3895.41
707.731	3850.35
707.919	3893.36
708.107	3756.15
708.296	3784.82
708.484	3758.19
708.672	3756.15
708.86	3772.53
709.048	3766.39
709.236	3672.18
709.424	3756.15
709.612	3793.01
709.8	3655.79
709.988	3647.6
710.176	3723.38
710.364	3592.31
710.551	3698.8
710.739	3672.18
710.927	3586.16
711.115	3657.84
711.303	3743.86
711.491	3721.33
711.679	3573.88
711.866	3547.25
712.054	3709.04
712.242	3682.42
712.43	3637.36
712.617	3653.75
712.805	3295.35
712.993	3463.29
713.181	3407.99
713.368	3596.4
713.556	3371.13
713.744	3455.09
713.931	3561.59
714.119	3547.25
714.306	3510.39
714.494	3407.99
714.682	3369.08
714.869	3428.47
715.057	3461.24
715.244	3426.42
715.432	3469.43
715.619	3442.81
715.807	3420.28
715.994	3367.03
716.182	3354.74
716.369	3373.18
716.556	3326.07
716.744	3313.78
716.931	3362.94
717.119	3444.85
717.306	3369.08
717.493	3276.92
717.681	3235.96
717.868	3235.96
718.055	3260.54
718.242	3123.32
718.43	3211.39
718.617	3188.86
718.804	3225.72
718.991	3266.68
719.179	3293.3
719.366	3123.32
719.553	3174.52
719.74	3072.12
719.927	3170.43
720.114	3125.37
720.301	3063.93
720.488	2990.21
720.676	3080.32
720.863	3117.18
721.05	3229.82
721.237	3006.59
721.424	3082.36
721.611	3039.36
721.798	2961.53
721.985	3031.16
722.172	2936.96
722.358	3104.89
722.545	3057.79
722.732	3008.64
722.919	3119.23
723.106	2846.85
723.293	2943.1
723.48	2867.33
723.667	2924.67
723.853	2934.91
724.04	2990.21
724.227	2836.61
724.414	2857.09
724.6	2998.4
724.787	2842.75
724.974	2857.09
725.161	2842.75
725.347	2775.17
725.534	2797.7
725.72	2877.57
725.907	2771.07
726.094	2791.55
726.28	2703.49
726.467	2801.79
726.653	2760.83
726.84	2844.8
727.027	2852.99
727.213	2613.38
727.4	2711.68
727.586	2592.9
727.773	2773.12
727.959	2680.96
728.145	2764.93
728.332	2646.15
728.518	2713.73
728.705	2691.2
728.891	2703.49
729.077	2691.2
729.264	2597
729.45	2664.58
729.636	2769.02
729.823	2535.56
730.009	2672.77
730.195	2625.67
730.382	2693.25
730.568	2580.61
730.754	2695.3
730.94	2572.42
731.126	2654.34
731.313	2658.43
731.499	2564.23
731.685	2728.07
731.871	2529.41
732.057	2621.57
732.243	2490.5
732.429	2533.51
732.615	2470.02
732.801	2588.8
732.987	2476.16
733.173	2478.21
733.359	2607.23
733.545	2490.5
733.731	2476.16
733.917	2416.77
734.103	2541.7
734.289	2586.76
734.475	2564.23
734.661	2482.31
734.847	2453.64
735.033	2379.91
735.219	2564.23
735.404	2445.45
735.59	2375.81
735.776	2476.16
735.962	2367.62
736.148	2437.25
736.333	2306.18
736.519	2441.35
736.705	2330.76
736.89	2338.95
737.076	2482.31
737.262	2230.41
737.447	2267.27
737.633	2408.58
737.819	2375.81
738.004	2359.43
738.19	2289.8
738.375	2365.57
738.561	2353.29
738.747	2218.12
738.932	2343.05
739.118	2361.48
739.303	2265.22
739.489	2424.97
739.674	2285.7
739.859	2119.82
740.045	2289.8
740.23	2306.18
740.416	2189.45
740.601	2191.5
740.786	2209.93
740.972	2076.81
741.157	2140.3
741.342	2119.82
741.528	2146.44
741.713	2138.25
741.898	2066.57
742.084	2060.43
742.269	2093.19
742.454	2062.48
742.639	2125.96
742.824	2105.48
743.01	2052.24
743.195	2107.53
743.38	2072.72
743.565	1933.45
743.75	2058.38
743.935	2089.1
744.12	2132.11
744.305	2056.33
744.49	1962.12
744.675	2003.08
744.86	2068.62
745.045	1951.88
745.23	1898.64
745.415	2015.37
745.6	2007.18
745.785	1884.3
745.97	1908.88
746.155	1945.74
746.34	1966.22
746.525	1755.28
746.71	1945.74
746.895	1859.73
747.079	1812.62
747.264	1869.97
747.449	1796.24
747.634	1933.45
747.819	1835.15
748.003	1835.15
748.188	1786
748.373	1781.9
748.557	1800.34
748.742	1794.19
748.927	1810.58
749.111	1722.51
749.296	1656.98
749.481	1687.7
749.665	1712.27
749.85	1728.66
750.034	1665.17
750.219	1654.93
750.404	1745.04
750.588	1728.66
750.773	1665.17
750.957	1599.63
751.141	1667.22
751.326	1605.78
751.51	1591.44
751.695	1577.11
751.879	1521.81
752.064	1667.22
752.248	1540.24
752.432	1607.83
752.617	1497.24
752.801	1548.44
752.985	1577.11
753.17	1558.67
753.354	1564.82
753.538	1429.65
753.722	1470.61
753.907	1421.46
754.091	1493.14
754.275	1427.6
754.459	1331.35
754.643	1345.69
754.828	1468.56
755.012	1521.81
755.196	1364.12
755.38	1364.12
755.564	1360.02
755.748	1364.12
755.932	1370.26
756.116	1390.74
756.3	1462.42
756.484	1253.53
756.668	1378.45
756.852	1335.45
757.036	1351.83
757.22	1327.25
757.404	1245.34
757.588	1261.72
757.772	1212.57
757.956	1280.15
758.14	1241.24
758.323	1261.72
758.507	1118.36
758.691	1255.58
758.875	1202.33
759.059	1241.24
759.242	1198.23
759.426	1106.07
759.61	1265.82
759.794	1204.38
759.977	1093.79
760.161	1278.1
760.345	1165.46
760.528	1179.8
760.712	1151.13
760.895	1106.07
761.079	995.48
761.263	1077.4
761.446	1110.17
761.63	1142.94
761.813	1157.27
761.997	1128.6
762.18	1187.99
762.364	1058.97
762.547	1056.92
762.731	1089.69
762.914	1067.16
763.098	1089.69
763.281	1089.69
763.464	1101.98
763.648	1044.63
763.831	972.96
764.015	1081.5
764.198	1026.2
764.381	1015.96
764.564	1077.4
764.748	1005.72
764.931	987.29
765.114	968.86
765.297	991.39
765.481	989.34
765.664	925.85
765.847	1024.16
766.03	991.39
766.213	999.58
766.397	991.39
766.58	1028.25
766.763	1007.77
766.946	1001.63
767.129	1040.54
767.312	911.52
767.495	942.24
767.678	962.72
767.861	983.2
768.044	946.33
768.227	970.91
768.41	843.93
768.593	1009.82
768.776	1007.77
768.959	901.28
769.142	942.24
769.324	913.56
769.507	901.28
769.69	938.14
769.873	837.79
770.056	1007.77
770.239	895.13
770.421	938.14
770.604	856.22
770.787	987.29
770.97	919.71
771.152	839.84
771.335	868.51
771.518	798.88
771.7	911.52
771.883	936.09
772.066	843.93
772.248	872.61
772.431	798.88
772.613	833.69
772.796	802.97
772.978	835.74
773.161	876.7
773.343	788.64
773.526	848.03
773.708	878.75
773.891	759.97
774.073	776.35
774.256	792.73
774.438	835.74
774.621	770.21
774.803	786.59
774.985	741.54
775.168	745.63
775.35	745.63
775.532	829.6
775.715	774.3
775.897	811.17
776.079	776.35
776.261	733.34
776.444	655.52
776.626	723.1
776.808	706.72
776.99	694.43
777.173	764.06
777.355	723.1
777.537	721.06
777.719	807.07
777.901	776.35
778.083	553.12
778.265	643.23
778.447	733.34
778.629	676
778.811	557.22
778.993	731.3
779.175	587.94
779.357	643.23
779.539	508.07
779.721	680.1
779.903	641.18
780.085	624.8
780.267	589.99
780.449	653.47
780.631	704.67
780.812	641.18
780.994	585.89
781.176	522.4
781.358	618.66
781.54	573.6
781.721	596.13
781.903	589.99
782.085	536.74
782.267	659.62
782.448	512.16
782.63	581.79
782.812	592.03
782.993	534.69
783.175	549.03
783.357	583.84
783.538	647.33
783.72	477.35
783.901	516.26
784.083	524.45
784.264	428.2
784.446	540.83
784.627	528.55
784.809	508.07
784.99	460.96
785.172	585.89
785.353	485.54
785.535	442.53
785.716	561.31
785.897	465.06
786.079	516.26
786.26	450.72
786.441	442.53
786.623	460.96
786.804	493.73
786.985	493.73
787.167	467.11
787.348	471.2
787.529	458.92
787.71	516.26
787.891	493.73
788.073	444.58
788.254	366.76
788.435	417.96
788.616	493.73
788.797	338.09
788.978	305.32
789.159	479.4
789.34	329.89
789.522	469.16
789.703	430.24
789.884	458.92
790.065	430.24
790.246	442.53
790.427	432.29
790.607	469.16
790.788	366.76
790.969	346.28
791.15	403.62
791.331	440.48
791.512	403.62
791.693	305.32
791.874	409.76
792.054	424.1
792.235	409.76
792.416	348.33
792.597	303.27
792.778	307.37
792.958	377
793.139	360.61
793.32	368.81
793.5	274.6
793.681	379.04
793.862	352.42
794.042	276.65
794.223	284.84
794.404	348.33
794.584	336.04
794.765	336.04
794.945	333.99
795.126	409.76
795.306	348.33
795.487	336.04
795.667	313.51
795.848	342.18
796.028	297.13
796.209	293.03
796.389	395.43
796.57	274.6
796.75	260.26
796.93	254.12
797.111	280.74
797.291	278.69
797.471	323.75
797.652	188.58
797.832	295.08
798.012	362.66
798.192	295.08
798.373	209.06
798.553	229.54
798.733	297.13
798.913	323.75
799.093	180.39
799.274	295.08
799.454	233.64
799.634	260.26
799.814	360.61
799.994	321.7
800.174	274.6
800.354	270.5
800.534	170.15
800.714	293.03
800.894	188.58
801.074	235.69
801.254	295.08
801.434	288.93
801.614	215.21
801.794	262.31
801.974	925.85
802.154	272.55
802.334	278.69
802.514	254.12
802.693	272.55
802.873	229.54
803.053	262.31
803.233	268.45
803.413	243.88
803.592	262.31
803.772	290.98
803.952	215.21
804.131	213.16
804.311	274.6
804.491	229.54
804.67	250.02
804.85	225.45
805.03	297.13
805.209	247.97
805.389	262.31
805.568	184.49
805.748	254.12
805.928	161.96
806.107	204.97
806.287	202.92
806.466	217.26
806.646	166.06
806.825	198.82
807.004	168.1
807.184	229.54
807.363	198.82
807.543	213.16
807.722	196.78
807.901	268.45
808.081	229.54
808.26	143.53
808.439	145.58
808.619	260.26
808.798	229.54
808.977	204.97
809.156	217.26
809.336	262.31
809.515	141.48
809.694	168.1
809.873	172.2
810.052	245.93
810.231	245.93
810.411	245.93
810.59	135.34
810.769	164.01
810.948	223.4
811.127	98.47
811.306	151.72
811.485	164.01
811.664	282.79
811.843	198.82
812.022	188.58
812.201	215.21
812.38	174.25
812.559	135.34
812.737	155.82
812.916	123.05
813.095	215.21
813.274	164.01
813.453	141.48
813.632	270.5
813.811	198.82
813.989	147.62
814.168	174.25
814.347	200.87
814.526	155.82
814.704	182.44
814.883	166.06
815.062	57.51
815.24	184.49
815.419	192.68
815.598	254.12
815.776	106.67
815.955	157.86
816.133	139.43
816.312	188.58
816.49	223.4
816.669	34.99
816.847	123.05
817.026	157.86
817.204	123.05
817.383	135.34
817.561	114.86
817.74	135.34
817.918	180.39
818.097	147.62
818.275	135.34
818.453	135.34
818.632	100.52
818.81	180.39
818.988	184.49
819.167	100.52
819.345	143.53
819.523	164.01
819.701	157.86
819.879	110.76
820.058	114.86
820.236	168.1
820.414	164.01
820.592	188.58
820.77	155.82
820.948	139.43
821.127	166.06
821.305	170.15
821.483	139.43
821.661	188.58
821.839	139.43
822.017	92.33
822.195	61.61
822.373	159.91
822.551	114.86
822.729	198.82
822.907	151.72
823.085	129.19
823.262	131.24
823.44	118.95
823.618	164.01
823.796	108.71
823.974	159.91
824.152	26.79
824.329	151.72
824.507	123.05
824.685	98.47
824.863	88.23
825.04	131.24
825.218	143.53
825.396	92.33
825.574	147.62
825.751	180.39
825.929	215.21
826.107	108.71
826.284	100.52
826.462	157.86
826.639	69.8
826.817	63.66
826.994	92.33
827.172	57.51
827.349	157.86
827.527	102.57
827.704	116.9
827.882	127.14
828.059	65.71
828.237	147.62
828.414	123.05
828.591	63.66
828.769	55.47
828.946	147.62
829.124	116.9
829.301	190.63
829.478	116.9
829.655	118.95
829.833	61.61
830.01	43.18
830.187	178.34
830.364	98.47
830.542	110.76
830.719	108.71
830.896	90.28
831.073	106.67
831.25	92.33
831.427	143.53
831.604	57.51
831.782	61.61
831.959	112.81
832.136	98.47
832.313	118.95
832.49	94.38
832.667	110.76
832.844	49.32
833.021	94.38
833.198	37.03
833.374	114.86
833.551	86.19
833.728	63.66
833.905	90.28
834.082	65.71
834.259	90.28
834.436	114.86
834.612	98.47
834.789	149.67
834.966	135.34
835.143	32.94
835.319	41.13
835.496	98.47
835.673	166.06
835.85	106.67
836.026	84.14
836.203	123.05
836.38	102.57
836.556	32.94
836.733	-5.97
836.909	166.06
837.086	127.14
837.262	82.09
837.439	65.71
837.616	110.76
837.792	41.13
837.968	116.9
838.145	65.71
838.321	123.05
838.498	153.77
838.674	133.29
838.851	67.75
839.027	77.99
839.203	86.19
839.38	145.58
839.556	28.84
839.732	147.62
839.909	57.51
840.085	43.18
840.261	61.61
840.437	41.13
840.614	77.99
840.79	123.05
840.966	24.75
841.142	86.19
841.318	77.99
841.494	34.99
841.671	125.1
841.847	73.9
842.023	-77.65
842.199	94.38
842.375	59.56
842.551	77.99
842.727	41.13
842.903	116.9
843.079	96.43
843.255	55.47
843.431	67.75
843.607	213.16
843.783	8.36
843.959	127.14
844.134	45.23
844.31	137.38
844.486	88.23
844.662	57.51
844.838	139.43
845.013	102.57
845.189	6.31
845.365	75.95
845.541	14.51
845.716	100.52
845.892	108.71
846.068	96.43
846.244	41.13
846.419	53.42
846.595	34.99
846.77	112.81
846.946	65.71
847.122	10.41
847.297	41.13
847.473	82.09
847.648	41.13
847.824	10.41
847.999	20.65
848.175	86.19
848.35	94.38
848.526	125.1
848.701	61.61
848.876	137.38
849.052	69.8
849.227	-16.21
849.403	57.51
849.578	57.51
849.753	90.28
849.929	30.89
850.104	94.38
850.279	34.99
850.454	90.28
850.63	22.7
850.805	73.9
850.98	51.37
851.155	65.71
851.33	34.99
851.505	34.99
851.681	133.29
851.856	-12.12
852.031	43.18
852.206	8.36
852.381	-8.02
852.556	110.76
852.731	102.57
852.906	61.61
853.081	86.19
853.256	43.18
853.431	82.09
853.606	84.14
853.781	16.55
853.956	53.42
854.131	151.72
854.305	-1.88
854.48	65.71
854.655	32.94
854.83	-40.79
855.005	41.13
855.18	73.9
855.354	59.56
855.529	59.56
855.704	43.18
855.879	92.33
856.053	8.36
856.228	20.65
856.403	108.71
856.577	28.84
856.752	8.36
856.926	75.95
857.101	71.85
857.276	34.99
857.45	82.09
857.625	67.75
857.799	100.52
857.974	10.41
858.148	102.57
858.323	-18.26
858.497	32.94
858.672	69.8
858.846	18.6
859.02	28.84
859.195	57.51
859.369	71.85
859.543	28.84
859.718	12.46
859.892	82.09
860.066	4.27
860.241	16.55
860.415	43.18
860.589	-16.21
860.763	51.37
860.938	37.03
861.112	6.31
861.286	47.27
861.46	116.9
861.634	32.94
861.808	106.67
861.982	20.65
862.157	24.75
862.331	43.18
862.505	6.31
862.679	-40.79
862.853	92.33
863.027	-57.17
863.201	155.82
863.375	8.36
863.549	45.23
863.722	106.67
863.896	123.05
864.07	4.27
864.244	43.18
864.418	32.94
864.592	73.9
864.766	37.03
864.939	110.76
865.113	-36.69
865.287	141.48
865.461	43.18
865.634	67.75
865.808	41.13
865.982	82.09
866.156	-18.26
866.329	-24.4
866.503	-40.79
866.676	80.04
866.85	2.22
867.024	110.76
867.197	118.95
867.371	51.37
867.544	41.13
867.718	-22.36
867.891	75.95
868.065	41.13
868.238	59.56
868.412	65.71
868.585	0.17
868.759	-12.12
868.932	0.17
869.105	-28.5
869.279	16.55
869.452	0.17
869.625	-16.21
869.799	-36.69
869.972	16.55
870.145	90.28
870.319	67.75
870.492	-16.21
870.665	16.55
870.838	0.17
871.011	28.84
871.185	37.03
871.358	32.94
871.531	73.9
871.704	0.17
871.877	49.32
872.05	16.55
872.223	73.9
872.396	41.13
872.569	63.66
872.742	-55.12
872.915	24.75
873.088	-57.17
873.261	-40.79
873.434	6.31
873.607	82.09
873.78	26.79
873.953	102.57
874.126	77.99
874.299	43.18
874.471	-12.12
874.644	0.17
874.817	110.76
874.99	20.65
875.163	10.41
875.335	43.18
875.508	43.18
875.681	26.79
875.853	-46.93
876.026	18.6
876.199	43.18
876.371	2.22
876.544	41.13
876.717	10.41
876.889	-44.88
877.062	24.75
877.234	10.41
877.407	65.71
877.579	45.23
877.752	26.79
877.924	6.31
878.097	14.51
878.269	18.6
878.442	94.38
878.614	86.19
878.786	57.51
878.959	8.36
879.131	8.36
879.303	14.51
879.476	-3.93
879.648	14.51
879.82	-3.93
879.993	8.36
880.165	6.31
880.337	10.41
880.509	32.94
880.681	-38.74
880.854	-48.98
881.026	65.71
881.198	65.71
881.37	8.36
881.542	26.79
881.714	28.84
881.886	-32.6
882.058	61.61
882.23	-16.21
882.402	37.03
882.574	-5.97
882.746	41.13
882.918	49.32
883.09	41.13
883.262	16.55
883.434	-46.93
883.606	32.94
883.778	12.46
883.95	24.75
884.122	4.27
884.293	45.23
884.465	-8.02
884.637	65.71
884.809	6.31
884.98	32.94
885.152	0.17
885.324	32.94
885.496	-38.74
885.667	-36.69
885.839	24.75
886.011	37.03
886.182	24.75
886.354	43.18
886.525	77.99
886.697	32.94
886.869	8.36
887.04	-20.31
887.212	30.89
887.383	67.75
887.555	4.27
887.726	20.65
887.897	8.36
888.069	22.7
888.24	16.55
888.412	47.27
888.583	16.55
888.754	65.71
888.926	-36.69
889.097	2.22
889.268	-32.6
889.44	82.09
889.611	-22.36
889.782	12.46
889.953	-16.21
890.125	16.55
890.296	18.6
890.467	32.94
890.638	-14.17
890.809	61.61
890.98	18.6
891.151	20.65
891.323	125.1
891.494	0.17
891.665	41.13
891.836	20.65
892.007	-12.12
892.178	98.47
892.349	-14.17
892.52	12.46
892.691	69.8
892.862	-30.55
893.032	-65.36
893.203	53.42
893.374	-5.97
893.545	24.75
893.716	-1.88
893.887	84.14
894.057	67.75
894.228	53.42
894.399	45.23
894.57	24.75
894.74	59.56
894.911	32.94
895.082	26.79
895.253	32.94
895.423	8.36
895.594	123.05
895.764	18.6
895.935	65.71
896.106	12.46
896.276	26.79
896.447	6.31
896.617	-77.65
896.788	75.95
896.958	18.6
897.129	0.17
897.299	86.19
897.47	32.94
897.64	24.75
897.81	61.61
897.981	37.03
898.151	59.56
898.322	12.46
898.492	92.33
898.662	16.55
898.832	30.89
899.003	34.99
899.173	172.2
899.343	-10.07
899.513	0.17
