Data from USB4F104151__148__14-31-55-374.txt Node

Date: Thu Mar 13 14:31:55 EDT 2025
User: louis
Spectrometer: USB4F10415
Trigger mode: 4
Integration Time (sec): 2.500000E-2
Scans to average: 1
Electric dark correction enabled: true
Nonlinearity correction enabled: false
Boxcar width: 0
XAxis mode: Wavelengths
Number of Pixels in Spectrum: 3648
>>>>>Begin Spectral Data<<<<<
178.204	-119.64
178.424	-119.64
178.644	-119.64
178.864	-148.31
179.084	-150.36
179.304	-13.14
179.524	-29.52
179.744	-43.86
179.964	89.26
180.184	7.34
180.404	-0.85
180.624	11.43
180.844	-13.14
181.064	-11.09
181.283	40.11
181.503	-2.9
181.723	-33.62
181.943	-95.06
182.163	36.01
182.383	58.54
182.602	64.68
182.822	115.88
183.042	64.68
183.262	23.72
183.482	44.2
183.701	44.2
183.921	-27.48
184.141	-35.67
184.361	17.58
184.58	31.91
184.8	54.44
185.02	48.3
185.239	68.78
185.459	36.01
185.679	27.82
185.898	-54.1
186.118	33.96
186.338	60.59
186.557	113.83
186.777	7.34
186.997	64.68
187.216	7.34
187.436	119.98
187.655	64.68
187.875	-37.72
188.095	-9.05
188.314	-43.86
188.534	72.87
188.753	38.06
188.973	15.53
189.192	44.2
189.412	42.15
189.631	3.24
189.851	15.53
190.07	76.97
190.29	-4.95
190.509	29.87
190.729	-45.91
190.948	113.83
191.168	154.79
191.387	-17.24
191.607	-41.81
191.826	27.82
192.045	40.11
192.265	-56.15
192.484	-13.14
192.704	52.39
192.923	21.67
193.142	81.07
193.362	42.15
193.581	68.78
193.8	60.59
194.02	52.39
194.239	38.06
194.458	29.87
194.678	25.77
194.897	-25.43
195.116	-23.38
195.335	13.48
195.555	3.24
195.774	29.87
195.993	38.06
196.212	81.07
196.432	44.2
196.651	-56.15
196.87	-58.2
197.089	76.97
197.308	1.19
197.528	56.49
197.747	-11.09
197.966	21.67
198.185	93.35
198.404	19.63
198.623	-2.9
198.842	111.78
199.062	68.78
199.281	68.78
199.5	-11.09
199.719	62.63
199.938	148.65
200.157	72.87
200.376	11.43
200.595	62.63
200.814	21.67
201.033	29.87
201.252	158.89
201.471	29.87
201.69	70.83
201.909	79.02
202.128	27.82
202.347	23.72
202.566	72.87
202.785	-13.14
203.004	27.82
203.223	62.63
203.442	72.87
203.661	15.53
203.879	72.87
204.098	36.01
204.317	1.19
204.536	54.44
204.755	44.2
204.974	95.4
205.193	36.01
205.411	62.63
205.63	62.63
205.849	36.01
206.068	52.39
206.287	-19.29
206.505	64.68
206.724	-15.19
206.943	13.48
207.162	64.68
207.381	46.25
207.599	54.44
207.818	21.67
208.037	36.01
208.255	52.39
208.474	21.67
208.693	44.2
208.911	44.2
209.13	52.39
209.349	109.74
209.567	40.11
209.786	119.98
210.005	52.39
210.223	36.01
210.442	9.39
210.661	52.39
210.879	117.93
211.098	13.48
211.316	42.15
211.535	17.58
211.753	-19.29
211.972	134.31
212.191	21.67
212.409	76.97
212.628	70.83
212.846	-11.09
213.065	48.3
213.283	60.59
213.502	25.77
213.72	19.63
213.938	48.3
214.157	111.78
214.375	50.35
214.594	54.44
214.812	29.87
215.031	-50
215.249	15.53
215.467	60.59
215.686	23.72
215.904	83.11
216.122	19.63
216.341	101.55
216.559	68.78
216.778	44.2
216.996	93.35
217.214	44.2
217.432	52.39
217.651	-37.72
217.869	48.3
218.087	13.48
218.306	109.74
218.524	31.91
218.742	9.39
218.96	-43.86
219.179	13.48
219.397	64.68
219.615	134.31
219.833	5.29
220.051	27.82
220.27	15.53
220.488	-17.24
220.706	52.39
220.924	-23.38
221.142	54.44
221.36	23.72
221.578	70.83
221.796	-50
222.015	122.02
222.233	44.2
222.451	68.78
222.669	-54.1
222.887	-2.9
223.105	19.63
223.323	-7
223.541	19.63
223.759	13.48
223.977	25.77
224.195	93.35
224.413	52.39
224.631	107.69
224.849	-11.09
225.067	93.35
225.285	19.63
225.503	62.63
225.721	3.24
225.939	-17.24
226.157	89.26
226.375	97.45
226.592	-15.19
226.81	52.39
227.028	101.55
227.246	83.11
227.464	97.45
227.682	95.4
227.9	27.82
228.117	31.91
228.335	40.11
228.553	3.24
228.771	50.35
228.989	31.91
229.206	38.06
229.424	-13.14
229.642	-19.29
229.86	95.4
230.077	101.55
230.295	7.34
230.513	87.21
230.731	40.11
230.948	148.65
231.166	87.21
231.384	36.01
231.601	97.45
231.819	128.17
232.037	60.59
232.254	19.63
232.472	31.91
232.689	91.31
232.907	-17.24
233.125	93.35
233.342	13.48
233.56	44.2
233.777	36.01
233.995	36.01
234.213	126.12
234.43	50.35
234.648	27.82
234.865	48.3
235.083	119.98
235.3	23.72
235.518	87.21
235.735	87.21
235.953	150.7
236.17	60.59
236.388	52.39
236.605	23.72
236.822	85.16
237.04	50.35
237.257	44.2
237.475	-29.52
237.692	5.29
237.909	40.11
238.127	27.82
238.344	50.35
238.562	60.59
238.779	-13.14
238.996	52.39
239.214	-45.91
239.431	33.96
239.648	44.2
239.865	103.59
240.083	38.06
240.3	60.59
240.517	76.97
240.735	11.43
240.952	52.39
241.169	85.16
241.386	48.3
241.603	25.77
241.821	27.82
242.038	19.63
242.255	27.82
242.472	-60.24
242.689	11.43
242.907	89.26
243.124	119.98
243.341	-82.77
243.558	-103.25
243.775	23.72
243.992	33.96
244.209	44.2
244.426	99.5
244.643	23.72
244.86	79.02
245.078	54.44
245.295	5.29
245.512	54.44
245.729	3.24
245.946	36.01
246.163	-7
246.38	72.87
246.597	56.49
246.814	-21.33
247.031	85.16
247.248	72.87
247.464	117.93
247.681	15.53
247.898	54.44
248.115	68.78
248.332	-35.67
248.549	52.39
248.766	87.21
248.983	85.16
249.2	93.35
249.417	160.94
249.633	9.39
249.85	119.98
250.067	31.91
250.284	3.24
250.501	17.58
250.717	48.3
250.934	-43.86
251.151	21.67
251.368	13.48
251.585	68.78
251.801	31.91
252.018	38.06
252.235	101.55
252.451	-66.39
252.668	46.25
252.885	128.17
253.102	85.16
253.318	62.63
253.535	79.02
253.752	44.2
253.968	25.77
254.185	-0.85
254.401	-11.09
254.618	68.78
254.835	58.54
255.051	142.5
255.268	17.58
255.484	74.92
255.701	3.24
255.917	70.83
256.134	21.67
256.351	167.08
256.567	23.72
256.784	97.45
257	13.48
257.217	60.59
257.433	5.29
257.65	60.59
257.866	109.74
258.082	-74.58
258.299	44.2
258.515	89.26
258.732	-11.09
258.948	11.43
259.165	109.74
259.381	54.44
259.597	56.49
259.814	54.44
260.03	109.74
260.246	21.67
260.463	109.74
260.679	109.74
260.895	11.43
261.112	68.78
261.328	58.54
261.544	52.39
261.761	101.55
261.977	87.21
262.193	109.74
262.409	44.2
262.626	85.16
262.842	-27.48
263.058	11.43
263.274	-9.05
263.49	3.24
263.707	46.25
263.923	5.29
264.139	5.29
264.355	-17.24
264.571	142.5
264.787	85.16
265.004	31.91
265.22	87.21
265.436	31.91
265.652	33.96
265.868	54.44
266.084	-13.14
266.3	44.2
266.516	31.91
266.732	70.83
266.948	-4.95
267.164	48.3
267.38	72.87
267.596	70.83
267.812	142.5
268.028	101.55
268.244	29.87
268.46	19.63
268.676	60.59
268.892	113.83
269.108	-21.33
269.324	27.82
269.54	-0.85
269.756	17.58
269.972	-4.95
270.188	27.82
270.403	15.53
270.619	48.3
270.835	60.59
271.051	70.83
271.267	11.43
271.483	76.97
271.698	38.06
271.914	60.59
272.13	52.39
272.346	17.58
272.562	27.82
272.777	126.12
272.993	36.01
273.209	81.07
273.425	70.83
273.64	40.11
273.856	60.59
274.072	19.63
274.287	52.39
274.503	89.26
274.719	91.31
274.934	-11.09
275.15	-95.06
275.366	27.82
275.581	-2.9
275.797	68.78
276.012	76.97
276.228	27.82
276.444	85.16
276.659	134.31
276.875	-4.95
277.09	9.39
277.306	68.78
277.521	38.06
277.737	23.72
277.952	66.73
278.168	89.26
278.383	109.74
278.599	56.49
278.814	27.82
279.03	-74.58
279.245	103.59
279.461	7.34
279.676	56.49
279.892	23.72
280.107	-4.95
280.322	15.53
280.538	162.98
280.753	38.06
280.969	95.4
281.184	111.78
281.399	44.2
281.615	46.25
281.83	27.82
282.045	-4.95
282.26	-43.86
282.476	11.43
282.691	70.83
282.906	54.44
283.122	-13.14
283.337	46.25
283.552	83.11
283.767	40.11
283.983	68.78
284.198	-58.2
284.413	60.59
284.628	29.87
284.843	68.78
285.058	72.87
285.274	103.59
285.489	40.11
285.704	76.97
285.919	25.77
286.134	109.74
286.349	60.59
286.564	60.59
286.779	109.74
286.995	68.78
287.21	3.24
287.425	40.11
287.64	46.25
287.855	130.22
288.07	7.34
288.285	79.02
288.5	60.59
288.715	52.39
288.93	66.73
289.145	36.01
289.36	40.11
289.575	36.01
289.79	99.5
290.004	60.59
290.219	136.36
290.434	33.96
290.649	11.43
290.864	60.59
291.079	128.17
291.294	115.88
291.509	58.54
291.724	19.63
291.938	60.59
292.153	54.44
292.368	42.15
292.583	-13.14
292.798	64.68
293.012	103.59
293.227	165.03
293.442	60.59
293.657	11.43
293.871	48.3
294.086	117.93
294.301	76.97
294.516	85.16
294.73	36.01
294.945	40.11
295.16	48.3
295.374	27.82
295.589	101.55
295.804	-13.14
296.018	58.54
296.233	23.72
296.447	46.25
296.662	54.44
296.877	76.97
297.091	56.49
297.306	46.25
297.52	36.01
297.735	81.07
297.949	29.87
298.164	54.44
298.378	-21.33
298.593	-0.85
298.807	44.2
299.022	-2.9
299.236	60.59
299.451	68.78
299.665	66.73
299.88	60.59
300.094	13.48
300.309	56.49
300.523	48.3
300.737	42.15
300.952	95.4
301.166	48.3
301.381	-45.91
301.595	52.39
301.809	58.54
302.024	85.16
302.238	-50
302.452	50.35
302.667	11.43
302.881	25.77
303.095	36.01
303.309	50.35
303.524	52.39
303.738	68.78
303.952	13.48
304.166	68.78
304.381	62.63
304.595	91.31
304.809	115.88
305.023	36.01
305.237	119.98
305.452	29.87
305.666	-2.9
305.88	89.26
306.094	103.59
306.308	46.25
306.522	40.11
306.736	76.97
306.95	-9.05
307.164	46.25
307.379	50.35
307.593	76.97
307.807	40.11
308.021	36.01
308.235	27.82
308.449	21.67
308.663	11.43
308.877	68.78
309.091	56.49
309.305	27.82
309.519	-37.72
309.733	36.01
309.947	-4.95
310.161	72.87
310.374	21.67
310.588	113.83
310.802	-0.85
311.016	-27.48
311.23	85.16
311.444	101.55
311.658	113.83
311.872	79.02
312.085	117.93
312.299	128.17
312.513	68.78
312.727	93.35
312.941	89.26
313.154	144.55
313.368	36.01
313.582	83.11
313.796	97.45
314.009	68.78
314.223	76.97
314.437	44.2
314.651	85.16
314.864	23.72
315.078	-29.52
315.292	-11.09
315.505	101.55
315.719	103.59
315.933	62.63
316.146	31.91
316.36	-21.33
316.573	144.55
316.787	85.16
317.001	68.78
317.214	-43.86
317.428	19.63
317.641	23.72
317.855	31.91
318.068	46.25
318.282	60.59
318.495	48.3
318.709	5.29
318.922	15.53
319.136	101.55
319.349	46.25
319.563	15.53
319.776	-7
319.99	38.06
320.203	158.89
320.417	60.59
320.63	38.06
320.843	142.5
321.057	76.97
321.27	60.59
321.483	46.25
321.697	13.48
321.91	70.83
322.124	-39.76
322.337	76.97
322.55	79.02
322.763	87.21
322.977	46.25
323.19	-0.85
323.403	27.82
323.617	119.98
323.83	38.06
324.043	-2.9
324.256	89.26
324.469	11.43
324.683	54.44
324.896	42.15
325.109	-13.14
325.322	50.35
325.535	87.21
325.748	115.88
325.962	62.63
326.175	46.25
326.388	15.53
326.601	83.11
326.814	7.34
327.027	68.78
327.24	85.16
327.453	-19.29
327.666	83.11
327.879	38.06
328.092	152.74
328.305	-31.57
328.518	13.48
328.731	64.68
328.944	81.07
329.157	60.59
329.37	101.55
329.583	85.16
329.796	128.17
330.009	-35.67
330.222	140.46
330.435	117.93
330.648	70.83
330.861	36.01
331.073	44.2
331.286	60.59
331.499	95.4
331.712	11.43
331.925	87.21
332.138	117.93
332.35	158.89
332.563	60.59
332.776	23.72
332.989	46.25
333.202	68.78
333.414	66.73
333.627	117.93
333.84	19.63
334.053	119.98
334.265	15.53
334.478	19.63
334.691	-35.67
334.903	128.17
335.116	95.4
335.329	85.16
335.541	-7
335.754	128.17
335.966	52.39
336.179	52.39
336.392	56.49
336.604	36.01
336.817	27.82
337.029	93.35
337.242	52.39
337.454	119.98
337.667	-29.52
337.88	171.18
338.092	105.64
338.305	56.49
338.517	-2.9
338.729	109.74
338.942	85.16
339.154	42.15
339.367	101.55
339.579	50.35
339.792	-19.29
340.004	134.31
340.217	56.49
340.429	95.4
340.641	-27.48
340.854	3.24
341.066	-13.14
341.278	60.59
341.491	162.98
341.703	128.17
341.915	48.3
342.128	52.39
342.34	44.2
342.552	13.48
342.764	46.25
342.977	7.34
343.189	54.44
343.401	103.59
343.613	5.29
343.826	105.64
344.038	13.48
344.25	3.24
344.462	7.34
344.674	60.59
344.886	68.78
345.099	36.01
345.311	27.82
345.523	64.68
345.735	-15.19
345.947	25.77
346.159	62.63
346.371	29.87
346.583	85.16
346.795	117.93
347.007	64.68
347.219	144.55
347.431	81.07
347.643	126.12
347.855	48.3
348.067	95.4
348.279	89.26
348.491	29.87
348.703	162.98
348.915	44.2
349.127	23.72
349.339	85.16
349.551	15.53
349.763	3.24
349.975	97.45
350.187	99.5
350.399	60.59
350.61	122.02
350.822	76.97
351.034	66.73
351.246	19.63
351.458	72.87
351.669	122.02
351.881	173.22
352.093	93.35
352.305	72.87
352.517	68.78
352.728	42.15
352.94	76.97
353.152	126.12
353.363	-4.95
353.575	113.83
353.787	48.3
353.999	85.16
354.21	62.63
354.422	46.25
354.633	101.55
354.845	101.55
355.057	72.87
355.268	52.39
355.48	103.59
355.692	119.98
355.903	54.44
356.115	103.59
356.326	-0.85
356.538	113.83
356.749	68.78
356.961	146.6
357.172	11.43
357.384	58.54
357.595	162.98
357.807	1.19
358.018	-21.33
358.23	113.83
358.441	132.26
358.653	105.64
358.864	66.73
359.075	42.15
359.287	119.98
359.498	93.35
359.709	13.48
359.921	52.39
360.132	68.78
360.344	58.54
360.555	64.68
360.766	138.41
360.977	87.21
361.189	119.98
361.4	11.43
361.611	74.92
361.823	101.55
362.034	167.08
362.245	54.44
362.456	54.44
362.667	3.24
362.879	60.59
363.09	48.3
363.301	119.98
363.512	74.92
363.723	85.16
363.935	60.59
364.146	152.74
364.357	93.35
364.568	68.78
364.779	19.63
364.99	70.83
365.201	117.93
365.412	119.98
365.623	15.53
365.834	117.93
366.045	38.06
366.256	142.5
366.467	7.34
366.678	101.55
366.889	15.53
367.1	27.82
367.311	64.68
367.522	95.4
367.733	44.2
367.944	62.63
368.155	74.92
368.366	60.59
368.577	76.97
368.788	203.94
368.999	60.59
369.209	134.31
369.42	124.07
369.631	103.59
369.842	60.59
370.053	21.67
370.264	33.96
370.474	38.06
370.685	97.45
370.896	126.12
371.107	158.89
371.317	93.35
371.528	64.68
371.739	134.31
371.95	81.07
372.16	138.41
372.371	11.43
372.582	36.01
372.792	130.22
373.003	-4.95
373.214	13.48
373.424	87.21
373.635	87.21
373.846	171.18
374.056	146.6
374.267	128.17
374.477	85.16
374.688	52.39
374.898	52.39
375.109	36.01
375.319	146.6
375.53	167.08
375.74	54.44
375.951	79.02
376.161	105.64
376.372	103.59
376.582	1.19
376.793	40.11
377.003	74.92
377.214	62.63
377.424	103.59
377.635	167.08
377.845	72.87
378.055	89.26
378.266	150.7
378.476	130.22
378.686	70.83
378.897	44.2
379.107	5.29
379.317	89.26
379.528	142.5
379.738	93.35
379.948	58.54
380.158	126.12
380.369	60.59
380.579	107.69
380.789	17.58
380.999	134.31
381.21	76.97
381.42	162.98
381.63	64.68
381.84	38.06
382.05	138.41
382.261	81.07
382.471	214.18
382.681	52.39
382.891	113.83
383.101	97.45
383.311	15.53
383.521	117.93
383.731	144.55
383.941	89.26
384.151	27.82
384.361	124.07
384.571	60.59
384.781	46.25
384.991	130.22
385.201	185.51
385.411	85.16
385.621	117.93
385.831	117.93
386.041	126.12
386.251	126.12
386.461	81.07
386.671	122.02
386.881	154.79
387.091	-9.05
387.301	76.97
387.511	70.83
387.72	138.41
387.93	23.72
388.14	126.12
388.35	117.93
388.56	79.02
388.769	85.16
388.979	76.97
389.189	87.21
389.399	64.68
389.609	76.97
389.818	111.78
390.028	101.55
390.238	124.07
390.447	87.21
390.657	128.17
390.867	103.59
391.076	-15.19
391.286	54.44
391.496	136.36
391.705	97.45
391.915	38.06
392.125	173.22
392.334	85.16
392.544	175.27
392.753	52.39
392.963	79.02
393.172	95.4
393.382	93.35
393.591	167.08
393.801	29.87
394.01	134.31
394.22	97.45
394.429	36.01
394.639	148.65
394.848	142.5
395.058	117.93
395.267	38.06
395.477	122.02
395.686	148.65
395.895	253.09
396.105	208.04
396.314	175.27
396.524	175.27
396.733	234.66
396.942	68.78
397.152	169.13
397.361	199.85
397.57	148.65
397.78	162.98
397.989	126.12
398.198	240.81
398.407	177.32
398.617	128.17
398.826	183.46
399.035	201.9
399.244	175.27
399.453	138.41
399.663	119.98
399.872	203.94
400.081	167.08
400.29	265.38
400.499	136.36
400.708	220.33
400.917	228.52
401.127	208.04
401.336	122.02
401.545	220.33
401.754	167.08
401.963	187.56
402.172	156.84
402.381	160.94
402.59	167.08
402.799	187.56
403.008	201.9
403.217	167.08
403.426	244.9
403.635	175.27
403.844	205.99
404.053	265.38
404.262	273.57
404.471	224.42
404.68	253.09
404.888	183.46
405.097	277.67
405.306	275.62
405.515	261.29
405.724	179.37
405.933	275.62
406.142	285.86
406.35	253.09
406.559	335.01
406.768	316.58
406.977	347.3
407.185	310.44
407.394	380.07
407.603	267.43
407.812	318.63
408.02	412.84
408.229	302.25
408.438	414.88
408.646	345.25
408.855	418.98
409.064	392.36
409.272	464.04
409.481	537.76
409.69	445.6
409.898	431.27
410.107	500.9
410.315	527.52
410.524	521.38
410.733	552.1
410.941	562.34
411.15	627.87
411.358	541.86
411.567	650.4
411.775	656.54
411.984	625.83
412.192	730.27
412.401	668.83
412.609	760.99
412.818	791.71
413.026	861.34
413.234	818.33
413.443	887.97
413.651	890.01
413.86	877.73
414.068	961.69
414.276	1084.57
414.485	980.12
414.693	1125.53
414.901	1111.19
415.11	1068.19
415.318	1219.74
415.526	1143.96
415.734	1264.79
415.943	1240.22
416.151	1445.01
416.359	1289.37
416.567	1430.68
416.776	1531.03
416.984	1571.99
417.192	1528.98
417.4	1528.98
417.608	1668.24
417.817	1744.02
418.025	1752.21
418.233	1840.27
418.441	1936.53
418.649	1952.91
418.857	2026.64
419.065	2122.89
419.273	2208.9
419.481	2266.25
419.689	2399.37
419.897	2380.93
420.105	2481.28
420.313	2550.92
420.521	2604.16
420.729	2612.35
420.937	2765.95
421.145	2993.28
421.353	2964.61
421.561	3210.36
421.769	3210.36
421.977	3345.53
422.185	3355.77
422.393	3570.8
422.601	3767.41
422.809	3685.49
423.017	3748.98
423.224	3961.97
423.432	4090.99
423.64	4279.4
423.848	4580.45
424.056	4459.62
424.263	4811.87
424.471	4684.9
424.679	4721.76
424.887	5041.25
425.094	5184.6
425.302	5209.18
425.51	5319.77
425.718	5592.15
425.925	5653.59
426.133	5819.47
426.341	6218.83
426.548	6462.54
426.756	6523.98
426.964	6460.49
427.171	6964.29
427.379	7097.41
427.586	7238.72
427.794	7226.43
428.001	7617.59
428.209	7973.94
428.417	7918.64
428.624	8295.47
428.832	8498.22
429.039	8391.72
429.247	8451.11
429.454	9202.72
429.662	9720.85
429.869	9235.49
430.076	10079.25
430.284	9507.87
430.491	10023.95
430.699	10466.31
430.906	10548.23
431.114	10882.05
431.321	11183.1
431.528	11238.4
431.736	11979.76
431.943	12426.22
432.15	12299.25
432.358	12446.7
432.565	13048.8
432.772	13011.94
432.979	13614.04
433.187	13706.2
433.394	13745.11
433.601	14791.62
433.808	14965.7
434.016	14986.18
434.223	15346.62
434.43	16364.46
434.637	15778.75
434.844	17042.34
435.052	17138.6
435.259	17396.64
435.466	17187.75
435.673	17300.39
435.88	18029.46
436.087	19135.37
436.294	19272.58
436.501	18854.79
436.708	19417.99
436.915	19696.51
437.122	20743.02
437.329	20679.54
437.537	21443.43
437.743	21672.8
437.95	21558.11
438.157	22694.74
438.364	23278.41
438.571	23571.27
438.778	23663.43
438.985	25471.78
439.192	24544.05
439.399	25256.75
439.606	24800.05
439.813	26561.3
440.02	28216.06
440.227	27384.58
440.433	27036.43
440.64	27704.07
440.847	27642.63
441.054	28523.26
441.261	30585.56
441.467	30186.21
441.674	30458.59
441.881	31851.2
442.088	31230.67
442.294	31320.78
442.501	31953.6
442.708	32854.71
442.914	33759.91
443.121	35429.01
443.328	33972.9
443.534	36475.52
443.741	35924.61
443.948	35275.41
444.154	37921.38
444.361	37407.34
444.568	38036.07
444.774	37784.17
444.981	38431.33
445.187	39314
445.394	40876.6
445.6	40708.67
445.807	44507.65
446.013	42428.96
446.22	43219.48
446.426	44722.69
446.633	44782.08
446.839	46580.2
447.046	44161.54
447.252	47084
447.459	47294.94
447.665	46651.87
447.871	49310.14
448.078	51073.44
448.284	48234.95
448.491	49848.75
448.697	51605.91
448.903	52388.24
449.11	52638.09
449.316	52115.86
449.522	53010.82
449.728	53963.12
449.935	54344.05
450.141	54862.18
450.347	55091.55
450.553	54034.8
450.76	54231.41
450.966	56219.98
451.172	55607.64
451.378	57327.94
451.584	55703.9
451.791	56928.58
451.997	56807.75
452.203	57758.01
452.409	58046.77
452.615	57502.01
452.821	55365.98
453.027	54851.94
453.233	57590.08
453.44	55640.41
453.646	56095.06
453.852	56039.76
454.058	57336.13
454.264	55365.98
454.47	56588.62
454.676	55253.34
454.882	56740.17
455.088	52646.28
455.294	53002.63
455.5	53684.6
455.705	54223.22
455.911	52304.27
456.117	51216.8
456.323	50911.65
456.529	48216.52
456.735	50051.5
456.941	49009.09
457.147	47991.25
457.352	46621.16
457.558	46385.64
457.764	46574.05
457.97	45646.32
458.176	44237.32
458.381	44476.93
458.587	42306.09
458.793	42435.11
458.999	39834.19
459.204	43074.07
459.41	42025.51
459.616	39010.9
459.821	39039.57
460.027	39019.1
460.233	37771.88
460.438	36551.29
460.644	36803.19
460.85	35168.91
461.055	34658.97
461.261	34415.26
461.466	31791.81
461.672	30872.28
461.878	33299.12
462.083	30868.18
462.289	30431.96
462.494	30112.48
462.7	28887.79
462.905	28001.02
463.111	29172.46
463.316	28830.45
463.522	28465.91
463.727	28523.26
463.932	28674.81
464.138	28095.23
464.343	28297.98
464.549	27439.88
464.754	28424.95
464.959	28175.1
465.165	27982.59
465.37	26907.41
465.575	26424.09
465.781	27263.75
465.986	27398.92
466.191	26383.13
466.397	25844.51
466.602	24818.48
466.807	25387.82
467.012	25819.94
467.218	25254.7
467.423	24927.02
467.628	25058.09
467.833	26458.9
468.038	25355.05
468.244	24775.47
468.449	25340.71
468.654	24873.78
468.859	24621.87
469.064	24376.12
469.269	23632.71
469.474	23892.8
469.679	23976.76
469.885	23587.65
470.09	23554.88
470.295	23644.99
470.5	22985.55
470.705	23034.7
470.91	22584.15
471.115	22360.92
471.32	22719.31
471.525	22690.64
471.73	22133.59
471.935	22176.6
472.139	21355.36
472.344	21334.89
472.549	21336.93
472.754	20951.91
472.959	20763.5
473.164	20286.33
473.369	19905.4
473.574	20712.3
473.778	20327.28
473.983	19987.32
474.188	20390.77
474.393	19368.84
474.598	19442.56
474.802	19243.91
475.007	19200.9
475.212	18918.28
475.417	18232.21
475.621	18326.42
475.826	18580.37
476.031	18408.34
476.235	17695.64
476.44	18254.74
476.645	17830.81
476.849	17783.71
477.054	17529.76
477.259	17167.27
477.463	17374.11
477.668	16835.5
477.872	17230.76
478.077	16585.65
478.282	16522.16
478.486	16559.02
478.691	16182.2
478.895	16124.85
479.1	16028.6
479.304	16223.16
479.509	15524.8
479.713	15977.4
479.918	15563.71
480.122	15320
480.326	15827.9
480.531	15473.6
480.735	15379.39
480.94	15070.15
481.144	15438.78
481.348	15039.43
481.553	15238.08
481.757	14891.98
481.961	15096.77
482.166	15387.58
482.37	15133.64
482.574	14791.62
482.778	14855.11
482.983	15326.14
483.187	14934.98
483.391	14949.32
483.595	14855.11
483.8	14726.09
484.004	14773.19
484.208	15145.92
484.412	14879.69
484.616	15014.85
484.821	14969.8
485.025	14797.77
485.229	14732.23
485.433	14775.24
485.637	15082.44
485.841	14584.78
486.045	14519.25
486.249	14795.72
486.453	14750.67
486.657	14908.36
486.861	15133.64
487.065	14580.68
487.269	14863.3
487.473	14902.22
487.677	14810.06
487.881	15064
488.085	14734.28
488.289	15125.44
488.493	14750.67
488.697	15072.2
488.901	15049.67
489.105	15033.29
489.309	15072.2
489.512	14881.74
489.716	15051.72
489.92	14908.36
490.124	15094.72
490.328	15334.34
490.531	15178.69
490.735	15352.77
490.939	15195.07
491.143	15061.96
491.346	15268.8
491.55	15340.48
491.754	15465.41
491.958	15662.01
492.161	15463.36
492.365	15748.03
492.569	15504.32
492.772	15627.2
492.976	15610.81
493.18	15829.95
493.383	15928.25
493.587	16210.87
493.79	15995.83
493.994	15987.64
494.197	16280.5
494.401	16339.89
494.605	16458.67
494.808	16729
495.012	16473.01
495.215	16591.79
495.419	16896.94
495.622	16903.08
495.825	17058.73
496.029	16970.66
496.232	17251.24
496.436	17355.68
496.639	17925.02
496.843	17699.74
497.046	18078.61
497.249	18367.38
497.453	18228.12
497.656	18463.63
497.859	18375.57
498.063	18729.87
498.266	19092.36
498.469	18918.28
498.673	19192.71
498.876	19581.82
499.079	19696.51
499.282	19510.14
499.485	20044.66
499.689	20417.4
499.892	20308.85
500.095	20491.12
500.298	20988.78
500.501	20900.72
500.705	21412.71
500.908	21531.49
501.111	21687.14
501.314	21787.49
501.517	22135.64
501.72	22317.91
501.923	22225.75
502.126	22891.34
502.329	23327.56
502.532	23057.23
502.735	23206.73
502.938	23640.9
503.141	23900.99
503.344	24451.89
503.547	24257.34
503.75	24750.9
503.953	25195.31
504.156	25111.34
504.359	25467.69
504.562	25316.14
504.765	26006.3
504.968	26721.04
505.17	26909.46
505.373	26825.49
505.576	27411.21
505.779	27362.06
505.982	27611.91
506.185	28048.13
506.387	28031.74
506.59	28199.68
506.793	28728.05
506.996	28918.51
507.198	29866.72
507.401	29332.2
507.604	30001.89
507.807	30126.81
508.009	30784.21
508.212	30620.38
508.415	31431.37
508.617	31181.52
508.82	31705.8
509.022	31339.21
509.225	32258.75
509.428	32627.38
509.63	32721.59
509.833	33118.9
510.035	33712.81
510.238	33536.68
510.44	33768.1
510.643	34663.07
510.845	34779.8
511.048	34638.49
511.25	34970.26
511.453	35291.79
511.655	36332.16
511.858	36315.78
512.06	36393.6
512.262	36868.73
512.465	37010.04
512.667	37528.17
512.87	37655.15
513.072	37735.02
513.274	38249.06
513.477	38462.05
513.679	39060.05
513.881	39283.28
514.084	39791.18
514.286	39588.43
514.488	39764.56
514.69	40829.5
514.893	40874.55
515.095	41067.06
515.297	41382.45
515.499	41615.92
515.701	42441.25
515.904	42519.07
516.106	42773.02
516.308	43307.54
516.51	43815.44
516.712	43561.49
516.914	44177.93
517.116	44579.33
517.318	44941.82
517.52	45062.65
517.722	44990.97
517.925	45812.21
518.127	46488.04
518.329	46479.85
518.531	46191.08
518.733	46514.66
518.935	47208.92
519.136	47360.47
519.338	48427.46
519.54	47630.8
519.742	48603.59
519.944	48386.5
520.146	49048
520.348	49437.11
520.55	49344.95
520.752	49682.87
520.954	50268.59
521.155	49815.99
521.357	51104.16
521.559	50872.74
521.761	51866
521.963	51435.93
522.164	51689.88
522.366	52107.66
522.568	52353.42
522.77	52504.97
522.971	52939.14
523.173	52341.13
523.375	52859.27
523.576	53299.58
523.778	52820.36
523.98	53574.01
524.181	53897.59
524.383	53975.41
524.584	54393.2
524.786	54229.36
524.988	53942.64
525.189	55009.64
525.391	54657.38
525.592	55351.65
525.794	55001.44
525.995	55116.13
526.197	55239.01
526.398	55079.27
526.6	55931.22
526.801	55667.03
527.003	55683.42
527.204	55832.92
527.406	56095.06
527.607	56367.44
527.808	56631.63
528.01	55873.88
528.211	56090.96
528.412	56998.21
528.614	56383.82
528.815	56506.7
529.016	57381.18
529.218	56672.59
529.419	56631.63
529.62	56508.75
529.822	56865.09
530.023	56717.64
530.224	56815.94
530.425	56521.04
530.626	56406.35
530.828	56678.73
531.029	57661.75
531.23	56392.01
531.431	56756.55
531.632	56584.52
531.833	57016.64
532.035	56562
532.236	56940.87
532.437	56770.89
532.638	56877.38
532.839	57463.1
533.04	56598.86
533.241	56334.67
533.442	57481.53
533.643	56840.52
533.844	56768.84
534.045	56899.91
534.246	56262.99
534.447	57192.77
534.648	56934.73
534.849	56770.89
535.05	56308.05
535.251	57112.9
535.451	56615.24
535.652	56605
535.853	56258.9
536.054	56744.26
536.255	57055.56
536.456	56310.1
536.657	57057.6
536.857	56752.46
537.058	56269.14
537.259	56897.86
537.46	56484.17
537.66	56095.06
537.861	56353.1
538.062	56246.61
538.263	56369.49
538.463	56056.15
538.664	56314.19
538.865	56050
539.065	56244.56
539.266	55963.99
539.466	56320.34
539.667	55990.61
539.868	55927.13
540.068	55714.14
540.269	56320.34
540.469	56267.09
540.67	55914.84
540.87	55877.97
541.071	56113.49
541.271	56236.37
541.472	55865.69
541.672	55771.48
541.873	55687.51
542.073	54882.66
542.274	56230.22
542.474	55550.3
542.675	55320.93
542.875	55923.03
543.075	55769.43
543.276	54829.41
543.476	55720.28
543.676	55318.88
543.877	55441.76
544.077	55830.87
544.277	55140.71
544.478	55495
544.678	56090.96
544.878	55851.35
545.078	55914.84
545.279	54968.68
545.479	55058.79
545.679	55687.51
545.879	55423.32
546.079	55404.89
546.28	55382.37
546.48	55198.05
546.68	55894.36
546.88	55378.27
547.08	55591.26
547.28	55261.54
547.48	54880.61
547.68	55214.43
547.88	54870.37
548.081	55417.18
548.281	55521.63
548.481	55234.91
548.681	55677.27
548.881	55382.37
549.081	55490.91
549.28	55124.32
549.48	56007
549.68	54819.17
549.88	55933.27
550.08	55157.09
550.28	55552.35
550.48	55325.02
550.68	55654.75
550.88	54755.69
551.08	55386.46
551.279	55292.25
551.479	55314.78
551.679	55320.93
551.879	55427.42
552.079	55744.86
552.278	55066.98
552.478	55411.04
552.678	55607.64
552.878	55998.8
553.077	55335.26
553.277	54632.81
553.477	56041.81
553.676	55449.95
553.876	55705.94
554.076	55185.76
554.275	55245.15
554.475	54872.42
554.674	55427.42
554.874	55132.51
555.074	55402.85
555.273	55390.56
555.473	55427.42
555.672	55288.16
555.872	55605.59
556.071	55564.63
556.271	55783.77
556.47	55191.9
556.67	55312.73
556.869	55056.74
557.068	55564.63
557.268	55023.97
557.467	54923.62
557.667	55333.21
557.866	55806.3
558.065	55173.47
558.265	55406.94
558.464	54919.52
558.663	55404.89
558.863	54806.89
559.062	55734.62
559.261	54665.58
559.461	55753.05
559.66	54649.19
559.859	55325.02
560.058	54747.5
560.258	55083.36
560.457	54634.86
560.656	55214.43
560.855	54944.1
561.054	55243.1
561.253	54526.31
561.453	55071.07
561.652	55492.96
561.851	55261.54
562.05	54481.26
562.249	54796.65
562.448	55056.74
562.647	54999.4
562.846	55173.47
563.045	54976.87
563.244	54540.65
563.443	55036.26
563.642	54528.36
563.841	54970.72
564.04	55026.02
564.239	55132.51
564.438	54354.29
564.637	54638.95
564.836	54745.45
565.035	54460.78
565.234	54301.04
565.432	54499.69
565.631	54090.1
565.83	54583.66
566.029	53944.69
566.228	53778.81
566.427	54022.51
566.625	53731.7
566.824	53483.9
567.023	54042.99
567.222	53254.53
567.42	53811.57
567.619	53649.78
567.818	53670.26
568.016	53709.18
568.215	53606.78
568.414	53401.98
568.612	53543.29
568.811	53215.61
569.01	53166.46
569.208	52797.83
569.407	53033.35
569.605	52658.57
569.804	53342.59
570.002	52851.08
570.201	53143.94
570.4	52617.61
570.598	51992.98
570.797	52255.12
570.995	53092.74
571.193	52156.81
571.392	52533.64
571.59	52242.83
571.789	52005.27
571.987	52105.62
572.186	51837.33
572.384	51583.38
572.582	52400.52
572.781	51974.55
572.979	51636.63
573.177	52117.9
573.376	51909.01
573.574	51474.84
573.772	51560.86
573.971	50829.73
574.169	51077.54
574.367	50710.95
574.565	51145.12
574.763	50880.93
574.962	50723.24
575.16	50151.85
575.358	50305.45
575.556	50102.7
575.754	50686.37
575.952	50045.36
576.151	50512.3
576.349	49406.39
576.547	50110.89
576.745	49711.54
576.943	50225.58
577.141	50121.13
577.339	49971.63
577.537	49275.32
577.735	49353.15
577.933	49303.99
578.131	49240.51
578.329	49078.72
578.527	48673.22
578.725	48869.82
578.923	48855.49
579.121	48447.94
579.319	48587.21
579.516	48763.33
579.714	48392.65
579.912	48433.61
580.11	48394.7
580.308	48460.23
580.506	48003.53
580.704	47702.48
580.901	48290.25
581.099	47999.44
581.297	47839.7
581.495	47184.35
581.692	48054.73
581.89	47329.75
582.088	47774.16
582.285	47366.62
582.483	47473.11
582.681	47309.27
582.878	46727.65
583.076	46572
583.274	46856.67
583.471	46043.63
583.669	46410.21
583.866	46242.28
584.064	46490.09
584.262	46082.54
584.459	46395.88
584.657	45718
584.854	46340.58
585.052	45548.02
585.249	46064.11
585.447	45695.47
585.644	45081.08
585.841	45468.15
586.039	45726.19
586.236	44847.61
586.434	45119.99
586.631	45113.85
586.828	45277.69
587.026	44950.01
587.223	45017.6
587.42	44388.87
587.618	44855.81
587.815	43868.69
588.012	43792.91
588.21	43756.05
588.407	44294.66
588.604	44030.47
588.801	43979.28
588.999	43868.69
589.196	43930.12
589.393	44130.83
589.59	43719.18
589.787	43346.45
589.984	43199
590.182	42897.95
590.379	43035.16
590.576	43237.91
590.773	43018.78
590.97	43141.66
591.167	42934.81
591.364	42400.29
591.561	42885.66
591.758	42484.26
591.955	42234.41
592.152	42560.03
592.349	42154.54
592.546	42301.99
592.743	42541.6
592.94	41796.14
593.137	42465.83
593.334	42494.5
593.531	41833
593.727	41865.77
593.924	41761.33
594.121	41427.51
594.318	41765.42
594.515	41120.31
594.712	41511.47
594.908	41103.93
595.105	41730.61
595.302	40845.88
595.499	41058.87
595.696	40843.84
595.892	40428.1
596.089	40806.97
596.286	41005.62
596.482	40731.2
596.679	40704.57
596.876	40874.55
597.072	40145.48
597.269	40424
597.466	40202.82
597.662	40057.42
597.859	40018.5
598.055	40387.14
598.252	39912.01
598.448	39885.39
598.645	39658.06
598.841	39645.77
599.038	39889.48
599.234	39832.14
599.431	39723.6
599.627	39803.47
599.824	39727.69
600.02	39670.35
600.217	39739.98
600.413	39430.74
600.609	39113.3
600.806	39215.7
601.002	39205.46
601.198	38867.55
601.395	38883.93
601.591	38980.18
601.787	39058.01
601.984	39021.14
602.18	39205.46
602.376	38830.68
602.572	38777.43
602.769	38890.07
602.965	38720.09
603.161	38836.83
603.357	38582.88
603.553	38779.48
603.75	38677.08
603.946	38539.87
604.142	38341.22
604.338	38113.89
604.534	38247.01
604.73	38027.88
604.926	38154.85
605.122	38634.08
605.318	38185.57
605.514	37876.33
605.71	37845.61
605.906	37796.46
606.102	37956.2
606.298	38191.72
606.494	37991.01
606.69	37958.25
606.886	38056.55
607.082	37714.54
607.278	37812.84
607.474	37159.54
607.67	37743.21
607.866	37315.19
608.062	37849.71
608.257	37448.3
608.453	37274.23
608.649	37933.67
608.845	37438.06
609.041	37591.66
609.236	37784.17
609.432	37466.73
609.628	37515.89
609.824	37229.17
610.019	37640.81
610.215	37700.2
610.411	37444.21
610.606	37470.83
610.802	37343.86
610.998	37485.17
611.193	37511.79
611.389	37354.1
611.584	37474.93
611.78	37165.68
611.976	37696.11
612.171	37155.44
612.367	37440.11
612.562	36987.51
612.758	36921.98
612.953	37046.9
613.149	37433.97
613.344	37173.88
613.539	37745.26
613.735	37247.6
613.93	37358.19
614.126	36817.53
614.321	37194.36
614.517	37415.54
614.712	36991.61
614.907	37055.09
615.103	36989.56
615.298	36973.17
615.493	37198.45
615.688	36717.18
615.884	37335.66
616.079	36479.61
616.274	36913.78
616.47	36446.85
616.665	36825.72
616.86	36534.91
617.055	36473.47
617.25	36035.2
617.445	36567.68
617.641	36272.77
617.836	36311.68
618.031	35824.26
618.226	36409.98
618.421	36010.63
618.616	36229.76
618.811	35644.04
619.006	36326.02
619.201	35490.45
619.396	36293.25
619.591	35398.29
619.786	35861.13
619.981	35076.76
620.176	35807.88
620.371	35021.46
620.566	35461.77
620.761	34808.47
620.956	35046.04
621.151	34486.94
621.346	34824.86
621.541	34253.47
621.735	34601.63
621.93	33942.18
622.125	34095.78
622.32	33682.09
622.515	33618.6
622.709	33403.56
622.904	33663.66
623.099	33176.24
623.294	33188.53
623.488	32842.42
623.683	32774.84
623.878	32639.67
624.072	32889.52
624.267	32746.17
624.462	32506.55
624.656	32271.04
624.851	31939.27
625.046	31759.05
625.24	32094.91
625.435	31294.16
625.629	31302.35
625.824	31183.57
626.018	30878.42
626.213	30722.77
626.407	30900.95
626.602	30370.52
626.796	30532.31
626.991	30311.13
627.185	30153.44
627.38	29940.45
627.574	29645.54
627.768	29541.1
627.963	29672.17
628.157	29254.38
628.352	29235.95
628.546	28564.21
628.74	29233.9
628.935	28764.92
629.129	28867.31
629.323	28257.02
629.517	28500.73
629.712	28144.38
629.906	28115.71
630.1	27636.48
630.294	27927.3
630.489	27581.19
630.683	27624.2
630.877	27212.56
631.071	27521.8
631.265	27421.45
631.459	27093.77
631.653	26944.27
631.848	26819.35
632.042	26635.03
632.236	27030.29
632.43	26333.98
632.624	26149.66
632.818	25940.77
633.012	25926.43
633.206	25942.81
633.4	26002.21
633.594	25189.16
633.788	25836.32
633.982	25639.72
634.176	25473.83
634.369	25205.55
634.563	25082.67
634.757	24906.54
634.951	24998.7
635.145	24910.64
635.339	24886.06
635.533	24302.39
635.726	24355.64
635.92	23968.57
636.114	24402.74
636.308	23851.84
636.501	23829.31
636.695	23724.86
636.889	23501.64
637.083	23458.63
637.276	23251.78
637.47	23341.89
637.664	23094.09
637.857	23102.28
638.051	22954.83
638.244	22414.16
638.438	22991.69
638.632	22328.15
638.825	22383.45
639.019	22262.61
639.212	22248.28
639.406	22256.47
639.599	21928.8
639.793	22023
639.986	21392.23
640.18	21547.87
640.373	21619.55
640.567	21273.45
640.76	21422.95
640.954	21197.67
641.147	21136.23
641.34	20937.58
641.534	20953.96
641.727	20583.28
641.92	20355.96
642.114	20409.2
642.307	20384.63
642.5	20351.86
642.694	19807.1
642.887	19940.22
643.08	19917.69
643.273	19852.16
643.467	19823.48
643.66	19430.27
643.853	19780.48
644.046	19205
644.239	19274.63
644.432	19190.66
644.626	19022.73
644.819	18629.52
645.012	18871.18
645.205	18871.18
645.398	18619.28
645.591	18443.15
645.784	18369.43
645.977	18394
646.17	18228.12
646.363	18027.42
646.556	17916.83
646.749	17963.93
646.942	18176.92
647.135	17896.35
647.328	17709.98
647.521	17630.11
647.714	17531.81
647.907	17730.46
648.099	17091.49
648.292	17157.03
648.485	17142.69
648.678	16829.35
648.871	16987.05
649.064	16989.1
649.256	16878.51
649.449	16735.15
649.642	16497.58
649.835	16599.98
650.027	16509.87
650.22	16403.38
650.413	15963.06
650.605	16069.56
650.798	16169.91
650.991	15891.38
651.183	16038.84
651.376	15772.6
651.568	15717.31
651.761	15596.48
651.954	15684.54
652.146	15737.79
652.339	15506.37
652.531	15258.56
652.724	15195.07
652.916	14982.09
653.109	15008.71
653.301	14787.53
653.494	14994.37
653.686	14588.88
653.879	15115.2
654.071	14851.02
654.263	14633.93
654.456	14527.44
654.648	14554.06
654.84	14234.58
655.033	14181.33
655.225	14216.15
655.417	14052.31
655.61	14134.23
655.802	14119.89
655.994	14126.04
656.186	14220.24
656.379	13921.24
656.571	13822.94
656.763	13630.43
656.955	13462.49
657.148	13781.98
657.34	13396.96
657.532	13284.32
657.724	13212.64
657.916	13327.33
658.108	13224.93
658.3	13249.5
658.492	13233.12
658.684	12725.22
658.876	12805.1
659.068	12643.31
659.26	12778.47
659.452	12825.57
659.644	12520.43
659.836	12471.28
660.028	12545
660.22	12151.79
660.412	12233.71
660.604	12114.93
660.796	12155.89
660.988	12313.58
661.18	12162.03
661.372	12116.98
661.563	12110.83
661.755	11785.21
661.947	11938.8
662.139	11824.12
662.331	11824.12
662.522	11807.73
662.714	11676.66
662.906	11471.87
663.097	11637.75
663.289	11387.9
663.481	11478.01
663.673	11314.17
663.864	11308.03
664.056	11123.71
664.247	11107.33
664.439	10963.97
664.631	11166.72
664.822	10947.59
665.014	10800.13
665.205	10970.12
665.397	10701.83
665.588	10857.48
665.78	10554.38
665.971	10365.96
666.163	10527.75
666.354	10433.55
666.546	10300.43
666.737	10345.48
666.929	10394.64
667.12	10238.99
667.311	10384.4
667.503	10103.82
667.694	10177.55
667.885	10071.06
668.077	9989.14
668.268	10095.63
668.459	10021.91
668.651	9923.6
668.842	10058.77
669.033	9868.31
669.224	9604.12
669.416	9743.38
669.607	9700.37
669.798	9468.95
669.989	9757.72
670.18	9571.35
670.371	9573.4
670.563	9442.33
670.754	9436.19
670.945	9298.97
671.136	9196.57
671.327	9249.82
671.518	9182.24
671.709	9362.46
671.9	9126.94
672.091	9133.09
672.282	8899.62
672.473	9047.07
672.664	8903.71
672.855	8934.43
673.046	8852.52
673.237	8969.25
673.428	8965.15
673.619	8834.08
673.809	8653.86
674	8700.97
674.191	8576.04
674.382	8682.53
674.573	8584.23
674.764	8875.04
674.954	8694.82
675.145	8578.09
675.336	8545.32
675.527	8328.24
675.717	8422.44
675.908	8346.67
676.099	8371.24
676.289	8350.76
676.48	8248.36
676.671	8211.5
676.861	8203.31
677.052	8211.5
677.243	8191.02
677.433	8209.45
677.624	8164.4
677.814	7896.11
678.005	8031.28
678.195	8096.82
678.386	8064.05
678.576	7906.35
678.767	7924.79
678.957	7834.68
679.148	8043.57
679.338	8139.82
679.529	7908.4
679.719	8049.71
679.909	7832.63
680.1	7791.67
680.29	7801.91
680.481	7664.69
680.671	7806
680.861	7664.69
681.052	7711.8
681.242	7697.46
681.432	7810.1
681.622	7412.79
681.813	7531.58
682.003	7523.38
682.193	7668.79
682.383	7439.42
682.573	7400.51
682.764	7377.98
682.954	7552.06
683.144	7353.4
683.334	7459.9
683.524	7310.4
683.714	7351.35
683.904	7232.57
684.094	7330.87
684.284	7330.87
684.474	7173.18
684.664	7191.61
684.854	7185.47
685.044	7203.9
685.234	7150.65
685.424	7175.23
685.614	7035.97
685.804	6917.19
685.994	6917.19
686.184	6962.24
686.374	7038.02
686.564	6917.19
686.753	6902.85
686.943	6730.82
687.133	6788.16
687.323	6906.95
687.513	6714.44
687.702	6863.94
687.892	6728.77
688.082	6986.82
688.272	6763.59
688.461	6650.95
688.651	6646.85
688.841	6589.51
689.03	6593.61
689.22	6564.93
689.41	6513.74
689.599	6501.45
689.789	6530.12
689.979	6421.58
690.168	6364.23
690.358	6483.02
690.547	6306.89
690.737	6204.49
690.926	6351.95
691.116	6134.86
691.305	6231.12
691.495	6296.65
691.684	6149.2
691.874	6229.07
692.063	6253.64
692.252	6018.13
692.442	6177.87
692.631	6167.63
692.82	6245.45
693.01	6001.74
693.199	6073.42
693.388	5897.3
693.578	5993.55
693.767	5885.01
693.956	5944.4
694.146	5610.58
694.335	5860.43
694.524	5735.51
694.713	5835.86
694.902	5962.83
695.092	5848.15
695.281	5778.51
695.47	5747.79
695.659	5770.32
695.848	5753.94
696.037	5631.06
696.226	5676.12
696.415	5530.71
696.604	5647.44
696.793	5565.53
696.982	5600.34
697.171	5538.9
697.36	5409.88
697.549	5569.62
697.738	5411.93
697.927	5381.21
698.116	5444.7
698.305	5385.3
698.494	5307.48
698.683	5311.58
698.872	5375.06
699.061	5409.88
699.25	5444.7
699.438	5297.24
699.627	5264.47
699.816	5239.9
700.005	5241.95
700.193	5160.03
700.382	5151.84
700.571	5145.69
700.76	5041.25
700.948	4977.76
701.137	5213.28
701.326	5057.63
701.514	5059.68
701.703	5028.96
701.892	4983.9
702.08	5129.31
702.269	5012.57
702.457	4918.37
702.646	4863.07
702.834	5090.4
703.023	4897.89
703.212	4988
703.4	4914.27
703.589	4764.77
703.777	4871.26
703.965	4766.82
704.154	4766.82
704.342	4738.15
704.531	4699.23
704.719	4594.79
704.907	4648.04
705.096	4729.95
705.284	4445.29
705.472	4557.93
705.661	4713.57
705.849	4656.23
706.037	4576.36
706.226	4592.74
706.414	4521.06
706.602	4531.3
706.79	4664.42
706.979	4344.94
707.167	4482.15
707.355	4459.62
707.543	4394.09
707.731	4508.77
707.919	4316.26
708.107	4455.53
708.296	4349.03
708.484	4271.21
708.672	4312.17
708.86	4275.31
709.048	4371.56
709.236	4174.95
709.424	4252.78
709.612	4205.67
709.8	4117.61
709.988	4101.23
710.176	4090.99
710.364	4217.96
710.551	4123.76
710.739	4174.95
710.927	4152.43
711.115	4090.99
711.303	4041.84
711.491	4183.15
711.679	4144.24
711.866	4054.12
712.054	4004.97
712.242	3996.78
712.43	4017.26
712.617	3978.35
712.805	3978.35
712.993	3902.58
713.181	3916.91
713.368	3988.59
713.556	3783.79
713.744	3796.08
713.931	3906.67
714.119	3976.3
714.306	3732.59
714.494	3834.99
714.682	3939.44
714.869	3767.41
715.057	3785.84
715.244	3816.56
715.432	3619.96
715.619	3683.44
715.807	3681.39
715.994	3701.87
716.182	3503.22
716.369	3603.57
716.556	3619.96
716.744	3542.13
716.931	3603.57
717.119	3693.68
717.306	3724.4
717.493	3486.84
717.681	3480.69
717.868	3421.3
718.055	3574.9
718.242	3574.9
718.43	3570.8
718.617	3431.54
718.804	3419.25
718.991	3447.93
719.179	3363.96
719.366	3370.1
719.553	3466.36
719.74	3320.95
719.927	3320.95
720.114	3271.8
720.301	3363.96
720.488	3282.04
720.676	3212.41
720.863	3366.01
721.05	3361.91
721.237	3239.03
721.424	3370.1
721.611	3261.56
721.798	3169.4
721.985	3191.93
722.172	3148.92
722.358	3165.31
722.545	3222.65
722.732	3095.68
722.919	3214.46
723.106	3144.83
723.293	3091.58
723.48	3148.92
723.667	3017.85
723.853	3077.24
724.04	3212.41
724.227	3005.56
724.414	2995.32
724.6	3001.47
724.787	3064.96
724.974	3095.68
725.161	2946.17
725.347	2935.93
725.534	2970.75
725.72	3044.48
725.907	2845.82
726.094	2919.55
726.28	2868.35
726.467	2860.16
726.653	2929.79
726.84	3017.85
727.027	2948.22
727.213	2839.68
727.4	2796.67
727.586	2837.63
727.773	2698.37
727.959	2886.78
728.145	2880.64
728.332	2813.06
728.518	2737.28
728.705	2862.21
728.891	2894.97
729.077	2798.72
729.264	2649.22
729.45	2784.38
729.636	2759.81
729.823	2788.48
730.009	2778.24
730.195	2806.91
730.382	2673.79
730.568	2821.25
730.754	2612.35
730.94	2600.07
731.126	2665.6
731.313	2757.76
731.499	2649.22
731.685	2622.59
731.871	2579.59
732.057	2684.03
732.243	2690.18
732.429	2602.11
732.615	2608.26
732.801	2612.35
732.987	2595.97
733.173	2448.52
733.359	2540.68
733.545	2448.52
733.731	2485.38
733.917	2497.67
734.103	2557.06
734.289	2405.51
734.475	2430.09
734.661	2387.08
734.847	2497.67
735.033	2380.93
735.219	2374.79
735.404	2509.96
735.59	2372.74
735.776	2299.02
735.962	2520.2
736.148	2387.08
736.333	2495.62
736.519	2442.37
736.705	2444.42
736.89	2407.56
737.076	2325.64
737.262	2305.16
737.447	2342.02
737.633	2309.26
737.819	2305.16
738.004	2313.35
738.19	2292.87
738.375	2311.3
738.561	2317.45
738.747	2213
738.932	2141.32
739.118	2362.5
739.303	2172.04
739.489	2362.5
739.674	2190.47
739.859	2206.86
740.045	2280.58
740.23	2264.2
740.416	2133.13
740.601	2149.51
740.786	2223.24
740.972	2165.9
741.157	2231.43
741.342	2120.84
741.528	2061.45
741.713	2149.51
741.898	2049.16
742.084	2108.55
742.269	2157.71
742.454	2045.07
742.639	2149.51
742.824	2157.71
743.01	2069.64
743.195	2092.17
743.38	2075.79
743.565	1946.76
743.75	1991.82
743.935	1911.95
744.12	2055.31
744.305	1944.72
744.49	1887.37
744.675	1987.72
744.86	1838.22
745.045	2030.73
745.23	1879.18
745.415	1936.53
745.6	1934.48
745.785	1846.41
745.97	1795.22
746.155	1787.02
746.34	1830.03
746.525	1905.81
746.71	1758.35
746.895	1866.89
747.079	1819.79
747.264	1858.7
747.449	1793.17
747.634	1707.15
747.819	1805.46
748.003	1690.77
748.188	1590.42
748.373	1752.21
748.557	1686.67
748.742	1690.77
748.927	1703.06
749.111	1823.89
749.296	1698.96
749.481	1733.78
749.665	1588.37
749.85	1701.01
750.034	1713.3
750.219	1608.85
750.404	1660.05
750.588	1637.52
750.773	1526.93
750.957	1625.23
751.141	1535.12
751.326	1576.08
751.51	1586.32
751.695	1510.55
751.879	1512.6
752.064	1479.83
752.248	1520.79
752.432	1512.6
752.617	1586.32
752.801	1438.87
752.985	1442.96
753.17	1494.16
753.354	1459.35
753.538	1436.82
753.722	1414.29
753.907	1408.15
754.091	1399.96
754.275	1365.14
754.459	1436.82
754.643	1338.52
754.828	1424.53
755.012	1342.61
755.196	1291.41
755.38	1363.09
755.564	1334.42
755.748	1193.11
755.932	1334.42
756.116	1328.28
756.3	1315.99
756.484	1260.7
756.668	1272.98
756.852	1289.37
757.036	1293.46
757.22	1232.02
757.404	1193.11
757.588	1201.3
757.772	1264.79
757.956	1260.7
758.14	1197.21
758.323	1168.54
758.507	1348.76
758.691	1174.68
758.875	1215.64
759.059	1272.98
759.242	1227.93
759.426	1199.26
759.61	1178.78
759.794	1197.21
759.977	1201.3
760.161	1121.43
760.345	1148.06
760.528	1172.63
760.712	1103
760.895	1119.39
761.079	1125.53
761.263	1031.32
761.446	1072.28
761.63	1035.42
761.813	1055.9
761.997	1037.47
762.18	1103
762.364	1109.15
762.547	961.69
762.731	1035.42
762.914	994.46
763.098	1027.23
763.281	1088.67
763.464	1033.37
763.648	1023.13
763.831	1037.47
764.015	978.08
764.198	1045.66
764.381	1150.11
764.564	1059.99
764.748	986.27
764.931	955.55
765.114	951.45
765.297	1070.23
765.481	941.21
765.664	994.46
765.847	945.31
766.03	1002.65
766.213	1031.32
766.397	986.27
766.58	1008.8
766.763	941.21
766.946	953.5
767.129	941.21
767.312	951.45
767.495	961.69
767.678	926.88
767.861	949.4
768.044	963.74
768.227	961.69
768.41	1002.65
768.593	1037.47
768.776	941.21
768.959	953.5
769.142	1029.27
769.324	857.25
769.507	912.54
769.69	859.29
769.873	898.2
770.056	922.78
770.239	969.88
770.421	896.16
770.604	877.73
770.787	998.56
770.97	887.97
771.152	773.28
771.335	842.91
771.518	806.05
771.7	898.2
771.883	996.51
772.066	906.4
772.248	883.87
772.431	953.5
772.613	1002.65
772.796	857.25
772.978	937.12
773.161	849.05
773.343	898.2
773.526	781.47
773.708	773.28
773.891	806.05
774.073	851.1
774.256	881.82
774.438	777.37
774.621	818.33
774.803	830.62
774.985	728.22
775.168	715.94
775.35	756.9
775.532	920.73
775.715	767.13
775.897	804
776.079	724.13
776.261	783.52
776.444	758.94
776.626	756.9
776.808	703.65
776.99	668.83
777.173	642.21
777.355	634.02
777.537	677.02
777.719	736.42
777.901	726.18
778.083	623.78
778.265	670.88
778.447	785.57
778.629	609.44
778.811	683.17
778.993	707.74
779.175	687.26
779.357	658.59
779.539	588.96
779.721	556.19
779.903	668.83
780.085	734.37
780.267	586.91
780.449	638.11
780.631	650.4
780.812	638.11
780.994	660.64
781.176	674.98
781.358	568.48
781.54	535.71
781.721	545.95
781.903	504.99
782.085	642.21
782.267	693.41
782.448	478.37
782.63	584.87
782.812	656.54
782.993	617.63
783.175	595.11
783.357	527.52
783.538	595.11
783.72	543.91
783.901	535.71
784.083	552.1
784.264	568.48
784.446	488.61
784.627	447.65
784.809	425.12
784.99	539.81
785.172	548
785.353	500.9
785.535	519.33
785.716	527.52
785.897	494.76
786.079	515.23
786.26	521.38
786.441	496.8
786.623	435.36
786.804	408.74
786.985	390.31
787.167	527.52
787.348	523.43
787.529	480.42
787.71	461.99
787.891	461.99
788.073	441.51
788.254	490.66
788.435	414.88
788.616	455.84
788.797	480.42
788.978	343.21
789.159	519.33
789.34	388.26
789.522	388.26
789.703	431.27
789.884	382.12
790.065	453.8
790.246	535.71
790.427	404.64
790.607	439.46
790.788	431.27
790.969	298.15
791.15	453.8
791.331	375.97
791.512	398.5
791.693	396.45
791.874	371.88
792.054	470.18
792.235	339.11
792.416	355.49
792.597	371.88
792.778	310.44
792.958	429.22
793.139	292.01
793.32	335.01
793.5	257.19
793.681	373.92
793.862	298.15
794.042	380.07
794.223	335.01
794.404	341.16
794.584	261.29
794.765	289.96
794.945	324.77
795.126	318.63
795.306	371.88
795.487	345.25
795.667	337.06
795.848	324.77
796.028	386.21
796.209	341.16
796.389	359.59
796.57	341.16
796.75	289.96
796.93	273.57
797.111	259.24
797.291	306.34
797.471	359.59
797.652	324.77
797.832	367.78
798.012	289.96
798.192	261.29
798.373	345.25
798.553	259.24
798.733	322.73
798.913	267.43
799.093	240.81
799.274	273.57
799.454	330.92
799.634	218.28
799.814	341.16
799.994	253.09
800.174	283.81
800.354	322.73
800.534	218.28
800.714	326.82
800.894	224.42
801.074	173.22
801.254	224.42
801.434	261.29
801.614	314.53
801.794	292.01
801.974	986.27
802.154	251.05
802.334	359.59
802.514	210.09
802.693	238.76
802.873	228.52
803.053	294.05
803.233	273.57
803.413	201.9
803.592	292.01
803.772	257.19
803.952	261.29
804.131	281.77
804.311	212.14
804.491	306.34
804.67	253.09
804.85	259.24
805.03	191.66
805.209	330.92
805.389	234.66
805.568	226.47
805.748	191.66
805.928	214.18
806.107	253.09
806.287	251.05
806.466	249
806.646	253.09
806.825	177.32
807.004	183.46
807.184	208.04
807.363	273.57
807.543	240.81
807.722	132.26
807.901	242.85
808.081	226.47
808.26	203.94
808.439	173.22
808.619	134.31
808.798	203.94
808.977	193.7
809.156	175.27
809.336	179.37
809.515	234.66
809.694	154.79
809.873	251.05
810.052	138.41
810.231	179.37
810.411	201.9
810.59	197.8
810.769	165.03
810.948	197.8
811.127	101.55
811.306	109.74
811.485	162.98
811.664	167.08
811.843	173.22
812.022	289.96
812.201	216.23
812.38	150.7
812.559	134.31
812.737	203.94
812.916	113.83
813.095	173.22
813.274	175.27
813.453	167.08
813.632	162.98
813.811	232.62
813.989	128.17
814.168	187.56
814.347	101.55
814.526	191.66
814.704	222.38
814.883	265.38
815.062	103.59
815.24	191.66
815.419	148.65
815.598	177.32
815.776	89.26
815.955	189.61
816.133	79.02
816.312	208.04
816.49	126.12
816.669	183.46
816.847	142.5
817.026	154.79
817.204	175.27
817.383	152.74
817.561	29.87
817.74	187.56
817.918	203.94
818.097	175.27
818.275	109.74
818.453	183.46
818.632	175.27
818.81	44.2
818.988	134.31
819.167	150.7
819.345	68.78
819.523	105.64
819.701	117.93
819.879	126.12
820.058	138.41
820.236	93.35
820.414	79.02
820.592	95.4
820.77	154.79
820.948	232.62
821.127	85.16
821.305	68.78
821.483	95.4
821.661	128.17
821.839	179.37
822.017	113.83
822.195	91.31
822.373	101.55
822.551	103.59
822.729	115.88
822.907	109.74
823.085	193.7
823.262	156.84
823.44	79.02
823.618	93.35
823.796	160.94
823.974	95.4
824.152	132.26
824.329	40.11
824.507	113.83
824.685	81.07
824.863	62.63
825.04	150.7
825.218	122.02
825.396	113.83
825.574	101.55
825.751	148.65
825.929	122.02
826.107	38.06
826.284	113.83
826.462	101.55
826.639	68.78
826.817	23.72
826.994	146.6
827.172	93.35
827.349	60.59
827.527	152.74
827.704	97.45
827.882	165.03
828.059	115.88
828.237	158.89
828.414	91.31
828.591	52.39
828.769	99.5
828.946	27.82
829.124	117.93
829.301	171.18
829.478	199.85
829.655	122.02
829.833	144.55
830.01	29.87
830.187	199.85
830.364	81.07
830.542	72.87
830.719	160.94
830.896	101.55
831.073	23.72
831.25	85.16
831.427	85.16
831.604	93.35
831.782	27.82
831.959	144.55
832.136	48.3
832.313	83.11
832.49	87.21
832.667	107.69
832.844	3.24
833.021	162.98
833.198	48.3
833.374	142.5
833.551	54.44
833.728	52.39
833.905	76.97
834.082	111.78
834.259	109.74
834.436	101.55
834.612	40.11
834.789	134.31
834.966	95.4
835.143	150.7
835.319	81.07
835.496	93.35
835.673	142.5
835.85	103.59
836.026	64.68
836.203	38.06
836.38	52.39
836.556	58.54
836.733	87.21
836.909	46.25
837.086	48.3
837.262	72.87
837.439	-0.85
837.616	64.68
837.792	66.73
837.968	93.35
838.145	54.44
838.321	89.26
838.498	93.35
838.674	54.44
838.851	11.43
839.027	87.21
839.203	212.14
839.38	113.83
839.556	-19.29
839.732	44.2
839.909	48.3
840.085	68.78
840.261	76.97
840.437	19.63
840.614	52.39
840.79	58.54
840.966	109.74
841.142	124.07
841.318	60.59
841.494	130.22
841.671	109.74
841.847	42.15
842.023	21.67
842.199	68.78
842.375	111.78
842.551	-2.9
842.727	44.2
842.903	76.97
843.079	111.78
843.255	146.6
843.431	93.35
843.607	109.74
843.783	3.24
843.959	76.97
844.134	-31.57
844.31	87.21
844.486	21.67
844.662	40.11
844.838	46.25
845.013	85.16
845.189	52.39
845.365	36.01
845.541	81.07
845.716	40.11
845.892	113.83
846.068	11.43
846.244	27.82
846.419	38.06
846.595	27.82
846.77	-33.62
846.946	85.16
847.122	7.34
847.297	93.35
847.473	169.13
847.648	-11.09
847.824	21.67
847.999	-9.05
848.175	60.59
848.35	42.15
848.526	68.78
848.701	52.39
848.876	95.4
849.052	68.78
849.227	68.78
849.403	113.83
849.578	56.49
849.753	87.21
849.929	29.87
850.104	-29.52
850.279	40.11
850.454	111.78
850.63	56.49
850.805	38.06
850.98	111.78
851.155	-43.86
851.33	62.63
851.505	48.3
851.681	76.97
851.856	-0.85
852.031	29.87
852.206	1.19
852.381	52.39
852.556	60.59
852.731	103.59
852.906	64.68
853.081	27.82
853.256	72.87
853.431	19.63
853.606	62.63
853.781	-21.33
853.956	3.24
854.131	38.06
854.305	48.3
854.48	-7
854.655	11.43
854.83	60.59
855.005	97.45
855.18	-70.48
855.354	-25.43
855.529	68.78
855.704	74.92
855.879	52.39
856.053	11.43
856.228	9.39
856.403	11.43
856.577	3.24
856.752	19.63
856.926	68.78
857.101	60.59
857.276	38.06
857.45	64.68
857.625	62.63
857.799	60.59
857.974	93.35
858.148	76.97
858.323	44.2
858.497	76.97
858.672	-21.33
858.846	64.68
859.02	36.01
859.195	-4.95
859.369	-50
859.543	48.3
859.718	27.82
859.892	52.39
860.066	46.25
860.241	3.24
860.415	64.68
860.589	38.06
860.763	56.49
860.938	5.29
861.112	42.15
861.286	-4.95
861.46	-13.14
861.634	29.87
861.808	72.87
861.982	38.06
862.157	-54.1
862.331	3.24
862.505	-19.29
862.679	-15.19
862.853	-2.9
863.027	-2.9
863.201	89.26
863.375	9.39
863.549	-13.14
863.722	29.87
863.896	68.78
864.07	-11.09
864.244	-21.33
864.418	60.59
864.592	-11.09
864.766	1.19
864.939	7.34
865.113	9.39
865.287	70.83
865.461	-0.85
865.634	150.7
865.808	19.63
865.982	52.39
866.156	23.72
866.329	38.06
866.503	64.68
866.676	93.35
866.85	81.07
867.024	-2.9
867.197	44.2
867.371	-11.09
867.544	-25.43
867.718	11.43
867.891	-2.9
868.065	15.53
868.238	36.01
868.412	76.97
868.585	33.96
868.759	5.29
868.932	21.67
869.105	-62.29
869.279	60.59
869.452	-19.29
869.625	-11.09
869.799	21.67
869.972	-11.09
870.145	-35.67
870.319	7.34
870.492	21.67
870.665	40.11
870.838	11.43
871.011	-25.43
871.185	54.44
871.358	-9.05
871.531	27.82
871.704	-11.09
871.877	85.16
872.05	-0.85
872.223	-19.29
872.396	25.77
872.569	36.01
872.742	-19.29
872.915	79.02
873.088	23.72
873.261	-29.52
873.434	124.07
873.607	-21.33
873.78	-0.85
873.953	13.48
874.126	21.67
874.299	56.49
874.471	-19.29
874.644	-2.9
874.817	11.43
874.99	81.07
875.163	54.44
875.335	23.72
875.508	62.63
875.681	15.53
875.853	-62.29
876.026	27.82
876.199	-4.95
876.371	36.01
876.544	97.45
876.717	-33.62
876.889	64.68
877.062	52.39
877.234	-43.86
877.407	17.58
877.579	31.91
877.752	38.06
877.924	33.96
878.097	-7
878.269	76.97
878.442	44.2
878.614	-19.29
878.786	19.63
878.959	1.19
879.131	19.63
879.303	44.2
879.476	3.24
879.648	89.26
879.82	11.43
879.993	-19.29
880.165	11.43
880.337	-60.24
880.509	33.96
880.681	-107.35
880.854	-2.9
881.026	38.06
881.198	79.02
881.37	15.53
881.542	27.82
881.714	-54.1
881.886	-9.05
882.058	-15.19
882.23	-11.09
882.402	23.72
882.574	-27.48
882.746	9.39
882.918	99.5
883.09	27.82
883.262	3.24
883.434	31.91
883.606	-45.91
883.778	33.96
883.95	-13.14
884.122	31.91
884.293	68.78
884.465	-54.1
884.637	54.44
884.809	-52.05
884.98	40.11
885.152	-17.24
885.324	113.83
885.496	-62.29
885.667	-17.24
885.839	-29.52
886.011	64.68
886.182	-4.95
886.354	7.34
886.525	-27.48
886.697	38.06
886.869	87.21
887.04	9.39
887.212	56.49
887.383	46.25
887.555	-2.9
887.726	50.35
887.897	-27.48
888.069	1.19
888.24	95.4
888.412	-31.57
888.583	-0.85
888.754	-21.33
888.926	-27.48
889.097	-4.95
889.268	-58.2
889.44	13.48
889.611	-11.09
889.782	44.2
889.953	-45.91
890.125	3.24
890.296	-29.52
890.467	-11.09
890.638	-21.33
890.809	15.53
890.98	-21.33
891.151	7.34
891.323	79.02
891.494	119.98
891.665	-27.48
891.836	-4.95
892.007	-37.72
892.178	46.25
892.349	15.53
892.52	-17.24
892.691	36.01
892.862	9.39
893.032	-68.44
893.203	-27.48
893.374	-2.9
893.545	76.97
893.716	3.24
893.887	33.96
894.057	-29.52
894.228	91.31
894.399	21.67
894.57	72.87
894.74	19.63
894.911	52.39
895.082	-74.58
895.253	-11.09
895.423	13.48
895.594	97.45
895.764	21.67
895.935	5.29
896.106	-56.15
896.276	19.63
896.447	40.11
896.617	-19.29
896.788	76.97
896.958	-78.68
897.129	5.29
897.299	-23.38
897.47	76.97
897.64	23.72
897.81	11.43
897.981	11.43
898.151	-35.67
898.322	54.44
898.492	-13.14
898.662	27.82
898.832	-39.76
899.003	-68.44
899.173	29.87
899.343	-4.95
899.513	1.19
