Data from USB4F104151__137__14-31-46-451.txt Node

Date: Thu Mar 13 14:31:46 EDT 2025
User: louis
Spectrometer: USB4F10415
Trigger mode: 4
Integration Time (sec): 2.500000E-2
Scans to average: 1
Electric dark correction enabled: true
Nonlinearity correction enabled: false
Boxcar width: 0
XAxis mode: Wavelengths
Number of Pixels in Spectrum: 3648
>>>>>Begin Spectral Data<<<<<
178.204	-164.86
178.424	-164.86
178.644	-164.86
178.864	-128
179.084	-164.86
179.304	-39.94
179.524	-29.7
179.744	-13.31
179.964	3.07
180.184	39.94
180.404	-54.27
180.624	27.65
180.844	-68.61
181.064	-5.12
181.283	44.03
181.503	11.26
181.723	84.99
181.943	-50.18
182.163	80.89
182.383	11.26
182.602	19.46
182.822	80.89
183.042	87.04
183.262	-21.5
183.482	5.12
183.701	3.07
183.921	46.08
184.141	-11.26
184.361	60.42
184.58	52.22
184.8	78.85
185.02	31.74
185.239	19.46
185.459	3.07
185.679	70.65
185.898	27.65
186.118	76.8
186.338	44.03
186.557	72.7
186.777	-19.46
186.997	-44.03
187.216	-31.74
187.436	46.08
187.655	25.6
187.875	84.99
188.095	-1.02
188.314	136.19
188.534	52.22
188.753	-19.46
188.973	46.08
189.192	-46.08
189.412	27.65
189.631	78.85
189.851	-11.26
190.07	-11.26
190.29	-37.89
190.509	5.12
190.729	23.55
190.948	23.55
191.168	189.44
191.387	125.95
191.607	-11.26
191.826	39.94
192.045	54.27
192.265	35.84
192.484	48.13
192.704	64.51
192.923	19.46
193.142	146.43
193.362	44.03
193.581	76.8
193.8	109.57
194.02	109.57
194.239	56.32
194.458	21.5
194.678	35.84
194.897	54.27
195.116	29.7
195.335	60.42
195.555	39.94
195.774	37.89
195.993	44.03
196.212	15.36
196.432	103.42
196.651	-13.31
196.87	19.46
197.089	105.47
197.308	-7.17
197.528	76.8
197.747	-84.99
197.966	46.08
198.185	15.36
198.404	-44.03
198.623	44.03
198.842	136.19
199.062	134.14
199.281	70.65
199.5	27.65
199.719	39.94
199.938	33.79
200.157	82.94
200.376	11.26
200.595	56.32
200.814	29.7
201.033	125.95
201.252	-1.02
201.471	78.85
201.69	134.14
201.909	62.46
202.128	15.36
202.347	35.84
202.566	80.89
202.785	-11.26
203.004	-17.41
203.223	103.42
203.442	-5.12
203.661	21.5
203.879	52.22
204.098	56.32
204.317	23.55
204.536	-31.74
204.755	27.65
204.974	15.36
205.193	91.13
205.411	103.42
205.63	50.18
205.849	-31.74
206.068	3.07
206.287	3.07
206.505	48.13
206.724	35.84
206.943	66.56
207.162	-11.26
207.381	66.56
207.599	19.46
207.818	11.26
208.037	44.03
208.255	-54.27
208.474	41.98
208.693	11.26
208.911	-11.26
209.13	-3.07
209.349	84.99
209.567	44.03
209.786	-13.31
210.005	54.27
210.223	-60.42
210.442	50.18
210.661	111.61
210.879	72.7
211.098	46.08
211.316	11.26
211.535	76.8
211.753	68.61
211.972	84.99
212.191	-27.65
212.409	3.07
212.628	93.18
212.846	-17.41
213.065	50.18
213.283	103.42
213.502	-13.31
213.72	103.42
213.938	-21.5
214.157	-17.41
214.375	37.89
214.594	11.26
214.812	21.5
215.031	44.03
215.249	13.31
215.467	-11.26
215.686	64.51
215.904	93.18
216.122	-3.07
216.341	68.61
216.559	46.08
216.778	48.13
216.996	46.08
217.214	-1.02
217.432	5.12
217.651	15.36
217.869	46.08
218.087	-54.27
218.306	3.07
218.524	68.61
218.742	33.79
218.96	21.5
219.179	58.37
219.397	-9.22
219.615	87.04
219.833	95.23
220.051	54.27
220.27	31.74
220.488	62.46
220.706	35.84
220.924	23.55
221.142	37.89
221.36	-5.12
221.578	35.84
221.796	84.99
222.015	3.07
222.233	5.12
222.451	111.61
222.669	-25.6
222.887	60.42
223.105	-1.02
223.323	91.13
223.541	29.7
223.759	72.7
223.977	58.37
224.195	128
224.413	-15.36
224.631	17.41
224.849	44.03
225.067	17.41
225.285	-25.6
225.503	-13.31
225.721	3.07
225.939	52.22
226.157	44.03
226.375	101.37
226.592	-37.89
226.81	31.74
227.028	52.22
227.246	27.65
227.464	48.13
227.682	78.85
227.9	68.61
228.117	56.32
228.335	27.65
228.553	60.42
228.771	19.46
228.989	-27.65
229.206	-13.31
229.424	-3.07
229.642	-13.31
229.86	35.84
230.077	35.84
230.295	41.98
230.513	60.42
230.731	48.13
230.948	84.99
231.166	84.99
231.384	5.12
231.601	-27.65
231.819	54.27
232.037	5.12
232.254	-19.46
232.472	-44.03
232.689	5.12
232.907	101.37
233.125	19.46
233.342	-37.89
233.56	11.26
233.777	-23.55
233.995	37.89
234.213	66.56
234.43	31.74
234.648	-5.12
234.865	68.61
235.083	19.46
235.3	1.02
235.518	7.17
235.735	84.99
235.953	105.47
236.17	-41.98
236.388	80.89
236.605	41.98
236.822	84.99
237.04	60.42
237.257	-15.36
237.475	1.02
237.692	66.56
237.909	72.7
238.127	5.12
238.344	39.94
238.562	62.46
238.779	-21.5
238.996	-5.12
239.214	62.46
239.431	15.36
239.648	-99.33
239.865	-5.12
240.083	31.74
240.3	37.89
240.517	-5.12
240.735	78.85
240.952	5.12
241.169	3.07
241.386	-54.27
241.603	68.61
241.821	-60.42
242.038	101.37
242.255	87.04
242.472	62.46
242.689	-50.18
242.907	52.22
243.124	68.61
243.341	56.32
243.558	11.26
243.775	-29.7
243.992	-37.89
244.209	31.74
244.426	154.62
244.643	33.79
244.86	-9.22
245.078	1.02
245.295	31.74
245.512	-5.12
245.729	66.56
245.946	128
246.163	50.18
246.38	60.42
246.597	52.22
246.814	19.46
247.031	29.7
247.248	52.22
247.464	41.98
247.681	11.26
247.898	39.94
248.115	117.76
248.332	-37.89
248.549	11.26
248.766	103.42
248.983	44.03
249.2	-13.31
249.417	109.57
249.633	-3.07
249.85	15.36
250.067	89.09
250.284	19.46
250.501	84.99
250.717	66.56
250.934	11.26
251.151	72.7
251.368	44.03
251.585	21.5
251.801	62.46
252.018	78.85
252.235	29.7
252.451	-13.31
252.668	44.03
252.885	76.8
253.102	33.79
253.318	58.37
253.535	35.84
253.752	-19.46
253.968	21.5
254.185	-103.42
254.401	27.65
254.618	62.46
254.835	-7.17
255.051	89.09
255.268	52.22
255.484	7.17
255.701	23.55
255.917	64.51
256.134	-19.46
256.351	39.94
256.567	-56.32
256.784	44.03
257	-33.79
257.217	134.14
257.433	97.28
257.65	68.61
257.866	58.37
258.082	-9.22
258.299	19.46
258.515	3.07
258.732	64.51
258.948	11.26
259.165	37.89
259.381	56.32
259.597	35.84
259.814	72.7
260.03	-23.55
260.246	9.22
260.463	11.26
260.679	-37.89
260.895	44.03
261.112	68.61
261.328	68.61
261.544	-39.94
261.761	125.95
261.977	9.22
262.193	-58.37
262.409	1.02
262.626	76.8
262.842	44.03
263.058	37.89
263.274	72.7
263.49	48.13
263.707	39.94
263.923	52.22
264.139	-5.12
264.355	117.76
264.571	35.84
264.787	-17.41
265.004	19.46
265.22	62.46
265.436	-19.46
265.652	-19.46
265.868	15.36
266.084	33.79
266.3	52.22
266.516	17.41
266.732	78.85
266.948	115.71
267.164	37.89
267.38	5.12
267.596	31.74
267.812	50.18
268.028	41.98
268.244	15.36
268.46	31.74
268.676	29.7
268.892	66.56
269.108	17.41
269.324	29.7
269.54	25.6
269.756	27.65
269.972	-5.12
270.188	25.6
270.403	-9.22
270.619	52.22
270.835	-5.12
271.051	78.85
271.267	19.46
271.483	23.55
271.698	136.19
271.914	93.18
272.13	37.89
272.346	48.13
272.562	21.5
272.777	74.75
272.993	29.7
273.209	-23.55
273.425	101.37
273.64	31.74
273.856	1.02
274.072	31.74
274.287	-29.7
274.503	7.17
274.719	29.7
274.934	48.13
275.15	-29.7
275.366	21.5
275.581	-33.79
275.797	27.65
276.012	-13.31
276.228	13.31
276.444	-3.07
276.659	121.85
276.875	-9.22
277.09	62.46
277.306	33.79
277.521	64.51
277.737	-13.31
277.952	64.51
278.168	33.79
278.383	11.26
278.599	66.56
278.814	146.43
279.03	3.07
279.245	44.03
279.461	46.08
279.676	44.03
279.892	15.36
280.107	48.13
280.322	-5.12
280.538	35.84
280.753	89.09
280.969	-46.08
281.184	76.8
281.399	105.47
281.615	46.08
281.83	13.31
282.045	-9.22
282.26	78.85
282.476	41.98
282.691	35.84
282.906	19.46
283.122	21.5
283.337	52.22
283.552	11.26
283.767	21.5
283.983	76.8
284.198	-60.42
284.413	13.31
284.628	-25.6
284.843	46.08
285.058	23.55
285.274	41.98
285.489	68.61
285.704	62.46
285.919	15.36
286.134	68.61
286.349	27.65
286.564	35.84
286.779	48.13
286.995	7.17
287.21	-5.12
287.425	62.46
287.64	5.12
287.855	11.26
288.07	11.26
288.285	7.17
288.5	62.46
288.715	138.24
288.93	68.61
289.145	-25.6
289.36	68.61
289.575	7.17
289.79	52.22
290.004	-27.65
290.219	107.52
290.434	60.42
290.649	52.22
290.864	-27.65
291.079	-66.56
291.294	125.95
291.509	11.26
291.724	54.27
291.938	15.36
292.153	13.31
292.368	76.8
292.583	27.65
292.798	82.94
293.012	7.17
293.227	31.74
293.442	13.31
293.657	19.46
293.871	142.33
294.086	74.75
294.301	56.32
294.516	54.27
294.73	19.46
294.945	39.94
295.16	84.99
295.374	27.65
295.589	109.57
295.804	35.84
296.018	-9.22
296.233	29.7
296.447	41.98
296.662	15.36
296.877	56.32
297.091	19.46
297.306	-13.31
297.52	-3.07
297.735	13.31
297.949	109.57
298.164	80.89
298.378	37.89
298.593	48.13
298.807	33.79
299.022	15.36
299.236	19.46
299.451	93.18
299.665	-5.12
299.88	-3.07
300.094	9.22
300.309	35.84
300.523	52.22
300.737	13.31
300.952	52.22
301.166	23.55
301.381	-37.89
301.595	27.65
301.809	109.57
302.024	44.03
302.238	39.94
302.452	91.13
302.667	80.89
302.881	13.31
303.095	-27.65
303.309	52.22
303.524	-21.5
303.738	52.22
303.952	-52.22
304.166	60.42
304.381	15.36
304.595	72.7
304.809	76.8
305.023	70.65
305.237	3.07
305.452	35.84
305.666	97.28
305.88	68.61
306.094	35.84
306.308	72.7
306.522	117.76
306.736	52.22
306.95	56.32
307.164	35.84
307.379	15.36
307.593	54.27
307.807	23.55
308.021	46.08
308.235	17.41
308.449	-66.56
308.663	-3.07
308.877	111.61
309.091	105.47
309.305	99.33
309.519	15.36
309.733	-5.12
309.947	15.36
310.161	97.28
310.374	9.22
310.588	117.76
310.802	31.74
311.016	80.89
311.23	132.09
311.444	52.22
311.658	60.42
311.872	117.76
312.085	31.74
312.299	44.03
312.513	80.89
312.727	64.51
312.941	3.07
313.154	46.08
313.368	91.13
313.582	19.46
313.796	56.32
314.009	31.74
314.223	29.7
314.437	27.65
314.651	44.03
314.864	48.13
315.078	41.98
315.292	-29.7
315.505	-29.7
315.719	37.89
315.933	13.31
316.146	52.22
316.36	84.99
316.573	72.7
316.787	13.31
317.001	105.47
317.214	39.94
317.428	84.99
317.641	1.02
317.855	13.31
318.068	-54.27
318.282	-1.02
318.495	-3.07
318.709	41.98
318.922	-19.46
319.136	68.61
319.349	62.46
319.563	87.04
319.776	95.23
319.99	17.41
320.203	-17.41
320.417	11.26
320.63	115.71
320.843	89.09
321.057	31.74
321.27	15.36
321.483	37.89
321.697	99.33
321.91	21.5
322.124	13.31
322.337	-60.42
322.55	-3.07
322.763	35.84
322.977	15.36
323.19	-13.31
323.403	60.42
323.617	72.7
323.83	70.65
324.043	56.32
324.256	27.65
324.469	-11.26
324.683	119.81
324.896	35.84
325.109	44.03
325.322	-82.94
325.535	82.94
325.748	23.55
325.962	-1.02
326.175	-1.02
326.388	-23.55
326.601	78.85
326.814	97.28
327.027	27.65
327.24	72.7
327.453	-21.5
327.666	52.22
327.879	21.5
328.092	3.07
328.305	93.18
328.518	109.57
328.731	56.32
328.944	37.89
329.157	44.03
329.37	52.22
329.583	46.08
329.796	33.79
330.009	46.08
330.222	35.84
330.435	39.94
330.648	50.18
330.861	29.7
331.073	97.28
331.286	5.12
331.499	33.79
331.712	-5.12
331.925	101.37
332.138	37.89
332.35	52.22
332.563	-41.98
332.776	68.61
332.989	68.61
333.202	52.22
333.414	11.26
333.627	54.27
333.84	23.55
334.053	3.07
334.265	21.5
334.478	-13.31
334.691	66.56
334.903	29.7
335.116	-13.31
335.329	15.36
335.541	87.04
335.754	78.85
335.966	41.98
336.179	15.36
336.392	27.65
336.604	-17.41
336.817	103.42
337.029	93.18
337.242	44.03
337.454	-11.26
337.667	44.03
337.88	29.7
338.092	15.36
338.305	11.26
338.517	-9.22
338.729	134.14
338.942	29.7
339.154	-27.65
339.367	109.57
339.579	52.22
339.792	1.02
340.004	97.28
340.217	66.56
340.429	-11.26
340.641	-13.31
340.854	11.26
341.066	3.07
341.278	134.14
341.491	109.57
341.703	35.84
341.915	-70.65
342.128	35.84
342.34	-11.26
342.552	113.66
342.764	35.84
342.977	68.61
343.189	95.23
343.401	48.13
343.613	58.37
343.826	37.89
344.038	68.61
344.25	78.85
344.462	-1.02
344.674	35.84
344.886	62.46
345.099	171.01
345.311	87.04
345.523	27.65
345.735	-29.7
345.947	3.07
346.159	48.13
346.371	27.65
346.583	74.75
346.795	80.89
347.007	-9.22
347.219	84.99
347.431	21.5
347.643	134.14
347.855	-5.12
348.067	95.23
348.279	19.46
348.491	62.46
348.703	109.57
348.915	37.89
349.127	44.03
349.339	87.04
349.551	-3.07
349.763	78.85
349.975	13.31
350.187	15.36
350.399	66.56
350.61	11.26
350.822	58.37
351.034	111.61
351.246	7.17
351.458	19.46
351.669	23.55
351.881	19.46
352.093	109.57
352.305	76.8
352.517	52.22
352.728	105.47
352.94	48.13
353.152	58.37
353.363	11.26
353.575	3.07
353.787	9.22
353.999	93.18
354.21	117.76
354.422	9.22
354.633	19.46
354.845	56.32
355.057	11.26
355.268	80.89
355.48	82.94
355.692	19.46
355.903	70.65
356.115	19.46
356.326	-9.22
356.538	125.95
356.749	101.37
356.961	70.65
357.172	80.89
357.384	11.26
357.595	60.42
357.807	54.27
358.018	3.07
358.23	50.18
358.441	84.99
358.653	76.8
358.864	60.42
359.075	111.61
359.287	76.8
359.498	109.57
359.709	64.51
359.921	27.65
360.132	-3.07
360.344	-9.22
360.555	-37.89
360.766	19.46
360.977	87.04
361.189	15.36
361.4	25.6
361.611	37.89
361.823	76.8
362.034	29.7
362.245	3.07
362.456	11.26
362.667	15.36
362.879	54.27
363.09	35.84
363.301	68.61
363.512	3.07
363.723	-21.5
363.935	37.89
364.146	101.37
364.357	13.31
364.568	68.61
364.779	-13.31
364.99	97.28
365.201	5.12
365.412	74.75
365.623	-27.65
365.834	56.32
366.045	107.52
366.256	101.37
366.467	11.26
366.678	117.76
366.889	-5.12
367.1	3.07
367.311	72.7
367.522	37.89
367.733	62.46
367.944	56.32
368.155	-13.31
368.366	54.27
368.577	19.46
368.788	60.42
368.999	-17.41
369.209	15.36
369.42	87.04
369.631	72.7
369.842	27.65
370.053	72.7
370.264	44.03
370.474	44.03
370.685	46.08
370.896	7.17
371.107	84.99
371.317	76.8
371.528	27.65
371.739	41.98
371.95	-33.79
372.16	44.03
372.371	3.07
372.582	-13.31
372.792	54.27
373.003	48.13
373.214	1.02
373.424	87.04
373.635	48.13
373.846	93.18
374.056	23.55
374.267	70.65
374.477	101.37
374.688	-29.7
374.898	78.85
375.109	60.42
375.319	-9.22
375.53	87.04
375.74	117.76
375.951	-1.02
376.161	93.18
376.372	136.19
376.582	46.08
376.793	78.85
377.003	48.13
377.214	62.46
377.424	29.7
377.635	60.42
377.845	76.8
378.055	72.7
378.266	64.51
378.476	-1.02
378.686	60.42
378.897	27.65
379.107	99.33
379.317	62.46
379.528	1.02
379.738	117.76
379.948	-13.31
380.158	27.65
380.369	80.89
380.579	117.76
380.789	64.51
380.999	117.76
381.21	19.46
381.42	103.42
381.63	-46.08
381.84	60.42
382.05	66.56
382.261	125.95
382.471	54.27
382.681	31.74
382.891	84.99
383.101	21.5
383.311	-37.89
383.521	56.32
383.731	52.22
383.941	68.61
384.151	60.42
384.361	52.22
384.571	128
384.781	44.03
384.991	37.89
385.201	76.8
385.411	87.04
385.621	64.51
385.831	95.23
386.041	31.74
386.251	62.46
386.461	11.26
386.671	11.26
386.881	39.94
387.091	21.5
387.301	117.76
387.511	56.32
387.72	101.37
387.93	89.09
388.14	50.18
388.35	68.61
388.56	89.09
388.769	128
388.979	93.18
389.189	31.74
389.399	93.18
389.609	31.74
389.818	113.66
390.028	101.37
390.238	60.42
390.447	84.99
390.657	117.76
390.867	101.37
391.076	48.13
391.286	64.51
391.496	93.18
391.705	-52.22
391.915	62.46
392.125	138.24
392.334	44.03
392.544	109.57
392.753	84.99
392.963	39.94
393.172	39.94
393.382	119.81
393.591	56.32
393.801	21.5
394.01	84.99
394.22	117.76
394.429	52.22
394.639	101.37
394.848	113.66
395.058	74.75
395.267	87.04
395.477	54.27
395.686	117.76
395.895	121.85
396.105	125.95
396.314	56.32
396.524	91.13
396.733	62.46
396.942	154.62
397.152	105.47
397.361	97.28
397.57	152.57
397.78	142.33
397.989	154.62
398.198	115.71
398.407	15.36
398.617	84.99
398.826	87.04
399.035	144.38
399.244	107.52
399.453	136.19
399.663	74.75
399.872	132.09
400.081	128
400.29	128
400.499	72.7
400.708	175.1
400.917	117.76
401.127	117.76
401.336	76.8
401.545	95.23
401.754	101.37
401.963	125.95
402.172	101.37
402.381	109.57
402.59	181.25
402.799	128
403.008	166.91
403.217	185.34
403.426	154.62
403.635	166.91
403.844	103.42
404.053	130.05
404.262	216.06
404.471	257.02
404.68	183.29
404.888	177.15
405.097	132.09
405.306	218.11
405.515	78.85
405.724	179.2
405.933	193.53
406.142	168.96
406.35	228.35
406.559	236.54
406.768	207.87
406.977	257.02
407.185	240.64
407.394	240.64
407.603	201.72
407.812	252.92
408.02	240.64
408.229	306.17
408.438	275.45
408.646	164.86
408.855	207.87
409.064	252.92
409.272	289.79
409.481	322.56
409.69	357.37
409.898	277.5
410.107	398.33
410.315	412.67
410.524	314.36
410.733	513.02
410.941	371.71
411.15	398.33
411.358	379.9
411.567	455.67
411.775	414.71
411.984	553.98
412.192	510.97
412.401	519.16
412.609	551.93
412.818	498.68
413.026	584.7
413.234	599.03
413.443	642.04
413.651	648.18
413.86	644.09
414.068	619.51
414.276	699.38
414.485	644.09
414.693	748.53
414.901	873.46
415.11	779.25
415.318	859.12
415.526	822.26
415.734	848.88
415.943	902.13
416.151	912.37
416.359	928.75
416.567	1059.82
416.776	1014.77
416.984	1084.4
417.192	1174.51
417.4	1170.41
417.608	1149.93
417.817	1184.75
418.025	1182.7
418.233	1356.78
418.441	1272.81
418.649	1293.29
418.857	1522.66
419.065	1526.76
419.273	1407.98
419.481	1610.73
419.689	1643.49
419.897	1653.73
420.105	1739.75
420.313	1866.72
420.521	1874.92
420.729	1903.59
420.937	1903.59
421.145	1965.03
421.353	2141.15
421.561	2108.38
421.769	2173.92
421.977	2411.48
422.185	2319.32
422.393	2315.23
422.601	2558.94
422.809	2599.9
423.017	2653.14
423.224	2761.69
423.432	2896.85
423.64	2837.46
423.848	3122.13
424.056	2960.34
424.263	3341.26
424.471	3279.82
424.679	3349.45
424.887	3404.75
425.094	3496.91
425.302	3607.5
425.51	3652.55
425.718	3800.01
425.925	3877.83
426.133	4008.9
426.341	4193.22
426.548	4395.96
426.756	4322.24
426.964	4639.67
427.171	4680.63
427.379	4758.46
427.586	4920.24
427.794	5172.15
428.001	5264.3
428.209	5487.53
428.417	5381.04
428.624	5841.83
428.832	5868.45
429.039	5868.45
429.247	5987.24
429.454	6493.08
429.662	6828.95
429.869	6398.88
430.076	6738.84
430.284	6554.52
430.491	6783.9
430.699	7076.76
430.906	7408.53
431.114	7277.46
431.321	7728.01
431.528	7721.87
431.736	8244.1
431.943	8684.41
432.15	8356.74
432.358	8502.14
432.565	8924.02
432.772	8930.17
432.979	9364.34
433.187	9313.14
433.394	9483.12
433.601	10101.61
433.808	10126.18
434.016	10062.69
434.223	10468.19
434.43	11277.14
434.637	10914.65
434.844	11471.7
435.052	11916.11
435.259	11731.79
435.466	11922.25
435.673	11733.84
435.88	12294.98
436.087	13167.42
436.294	13026.11
436.501	12890.94
436.708	12860.22
436.915	13622.06
437.122	13974.31
437.329	14035.75
437.537	14543.65
437.743	14699.3
437.95	14474.02
438.157	15399.7
438.364	15856.4
438.571	15729.42
438.778	15907.6
438.985	17423.09
439.192	16595.71
439.399	17361.66
439.606	16855.81
439.813	18090.73
440.02	18666.21
440.227	18483.94
440.433	18490.09
440.64	19116.76
440.847	19151.58
441.054	19329.75
441.261	20648.64
441.467	20136.65
441.674	20779.71
441.881	21605.05
442.088	21533.37
442.294	21496.5
442.501	21258.94
442.708	22207.15
442.914	22760.1
443.121	23982.74
443.328	23397.02
443.534	25131.65
443.741	24289.93
443.948	23851.67
444.154	25586.3
444.361	25459.32
444.568	25672.31
444.774	25424.51
444.981	25815.67
445.187	26956.39
445.394	27726.42
445.6	27316.83
445.807	29932.09
446.013	28543.56
446.22	29135.43
446.426	30351.92
446.633	30538.29
446.839	32029.21
447.046	30378.54
447.252	32420.37
447.459	32164.37
447.665	31859.23
447.871	33497.6
448.078	34968.04
448.284	32950.79
448.491	34083.32
448.697	35561.95
448.903	35908.06
449.11	35832.29
449.316	35592.67
449.522	36303.32
449.728	37140.94
449.935	37208.52
450.141	37607.87
450.347	38363.57
450.553	37247.43
450.76	37366.21
450.966	38836.66
451.172	38111.67
451.378	39131.56
451.584	38615.47
451.791	39557.54
451.997	39029.16
452.203	39608.74
452.409	40186.27
452.615	39641.51
452.821	38078.91
453.027	37810.62
453.233	39686.56
453.44	38281.66
453.646	38238.65
453.852	38498.74
454.058	39147.95
454.264	38021.56
454.47	38568.37
454.676	37986.75
454.882	38994.35
455.088	36043.23
455.294	36110.81
455.5	36856.27
455.705	37171.66
455.911	35543.52
456.117	35254.76
456.323	34587.12
456.529	32528.91
456.735	34044.41
456.941	33184.26
457.147	32555.54
457.352	31425.06
457.558	31076.9
457.764	31040.04
457.97	30442.03
458.176	30059.06
458.381	29938.23
458.587	28641.87
458.793	28346.96
458.999	26993.25
459.204	28944.97
459.41	28146.26
459.616	26497.64
459.821	26348.14
460.027	26186.35
460.233	25596.54
460.438	24476.3
460.644	24560.27
460.85	23589.53
461.055	23022.24
461.261	22950.56
461.466	21195.45
461.672	20734.66
461.878	22055.6
462.083	20396.74
462.289	20181.71
462.494	19921.62
462.7	19055.33
462.905	18576.1
463.111	19155.68
463.316	19280.6
463.522	19018.46
463.727	18895.58
463.932	18813.66
464.138	18565.86
464.343	18557.67
464.549	18133.74
464.754	18731.75
464.959	18741.99
465.165	18481.89
465.37	17609.46
465.575	17332.98
465.781	17797.87
465.986	17967.85
466.191	17273.59
466.397	16931.58
466.602	15989.52
466.807	16575.24
467.012	16419.59
467.218	16509.7
467.423	16388.87
467.628	16579.33
467.833	16982.78
468.038	16362.25
468.244	15784.72
468.449	16573.19
468.654	16104.2
468.859	15897.36
469.064	16077.58
469.269	15127.32
469.474	15530.77
469.679	15674.13
469.885	14986.01
470.09	15237.91
470.295	15166.23
470.5	14600.99
470.705	14900
470.91	14605.09
471.115	14357.28
471.32	14414.63
471.525	14682.91
471.73	14193.45
471.935	14195.5
472.139	13521.71
472.344	13650.74
472.549	13572.91
472.754	13429.56
472.959	13230.9
473.164	12823.36
473.369	12784.44
473.574	13185.85
473.778	12919.61
473.983	12989.24
474.188	12979
474.393	12286.79
474.598	12598.08
474.802	12219.21
475.007	12235.59
475.212	12196.68
475.417	11715.41
475.621	11785.04
475.826	11778.89
476.031	11737.93
476.235	11203.41
476.44	11391.83
476.645	11238.23
476.849	11227.99
477.054	11080.53
477.259	10888.03
477.463	11004.76
477.668	10857.31
477.872	10767.2
478.077	10824.54
478.282	10517.34
478.486	10185.57
478.691	10220.39
478.895	10161
479.1	10087.27
479.304	10064.74
479.509	9907.05
479.713	10013.54
479.918	9866.09
480.122	9800.55
480.326	9931.62
480.531	9956.2
480.735	9810.79
480.94	9513.84
481.144	9859.95
481.348	9476.98
481.553	9632.62
481.757	9300.85
481.961	9505.65
482.166	9595.76
482.37	9321.33
482.574	9241.46
482.778	9282.42
482.983	9562.99
483.187	9327.47
483.391	9522.03
483.595	9233.27
483.8	9270.13
484.004	9493.36
484.208	9382.77
484.412	9350
484.616	9327.47
484.821	9366.39
485.025	9182.07
485.229	9257.84
485.433	9003.89
485.637	9233.27
485.841	9390.96
486.045	9229.17
486.249	9292.66
486.453	9243.51
486.657	9259.89
486.861	9223.03
487.065	9163.64
487.269	9096.05
487.473	9022.33
487.677	9091.96
487.881	9571.18
488.085	9200.5
488.289	9411.44
488.493	9204.6
488.697	9100.15
488.901	9366.39
489.105	9106.29
489.309	9206.64
489.512	9347.95
489.716	9116.53
489.92	9343.86
490.124	9202.55
490.328	9415.54
490.531	9259.89
490.735	9358.19
490.939	9350
491.143	9323.38
491.346	9235.32
491.55	9458.54
491.754	9452.4
491.958	9474.93
492.161	9515.89
492.365	9620.33
492.569	9544.56
492.772	9726.83
492.976	9714.54
493.18	9497.46
493.383	9636.72
493.587	9778.03
493.79	9999.21
493.994	9661.29
494.197	9974.63
494.401	9900.9
494.605	9874.28
494.808	10064.74
495.012	9984.87
495.215	10120.04
495.419	10234.72
495.622	10165.09
495.825	10279.78
496.029	10427.23
496.232	10335.07
496.436	10503.01
496.639	10677.09
496.843	10599.26
497.046	10693.47
497.249	10877.79
497.453	11170.65
497.656	10980.18
497.859	11113.3
498.063	11264.85
498.266	11326.29
498.469	11490.13
498.673	11440.98
498.876	11586.38
499.079	11891.53
499.282	11653.97
499.485	12032.84
499.689	12043.08
499.892	12030.79
500.095	12241.73
500.298	12424
500.501	12192.58
500.705	12559.17
500.908	12735.29
501.111	12897.08
501.314	12874.56
501.517	13226.81
501.72	13335.35
501.923	13159.22
502.126	13400.88
502.329	13593.39
502.532	13583.15
502.735	13689.65
502.938	14101.29
503.141	14232.36
503.344	14420.77
503.547	14381.86
503.75	14398.24
503.953	14588.71
504.156	14703.39
504.359	14940.96
504.562	15008.54
504.765	15444.76
504.968	15282.97
505.17	15715.09
505.373	15567.63
505.576	16032.52
505.779	15903.5
505.982	16294.66
506.185	16417.54
506.387	16487.17
506.59	16616.19
506.793	16988.92
506.996	16939.77
507.198	17494.77
507.401	17296.12
507.604	17486.58
507.807	17869.55
508.009	17771.25
508.212	18094.83
508.415	18244.33
508.617	18537.19
508.82	18361.06
509.022	18313.96
509.225	19055.33
509.428	18782.95
509.63	18985.69
509.833	19311.32
510.035	19696.34
510.238	19720.92
510.44	19552.98
510.643	19876.56
510.845	20144.84
511.048	20099.79
511.25	20599.49
511.453	20828.87
511.655	21471.93
511.858	21103.29
512.06	21676.73
512.262	21820.08
512.465	21598.9
512.667	21856.95
512.87	22026.93
513.072	22096.56
513.274	22536.87
513.477	22631.08
513.679	22776.48
513.881	23057.06
514.084	23577.24
514.286	23319.2
514.488	23337.63
514.69	24042.13
514.893	24212.11
515.095	24150.67
515.297	24277.65
515.499	24875.65
515.701	25098.88
515.904	25191.04
516.106	25547.39
516.308	25477.76
516.51	25858.68
516.712	25748.09
516.914	26131.06
517.116	26499.69
517.318	26452.59
517.52	26872.42
517.722	26853.99
517.925	26878.57
518.127	27345.5
518.329	27513.44
518.531	27132.51
518.733	27847.26
518.935	28117.59
519.136	27972.18
519.338	28232.27
519.54	28480.08
519.742	29100.61
519.944	28922.44
520.146	29424.19
520.348	29227.59
520.55	29315.65
520.752	29372.99
520.954	30157.36
521.155	30048.82
521.357	30157.36
521.559	30601.77
521.761	30779.95
521.963	30482.99
522.164	30992.94
522.366	30982.7
522.568	31156.77
522.77	31097.38
522.971	31472.16
523.173	31257.12
523.375	31695.39
523.576	31443.49
523.778	31703.58
523.98	31857.18
524.181	31969.82
524.383	31822.36
524.584	32580.11
524.786	32066.07
524.988	32322.07
525.189	32428.56
525.391	32602.64
525.592	32840.2
525.794	32795.15
525.995	33057.29
526.197	32942.6
526.398	32825.87
526.6	33073.67
526.801	32918.03
527.003	32889.35
527.204	32897.55
527.406	33131.01
527.607	33032.71
527.808	32963.08
528.01	32739.85
528.211	33196.55
528.412	33382.91
528.614	33511.94
528.815	33499.65
529.016	33612.29
529.218	32801.29
529.419	33001.99
529.62	33221.13
529.822	33270.28
530.023	33229.32
530.224	33096.2
530.425	32985.61
530.626	32807.44
530.828	32780.81
531.029	33235.46
531.23	32940.55
531.431	33065.48
531.632	33126.92
531.833	33006.09
532.035	33257.99
532.236	32899.59
532.437	32983.56
532.638	32418.32
532.839	33282.56
533.04	33286.66
533.241	32651.79
533.442	33022.47
533.643	33024.52
533.844	32709.13
534.045	32440.85
534.246	32576.01
534.447	32938.51
534.648	32469.52
534.849	32262.68
535.05	32373.27
535.251	31973.91
535.451	32092.69
535.652	32285.2
535.853	32416.27
536.054	32403.99
536.255	32520.72
536.456	31808.03
536.657	32813.58
536.857	32029.21
537.058	32008.73
537.259	32487.95
537.46	31820.31
537.66	31971.86
537.861	32107.03
538.062	31887.9
538.263	31820.31
538.463	31224.36
538.664	31799.83
538.865	31703.58
539.065	31685.15
539.266	31527.45
539.466	31984.15
539.667	31400.48
539.868	32064.02
540.068	31492.64
540.269	31582.75
540.469	31558.17
540.67	31484.45
540.87	31556.13
541.071	31466.02
541.271	31728.16
541.472	31394.34
541.672	31576.61
541.873	31433.25
542.073	30822.95
542.274	31558.17
542.474	31210.02
542.675	30984.74
542.875	31642.14
543.075	31197.73
543.276	30976.55
543.476	31265.31
543.676	30941.74
543.877	31062.57
544.077	31242.79
544.277	31273.51
544.478	30941.74
544.678	31148.58
544.878	31048.23
545.078	31500.83
545.279	31029.8
545.479	30855.72
545.679	31029.8
545.879	31052.33
546.079	30648.88
546.28	30761.51
546.48	30804.52
546.68	31156.77
546.88	31097.38
547.08	30777.9
547.28	31427.1
547.48	30745.13
547.68	31083.05
547.88	30796.33
548.081	31298.08
548.281	31205.92
548.481	31117.86
548.681	31169.06
548.881	31326.75
549.081	31091.24
549.28	30937.64
549.48	31255.08
549.68	30962.22
549.88	31547.93
550.08	30769.71
550.28	30976.55
550.48	31113.77
550.68	30990.89
550.88	30896.68
551.08	31044.13
551.279	31289.89
551.479	30607.92
551.679	31289.89
551.879	31316.51
552.079	31291.94
552.278	30945.83
552.478	31056.42
552.678	31384.1
552.878	31179.3
553.077	31246.88
553.277	31031.85
553.477	31480.35
553.676	30904.87
553.876	31070.76
554.076	31189.54
554.275	31113.77
554.475	31009.32
554.674	31523.36
554.874	31232.55
555.074	31218.21
555.273	31265.31
555.473	31369.76
555.672	31152.68
555.872	31324.71
556.071	31449.63
556.271	31855.13
556.47	31572.51
556.67	31011.37
556.869	31433.25
557.068	31750.68
557.268	31296.03
557.467	31416.86
557.667	31279.65
557.866	31713.82
558.065	31599.13
558.265	31435.3
558.464	31648.29
558.663	31617.57
558.863	31111.72
559.062	31971.86
559.261	31328.8
559.461	31738.4
559.66	31234.6
559.859	31900.19
560.058	31396.38
560.258	31449.63
560.457	31453.73
560.656	31787.55
560.855	31543.84
561.054	31470.11
561.253	31478.3
561.453	31302.18
561.652	31443.49
561.851	31572.51
562.05	31404.58
562.249	31388.19
562.448	31558.17
562.647	31343.14
562.846	31986.2
563.045	31429.15
563.244	31044.13
563.443	31656.48
563.642	31042.09
563.841	31552.03
564.04	31207.97
564.239	31433.25
564.438	30933.54
564.637	31140.39
564.836	31248.93
565.035	31287.84
565.234	31269.41
565.432	31171.11
565.631	31148.58
565.83	31263.27
566.029	31130.15
566.228	30990.89
566.427	30956.07
566.625	30683.69
566.824	30646.83
567.023	31054.37
567.222	30194.23
567.42	30794.28
567.619	30644.78
567.818	30562.86
568.016	30710.32
568.215	31095.33
568.414	30411.31
568.612	30685.74
568.811	30290.48
569.01	30349.87
569.208	29866.55
569.407	30722.6
569.605	29948.47
569.804	30364.21
570.002	30044.73
570.201	30009.91
570.4	29874.74
570.598	29862.46
570.797	29676.09
570.995	29702.71
571.193	29553.21
571.392	29692.47
571.59	29401.66
571.789	29528.64
571.987	29340.22
572.186	29258.31
572.384	29131.33
572.582	29026.89
572.781	29311.55
572.979	28908.1
573.177	29352.51
573.376	29080.13
573.574	29135.43
573.772	28707.4
573.971	28469.84
574.169	28295.76
574.367	28291.66
574.565	28654.15
574.763	28201.55
574.962	28150.35
575.16	27667.03
575.358	28271.18
575.556	27814.49
575.754	28047.96
575.952	28058.2
576.151	28072.53
576.349	27431.52
576.547	27372.13
576.745	27511.39
576.943	27841.11
577.141	27462.24
577.339	27349.6
577.537	27402.85
577.735	27093.6
577.933	27263.58
578.131	27314.78
578.329	26946.15
578.527	26739.3
578.725	26903.14
578.923	26997.35
579.121	27003.49
579.319	26823.27
579.516	26821.22
579.714	26667.63
579.912	26800.74
580.11	26575.47
580.308	26477.16
580.506	26444.4
580.704	25660.02
580.901	26397.29
581.099	26258.03
581.297	25807.48
581.495	25821.81
581.692	25954.93
581.89	25547.39
582.088	26139.25
582.285	25508.47
582.483	25692.79
582.681	25625.21
582.878	25430.65
583.076	25227.9
583.274	25520.76
583.471	25166.46
583.669	25506.43
583.866	25125.5
584.064	25414.27
584.262	24748.68
584.459	25221.76
584.657	24902.28
584.854	25135.74
585.052	24627.85
585.249	25117.31
585.447	25074.31
585.644	24539.79
585.841	24619.66
586.039	24830.6
586.236	24304.27
586.434	24521.35
586.631	24367.76
586.828	24412.81
587.026	24361.61
587.223	24345.23
587.42	23863.96
587.618	24101.52
587.815	24048.27
588.012	23798.42
588.21	24113.81
588.407	24248.97
588.604	23933.59
588.801	23675.54
588.999	23720.6
589.196	23634.58
589.393	23632.54
589.59	23567
589.787	23632.54
589.984	23067.3
590.182	23304.86
590.379	23485.08
590.576	23220.89
590.773	23227.04
590.97	23392.92
591.167	23540.38
591.364	23065.25
591.561	23503.51
591.758	23001.76
591.955	23290.52
592.152	23220.89
592.349	22778.53
592.546	23206.56
592.743	23190.17
592.94	22973.09
593.137	23126.69
593.334	22981.28
593.531	22686.37
593.727	22669.99
593.924	22749.86
594.121	22672.04
594.318	22803.11
594.515	22413.99
594.712	22735.53
594.908	22633.13
595.105	22817.44
595.302	22278.83
595.499	22842.02
595.696	22506.15
595.892	22493.86
596.089	22692.52
596.286	22551.21
596.482	22893.22
596.679	22645.41
596.876	22364.84
597.072	22305.45
597.269	22516.39
597.466	22125.23
597.662	22610.6
597.859	22397.61
598.055	22600.36
598.252	22405.8
598.448	22465.19
598.645	22512.3
598.841	22192.81
599.038	22618.79
599.234	22676.13
599.431	22500.01
599.627	22397.61
599.824	22766.24
600.02	22180.53
600.217	22520.49
600.413	22366.89
600.609	22321.84
600.806	22389.42
601.002	22737.57
601.198	22639.27
601.395	22545.06
601.591	22375.08
601.787	22807.2
601.984	22385.32
602.18	22794.92
602.376	22923.94
602.572	22520.49
602.769	22674.09
602.965	22368.94
603.161	22639.27
603.357	22655.65
603.553	22622.89
603.75	22919.84
603.946	22500.01
604.142	22868.64
604.338	22586.02
604.534	22936.23
604.73	22704.81
604.926	22624.93
605.122	22901.41
605.318	22991.52
605.514	23024.29
605.71	22860.45
605.906	22991.52
606.102	23265.95
606.298	23075.49
606.494	23079.58
606.69	23513.75
606.886	23388.83
607.082	23239.33
607.278	23388.83
607.474	23259.81
607.67	23587.48
607.866	23112.35
608.062	23523.99
608.257	23444.12
608.453	23306.91
608.649	23659.16
608.845	23089.82
609.041	23530.14
609.236	23728.79
609.432	23687.83
609.628	23868.05
609.824	23829.14
610.019	23687.83
610.215	24021.65
610.411	24128.14
610.606	23911.06
610.802	24255.12
610.998	24021.65
611.193	24031.89
611.389	24210.06
611.584	24179.34
611.78	24056.46
611.976	24093.33
612.171	24033.94
612.367	24003.22
612.562	24101.52
612.758	24042.13
612.953	24242.83
613.149	24619.66
613.344	24191.63
613.539	25062.02
613.735	24234.64
613.93	24517.26
614.126	24091.28
614.321	24595.08
614.517	24724.1
614.712	24660.62
614.907	24752.77
615.103	24736.39
615.298	24332.94
615.493	24799.88
615.688	24218.25
615.884	25043.59
616.079	24459.91
616.274	24701.58
616.47	24654.47
616.665	24797.83
616.86	24844.93
617.055	24816.26
617.25	24595.08
617.445	24881.8
617.641	24273.55
617.836	24386.19
618.031	24578.7
618.226	24484.49
618.421	24371.85
618.616	24601.22
618.811	24033.94
619.006	24404.62
619.201	24124.05
619.396	24384.14
619.591	23833.24
619.786	24496.78
619.981	23827.09
620.176	24474.25
620.371	23784.09
620.566	24072.85
620.761	23593.62
620.956	23857.81
621.151	23480.99
621.346	23446.17
621.541	23487.13
621.735	23810.71
621.93	23032.48
622.125	23329.44
622.32	22870.69
622.515	23378.59
622.709	22878.88
622.904	23159.45
623.099	22782.63
623.294	22786.72
623.488	22678.18
623.683	22633.13
623.878	22592.17
624.072	22844.07
624.267	22489.77
624.462	22510.25
624.656	21983.92
624.851	22219.44
625.046	21842.61
625.24	22123.18
625.435	21689.01
625.629	21926.58
625.824	21480.12
626.018	21584.57
626.213	21230.27
626.407	21240.51
626.602	21191.36
626.796	21115.58
626.991	21103.29
627.185	20783.81
627.38	20859.59
627.574	20851.39
627.768	20695.75
627.963	20763.33
628.157	20546.25
628.352	20392.65
628.546	20148.94
628.74	20482.76
628.935	19870.42
629.129	20155.08
629.323	19841.75
629.517	19540.69
629.712	19745.49
629.906	19679.96
630.1	19292.89
630.294	19374.81
630.489	19395.29
630.683	19229.4
630.877	19196.64
631.071	18825.95
631.265	19309.27
631.459	18971.36
631.653	19073.76
631.848	18754.27
632.042	18563.81
632.236	18762.47
632.43	18262.76
632.624	18473.7
632.818	18266.86
633.012	18023.15
633.206	18143.98
633.4	18277.1
633.594	17740.53
633.788	17978.09
633.982	17920.75
634.176	17593.08
634.369	17593.08
634.563	17525.49
634.757	17588.98
634.951	17515.25
635.145	17361.66
635.339	17279.74
635.533	17181.43
635.726	16970.49
635.92	16911.1
636.114	16796.42
636.308	16724.74
636.501	16841.47
636.695	16702.21
636.889	16376.58
637.083	16499.46
637.276	16311.05
637.47	16130.83
637.664	15936.27
637.857	16010
638.051	16075.53
638.244	15829.77
638.438	16087.82
638.632	15428.37
638.825	15700.75
639.019	15272.73
639.212	15469.33
639.406	15403.8
639.599	15192.86
639.793	15135.51
639.986	14893.85
640.18	15194.9
640.373	14887.71
640.567	14719.78
640.76	14830.37
640.954	14500.64
641.147	14760.73
641.34	14555.94
641.534	14299.94
641.727	14199.59
641.92	14439.2
642.114	14240.55
642.307	14076.71
642.5	13777.71
642.694	13579.06
642.887	13626.16
643.08	13771.57
643.273	13824.81
643.467	13667.12
643.66	13384.5
643.853	13028.15
644.046	13226.81
644.239	13177.65
644.432	13085.5
644.626	13067.06
644.819	12755.77
645.012	12890.94
645.205	12784.44
645.398	12950.33
645.591	12743.49
645.784	12663.61
645.977	12471.11
646.17	12553.02
646.363	12284.74
646.556	12186.44
646.749	12055.37
646.942	12294.98
647.135	12022.6
647.328	12106.57
647.521	12071.75
647.714	11801.42
647.907	11938.63
648.099	11680.59
648.292	11907.91
648.485	11627.34
648.678	11359.06
648.871	11541.33
649.064	11381.59
649.256	11352.91
649.449	11242.32
649.642	11004.76
649.835	11088.73
650.027	10906.46
650.22	11080.53
650.413	10849.11
650.605	10824.54
650.798	10709.85
650.991	10625.89
651.183	10791.77
651.376	10613.6
651.568	10627.93
651.761	10584.93
651.954	10400.61
652.146	10400.61
652.339	10279.78
652.531	10283.88
652.724	10142.57
652.916	10169.19
653.109	10011.5
653.301	10251.11
653.494	10077.03
653.686	9958.25
653.879	9988.97
654.071	9835.37
654.263	9735.02
654.456	9726.83
654.648	9517.93
654.84	9468.78
655.033	9710.44
655.225	9712.49
655.417	9411.44
655.61	9472.88
655.802	9565.04
655.994	9440.11
656.186	9110.39
656.379	9218.93
656.571	9218.93
656.763	9005.94
656.955	9196.4
657.148	9005.94
657.34	9020.28
657.532	9014.13
657.724	8899.45
657.916	8823.67
658.108	8770.43
658.3	8739.71
658.492	8772.47
658.684	8469.37
658.876	8565.63
659.068	8686.46
659.26	8530.81
659.452	8397.7
659.644	8422.27
659.836	8303.49
660.028	8326.02
660.22	8139.65
660.412	8235.91
660.604	8178.56
660.796	8362.88
660.988	8225.67
661.18	7871.37
661.372	7842.7
661.563	7748.49
661.755	7916.42
661.947	7910.28
662.139	7670.67
662.331	7629.71
662.522	7740.3
662.714	7549.84
662.906	7572.36
663.097	7564.17
663.289	7484.3
663.481	7318.42
663.673	7492.49
663.864	7529.36
664.056	7537.55
664.247	7437.2
664.439	7304.08
664.631	7404.43
664.822	7201.68
665.014	7381.9
665.205	7211.92
665.397	7082.9
665.588	7123.86
665.78	7007.13
665.971	6947.73
666.163	7009.17
666.354	7015.32
666.546	6757.27
666.737	6919.06
666.929	6880.15
667.12	6884.25
667.311	6847.38
667.503	6599.58
667.694	6785.94
667.885	6607.77
668.077	6505.37
668.268	6550.43
668.459	6450.08
668.651	6382.49
668.842	6392.73
669.033	6474.65
669.224	6413.21
669.416	6421.41
669.607	6384.54
669.798	6177.7
669.989	6359.97
670.18	6321.06
670.371	6280.1
670.563	6253.47
670.754	6155.17
670.945	6171.55
671.136	6312.86
671.327	6155.17
671.518	6003.62
671.709	6091.68
671.9	5987.24
672.091	5962.66
672.282	6122.4
672.473	5948.33
672.664	5981.09
672.855	5839.78
673.046	5815.21
673.237	5735.34
673.428	5823.4
673.619	5731.24
673.809	5829.54
674	5798.82
674.191	5663.66
674.382	5690.28
674.573	5649.32
674.764	5761.96
674.954	5577.64
675.145	5606.31
675.336	5528.49
675.527	5663.66
675.717	5596.07
675.908	5630.89
676.099	5497.77
676.289	5573.55
676.48	5639.08
676.671	5575.59
676.861	5649.32
677.052	5577.64
677.243	5501.87
677.433	5518.25
677.624	5671.85
677.814	5385.13
678.005	5458.86
678.195	5471.15
678.386	5376.94
678.576	5290.93
678.767	5227.44
678.957	5370.8
679.148	5344.17
679.338	5460.91
679.529	5317.55
679.719	5321.65
679.909	5430.19
680.1	5278.64
680.29	5360.56
680.481	5393.33
680.671	5368.75
680.861	5237.68
681.052	5270.45
681.242	5221.3
681.432	5272.5
681.622	5206.96
681.813	5229.49
682.003	5280.69
682.193	5063.6
682.383	5270.45
682.573	5098.42
682.764	5276.59
682.954	5116.85
683.144	5241.78
683.334	5163.95
683.524	5286.83
683.714	5307.31
683.904	5102.51
684.094	5172.15
684.284	5258.16
684.474	5172.15
684.664	5092.27
684.854	5100.47
685.044	5241.78
685.234	5028.79
685.424	5049.27
685.614	5059.51
685.804	5016.5
685.994	5147.57
686.184	5223.34
686.374	5024.69
686.564	5012.4
686.753	5090.23
686.943	4985.78
687.133	5209.01
687.323	4969.4
687.513	5018.55
687.702	4948.92
687.892	5098.42
688.082	4998.07
688.272	4967.35
688.461	4948.92
688.651	4944.82
688.841	4787.13
689.03	4809.65
689.22	4811.7
689.41	4873.14
689.599	4928.44
689.789	4914.1
689.979	4875.19
690.168	4811.7
690.358	4766.65
690.547	4740.02
690.737	4791.22
690.926	4834.23
691.116	4723.64
691.305	4838.33
691.495	4776.89
691.684	4713.4
691.874	4635.58
692.063	4715.45
692.252	4826.04
692.442	4680.63
692.631	4596.67
692.82	4625.34
693.01	4742.07
693.199	4629.43
693.388	4637.63
693.578	4645.82
693.767	4688.82
693.956	4627.39
694.146	4590.52
694.335	4565.95
694.524	4387.77
694.713	4504.51
694.902	4467.64
695.092	4494.27
695.281	4660.15
695.47	4588.47
695.659	4389.82
695.848	4561.85
696.037	4377.53
696.226	4340.67
696.415	4316.09
696.604	4494.27
696.793	4447.16
696.982	4445.12
697.171	4484.03
697.36	4570.04
697.549	4336.57
697.738	4322.24
697.927	4312
698.116	4221.89
698.305	4352.96
698.494	4340.67
698.683	4426.68
698.872	4236.22
699.061	4041.67
699.25	4146.11
699.438	4357.05
699.627	4324.29
699.816	4314.05
700.005	4172.74
700.193	4238.27
700.382	4230.08
700.571	4099.01
700.76	4189.12
700.948	4254.66
701.137	4240.32
701.326	4215.74
701.514	4045.76
701.703	4099.01
701.892	4062.15
702.08	4148.16
702.269	4131.78
702.457	4027.33
702.646	4008.9
702.834	3935.17
703.023	4189.12
703.212	4119.49
703.4	4002.75
703.589	3920.84
703.777	3986.37
703.965	3865.54
704.154	4062.15
704.342	3902.4
704.531	3896.26
704.719	3904.45
704.907	3890.12
705.096	3812.29
705.284	3959.75
705.472	3853.25
705.661	3797.96
705.849	3863.49
706.037	3818.44
706.226	3722.18
706.414	3804.1
706.602	3922.88
706.79	3685.32
706.979	3744.71
707.167	3881.92
707.355	3718.09
707.543	3740.61
707.731	3779.53
707.919	3867.59
708.107	3609.54
708.296	3599.31
708.484	3509.19
708.672	3615.69
708.86	3582.92
709.048	3599.31
709.236	3552.2
709.424	3627.98
709.612	3681.22
709.8	3652.55
709.988	3556.3
710.176	3664.84
710.364	3517.39
710.551	3519.43
710.739	3445.71
710.927	3482.57
711.115	3591.11
711.303	3509.19
711.491	3429.32
711.679	3527.63
711.866	3435.47
712.054	3544.01
712.242	3376.08
712.43	3345.36
712.617	3402.7
712.805	3259.34
712.993	3339.21
713.181	3263.44
713.368	3271.63
713.556	3341.26
713.744	3247.05
713.931	3402.7
714.119	3310.54
714.306	3351.5
714.494	3255.25
714.682	3189.71
714.869	3271.63
715.057	3230.67
715.244	3148.75
715.432	3320.78
715.619	3091.41
715.807	3175.38
715.994	3261.39
716.182	3214.29
716.369	3118.03
716.556	3173.33
716.744	3025.87
716.931	3001.3
717.119	3167.18
717.306	3144.66
717.493	2903
717.681	2935.76
717.868	3060.69
718.055	3099.6
718.242	2972.63
718.43	2964.43
718.617	2962.39
718.804	3066.83
718.991	3068.88
719.179	3058.64
719.366	2999.25
719.553	2937.81
719.74	2954.19
719.927	2980.82
720.114	2833.36
720.301	2884.56
720.488	2911.19
720.676	2800.6
720.863	2841.56
721.05	2960.34
721.237	2903
721.424	2898.9
721.611	2806.74
721.798	2855.89
721.985	2794.45
722.172	2743.25
722.358	2812.89
722.545	2796.5
722.732	2907.09
722.919	2667.48
723.106	2862.04
723.293	2765.78
723.48	2792.41
723.667	2743.25
723.853	2690.01
724.04	2634.71
724.227	2642.9
724.414	2706.39
724.6	2591.7
724.787	2618.33
724.974	2771.93
725.161	2556.89
725.347	2601.94
725.534	2665.43
725.72	2577.37
725.907	2642.9
726.094	2585.56
726.28	2530.27
726.467	2581.46
726.653	2624.47
726.84	2575.32
727.027	2624.47
727.213	2493.4
727.4	2589.66
727.586	2534.36
727.773	2511.83
727.959	2569.18
728.145	2485.21
728.332	2370.52
728.518	2370.52
728.705	2599.9
728.891	2583.51
729.077	2335.71
729.264	2505.69
729.45	2372.57
729.636	2487.26
729.823	2290.65
730.009	2517.98
730.195	2403.29
730.382	2444.25
730.568	2395.1
730.754	2403.29
730.94	2354.14
731.126	2434.01
731.313	2309.08
731.499	2345.95
731.685	2462.68
731.871	2444.25
732.057	2366.43
732.243	2436.06
732.429	2235.36
732.615	2286.56
732.801	2425.82
732.987	2337.76
733.173	2259.93
733.359	2253.79
733.545	2231.26
733.731	2210.78
733.917	2257.89
734.103	2405.34
734.289	2257.89
734.475	2272.22
734.661	2182.11
734.847	2280.41
735.033	2284.51
735.219	2223.07
735.404	2190.3
735.59	2102.24
735.776	2155.49
735.962	2313.18
736.148	2272.22
736.333	2190.3
736.519	2157.54
736.705	2173.92
736.89	2108.38
737.076	2135.01
737.262	2112.48
737.447	1922.02
737.633	2040.8
737.819	1979.36
738.004	2036.7
738.19	2040.8
738.375	2116.58
738.561	2149.34
738.747	2157.54
738.932	1981.41
739.118	2053.09
739.303	2135.01
739.489	2051.04
739.674	2008.03
739.859	1954.79
740.045	2046.94
740.23	2083.81
740.416	1909.73
740.601	2012.13
740.786	1940.45
740.972	1940.45
741.157	1917.92
741.342	1911.78
741.528	1872.87
741.713	1856.48
741.898	1928.16
742.084	1864.68
742.269	1842.15
742.454	1952.74
742.639	1962.98
742.824	1836
743.01	1887.2
743.195	1858.53
743.38	1919.97
743.565	1848.29
743.75	1997.79
743.935	1848.29
744.12	1879.01
744.305	1760.23
744.49	1795.04
744.675	1692.65
744.86	1702.89
745.045	1807.33
745.23	1749.99
745.415	1760.23
745.6	1698.79
745.785	1690.6
745.97	1586.15
746.155	1684.45
746.34	1733.61
746.525	1727.46
746.71	1788.9
746.895	1635.3
747.079	1666.02
747.264	1635.3
747.449	1612.78
747.634	1651.69
747.819	1717.22
748.003	1604.58
748.188	1442.79
748.373	1526.76
748.557	1749.99
748.742	1532.9
748.927	1600.49
749.111	1575.91
749.296	1584.1
749.481	1510.38
749.665	1461.23
749.85	1524.71
750.034	1549.29
750.219	1498.09
750.404	1485.8
750.588	1430.51
750.773	1444.84
750.957	1440.75
751.141	1469.42
751.326	1479.66
751.51	1436.65
751.695	1391.59
751.879	1389.55
752.064	1371.12
752.248	1354.73
752.432	1412.07
752.617	1381.35
752.801	1346.54
752.985	1362.92
753.17	1348.59
753.354	1358.83
753.538	1330.16
753.722	1268.72
753.907	1246.19
754.091	1264.62
754.275	1350.64
754.459	1192.94
754.643	1250.28
754.828	1233.9
755.012	1164.27
755.196	1248.24
755.38	1174.51
755.564	1215.47
755.748	1162.22
755.932	1227.76
756.116	1176.56
756.3	1244.14
756.484	1133.55
756.668	1205.23
756.852	1098.74
757.036	1125.36
757.22	1068.02
757.404	1190.89
757.588	1121.26
757.772	1194.99
757.956	1117.17
758.14	1231.85
758.323	1078.26
758.507	1018.86
758.691	982
758.875	1078.26
759.059	1170.41
759.242	1045.49
759.426	982
759.61	994.29
759.794	967.67
759.977	1037.3
760.161	1162.22
760.345	965.62
760.528	1025.01
760.712	969.71
760.895	994.29
761.079	994.29
761.263	941.04
761.446	822.26
761.63	873.46
761.813	928.75
761.997	949.23
762.18	918.51
762.364	992.24
762.547	908.27
762.731	906.23
762.914	904.18
763.098	879.6
763.281	904.18
763.464	912.37
763.648	949.23
763.831	879.6
764.015	826.36
764.198	963.57
764.381	824.31
764.564	936.95
764.748	900.08
764.931	941.04
765.114	881.65
765.297	848.88
765.481	879.6
765.664	891.89
765.847	809.97
766.03	945.14
766.213	805.88
766.397	844.79
766.58	855.03
766.763	822.26
766.946	889.84
767.129	826.36
767.312	777.2
767.495	840.69
767.678	826.36
767.861	900.08
768.044	883.7
768.227	773.11
768.41	838.64
768.593	871.41
768.776	836.6
768.959	805.88
769.142	793.59
769.324	732.15
769.507	879.6
769.69	769.01
769.873	822.26
770.056	834.55
770.239	785.4
770.421	846.84
770.604	781.3
770.787	769.01
770.97	838.64
771.152	769.01
771.335	719.86
771.518	777.2
771.7	789.49
771.883	707.57
772.066	728.05
772.248	781.3
772.431	732.15
772.613	783.35
772.796	683
772.978	773.11
773.161	707.57
773.343	707.57
773.526	752.63
773.708	754.68
773.891	678.9
774.073	691.19
774.256	666.61
774.438	666.61
774.621	691.19
774.803	750.58
774.985	674.81
775.168	697.33
775.35	603.13
775.532	654.33
775.715	670.71
775.897	670.71
776.079	654.33
776.261	601.08
776.444	584.7
776.626	637.94
776.808	572.41
776.99	594.93
777.173	637.94
777.355	637.94
777.537	629.75
777.719	625.65
777.901	594.93
778.083	596.98
778.265	601.08
778.447	603.13
778.629	496.63
778.811	603.13
778.993	685.05
779.175	547.83
779.357	556.02
779.539	576.5
779.721	529.4
779.903	592.89
780.085	590.84
780.267	545.78
780.449	537.59
780.631	580.6
780.812	584.7
780.994	527.35
781.176	470.01
781.358	429.05
781.54	521.21
781.721	459.77
781.903	607.22
782.085	578.55
782.267	537.59
782.448	416.76
782.63	551.93
782.812	510.97
782.993	494.58
783.175	498.68
783.357	431.1
783.538	533.5
783.72	433.15
783.901	486.39
784.083	451.58
784.264	463.86
784.446	357.37
784.627	433.15
784.809	584.7
784.99	381.95
785.172	455.67
785.353	431.1
785.535	447.48
785.716	390.14
785.897	347.13
786.079	437.24
786.26	377.85
786.441	424.95
786.623	424.95
786.804	412.67
786.985	422.91
787.167	437.24
787.348	381.95
787.529	455.67
787.71	486.39
787.891	396.28
788.073	371.71
788.254	330.75
788.435	420.86
788.616	355.32
788.797	285.69
788.978	349.18
789.159	308.22
789.34	371.71
789.522	379.9
789.703	334.84
789.884	289.79
790.065	314.36
790.246	412.67
790.427	304.12
790.607	355.32
790.788	283.64
790.969	297.98
791.15	420.86
791.331	300.03
791.512	297.98
791.693	300.03
791.874	332.79
792.054	416.76
792.235	306.17
792.416	318.46
792.597	343.03
792.778	338.94
792.958	281.6
793.139	330.75
793.32	336.89
793.5	265.21
793.681	379.9
793.862	322.56
794.042	338.94
794.223	216.06
794.404	363.51
794.584	168.96
794.765	361.47
794.945	187.39
795.126	326.65
795.306	297.98
795.487	240.64
795.667	265.21
795.848	289.79
796.028	224.25
796.209	314.36
796.389	345.08
796.57	150.53
796.75	203.77
796.93	248.83
797.111	257.02
797.291	257.02
797.471	291.84
797.652	244.73
797.832	226.3
798.012	340.99
798.192	154.62
798.373	142.33
798.553	195.58
798.733	216.06
798.913	238.59
799.093	257.02
799.274	234.49
799.454	191.49
799.634	269.31
799.814	175.1
799.994	285.69
800.174	257.02
800.354	281.6
800.534	201.72
800.714	207.87
800.894	316.41
801.074	162.81
801.254	193.53
801.434	234.49
801.614	257.02
801.794	84.99
801.974	902.13
802.154	195.58
802.334	232.44
802.514	314.36
802.693	185.34
802.873	191.49
803.053	216.06
803.233	175.1
803.413	218.11
803.592	281.6
803.772	199.68
803.952	257.02
804.131	142.33
804.311	197.63
804.491	265.21
804.67	185.34
804.85	199.68
805.03	183.29
805.209	171.01
805.389	160.77
805.568	201.72
805.748	142.33
805.928	261.12
806.107	156.67
806.287	171.01
806.466	181.25
806.646	265.21
806.825	187.39
807.004	216.06
807.184	158.72
807.363	154.62
807.543	216.06
807.722	142.33
807.901	168.96
808.081	250.88
808.26	117.76
808.439	171.01
808.619	209.92
808.798	203.77
808.977	146.43
809.156	123.9
809.336	152.57
809.515	179.2
809.694	117.76
809.873	183.29
810.052	179.2
810.231	228.35
810.411	150.53
810.59	142.33
810.769	171.01
810.948	130.05
811.127	101.37
811.306	152.57
811.485	97.28
811.664	117.76
811.843	162.81
812.022	109.57
812.201	103.42
812.38	144.38
812.559	136.19
812.737	164.86
812.916	76.8
813.095	117.76
813.274	136.19
813.453	121.85
813.632	111.61
813.811	248.83
813.989	93.18
814.168	226.3
814.347	101.37
814.526	185.34
814.704	162.81
814.883	68.61
815.062	64.51
815.24	125.95
815.419	125.95
815.598	199.68
815.776	109.57
815.955	158.72
816.133	68.61
816.312	166.91
816.49	183.29
816.669	142.33
816.847	113.66
817.026	117.76
817.204	164.86
817.383	64.51
817.561	111.61
817.74	111.61
817.918	162.81
818.097	154.62
818.275	125.95
818.453	35.84
818.632	136.19
818.81	76.8
818.988	15.36
819.167	105.47
819.345	109.57
819.523	19.46
819.701	138.24
819.879	109.57
820.058	97.28
820.236	183.29
820.414	39.94
820.592	74.75
820.77	35.84
820.948	50.18
821.127	68.61
821.305	191.49
821.483	76.8
821.661	99.33
821.839	66.56
822.017	62.46
822.195	99.33
822.373	119.81
822.551	21.5
822.729	97.28
822.907	123.9
823.085	158.72
823.262	95.23
823.44	80.89
823.618	78.85
823.796	70.65
823.974	56.32
824.152	52.22
824.329	82.94
824.507	107.52
824.685	56.32
824.863	76.8
825.04	87.04
825.218	101.37
825.396	99.33
825.574	119.81
825.751	101.37
825.929	146.43
826.107	-5.12
826.284	89.09
826.462	125.95
826.639	35.84
826.817	80.89
826.994	119.81
827.172	84.99
827.349	150.53
827.527	101.37
827.704	134.14
827.882	23.55
828.059	158.72
828.237	105.47
828.414	136.19
828.591	27.65
828.769	52.22
828.946	17.41
829.124	103.42
829.301	101.37
829.478	93.18
829.655	132.09
829.833	78.85
830.01	54.27
830.187	125.95
830.364	27.65
830.542	54.27
830.719	134.14
830.896	46.08
831.073	89.09
831.25	76.8
831.427	70.65
831.604	162.81
831.782	-3.07
831.959	101.37
832.136	-13.31
832.313	99.33
832.49	58.37
832.667	29.7
832.844	-13.31
833.021	222.2
833.198	64.51
833.374	39.94
833.551	103.42
833.728	111.61
833.905	13.31
834.082	56.32
834.259	52.22
834.436	72.7
834.612	93.18
834.789	103.42
834.966	11.26
835.143	117.76
835.319	68.61
835.496	3.07
835.673	101.37
835.85	111.61
836.026	84.99
836.203	89.09
836.38	66.56
836.556	89.09
836.733	-27.65
836.909	146.43
837.086	84.99
837.262	19.46
837.439	39.94
837.616	82.94
837.792	-3.07
837.968	87.04
838.145	54.27
838.321	5.12
838.498	74.75
838.674	68.61
838.851	93.18
839.027	56.32
839.203	64.51
839.38	54.27
839.556	-54.27
839.732	101.37
839.909	52.22
840.085	84.99
840.261	31.74
840.437	23.55
840.614	52.22
840.79	5.12
840.966	136.19
841.142	-25.6
841.318	76.8
841.494	56.32
841.671	35.84
841.847	50.18
842.023	48.13
842.199	113.66
842.375	117.76
842.551	5.12
842.727	-21.5
842.903	113.66
843.079	-9.22
843.255	125.95
843.431	-17.41
843.607	44.03
843.783	-25.6
843.959	60.42
844.134	37.89
844.31	46.08
844.486	52.22
844.662	21.5
844.838	80.89
845.013	87.04
845.189	54.27
845.365	103.42
845.541	68.61
845.716	5.12
845.892	3.07
846.068	58.37
846.244	-46.08
846.419	37.89
846.595	-50.18
846.77	31.74
846.946	19.46
847.122	54.27
847.297	13.31
847.473	15.36
847.648	27.65
847.824	-3.07
847.999	-29.7
848.175	66.56
848.35	60.42
848.526	35.84
848.701	138.24
848.876	76.8
849.052	-3.07
849.227	13.31
849.403	60.42
849.578	17.41
849.753	-29.7
849.929	72.7
850.104	1.02
850.279	103.42
850.454	31.74
850.63	-21.5
850.805	84.99
850.98	125.95
851.155	-48.13
851.33	93.18
851.505	48.13
851.681	125.95
851.856	9.22
852.031	68.61
852.206	27.65
852.381	-3.07
852.556	-3.07
852.731	-1.02
852.906	87.04
853.081	15.36
853.256	115.71
853.431	37.89
853.606	-9.22
853.781	93.18
853.956	11.26
854.131	72.7
854.305	-17.41
854.48	29.7
854.655	37.89
854.83	-27.65
855.005	44.03
855.18	11.26
855.354	-11.26
855.529	78.85
855.704	-3.07
855.879	56.32
856.053	31.74
856.228	11.26
856.403	31.74
856.577	31.74
856.752	44.03
856.926	33.79
857.101	37.89
857.276	-54.27
857.45	35.84
857.625	119.81
857.799	11.26
857.974	13.31
858.148	-74.75
858.323	35.84
858.497	44.03
858.672	-27.65
858.846	-1.02
859.02	37.89
859.195	23.55
859.369	-3.07
859.543	1.02
859.718	80.89
859.892	31.74
860.066	29.7
860.241	-27.65
860.415	56.32
860.589	-37.89
860.763	60.42
860.938	-62.46
861.112	46.08
861.286	27.65
861.46	117.76
861.634	27.65
861.808	80.89
861.982	-35.84
862.157	11.26
862.331	76.8
862.505	54.27
862.679	-46.08
862.853	-5.12
863.027	-11.26
863.201	66.56
863.375	-13.31
863.549	44.03
863.722	84.99
863.896	19.46
864.07	-5.12
864.244	-27.65
864.418	11.26
864.592	50.18
864.766	19.46
864.939	-48.13
865.113	39.94
865.287	3.07
865.461	11.26
865.634	39.94
865.808	-23.55
865.982	48.13
866.156	-44.03
866.329	1.02
866.503	-5.12
866.676	48.13
866.85	31.74
867.024	-48.13
867.197	5.12
867.371	46.08
867.544	-13.31
867.718	-37.89
867.891	23.55
868.065	44.03
868.238	27.65
868.412	60.42
868.585	33.79
868.759	21.5
868.932	-5.12
869.105	-27.65
869.279	-1.02
869.452	11.26
869.625	21.5
869.799	-1.02
869.972	-3.07
870.145	37.89
870.319	17.41
870.492	-54.27
870.665	15.36
870.838	11.26
871.011	-21.5
871.185	33.79
871.358	9.22
871.531	-27.65
871.704	-29.7
871.877	27.65
872.05	1.02
872.223	-17.41
872.396	19.46
872.569	-44.03
872.742	-15.36
872.915	23.55
873.088	-76.8
873.261	-50.18
873.434	44.03
873.607	35.84
873.78	-13.31
873.953	-46.08
874.126	21.5
874.299	35.84
874.471	23.55
874.644	-1.02
874.817	58.37
874.99	54.27
875.163	-35.84
875.335	31.74
875.508	-3.07
875.681	3.07
875.853	-13.31
876.026	68.61
876.199	-3.07
876.371	21.5
876.544	-23.55
876.717	11.26
876.889	33.79
877.062	11.26
877.234	-17.41
877.407	11.26
877.579	-21.5
877.752	13.31
877.924	44.03
878.097	111.61
878.269	35.84
878.442	44.03
878.614	-60.42
878.786	35.84
878.959	13.31
879.131	60.42
879.303	-70.65
879.476	84.99
879.648	37.89
879.82	-50.18
879.993	11.26
880.165	-46.08
880.337	84.99
880.509	-46.08
880.681	-19.46
880.854	-70.65
881.026	37.89
881.198	80.89
881.37	29.7
881.542	44.03
881.714	3.07
881.886	52.22
882.058	-68.61
882.23	7.17
882.402	52.22
882.574	-27.65
882.746	93.18
882.918	80.89
883.09	3.07
883.262	37.89
883.434	31.74
883.606	-1.02
883.778	-29.7
883.95	11.26
884.122	-52.22
884.293	-5.12
884.465	31.74
884.637	60.42
884.809	11.26
884.98	48.13
885.152	9.22
885.324	17.41
885.496	-62.46
885.667	-9.22
885.839	9.22
886.011	52.22
886.182	-21.5
886.354	-9.22
886.525	5.12
886.697	-13.31
886.869	-44.03
887.04	-13.31
887.212	87.04
887.383	115.71
887.555	31.74
887.726	3.07
887.897	-21.5
888.069	87.04
888.24	15.36
888.412	-13.31
888.583	44.03
888.754	-19.46
888.926	15.36
889.097	44.03
889.268	-56.32
889.44	39.94
889.611	-60.42
889.782	-15.36
889.953	44.03
890.125	29.7
890.296	41.98
890.467	-1.02
890.638	-37.89
890.809	-9.22
890.98	-29.7
891.151	-68.61
891.323	11.26
891.494	-1.02
891.665	68.61
891.836	-29.7
892.007	27.65
892.178	76.8
892.349	-33.79
892.52	29.7
892.691	7.17
892.862	27.65
893.032	7.17
893.203	27.65
893.374	-39.94
893.545	60.42
893.716	-60.42
893.887	13.31
894.057	-11.26
894.228	-5.12
894.399	-48.13
894.57	60.42
894.74	-11.26
894.911	11.26
895.082	-11.26
895.253	-74.75
895.423	-78.85
895.594	68.61
895.764	44.03
895.935	-23.55
896.106	19.46
896.276	-17.41
896.447	-37.89
896.617	17.41
896.788	-35.84
896.958	-54.27
897.129	9.22
897.299	-19.46
897.47	87.04
897.64	3.07
897.81	-87.04
897.981	-19.46
898.151	-44.03
898.322	64.51
898.492	27.65
898.662	-37.89
898.832	44.03
899.003	29.7
899.173	64.51
899.343	35.84
899.513	41.98
