Data from USB4F104151__307__14-35-02-745.txt Node

Date: Thu Mar 13 14:35:02 EDT 2025
User: louis
Spectrometer: USB4F10415
Trigger mode: 4
Integration Time (sec): 2.500000E-2
Scans to average: 1
Electric dark correction enabled: true
Nonlinearity correction enabled: false
Boxcar width: 0
XAxis mode: Wavelengths
Number of Pixels in Spectrum: 3648
>>>>>Begin Spectral Data<<<<<
178.204	-113.66
178.424	-113.66
178.644	-113.66
178.864	-222.2
179.084	-197.63
179.304	-19.46
179.524	-31.74
179.744	-58.37
179.964	23.55
180.184	-11.26
180.404	9.22
180.624	25.6
180.844	46.08
181.064	-11.26
181.283	-11.26
181.503	-1.02
181.723	39.94
181.943	-33.79
182.163	130.05
182.383	-35.84
182.602	56.32
182.822	76.8
183.042	-9.22
183.262	5.12
183.482	-41.98
183.701	-11.26
183.921	5.12
184.141	-17.41
184.361	-17.41
184.58	-84.99
184.8	56.32
185.02	29.7
185.239	5.12
185.459	-1.02
185.679	11.26
185.898	-113.66
186.118	39.94
186.338	9.22
186.557	113.66
186.777	39.94
186.997	25.6
187.216	5.12
187.436	66.56
187.655	-31.74
187.875	-19.46
188.095	37.89
188.314	56.32
188.534	62.46
188.753	-21.5
188.973	78.85
189.192	80.89
189.412	-9.22
189.631	-35.84
189.851	62.46
190.07	128
190.29	-21.5
190.509	-31.74
190.729	15.36
190.948	-1.02
191.168	130.05
191.387	56.32
191.607	-62.46
191.826	-13.31
192.045	-41.98
192.265	-27.65
192.484	-9.22
192.704	78.85
192.923	-54.27
193.142	46.08
193.362	48.13
193.581	95.23
193.8	74.75
194.02	-17.41
194.239	-9.22
194.458	48.13
194.678	-107.52
194.897	-11.26
195.116	25.6
195.335	-11.26
195.555	-19.46
195.774	-3.07
195.993	17.41
196.212	93.18
196.432	-29.7
196.651	-27.65
196.87	-5.12
197.089	119.81
197.308	15.36
197.528	-7.17
197.747	-29.7
197.966	29.7
198.185	70.65
198.404	5.12
198.623	44.03
198.842	-3.07
199.062	-27.65
199.281	74.75
199.5	33.79
199.719	70.65
199.938	7.17
200.157	62.46
200.376	-25.6
200.595	17.41
200.814	-41.98
201.033	25.6
201.252	21.5
201.471	31.74
201.69	-21.5
201.909	29.7
202.128	33.79
202.347	95.23
202.566	15.36
202.785	-11.26
203.004	21.5
203.223	130.05
203.442	17.41
203.661	-15.36
203.879	-27.65
204.098	56.32
204.317	46.08
204.536	5.12
204.755	-11.26
204.974	103.42
205.193	97.28
205.411	-11.26
205.63	-9.22
205.849	-82.94
206.068	-60.42
206.287	-1.02
206.505	54.27
206.724	-19.46
206.943	27.65
207.162	-1.02
207.381	-11.26
207.599	-41.98
207.818	35.84
208.037	-11.26
208.255	-19.46
208.474	25.6
208.693	56.32
208.911	23.55
209.13	13.31
209.349	13.31
209.567	39.94
209.786	23.55
210.005	64.51
210.223	19.46
210.442	-31.74
210.661	46.08
210.879	-23.55
211.098	-17.41
211.316	-27.65
211.535	97.28
211.753	66.56
211.972	50.18
212.191	-21.5
212.409	13.31
212.628	74.75
212.846	-11.26
213.065	-21.5
213.283	54.27
213.502	9.22
213.72	-1.02
213.938	-3.07
214.157	-19.46
214.375	29.7
214.594	-5.12
214.812	48.13
215.031	-33.79
215.249	54.27
215.467	13.31
215.686	-7.17
215.904	128
216.122	-1.02
216.341	15.36
216.559	-31.74
216.778	78.85
216.996	15.36
217.214	33.79
217.432	9.22
217.651	29.7
217.869	7.17
218.087	17.41
218.306	31.74
218.524	39.94
218.742	62.46
218.96	-19.46
219.179	9.22
219.397	-7.17
219.615	130.05
219.833	-3.07
220.051	21.5
220.27	44.03
220.488	-9.22
220.706	29.7
220.924	-41.98
221.142	-31.74
221.36	9.22
221.578	-1.02
221.796	5.12
222.015	25.6
222.233	13.31
222.451	46.08
222.669	-44.03
222.887	54.27
223.105	-27.65
223.323	31.74
223.541	-76.8
223.759	-9.22
223.977	41.98
224.195	9.22
224.413	-52.22
224.631	-11.26
224.849	50.18
225.067	91.13
225.285	17.41
225.503	-35.84
225.721	-5.12
225.939	-3.07
226.157	-27.65
226.375	87.04
226.592	3.07
226.81	-3.07
227.028	25.6
227.246	46.08
227.464	-66.56
227.682	-3.07
227.9	-7.17
228.117	66.56
228.335	-50.18
228.553	-23.55
228.771	-7.17
228.989	-17.41
229.206	-19.46
229.424	-84.99
229.642	-19.46
229.86	31.74
230.077	17.41
230.295	64.51
230.513	64.51
230.731	17.41
230.948	95.23
231.166	62.46
231.384	-13.31
231.601	-70.65
231.819	89.09
232.037	5.12
232.254	1.02
232.472	-9.22
232.689	9.22
232.907	76.8
233.125	1.02
233.342	-60.42
233.56	-29.7
233.777	7.17
233.995	-7.17
234.213	56.32
234.43	-50.18
234.648	-21.5
234.865	3.07
235.083	-1.02
235.3	-60.42
235.518	-1.02
235.735	-3.07
235.953	87.04
236.17	27.65
236.388	-1.02
236.605	-3.07
236.822	62.46
237.04	64.51
237.257	23.55
237.475	-66.56
237.692	-15.36
237.909	-17.41
238.127	-11.26
238.344	68.61
238.562	-64.51
238.779	-21.5
238.996	70.65
239.214	62.46
239.431	13.31
239.648	-19.46
239.865	-17.41
240.083	13.31
240.3	21.5
240.517	21.5
240.735	5.12
240.952	-3.07
241.169	21.5
241.386	25.6
241.603	13.31
241.821	15.36
242.038	-35.84
242.255	-13.31
242.472	-60.42
242.689	66.56
242.907	44.03
243.124	-3.07
243.341	50.18
243.558	46.08
243.775	41.98
243.992	-39.94
244.209	29.7
244.426	82.94
244.643	-35.84
244.86	48.13
245.078	7.17
245.295	-29.7
245.512	1.02
245.729	-35.84
245.946	72.7
246.163	76.8
246.38	-17.41
246.597	29.7
246.814	-3.07
247.031	5.12
247.248	37.89
247.464	31.74
247.681	-3.07
247.898	29.7
248.115	5.12
248.332	-52.22
248.549	37.89
248.766	78.85
248.983	29.7
249.2	-60.42
249.417	-33.79
249.633	-3.07
249.85	-3.07
250.067	-19.46
250.284	19.46
250.501	-29.7
250.717	5.12
250.934	-39.94
251.151	-11.26
251.368	13.31
251.585	37.89
251.801	37.89
252.018	-11.26
252.235	50.18
252.451	-44.03
252.668	1.02
252.885	5.12
253.102	21.5
253.318	46.08
253.535	-66.56
253.752	23.55
253.968	-35.84
254.185	-33.79
254.401	-19.46
254.618	13.31
254.835	9.22
255.051	-1.02
255.268	29.7
255.484	64.51
255.701	48.13
255.917	89.09
256.134	64.51
256.351	-44.03
256.567	-76.8
256.784	29.7
257	-50.18
257.217	-35.84
257.433	7.17
257.65	60.42
257.866	99.33
258.082	-27.65
258.299	-54.27
258.515	72.7
258.732	-7.17
258.948	-29.7
259.165	17.41
259.381	-35.84
259.597	-58.37
259.814	-7.17
260.03	41.98
260.246	-15.36
260.463	-3.07
260.679	58.37
260.895	-19.46
261.112	89.09
261.328	15.36
261.544	-1.02
261.761	56.32
261.977	-64.51
262.193	5.12
262.409	1.02
262.626	-17.41
262.842	-33.79
263.058	-70.65
263.274	48.13
263.49	15.36
263.707	-35.84
263.923	-39.94
264.139	37.89
264.355	-25.6
264.571	54.27
264.787	-35.84
265.004	-15.36
265.22	95.23
265.436	-17.41
265.652	-9.22
265.868	37.89
266.084	-39.94
266.3	-35.84
266.516	-3.07
266.732	31.74
266.948	19.46
267.164	-9.22
267.38	-23.55
267.596	15.36
267.812	82.94
268.028	-17.41
268.244	-33.79
268.46	-1.02
268.676	-15.36
268.892	64.51
269.108	-48.13
269.324	-68.61
269.54	-50.18
269.756	39.94
269.972	17.41
270.188	13.31
270.403	-119.81
270.619	21.5
270.835	25.6
271.051	48.13
271.267	7.17
271.483	41.98
271.698	-74.75
271.914	-39.94
272.13	-33.79
272.346	-44.03
272.562	19.46
272.777	74.75
272.993	41.98
273.209	66.56
273.425	-17.41
273.64	1.02
273.856	48.13
274.072	33.79
274.287	-58.37
274.503	48.13
274.719	-11.26
274.934	-33.79
275.15	-70.65
275.366	-19.46
275.581	-9.22
275.797	37.89
276.012	-52.22
276.228	1.02
276.444	-66.56
276.659	78.85
276.875	-21.5
277.09	-7.17
277.306	39.94
277.521	33.79
277.737	-11.26
277.952	31.74
278.168	9.22
278.383	-25.6
278.599	-3.07
278.814	72.7
279.03	74.75
279.245	60.42
279.461	-19.46
279.676	87.04
279.892	-44.03
280.107	-15.36
280.322	13.31
280.538	21.5
280.753	60.42
280.969	21.5
281.184	19.46
281.399	76.8
281.615	-27.65
281.83	21.5
282.045	-41.98
282.26	1.02
282.476	-11.26
282.691	78.85
282.906	-41.98
283.122	-3.07
283.337	-35.84
283.552	89.09
283.767	15.36
283.983	82.94
284.198	21.5
284.413	29.7
284.628	-11.26
284.843	-19.46
285.058	58.37
285.274	84.99
285.489	9.22
285.704	46.08
285.919	-44.03
286.134	37.89
286.349	46.08
286.564	-66.56
286.779	62.46
286.995	123.9
287.21	-68.61
287.425	-19.46
287.64	33.79
287.855	11.26
288.07	-5.12
288.285	56.32
288.5	39.94
288.715	9.22
288.93	21.5
289.145	-23.55
289.36	105.47
289.575	29.7
289.79	-31.74
290.004	56.32
290.219	95.23
290.434	-7.17
290.649	-39.94
290.864	-3.07
291.079	-31.74
291.294	29.7
291.509	52.22
291.724	-54.27
291.938	29.7
292.153	56.32
292.368	41.98
292.583	-11.26
292.798	21.5
293.012	62.46
293.227	-21.5
293.442	-31.74
293.657	13.31
293.871	27.65
294.086	25.6
294.301	82.94
294.516	-29.7
294.73	-15.36
294.945	37.89
295.16	29.7
295.374	3.07
295.589	70.65
295.804	60.42
296.018	-23.55
296.233	78.85
296.447	9.22
296.662	-9.22
296.877	9.22
297.091	37.89
297.306	13.31
297.52	56.32
297.735	46.08
297.949	9.22
298.164	64.51
298.378	-35.84
298.593	-54.27
298.807	15.36
299.022	54.27
299.236	87.04
299.451	-33.79
299.665	-3.07
299.88	48.13
300.094	17.41
300.309	1.02
300.523	41.98
300.737	-11.26
300.952	62.46
301.166	-17.41
301.381	-11.26
301.595	-33.79
301.809	-31.74
302.024	11.26
302.238	15.36
302.452	21.5
302.667	-76.8
302.881	66.56
303.095	107.52
303.309	37.89
303.524	-35.84
303.738	-15.36
303.952	-9.22
304.166	54.27
304.381	-54.27
304.595	44.03
304.809	-15.36
305.023	50.18
305.237	-25.6
305.452	15.36
305.666	17.41
305.88	89.09
306.094	13.31
306.308	70.65
306.522	46.08
306.736	48.13
306.95	5.12
307.164	54.27
307.379	-37.89
307.593	80.89
307.807	56.32
308.021	44.03
308.235	15.36
308.449	5.12
308.663	-68.61
308.877	168.96
309.091	109.57
309.305	15.36
309.519	-11.26
309.733	25.6
309.947	29.7
310.161	9.22
310.374	-33.79
310.588	115.71
310.802	-7.17
311.016	-3.07
311.23	56.32
311.444	-39.94
311.658	84.99
311.872	58.37
312.085	-17.41
312.299	35.84
312.513	50.18
312.727	1.02
312.941	-1.02
313.154	-11.26
313.368	-13.31
313.582	89.09
313.796	-41.98
314.009	44.03
314.223	95.23
314.437	1.02
314.651	-35.84
314.864	-9.22
315.078	-7.17
315.292	48.13
315.505	-3.07
315.719	97.28
315.933	-11.26
316.146	15.36
316.36	-27.65
316.573	64.51
316.787	119.81
317.001	-1.02
317.214	-52.22
317.428	-48.13
317.641	-44.03
317.855	-3.07
318.068	-7.17
318.282	21.5
318.495	128
318.709	25.6
318.922	5.12
319.136	89.09
319.349	29.7
319.563	48.13
319.776	5.12
319.99	-19.46
320.203	7.17
320.417	25.6
320.63	21.5
320.843	103.42
321.057	-7.17
321.27	-41.98
321.483	41.98
321.697	5.12
321.91	-64.51
322.124	41.98
322.337	13.31
322.55	70.65
322.763	48.13
322.977	56.32
323.19	-89.09
323.403	17.41
323.617	37.89
323.83	56.32
324.043	41.98
324.256	87.04
324.469	-70.65
324.683	70.65
324.896	23.55
325.109	70.65
325.322	13.31
325.535	78.85
325.748	13.31
325.962	17.41
326.175	5.12
326.388	9.22
326.601	84.99
326.814	-66.56
327.027	46.08
327.24	56.32
327.453	-93.18
327.666	37.89
327.879	58.37
328.092	-19.46
328.305	56.32
328.518	5.12
328.731	78.85
328.944	54.27
329.157	56.32
329.37	5.12
329.583	62.46
329.796	78.85
330.009	-25.6
330.222	27.65
330.435	13.31
330.648	17.41
330.861	13.31
331.073	-11.26
331.286	70.65
331.499	-33.79
331.712	-31.74
331.925	-56.32
332.138	-21.5
332.35	39.94
332.563	5.12
332.776	68.61
332.989	-5.12
333.202	31.74
333.414	15.36
333.627	91.13
333.84	-1.02
334.053	-1.02
334.265	-52.22
334.478	31.74
334.691	-15.36
334.903	66.56
335.116	13.31
335.329	56.32
335.541	25.6
335.754	37.89
335.966	-25.6
336.179	-33.79
336.392	64.51
336.604	54.27
336.817	21.5
337.029	27.65
337.242	41.98
337.454	84.99
337.667	-11.26
337.88	62.46
338.092	-5.12
338.305	-11.26
338.517	9.22
338.729	17.41
338.942	39.94
339.154	-39.94
339.367	-11.26
339.579	-31.74
339.792	17.41
340.004	21.5
340.217	-44.03
340.429	-11.26
340.641	13.31
340.854	13.31
341.066	25.6
341.278	82.94
341.491	37.89
341.703	-7.17
341.915	-80.89
342.128	31.74
342.34	74.75
342.552	-46.08
342.764	-33.79
342.977	-33.79
343.189	113.66
343.401	13.31
343.613	9.22
343.826	-1.02
344.038	56.32
344.25	-41.98
344.462	13.31
344.674	-3.07
344.886	5.12
345.099	41.98
345.311	13.31
345.523	-33.79
345.735	13.31
345.947	-19.46
346.159	39.94
346.371	-19.46
346.583	50.18
346.795	46.08
347.007	66.56
347.219	-3.07
347.431	-19.46
347.643	23.55
347.855	-35.84
348.067	21.5
348.279	-27.65
348.491	-31.74
348.703	78.85
348.915	89.09
349.127	-35.84
349.339	68.61
349.551	-11.26
349.763	80.89
349.975	5.12
350.187	52.22
350.399	66.56
350.61	-31.74
350.822	31.74
351.034	21.5
351.246	3.07
351.458	37.89
351.669	60.42
351.881	97.28
352.093	-27.65
352.305	78.85
352.517	46.08
352.728	31.74
352.94	31.74
353.152	46.08
353.363	-19.46
353.575	82.94
353.787	41.98
353.999	78.85
354.21	66.56
354.422	25.6
354.633	-33.79
354.845	70.65
355.057	-31.74
355.268	54.27
355.48	56.32
355.692	15.36
355.903	23.55
356.115	-15.36
356.326	-68.61
356.538	25.6
356.749	91.13
356.961	87.04
357.172	62.46
357.384	-52.22
357.595	113.66
357.807	-3.07
358.018	-21.5
358.23	56.32
358.441	103.42
358.653	25.6
358.864	-27.65
359.075	-3.07
359.287	-7.17
359.498	78.85
359.709	21.5
359.921	13.31
360.132	29.7
360.344	33.79
360.555	-48.13
360.766	5.12
360.977	13.31
361.189	119.81
361.4	37.89
361.611	27.65
361.823	37.89
362.034	62.46
362.245	-7.17
362.456	-3.07
362.667	23.55
362.879	25.6
363.09	41.98
363.301	-7.17
363.512	48.13
363.723	-33.79
363.935	-9.22
364.146	70.65
364.357	29.7
364.568	31.74
364.779	-11.26
364.99	58.37
365.201	37.89
365.412	70.65
365.623	-68.61
365.834	62.46
366.045	-33.79
366.256	80.89
366.467	91.13
366.678	-41.98
366.889	31.74
367.1	56.32
367.311	37.89
367.522	46.08
367.733	33.79
367.944	74.75
368.155	21.5
368.366	111.61
368.577	39.94
368.788	52.22
368.999	41.98
369.209	-25.6
369.42	25.6
369.631	113.66
369.842	74.75
370.053	-50.18
370.264	33.79
370.474	54.27
370.685	56.32
370.896	25.6
371.107	70.65
371.317	13.31
371.528	62.46
371.739	37.89
371.95	103.42
372.16	27.65
372.371	-9.22
372.582	5.12
372.792	64.51
373.003	41.98
373.214	99.33
373.424	48.13
373.635	-9.22
373.846	56.32
374.056	13.31
374.267	58.37
374.477	87.04
374.688	-7.17
374.898	17.41
375.109	-17.41
375.319	5.12
375.53	87.04
375.74	41.98
375.951	62.46
376.161	19.46
376.372	60.42
376.582	21.5
376.793	46.08
377.003	-74.75
377.214	39.94
377.424	1.02
377.635	82.94
377.845	25.6
378.055	80.89
378.266	-11.26
378.476	72.7
378.686	11.26
378.897	-1.02
379.107	37.89
379.317	17.41
379.528	33.79
379.738	70.65
379.948	7.17
380.158	93.18
380.369	3.07
380.579	62.46
380.789	-41.98
380.999	70.65
381.21	-11.26
381.42	136.19
381.63	-13.31
381.84	46.08
382.05	72.7
382.261	56.32
382.471	19.46
382.681	33.79
382.891	101.37
383.101	50.18
383.311	7.17
383.521	50.18
383.731	78.85
383.941	58.37
384.151	44.03
384.361	-13.31
384.571	46.08
384.781	52.22
384.991	62.46
385.201	99.33
385.411	70.65
385.621	3.07
385.831	46.08
386.041	62.46
386.251	-21.5
386.461	103.42
386.671	-3.07
386.881	-1.02
387.091	29.7
387.301	140.29
387.511	46.08
387.72	23.55
387.93	84.99
388.14	70.65
388.35	44.03
388.56	56.32
388.769	66.56
388.979	72.7
389.189	78.85
389.399	44.03
389.609	70.65
389.818	60.42
390.028	5.12
390.238	82.94
390.447	5.12
390.657	46.08
390.867	46.08
391.076	29.7
391.286	48.13
391.496	29.7
391.705	-23.55
391.915	123.9
392.125	29.7
392.334	87.04
392.544	87.04
392.753	89.09
392.963	-11.26
393.172	41.98
393.382	29.7
393.591	136.19
393.801	21.5
394.01	162.81
394.22	121.85
394.429	107.52
394.639	7.17
394.848	46.08
395.058	54.27
395.267	64.51
395.477	33.79
395.686	103.42
395.895	150.53
396.105	123.9
396.314	128
396.524	62.46
396.733	103.42
396.942	87.04
397.152	13.31
397.361	21.5
397.57	82.94
397.78	95.23
397.989	23.55
398.198	103.42
398.407	136.19
398.617	87.04
398.826	54.27
399.035	23.55
399.244	56.32
399.453	99.33
399.663	103.42
399.872	64.51
400.081	66.56
400.29	136.19
400.499	70.65
400.708	128
400.917	111.61
401.127	144.38
401.336	128
401.545	121.85
401.754	144.38
401.963	66.56
402.172	103.42
402.381	87.04
402.59	154.62
402.799	162.81
403.008	162.81
403.217	195.58
403.426	128
403.635	107.52
403.844	164.86
404.053	56.32
404.262	168.96
404.471	136.19
404.68	185.34
404.888	162.81
405.097	146.43
405.306	189.44
405.515	132.09
405.724	148.48
405.933	89.09
406.142	152.57
406.35	189.44
406.559	136.19
406.768	193.53
406.977	246.78
407.185	193.53
407.394	216.06
407.603	193.53
407.812	207.87
408.02	209.92
408.229	314.36
408.438	304.12
408.646	291.84
408.855	324.6
409.064	304.12
409.272	287.74
409.481	269.31
409.69	297.98
409.898	373.75
410.107	263.16
410.315	383.99
410.524	338.94
410.733	379.9
410.941	349.18
411.15	455.67
411.358	365.56
411.567	431.1
411.775	451.58
411.984	533.5
412.192	541.69
412.401	496.63
412.609	574.46
412.818	627.7
413.026	619.51
413.234	594.93
413.443	582.65
413.651	670.71
413.86	635.89
414.068	652.28
414.276	775.16
414.485	709.62
414.693	801.78
414.901	908.27
415.11	816.12
415.318	902.13
415.526	910.32
415.734	873.46
415.943	973.81
416.151	971.76
416.359	988.14
416.567	1135.6
416.776	1061.87
416.984	1172.46
417.192	1182.7
417.4	1147.89
417.608	1276.91
417.817	1176.56
418.025	1326.06
418.233	1475.56
418.441	1274.86
418.649	1465.32
418.857	1627.11
419.065	1670.12
419.273	1522.66
419.481	1694.69
419.689	1842.15
419.897	1833.96
420.105	1854.44
420.313	1887.2
420.521	2089.95
420.729	2036.7
420.937	2053.09
421.145	2114.53
421.353	2128.86
421.561	2479.07
421.769	2405.34
421.977	2495.45
422.185	2391
422.393	2651.1
422.601	2833.36
422.809	2814.93
423.017	2831.32
423.224	2825.17
423.432	3107.79
423.64	3115.98
423.848	3353.55
424.056	3322.83
424.263	3488.71
424.471	3511.24
424.679	3664.84
424.887	3720.14
425.094	3834.82
425.302	4088.77
425.51	4174.78
425.718	4191.17
425.925	4205.5
426.133	4174.78
426.341	4641.72
426.548	4746.17
426.756	4819.89
426.964	4965.3
427.171	5120.95
427.379	5366.7
427.586	5462.96
427.794	5485.48
428.001	5858.21
428.209	5847.97
428.417	5968.8
428.624	6411.17
428.832	6314.91
429.039	6599.58
429.247	6280.1
429.454	6949.78
429.662	7273.36
429.869	6869.91
430.076	7463.82
430.284	7115.67
430.491	7592.84
430.699	7926.66
430.906	7869.32
431.114	7992.2
431.321	8391.55
431.528	8496
431.736	9051
431.943	9462.64
432.15	9188.21
432.358	9255.79
432.565	9767.79
432.772	9714.54
432.979	10285.92
433.187	10535.78
433.394	10408.8
433.601	11107.16
433.808	11148.12
434.016	11227.99
434.223	11567.95
434.43	12381
434.637	12006.22
434.844	13058.87
435.052	12935.99
435.259	12923.71
435.466	13050.68
435.673	13005.63
435.88	13861.68
436.087	14508.83
436.294	14431.01
436.501	14213.93
436.708	14373.67
436.915	14906.14
437.122	15565.59
437.329	15442.71
437.537	15952.65
437.743	16128.78
437.95	16282.38
438.157	17013.5
438.364	17363.7
438.571	17152.76
438.778	17468.15
438.985	18985.69
439.192	18430.69
439.399	19022.56
439.606	18569.96
439.813	19739.35
440.02	20994.75
440.227	20480.71
440.433	19874.51
440.64	20943.55
440.847	20777.67
441.054	21277.37
441.261	22866.6
441.467	22147.76
441.674	22655.65
441.881	23712.41
442.088	23382.68
442.294	23532.18
442.501	23816.85
442.708	24271.5
442.914	25543.29
443.121	26305.13
443.328	25522.81
443.534	27421.28
443.741	26708.58
443.948	26301.04
444.154	28275.28
444.361	27867.73
444.568	28514.89
444.774	27955.8
444.981	28660.3
445.187	29358.66
445.394	30472.75
445.6	30569.01
445.807	33276.42
446.013	31586.85
446.22	32059.93
446.426	33401.35
446.633	34114.04
446.839	35009
447.046	33536.51
447.252	35400.16
447.459	35588.58
447.665	35260.9
447.871	36743.63
448.078	38209.98
448.284	36780.49
448.491	37720.51
448.697	38967.73
448.903	39709.09
449.11	39657.89
449.316	39137.71
449.522	39807.39
449.728	41021.84
449.935	41154.96
450.141	41208.2
450.347	42031.49
450.553	40645.01
450.76	41460.1
450.966	42436.98
451.172	41908.61
451.378	43405.67
451.584	42049.92
451.791	43125.1
451.997	43473.26
452.203	44054.88
452.409	43958.63
452.615	43645.29
452.821	41732.48
453.027	41335.18
453.233	43680.1
453.44	42377.59
453.646	42275.19
453.852	42836.34
454.058	43377
454.264	41961.86
454.47	43137.39
454.676	41755.01
454.882	43446.63
455.088	40016.29
455.294	40565.14
455.5	40972.69
455.705	40968.59
455.911	39778.72
456.117	38769.07
456.323	38453.69
456.529	36284.89
456.735	38171.07
456.941	37061.07
457.147	36440.53
457.352	35426.79
457.558	34771.44
457.764	35240.42
457.97	34535.92
458.176	33546.75
458.381	33577.47
458.587	32045.59
458.793	31935
458.999	30327.35
459.204	32246.29
459.41	31898.14
459.616	29524.54
459.821	28914.25
460.027	29133.38
460.233	28754.51
460.438	27275.87
460.644	27681.37
460.85	26143.35
461.055	25891.44
461.261	25983.6
461.466	24050.32
461.672	23003.81
461.878	24918.66
462.083	23098.02
462.289	22561.45
462.494	22553.26
462.7	21205.69
462.905	20728.52
463.111	21484.22
463.316	21500.6
463.522	21172.92
463.727	21131.97
463.932	20839.11
464.138	20796.1
464.343	21263.04
464.549	20155.08
464.754	20968.13
464.959	20986.56
465.165	20454.09
465.37	19800.79
465.575	19473.11
465.781	19872.46
465.986	19944.14
466.191	19319.51
466.397	18920.16
466.602	17976.05
466.807	18768.61
467.012	18680.55
467.218	18598.63
467.423	18207.47
467.628	18373.35
467.833	19337.94
468.038	18146.03
468.244	18027.24
468.449	18408.17
468.654	17781.49
468.859	17664.75
469.064	17683.19
469.269	17134.33
469.474	16978.68
469.679	17392.37
469.885	16782.08
470.09	17318.65
470.295	17079.04
470.5	16487.17
470.705	16986.88
470.91	16290.57
471.115	16237.32
471.32	16675.59
471.525	16311.05
471.73	16098.06
471.935	15889.17
472.139	15317.78
472.344	15661.84
472.549	15174.42
472.754	15104.79
472.959	14986.01
473.164	14570.27
473.369	14549.79
473.574	15069.98
473.778	14734.11
473.983	14580.51
474.188	14557.99
474.393	14111.53
474.598	14168.87
474.802	13566.77
475.007	13611.82
475.212	13763.37
475.417	13071.16
475.621	13232.95
475.826	13284.15
476.031	13017.91
476.235	12612.42
476.44	13001.53
476.645	12968.76
476.849	12702.53
477.054	12532.54
477.259	12241.73
477.463	12311.36
477.668	12004.17
477.872	12151.62
478.077	12206.92
478.282	11678.54
478.486	11531.09
478.691	11676.49
478.895	11473.74
479.1	11492.18
479.304	11342.67
479.509	11164.5
479.713	11281.24
479.918	11139.93
480.122	10756.96
480.326	11213.65
480.531	11305.81
480.735	11049.82
480.94	10746.72
481.144	11158.36
481.348	10765.15
481.553	10840.92
481.757	10619.74
481.961	10722.14
482.166	10928.99
482.37	10685.28
482.574	10425.18
482.778	10683.23
482.983	10695.52
483.187	10625.89
483.391	10609.5
483.595	10488.67
483.8	10251.11
484.004	10761.05
484.208	10699.61
484.412	10388.32
484.616	10597.21
484.821	10638.17
485.025	10441.57
485.229	10683.23
485.433	10343.27
485.637	10474.34
485.841	10271.59
486.045	10380.13
486.249	10460
486.453	10281.83
486.657	10359.65
486.861	10447.71
487.065	10294.11
487.269	10484.58
487.473	10257.25
487.677	10558.3
487.881	10662.75
488.085	10228.58
488.289	10754.91
488.493	10476.38
488.697	10623.84
488.901	10666.85
489.105	10595.17
489.309	10623.84
489.512	10654.56
489.716	10558.3
489.92	10668.89
490.124	10304.35
490.328	10638.17
490.531	10451.81
490.735	10724.19
490.939	10883.93
491.143	10515.3
491.346	10775.39
491.55	10705.76
491.754	10722.14
491.958	10842.97
492.161	10789.72
492.365	10754.91
492.569	10799.96
492.772	10830.68
492.976	10957.66
493.18	11055.96
493.383	11408.21
493.587	10986.33
493.79	11203.41
493.994	11268.95
494.197	11203.41
494.401	11195.22
494.605	11326.29
494.808	11731.79
495.012	11545.42
495.215	11645.77
495.419	11584.34
495.622	11651.92
495.825	11584.34
496.029	11789.13
496.232	11950.92
496.436	12026.7
496.639	12426.05
496.843	12383.04
497.046	12460.87
497.249	12618.56
497.453	12426.05
497.656	12571.46
497.859	12712.77
498.063	12802.88
498.266	13175.61
498.469	12870.46
498.673	13067.06
498.876	13191.99
499.079	13269.81
499.282	13368.12
499.485	13892.4
499.689	13968.17
499.892	13914.92
500.095	14113.58
500.298	14308.13
500.501	14103.34
500.705	14566.18
500.908	14537.51
501.111	14738.21
501.314	14971.68
501.517	15049.5
501.72	15385.37
501.923	15168.28
502.126	15391.51
502.329	15622.93
502.532	15971.08
502.735	16053
502.938	16126.73
503.141	16212.74
503.344	16608
503.547	16491.27
503.75	16835.33
503.953	17206.01
504.156	17103.61
504.359	17253.11
504.562	17273.59
504.765	17773.3
504.968	18064.11
505.17	18121.45
505.373	18459.37
505.576	18551.52
505.779	18404.07
505.982	18406.12
506.185	19071.71
506.387	19079.9
506.59	19104.48
506.793	19649.24
506.996	19464.92
507.198	19993.29
507.401	20028.11
507.604	20253.39
507.807	20454.09
508.009	20562.63
508.212	20808.39
508.415	21004.99
508.617	21009.09
508.82	21408.44
509.022	21320.38
509.225	21703.35
509.428	22168.24
509.63	22401.71
509.833	22469.29
510.035	22772.39
510.238	22557.35
510.44	23337.63
510.643	23227.04
510.845	23595.67
511.048	23169.69
511.25	23589.53
511.453	23696.02
511.655	24742.53
511.858	24531.59
512.06	24574.6
512.262	24996.48
512.465	25084.55
512.667	25490.04
512.87	25438.84
513.072	25864.82
513.274	26374.77
513.477	26415.72
513.679	26483.31
513.881	26839.65
514.084	27310.69
514.286	26753.64
514.488	27335.26
514.69	27957.85
514.893	27974.23
515.095	28062.29
515.297	28373.58
515.499	28457.55
515.701	28701.26
515.904	29016.65
516.106	29344.32
516.308	29514.3
516.51	30009.91
516.712	29915.7
516.914	30108.21
517.116	30536.24
517.318	30898.73
517.52	30741.03
517.722	30956.07
517.925	31455.78
518.127	31689.24
518.329	31750.68
518.531	31777.31
518.733	32551.44
518.935	32506.38
519.136	32410.13
519.338	32926.22
519.54	33208.84
519.742	33446.4
519.944	33272.32
520.146	33927.67
520.348	34023.93
520.55	34865.64
520.752	34079.22
520.954	34853.36
521.155	34296.31
521.357	34712.05
521.559	35135.98
521.761	35629.54
521.963	35934.68
522.164	35871.2
522.366	36020.7
522.568	36037.08
522.77	36047.32
522.971	36784.59
523.173	36489.68
523.375	36682.19
523.576	36245.97
523.778	36657.62
523.98	37364.17
524.181	37419.46
524.383	37292.49
524.584	37738.94
524.786	37321.16
524.988	37468.61
525.189	37994.94
525.391	37757.38
525.592	38205.88
525.794	38201.79
525.995	38117.82
526.197	38382.01
526.398	38228.41
526.6	38629.81
526.801	38801.84
527.003	38513.08
527.204	38562.23
527.406	38955.44
527.607	38705.59
527.808	39133.61
528.01	38318.52
528.211	38746.54
528.412	39451.05
528.614	38887.85
528.815	39072.17
529.016	39111.08
529.218	38945.2
529.419	39238.06
529.62	39313.83
529.822	38957.49
530.023	38988.21
530.224	38898.09
530.425	39002.54
530.626	39035.31
530.828	38463.93
531.029	39405.99
531.23	38734.26
531.431	38781.36
531.632	39035.31
531.833	38865.33
532.035	38678.96
532.236	38572.47
532.437	39104.94
532.638	38396.34
532.839	38574.52
533.04	38627.76
533.241	38633.91
533.442	39199.15
533.643	38541.75
533.844	38543.8
534.045	38734.26
534.246	37861.82
534.447	38775.22
534.648	38386.1
534.849	38425.01
535.05	38017.47
535.251	38214.07
535.451	38171.07
535.652	38504.88
535.853	37853.63
536.054	38285.75
536.255	38064.57
536.456	37558.72
536.657	38355.38
536.857	38040
537.058	38083
537.259	38019.52
537.46	37769.66
537.66	37964.22
537.861	38107.58
538.062	37734.85
538.263	37888.45
538.463	37618.11
538.664	37159.37
538.865	37622.21
539.065	37755.33
539.266	37196.23
539.466	37876.16
539.667	37206.47
539.868	37947.84
540.068	37030.35
540.269	36970.96
540.469	37429.7
540.67	37013.96
540.87	37405.13
541.071	37183.94
541.271	37272.01
541.472	36868.56
541.672	37032.39
541.873	36897.23
542.073	36348.37
542.274	36932.04
542.474	37042.63
542.675	36442.58
542.875	37007.82
543.075	36618.71
543.276	36473.3
543.476	37249.48
543.676	36643.28
543.877	37233.1
544.077	36833.74
544.277	36602.32
544.478	37009.87
544.678	36833.74
544.878	37036.49
545.078	36729.3
545.279	36329.94
545.479	36827.6
545.679	36852.17
545.879	36450.77
546.079	36440.53
546.28	36700.62
546.48	36616.66
546.68	37177.8
546.88	37052.87
547.08	36768.21
547.28	36540.88
547.48	36418
547.68	36418
547.88	36315.61
548.081	36981.2
548.281	36415.96
548.481	36587.99
548.681	36391.38
548.881	36932.04
549.081	36403.67
549.28	36499.92
549.48	36909.52
549.68	36405.72
549.88	37079.5
550.08	36385.24
550.28	36594.13
550.48	36534.74
550.68	36872.65
550.88	36348.37
551.08	36563.41
551.279	36899.28
551.479	36475.35
551.679	36891.09
551.879	36569.55
552.079	36866.51
552.278	36469.2
552.478	36671.95
552.678	36514.26
552.878	37239.24
553.077	36772.3
553.277	36725.2
553.477	36848.08
553.676	36973
553.876	36891.09
554.076	36676.05
554.275	37132.75
554.475	36587.99
554.674	37018.06
554.874	36841.93
555.074	37030.35
555.273	37177.8
555.473	37102.03
555.672	37056.97
555.872	36876.75
556.071	37384.65
556.271	36823.5
556.47	36714.96
556.67	36645.33
556.869	36911.56
557.068	36936.14
557.268	36964.81
557.467	36987.34
557.667	37235.14
557.866	37214.66
558.065	37106.12
558.265	36975.05
558.464	37079.5
558.663	36970.96
558.863	36520.4
559.062	37321.16
559.261	36839.89
559.461	37702.08
559.66	36880.85
559.859	37134.79
560.058	36968.91
560.258	37325.25
560.457	36856.27
560.656	37448.13
560.855	37153.23
561.054	37210.57
561.253	36843.98
561.453	37341.64
561.652	37317.06
561.851	36985.29
562.05	37243.34
562.249	36708.82
562.448	37538.24
562.647	37095.88
562.846	36997.58
563.045	36930
563.244	36272.6
563.443	37157.32
563.642	36385.24
563.841	36620.75
564.04	36952.52
564.239	36866.51
564.438	36481.49
564.637	36884.94
564.836	37007.82
565.035	36317.65
565.234	36612.56
565.432	36594.13
565.631	36473.3
565.83	36272.6
566.029	36123.1
566.228	36303.32
566.427	36510.16
566.625	35756.51
566.824	36166.1
567.023	36321.75
567.222	35733.98
567.42	36317.65
567.619	36129.24
567.818	36297.17
568.016	35817.95
568.215	36008.41
568.414	35996.12
568.612	35965.4
568.811	35398.12
569.01	35625.44
569.208	35494.37
569.407	35938.78
569.605	35525.09
569.804	35772.89
570.002	35047.91
570.201	35367.4
570.4	35099.11
570.598	34908.65
570.797	34980.33
570.995	35076.58
571.193	34292.21
571.392	34931.18
571.59	34208.25
571.789	34576.88
571.987	34589.17
572.186	34261.49
572.384	34359.8
572.582	34193.91
572.781	34531.83
572.979	33794.56
573.177	34433.52
573.376	34243.06
573.574	33810.94
573.772	33933.82
573.971	33765.88
574.169	33198.6
574.367	33358.34
574.565	33579.52
574.763	33040.9
574.962	32920.07
575.16	33110.53
575.358	33483.27
575.556	32692.75
575.754	33147.4
575.952	32213.52
576.151	32850.44
576.349	32905.74
576.547	32418.32
576.745	32483.86
576.943	32680.46
577.141	32567.82
577.339	32561.68
577.537	32217.62
577.735	32168.47
577.933	31486.5
578.131	32012.82
578.329	31969.82
578.527	31803.93
578.725	31607.33
578.923	31582.75
579.121	31679
579.319	31613.47
579.516	31705.63
579.714	31271.46
579.912	31316.51
580.11	31234.6
580.308	31072.81
580.506	30921.26
580.704	30636.59
580.901	30857.77
581.099	30978.6
581.297	30579.25
581.495	30626.35
581.692	30560.81
581.89	30290.48
582.088	30337.59
582.285	29995.57
582.483	30272.05
582.681	30255.67
582.878	30091.83
583.076	29901.37
583.274	30349.87
583.471	29567.55
583.669	29780.54
583.866	29598.27
584.064	29583.93
584.262	29502.01
584.459	29790.78
584.657	29321.79
584.854	29729.34
585.052	29053.51
585.249	29192.77
585.447	29235.78
585.644	28727.88
585.841	29239.87
586.039	28955.21
586.236	28836.42
586.434	28480.08
586.631	28637.77
586.828	28576.33
587.026	28901.96
587.223	28469.84
587.42	28330.58
587.618	28299.86
587.815	28234.32
588.012	27953.75
588.21	28144.21
588.407	28514.89
588.604	27791.96
588.801	27949.65
588.999	27890.26
589.196	27884.12
589.393	27724.38
589.59	27585.12
589.787	27613.79
589.984	27452
590.182	27550.3
590.379	27531.87
590.576	27185.76
590.773	27564.64
590.97	27310.69
591.167	27202.14
591.364	27261.54
591.561	27269.73
591.758	26966.63
591.955	27042.4
592.152	27343.45
592.349	26786.41
592.546	27019.88
592.743	27019.88
592.94	26612.33
593.137	26991.2
593.334	26876.52
593.531	26544.75
593.727	26878.57
593.924	27046.5
594.121	26815.08
594.318	26759.78
594.515	26471.02
594.712	26856.04
594.908	26403.44
595.105	26585.71
595.302	26372.72
595.499	26411.63
595.696	26368.62
595.892	25967.22
596.089	26141.3
596.286	26034.8
596.482	26399.34
596.679	26364.53
596.876	26098.29
597.072	26163.82
597.269	26331.76
597.466	26329.71
597.662	25932.4
597.859	26296.94
598.055	25862.77
598.252	26090.1
598.448	25842.29
598.645	25942.64
598.841	25885.3
599.038	26147.44
599.234	26374.77
599.431	25866.87
599.627	25797.24
599.824	26159.73
600.02	25760.37
600.217	25821.81
600.413	25836.15
600.609	25795.19
600.806	26002.04
601.002	26112.63
601.198	25752.18
601.395	25795.19
601.591	25967.22
601.787	25758.33
601.984	25823.86
602.18	26210.93
602.376	26014.32
602.572	25700.98
602.769	25948.79
602.965	25526.91
603.161	26081.91
603.357	26042.99
603.553	26067.57
603.75	25483.9
603.946	25838.2
604.142	25965.17
604.338	25627.26
604.534	26077.81
604.73	25762.42
604.926	25971.32
605.122	26204.78
605.318	25776.76
605.514	25756.28
605.71	26161.78
605.906	26229.36
606.102	25952.88
606.298	26110.58
606.494	26145.39
606.69	26174.06
606.886	26036.85
607.082	25772.66
607.278	26241.65
607.474	26122.87
607.67	26172.02
607.866	25764.47
608.062	26479.21
608.257	26249.84
608.453	26200.69
608.649	26378.86
608.845	26100.34
609.041	26428.01
609.236	26471.02
609.432	26581.61
609.628	26356.33
609.824	26307.18
610.019	26370.67
610.215	26546.79
610.411	26923.62
610.606	26626.67
610.802	26530.41
610.998	26774.12
611.193	26540.65
611.389	26569.32
611.584	26616.43
611.78	26114.67
611.976	26477.16
612.171	26489.45
612.367	26516.08
612.562	26514.03
612.758	26311.28
612.953	26509.93
613.149	26796.65
613.344	26219.12
613.539	26819.17
613.735	26724.97
613.93	26671.72
614.126	26522.22
614.321	26944.1
614.517	26651.24
614.712	27032.16
614.907	26745.45
615.103	26616.43
615.298	26786.41
615.493	26964.58
615.688	26430.06
615.884	27365.98
616.079	26337.9
616.274	26933.86
616.47	26757.74
616.665	26505.84
616.86	26690.15
617.055	26649.19
617.25	26313.33
617.445	26710.63
617.641	26237.55
617.836	26905.19
618.031	26290.8
618.226	26540.65
618.421	26303.09
618.616	26456.68
618.811	26389.1
619.006	26612.33
619.201	25999.99
619.396	25948.79
619.591	25772.66
619.786	25926.26
619.981	25674.36
620.176	26096.24
620.371	25383.55
620.566	25832.05
620.761	25727.61
620.956	25676.41
621.151	25176.7
621.346	25416.32
621.541	25281.15
621.735	25418.36
621.93	24949.38
622.125	25047.68
622.32	24654.47
622.515	25008.77
622.709	24793.73
622.904	24707.72
623.099	24527.5
623.294	24605.32
623.488	24058.51
623.683	24283.79
623.878	24068.75
624.072	24226.45
624.267	23745.17
624.462	24298.13
624.656	23550.62
624.851	23986.83
625.046	23597.72
625.24	23454.36
625.435	23065.25
625.629	23394.97
625.824	23087.78
626.018	22973.09
626.213	22420.14
626.407	22915.75
626.602	22540.97
626.796	22903.46
626.991	22827.68
627.185	22174.38
627.38	22031.02
627.574	22244.01
627.768	22149.81
627.963	21715.64
628.157	21746.36
628.352	21875.38
628.546	21379.77
628.74	21570.23
628.935	21213.88
629.129	21426.87
629.323	21265.08
629.517	21211.84
629.712	21103.29
629.906	20935.36
630.1	20802.24
630.294	20890.31
630.489	20718.28
630.683	20730.56
630.877	20437.7
631.071	20546.25
631.265	20466.38
631.459	20171.47
631.653	20265.67
631.848	20304.59
632.042	19802.83
632.236	19976.91
632.43	19636.95
632.624	19737.3
632.818	19434.2
633.012	19411.67
633.206	19331.8
633.4	19395.29
633.594	18885.34
633.788	19141.34
633.982	19014.37
634.176	18813.66
634.369	18633.44
634.563	18748.13
634.757	18256.62
634.951	18256.62
635.145	18301.67
635.339	18277.1
635.533	18354.92
635.726	18150.12
635.92	17808.11
636.114	18039.53
636.308	17548.02
636.501	17914.61
636.695	17697.52
636.889	17453.81
637.083	17431.29
637.276	17412.85
637.47	17335.03
637.664	17021.69
637.857	17263.35
638.051	17015.55
638.244	16689.92
638.438	16638.72
638.632	16900.86
638.825	16665.35
639.019	16376.58
639.212	16175.88
639.406	16478.98
639.599	16167.69
639.793	15934.22
639.986	15950.6
640.18	15958.8
640.373	15962.89
640.567	15751.95
640.76	15737.62
640.954	15332.12
641.147	15270.68
641.34	15375.13
641.534	15678.22
641.727	15381.27
641.92	15317.78
642.114	15092.51
642.307	15031.07
642.5	15094.55
642.694	14443.3
642.887	14732.06
643.08	14914.33
643.273	14455.59
643.467	14551.84
643.66	14371.62
643.853	14375.72
644.046	14277.41
644.239	14252.84
644.432	14080.81
644.626	13976.36
644.819	13898.54
645.012	13687.6
645.205	13919.02
645.398	13577.01
645.591	13400.88
645.784	13660.98
645.977	13411.12
646.17	13230.9
646.363	13042.49
646.556	13069.11
646.749	13243.19
646.942	13153.08
647.135	12610.37
647.328	12882.75
647.521	12710.72
647.714	12550.98
647.907	12596.03
648.099	12407.62
648.292	12524.35
648.485	12383.04
648.678	12180.29
648.871	12159.81
649.064	12381
649.256	12208.97
649.449	12168.01
649.642	11885.39
649.835	11817.8
650.027	12014.41
650.22	11653.97
650.413	11477.84
650.605	11727.69
650.798	11631.44
650.991	11537.23
651.183	11590.48
651.376	11504.46
651.568	11240.28
651.761	11047.77
651.954	11430.74
652.146	11264.85
652.339	11205.46
652.531	11031.38
652.724	11047.77
652.916	10701.66
653.109	10957.66
653.301	10994.52
653.494	10672.99
653.686	10423.14
653.879	10953.56
654.071	10576.73
654.263	10580.83
654.456	10558.3
654.648	10615.65
654.84	10304.35
655.033	10296.16
655.225	10142.57
655.417	10232.68
655.61	10265.44
655.802	10087.27
655.994	9960.3
656.186	9818.99
656.379	10007.4
656.571	9794.41
656.763	9677.68
656.955	9421.68
657.148	9704.3
657.34	9683.82
657.532	9542.51
657.724	9505.65
657.916	9417.58
658.108	9399.15
658.3	9481.07
658.492	9266.03
658.684	9145.2
658.876	9196.4
659.068	9046.9
659.26	9048.95
659.452	9091.96
659.644	8993.65
659.836	8893.3
660.028	9069.43
660.22	8795
660.412	8792.95
660.604	8829.82
660.796	8680.32
660.988	8520.57
661.18	8448.9
661.372	8500.09
661.563	8500.09
661.755	8446.85
661.947	8389.5
662.139	8393.6
662.331	8293.25
662.522	8190.85
662.714	8135.56
662.906	8115.08
663.097	8246.15
663.289	8223.62
663.481	8035.21
663.673	7984.01
663.864	7926.66
664.056	7871.37
664.247	7961.48
664.439	7828.36
664.631	7693.19
664.822	7635.85
665.014	7621.52
665.205	7574.41
665.397	7633.8
665.588	7678.86
665.78	7474.06
665.971	7492.49
666.163	7388.05
666.354	7527.31
666.546	7345.04
666.737	7166.87
666.929	7435.15
667.12	7232.4
667.311	7207.83
667.503	7150.48
667.694	7394.19
667.885	7134.1
668.077	7058.32
668.268	7033.75
668.459	7076.76
668.651	6912.92
668.842	6753.18
669.033	7041.94
669.224	6880.15
669.416	6976.41
669.607	6822.81
669.798	6656.92
669.989	6706.07
670.18	6820.76
670.371	6632.35
670.563	6599.58
670.754	6693.79
670.945	6728.6
671.136	6644.63
671.327	6488.99
671.518	6544.28
671.709	6409.12
671.9	6722.46
672.091	6470.56
672.282	6554.52
672.473	6468.51
672.664	6454.17
672.855	6232.99
673.046	6308.77
673.237	6306.72
673.428	6273.95
673.619	6222.75
673.809	6173.6
674	6192.03
674.191	6263.71
674.382	6114.21
674.573	6286.24
674.764	6020
674.954	6124.45
675.145	6075.3
675.336	6204.32
675.527	5985.19
675.717	6106.02
675.908	5890.98
676.099	5985.19
676.289	6040.48
676.48	6011.81
676.671	6112.16
676.861	6024.1
677.052	6017.96
677.243	5864.36
677.433	5784.49
677.624	6034.34
677.814	5800.87
678.005	5899.17
678.195	5917.61
678.386	5755.82
678.576	5854.12
678.767	5675.95
678.957	5616.55
679.148	5845.93
679.338	5929.89
679.529	5702.57
679.719	5825.45
679.909	5747.62
680.1	5739.43
680.29	5694.38
680.481	5708.71
680.671	5577.64
680.861	5708.71
681.052	5723.05
681.242	5733.29
681.432	5632.94
681.622	5538.73
681.813	5589.93
682.003	5454.76
682.193	5505.96
682.383	5608.36
682.573	5637.03
682.764	5567.4
682.954	5628.84
683.144	5616.55
683.334	5469.1
683.524	5522.35
683.714	5518.25
683.904	5387.18
684.094	5641.13
684.284	5493.68
684.474	5710.76
684.664	5378.99
684.854	5581.74
685.044	5342.13
685.234	5378.99
685.424	5403.57
685.614	5397.42
685.804	5452.72
685.994	5335.98
686.184	5401.52
686.374	5125.04
686.564	5325.74
686.753	5288.88
686.943	5086.13
687.133	5247.92
687.323	5182.38
687.513	5172.15
687.702	5194.67
687.892	5090.23
688.082	5192.62
688.272	5075.89
688.461	5178.29
688.651	5288.88
688.841	5166
689.03	5071.79
689.22	5018.55
689.41	5024.69
689.599	4998.07
689.789	5075.89
689.979	5049.27
690.168	5141.43
690.358	5036.98
690.547	4993.97
690.737	4969.4
690.926	4944.82
691.116	4883.38
691.305	4858.81
691.495	4993.97
691.684	4971.44
691.874	4920.24
692.063	4889.53
692.252	4785.08
692.442	4797.37
692.631	4713.4
692.82	4895.67
693.01	4832.18
693.199	4735.93
693.388	4670.39
693.578	4819.89
693.767	4791.22
693.956	4690.87
694.146	4658.1
694.335	4709.3
694.524	4701.11
694.713	4819.89
694.902	4647.87
695.092	4707.26
695.281	4725.69
695.47	4619.19
695.659	4625.34
695.848	4514.75
696.037	4688.82
696.226	4629.43
696.415	4637.63
696.604	4584.38
696.793	4672.44
696.982	4641.72
697.171	4518.84
697.36	4637.63
697.549	4461.5
697.738	4432.83
697.927	4635.58
698.116	4367.29
698.305	4651.96
698.494	4527.03
698.683	4416.44
698.872	4477.88
699.061	4404.16
699.25	4596.67
699.438	4359.1
699.627	4535.23
699.816	4438.97
700.005	4332.48
700.193	4316.09
700.382	4363.2
700.571	4400.06
700.76	4303.81
700.948	4266.94
701.137	4453.31
701.326	4281.28
701.514	4252.61
701.703	4318.14
701.892	4232.13
702.08	4326.33
702.269	4299.71
702.457	4191.17
702.646	4068.29
702.834	4086.72
703.023	4197.31
703.212	4105.15
703.4	4213.7
703.589	4043.71
703.777	4334.53
703.965	4004.8
704.154	4109.25
704.342	4144.06
704.531	4039.62
704.719	4047.81
704.907	3918.79
705.096	4176.83
705.284	4064.19
705.472	4010.95
705.661	3986.37
705.849	3992.52
706.037	4105.15
706.226	3943.36
706.414	3871.68
706.602	3961.8
706.79	4029.38
706.979	3830.73
707.167	3836.87
707.355	4023.23
707.543	3906.5
707.731	3982.28
707.919	3978.18
708.107	3883.97
708.296	3832.77
708.484	3879.88
708.672	3910.6
708.86	3822.53
709.048	3830.73
709.236	3834.82
709.424	3767.24
709.612	3773.38
709.8	3865.54
709.988	3691.46
710.176	3898.31
710.364	3720.14
710.551	3611.59
710.739	3625.93
710.927	3757
711.115	3744.71
711.303	3713.99
711.491	3726.28
711.679	3644.36
711.866	3568.59
712.054	3718.09
712.242	3666.89
712.43	3732.42
712.617	3609.54
712.805	3789.77
712.993	3535.82
713.181	3478.47
713.368	3595.21
713.556	3447.76
713.744	3447.76
713.931	3652.55
714.119	3486.67
714.306	3494.86
714.494	3537.87
714.682	3503.05
714.869	3298.25
715.057	3517.39
715.244	3480.52
715.432	3552.2
715.619	3603.4
715.807	3421.13
715.994	3398.6
716.182	3400.65
716.369	3529.67
716.556	3464.14
716.744	3363.79
716.931	3412.94
717.119	3363.79
717.306	3275.73
717.493	3292.11
717.681	3388.36
717.868	3163.09
718.055	3234.77
718.242	3208.14
718.43	3453.9
718.617	3210.19
718.804	3204.05
718.991	3300.3
719.179	3158.99
719.366	3044.31
719.553	3249.1
719.74	3216.33
719.927	3277.77
720.114	3177.42
720.301	3234.77
720.488	3126.22
720.676	3087.31
720.863	3249.1
721.05	3144.66
721.237	3138.51
721.424	3199.95
721.611	3044.31
721.798	3130.32
721.985	3087.31
722.172	3140.56
722.358	3093.46
722.545	3222.48
722.732	2970.58
722.919	3169.23
723.106	3085.26
723.293	3054.55
723.48	3140.56
723.667	2880.47
723.853	3056.59
724.04	2991.06
724.227	2921.43
724.414	3093.46
724.6	2859.99
724.787	2890.71
724.974	3036.11
725.161	2835.41
725.347	2913.24
725.534	2921.43
725.72	2921.43
725.907	2972.63
726.094	2841.56
726.28	2870.23
726.467	2849.75
726.653	2831.32
726.84	2970.58
727.027	2905.04
727.213	2724.82
727.4	2747.35
727.586	2937.81
727.773	2790.36
727.959	2814.93
728.145	2929.62
728.332	2759.64
728.518	2866.13
728.705	2747.35
728.891	2702.29
729.077	2792.41
729.264	2706.39
729.45	2778.07
729.636	2808.79
729.823	2708.44
730.009	2696.15
730.195	2816.98
730.382	2710.49
730.568	2659.29
730.754	2696.15
730.94	2618.33
731.126	2782.17
731.313	2896.85
731.499	2581.46
731.685	2735.06
731.871	2642.9
732.057	2663.38
732.243	2616.28
732.429	2702.29
732.615	2773.97
732.801	2681.82
732.987	2687.96
733.173	2628.57
733.359	2618.33
733.545	2669.53
733.731	2499.55
733.917	2653.14
734.103	2700.25
734.289	2667.48
734.475	2538.46
734.661	2612.18
734.847	2667.48
735.033	2610.14
735.219	2671.58
735.404	2479.07
735.59	2448.35
735.776	2569.18
735.962	2593.75
736.148	2626.52
736.333	2724.82
736.519	2474.97
736.705	2466.78
736.89	2495.45
737.076	2491.35
737.262	2446.3
737.447	2495.45
737.633	2495.45
737.819	2528.22
738.004	2503.64
738.19	2468.83
738.375	2505.69
738.561	2489.31
738.747	2378.72
738.932	2327.52
739.118	2360.28
739.303	2483.16
739.489	2382.81
739.674	2315.23
739.859	2405.34
740.045	2442.2
740.23	2464.73
740.416	2288.61
740.601	2268.13
740.786	2311.13
740.972	2315.23
741.157	2241.5
741.342	2350.04
741.528	2282.46
741.713	2348
741.898	2290.65
742.084	2307.04
742.269	2206.69
742.454	2264.03
742.639	2290.65
742.824	2214.88
743.01	2237.41
743.195	2300.89
743.38	2169.82
743.565	2204.64
743.75	2169.82
743.935	2225.12
744.12	2249.69
744.305	2151.39
744.49	2167.77
744.675	2096.1
744.86	2110.43
745.045	2102.24
745.23	2022.37
745.415	2034.66
745.6	2098.14
745.785	1962.98
745.97	2155.49
746.155	2022.37
746.34	1979.36
746.525	2036.7
746.71	1934.31
746.895	1981.41
747.079	1940.45
747.264	1962.98
747.449	2040.8
747.634	2028.51
747.819	1942.5
748.003	2024.42
748.188	1854.44
748.373	1938.4
748.557	1848.29
748.742	1862.63
748.927	1774.56
749.111	1905.63
749.296	1790.95
749.481	1833.96
749.665	1858.53
749.85	1833.96
750.034	1768.42
750.219	1717.22
750.404	1803.24
750.588	1807.33
750.773	1571.82
750.957	1659.88
751.141	1768.42
751.326	1676.26
751.51	1694.69
751.695	1637.35
751.879	1647.59
752.064	1702.89
752.248	1610.73
752.432	1717.22
752.617	1704.93
752.801	1545.19
752.985	1582.06
753.17	1635.3
753.354	1545.19
753.538	1571.82
753.722	1610.73
753.907	1514.47
754.091	1512.42
754.275	1514.47
754.459	1598.44
754.643	1399.79
754.828	1496.04
755.012	1381.35
755.196	1555.43
755.38	1453.03
755.564	1444.84
755.748	1428.46
755.932	1432.55
756.116	1444.84
756.3	1506.28
756.484	1436.65
756.668	1330.16
756.852	1373.16
757.036	1387.5
757.22	1340.4
757.404	1389.55
757.588	1342.44
757.772	1309.68
757.956	1317.87
758.14	1336.3
758.323	1346.54
758.507	1289.2
758.691	1233.9
758.875	1283.05
759.059	1364.97
759.242	1227.76
759.426	1162.22
759.61	1240.05
759.794	1203.18
759.977	1274.86
760.161	1252.33
760.345	1229.81
760.528	1203.18
760.712	1149.93
760.895	1203.18
761.079	1168.37
761.263	1125.36
761.446	1129.45
761.63	1102.83
761.813	1127.41
761.997	1037.3
762.18	1184.75
762.364	1162.22
762.547	1063.92
762.731	1088.5
762.914	1063.92
763.098	1098.74
763.281	1213.42
763.464	1111.02
763.648	1025.01
763.831	1033.2
764.015	1119.21
764.198	1151.98
764.381	1139.69
764.564	1033.2
764.748	1072.11
764.931	1004.53
765.114	957.43
765.297	1041.39
765.481	1037.3
765.664	1018.86
765.847	1010.67
766.03	1014.77
766.213	979.95
766.397	1059.82
766.58	992.24
766.763	1080.3
766.946	996.34
767.129	930.8
767.312	994.29
767.495	1057.78
767.678	932.85
767.861	979.95
768.044	959.47
768.227	1012.72
768.41	1076.21
768.593	998.38
768.776	992.24
768.959	889.84
769.142	1020.91
769.324	1070.06
769.507	926.71
769.69	947.19
769.873	945.14
770.056	971.76
770.239	965.62
770.421	883.7
770.604	869.36
770.787	881.65
770.97	908.27
771.152	869.36
771.335	830.45
771.518	979.95
771.7	898.03
771.883	943.09
772.066	840.69
772.248	840.69
772.431	926.71
772.613	1004.53
772.796	926.71
772.978	779.25
773.161	850.93
773.343	799.73
773.526	912.37
773.708	832.5
773.891	781.3
774.073	789.49
774.256	797.68
774.438	893.94
774.621	803.83
774.803	791.54
774.985	726
775.168	812.02
775.35	799.73
775.532	865.27
775.715	748.53
775.897	791.54
776.079	775.16
776.261	807.92
776.444	676.85
776.626	783.35
776.808	711.67
776.99	707.57
777.173	701.43
777.355	713.72
777.537	701.43
777.719	654.33
777.901	680.95
778.083	693.24
778.265	701.43
778.447	623.61
778.629	664.57
778.811	648.18
778.993	744.44
779.175	650.23
779.357	697.33
779.539	596.98
779.721	576.5
779.903	556.02
780.085	572.41
780.267	766.96
780.449	629.75
780.631	611.32
780.812	623.61
780.994	660.47
781.176	562.17
781.358	586.74
781.54	529.4
781.721	603.13
781.903	648.18
782.085	498.68
782.267	633.85
782.448	496.63
782.63	513.02
782.812	562.17
782.993	553.98
783.175	556.02
783.357	570.36
783.538	556.02
783.72	435.19
783.901	476.15
784.083	562.17
784.264	467.96
784.446	406.52
784.627	488.44
784.809	545.78
784.99	447.48
785.172	474.1
785.353	519.16
785.535	510.97
785.716	515.06
785.897	363.51
786.079	496.63
786.26	437.24
786.441	386.04
786.623	457.72
786.804	506.87
786.985	457.72
787.167	418.81
787.348	435.19
787.529	463.86
787.71	467.96
787.891	416.76
788.073	406.52
788.254	424.95
788.435	455.67
788.616	392.19
788.797	345.08
788.978	414.71
789.159	472.06
789.34	371.71
789.522	439.29
789.703	443.39
789.884	398.33
790.065	414.71
790.246	363.51
790.427	427
790.607	318.46
790.788	349.18
790.969	359.42
791.15	463.86
791.331	414.71
791.512	408.57
791.693	279.55
791.874	435.19
792.054	414.71
792.235	375.8
792.416	279.55
792.597	310.27
792.778	332.79
792.958	406.52
793.139	357.37
793.32	353.27
793.5	275.45
793.681	316.41
793.862	300.03
794.042	304.12
794.223	250.88
794.404	392.19
794.584	230.4
794.765	361.47
794.945	295.93
795.126	404.47
795.306	275.45
795.487	259.07
795.667	336.89
795.848	326.65
796.028	332.79
796.209	308.22
796.389	244.73
796.57	277.5
796.75	263.16
796.93	205.82
797.111	302.08
797.291	242.68
797.471	234.49
797.652	234.49
797.832	195.58
798.012	340.99
798.192	230.4
798.373	265.21
798.553	283.64
798.733	316.41
798.913	205.82
799.093	209.92
799.274	254.97
799.454	318.46
799.634	287.74
799.814	308.22
799.994	234.49
800.174	283.64
800.354	226.3
800.534	191.49
800.714	310.27
800.894	209.92
801.074	252.92
801.254	214.01
801.434	197.63
801.614	187.39
801.794	179.2
801.974	1012.72
802.154	259.07
802.334	171.01
802.514	226.3
802.693	203.77
802.873	189.44
803.053	234.49
803.233	201.72
803.413	193.53
803.592	146.43
803.772	168.96
803.952	140.29
804.131	193.53
804.311	191.49
804.491	209.92
804.67	168.96
804.85	203.77
805.03	197.63
805.209	195.58
805.389	181.25
805.568	164.86
805.748	168.96
805.928	193.53
806.107	199.68
806.287	246.78
806.466	130.05
806.646	84.99
806.825	263.16
807.004	136.19
807.184	107.52
807.363	234.49
807.543	181.25
807.722	146.43
807.901	214.01
808.081	168.96
808.26	103.42
808.439	123.9
808.619	37.89
808.798	148.48
808.977	177.15
809.156	160.77
809.336	128
809.515	250.88
809.694	146.43
809.873	144.38
810.052	211.96
810.231	189.44
810.411	201.72
810.59	201.72
810.769	146.43
810.948	136.19
811.127	111.61
811.306	76.8
811.485	152.57
811.664	214.01
811.843	211.96
812.022	183.29
812.201	146.43
812.38	185.34
812.559	91.13
812.737	119.81
812.916	72.7
813.095	103.42
813.274	185.34
813.453	246.78
813.632	115.71
813.811	250.88
813.989	111.61
814.168	123.9
814.347	89.09
814.526	62.46
814.704	144.38
814.883	181.25
815.062	152.57
815.24	189.44
815.419	70.65
815.598	152.57
815.776	146.43
815.955	173.05
816.133	103.42
816.312	101.37
816.49	117.76
816.669	136.19
816.847	58.37
817.026	226.3
817.204	87.04
817.383	113.66
817.561	168.96
817.74	195.58
817.918	136.19
818.097	128
818.275	80.89
818.453	70.65
818.632	144.38
818.81	97.28
818.988	173.05
819.167	103.42
819.345	142.33
819.523	74.75
819.701	123.9
819.879	123.9
820.058	76.8
820.236	111.61
820.414	105.47
820.592	-1.02
820.77	156.67
820.948	21.5
821.127	95.23
821.305	48.13
821.483	123.9
821.661	115.71
821.839	74.75
822.017	68.61
822.195	87.04
822.373	103.42
822.551	70.65
822.729	168.96
822.907	117.76
823.085	119.81
823.262	62.46
823.44	21.5
823.618	128
823.796	56.32
823.974	144.38
824.152	25.6
824.329	48.13
824.507	95.23
824.685	117.76
824.863	76.8
825.04	64.51
825.218	185.34
825.396	82.94
825.574	115.71
825.751	130.05
825.929	123.9
826.107	37.89
826.284	93.18
826.462	64.51
826.639	101.37
826.817	89.09
826.994	130.05
827.172	54.27
827.349	95.23
827.527	168.96
827.704	70.65
827.882	80.89
828.059	107.52
828.237	46.08
828.414	50.18
828.591	7.17
828.769	78.85
828.946	91.13
829.124	123.9
829.301	54.27
829.478	97.28
829.655	78.85
829.833	80.89
830.01	62.46
830.187	64.51
830.364	31.74
830.542	99.33
830.719	152.57
830.896	13.31
831.073	70.65
831.25	82.94
831.427	103.42
831.604	74.75
831.782	13.31
831.959	101.37
832.136	70.65
832.313	17.41
832.49	21.5
832.667	87.04
832.844	58.37
833.021	74.75
833.198	39.94
833.374	87.04
833.551	-19.46
833.728	68.61
833.905	107.52
834.082	5.12
834.259	5.12
834.436	162.81
834.612	25.6
834.789	154.62
834.966	3.07
835.143	31.74
835.319	62.46
835.496	-9.22
835.673	50.18
835.85	111.61
836.026	33.79
836.203	3.07
836.38	29.7
836.556	66.56
836.733	74.75
836.909	144.38
837.086	-25.6
837.262	13.31
837.439	-11.26
837.616	-27.65
837.792	89.09
837.968	-3.07
838.145	-11.26
838.321	-3.07
838.498	-1.02
838.674	107.52
838.851	39.94
839.027	-1.02
839.203	13.31
839.38	103.42
839.556	37.89
839.732	152.57
839.909	-7.17
840.085	48.13
840.261	-15.36
840.437	29.7
840.614	95.23
840.79	82.94
840.966	25.6
841.142	66.56
841.318	-3.07
841.494	25.6
841.671	29.7
841.847	48.13
842.023	-23.55
842.199	89.09
842.375	64.51
842.551	7.17
842.727	-58.37
842.903	54.27
843.079	-15.36
843.255	39.94
843.431	-44.03
843.607	7.17
843.783	-39.94
843.959	29.7
844.134	1.02
844.31	78.85
844.486	-25.6
844.662	-74.75
844.838	-5.12
845.013	-3.07
845.189	19.46
845.365	37.89
845.541	-44.03
845.716	82.94
845.892	87.04
846.068	-11.26
846.244	87.04
846.419	50.18
846.595	21.5
846.77	-9.22
846.946	66.56
847.122	52.22
847.297	9.22
847.473	62.46
847.648	-17.41
847.824	58.37
847.999	54.27
848.175	7.17
848.35	23.55
848.526	17.41
848.701	74.75
848.876	58.37
849.052	35.84
849.227	46.08
849.403	13.31
849.578	72.7
849.753	-11.26
849.929	15.36
850.104	-54.27
850.279	29.7
850.454	78.85
850.63	78.85
850.805	-25.6
850.98	19.46
851.155	23.55
851.33	13.31
851.505	-1.02
851.681	64.51
851.856	-11.26
852.031	37.89
852.206	37.89
852.381	-39.94
852.556	-9.22
852.731	80.89
852.906	-31.74
853.081	23.55
853.256	70.65
853.431	64.51
853.606	-17.41
853.781	46.08
853.956	-23.55
854.131	-11.26
854.305	-3.07
854.48	9.22
854.655	5.12
854.83	-27.65
855.005	54.27
855.18	48.13
855.354	-17.41
855.529	-31.74
855.704	-19.46
855.879	17.41
856.053	11.26
856.228	15.36
856.403	-33.79
856.577	-23.55
856.752	-52.22
856.926	13.31
857.101	41.98
857.276	44.03
857.45	-66.56
857.625	80.89
857.799	52.22
857.974	-1.02
858.148	-58.37
858.323	17.41
858.497	37.89
858.672	41.98
858.846	-7.17
859.02	5.12
859.195	13.31
859.369	46.08
859.543	-3.07
859.718	-7.17
859.892	21.5
860.066	5.12
860.241	-9.22
860.415	-44.03
860.589	87.04
860.763	-3.07
860.938	-9.22
861.112	3.07
861.286	-35.84
861.46	37.89
861.634	7.17
861.808	23.55
861.982	-48.13
862.157	-7.17
862.331	-66.56
862.505	-54.27
862.679	-60.42
862.853	-19.46
863.027	52.22
863.201	-17.41
863.375	-23.55
863.549	46.08
863.722	-31.74
863.896	5.12
864.07	23.55
864.244	-19.46
864.418	-19.46
864.592	-3.07
864.766	89.09
864.939	39.94
865.113	-48.13
865.287	48.13
865.461	-31.74
865.634	-35.84
865.808	5.12
865.982	-33.79
866.156	-105.47
866.329	7.17
866.503	17.41
866.676	-70.65
866.85	29.7
867.024	11.26
867.197	-3.07
867.371	50.18
867.544	15.36
867.718	-39.94
867.891	-31.74
868.065	-23.55
868.238	-33.79
868.412	-19.46
868.585	-17.41
868.759	-39.94
868.932	-52.22
869.105	66.56
869.279	74.75
869.452	-9.22
869.625	-11.26
869.799	9.22
869.972	-68.61
870.145	-27.65
870.319	80.89
870.492	-27.65
870.665	13.31
870.838	-70.65
871.011	-93.18
871.185	37.89
871.358	58.37
871.531	-27.65
871.704	-50.18
871.877	5.12
872.05	-58.37
872.223	-37.89
872.396	-27.65
872.569	58.37
872.742	27.65
872.915	37.89
873.088	-11.26
873.261	-7.17
873.434	9.22
873.607	-3.07
873.78	-1.02
873.953	-50.18
874.126	-31.74
874.299	-11.26
874.471	13.31
874.644	15.36
874.817	80.89
874.99	52.22
875.163	-3.07
875.335	-9.22
875.508	-80.89
875.681	15.36
875.853	-19.46
876.026	13.31
876.199	-13.31
876.371	37.89
876.544	54.27
876.717	-15.36
876.889	15.36
877.062	-19.46
877.234	-62.46
877.407	-31.74
877.579	-41.98
877.752	-27.65
877.924	-5.12
878.097	-3.07
878.269	17.41
878.442	-23.55
878.614	29.7
878.786	80.89
878.959	23.55
879.131	62.46
879.303	-48.13
879.476	-41.98
879.648	-58.37
879.82	-13.31
879.993	-3.07
880.165	-11.26
880.337	-33.79
880.509	-1.02
880.681	-76.8
880.854	5.12
881.026	-33.79
881.198	64.51
881.37	9.22
881.542	5.12
881.714	-123.9
881.886	3.07
882.058	99.33
882.23	-23.55
882.402	-74.75
882.574	58.37
882.746	13.31
882.918	54.27
883.09	13.31
883.262	-82.94
883.434	-17.41
883.606	-27.65
883.778	46.08
883.95	56.32
884.122	-50.18
884.293	21.5
884.465	-60.42
884.637	54.27
884.809	-113.66
884.98	-15.36
885.152	7.17
885.324	37.89
885.496	-107.52
885.667	-62.46
885.839	-87.04
886.011	-9.22
886.182	9.22
886.354	-1.02
886.525	25.6
886.697	60.42
886.869	15.36
887.04	-17.41
887.212	5.12
887.383	70.65
887.555	-27.65
887.726	-93.18
887.897	72.7
888.069	-68.61
888.24	-39.94
888.412	19.46
888.583	-64.51
888.754	-15.36
888.926	-39.94
889.097	78.85
889.268	-50.18
889.44	-72.7
889.611	-121.85
889.782	-35.84
889.953	-35.84
890.125	-1.02
890.296	-64.51
890.467	-17.41
890.638	-68.61
890.809	9.22
890.98	-17.41
891.151	-21.5
891.323	66.56
891.494	58.37
891.665	31.74
891.836	23.55
892.007	41.98
892.178	-35.84
892.349	25.6
892.52	-41.98
892.691	-39.94
892.862	15.36
893.032	-72.7
893.203	-39.94
893.374	60.42
893.545	64.51
893.716	-15.36
893.887	7.17
894.057	-37.89
894.228	-78.85
894.399	-15.36
894.57	-13.31
894.74	-23.55
894.911	1.02
895.082	-35.84
895.253	-60.42
895.423	-27.65
895.594	44.03
895.764	-74.75
895.935	29.7
896.106	-74.75
896.276	-1.02
896.447	-11.26
896.617	-105.47
896.788	-27.65
896.958	7.17
897.129	-31.74
897.299	-64.51
897.47	-15.36
897.64	-27.65
897.81	-82.94
897.981	-50.18
898.151	-9.22
898.322	46.08
898.492	39.94
898.662	-31.74
898.832	-9.22
899.003	-44.03
899.173	-27.65
899.343	-11.26
899.513	-35.84
