Data from USB4F104151__176__14-32-43-910.txt Node

Date: Thu Mar 13 14:32:43 EDT 2025
User: louis
Spectrometer: USB4F10415
Trigger mode: 4
Integration Time (sec): 2.500000E-2
Scans to average: 1
Electric dark correction enabled: true
Nonlinearity correction enabled: false
Boxcar width: 0
XAxis mode: Wavelengths
Number of Pixels in Spectrum: 3648
>>>>>Begin Spectral Data<<<<<
178.204	-149.84
178.424	-149.84
178.644	-149.84
178.864	-153.94
179.084	-110.93
179.304	-72.02
179.524	-16.73
179.744	30.38
179.964	16.04
180.184	93.87
180.404	-53.59
180.624	-6.49
180.844	63.15
181.064	-41.3
181.283	7.85
181.503	-94.55
181.723	73.39
181.943	-67.92
182.163	38.57
182.383	61.1
182.602	40.62
182.822	20.14
183.042	102.06
183.262	-53.59
183.482	-16.73
183.701	69.29
183.921	44.71
184.141	5.8
184.361	77.48
184.58	-4.44
184.8	13.99
185.02	5.8
185.239	69.29
185.459	9.9
185.679	59.05
185.898	28.33
186.118	87.72
186.338	9.9
186.557	63.15
186.777	-84.31
186.997	28.33
187.216	69.29
187.436	-12.63
187.655	-35.16
187.875	-16.73
188.095	93.87
188.314	46.76
188.534	57
188.753	-82.26
188.973	61.1
189.192	38.57
189.412	52.91
189.631	24.23
189.851	-12.63
190.07	54.95
190.29	-51.54
190.509	44.71
190.729	-4.44
190.948	20.14
191.168	77.48
191.387	-4.44
191.607	-8.53
191.826	61.1
192.045	7.85
192.265	34.47
192.484	-24.92
192.704	11.95
192.923	-18.77
193.142	104.11
193.362	-18.77
193.581	85.67
193.8	38.57
194.02	5.8
194.239	57
194.458	-4.44
194.678	-8.53
194.897	-10.58
195.116	-0.34
195.335	95.91
195.555	18.09
195.774	-18.77
195.993	97.96
196.212	5.8
196.432	9.9
196.651	-37.2
196.87	-2.39
197.089	61.1
197.308	36.52
197.528	71.34
197.747	-74.07
197.966	-35.16
198.185	97.96
198.404	52.91
198.623	61.1
198.842	95.91
199.062	36.52
199.281	63.15
199.5	-2.39
199.719	44.71
199.938	11.95
200.157	108.2
200.376	69.29
200.595	65.19
200.814	42.67
201.033	-10.58
201.252	24.23
201.471	95.91
201.69	65.19
201.909	-12.63
202.128	63.15
202.347	38.57
202.566	7.85
202.785	-2.39
203.004	-59.73
203.223	34.47
203.442	50.86
203.661	7.85
203.879	-0.34
204.098	44.71
204.317	61.1
204.536	-10.58
204.755	75.43
204.974	5.8
205.193	38.57
205.411	36.52
205.63	77.48
205.849	57
206.068	36.52
206.287	-10.58
206.505	3.75
206.724	20.14
206.943	32.43
207.162	16.04
207.381	-88.4
207.599	9.9
207.818	-4.44
208.037	-18.77
208.255	16.04
208.474	36.52
208.693	100.01
208.911	24.23
209.13	11.95
209.349	-26.96
209.567	57
209.786	73.39
210.005	63.15
210.223	13.99
210.442	-37.2
210.661	22.19
210.879	-16.73
211.098	3.75
211.316	69.29
211.535	73.39
211.753	-55.64
211.972	106.15
212.191	42.67
212.409	24.23
212.628	11.95
212.846	-26.96
213.065	65.19
213.283	61.1
213.502	63.15
213.72	-29.01
213.938	18.09
214.157	11.95
214.375	118.44
214.594	28.33
214.812	108.2
215.031	-16.73
215.249	85.67
215.467	85.67
215.686	16.04
215.904	52.91
216.122	20.14
216.341	44.71
216.559	-8.53
216.778	16.04
216.996	85.67
217.214	-6.49
217.432	16.04
217.651	-10.58
217.869	79.53
218.087	3.75
218.306	28.33
218.524	16.04
218.742	13.99
218.96	83.63
219.179	-57.68
219.397	69.29
219.615	73.39
219.833	-6.49
220.051	16.04
220.27	-16.73
220.488	30.38
220.706	24.23
220.924	32.43
221.142	20.14
221.36	22.19
221.578	-57.68
221.796	28.33
222.015	32.43
222.233	-12.63
222.451	54.95
222.669	11.95
222.887	-53.59
223.105	30.38
223.323	-26.96
223.541	18.09
223.759	59.05
223.977	61.1
224.195	71.34
224.413	81.58
224.631	28.33
224.849	50.86
225.067	20.14
225.285	24.23
225.503	24.23
225.721	3.75
225.939	46.76
226.157	-49.49
226.375	126.63
226.592	-24.92
226.81	44.71
227.028	11.95
227.246	114.34
227.464	46.76
227.682	104.11
227.9	132.78
228.117	46.76
228.335	9.9
228.553	57
228.771	69.29
228.989	44.71
229.206	3.75
229.424	-8.53
229.642	40.62
229.86	-47.44
230.077	54.95
230.295	-33.11
230.513	77.48
230.731	57
230.948	24.23
231.166	124.58
231.384	-10.58
231.601	16.04
231.819	120.49
232.037	30.38
232.254	-2.39
232.472	3.75
232.689	13.99
232.907	28.33
233.125	36.52
233.342	-12.63
233.56	-35.16
233.777	22.19
233.995	-20.82
234.213	44.71
234.43	40.62
234.648	11.95
234.865	36.52
235.083	-45.4
235.3	13.99
235.518	-0.34
235.735	46.76
235.953	-2.39
236.17	36.52
236.388	-55.64
236.605	11.95
236.822	38.57
237.04	40.62
237.257	-24.92
237.475	30.38
237.692	28.33
237.909	34.47
238.127	30.38
238.344	42.67
238.562	5.8
238.779	-2.39
238.996	13.99
239.214	16.04
239.431	42.67
239.648	-4.44
239.865	-8.53
240.083	44.71
240.3	-20.82
240.517	-33.11
240.735	24.23
240.952	59.05
241.169	-10.58
241.386	85.67
241.603	36.52
241.821	-4.44
242.038	28.33
242.255	81.58
242.472	-76.12
242.689	-6.49
242.907	57
243.124	11.95
243.341	52.91
243.558	-16.73
243.775	-24.92
243.992	-55.64
244.209	20.14
244.426	85.67
244.643	44.71
244.86	48.81
245.078	85.67
245.295	120.49
245.512	9.9
245.729	20.14
245.946	38.57
246.163	11.95
246.38	54.95
246.597	13.99
246.814	3.75
247.031	52.91
247.248	28.33
247.464	20.14
247.681	22.19
247.898	85.67
248.115	11.95
248.332	24.23
248.549	79.53
248.766	13.99
248.983	28.33
249.2	61.1
249.417	40.62
249.633	40.62
249.85	40.62
250.067	-8.53
250.284	-39.25
250.501	-18.77
250.717	-2.39
250.934	-59.73
251.151	-20.82
251.368	44.71
251.585	20.14
251.801	7.85
252.018	-29.01
252.235	69.29
252.451	77.48
252.668	-49.49
252.885	-8.53
253.102	106.15
253.318	-8.53
253.535	-8.53
253.752	11.95
253.968	16.04
254.185	13.99
254.401	16.04
254.618	46.76
254.835	13.99
255.051	20.14
255.268	28.33
255.484	20.14
255.701	32.43
255.917	48.81
256.134	-12.63
256.351	9.9
256.567	46.76
256.784	28.33
257	-16.73
257.217	-2.39
257.433	3.75
257.65	-59.73
257.866	50.86
258.082	-12.63
258.299	-20.82
258.515	63.15
258.732	-6.49
258.948	28.33
259.165	-12.63
259.381	54.95
259.597	-31.06
259.814	-2.39
260.03	44.71
260.246	44.71
260.463	118.44
260.679	50.86
260.895	32.43
261.112	22.19
261.328	63.15
261.544	11.95
261.761	87.72
261.977	-29.01
262.193	3.75
262.409	13.99
262.626	24.23
262.842	7.85
263.058	-12.63
263.274	61.1
263.49	18.09
263.707	20.14
263.923	3.75
264.139	13.99
264.355	69.29
264.571	89.77
264.787	69.29
265.004	134.82
265.22	-24.92
265.436	34.47
265.652	32.43
265.868	-2.39
266.084	36.52
266.3	28.33
266.516	-0.34
266.732	22.19
266.948	44.71
267.164	-31.06
267.38	36.52
267.596	52.91
267.812	124.58
268.028	-31.06
268.244	57
268.46	32.43
268.676	69.29
268.892	24.23
269.108	-0.34
269.324	-24.92
269.54	9.9
269.756	95.91
269.972	-4.44
270.188	28.33
270.403	20.14
270.619	-69.97
270.835	102.06
271.051	-2.39
271.267	46.76
271.483	38.57
271.698	-35.16
271.914	61.1
272.13	-4.44
272.346	42.67
272.562	32.43
272.777	106.15
272.993	-29.01
273.209	40.62
273.425	28.33
273.64	-43.35
273.856	11.95
274.072	-20.82
274.287	28.33
274.503	-12.63
274.719	44.71
274.934	-55.64
275.15	-59.73
275.366	69.29
275.581	-4.44
275.797	11.95
276.012	28.33
276.228	20.14
276.444	11.95
276.659	61.1
276.875	-14.68
277.09	24.23
277.306	59.05
277.521	36.52
277.737	-39.25
277.952	-8.53
278.168	79.53
278.383	85.67
278.599	13.99
278.814	13.99
279.03	52.91
279.245	59.05
279.461	83.63
279.676	52.91
279.892	11.95
280.107	32.43
280.322	-55.64
280.538	3.75
280.753	-12.63
280.969	112.3
281.184	-18.77
281.399	118.44
281.615	-24.92
281.83	11.95
282.045	20.14
282.26	46.76
282.476	-2.39
282.691	-12.63
282.906	46.76
283.122	-4.44
283.337	9.9
283.552	30.38
283.767	-59.73
283.983	38.57
284.198	16.04
284.413	16.04
284.628	-59.73
284.843	28.33
285.058	24.23
285.274	22.19
285.489	38.57
285.704	28.33
285.919	-33.11
286.134	7.85
286.349	-12.63
286.564	52.91
286.779	36.52
286.995	-2.39
287.21	3.75
287.425	79.53
287.64	28.33
287.855	77.48
288.07	28.33
288.285	110.25
288.5	140.97
288.715	89.77
288.93	81.58
289.145	-4.44
289.36	134.82
289.575	11.95
289.79	-18.77
290.004	-29.01
290.219	87.72
290.434	85.67
290.649	-18.77
290.864	-41.3
291.079	50.86
291.294	-10.58
291.509	-41.3
291.724	52.91
291.938	-29.01
292.153	48.81
292.368	48.81
292.583	7.85
292.798	57
293.012	28.33
293.227	24.23
293.442	36.52
293.657	-0.34
293.871	79.53
294.086	-41.3
294.301	7.85
294.516	16.04
294.73	-33.11
294.945	-35.16
295.16	-4.44
295.374	24.23
295.589	130.73
295.804	32.43
296.018	-4.44
296.233	52.91
296.447	-69.97
296.662	5.8
296.877	52.91
297.091	28.33
297.306	16.04
297.52	79.53
297.735	24.23
297.949	52.91
298.164	77.48
298.378	44.71
298.593	24.23
298.807	-37.2
299.022	36.52
299.236	73.39
299.451	79.53
299.665	-2.39
299.88	73.39
300.094	-6.49
300.309	-22.87
300.523	69.29
300.737	11.95
300.952	32.43
301.166	59.05
301.381	-12.63
301.595	28.33
301.809	71.34
302.024	-22.87
302.238	-69.97
302.452	28.33
302.667	22.19
302.881	54.95
303.095	61.1
303.309	-2.39
303.524	-29.01
303.738	79.53
303.952	-76.12
304.166	3.75
304.381	-24.92
304.595	16.04
304.809	91.82
305.023	9.9
305.237	48.81
305.452	13.99
305.666	18.09
305.88	65.19
306.094	13.99
306.308	-10.58
306.522	42.67
306.736	38.57
306.95	20.14
307.164	73.39
307.379	28.33
307.593	171.69
307.807	-53.59
308.021	93.87
308.235	11.95
308.449	-45.4
308.663	48.81
308.877	52.91
309.091	63.15
309.305	61.1
309.519	22.19
309.733	69.29
309.947	-10.58
310.161	95.91
310.374	7.85
310.588	89.77
310.802	-4.44
311.016	-18.77
311.23	75.43
311.444	-24.92
311.658	54.95
311.872	71.34
312.085	71.34
312.299	143.02
312.513	3.75
312.727	59.05
312.941	46.76
313.154	-4.44
313.368	46.76
313.582	28.33
313.796	3.75
314.009	46.76
314.223	61.1
314.437	7.85
314.651	89.77
314.864	9.9
315.078	3.75
315.292	7.85
315.505	89.77
315.719	57
315.933	30.38
316.146	38.57
316.36	-10.58
316.573	40.62
316.787	61.1
317.001	20.14
317.214	59.05
317.428	-18.77
317.641	-31.06
317.855	77.48
318.068	-51.54
318.282	-43.35
318.495	79.53
318.709	61.1
318.922	11.95
319.136	30.38
319.349	87.72
319.563	11.95
319.776	38.57
319.99	-18.77
320.203	36.52
320.417	52.91
320.63	-10.58
320.843	54.95
321.057	36.52
321.27	20.14
321.483	36.52
321.697	44.71
321.91	63.15
322.124	44.71
322.337	57
322.55	30.38
322.763	22.19
322.977	-4.44
323.19	28.33
323.403	30.38
323.617	73.39
323.83	65.19
324.043	16.04
324.256	-8.53
324.469	-4.44
324.683	16.04
324.896	-4.44
325.109	32.43
325.322	18.09
325.535	61.1
325.748	7.85
325.962	-26.96
326.175	30.38
326.388	-61.78
326.601	59.05
326.814	11.95
327.027	11.95
327.24	93.87
327.453	-51.54
327.666	126.63
327.879	69.29
328.092	-10.58
328.305	26.28
328.518	20.14
328.731	52.91
328.944	22.19
329.157	89.77
329.37	-8.53
329.583	-4.44
329.796	108.2
330.009	-16.73
330.222	46.76
330.435	11.95
330.648	-24.92
330.861	52.91
331.073	40.62
331.286	-10.58
331.499	54.95
331.712	11.95
331.925	-4.44
332.138	1.71
332.35	91.82
332.563	-29.01
332.776	11.95
332.989	-2.39
333.202	13.99
333.414	-6.49
333.627	-26.96
333.84	-33.11
334.053	77.48
334.265	-33.11
334.478	-26.96
334.691	1.71
334.903	52.91
335.116	-29.01
335.329	-4.44
335.541	1.71
335.754	93.87
335.966	13.99
336.179	-76.12
336.392	-35.16
336.604	16.04
336.817	28.33
337.029	28.33
337.242	32.43
337.454	48.81
337.667	71.34
337.88	28.33
338.092	16.04
338.305	-20.82
338.517	54.95
338.729	7.85
338.942	36.52
339.154	-16.73
339.367	-37.2
339.579	11.95
339.792	-49.49
340.004	28.33
340.217	28.33
340.429	97.96
340.641	-14.68
340.854	3.75
341.066	-14.68
341.278	91.82
341.491	46.76
341.703	44.71
341.915	-4.44
342.128	-4.44
342.34	114.34
342.552	18.09
342.764	-2.39
342.977	57
343.189	36.52
343.401	40.62
343.613	-2.39
343.826	28.33
344.038	-57.68
344.25	46.76
344.462	7.85
344.674	118.44
344.886	28.33
345.099	7.85
345.311	44.71
345.523	-26.96
345.735	30.38
345.947	3.75
346.159	-20.82
346.371	36.52
346.583	-6.49
346.795	52.91
347.007	7.85
347.219	36.52
347.431	13.99
347.643	79.53
347.855	85.67
348.067	3.75
348.279	-37.2
348.491	46.76
348.703	71.34
348.915	36.52
349.127	30.38
349.339	36.52
349.551	-4.44
349.763	-18.77
349.975	-12.63
350.187	44.71
350.399	52.91
350.61	71.34
350.822	5.8
351.034	18.09
351.246	24.23
351.458	36.52
351.669	-16.73
351.881	77.48
352.093	130.73
352.305	3.75
352.517	30.38
352.728	71.34
352.94	28.33
353.152	30.38
353.363	-29.01
353.575	11.95
353.787	73.39
353.999	11.95
354.21	114.34
354.422	-22.87
354.633	24.23
354.845	46.76
355.057	-12.63
355.268	-20.82
355.48	-26.96
355.692	40.62
355.903	16.04
356.115	65.19
356.326	-86.36
356.538	-2.39
356.749	22.19
356.961	52.91
357.172	85.67
357.384	-0.34
357.595	81.58
357.807	28.33
358.018	61.1
358.23	-31.06
358.441	-6.49
358.653	77.48
358.864	7.85
359.075	36.52
359.287	87.72
359.498	83.63
359.709	-49.49
359.921	52.91
360.132	46.76
360.344	-12.63
360.555	18.09
360.766	52.91
360.977	-29.01
361.189	-26.96
361.4	-47.44
361.611	3.75
361.823	36.52
362.034	79.53
362.245	-45.4
362.456	13.99
362.667	79.53
362.879	1.71
363.09	24.23
363.301	85.67
363.512	18.09
363.723	69.29
363.935	20.14
364.146	20.14
364.357	5.8
364.568	95.91
364.779	3.75
364.99	118.44
365.201	30.38
365.412	73.39
365.623	-47.44
365.834	40.62
366.045	57
366.256	16.04
366.467	110.25
366.678	1.71
366.889	36.52
367.1	22.19
367.311	61.1
367.522	20.14
367.733	22.19
367.944	54.95
368.155	40.62
368.366	79.53
368.577	48.81
368.788	93.87
368.999	57
369.209	-29.01
369.42	40.62
369.631	112.3
369.842	13.99
370.053	-6.49
370.264	149.16
370.474	20.14
370.685	30.38
370.896	46.76
371.107	102.06
371.317	28.33
371.528	13.99
371.739	77.48
371.95	-10.58
372.16	38.57
372.371	20.14
372.582	69.29
372.792	5.8
373.003	44.71
373.214	3.75
373.424	81.58
373.635	46.76
373.846	171.69
374.056	9.9
374.267	28.33
374.477	28.33
374.688	77.48
374.898	22.19
375.109	95.91
375.319	40.62
375.53	104.11
375.74	20.14
375.951	-2.39
376.161	-43.35
376.372	-45.4
376.582	-26.96
376.793	54.95
377.003	-29.01
377.214	28.33
377.424	83.63
377.635	52.91
377.845	-33.11
378.055	67.24
378.266	-29.01
378.476	-43.35
378.686	16.04
378.897	38.57
379.107	11.95
379.317	5.8
379.528	83.63
379.738	81.58
379.948	-12.63
380.158	30.38
380.369	57
380.579	79.53
380.789	44.71
380.999	85.67
381.21	7.85
381.42	93.87
381.63	-20.82
381.84	20.14
382.05	65.19
382.261	65.19
382.471	5.8
382.681	-2.39
382.891	71.34
383.101	71.34
383.311	-12.63
383.521	-33.11
383.731	20.14
383.941	126.63
384.151	9.9
384.361	24.23
384.571	-67.92
384.781	93.87
384.991	77.48
385.201	85.67
385.411	153.26
385.621	-45.4
385.831	42.67
386.041	93.87
386.251	71.34
386.461	36.52
386.671	89.77
386.881	67.24
387.091	36.52
387.301	116.39
387.511	134.82
387.72	44.71
387.93	38.57
388.14	-26.96
388.35	-37.2
388.56	-29.01
388.769	48.81
388.979	32.43
389.189	73.39
389.399	44.71
389.609	30.38
389.818	69.29
390.028	57
390.238	69.29
390.447	-0.34
390.657	102.06
390.867	95.91
391.076	20.14
391.286	-10.58
391.496	42.67
391.705	102.06
391.915	122.54
392.125	102.06
392.334	52.91
392.544	20.14
392.753	13.99
392.963	28.33
393.172	1.71
393.382	50.86
393.591	143.02
393.801	36.52
394.01	59.05
394.22	77.48
394.429	32.43
394.639	61.1
394.848	100.01
395.058	69.29
395.267	30.38
395.477	18.09
395.686	73.39
395.895	73.39
396.105	143.02
396.314	50.86
396.524	71.34
396.733	46.76
396.942	138.92
397.152	73.39
397.361	93.87
397.57	126.63
397.78	52.91
397.989	81.58
398.198	163.5
398.407	65.19
398.617	77.48
398.826	69.29
399.035	93.87
399.244	134.82
399.453	44.71
399.663	93.87
399.872	52.91
400.081	36.52
400.29	183.98
400.499	54.95
400.708	126.63
400.917	75.43
401.127	30.38
401.336	61.1
401.545	145.06
401.754	79.53
401.963	106.15
402.172	-0.34
402.381	106.15
402.59	87.72
402.799	128.68
403.008	130.73
403.217	59.05
403.426	97.96
403.635	28.33
403.844	102.06
404.053	77.48
404.262	134.82
404.471	122.54
404.68	145.06
404.888	93.87
405.097	44.71
405.306	97.96
405.515	153.26
405.724	87.72
405.933	102.06
406.142	100.01
406.35	134.82
406.559	110.25
406.768	118.44
406.977	118.44
407.185	77.48
407.394	171.69
407.603	151.21
407.812	161.45
408.02	186.02
408.229	145.06
408.438	138.92
408.646	155.3
408.855	194.22
409.064	167.59
409.272	183.98
409.481	202.41
409.69	282.28
409.898	208.55
410.107	265.89
410.315	263.85
410.524	151.21
410.733	192.17
410.941	171.69
411.15	274.09
411.358	298.66
411.567	269.99
411.775	245.41
411.984	261.8
412.192	339.62
412.401	315.05
412.609	372.39
412.818	382.63
413.026	366.25
413.234	321.19
413.443	331.43
413.651	362.15
413.86	413.35
414.068	396.96
414.276	493.22
414.485	351.91
414.693	442.02
414.901	462.5
415.11	458.4
415.318	474.79
415.526	540.32
415.734	562.85
415.943	523.94
416.151	579.23
416.359	636.58
416.567	585.38
416.776	595.62
416.984	738.98
417.192	738.98
417.4	722.59
417.608	673.44
417.817	679.58
418.025	800.41
418.233	913.05
418.441	781.98
418.649	855.71
418.857	865.95
419.065	1044.12
419.273	933.53
419.481	1072.79
419.689	1013.4
419.897	1007.26
420.105	1152.67
420.313	1070.75
420.521	1175.19
420.729	1259.16
420.937	1150.62
421.145	1271.45
421.353	1261.21
421.561	1369.75
421.769	1455.76
421.977	1412.76
422.185	1466
422.393	1527.44
422.601	1566.35
422.809	1552.02
423.017	1586.83
423.224	1703.57
423.432	1732.24
423.64	1744.53
423.848	2012.81
424.056	1891.98
424.263	2037.39
424.471	1992.33
424.679	2047.63
424.887	2158.22
425.094	2213.51
425.302	2219.66
425.51	2209.42
425.718	2477.7
425.925	2467.46
426.133	2561.67
426.341	2705.03
426.548	2733.7
426.756	2657.92
426.964	2813.57
427.171	2791.04
427.379	3018.36
427.586	2991.74
427.794	3153.53
428.001	3247.74
428.209	3440.25
428.417	3434.1
428.624	3616.37
428.832	3587.7
429.039	3708.53
429.247	3532.4
429.454	4040.3
429.662	4134.51
429.869	3960.43
430.076	4247.15
430.284	4134.51
430.491	4206.19
430.699	4533.86
430.906	4423.27
431.114	4566.63
431.321	4556.39
431.528	4990.56
431.736	5008.99
431.943	5434.97
432.15	5185.12
432.358	5181.02
432.565	5543.51
432.772	5578.33
432.979	5754.45
433.187	5811.79
433.394	6004.3
433.601	6245.96
433.808	6461
434.016	6229.58
434.223	6491.72
434.43	6878.79
434.637	6727.24
434.844	7368.25
435.052	7294.52
435.259	7278.14
435.466	7394.87
435.673	7392.83
435.88	7970.35
436.087	8072.75
436.294	8130.09
436.501	7941.68
436.708	8136.24
436.915	8386.09
437.122	8928.8
437.329	8834.6
437.537	8904.23
437.743	9178.65
437.95	9207.33
438.157	9494.04
438.364	9827.86
438.571	9690.65
438.778	9997.84
438.985	10655.24
439.192	10452.49
439.399	10731.01
439.606	10395.15
439.813	10974.72
440.02	11881.97
440.227	11406.84
440.433	11507.2
440.64	11890.17
440.847	11816.44
441.054	11898.36
441.261	12776.94
441.467	12621.29
441.674	13057.51
441.881	13376.99
442.088	13227.49
442.294	13166.05
442.501	13428.19
442.708	13946.33
442.914	14263.76
443.121	14876.1
443.328	14495.18
443.534	15424.96
443.741	15027.65
443.948	15058.37
444.154	16145.84
444.361	16209.33
444.568	15977.91
444.774	15904.18
444.981	16281.01
445.187	16553.39
445.394	17487.26
445.6	17163.68
445.807	18914.7
446.013	17970.58
446.22	18206.1
446.426	19004.81
446.633	19205.51
446.839	19594.62
447.046	18759.05
447.252	20061.56
447.459	20002.17
447.665	19938.68
447.871	20972.91
448.078	21552.48
448.284	20772.21
448.491	21417.32
448.697	21890.4
448.903	22488.4
449.11	22476.12
449.316	22291.8
449.522	22472.02
449.728	23334.21
449.935	23313.73
450.141	23539.01
450.347	23811.39
450.553	23139.66
450.76	23504.2
450.966	24239.42
451.172	23698.75
451.378	24626.48
451.584	23932.22
451.791	24440.12
451.997	24634.67
452.203	25066.8
452.409	24892.72
452.615	24718.64
452.821	23625.03
453.027	23676.23
453.233	24827.18
453.44	23788.86
453.646	23887.17
453.852	24098.11
454.058	24550.71
454.264	23899.45
454.47	24280.38
454.676	23604.55
454.882	24419.64
455.088	22383.96
455.294	22519.12
455.5	23014.73
455.705	22986.06
455.911	22091.1
456.117	21644.64
456.323	21609.82
456.529	20305.27
456.735	21144.94
456.941	20622.7
457.147	20026.75
457.352	19801.47
457.558	19500.42
457.764	19539.33
457.97	19115.4
458.176	18699.66
458.381	18761.1
458.587	17743.26
458.793	17642.91
458.999	16876.97
459.204	18007.45
459.41	17737.12
459.616	16287.15
459.821	16373.17
460.027	16295.35
460.233	15678.91
460.438	15377.86
460.644	15162.82
460.85	14704.07
461.055	14249.43
461.261	14323.15
461.466	13520.35
461.672	12830.18
461.878	13542.88
462.083	13010.4
462.289	12824.04
462.494	12688.87
462.7	11914.74
462.905	11591.16
463.111	12019.19
463.316	12115.44
463.522	11824.63
463.727	11685.37
463.932	11834.87
464.138	11597.31
464.343	11775.48
464.549	11277.82
464.754	11646.46
464.959	11879.93
465.165	11662.84
465.37	10841.61
465.575	10857.99
465.781	11173.38
465.986	11128.32
466.191	10882.56
466.397	10587.66
466.602	9948.69
466.807	10507.79
467.012	10307.09
467.218	10423.82
467.423	10481.16
467.628	10501.64
467.833	10735.11
468.038	10366.48
468.244	10180.11
468.449	10362.38
468.654	9967.12
468.859	10014.23
469.064	10055.19
469.269	9645.59
469.474	9694.74
469.679	10038.8
469.885	9614.87
470.09	9743.89
470.295	9805.33
470.5	9491.99
470.705	9549.34
470.91	9379.36
471.115	9166.37
471.32	9369.12
471.525	9397.79
471.73	9156.13
471.935	9020.96
472.139	8777.25
472.344	8760.87
472.549	8801.83
472.754	8691.24
472.959	8609.32
473.164	8066.61
473.369	8123.95
473.574	8502.82
473.778	8306.22
473.983	8324.65
474.188	8283.69
474.393	7917.11
474.598	7956.02
474.802	8058.42
475.007	7904.82
475.212	7908.91
475.417	7568.95
475.621	7607.86
475.826	7544.38
476.031	7263.8
476.235	7171.65
476.44	7341.63
476.645	7310.91
476.849	7259.71
477.054	7067.2
477.259	7024.19
477.463	7427.64
477.668	7110.21
477.872	6950.46
478.077	6786.63
478.282	6737.48
478.486	6694.47
478.691	6497.86
478.895	6643.27
479.1	6465.1
479.304	6575.69
479.509	6452.81
479.713	6473.29
479.918	6350.41
480.122	6237.77
480.326	6426.18
480.531	6237.77
480.735	6305.35
480.94	6262.35
481.144	6346.31
481.348	6057.55
481.553	6174.28
481.757	5932.62
481.961	6174.28
482.166	6250.06
482.37	6288.97
482.574	6139.47
482.778	6041.17
482.983	6196.81
483.187	6147.66
483.391	6291.02
483.595	6225.48
483.8	6078.03
484.004	6239.82
484.208	6182.48
484.412	6125.13
484.616	6098.51
484.821	6168.14
485.025	6059.6
485.229	6078.03
485.433	6198.86
485.637	6131.28
485.841	6055.5
486.045	6219.34
486.249	6131.28
486.453	6151.76
486.657	5885.52
486.861	6176.33
487.065	6057.55
487.269	6241.87
487.473	5803.6
487.677	6041.17
487.881	6090.32
488.085	6012.49
488.289	6125.13
488.493	5885.52
488.697	6174.28
488.901	6016.59
489.105	6217.29
489.309	6155.85
489.512	6215.24
489.716	6116.94
489.92	6276.68
490.124	6082.13
490.328	6258.25
490.531	6037.07
490.735	6313.55
490.939	6114.89
491.143	6176.33
491.346	6252.11
491.55	6239.82
491.754	6323.79
491.958	6311.5
492.161	6139.47
492.365	6317.64
492.569	6352.46
492.772	6229.58
492.976	6364.75
493.18	6401.61
493.383	6434.38
493.587	6305.35
493.79	6590.02
493.994	6641.22
494.197	6516.3
494.401	6475.34
494.605	6766.15
494.808	6848.07
495.012	6557.25
495.215	6682.18
495.419	6823.49
495.622	6790.72
495.825	6835.78
496.029	6764.1
496.232	7124.54
496.436	7126.59
496.639	7294.52
496.843	7130.69
497.046	7288.38
497.249	7323.19
497.453	7343.67
497.656	7505.46
497.859	7401.02
498.063	7630.39
498.266	7757.36
498.469	7585.33
498.673	7579.19
498.876	7650.87
499.079	7929.39
499.282	7941.68
499.485	8146.48
499.689	8087.09
499.892	8150.57
500.095	8242.73
500.298	8437.29
500.501	8373.8
500.705	8666.66
500.908	8678.95
501.111	8703.53
501.314	8492.59
501.517	8945.19
501.72	8957.47
501.923	8973.86
502.126	9014.82
502.329	9332.25
502.532	9272.86
502.735	9350.68
502.938	9303.58
503.141	9803.29
503.344	9741.85
503.547	9889.3
503.75	9932.31
503.953	9911.83
504.156	10069.52
504.359	10176.02
504.562	10114.58
504.765	10321.42
504.968	10614.28
505.17	10624.52
505.373	10708.49
505.576	10898.95
505.779	10898.95
505.982	10989.06
506.185	11116.03
506.387	11345.41
506.59	11505.15
506.793	11357.69
506.996	11734.52
507.198	11820.53
507.401	11838.97
507.604	11804.15
507.807	12121.59
508.009	12312.05
508.212	12054
508.415	12592.62
508.617	12627.43
508.82	12580.33
509.022	12555.76
509.225	13090.27
509.428	12889.57
509.63	13106.66
509.833	13262.3
510.035	13407.71
510.238	13338.08
510.44	13577.69
510.643	13944.28
510.845	13739.48
511.048	13913.56
511.25	13972.95
511.453	13923.8
511.655	14591.44
511.858	14618.06
512.06	14552.52
512.262	14788.04
512.465	14675.4
512.667	15097.28
512.87	15128
513.072	15252.93
513.274	15494.59
513.477	15424.96
513.679	15871.42
513.881	15908.28
514.084	15873.46
514.286	15898.04
514.488	15967.67
514.69	16260.53
514.893	16612.78
515.095	16444.85
515.297	16889.26
515.499	16731.56
515.701	17171.88
515.904	17331.62
516.106	17345.95
516.308	17319.33
516.51	17739.16
516.712	17943.96
516.914	17810.84
517.116	18400.66
517.318	18339.22
517.52	18144.66
517.722	18353.55
517.925	18550.16
518.127	18666.89
518.329	19344.77
518.531	18808.2
518.733	19213.7
518.935	19398.02
519.136	19185.03
519.338	19703.17
519.54	19729.79
519.742	19750.27
519.944	19707.26
520.146	20075.9
520.348	20239.73
520.55	20166.01
520.752	20104.57
520.954	20604.27
521.155	20356.47
521.357	20630.9
521.559	20708.72
521.761	21228.9
521.963	20903.28
522.164	21038.44
522.366	21126.5
522.568	21615.97
522.77	21482.85
522.971	21919.07
523.173	21392.74
523.375	21888.35
523.576	21603.68
523.778	21783.9
523.98	22103.39
524.181	22015.32
524.383	22148.44
524.584	22353.24
524.786	22515.03
524.988	22447.44
525.189	22687.06
525.391	22642
525.592	22725.97
525.794	22510.93
525.995	22555.99
526.197	22584.66
526.398	22814.03
526.6	22857.04
526.801	22910.29
527.003	23131.47
527.204	23047.5
527.406	23242.06
527.607	22953.29
527.808	23108.94
528.01	23059.79
528.211	23037.26
528.412	22981.96
528.614	23258.44
528.815	22875.47
529.016	23448.9
529.218	22912.33
529.419	23225.67
529.62	22998.35
529.822	23002.44
530.023	23446.85
530.224	23080.27
530.425	23188.81
530.626	23129.42
530.828	22689.1
531.029	23170.38
531.23	22938.96
531.431	23008.59
531.632	23084.36
531.833	23012.68
532.035	23270.73
532.236	23059.79
532.437	23151.95
532.638	22941
532.839	23262.54
533.04	23000.4
533.241	22828.37
533.442	22996.3
533.643	23149.9
533.844	23254.34
534.045	23125.32
534.246	22945.1
534.447	22914.38
534.648	22730.06
534.849	22955.34
535.05	22670.67
535.251	22754.64
535.451	22943.05
535.652	23123.27
535.853	22771.02
536.054	22533.46
536.255	23039.31
536.456	22785.36
536.657	22605.14
536.857	22658.38
537.058	22451.54
537.259	22504.79
537.46	22418.77
537.66	22672.72
537.861	22637.91
538.062	22381.91
538.263	22693.2
538.463	22363.48
538.664	22439.25
538.865	22408.53
539.065	22447.44
539.266	22195.54
539.466	22220.12
539.667	22017.37
539.868	22152.54
540.068	22213.98
540.269	22320.47
540.469	22236.5
540.67	22021.47
540.87	22095.19
541.071	21910.88
541.271	22205.78
541.472	22123.87
541.672	22199.64
541.873	22162.78
542.073	21874.01
542.274	22269.27
542.474	22091.1
542.675	22101.34
542.875	22461.78
543.075	22101.34
543.276	21724.51
543.476	22232.41
543.676	21857.63
543.877	21908.83
544.077	22173.02
544.277	21917.02
544.478	21837.15
544.678	22009.18
544.878	22033.75
545.078	21841.25
545.279	21857.63
545.479	21990.75
545.679	21986.65
545.879	21814.62
546.079	21992.8
546.28	21779.81
546.48	22013.27
546.68	21910.88
546.88	22117.72
547.08	21945.69
547.28	21927.26
547.48	21882.2
547.68	21919.07
547.88	21773.66
548.081	22142.3
548.281	21968.22
548.481	21931.36
548.681	22144.34
548.881	21988.7
549.081	21818.72
549.28	21761.37
549.48	21976.41
549.68	21699.94
549.88	22201.69
550.08	21589.35
550.28	22117.72
550.48	21677.41
550.68	22070.62
550.88	21777.76
551.08	22187.35
551.279	22039.9
551.479	21988.7
551.679	22265.17
551.879	21845.34
552.079	21859.68
552.278	21783.9
552.478	22031.71
552.678	22029.66
552.878	22267.22
553.077	21984.6
553.277	22115.67
553.477	22402.39
553.676	22119.77
553.876	21853.53
554.076	22256.98
554.275	21966.17
554.475	21681.5
554.674	22160.73
554.874	22242.65
555.074	21874.01
555.273	22130.01
555.473	22261.08
555.672	22164.82
555.872	21970.27
556.071	22138.2
556.271	22414.68
556.47	22021.47
556.67	22232.41
556.869	22084.95
557.068	22279.51
557.268	21914.97
557.467	22484.31
557.667	22189.4
557.866	22158.68
558.065	22005.08
558.265	22037.85
558.464	22015.32
558.663	22357.33
558.863	21755.23
559.062	22322.52
559.261	22283.61
559.461	22400.34
559.66	22025.56
559.859	22043.99
560.058	21902.68
560.258	22052.19
560.457	22048.09
560.656	22383.96
560.855	22121.82
561.054	22328.66
561.253	22111.58
561.453	22320.47
561.652	22269.27
561.851	22211.93
562.05	22201.69
562.249	21863.77
562.448	22205.78
562.647	22107.48
562.846	22410.58
563.045	22207.83
563.244	22039.9
563.443	22234.46
563.642	21636.45
563.841	21949.79
564.04	21810.53
564.239	21855.58
564.438	21876.06
564.637	21900.64
564.836	22195.54
565.035	21980.51
565.234	22039.9
565.432	21898.59
565.631	21757.28
565.83	21960.03
566.029	21724.51
566.228	21675.36
566.427	21904.73
566.625	21613.92
566.824	21353.83
567.023	21470.56
567.222	21386.6
567.42	21796.19
567.619	21468.52
567.818	21472.61
568.016	21083.5
568.215	21562.72
568.414	21155.18
568.612	21384.55
568.811	21392.74
569.01	21474.66
569.208	20993.39
569.407	21288.29
569.605	21108.07
569.804	21448.04
570.002	21243.24
570.201	21187.94
570.4	21175.66
570.598	20737.39
570.797	20815.21
570.995	20917.61
571.193	20594.03
571.392	21081.45
571.59	20735.34
571.789	20968.81
571.987	20800.88
572.186	20696.43
572.384	20548.98
572.582	20794.73
572.781	20508.02
572.979	20219.25
573.177	20354.42
573.376	20331.89
573.574	20442.48
573.772	20295.03
573.971	20028.79
574.169	20133.24
574.367	20114.81
574.565	20151.67
574.763	19803.52
574.962	19762.56
575.16	19707.26
575.358	20071.8
575.556	19766.65
575.754	19877.24
575.952	19684.73
576.151	19973.5
576.349	19533.18
576.547	19451.27
576.745	19527.04
576.943	19355.01
577.141	19309.96
577.339	19363.2
577.537	19438.98
577.735	19096.97
577.933	19236.23
578.131	19506.56
578.329	19152.26
578.527	19101.06
578.725	19217.8
578.923	18933.13
579.121	18875.79
579.319	18816.4
579.516	18632.08
579.714	19029.38
579.912	18795.92
580.11	18804.11
580.308	18845.07
580.506	18777.48
580.704	18439.57
580.901	18410.9
581.099	18634.13
581.297	18208.15
581.495	18263.44
581.692	18410.9
581.89	18228.63
582.088	18636.17
582.285	18126.23
582.483	18498.96
582.681	18271.64
582.878	17892.76
583.076	17640.86
583.274	18029.98
583.471	17909.15
583.669	17970.58
583.866	17907.1
584.064	17917.34
584.262	17849.75
584.459	17972.63
584.657	17876.38
584.854	17481.12
585.052	17296.8
585.249	17595.81
585.447	17755.55
585.644	17311.14
585.841	17634.72
586.039	17816.99
586.236	17178.02
586.434	17477.02
586.631	17118.63
586.828	17343.91
587.026	17208.74
587.223	17247.65
587.42	17163.68
587.618	16862.63
587.815	16862.63
588.012	17067.43
588.21	16934.31
588.407	17028.52
588.604	16854.44
588.801	16807.34
588.999	16997.8
589.196	16911.78
589.393	17024.42
589.59	16752.04
589.787	16575.92
589.984	16453.04
590.182	16453.04
590.379	16854.44
590.576	16387.5
590.773	16563.63
590.97	16489.9
591.167	16489.9
591.364	16563.63
591.561	16440.75
591.758	16444.85
591.955	16205.24
592.152	16526.77
592.349	16137.65
592.546	16371.12
592.743	16268.72
592.94	16076.21
593.137	16283.06
593.334	16291.25
593.531	16111.03
593.727	16100.79
593.924	15865.27
594.121	16108.98
594.318	16121.27
594.515	15904.18
594.712	16342.45
594.908	15904.18
595.105	15914.42
595.302	15711.67
595.499	15953.34
595.696	15875.51
595.892	15912.38
596.089	15926.71
596.286	15887.8
596.482	15748.54
596.679	15738.3
596.876	15863.22
597.072	15693.24
597.269	15642.04
597.466	15568.32
597.662	15709.63
597.859	15670.72
598.055	15818.17
598.252	15715.77
598.448	15500.73
598.645	15439.3
598.841	15422.91
599.038	15760.83
599.234	15756.73
599.431	15431.1
599.627	15486.4
599.824	15666.62
600.02	15332.8
600.217	15488.45
600.413	15506.88
600.609	15627.71
600.806	15635.9
601.002	15486.4
601.198	15400.38
601.395	15271.36
601.591	15420.86
601.787	15336.9
601.984	15150.53
602.18	15470.01
602.376	15158.72
602.572	15334.85
602.769	15445.44
602.965	15314.37
603.161	15396.29
603.357	15474.11
603.553	15480.25
603.75	15506.88
603.946	15543.74
604.142	15687.1
604.338	15361.47
604.534	15422.91
604.73	15357.38
604.926	15154.63
605.122	15347.14
605.318	15314.37
605.514	15257.03
605.71	15390.14
605.906	15588.8
606.102	15513.02
606.298	15551.93
606.494	15357.38
606.69	15535.55
606.886	15498.69
607.082	15300.03
607.278	15601.08
607.474	15365.57
607.67	15594.94
607.866	15435.2
608.062	15648.19
608.257	15390.14
608.453	15676.86
608.649	15603.13
608.845	15398.34
609.041	15420.86
609.236	15676.86
609.432	15422.91
609.628	15738.3
609.824	15343.04
610.019	15754.68
610.215	15519.17
610.411	15545.79
610.606	15683
610.802	15734.2
610.998	15791.55
611.193	15568.32
611.389	15685.05
611.584	15640
611.78	15474.11
611.976	15611.32
612.171	15842.74
612.367	15467.97
612.562	15578.56
612.758	15494.59
612.953	15406.53
613.149	15857.08
613.344	15631.8
613.539	15793.59
613.735	15535.55
613.93	15750.59
614.126	15400.38
614.321	15826.36
614.517	15879.61
614.712	15820.22
614.907	15758.78
615.103	15914.42
615.298	15476.16
615.493	15711.67
615.688	15480.25
615.884	15830.46
616.079	15439.3
616.274	15709.63
616.47	15664.57
616.665	15605.18
616.86	15777.21
617.055	15599.04
617.25	15549.89
617.445	15863.22
617.641	15349.18
617.836	15785.4
618.031	15334.85
618.226	15635.9
618.421	15470.01
618.616	15560.13
618.811	15355.33
619.006	15453.63
619.201	15291.84
619.396	15637.95
619.591	15146.44
619.786	15609.28
619.981	15201.73
620.176	15240.64
620.371	14955.97
620.566	15340.99
620.761	15150.53
620.956	15070.66
621.151	14888.39
621.346	15027.65
621.541	14751.18
621.735	14853.58
621.93	14689.74
622.125	14691.79
622.32	14396.88
622.515	14626.25
622.709	14532.04
622.904	14556.62
623.099	14671.31
623.294	14644.68
623.488	14185.94
623.683	14274
623.878	14110.16
624.072	14179.79
624.267	13954.52
624.462	13983.19
624.656	13975
624.851	13778.39
625.046	13868.5
625.24	13651.42
625.435	13643.23
625.629	13684.19
625.824	13561.31
626.018	13594.08
626.213	13471.2
626.407	13549.02
626.602	13217.25
626.796	13389.28
626.991	13207.01
627.185	13331.94
627.38	13143.52
627.574	12989.92
627.768	12840.42
627.963	12881.38
628.157	12948.97
628.352	12828.13
628.546	12793.32
628.74	12703.21
628.935	12527.08
629.129	12434.92
629.323	12357.1
629.517	12482.03
629.712	12469.74
629.906	12436.97
630.1	12336.62
630.294	12240.37
630.489	12068.34
630.683	12125.68
630.877	11843.06
631.071	11830.77
631.265	12135.92
631.459	11691.51
631.653	11759.1
631.848	11711.99
632.042	11644.41
632.236	11492.86
632.43	11349.5
632.624	11462.14
632.818	11466.24
633.012	11505.15
633.206	11412.99
633.4	11263.49
633.594	11073.03
633.788	11083.27
633.982	11337.21
634.176	11048.45
634.369	11030.02
634.563	11081.22
634.757	10894.85
634.951	10849.8
635.145	10800.65
635.339	10884.61
635.533	10534.41
635.726	10649.1
635.92	10229.26
636.114	10509.83
636.308	10583.56
636.501	10317.33
636.695	10352.14
636.889	10137.1
637.083	10055.19
637.276	10235.41
637.47	10196.5
637.664	10270.22
637.857	9981.46
638.051	10055.19
638.244	9924.12
638.438	9713.17
638.632	10063.38
638.825	9670.17
639.019	9682.45
639.212	9602.58
639.406	9535
639.599	9549.34
639.793	9475.61
639.986	9342.49
640.18	9348.64
640.373	9242.14
640.567	9201.18
640.76	9346.59
640.954	9121.31
641.147	9031.2
641.34	8797.73
641.534	9096.74
641.727	9088.54
641.92	8932.9
642.114	8879.65
642.307	8863.27
642.5	8885.8
642.694	8517.16
642.887	8433.19
643.08	8767.01
643.273	8476.2
643.467	8447.53
643.66	8427.05
643.853	8472.11
644.046	8209.97
644.239	8482.35
644.432	8111.66
644.626	8130.09
644.819	8115.76
645.012	8336.94
645.205	8072.75
645.398	8113.71
645.591	7949.87
645.784	7827
645.977	7814.71
646.17	7827
646.363	7878.19
646.556	7679.54
646.749	7554.62
646.942	7685.69
647.135	7697.97
647.328	7609.91
647.521	7564.86
647.714	7487.03
647.907	7343.67
648.099	7317.05
648.292	7370.3
648.485	7312.96
648.678	7257.66
648.871	7345.72
649.064	7067.2
649.256	7458.36
649.449	7181.89
649.642	7016
649.835	6921.79
650.027	7032.38
650.22	6985.28
650.413	6962.75
650.605	6895.17
650.798	6952.51
650.991	6821.44
651.183	6737.48
651.376	6688.32
651.568	6739.52
651.761	6549.06
651.954	6493.77
652.146	6645.32
652.339	6657.61
652.531	6598.21
652.724	6395.47
652.916	6356.55
653.109	6336.07
653.301	6471.24
653.494	6411.85
653.686	6266.44
653.879	6336.07
654.071	6248.01
654.263	6319.69
654.456	6172.24
654.648	6348.36
654.84	5983.82
655.033	6196.81
655.225	6106.7
655.417	5901.9
655.61	6172.24
655.802	5867.09
655.994	5930.58
656.186	6080.08
656.379	5811.79
656.571	5699.16
656.763	5656.15
656.955	5832.27
657.148	5697.11
657.34	5680.72
657.532	5656.15
657.724	5477.98
657.916	5553.75
658.108	5566.04
658.3	5584.47
658.492	5566.04
658.684	5586.52
658.876	5443.16
659.068	5459.54
659.26	5246.55
659.452	5396.06
659.644	5287.51
659.836	5387.86
660.028	5385.82
660.22	5123.68
660.412	5236.31
660.604	5107.29
660.796	5150.3
660.988	5117.53
661.18	5211.74
661.372	5035.61
661.563	5054.05
661.755	4914.78
661.947	4929.12
662.139	4892.26
662.331	4955.74
662.522	4882.02
662.714	4781.67
662.906	4802.15
663.097	4857.44
663.289	4798.05
663.481	4683.36
663.673	4697.7
663.864	4681.32
664.056	4611.68
664.247	4685.41
664.439	4542.05
664.631	4482.66
664.822	4517.48
665.014	4527.72
665.205	4394.6
665.397	4558.44
665.588	4509.29
665.78	4402.79
665.971	4224.62
666.163	4410.98
666.354	4361.83
666.546	4484.71
666.737	4304.49
666.929	4310.63
667.12	4343.4
667.311	4150.89
667.503	4339.3
667.694	4267.63
667.885	4222.57
668.077	4124.27
668.268	4064.88
668.459	4150.89
668.651	3972.72
668.842	4099.69
669.033	3962.48
669.224	3972.72
669.416	4144.75
669.607	3841.65
669.798	4003.44
669.989	3903.09
670.18	3890.8
670.371	3853.94
670.563	3864.18
670.754	4011.63
670.945	3829.36
671.136	3851.89
671.327	3927.66
671.518	3829.36
671.709	3743.35
671.9	3700.34
672.091	3790.45
672.282	3749.49
672.473	3653.23
672.664	3616.37
672.855	3632.76
673.046	3688.05
673.237	3657.33
673.428	3546.74
673.619	3640.95
673.809	3673.71
674	3673.71
674.191	3610.23
674.382	3501.69
674.573	3577.46
674.764	3585.65
674.954	3462.77
675.145	3444.34
675.336	3446.39
675.527	3499.64
675.717	3542.64
675.908	3337.85
676.099	3479.16
676.289	3399.29
676.48	3387
676.671	3305.08
676.861	3313.27
677.052	3309.18
677.243	3325.56
677.433	3434.1
677.624	3452.53
677.814	3399.29
678.005	3272.31
678.195	3333.75
678.386	3239.55
678.576	3217.02
678.767	3223.16
678.957	3217.02
679.148	3284.6
679.338	3245.69
679.529	3249.79
679.719	3266.17
679.909	3192.44
680.1	3264.12
680.29	3182.2
680.481	3239.55
680.671	3227.26
680.861	3206.78
681.052	3083.9
681.242	3157.63
681.432	3202.68
681.622	3085.95
681.813	3055.23
682.003	3116.67
682.193	2846.34
682.383	3053.18
682.573	3139.19
682.764	3143.29
682.954	2985.6
683.144	2954.88
683.334	2907.77
683.524	3088
683.714	2985.6
683.904	3047.04
684.094	2989.69
684.284	3040.89
684.474	3092.09
684.664	2963.07
684.854	2934.4
685.044	2915.97
685.234	2881.15
685.424	2979.45
685.614	2872.96
685.804	2940.54
685.994	3053.18
686.184	2856.58
686.374	2821.76
686.564	3001.98
686.753	2829.95
686.943	2879.1
687.133	2825.86
687.323	2825.86
687.513	2743.94
687.702	2838.14
687.892	2911.87
688.082	2905.73
688.272	2870.91
688.461	2813.57
688.651	2848.38
688.841	2807.42
689.03	2866.81
689.22	2739.84
689.41	2707.07
689.599	2657.92
689.789	2741.89
689.979	2774.66
690.168	2844.29
690.358	2748.03
690.547	2674.31
690.737	2797.18
690.926	2780.8
691.116	2659.97
691.305	2748.03
691.495	2735.74
691.684	2616.96
691.874	2645.63
692.063	2543.24
692.252	2598.53
692.442	2576
692.631	2449.03
692.82	2535.04
693.01	2535.04
693.199	2518.66
693.388	2633.35
693.578	2616.96
693.767	2674.31
693.956	2625.15
694.146	2600.58
694.335	2580.1
694.524	2621.06
694.713	2657.92
694.902	2430.6
695.092	2504.32
695.281	2526.85
695.47	2494.08
695.659	2358.92
695.848	2504.32
696.037	2510.47
696.226	2477.7
696.415	2498.18
696.604	2508.42
696.793	2502.28
696.982	2463.37
697.171	2535.04
697.36	2412.17
697.549	2449.03
697.738	2274.95
697.927	2358.92
698.116	2471.56
698.305	2420.36
698.494	2424.45
698.683	2350.73
698.872	2436.74
699.061	2346.63
699.25	2272.9
699.438	2252.42
699.627	2281.1
699.816	2403.97
700.005	2326.15
700.193	2313.86
700.382	2389.64
700.571	2422.41
700.76	2403.97
700.948	2315.91
701.137	2277
701.326	2324.1
701.514	2301.58
701.703	2266.76
701.892	2168.46
702.08	2309.77
702.269	2297.48
702.457	2182.79
702.646	2190.99
702.834	2305.67
703.023	2182.79
703.212	2240.14
703.4	2258.57
703.589	2209.42
703.777	2248.33
703.965	1978
704.154	2109.07
704.342	2150.03
704.531	2248.33
704.719	2115.21
704.907	2219.66
705.096	2117.26
705.284	2125.45
705.472	2168.46
705.661	2127.5
705.849	2070.16
706.037	2053.77
706.226	2203.27
706.414	2080.39
706.602	2092.68
706.79	2125.45
706.979	2023.05
707.167	2018.96
707.355	1998.48
707.543	2160.27
707.731	2035.34
707.919	1930.89
708.107	2027.15
708.296	2002.57
708.484	2047.63
708.672	2084.49
708.86	2037.39
709.048	2000.52
709.236	2031.24
709.424	2084.49
709.612	2006.67
709.8	1955.47
709.988	1971.85
710.176	2033.29
710.364	2059.92
710.551	1906.32
710.739	1846.93
710.927	2006.67
711.115	1873.55
711.303	1953.42
711.491	1883.79
711.679	1822.35
711.866	1867.41
712.054	1855.12
712.242	1896.08
712.43	1857.17
712.617	1889.93
712.805	1969.8
712.993	1771.15
713.181	1805.97
713.368	1871.5
713.556	1851.02
713.744	1777.3
713.931	1990.28
714.119	1775.25
714.306	1740.43
714.494	1822.35
714.682	1797.78
714.869	1705.62
715.057	1797.78
715.244	1709.71
715.432	1805.97
715.619	1781.39
715.807	1744.53
715.994	1820.3
716.182	1754.77
716.369	1697.42
716.556	1715.86
716.744	1685.14
716.931	1650.32
717.119	1685.14
717.306	1619.6
717.493	1701.52
717.681	1654.42
717.868	1652.37
718.055	1674.9
718.242	1695.38
718.43	1513.11
718.617	1707.66
718.804	1533.59
718.991	1574.55
719.179	1486.48
719.366	1609.36
719.553	1748.62
719.74	1586.83
719.927	1609.36
720.114	1552.02
720.301	1691.28
720.488	1658.51
720.676	1613.46
720.863	1592.98
721.05	1615.51
721.237	1535.64
721.424	1564.31
721.611	1492.63
721.798	1429.14
721.985	1523.35
722.172	1541.78
722.358	1560.21
722.545	1650.32
722.732	1484.44
722.919	1513.11
723.106	1511.06
723.293	1453.72
723.48	1423
723.667	1478.29
723.853	1617.55
724.04	1527.44
724.227	1468.05
724.414	1441.43
724.6	1433.24
724.787	1568.4
724.974	1474.2
725.161	1396.37
725.347	1355.41
725.534	1513.11
725.72	1488.53
725.907	1461.91
726.094	1502.87
726.28	1429.14
726.467	1525.4
726.653	1449.62
726.84	1375.89
727.027	1461.91
727.213	1363.61
727.4	1334.93
727.586	1406.61
727.773	1330.84
727.959	1392.28
728.145	1371.8
728.332	1248.92
728.518	1398.42
728.705	1420.95
728.891	1429.14
729.077	1347.22
729.264	1259.16
729.45	1343.13
729.636	1334.93
729.823	1322.65
730.009	1302.17
730.195	1394.33
730.382	1334.93
730.568	1273.5
730.754	1314.45
730.94	1414.81
731.126	1285.78
731.313	1298.07
731.499	1285.78
731.685	1222.3
731.871	1330.84
732.057	1357.46
732.243	1373.85
732.429	1240.73
732.615	1281.69
732.801	1410.71
732.987	1212.06
733.173	1341.08
733.359	1123.99
733.545	1244.82
733.731	1150.62
733.917	1234.58
734.103	1212.06
734.289	1175.19
734.475	1250.97
734.661	1214.1
734.847	1158.81
735.033	1183.38
735.219	1234.58
735.404	1212.06
735.59	1244.82
735.776	1136.28
735.962	1162.9
736.148	1199.77
736.333	1193.62
736.519	1130.14
736.705	1154.71
736.89	1158.81
737.076	1158.81
737.262	1101.47
737.447	1142.43
737.633	1195.67
737.819	1199.77
738.004	1080.99
738.19	1044.12
738.375	1167
738.561	1195.67
738.747	1169.05
738.932	1134.23
739.118	1154.71
739.303	1164.95
739.489	1074.84
739.674	1083.03
739.859	1146.52
740.045	1095.32
740.23	1167
740.416	964.25
740.601	1117.85
740.786	1060.51
740.972	1113.75
741.157	1029.79
741.342	1027.74
741.528	1068.7
741.713	1044.12
741.898	1054.36
742.084	1009.31
742.269	1085.08
742.454	986.78
742.639	1040.03
742.824	986.78
743.01	966.3
743.195	1062.55
743.38	1011.36
743.565	929.44
743.75	1087.13
743.935	956.06
744.12	861.85
744.305	988.83
744.49	904.86
744.675	980.64
744.86	886.43
745.045	949.92
745.23	935.58
745.415	935.58
745.6	994.97
745.785	892.57
745.97	896.67
746.155	970.4
746.34	906.91
746.525	837.28
746.71	913.05
746.895	777.89
747.079	876.19
747.264	841.37
747.449	835.23
747.634	941.72
747.819	882.33
748.003	847.52
748.188	786.08
748.373	876.19
748.557	921.24
748.742	888.48
748.927	847.52
749.111	767.65
749.296	714.4
749.481	931.48
749.665	792.22
749.85	790.17
750.034	865.95
750.219	814.75
750.404	831.13
750.588	708.26
750.773	751.26
750.957	880.29
751.141	724.64
751.326	765.6
751.51	743.07
751.695	710.3
751.879	798.37
752.064	790.17
752.248	726.69
752.432	827.04
752.617	728.74
752.801	781.98
752.985	691.87
753.17	683.68
753.354	777.89
753.538	757.41
753.722	652.96
753.907	642.72
754.091	632.48
754.275	806.56
754.459	614.05
754.643	626.34
754.828	695.97
755.012	642.72
755.196	630.43
755.38	646.82
755.564	614.05
755.748	683.68
755.932	636.58
756.116	671.39
756.3	560.8
756.484	624.29
756.668	630.43
756.852	614.05
757.036	511.65
757.22	612
757.404	595.62
757.588	632.48
757.772	646.82
757.956	577.19
758.14	667.3
758.323	495.27
758.507	640.67
758.691	538.27
758.875	560.8
759.059	605.86
759.242	511.65
759.426	536.23
759.61	579.23
759.794	601.76
759.977	568.99
760.161	622.24
760.345	536.23
760.528	577.19
760.712	556.71
760.895	540.32
761.079	532.13
761.263	511.65
761.446	478.88
761.63	544.42
761.813	566.95
761.997	487.08
762.18	515.75
762.364	546.47
762.547	513.7
762.731	521.89
762.914	450.21
763.098	544.42
763.281	499.36
763.464	493.22
763.648	478.88
763.831	568.99
764.015	480.93
764.198	499.36
764.381	532.13
764.564	544.42
764.748	454.31
764.931	505.51
765.114	536.23
765.297	573.09
765.481	497.32
765.664	474.79
765.847	437.92
766.03	562.85
766.213	380.58
766.397	442.02
766.58	480.93
766.763	456.36
766.946	448.16
767.129	396.96
767.312	470.69
767.495	450.21
767.678	376.48
767.861	437.92
768.044	413.35
768.227	429.73
768.41	405.16
768.593	462.5
768.776	530.08
768.959	429.73
769.142	472.74
769.324	429.73
769.507	429.73
769.69	458.4
769.873	356.01
770.056	429.73
770.239	452.26
770.421	462.5
770.604	452.26
770.787	462.5
770.97	462.5
771.152	372.39
771.335	388.77
771.518	376.48
771.7	470.69
771.883	431.78
772.066	423.59
772.248	448.16
772.431	433.83
772.613	431.78
772.796	448.16
772.978	370.34
773.161	446.12
773.343	435.88
773.526	335.53
773.708	372.39
773.891	347.81
774.073	380.58
774.256	341.67
774.438	489.12
774.621	376.48
774.803	382.63
774.985	401.06
775.168	399.01
775.35	292.52
775.532	401.06
775.715	356.01
775.897	413.35
776.079	372.39
776.261	399.01
776.444	296.61
776.626	349.86
776.808	331.43
776.99	372.39
777.173	376.48
777.355	317.09
777.537	374.44
777.719	376.48
777.901	345.77
778.083	347.81
778.265	337.57
778.447	347.81
778.629	292.52
778.811	382.63
778.993	325.29
779.175	368.29
779.357	282.28
779.539	218.79
779.721	356.01
779.903	339.62
780.085	304.81
780.267	333.48
780.449	257.7
780.631	374.44
780.812	358.05
780.994	257.7
781.176	372.39
781.358	304.81
781.54	292.52
781.721	255.65
781.903	257.7
782.085	288.42
782.267	323.24
782.448	241.32
782.63	259.75
782.812	218.79
782.993	257.7
783.175	302.76
783.357	226.98
783.538	302.76
783.72	192.17
783.901	183.98
784.083	282.28
784.264	274.09
784.446	243.37
784.627	267.94
784.809	251.56
784.99	292.52
785.172	280.23
785.353	278.18
785.535	229.03
785.716	208.55
785.897	214.7
786.079	167.59
786.26	224.94
786.441	253.61
786.623	218.79
786.804	253.61
786.985	247.46
787.167	216.74
787.348	202.41
787.529	186.02
787.71	247.46
787.891	241.32
788.073	181.93
788.254	200.36
788.435	290.47
788.616	224.94
788.797	239.27
788.978	210.6
789.159	216.74
789.34	175.78
789.522	237.22
789.703	253.61
789.884	243.37
790.065	310.95
790.246	292.52
790.427	235.18
790.607	237.22
790.788	183.98
790.969	85.67
791.15	237.22
791.331	177.83
791.512	161.45
791.693	186.02
791.874	206.5
792.054	235.18
792.235	151.21
792.416	179.88
792.597	167.59
792.778	179.88
792.958	192.17
793.139	173.74
793.32	198.31
793.5	132.78
793.681	175.78
793.862	169.64
794.042	202.41
794.223	147.11
794.404	173.74
794.584	104.11
794.765	159.4
794.945	169.64
795.126	208.55
795.306	202.41
795.487	126.63
795.667	128.68
795.848	218.79
796.028	200.36
796.209	186.02
796.389	110.25
796.57	124.58
796.75	143.02
796.93	145.06
797.111	143.02
797.291	159.4
797.471	167.59
797.652	122.54
797.832	143.02
798.012	85.67
798.192	85.67
798.373	116.39
798.553	130.73
798.733	210.6
798.913	118.44
799.093	218.79
799.274	102.06
799.454	30.38
799.634	157.35
799.814	200.36
799.994	118.44
800.174	169.64
800.354	100.01
800.534	11.95
800.714	136.87
800.894	140.97
801.074	81.58
801.254	210.6
801.434	196.26
801.614	120.49
801.794	54.95
801.974	759.46
802.154	91.82
802.334	153.26
802.514	73.39
802.693	128.68
802.873	95.91
803.053	102.06
803.233	118.44
803.413	89.77
803.592	134.82
803.772	118.44
803.952	143.02
804.131	24.23
804.311	183.98
804.491	122.54
804.67	110.25
804.85	106.15
805.03	194.22
805.209	85.67
805.389	57
805.568	71.34
805.748	44.71
805.928	71.34
806.107	147.11
806.287	102.06
806.466	140.97
806.646	104.11
806.825	79.53
807.004	85.67
807.184	79.53
807.363	5.8
807.543	61.1
807.722	130.73
807.901	128.68
808.081	46.76
808.26	67.24
808.439	85.67
808.619	116.39
808.798	54.95
808.977	161.45
809.156	151.21
809.336	85.67
809.515	52.91
809.694	85.67
809.873	59.05
810.052	85.67
810.231	167.59
810.411	147.11
810.59	118.44
810.769	114.34
810.948	128.68
811.127	-0.34
811.306	-12.63
811.485	118.44
811.664	134.82
811.843	85.67
812.022	85.67
812.201	22.19
812.38	116.39
812.559	16.04
812.737	69.29
812.916	20.14
813.095	28.33
813.274	85.67
813.453	7.85
813.632	134.82
813.811	71.34
813.989	-0.34
814.168	79.53
814.347	36.52
814.526	143.02
814.704	61.1
814.883	138.92
815.062	97.96
815.24	77.48
815.419	69.29
815.598	89.77
815.776	-18.77
815.955	110.25
816.133	-45.4
816.312	69.29
816.49	54.95
816.669	7.85
816.847	11.95
817.026	73.39
817.204	42.67
817.383	5.8
817.561	69.29
817.74	87.72
817.918	57
818.097	81.58
818.275	97.96
818.453	38.57
818.632	75.43
818.81	40.62
818.988	30.38
819.167	69.29
819.345	130.73
819.523	57
819.701	38.57
819.879	79.53
820.058	-6.49
820.236	57
820.414	73.39
820.592	69.29
820.77	108.2
820.948	112.3
821.127	44.71
821.305	65.19
821.483	120.49
821.661	95.91
821.839	85.67
822.017	44.71
822.195	44.71
822.373	-8.53
822.551	63.15
822.729	57
822.907	50.86
823.085	91.82
823.262	46.76
823.44	57
823.618	36.52
823.796	-18.77
823.974	-29.01
824.152	81.58
824.329	22.19
824.507	36.52
824.685	85.67
824.863	85.67
825.04	-16.73
825.218	67.24
825.396	11.95
825.574	48.81
825.751	38.57
825.929	110.25
826.107	32.43
826.284	69.29
826.462	69.29
826.639	11.95
826.817	7.85
826.994	9.9
827.172	30.38
827.349	40.62
827.527	50.86
827.704	24.23
827.882	-8.53
828.059	97.96
828.237	69.29
828.414	87.72
828.591	38.57
828.769	65.19
828.946	24.23
829.124	38.57
829.301	24.23
829.478	7.85
829.655	52.91
829.833	40.62
830.01	-12.63
830.187	7.85
830.364	26.28
830.542	46.76
830.719	83.63
830.896	93.87
831.073	46.76
831.25	65.19
831.427	120.49
831.604	61.1
831.782	24.23
831.959	52.91
832.136	30.38
832.313	93.87
832.49	-8.53
832.667	24.23
832.844	28.33
833.021	57
833.198	44.71
833.374	200.36
833.551	79.53
833.728	11.95
833.905	-8.53
834.082	-20.82
834.259	28.33
834.436	46.76
834.612	36.52
834.789	52.91
834.966	-0.34
835.143	34.47
835.319	93.87
835.496	83.63
835.673	81.58
835.85	102.06
836.026	48.81
836.203	134.82
836.38	32.43
836.556	-12.63
836.733	28.33
836.909	75.43
837.086	-0.34
837.262	-76.12
837.439	-53.59
837.616	52.91
837.792	126.63
837.968	54.95
838.145	3.75
838.321	13.99
838.498	-2.39
838.674	89.77
838.851	-53.59
839.027	11.95
839.203	34.47
839.38	50.86
839.556	-6.49
839.732	24.23
839.909	-4.44
840.085	48.81
840.261	-24.92
840.437	22.19
840.614	3.75
840.79	11.95
840.966	63.15
841.142	69.29
841.318	26.28
841.494	38.57
841.671	28.33
841.847	-29.01
842.023	-26.96
842.199	-4.44
842.375	40.62
842.551	11.95
842.727	-20.82
842.903	40.62
843.079	13.99
843.255	44.71
843.431	44.71
843.607	11.95
843.783	11.95
843.959	102.06
844.134	-0.34
844.31	3.75
844.486	-43.35
844.662	28.33
844.838	-29.01
845.013	16.04
845.189	34.47
845.365	-61.78
845.541	38.57
845.716	-4.44
845.892	118.44
846.068	-51.54
846.244	3.75
846.419	24.23
846.595	-37.2
846.77	5.8
846.946	36.52
847.122	-20.82
847.297	-24.92
847.473	11.95
847.648	-26.96
847.824	44.71
847.999	-37.2
848.175	9.9
848.35	48.81
848.526	52.91
848.701	-4.44
848.876	-0.34
849.052	42.67
849.227	-10.58
849.403	28.33
849.578	38.57
849.753	63.15
849.929	69.29
850.104	-63.83
850.279	11.95
850.454	54.95
850.63	69.29
850.805	18.09
850.98	77.48
851.155	-2.39
851.33	-0.34
851.505	13.99
851.681	61.1
851.856	40.62
852.031	-51.54
852.206	22.19
852.381	11.95
852.556	38.57
852.731	61.1
852.906	3.75
853.081	16.04
853.256	69.29
853.431	-10.58
853.606	-22.87
853.781	32.43
853.956	36.52
854.131	79.53
854.305	9.9
854.48	61.1
854.655	-61.78
854.83	32.43
855.005	-41.3
855.18	3.75
855.354	-4.44
855.529	24.23
855.704	-41.3
855.879	73.39
856.053	-45.4
856.228	57
856.403	-51.54
856.577	9.9
856.752	-20.82
856.926	-61.78
857.101	-24.92
857.276	-10.58
857.45	-8.53
857.625	-12.63
857.799	-59.73
857.974	-37.2
858.148	-51.54
858.323	3.75
858.497	-4.44
858.672	54.95
858.846	-43.35
859.02	7.85
859.195	1.71
859.369	-57.68
859.543	24.23
859.718	-69.97
859.892	-8.53
860.066	1.71
860.241	-12.63
860.415	-6.49
860.589	-29.01
860.763	69.29
860.938	-45.4
861.112	5.8
861.286	11.95
861.46	-45.4
861.634	57
861.808	-33.11
861.982	22.19
862.157	-29.01
862.331	-72.02
862.505	-8.53
862.679	26.28
862.853	-41.3
863.027	3.75
863.201	83.63
863.375	-12.63
863.549	-31.06
863.722	-29.01
863.896	73.39
864.07	44.71
864.244	-43.35
864.418	20.14
864.592	38.57
864.766	-74.07
864.939	-22.87
865.113	16.04
865.287	36.52
865.461	11.95
865.634	-16.73
865.808	-8.53
865.982	20.14
866.156	5.8
866.329	20.14
866.503	44.71
866.676	-29.01
866.85	-8.53
867.024	-20.82
867.197	85.67
867.371	11.95
867.544	67.24
867.718	-45.4
867.891	126.63
868.065	-10.58
868.238	-10.58
868.412	-10.58
868.585	85.67
868.759	28.33
868.932	3.75
869.105	-39.25
869.279	13.99
869.452	-4.44
869.625	-12.63
869.799	40.62
869.972	-37.2
870.145	-51.54
870.319	-20.82
870.492	-29.01
870.665	-29.01
870.838	-37.2
871.011	-74.07
871.185	-24.92
871.358	3.75
871.531	24.23
871.704	-33.11
871.877	20.14
872.05	-2.39
872.223	28.33
872.396	11.95
872.569	118.44
872.742	-49.49
872.915	11.95
873.088	-45.4
873.261	-96.6
873.434	34.47
873.607	36.52
873.78	5.8
873.953	50.86
874.126	-14.68
874.299	63.15
874.471	-20.82
874.644	48.81
874.817	73.39
874.99	22.19
875.163	3.75
875.335	1.71
875.508	-16.73
875.681	46.76
875.853	-41.3
876.026	97.96
876.199	63.15
876.371	24.23
876.544	5.8
876.717	38.57
876.889	-24.92
877.062	32.43
877.234	-37.2
877.407	-10.58
877.579	28.33
877.752	-2.39
877.924	-41.3
878.097	-12.63
878.269	28.33
878.442	38.57
878.614	13.99
878.786	28.33
878.959	-55.64
879.131	11.95
879.303	-20.82
879.476	54.95
879.648	71.34
879.82	-26.96
879.993	-53.59
880.165	-59.73
880.337	-45.4
880.509	-43.35
880.681	-47.44
880.854	-49.49
881.026	52.91
881.198	36.52
881.37	-6.49
881.542	5.8
881.714	-12.63
881.886	-8.53
882.058	26.28
882.23	-31.06
882.402	-69.97
882.574	-4.44
882.746	30.38
882.918	3.75
883.09	-0.34
883.262	-78.16
883.434	38.57
883.606	-12.63
883.778	-29.01
883.95	69.29
884.122	-49.49
884.293	-49.49
884.465	-12.63
884.637	57
884.809	-125.27
884.98	5.8
885.152	44.71
885.324	52.91
885.496	-45.4
885.667	-12.63
885.839	-4.44
886.011	54.95
886.182	-65.88
886.354	-20.82
886.525	20.14
886.697	30.38
886.869	-22.87
887.04	-57.68
887.212	63.15
887.383	11.95
887.555	59.05
887.726	-51.54
887.897	67.24
888.069	-49.49
888.24	3.75
888.412	7.85
888.583	91.82
888.754	20.14
888.926	-35.16
889.097	-8.53
889.268	-82.26
889.44	63.15
889.611	-18.77
889.782	-18.77
889.953	34.47
890.125	-43.35
890.296	20.14
890.467	28.33
890.638	54.95
890.809	9.9
890.98	13.99
891.151	61.1
891.323	-20.82
891.494	-0.34
891.665	61.1
891.836	-8.53
892.007	42.67
892.178	28.33
892.349	-26.96
892.52	-41.3
892.691	13.99
892.862	11.95
893.032	-53.59
893.203	-31.06
893.374	42.67
893.545	13.99
893.716	-4.44
893.887	-20.82
894.057	-0.34
894.228	-2.39
894.399	-37.2
894.57	57
894.74	7.85
894.911	-37.2
895.082	-35.16
895.253	-12.63
895.423	-45.4
895.594	16.04
895.764	36.52
895.935	26.28
896.106	-35.16
896.276	-51.54
896.447	7.85
896.617	-12.63
896.788	-8.53
896.958	5.8
897.129	-41.3
897.299	-37.2
897.47	24.23
897.64	3.75
897.81	13.99
897.981	134.82
898.151	-12.63
898.322	61.1
898.492	-18.77
898.662	28.33
898.832	-57.68
899.003	44.71
899.173	83.63
899.343	-35.16
899.513	-18.77
