Data from USB4F104151__151__14-31-58-298.txt Node

Date: Thu Mar 13 14:31:58 EDT 2025
User: louis
Spectrometer: USB4F10415
Trigger mode: 4
Integration Time (sec): 2.500000E-2
Scans to average: 1
Electric dark correction enabled: true
Nonlinearity correction enabled: false
Boxcar width: 0
XAxis mode: Wavelengths
Number of Pixels in Spectrum: 3648
>>>>>Begin Spectral Data<<<<<
178.204	-165.37
178.424	-165.37
178.644	-165.37
178.864	-101.89
179.084	-171.52
179.304	-36.35
179.524	-7.68
179.744	-22.02
179.964	-50.69
180.184	92.67
180.404	-9.73
180.624	33.28
180.844	33.28
181.064	-85.5
181.283	-15.87
181.503	8.7
181.723	59.9
181.943	-48.64
182.163	23.04
182.383	-62.98
182.602	8.7
182.822	123.39
183.042	45.57
183.262	82.43
183.482	90.62
183.701	55.81
183.921	20.99
184.141	68.09
184.361	100.86
184.58	51.71
184.8	84.48
185.02	55.81
185.239	-5.63
185.459	37.38
185.679	-7.68
185.898	29.18
186.118	111.1
186.338	45.57
186.557	33.28
186.777	84.48
186.997	29.18
187.216	18.94
187.436	-11.78
187.655	74.24
187.875	82.43
188.095	-5.63
188.314	145.92
188.534	94.72
188.753	25.09
188.973	25.09
189.192	66.05
189.412	-30.21
189.631	59.9
189.851	35.33
190.07	123.39
190.29	29.18
190.509	25.09
190.729	-3.58
190.948	84.48
191.168	172.54
191.387	43.52
191.607	70.14
191.826	115.2
192.045	2.56
192.265	4.61
192.484	33.28
192.704	-13.82
192.923	51.71
193.142	100.86
193.362	51.71
193.581	57.86
193.8	37.38
194.02	113.15
194.239	2.56
194.458	76.29
194.678	-54.78
194.897	8.7
195.116	-54.78
195.335	-56.83
195.555	100.86
195.774	-7.68
195.993	55.81
196.212	29.18
196.432	-32.26
196.651	35.33
196.87	39.42
197.089	23.04
197.308	-15.87
197.528	92.67
197.747	-62.98
197.966	20.99
198.185	111.1
198.404	29.18
198.623	57.86
198.842	121.34
199.062	68.09
199.281	49.66
199.5	-3.58
199.719	104.96
199.938	45.57
200.157	10.75
200.376	16.9
200.595	-19.97
200.814	8.7
201.033	49.66
201.252	57.86
201.471	82.43
201.69	49.66
201.909	45.57
202.128	92.67
202.347	80.38
202.566	78.33
202.785	0.51
203.004	-62.98
203.223	150.01
203.442	-3.58
203.661	57.86
203.879	107.01
204.098	55.81
204.317	25.09
204.536	2.56
204.755	90.62
204.974	51.71
205.193	92.67
205.411	168.45
205.63	57.86
205.849	78.33
206.068	90.62
206.287	53.76
206.505	74.24
206.724	74.24
206.943	74.24
207.162	2.56
207.381	4.61
207.599	107.01
207.818	94.72
208.037	49.66
208.255	90.62
208.474	80.38
208.693	49.66
208.911	90.62
209.13	43.52
209.349	49.66
209.567	39.42
209.786	139.77
210.005	68.09
210.223	68.09
210.442	33.28
210.661	115.2
210.879	18.94
211.098	127.49
211.316	37.38
211.535	119.29
211.753	-54.78
211.972	-24.06
212.191	16.9
212.409	92.67
212.628	45.57
212.846	49.66
213.065	74.24
213.283	49.66
213.502	51.71
213.72	45.57
213.938	64
214.157	-13.82
214.375	45.57
214.594	12.8
214.812	66.05
215.031	-3.58
215.249	-13.82
215.467	2.56
215.686	61.95
215.904	107.01
216.122	33.28
216.341	141.82
216.559	-1.54
216.778	49.66
216.996	29.18
217.214	49.66
217.432	37.38
217.651	-5.63
217.869	100.86
218.087	35.33
218.306	25.09
218.524	25.09
218.742	8.7
218.96	37.38
219.179	29.18
219.397	68.09
219.615	90.62
219.833	66.05
220.051	37.38
220.27	123.39
220.488	117.25
220.706	84.48
220.924	49.66
221.142	64
221.36	18.94
221.578	135.68
221.796	0.51
222.015	33.28
222.233	49.66
222.451	107.01
222.669	12.8
222.887	59.9
223.105	39.42
223.323	41.47
223.541	35.33
223.759	49.66
223.977	27.14
224.195	127.49
224.413	57.86
224.631	82.43
224.849	-15.87
225.067	135.68
225.285	47.62
225.503	16.9
225.721	-15.87
225.939	100.86
226.157	49.66
226.375	127.49
226.592	16.9
226.81	-3.58
227.028	14.85
227.246	115.2
227.464	64
227.682	45.57
227.9	74.24
228.117	51.71
228.335	102.91
228.553	49.66
228.771	68.09
228.989	115.2
229.206	49.66
229.424	-65.02
229.642	25.09
229.86	29.18
230.077	53.76
230.295	45.57
230.513	125.44
230.731	76.29
230.948	166.4
231.166	102.91
231.384	23.04
231.601	18.94
231.819	49.66
232.037	41.47
232.254	41.47
232.472	66.05
232.689	10.75
232.907	33.28
233.125	-9.73
233.342	66.05
233.56	2.56
233.777	107.01
233.995	45.57
234.213	33.28
234.43	92.67
234.648	117.25
234.865	12.8
235.083	14.85
235.3	53.76
235.518	119.29
235.735	162.3
235.953	100.86
236.17	-17.92
236.388	49.66
236.605	10.75
236.822	25.09
237.04	92.67
237.257	20.99
237.475	49.66
237.692	37.38
237.909	66.05
238.127	-13.82
238.344	129.53
238.562	25.09
238.779	-15.87
238.996	39.42
239.214	88.57
239.431	59.9
239.648	98.81
239.865	12.8
240.083	78.33
240.3	16.9
240.517	-40.45
240.735	35.33
240.952	-13.82
241.169	70.14
241.386	66.05
241.603	33.28
241.821	18.94
242.038	80.38
242.255	20.99
242.472	-7.68
242.689	33.28
242.907	68.09
243.124	0.51
243.341	6.66
243.558	16.9
243.775	-32.26
243.992	-44.54
244.209	102.91
244.426	100.86
244.643	76.29
244.86	131.58
245.078	68.09
245.295	61.95
245.512	35.33
245.729	53.76
245.946	27.14
246.163	57.86
246.38	8.7
246.597	-7.68
246.814	35.33
247.031	70.14
247.248	74.24
247.464	18.94
247.681	74.24
247.898	92.67
248.115	98.81
248.332	37.38
248.549	131.58
248.766	41.47
248.983	43.52
249.2	78.33
249.417	111.1
249.633	107.01
249.85	61.95
250.067	35.33
250.284	16.9
250.501	51.71
250.717	66.05
250.934	-36.35
251.151	-5.63
251.368	0.51
251.585	88.57
251.801	-3.58
252.018	-30.21
252.235	84.48
252.451	-22.02
252.668	-7.68
252.885	109.05
253.102	57.86
253.318	35.33
253.535	33.28
253.752	33.28
253.968	25.09
254.185	41.47
254.401	68.09
254.618	49.66
254.835	2.56
255.051	57.86
255.268	74.24
255.484	90.62
255.701	82.43
255.917	25.09
256.134	-15.87
256.351	41.47
256.567	43.52
256.784	61.95
257	61.95
257.217	64
257.433	68.09
257.65	160.25
257.866	57.86
258.082	-56.83
258.299	27.14
258.515	115.2
258.732	64
258.948	-11.78
259.165	25.09
259.381	-32.26
259.597	29.18
259.814	16.9
260.03	-24.06
260.246	37.38
260.463	111.1
260.679	84.48
260.895	16.9
261.112	92.67
261.328	27.14
261.544	35.33
261.761	152.06
261.977	84.48
262.193	-11.78
262.409	4.61
262.626	-15.87
262.842	33.28
263.058	-7.68
263.274	72.19
263.49	-7.68
263.707	41.47
263.923	43.52
264.139	12.8
264.355	74.24
264.571	94.72
264.787	-24.06
265.004	139.77
265.22	45.57
265.436	31.23
265.652	12.8
265.868	104.96
266.084	51.71
266.3	43.52
266.516	25.09
266.732	61.95
266.948	74.24
267.164	51.71
267.38	43.52
267.596	8.7
267.812	76.29
268.028	72.19
268.244	2.56
268.46	115.2
268.676	59.9
268.892	41.47
269.108	16.9
269.324	49.66
269.54	33.28
269.756	51.71
269.972	-3.58
270.188	88.57
270.403	33.28
270.619	2.56
270.835	57.86
271.051	49.66
271.267	88.57
271.483	49.66
271.698	98.81
271.914	41.47
272.13	107.01
272.346	86.53
272.562	57.86
272.777	147.97
272.993	2.56
273.209	-34.3
273.425	88.57
273.64	16.9
273.856	-32.26
274.072	16.9
274.287	18.94
274.503	18.94
274.719	117.25
274.934	109.05
275.15	-19.97
275.366	57.86
275.581	-28.16
275.797	92.67
276.012	70.14
276.228	107.01
276.444	41.47
276.659	53.76
276.875	18.94
277.09	-38.4
277.306	96.77
277.521	84.48
277.737	18.94
277.952	111.1
278.168	135.68
278.383	82.43
278.599	43.52
278.814	74.24
279.03	33.28
279.245	76.29
279.461	-19.97
279.676	41.47
279.892	8.7
280.107	18.94
280.322	-3.58
280.538	57.86
280.753	57.86
280.969	-7.68
281.184	-26.11
281.399	76.29
281.615	-28.16
281.83	92.67
282.045	16.9
282.26	2.56
282.476	35.33
282.691	98.81
282.906	66.05
283.122	47.62
283.337	-56.83
283.552	33.28
283.767	0.51
283.983	39.42
284.198	51.71
284.413	119.29
284.628	-69.12
284.843	66.05
285.058	66.05
285.274	92.67
285.489	12.8
285.704	45.57
285.919	70.14
286.134	49.66
286.349	41.47
286.564	84.48
286.779	76.29
286.995	2.56
287.21	18.94
287.425	51.71
287.64	66.05
287.855	-19.97
288.07	4.61
288.285	80.38
288.5	111.1
288.715	72.19
288.93	0.51
289.145	35.33
289.36	156.16
289.575	41.47
289.79	18.94
290.004	41.47
290.219	68.09
290.434	74.24
290.649	82.43
290.864	53.76
291.079	117.25
291.294	25.09
291.509	66.05
291.724	123.39
291.938	16.9
292.153	76.29
292.368	4.61
292.583	4.61
292.798	133.63
293.012	90.62
293.227	-13.82
293.442	49.66
293.657	0.51
293.871	111.1
294.086	16.9
294.301	152.06
294.516	107.01
294.73	27.14
294.945	86.53
295.16	78.33
295.374	66.05
295.589	68.09
295.804	27.14
296.018	8.7
296.233	139.77
296.447	115.2
296.662	-28.16
296.877	98.81
297.091	82.43
297.306	78.33
297.52	16.9
297.735	115.2
297.949	78.33
298.164	74.24
298.378	115.2
298.593	123.39
298.807	43.52
299.022	18.94
299.236	84.48
299.451	-15.87
299.665	76.29
299.88	109.05
300.094	123.39
300.309	61.95
300.523	16.9
300.737	82.43
300.952	16.9
301.166	-13.82
301.381	82.43
301.595	-3.58
301.809	29.18
302.024	78.33
302.238	43.52
302.452	33.28
302.667	57.86
302.881	115.2
303.095	94.72
303.309	41.47
303.524	10.75
303.738	66.05
303.952	109.05
304.166	25.09
304.381	-30.21
304.595	117.25
304.809	-30.21
305.023	41.47
305.237	78.33
305.452	-13.82
305.666	107.01
305.88	92.67
306.094	25.09
306.308	12.8
306.522	66.05
306.736	29.18
306.95	29.18
307.164	-19.97
307.379	49.66
307.593	186.88
307.807	141.82
308.021	8.7
308.235	82.43
308.449	70.14
308.663	2.56
308.877	123.39
309.091	37.38
309.305	76.29
309.519	35.33
309.733	51.71
309.947	2.56
310.161	74.24
310.374	16.9
310.588	123.39
310.802	37.38
311.016	82.43
311.23	59.9
311.444	74.24
311.658	10.75
311.872	100.86
312.085	141.82
312.299	86.53
312.513	51.71
312.727	100.86
312.941	16.9
313.154	53.76
313.368	23.04
313.582	53.76
313.796	45.57
314.009	125.44
314.223	61.95
314.437	31.23
314.651	-30.21
314.864	64
315.078	8.7
315.292	20.99
315.505	70.14
315.719	82.43
315.933	16.9
316.146	92.67
316.36	33.28
316.573	107.01
316.787	82.43
317.001	78.33
317.214	51.71
317.428	113.15
317.641	100.86
317.855	104.96
318.068	51.71
318.282	16.9
318.495	115.2
318.709	74.24
318.922	10.75
319.136	156.16
319.349	12.8
319.563	45.57
319.776	88.57
319.99	18.94
320.203	102.91
320.417	98.81
320.63	41.47
320.843	78.33
321.057	41.47
321.27	-7.68
321.483	102.91
321.697	70.14
321.91	0.51
322.124	33.28
322.337	111.1
322.55	47.62
322.763	-54.78
322.977	25.09
323.19	53.76
323.403	41.47
323.617	55.81
323.83	29.18
324.043	25.09
324.256	27.14
324.469	20.99
324.683	78.33
324.896	-24.06
325.109	90.62
325.322	25.09
325.535	16.9
325.748	-13.82
325.962	57.86
326.175	150.01
326.388	74.24
326.601	74.24
326.814	43.52
327.027	-9.73
327.24	111.1
327.453	4.61
327.666	66.05
327.879	115.2
328.092	55.81
328.305	-5.63
328.518	-5.63
328.731	31.23
328.944	29.18
329.157	115.2
329.37	39.42
329.583	53.76
329.796	57.86
330.009	57.86
330.222	-30.21
330.435	98.81
330.648	66.05
330.861	31.23
331.073	45.57
331.286	61.95
331.499	14.85
331.712	-19.97
331.925	25.09
332.138	139.77
332.35	84.48
332.563	45.57
332.776	100.86
332.989	33.28
333.202	45.57
333.414	-11.78
333.627	66.05
333.84	51.71
334.053	23.04
334.265	-30.21
334.478	-24.06
334.691	88.57
334.903	8.7
335.116	49.66
335.329	-36.35
335.541	37.38
335.754	172.54
335.966	-28.16
336.179	57.86
336.392	37.38
336.604	74.24
336.817	55.81
337.029	-5.63
337.242	78.33
337.454	111.1
337.667	53.76
337.88	98.81
338.092	66.05
338.305	96.77
338.517	43.52
338.729	57.86
338.942	98.81
339.154	-3.58
339.367	33.28
339.579	80.38
339.792	86.53
340.004	-3.58
340.217	41.47
340.429	90.62
340.641	61.95
340.854	49.66
341.066	25.09
341.278	107.01
341.491	164.35
341.703	90.62
341.915	94.72
342.128	111.1
342.34	76.29
342.552	25.09
342.764	-19.97
342.977	78.33
343.189	123.39
343.401	90.62
343.613	29.18
343.826	10.75
344.038	29.18
344.25	-13.82
344.462	41.47
344.674	119.29
344.886	61.95
345.099	66.05
345.311	84.48
345.523	66.05
345.735	27.14
345.947	66.05
346.159	57.86
346.371	57.86
346.583	61.95
346.795	37.38
347.007	-1.54
347.219	70.14
347.431	49.66
347.643	88.57
347.855	27.14
348.067	90.62
348.279	35.33
348.491	8.7
348.703	125.44
348.915	100.86
349.127	61.95
349.339	123.39
349.551	2.56
349.763	107.01
349.975	43.52
350.187	45.57
350.399	35.33
350.61	49.66
350.822	51.71
351.034	27.14
351.246	70.14
351.458	8.7
351.669	35.33
351.881	78.33
352.093	57.86
352.305	78.33
352.517	76.29
352.728	74.24
352.94	86.53
353.152	37.38
353.363	33.28
353.575	131.58
353.787	82.43
353.999	57.86
354.21	35.33
354.422	49.66
354.633	123.39
354.845	12.8
355.057	107.01
355.268	18.94
355.48	141.82
355.692	57.86
355.903	0.51
356.115	2.56
356.326	43.52
356.538	66.05
356.749	41.47
356.961	16.9
357.172	49.66
357.384	27.14
357.595	113.15
357.807	10.75
358.018	68.09
358.23	51.71
358.441	107.01
358.653	-32.26
358.864	59.9
359.075	-11.78
359.287	-1.54
359.498	76.29
359.709	70.14
359.921	51.71
360.132	61.95
360.344	107.01
360.555	84.48
360.766	41.47
360.977	66.05
361.189	49.66
361.4	64
361.611	115.2
361.823	141.82
362.034	25.09
362.245	-54.78
362.456	43.52
362.667	84.48
362.879	59.9
363.09	18.94
363.301	35.33
363.512	61.95
363.723	33.28
363.935	35.33
364.146	74.24
364.357	57.86
364.568	64
364.779	4.61
364.99	53.76
365.201	59.9
365.412	61.95
365.623	45.57
365.834	45.57
366.045	125.44
366.256	98.81
366.467	61.95
366.678	154.11
366.889	33.28
367.1	39.42
367.311	90.62
367.522	18.94
367.733	66.05
367.944	107.01
368.155	61.95
368.366	45.57
368.577	27.14
368.788	111.1
368.999	33.28
369.209	45.57
369.42	164.35
369.631	197.12
369.842	115.2
370.053	51.71
370.264	57.86
370.474	37.38
370.685	2.56
370.896	66.05
371.107	68.09
371.317	31.23
371.528	66.05
371.739	156.16
371.95	135.68
372.16	70.14
372.371	70.14
372.582	45.57
372.792	4.61
373.003	90.62
373.214	49.66
373.424	68.09
373.635	61.95
373.846	61.95
374.056	4.61
374.267	29.18
374.477	94.72
374.688	123.39
374.898	41.47
375.109	115.2
375.319	139.77
375.53	74.24
375.74	117.25
375.951	121.34
376.161	66.05
376.372	76.29
376.582	47.62
376.793	61.95
377.003	2.56
377.214	64
377.424	115.2
377.635	37.38
377.845	70.14
378.055	162.3
378.266	92.67
378.476	35.33
378.686	57.86
378.897	113.15
379.107	16.9
379.317	49.66
379.528	8.7
379.738	90.62
379.948	2.56
380.158	51.71
380.369	53.76
380.579	131.58
380.789	68.09
380.999	8.7
381.21	8.7
381.42	90.62
381.63	37.38
381.84	84.48
382.05	49.66
382.261	133.63
382.471	111.1
382.681	57.86
382.891	66.05
383.101	156.16
383.311	35.33
383.521	98.81
383.731	160.25
383.941	45.57
384.151	143.87
384.361	33.28
384.571	107.01
384.781	49.66
384.991	119.29
385.201	86.53
385.411	49.66
385.621	49.66
385.831	49.66
386.041	66.05
386.251	12.8
386.461	74.24
386.671	139.77
386.881	74.24
387.091	88.57
387.301	123.39
387.511	51.71
387.72	107.01
387.93	53.76
388.14	2.56
388.35	35.33
388.56	53.76
388.769	82.43
388.979	82.43
389.189	14.85
389.399	64
389.609	168.45
389.818	131.58
390.028	10.75
390.238	66.05
390.447	49.66
390.657	37.38
390.867	0.51
391.076	82.43
391.286	59.9
391.496	102.91
391.705	129.53
391.915	104.96
392.125	127.49
392.334	82.43
392.544	96.77
392.753	43.52
392.963	64
393.172	131.58
393.382	49.66
393.591	166.4
393.801	92.67
394.01	174.59
394.22	84.48
394.429	57.86
394.639	84.48
394.848	176.64
395.058	90.62
395.267	117.25
395.477	90.62
395.686	172.54
395.895	94.72
396.105	82.43
396.314	74.24
396.524	66.05
396.733	102.91
396.942	250.36
397.152	82.43
397.361	96.77
397.57	109.05
397.78	78.33
397.989	133.63
398.198	221.69
398.407	147.97
398.617	127.49
398.826	131.58
399.035	129.53
399.244	172.54
399.453	102.91
399.663	66.05
399.872	113.15
400.081	51.71
400.29	150.01
400.499	111.1
400.708	182.78
400.917	127.49
401.127	123.39
401.336	107.01
401.545	139.77
401.754	119.29
401.963	117.25
402.172	147.97
402.381	147.97
402.59	211.45
402.799	68.09
403.008	109.05
403.217	131.58
403.426	233.98
403.635	162.3
403.844	225.79
404.053	172.54
404.262	133.63
404.471	199.16
404.68	154.11
404.888	190.97
405.097	156.16
405.306	211.45
405.515	199.16
405.724	158.21
405.933	213.5
406.142	250.36
406.35	283.13
406.559	217.6
406.768	147.97
406.977	287.23
407.185	145.92
407.394	262.65
407.603	203.26
407.812	229.88
408.02	248.32
408.229	311.8
408.438	326.14
408.646	213.5
408.855	363
409.064	229.88
409.272	313.85
409.481	387.58
409.69	287.23
409.898	356.86
410.107	305.66
410.315	309.76
410.524	401.91
410.733	360.95
410.941	338.43
411.15	471.54
411.358	422.39
411.567	457.21
411.775	469.5
411.984	502.26
412.192	477.69
412.401	510.46
412.609	530.94
412.818	584.18
413.026	563.7
413.234	547.32
413.443	582.14
413.651	543.22
413.86	682.49
414.068	705.01
414.276	717.3
414.485	598.52
414.693	778.74
414.901	895.47
415.11	791.03
415.318	887.28
415.526	778.74
415.734	920.05
415.943	899.57
416.151	918
416.359	864.75
416.567	975.35
416.776	991.73
416.984	1030.64
417.192	1090.03
417.4	1065.46
417.608	1176.05
417.817	1075.7
418.025	1130.99
418.233	1376.75
418.441	1319.4
418.649	1354.22
418.857	1423.85
419.065	1446.38
419.273	1354.22
419.481	1434.09
419.689	1556.97
419.897	1614.31
420.105	1704.42
420.313	1778.15
420.521	1769.96
420.729	1868.26
420.937	1888.74
421.145	2050.53
421.353	1968.61
421.561	2142.69
421.769	2191.84
421.977	2257.37
422.185	2286.05
422.393	2458.07
422.601	2619.86
422.809	2417.12
423.017	2517.47
423.224	2697.69
423.432	2740.69
423.64	2742.74
423.848	3115.47
424.056	2925.01
424.263	3123.66
424.471	3080.66
424.679	3264.97
424.887	3434.96
425.094	3375.56
425.302	3514.83
425.51	3621.32
425.718	3764.68
425.925	3908.04
426.133	3877.32
426.341	4104.64
426.548	4334.01
426.756	4231.62
426.964	4497.85
427.171	4592.06
427.379	4731.32
427.586	4862.39
427.794	4911.54
428.001	5206.45
428.209	5335.47
428.417	5353.9
428.624	5890.47
428.832	5677.48
429.039	5640.62
429.247	5755.3
429.454	6095.27
429.662	6578.59
429.869	6152.61
430.076	6572.44
430.284	6386.08
430.491	6701.47
430.699	7020.95
430.906	7029.14
431.114	7113.11
431.321	7508.37
431.528	7637.39
431.736	7985.54
431.943	8280.45
432.15	8231.3
432.358	8153.48
432.565	8726.91
432.772	8700.28
432.979	9048.44
433.187	9242.99
433.394	9355.63
433.601	9824.62
433.808	9804.14
434.016	9978.22
434.223	10129.77
434.43	10684.76
434.637	10733.92
434.844	11297.11
435.052	11655.5
435.259	11438.42
435.466	11530.58
435.673	11362.64
435.88	12071.24
436.087	12749.12
436.294	12863.8
436.501	12456.26
436.708	12751.17
436.915	13461.81
437.122	13846.83
437.329	13766.96
437.537	14111.02
437.743	14541.09
437.95	14450.98
438.157	14919.96
438.364	15544.59
438.571	15436.05
438.778	15415.57
438.985	16822.53
439.192	16283.91
439.399	16781.57
439.606	16318.73
439.813	17651.95
440.02	18518.25
440.227	18006.25
440.433	18055.4
440.64	18589.92
440.847	18399.46
441.054	18686.18
441.261	19906.77
441.467	19730.64
441.674	20007.12
441.881	21012.67
442.088	20799.68
442.294	20512.97
442.501	21012.67
442.708	21387.45
442.914	22257.84
443.121	23462.04
443.328	22481.06
443.534	24252.56
443.741	23683.22
443.948	23316.64
444.154	24963.2
444.361	25147.52
444.568	25006.21
444.774	24719.49
444.981	25235.58
445.187	25944.18
445.394	26986.6
445.6	26943.59
445.807	29147.2
446.013	27801.69
446.22	28276.82
446.426	29450.3
446.633	29935.67
446.839	31072.29
447.046	29534.27
447.252	31254.56
447.459	31197.22
447.665	31432.74
447.871	32831.5
448.078	33695.74
448.284	32307.22
448.491	33208.33
448.697	34428.91
448.903	35057.64
449.11	35418.08
449.316	34502.64
449.522	35395.56
449.728	36229.08
449.935	36321.24
450.141	36534.23
450.347	37435.33
450.553	36173.78
450.76	36595.67
450.966	37631.94
451.172	37398.47
451.378	38508.47
451.584	37808.06
451.791	38451.13
451.997	38440.89
452.203	39339.94
452.409	38963.12
452.615	39126.95
452.821	37275.59
453.027	36990.92
453.233	38647.73
453.44	37461.96
453.646	37722.05
453.852	37822.4
454.058	38954.93
454.264	37347.27
454.47	38250.42
454.676	37492.68
454.882	38653.87
455.088	35311.59
455.294	35907.55
455.5	35821.53
455.705	36663.25
455.911	34832.36
456.117	34574.32
456.323	33941.5
456.529	32196.63
456.735	33996.79
456.941	32528.4
457.147	32237.59
457.352	31176.74
457.558	31225.89
457.764	31139.88
457.97	30711.85
458.176	29620.28
458.381	29689.91
458.587	28278.86
458.793	28213.33
458.999	26900.58
459.204	29096
459.41	28080.21
459.616	26345.58
459.821	26312.81
460.027	26067.06
460.233	25448.57
460.438	24381.58
460.644	24692.87
460.85	23193.76
461.055	22915.23
461.261	23005.34
461.466	21246.14
461.672	20299.98
461.878	21891.25
462.083	20424.9
462.289	20355.27
462.494	20201.68
462.7	19390.68
462.905	18512.1
463.111	19173.6
463.316	19339.48
463.522	18868.45
463.727	18956.51
463.932	18878.69
464.138	18219.24
464.343	18561.25
464.549	17828.08
464.754	18747.62
464.959	18450.66
465.165	18231.53
465.37	17416.44
465.575	17232.12
465.781	17604.85
465.986	17832.18
466.191	17336.57
466.397	16974.08
466.602	15968.52
466.807	16607.49
467.012	16681.22
467.218	16304.39
467.423	15925.52
467.628	16515.33
467.833	17025.28
468.038	16257.29
468.244	15937.8
468.449	16443.65
468.654	15655.19
468.859	15513.88
469.064	15837.45
469.269	15298.84
469.474	15221.02
469.679	15409.43
469.885	14885.15
470.09	15225.11
470.295	15159.58
470.5	14610.72
470.705	14758.17
470.91	14590.24
471.115	14496.03
471.32	14502.18
471.525	14461.22
471.73	14176.55
471.935	14182.7
472.139	13754.67
472.344	13822.25
472.549	13558.07
472.754	13535.54
472.959	13199.67
473.164	12851.52
473.369	12650.81
473.574	13087.03
473.778	12978.49
473.983	12859.71
474.188	13060.41
474.393	12517.7
474.598	12357.96
474.802	12157.25
475.007	12136.77
475.212	12009.8
475.417	11653.45
475.621	11659.6
475.826	11749.71
476.031	11579.73
476.235	11266.39
476.44	11485.52
476.645	11266.39
476.849	11424.08
477.054	11145.56
477.259	10772.83
477.463	10860.89
477.668	10658.14
477.872	10969.43
478.077	10629.47
478.282	10207.59
478.486	10369.38
478.691	10260.84
478.895	10305.89
479.1	10137.96
479.304	10412.39
479.509	9943.4
479.713	9859.43
479.918	9826.67
480.122	9824.62
480.326	9789.8
480.531	9904.49
480.735	9873.77
480.94	9566.57
481.144	10031.46
481.348	9544.05
481.553	9601.39
481.757	9242.99
481.961	9410.93
482.166	9417.07
482.37	9488.75
482.574	9286
482.778	9417.07
482.983	9638.25
483.187	9603.44
483.391	9380.21
483.595	9380.21
483.8	9044.34
484.004	9470.32
484.208	9458.03
484.412	9357.68
484.616	9544.05
484.821	9564.53
485.025	9199.99
485.229	9398.64
485.433	9230.71
485.637	9314.67
485.841	9202.04
486.045	9118.07
486.249	9443.7
486.453	9083.25
486.657	9372.02
486.861	9316.72
487.065	9056.63
487.269	9146.74
487.473	9111.92
487.677	9187.7
487.881	9345.39
488.085	9179.51
488.289	9144.69
488.493	9152.88
488.697	9197.94
488.901	9351.54
489.105	9337.2
489.309	9585.01
489.512	9269.62
489.716	9306.48
489.92	9277.81
490.124	9126.26
490.328	9525.61
490.531	9234.8
490.735	9464.18
490.939	9490.8
491.143	9339.25
491.346	9382.26
491.55	9587.05
491.754	9617.77
491.958	9832.81
492.161	9460.08
492.365	9535.85
492.569	9666.92
492.772	9474.42
492.976	9519.47
493.18	9654.64
493.383	10041.7
493.587	9871.72
493.79	9998.7
493.994	9843.05
494.197	10117.48
494.401	10019.18
494.605	10021.22
494.808	10127.72
495.012	10369.38
495.215	10150.25
495.419	10297.7
495.622	10312.03
495.825	10412.39
496.029	10488.16
496.232	10563.93
496.436	10776.92
496.639	10770.78
496.843	10961.24
497.046	10973.53
497.249	11059.54
497.453	11116.89
497.656	11094.36
497.859	11270.48
498.063	11622.73
498.266	11389.27
498.469	11303.25
498.673	11671.89
498.876	11925.83
499.079	11733.32
499.282	11823.44
499.485	12212.55
499.689	12028.23
499.892	12427.59
500.095	12648.77
500.298	12599.62
500.501	12439.87
500.705	12697.92
500.908	13070.65
501.111	13039.93
501.314	13271.35
501.517	13394.23
501.72	13431.09
501.923	13377.84
502.126	13631.79
502.329	14074.15
502.532	13906.22
502.735	14031.15
502.938	14352.68
503.141	14301.48
503.344	14631.2
503.547	14510.37
503.75	14747.93
503.953	15034.65
504.156	14930.2
504.359	15180.06
504.562	15454.48
504.765	15704.34
504.968	15778.06
505.17	16056.59
505.373	15833.36
505.576	16181.51
505.779	15958.28
505.982	16474.37
506.185	16730.37
506.387	16781.57
506.59	16920.83
506.793	16920.83
506.996	17099
507.198	17326.33
507.401	17551.6
507.604	17959.15
507.807	18053.36
508.009	17955.05
508.212	18333.93
508.415	18518.25
508.617	18874.59
508.82	18823.39
509.022	18796.77
509.225	19060.96
509.428	19497.17
509.63	19316.95
509.833	19278.04
510.035	20056.27
510.238	19988.69
510.44	20109.52
510.643	20666.56
510.845	20869.31
511.048	20674.76
511.25	20912.32
511.453	21158.08
511.655	21862.58
511.858	21600.44
512.06	21893.3
512.262	21921.97
512.465	22040.75
512.667	22403.24
512.87	22354.09
513.072	22661.29
513.274	23021.73
513.477	23230.62
513.679	23066.78
513.881	23613.59
514.084	23744.66
514.286	23769.24
514.488	24139.92
514.69	24516.75
514.893	24606.86
515.095	24696.97
515.297	24848.52
515.499	25010.31
515.701	25090.18
515.904	25444.48
516.106	25749.62
516.308	25659.51
516.51	26214.51
516.712	26497.13
516.914	26773.61
517.116	27076.71
517.318	26724.46
517.52	27134.05
517.722	27226.21
517.925	27494.49
518.127	27754.58
518.329	27621.47
518.531	27891.8
518.733	28598.35
518.935	28688.46
519.136	28395.6
519.338	28819.53
519.54	29098.05
519.742	29478.97
519.944	29474.88
520.146	29665.34
520.348	29870.14
520.55	29923.38
520.752	29978.68
520.954	30677.04
521.155	30167.09
521.357	30459.95
521.559	30713.9
521.761	31242.28
521.963	31291.43
522.164	31584.29
522.366	31397.92
522.568	31531.04
522.77	31916.06
522.971	32047.13
523.173	31885.34
523.375	32083.99
523.576	32483.34
523.778	31938.58
523.98	32364.56
524.181	32786.44
524.383	32704.52
524.584	32806.92
524.786	33079.3
524.988	32790.54
525.189	33280
525.391	33357.83
525.592	33523.71
525.794	33320.96
525.995	33134.6
526.197	33325.06
526.398	33609.73
526.6	33562.62
526.801	33910.78
527.003	33843.2
527.204	33855.48
527.406	34082.81
527.607	34215.93
527.808	34050.04
528.01	33529.86
528.211	33398.79
528.412	34564.08
528.614	34187.25
528.815	34134.01
529.016	34697.2
529.218	33996.79
529.419	34273.27
529.62	34217.97
529.822	33986.55
530.023	34271.22
530.224	34281.46
530.425	34263.03
530.626	34082.81
530.828	33683.45
531.029	34199.54
531.23	34047.99
531.431	34181.11
531.632	34156.53
531.833	34101.24
532.035	34187.25
532.236	34263.03
532.437	34359.28
532.638	34269.17
532.839	34398.2
533.04	34154.49
533.241	33554.43
533.442	34037.75
533.643	34154.49
533.844	34066.42
534.045	33998.84
534.246	33363.97
534.447	34105.34
534.648	34117.62
534.849	33882.11
535.05	33781.76
535.251	34091
535.451	34103.29
535.652	33499.14
535.853	33609.73
536.054	33527.81
536.255	33699.84
536.456	33327.11
536.657	33861.63
536.857	33579.01
537.058	33247.24
537.259	33517.57
537.46	33693.69
537.66	33140.74
537.861	33394.69
538.062	33091.59
538.263	33363.97
538.463	33134.6
538.664	32989.19
538.865	33290.24
539.065	33193.99
539.266	32876.55
539.466	33329.16
539.667	32536.59
539.868	32978.95
540.068	32800.78
540.269	33046.54
540.469	33040.39
540.67	32694.29
540.87	32981
541.071	33077.26
541.271	32835.59
541.472	33091.59
541.672	32757.77
541.873	32833.55
542.073	32573.45
542.274	32901.13
542.474	32817.16
542.675	32579.6
542.875	33173.51
543.075	32831.5
543.276	32346.13
543.476	32903.18
543.676	32563.22
543.877	32587.79
544.077	32788.49
544.277	32677.9
544.478	32722.96
544.678	32854.03
544.878	32833.55
545.078	32622.61
545.279	31979.54
545.479	32497.68
545.679	32581.65
545.879	32286.74
546.079	32262.16
546.28	32346.13
546.48	32268.31
546.68	32587.79
546.88	32798.73
547.08	32426
547.28	32784.4
547.48	32083.99
547.68	32682
547.88	32389.14
548.081	32630.8
548.281	32546.83
548.481	32407.57
548.681	32495.63
548.881	32577.55
549.081	32755.72
549.28	32272.4
549.48	32808.97
549.68	32278.55
549.88	32745.48
550.08	32362.51
550.28	32344.08
550.48	32458.77
550.68	32454.67
550.88	32454.67
551.08	32378.9
551.279	32563.22
551.479	32415.76
551.679	32655.37
551.879	32761.87
552.079	32741.39
552.278	32935.95
552.478	32663.57
552.678	32720.91
552.878	32866.31
553.077	32671.76
553.277	32284.69
553.477	32851.98
553.676	32522.26
553.876	32366.61
554.076	32364.56
554.275	32913.42
554.475	32270.36
554.674	32729.1
554.874	32493.58
555.074	32645.13
555.273	32737.29
555.473	32884.75
555.672	32587.79
555.872	32823.31
556.071	33024.01
556.271	32923.66
556.47	33232.9
556.67	32194.58
556.869	32921.61
557.068	32823.31
557.268	32716.81
557.467	32682
557.667	32825.36
557.866	32841.74
558.065	32972.81
558.265	32651.28
558.464	32440.34
558.663	32858.12
558.863	32438.29
559.062	33148.93
559.261	32917.51
559.461	32999.43
559.66	32428.05
559.859	32776.2
560.058	32796.68
560.258	32931.85
560.457	32358.42
560.656	32669.71
560.855	32608.27
561.054	32610.32
561.253	32518.16
561.453	32886.79
561.652	32735.24
561.851	33036.3
562.05	32923.66
562.249	32401.43
562.448	32872.46
562.647	32710.67
562.846	32917.51
563.045	32868.36
563.244	32659.47
563.443	33058.82
563.642	32364.56
563.841	32841.74
564.04	32088.09
564.239	32798.73
564.438	32503.82
564.637	32733.2
564.836	32577.55
565.035	32086.04
565.234	32704.52
565.432	32419.86
565.631	31938.58
565.83	32352.27
566.029	32516.11
566.228	32321.55
566.427	32122.9
566.625	31549.47
566.824	31754.27
567.023	32127
567.222	31516.7
567.42	31836.19
567.619	32063.51
567.818	31766.56
568.016	31707.16
568.215	31959.06
568.414	31471.65
568.612	31889.43
568.811	31682.59
569.01	31985.69
569.208	31426.59
569.407	31741.98
569.605	31500.32
569.804	31334.43
570.002	31391.78
570.201	31569.95
570.4	31389.73
570.598	30894.12
570.797	30867.5
570.995	31060.01
571.193	30564.4
571.392	31100.97
571.59	30775.34
571.789	30914.6
571.987	30720.04
572.186	30740.52
572.384	30791.72
572.582	30728.24
572.781	30586.93
572.979	29921.34
573.177	30242.87
573.376	30597.17
573.574	30189.62
573.772	30222.39
573.971	30087.22
574.169	29851.7
574.367	29405.25
574.565	30009.4
574.763	29726.78
574.962	29677.63
575.16	29620.28
575.358	29603.9
575.556	29126.72
575.754	29835.32
575.952	29296.7
576.151	29356.1
576.349	29053
576.547	29141.06
576.745	29061.19
576.943	28919.88
577.141	29098.05
577.339	28852.3
577.537	28661.83
577.735	28631.12
577.933	28608.59
578.131	28858.44
578.329	28538.96
578.527	28211.28
578.725	28450.89
578.923	28612.68
579.121	28280.91
579.319	28084.31
579.516	28170.32
579.714	28262.48
579.912	27687
580.11	27938.9
580.308	28012.63
580.506	28041.3
580.704	27138.15
580.901	27799.64
581.099	27990.1
581.297	27373.66
581.495	27177.06
581.692	27549.79
581.89	27287.65
582.088	27488.35
582.285	26943.59
582.483	27164.77
582.681	27041.89
582.878	26876.01
583.076	26916.97
583.274	27213.92
583.471	26493.04
583.669	26888.29
583.866	26693.74
584.064	26577
584.262	26419.31
584.459	26515.56
584.657	26566.76
584.854	26792.04
585.052	25809.01
585.249	26335.34
585.447	26337.39
585.644	26095.73
585.841	26499.18
586.039	26011.76
586.236	25960.56
586.434	25825.4
586.631	25804.92
586.828	26017.91
587.026	25935.99
587.223	25964.66
587.42	25579.64
587.618	25770.1
587.815	24969.35
588.012	25587.83
588.21	25424
588.407	25809.01
588.604	25182.34
588.801	25331.84
588.999	25202.82
589.196	25419.9
589.393	25032.83
589.59	24948.87
589.787	25059.46
589.984	24699.02
590.182	24848.52
590.379	24817.8
590.576	24881.28
590.773	24995.97
590.97	24537.23
591.167	24737.93
591.364	24334.48
591.561	24608.9
591.758	24254.61
591.955	24535.18
592.152	24701.06
592.349	24412.3
592.546	24291.47
592.743	24250.51
592.94	23890.07
593.137	24144.02
593.334	24526.99
593.531	23740.57
593.727	24074.38
593.924	24047.76
594.121	24025.23
594.318	24004.75
594.515	24211.6
594.712	24207.5
594.908	23971.99
595.105	24064.14
595.302	23476.38
595.499	23855.25
595.696	23634.07
595.892	23806.1
596.089	23707.8
596.286	24133.78
596.482	23675.03
596.679	23642.26
596.876	23621.78
597.072	23517.34
597.269	23824.53
597.466	23177.37
597.662	23414.94
597.859	23318.68
598.055	23210.14
598.252	23341.21
598.448	23519.39
598.645	23373.98
598.841	23253.15
599.038	23361.69
599.234	23398.55
599.431	23179.42
599.627	22952.1
599.824	23314.59
600.02	23132.32
600.217	23564.44
600.413	23455.9
600.609	22818.98
600.806	23277.72
601.002	23459.99
601.198	23105.7
601.395	23249.05
601.591	23081.12
601.787	23398.55
601.984	23353.5
602.18	23277.72
602.376	23410.84
602.572	23216.29
602.769	23210.14
602.965	22882.47
603.161	23543.96
603.357	23220.38
603.553	23224.48
603.75	23195.81
603.946	23050.4
604.142	23322.78
604.338	23306.4
604.534	23648.41
604.73	23214.24
604.926	22986.91
605.122	23341.21
605.318	23146.65
605.514	23472.28
605.71	23582.87
605.906	23482.52
606.102	23541.91
606.298	23414.94
606.494	23513.24
606.69	23746.71
606.886	23531.67
607.082	23457.95
607.278	23726.23
607.474	23224.48
607.67	23740.57
607.866	23468.19
608.062	23892.12
608.257	23642.26
608.453	23607.45
608.649	23816.34
608.845	23640.22
609.041	23828.63
609.236	23953.55
609.432	23683.22
609.628	24047.76
609.824	23752.85
610.019	23951.51
610.215	23822.48
610.411	24219.79
610.606	24004.75
610.802	24191.12
610.998	23955.6
611.193	24178.83
611.389	23937.17
611.584	24058
611.78	24148.11
611.976	24412.3
612.171	24438.92
612.367	24318.09
612.562	24320.14
612.758	24055.95
612.953	23896.21
613.149	24475.79
613.344	24139.92
613.539	24428.68
613.735	24463.5
613.93	24383.63
614.126	24170.64
614.321	24592.52
614.517	24481.93
614.712	24500.36
614.907	24428.68
615.103	24664.2
615.298	24299.66
615.493	24563.85
615.688	24430.73
615.884	24952.96
616.079	24215.69
616.274	24391.82
616.47	24314
616.665	24709.25
616.86	24359.05
617.055	24375.44
617.25	24367.24
617.445	24324.24
617.641	24197.26
617.836	24412.3
618.031	24430.73
618.226	24336.52
618.421	23953.55
618.616	24424.59
618.811	24019.09
619.006	24299.66
619.201	23705.75
619.396	24094.86
619.591	23730.33
619.786	24072.34
619.981	23609.5
620.176	24031.38
620.371	23826.58
620.566	24008.85
620.761	23550.1
620.956	23703.7
621.151	23120.03
621.346	23591.06
621.541	23234.72
621.735	23550.1
621.93	23005.34
622.125	23132.32
622.32	22708.39
622.515	22866.08
622.709	22730.92
622.904	22659.24
623.099	22626.47
623.294	22577.32
623.488	22438.06
623.683	22450.35
623.878	22149.29
624.072	22147.25
624.267	21913.78
624.462	22378.67
624.656	21731.51
624.851	22085.81
625.046	21604.53
625.24	22007.98
625.435	21577.91
625.629	21612.73
625.824	21186.75
626.018	21293.24
626.213	20996.29
626.407	21125.31
626.602	20818.11
626.796	20920.51
626.991	20764.87
627.185	20662.47
627.38	20598.98
627.574	20562.12
627.768	20390.09
627.963	20013.26
628.157	20242.64
628.352	20283.59
628.546	19794.13
628.74	20181.2
628.935	19726.55
629.129	19849.43
629.323	19382.49
629.517	19509.46
629.712	19624.15
629.906	19390.68
630.1	18974.94
630.294	19249.37
630.489	19261.66
630.683	19196.12
630.877	18964.7
631.071	18677.99
631.265	18714.85
631.459	18624.74
631.653	18768.1
631.848	18401.51
632.042	18450.66
632.236	18563.3
632.43	18200.81
632.624	18358.5
632.818	17907.95
633.012	17502.45
633.206	17901.81
633.4	17807.6
633.594	17809.65
633.788	17789.17
633.982	17412.34
634.176	17817.84
634.369	17391.86
634.563	17527.03
634.757	17283.32
634.951	17191.16
635.145	17350.9
635.339	17129.72
635.533	16576.77
635.726	16834.82
635.92	16582.91
636.114	16664.83
636.308	16685.31
636.501	16529.67
636.695	16312.58
636.889	16390.41
637.083	16044.3
637.276	16345.35
637.47	16341.25
637.664	15935.76
637.857	15956.24
638.051	15577.36
638.244	15479.06
638.438	15401.24
638.632	15403.28
638.825	15493.4
639.019	15460.63
639.212	15153.43
639.406	15208.73
639.599	15120.67
639.793	14778.65
639.986	14811.42
640.18	14876.96
640.373	14854.43
640.567	14551.33
640.76	14573.86
640.954	14639.39
641.147	14530.85
641.34	14246.18
641.534	14311.72
641.727	14197.03
641.92	13842.73
642.114	14186.79
642.307	13930.8
642.5	13912.36
642.694	13519.15
642.887	13879.6
643.08	13824.3
643.273	13392.18
643.467	13373.75
643.66	13367.6
643.853	13269.3
644.046	13015.35
644.239	12966.2
644.432	12824.89
644.626	12937.53
644.819	12826.94
645.012	12771.65
645.205	12886.33
645.398	12689.73
645.591	12763.45
645.784	12505.41
645.977	12495.17
646.17	12370.24
646.363	12159.3
646.556	12179.78
646.749	12079.43
646.942	12265.8
647.135	11985.23
647.328	11948.36
647.521	12151.11
647.714	11850.06
647.907	11845.96
648.099	11841.87
648.292	11620.69
648.485	11665.74
648.678	11465.04
648.871	11456.85
649.064	11225.43
649.256	11321.68
649.449	11143.51
649.642	11088.21
649.835	11202.9
650.027	11188.57
650.22	11000.15
650.413	10905.95
650.605	10778.97
650.798	10955.1
650.991	10631.52
651.183	10750.3
651.376	10492.26
651.568	10660.19
651.761	10477.92
651.954	10535.26
652.146	10555.74
652.339	10453.34
652.531	10424.67
652.724	10217.83
652.916	10113.38
653.109	10346.85
653.301	10025.32
653.494	9924.97
653.686	9664.88
653.879	9920.87
654.071	9752.94
654.263	9914.73
654.456	9654.64
654.648	9820.52
654.84	9587.05
655.033	9580.91
655.225	9355.63
655.417	9488.75
655.61	9716.08
655.802	9482.61
655.994	9277.81
656.186	9341.3
656.379	9369.97
656.571	9509.23
656.763	8991.09
656.955	8872.31
657.148	9126.26
657.34	8999.29
657.532	8982.9
657.724	9048.44
657.916	8847.74
658.108	8839.55
658.3	8610.17
658.492	8700.28
658.684	8475.01
658.876	8634.75
659.068	8552.83
659.26	8366.46
659.452	8489.34
659.644	8495.49
659.836	8405.38
660.028	8315.27
660.22	8290.69
660.412	8442.24
660.604	8305.03
660.796	8231.3
660.988	8094.08
661.18	8094.08
661.372	7852.42
661.563	7975.3
661.755	7790.99
661.947	7823.75
662.139	7784.84
662.331	7758.22
662.522	7657.87
662.714	7672.2
662.906	7678.35
663.097	7659.92
663.289	7553.42
663.481	7422.35
663.673	7260.56
663.864	7350.67
664.056	7438.73
664.247	7469.45
664.439	7270.8
664.631	7248.27
664.822	7301.52
665.014	7221.65
665.205	7225.75
665.397	7281.04
665.588	7160.21
665.78	7057.81
665.971	7057.81
666.163	6936.98
666.354	6859.16
666.546	7084.44
666.737	6701.47
666.929	6783.38
667.12	6754.71
667.311	6752.66
667.503	6640.03
667.694	6721.95
667.885	6635.93
668.077	6678.94
668.268	6568.35
668.459	6408.61
668.651	6502.81
668.842	6568.35
669.033	6435.23
669.224	6410.65
669.416	6660.51
669.607	6373.79
669.798	6568.35
669.989	6373.79
670.18	6455.71
670.371	6308.26
670.563	6148.51
670.754	6242.72
670.945	6168.99
671.136	6175.14
671.327	6220.19
671.518	6027.68
671.709	6142.37
671.9	6232.48
672.091	6082.98
672.282	6072.74
672.473	6015.4
672.664	5953.96
672.855	5935.53
673.046	5869.99
673.237	5939.62
673.428	5886.37
673.619	5882.28
673.809	5829.03
674	5876.13
674.191	5751.21
674.382	5652.91
674.573	5802.41
674.764	5644.71
674.954	5931.43
675.145	5732.78
675.336	5792.17
675.527	5683.63
675.717	5712.3
675.908	5548.46
676.099	5523.88
676.289	5519.79
676.48	5566.89
676.671	5679.53
676.861	5607.85
677.052	5603.75
677.243	5345.71
677.433	5636.52
677.624	5595.56
677.814	5314.99
678.005	5466.54
678.195	5595.56
678.386	5636.52
678.576	5484.97
678.767	5470.64
678.957	5306.8
679.148	5513.64
679.338	5337.52
679.529	5487.02
679.719	5370.29
679.909	5437.87
680.1	5247.41
680.29	5450.16
680.481	5263.79
680.671	5355.95
680.861	5341.61
681.052	5317.04
681.242	5298.61
681.432	5351.85
681.622	5194.16
681.813	5374.38
682.003	5122.48
682.193	5253.55
682.383	5302.7
682.573	5347.76
682.764	5237.17
682.954	5114.29
683.144	5165.49
683.334	5235.12
683.524	5212.59
683.714	5120.43
683.904	5155.25
684.094	5132.72
684.284	5282.22
684.474	5087.67
684.664	5169.59
684.854	4989.36
685.044	5011.89
685.234	4981.17
685.424	5147.06
685.614	5034.42
685.804	5020.08
685.994	5226.93
686.184	5163.44
686.374	5032.37
686.564	4936.12
686.753	4975.03
686.943	5069.23
687.133	4876.73
687.323	5036.47
687.513	5054.9
687.702	5003.7
687.892	4901.3
688.082	4919.73
688.272	4999.6
688.461	4880.82
688.651	4759.99
688.841	4884.92
689.03	4839.86
689.22	4839.86
689.41	4932.02
689.599	4743.61
689.789	4714.94
689.979	4796.85
690.168	4817.33
690.358	4686.26
690.547	4755.9
690.737	4743.61
690.926	4762.04
691.116	4635.07
691.305	4596.15
691.495	4745.66
691.684	4614.59
691.874	4710.84
692.063	4710.84
692.252	4735.42
692.442	4805.05
692.631	4526.52
692.82	4663.74
693.01	4397.5
693.199	4506.04
693.388	4540.86
693.578	4596.15
693.767	4401.6
693.956	4510.14
694.146	4370.88
694.335	4555.19
694.524	4506.04
694.713	4463.04
694.902	4450.75
695.092	4354.49
695.281	4485.56
695.47	4612.54
695.659	4399.55
695.848	4395.45
696.037	4297.15
696.226	4397.5
696.415	4338.11
696.604	4456.89
696.793	4385.21
696.982	4301.25
697.171	4372.93
697.36	4424.12
697.549	4258.24
697.738	4291.01
697.927	4198.85
698.116	4362.69
698.305	4194.75
698.494	4260.29
698.683	4188.61
698.872	4227.52
699.061	4254.14
699.25	4235.71
699.438	4149.7
699.627	4256.19
699.816	4280.77
700.005	4129.22
700.193	4256.19
700.382	4139.46
700.571	4166.08
700.76	4106.69
700.948	4082.11
701.137	4075.97
701.326	4112.83
701.514	4073.92
701.703	4073.92
701.892	3912.13
702.08	4020.67
702.269	3981.76
702.457	4002.24
702.646	4024.77
702.834	4014.53
703.023	3908.04
703.212	3805.64
703.4	3930.56
703.589	3875.27
703.777	3918.28
703.965	3994.05
704.154	3856.84
704.342	3785.16
704.531	3793.35
704.719	3793.35
704.907	3809.73
705.096	3854.79
705.284	3883.46
705.472	3795.4
705.661	3746.25
705.849	3942.85
706.037	3834.31
706.226	3717.58
706.414	3781.06
706.602	3719.62
706.79	3793.35
706.979	3721.67
707.167	3645.9
707.355	3678.66
707.543	3572.17
707.731	3629.51
707.919	3543.5
708.107	3621.32
708.296	3609.03
708.484	3510.73
708.672	3504.59
708.86	3469.77
709.048	3639.75
709.236	3566.03
709.424	3592.65
709.612	3619.27
709.8	3533.26
709.988	3570.12
710.176	3553.74
710.364	3504.59
710.551	3543.5
710.739	3502.54
710.927	3473.87
711.115	3465.68
711.303	3465.68
711.491	3385.8
711.679	3437
711.866	3348.94
712.054	3525.07
712.242	3379.66
712.43	3334.61
712.617	3367.37
712.805	3287.5
712.993	3359.18
713.181	3281.36
713.368	3201.49
713.556	3367.37
713.744	3187.15
713.931	3334.61
714.119	3353.04
714.306	3375.56
714.494	3375.56
714.682	3236.3
714.869	3178.96
715.057	3246.54
715.244	3189.2
715.432	3178.96
715.619	3131.86
715.807	3154.38
715.994	3080.66
716.182	3187.15
716.369	3051.99
716.556	3170.77
716.744	3097.04
716.931	3172.82
717.119	3047.89
717.306	3088.85
717.493	3074.51
717.681	3125.71
717.868	2931.16
718.055	3131.86
718.242	3035.6
718.43	3023.31
718.617	3228.11
718.804	2968.02
718.991	3138
719.179	2867.67
719.366	3019.22
719.553	2949.59
719.74	3008.98
719.927	3002.83
720.114	3006.93
720.301	2832.85
720.488	3076.56
720.676	2929.11
720.863	2918.87
721.05	2822.61
721.237	2752.98
721.424	2888.15
721.611	2847.19
721.798	2947.54
721.985	2820.56
722.172	2824.66
722.358	2722.26
722.545	2728.41
722.732	2740.69
722.919	2892.24
723.106	2771.41
723.293	2757.08
723.48	2722.26
723.667	2691.54
723.853	2777.56
724.04	2800.09
724.227	2613.72
724.414	2839
724.6	2701.78
724.787	2568.66
724.974	2802.13
725.161	2587.1
725.347	2505.18
725.534	2611.67
725.72	2671.06
725.907	2564.57
726.094	2662.87
726.28	2605.53
726.467	2621.91
726.653	2617.82
726.84	2687.45
727.027	2626.01
727.213	2523.61
727.4	2533.85
727.586	2544.09
727.773	2519.51
727.959	2636.25
728.145	2591.19
728.332	2525.66
728.518	2564.57
728.705	2519.51
728.891	2630.1
729.077	2466.27
729.264	2302.43
729.45	2621.91
729.636	2599.38
729.823	2476.51
730.009	2468.31
730.195	2478.55
730.382	2421.21
730.568	2521.56
730.754	2441.69
730.94	2488.79
731.126	2386.4
731.313	2460.12
731.499	2435.55
731.685	2441.69
731.871	2232.8
732.057	2490.84
732.243	2310.62
732.429	2394.59
732.615	2339.29
732.801	2353.63
732.987	2277.85
733.173	2339.29
733.359	2263.52
733.545	2343.39
733.731	2197.98
733.917	2273.76
734.103	2341.34
734.289	2290.14
734.475	2279.9
734.661	2433.5
734.847	2324.96
735.033	2320.86
735.219	2427.35
735.404	2228.7
735.59	2304.48
735.776	2222.56
735.962	2286.05
736.148	2306.52
736.333	2302.43
736.519	2228.7
736.705	2204.13
736.89	2181.6
737.076	2163.17
737.262	2222.56
737.447	2359.77
737.633	2087.39
737.819	2286.05
738.004	2091.49
738.19	2122.21
738.375	2167.26
738.561	2154.98
738.747	2148.83
738.932	2044.38
739.118	2101.73
739.303	2179.55
739.489	2107.87
739.674	2097.63
739.859	2023.91
740.045	2079.2
740.23	1927.65
740.416	1950.18
740.601	2138.59
740.786	2044.38
740.972	2019.81
741.157	1984.99
741.342	1923.55
741.528	1937.89
741.713	1892.84
741.898	1966.56
742.084	2013.67
742.269	1913.31
742.454	2011.62
742.639	2091.49
742.824	1950.18
743.01	1952.23
743.195	1837.54
743.38	1925.6
743.565	1853.92
743.75	1941.99
743.935	1888.74
744.12	1917.41
744.305	1870.31
744.49	1878.5
744.675	1884.64
744.86	1802.72
745.045	1915.36
745.23	1784.29
745.415	1821.16
745.6	1880.55
745.785	1688.04
745.97	1843.68
746.155	1731.05
746.34	1733.09
746.525	1696.23
746.71	1749.48
746.895	1673.7
747.079	1731.05
747.264	1763.81
747.449	1720.81
747.634	1679.85
747.819	1745.38
748.003	1546.73
748.188	1706.47
748.373	1655.27
748.557	1712.61
748.742	1698.28
748.927	1632.74
749.111	1653.22
749.296	1532.39
749.481	1624.55
749.665	1569.26
749.85	1591.78
750.034	1573.35
750.219	1481.19
750.404	1470.95
750.588	1593.83
750.773	1554.92
750.957	1429.99
751.141	1569.26
751.326	1520.1
751.51	1505.77
751.695	1458.67
751.879	1548.78
752.064	1540.58
752.248	1380.84
752.432	1438.19
752.617	1401.32
752.801	1434.09
752.985	1444.33
753.17	1483.24
753.354	1436.14
753.538	1358.32
753.722	1384.94
753.907	1376.75
754.091	1284.59
754.275	1313.26
754.459	1284.59
754.643	1348.08
754.828	1249.77
755.012	1180.14
755.196	1225.2
755.38	1339.88
755.564	1212.91
755.748	1343.98
755.932	1266.16
756.116	1157.61
756.3	1227.25
756.484	1249.77
756.668	1294.83
756.852	1204.72
757.036	1171.95
757.22	1176.05
757.404	1198.57
757.588	1171.95
757.772	1161.71
757.956	1149.42
758.14	1137.13
758.323	1063.41
758.507	1278.44
758.691	1171.95
758.875	1122.8
759.059	1116.65
759.242	1090.03
759.426	1065.46
759.61	1032.69
759.794	985.58
759.977	1122.8
760.161	1184.24
760.345	999.92
760.528	1061.36
760.712	1092.08
760.895	1081.84
761.079	983.54
761.263	1065.46
761.446	1010.16
761.63	967.15
761.813	991.73
761.997	948.72
762.18	983.54
762.364	993.78
762.547	952.82
762.731	973.3
762.914	915.95
763.098	985.58
763.281	952.82
763.464	1036.78
763.648	967.15
763.831	885.23
764.015	819.7
764.198	1001.97
764.381	901.62
764.564	1069.55
764.748	928.24
764.931	961.01
765.114	915.95
765.297	895.47
765.481	995.82
765.664	928.24
765.847	897.52
766.03	983.54
766.213	901.62
766.397	940.53
766.58	872.95
766.763	854.51
766.946	881.14
767.129	909.81
767.312	840.18
767.495	836.08
767.678	942.58
767.861	848.37
768.044	852.47
768.227	877.04
768.41	846.32
768.593	905.71
768.776	868.85
768.959	907.76
769.142	897.52
769.324	750.07
769.507	885.23
769.69	887.28
769.873	823.8
770.056	870.9
770.239	928.24
770.421	860.66
770.604	846.32
770.787	844.28
770.97	860.66
771.152	803.32
771.335	772.6
771.518	739.83
771.7	838.13
771.883	885.23
772.066	766.45
772.248	737.78
772.431	778.74
772.613	836.08
772.796	770.55
772.978	803.32
773.161	823.8
773.343	776.69
773.526	723.44
773.708	721.4
773.891	748.02
774.073	754.16
774.256	786.93
774.438	717.3
774.621	762.36
774.803	655.86
774.985	698.87
775.168	713.21
775.35	655.86
775.532	774.64
775.715	657.91
775.897	776.69
776.079	664.05
776.261	713.21
776.444	668.15
776.626	713.21
776.808	713.21
776.99	575.99
777.173	602.61
777.355	586.23
777.537	596.47
777.719	641.53
777.901	651.77
778.083	598.52
778.265	621.05
778.447	659.96
778.629	549.37
778.811	641.53
778.993	623.09
779.175	582.14
779.357	559.61
779.539	586.23
779.721	592.37
779.903	541.18
780.085	610.81
780.267	559.61
780.449	567.8
780.631	608.76
780.812	612.85
780.994	535.03
781.176	612.85
781.358	522.74
781.54	545.27
781.721	590.33
781.903	567.8
782.085	520.7
782.267	475.64
782.448	494.07
782.63	494.07
782.812	512.5
782.993	569.85
783.175	469.5
783.357	512.5
783.538	569.85
783.72	500.22
783.901	453.11
784.083	426.49
784.264	510.46
784.446	471.54
784.627	420.35
784.809	500.22
784.99	530.94
785.172	526.84
785.353	379.39
785.535	541.18
785.716	539.13
785.897	426.49
786.079	479.74
786.26	377.34
786.441	555.51
786.623	467.45
786.804	451.07
786.985	416.25
787.167	354.81
787.348	393.72
787.529	446.97
787.71	438.78
787.891	459.26
788.073	381.43
788.254	387.58
788.435	369.15
788.616	444.92
788.797	369.15
788.978	385.53
789.159	418.3
789.34	422.39
789.522	330.23
789.703	352.76
789.884	383.48
790.065	397.82
790.246	453.11
790.427	332.28
790.607	328.19
790.788	377.34
790.969	324.09
791.15	401.91
791.331	373.24
791.512	352.76
791.693	281.08
791.874	299.52
792.054	469.5
792.235	457.21
792.416	303.61
792.597	299.52
792.778	344.57
792.958	328.19
793.139	346.62
793.32	352.76
793.5	270.84
793.681	387.58
793.862	295.42
794.042	309.76
794.223	315.9
794.404	317.95
794.584	315.9
794.765	283.13
794.945	344.57
795.126	291.32
795.306	369.15
795.487	309.76
795.667	334.33
795.848	369.15
796.028	211.45
796.209	229.88
796.389	322.04
796.57	317.95
796.75	303.61
796.93	240.12
797.111	279.04
797.291	250.36
797.471	279.04
797.652	256.51
797.832	320
798.012	270.84
798.192	227.84
798.373	217.6
798.553	260.6
798.733	299.52
798.913	217.6
799.093	266.75
799.274	305.66
799.454	266.75
799.634	336.38
799.814	223.74
799.994	217.6
800.174	311.8
800.354	268.8
800.534	233.98
800.714	238.08
800.894	193.02
801.074	160.25
801.254	193.02
801.434	279.04
801.614	209.4
801.794	270.84
801.974	901.62
802.154	283.13
802.334	270.84
802.514	225.79
802.693	164.35
802.873	186.88
803.053	213.5
803.233	190.97
803.413	233.98
803.592	193.02
803.772	258.56
803.952	256.51
804.131	197.12
804.311	246.27
804.491	377.34
804.67	250.36
804.85	221.69
805.03	246.27
805.209	320
805.389	201.21
805.568	209.4
805.748	205.31
805.928	199.16
806.107	184.83
806.287	190.97
806.466	213.5
806.646	236.03
806.825	287.23
807.004	180.73
807.184	166.4
807.363	221.69
807.543	168.45
807.722	229.88
807.901	131.58
808.081	225.79
808.26	115.2
808.439	197.12
808.619	131.58
808.798	213.5
808.977	215.55
809.156	188.93
809.336	166.4
809.515	252.41
809.694	162.3
809.873	166.4
810.052	193.02
810.231	213.5
810.411	156.16
810.59	219.64
810.769	270.84
810.948	160.25
811.127	53.76
811.306	164.35
811.485	150.01
811.664	229.88
811.843	186.88
812.022	137.73
812.201	123.39
812.38	176.64
812.559	123.39
812.737	186.88
812.916	160.25
813.095	41.47
813.274	117.25
813.453	168.45
813.632	172.54
813.811	205.31
813.989	135.68
814.168	182.78
814.347	100.86
814.526	141.82
814.704	123.39
814.883	193.02
815.062	135.68
815.24	246.27
815.419	98.81
815.598	172.54
815.776	115.2
815.955	90.62
816.133	135.68
816.312	141.82
816.49	139.77
816.669	123.39
816.847	92.67
817.026	96.77
817.204	197.12
817.383	66.05
817.561	131.58
817.74	158.21
817.918	152.06
818.097	82.43
818.275	156.16
818.453	166.4
818.632	94.72
818.81	137.73
818.988	78.33
819.167	143.87
819.345	162.3
819.523	90.62
819.701	107.01
819.879	125.44
820.058	188.93
820.236	133.63
820.414	109.05
820.592	76.29
820.77	174.59
820.948	178.69
821.127	78.33
821.305	131.58
821.483	215.55
821.661	139.77
821.839	70.14
822.017	107.01
822.195	82.43
822.373	188.93
822.551	143.87
822.729	150.01
822.907	82.43
823.085	102.91
823.262	82.43
823.44	123.39
823.618	98.81
823.796	180.73
823.974	121.34
824.152	49.66
824.329	86.53
824.507	86.53
824.685	139.77
824.863	74.24
825.04	20.99
825.218	119.29
825.396	57.86
825.574	109.05
825.751	90.62
825.929	90.62
826.107	109.05
826.284	156.16
826.462	74.24
826.639	129.53
826.817	76.29
826.994	33.28
827.172	98.81
827.349	117.25
827.527	92.67
827.704	107.01
827.882	78.33
828.059	100.86
828.237	76.29
828.414	170.49
828.591	35.33
828.769	49.66
828.946	-1.54
829.124	139.77
829.301	92.67
829.478	57.86
829.655	133.63
829.833	117.25
830.01	92.67
830.187	119.29
830.364	84.48
830.542	74.24
830.719	76.29
830.896	66.05
831.073	150.01
831.25	68.09
831.427	94.72
831.604	74.24
831.782	55.81
831.959	131.58
832.136	57.86
832.313	94.72
832.49	4.61
832.667	70.14
832.844	92.67
833.021	156.16
833.198	90.62
833.374	82.43
833.551	109.05
833.728	35.33
833.905	74.24
834.082	33.28
834.259	61.95
834.436	100.86
834.612	113.15
834.789	84.48
834.966	49.66
835.143	49.66
835.319	-15.87
835.496	96.77
835.673	133.63
835.85	186.88
836.026	49.66
836.203	90.62
836.38	139.77
836.556	123.39
836.733	39.42
836.909	98.81
837.086	66.05
837.262	-17.92
837.439	57.86
837.616	66.05
837.792	94.72
837.968	154.11
838.145	-22.02
838.321	84.48
838.498	88.57
838.674	84.48
838.851	123.39
839.027	145.92
839.203	57.86
839.38	137.73
839.556	100.86
839.732	143.87
839.909	53.76
840.085	43.52
840.261	109.05
840.437	82.43
840.614	68.09
840.79	123.39
840.966	57.86
841.142	61.95
841.318	8.7
841.494	86.53
841.671	49.66
841.847	49.66
842.023	35.33
842.199	66.05
842.375	20.99
842.551	51.71
842.727	57.86
842.903	129.53
843.079	4.61
843.255	53.76
843.431	-11.78
843.607	51.71
843.783	2.56
843.959	59.9
844.134	8.7
844.31	53.76
844.486	74.24
844.662	12.8
844.838	51.71
845.013	121.34
845.189	82.43
845.365	41.47
845.541	92.67
845.716	10.75
845.892	98.81
846.068	-32.26
846.244	-7.68
846.419	135.68
846.595	72.19
846.77	29.18
846.946	125.44
847.122	29.18
847.297	86.53
847.473	45.57
847.648	18.94
847.824	41.47
847.999	55.81
848.175	41.47
848.35	66.05
848.526	43.52
848.701	125.44
848.876	25.09
849.052	115.2
849.227	2.56
849.403	6.66
849.578	66.05
849.753	51.71
849.929	25.09
850.104	41.47
850.279	20.99
850.454	115.2
850.63	8.7
850.805	47.62
850.98	43.52
851.155	39.42
851.33	70.14
851.505	53.76
851.681	121.34
851.856	61.95
852.031	82.43
852.206	-36.35
852.381	33.28
852.556	76.29
852.731	31.23
852.906	45.57
853.081	82.43
853.256	104.96
853.431	94.72
853.606	55.81
853.781	-19.97
853.956	-46.59
854.131	45.57
854.305	43.52
854.48	-40.45
854.655	41.47
854.83	-40.45
855.005	16.9
855.18	49.66
855.354	-30.21
855.529	57.86
855.704	8.7
855.879	57.86
856.053	-13.82
856.228	84.48
856.403	57.86
856.577	-22.02
856.752	16.9
856.926	16.9
857.101	4.61
857.276	35.33
857.45	53.76
857.625	107.01
857.799	49.66
857.974	90.62
858.148	59.9
858.323	98.81
858.497	61.95
858.672	0.51
858.846	33.28
859.02	16.9
859.195	14.85
859.369	82.43
859.543	31.23
859.718	-24.06
859.892	80.38
860.066	-5.63
860.241	41.47
860.415	-42.5
860.589	39.42
860.763	12.8
860.938	39.42
861.112	78.33
861.286	-15.87
861.46	25.09
861.634	16.9
861.808	78.33
861.982	-24.06
862.157	31.23
862.331	57.86
862.505	76.29
862.679	8.7
862.853	4.61
863.027	43.52
863.201	84.48
863.375	-3.58
863.549	70.14
863.722	25.09
863.896	57.86
864.07	-28.16
864.244	98.81
864.418	37.38
864.592	37.38
864.766	43.52
864.939	35.33
865.113	-3.58
865.287	25.09
865.461	10.75
865.634	57.86
865.808	90.62
865.982	49.66
866.156	39.42
866.329	10.75
866.503	70.14
866.676	29.18
866.85	16.9
867.024	29.18
867.197	23.04
867.371	53.76
867.544	-13.82
867.718	8.7
867.891	102.91
868.065	35.33
868.238	61.95
868.412	35.33
868.585	0.51
868.759	27.14
868.932	4.61
869.105	39.42
869.279	-44.54
869.452	-40.45
869.625	23.04
869.799	0.51
869.972	-48.64
870.145	55.81
870.319	92.67
870.492	18.94
870.665	35.33
870.838	6.66
871.011	-40.45
871.185	-3.58
871.358	12.8
871.531	78.33
871.704	-89.6
871.877	96.77
872.05	57.86
872.223	59.9
872.396	39.42
872.569	20.99
872.742	-52.74
872.915	16.9
873.088	37.38
873.261	-7.68
873.434	66.05
873.607	82.43
873.78	53.76
873.953	-7.68
874.126	27.14
874.299	68.09
874.471	-7.68
874.644	64
874.817	76.29
874.99	70.14
875.163	68.09
875.335	68.09
875.508	-30.21
875.681	57.86
875.853	10.75
876.026	8.7
876.199	61.95
876.371	43.52
876.544	8.7
876.717	18.94
876.889	-26.11
877.062	59.9
877.234	-24.06
877.407	33.28
877.579	51.71
877.752	0.51
877.924	2.56
878.097	80.38
878.269	53.76
878.442	41.47
878.614	61.95
878.786	-38.4
878.959	16.9
879.131	14.85
879.303	53.76
879.476	74.24
879.648	74.24
879.82	0.51
879.993	-11.78
880.165	35.33
880.337	0.51
880.509	31.23
880.681	-7.68
880.854	2.56
881.026	57.86
881.198	147.97
881.37	55.81
881.542	0.51
881.714	25.09
881.886	72.19
882.058	18.94
882.23	68.09
882.402	-19.97
882.574	16.9
882.746	74.24
882.918	33.28
883.09	16.9
883.262	45.57
883.434	-7.68
883.606	-11.78
883.778	-24.06
883.95	35.33
884.122	45.57
884.293	92.67
884.465	8.7
884.637	0.51
884.809	14.85
884.98	74.24
885.152	33.28
885.324	41.47
885.496	41.47
885.667	41.47
885.839	0.51
886.011	51.71
886.182	70.14
886.354	10.75
886.525	43.52
886.697	74.24
886.869	8.7
887.04	27.14
887.212	100.86
887.383	115.2
887.555	27.14
887.726	-22.02
887.897	-28.16
888.069	35.33
888.24	27.14
888.412	66.05
888.583	0.51
888.754	-15.87
888.926	18.94
889.097	-7.68
889.268	-3.58
889.44	-46.59
889.611	27.14
889.782	51.71
889.953	47.62
890.125	31.23
890.296	-5.63
890.467	-5.63
890.638	8.7
890.809	8.7
890.98	-32.26
891.151	39.42
891.323	18.94
891.494	35.33
891.665	-19.97
891.836	8.7
892.007	25.09
892.178	61.95
892.349	14.85
892.52	-50.69
892.691	-15.87
892.862	109.05
893.032	-56.83
893.203	20.99
893.374	23.04
893.545	84.48
893.716	-40.45
893.887	18.94
894.057	-3.58
894.228	8.7
894.399	8.7
894.57	98.81
894.74	-30.21
894.911	16.9
895.082	-38.4
895.253	25.09
895.423	2.56
895.594	49.66
895.764	43.52
895.935	-48.64
896.106	23.04
896.276	53.76
896.447	57.86
896.617	27.14
896.788	39.42
896.958	25.09
897.129	-40.45
897.299	2.56
897.47	-15.87
897.64	57.86
897.81	16.9
897.981	-9.73
898.151	-26.11
898.322	12.8
898.492	-22.02
898.662	-3.58
898.832	33.28
899.003	20.99
899.173	-3.58
899.343	-1.54
899.513	-36.35
