Data from USB4F104151__223__14-33-54-515.txt Node

Date: Thu Mar 13 14:33:54 EDT 2025
User: louis
Spectrometer: USB4F10415
Trigger mode: 4
Integration Time (sec): 2.500000E-2
Scans to average: 1
Electric dark correction enabled: true
Nonlinearity correction enabled: false
Boxcar width: 0
XAxis mode: Wavelengths
Number of Pixels in Spectrum: 3648
>>>>>Begin Spectral Data<<<<<
178.204	-182.78
178.424	-182.78
178.644	-182.78
178.864	-166.4
179.084	-166.4
179.304	-55.81
179.524	-49.66
179.744	22.02
179.964	116.22
180.184	32.26
180.404	38.4
180.624	-16.9
180.844	1.54
181.064	-47.62
181.283	26.11
181.503	-59.9
181.723	-6.66
181.943	-29.18
182.163	30.21
182.383	-2.56
182.602	95.74
182.822	24.06
183.042	38.4
183.262	-25.09
183.482	-23.04
183.701	30.21
183.921	36.35
184.141	28.16
184.361	22.02
184.58	-33.28
184.8	-39.42
185.02	-57.86
185.239	52.74
185.459	48.64
185.679	65.02
185.898	-61.95
186.118	30.21
186.338	48.64
186.557	-2.56
186.777	-68.09
186.997	-16.9
187.216	-2.56
187.436	62.98
187.655	50.69
187.875	34.3
188.095	9.73
188.314	87.55
188.534	142.85
188.753	108.03
188.973	32.26
189.192	56.83
189.412	5.63
189.631	58.88
189.851	40.45
190.07	122.37
190.29	-41.47
190.509	54.78
190.729	120.32
190.948	52.74
191.168	187.9
191.387	146.94
191.607	32.26
191.826	5.63
192.045	-31.23
192.265	42.5
192.484	79.36
192.704	58.88
192.923	-66.05
193.142	36.35
193.362	103.93
193.581	114.17
193.8	65.02
194.02	50.69
194.239	-37.38
194.458	-31.23
194.678	-59.9
194.897	26.11
195.116	50.69
195.335	81.41
195.555	-2.56
195.774	-2.56
195.993	54.78
196.212	105.98
196.432	-14.85
196.651	-2.56
196.87	40.45
197.089	161.28
197.308	65.02
197.528	46.59
197.747	-8.7
197.966	101.89
198.185	52.74
198.404	26.11
198.623	46.59
198.842	32.26
199.062	87.55
199.281	81.41
199.5	-16.9
199.719	13.82
199.938	95.74
200.157	114.17
200.376	13.82
200.595	32.26
200.814	75.26
201.033	1.54
201.252	87.55
201.471	38.4
201.69	-16.9
201.909	34.3
202.128	17.92
202.347	81.41
202.566	-4.61
202.785	22.02
203.004	-20.99
203.223	69.12
203.442	56.83
203.661	-16.9
203.879	50.69
204.098	58.88
204.317	-2.56
204.536	81.41
204.755	-14.85
204.974	48.64
205.193	19.97
205.411	112.13
205.63	50.69
205.849	26.11
206.068	30.21
206.287	9.73
206.505	3.58
206.724	46.59
206.943	75.26
207.162	-0.51
207.381	99.84
207.599	-10.75
207.818	32.26
208.037	112.13
208.255	13.82
208.474	75.26
208.693	73.21
208.911	65.02
209.13	9.73
209.349	42.5
209.567	40.45
209.786	5.63
210.005	62.98
210.223	-2.56
210.442	30.21
210.661	58.88
210.879	36.35
211.098	-8.7
211.316	58.88
211.535	62.98
211.753	13.82
211.972	30.21
212.191	-25.09
212.409	19.97
212.628	62.98
212.846	-18.94
213.065	108.03
213.283	-6.66
213.502	46.59
213.72	-39.42
213.938	9.73
214.157	48.64
214.375	46.59
214.594	26.11
214.812	44.54
215.031	40.45
215.249	-0.51
215.467	30.21
215.686	30.21
215.904	17.92
216.122	62.98
216.341	151.04
216.559	65.02
216.778	60.93
216.996	79.36
217.214	5.63
217.432	38.4
217.651	42.5
217.869	9.73
218.087	89.6
218.306	71.17
218.524	5.63
218.742	30.21
218.96	48.64
219.179	-16.9
219.397	38.4
219.615	89.6
219.833	112.13
220.051	-76.29
220.27	112.13
220.488	30.21
220.706	71.17
220.924	19.97
221.142	81.41
221.36	32.26
221.578	-16.9
221.796	7.68
222.015	-43.52
222.233	28.16
222.451	103.93
222.669	34.3
222.887	-10.75
223.105	71.17
223.323	54.78
223.541	38.4
223.759	-23.04
223.977	40.45
224.195	17.92
224.413	50.69
224.631	91.65
224.849	-4.61
225.067	89.6
225.285	32.26
225.503	13.82
225.721	-51.71
225.939	62.98
226.157	46.59
226.375	79.36
226.592	-33.28
226.81	40.45
227.028	75.26
227.246	71.17
227.464	-53.76
227.682	54.78
227.9	97.79
228.117	65.02
228.335	54.78
228.553	81.41
228.771	71.17
228.989	120.32
229.206	-12.8
229.424	22.02
229.642	-25.09
229.86	-18.94
230.077	-6.66
230.295	-0.51
230.513	65.02
230.731	73.21
230.948	-0.51
231.166	89.6
231.384	28.16
231.601	13.82
231.819	93.69
232.037	71.17
232.254	1.54
232.472	36.35
232.689	50.69
232.907	95.74
233.125	-0.51
233.342	46.59
233.56	-2.56
233.777	42.5
233.995	75.26
234.213	101.89
234.43	-14.85
234.648	34.3
234.865	-4.61
235.083	38.4
235.3	62.98
235.518	46.59
235.735	58.88
235.953	71.17
236.17	19.97
236.388	75.26
236.605	65.02
236.822	89.6
237.04	62.98
237.257	73.21
237.475	3.58
237.692	-51.71
237.909	48.64
238.127	38.4
238.344	101.89
238.562	-10.75
238.779	15.87
238.996	46.59
239.214	62.98
239.431	46.59
239.648	-27.14
239.865	83.45
240.083	46.59
240.3	38.4
240.517	83.45
240.735	1.54
240.952	95.74
241.169	58.88
241.386	-0.51
241.603	75.26
241.821	44.54
242.038	30.21
242.255	26.11
242.472	-86.53
242.689	46.59
242.907	32.26
243.124	-25.09
243.341	79.36
243.558	5.63
243.775	13.82
243.992	-16.9
244.209	62.98
244.426	112.13
244.643	79.36
244.86	56.83
245.078	93.69
245.295	50.69
245.512	40.45
245.729	-23.04
245.946	-31.23
246.163	67.07
246.38	11.78
246.597	46.59
246.814	5.63
247.031	17.92
247.248	71.17
247.464	32.26
247.681	87.55
247.898	22.02
248.115	50.69
248.332	48.64
248.549	71.17
248.766	91.65
248.983	79.36
249.2	24.06
249.417	48.64
249.633	81.41
249.85	-0.51
250.067	15.87
250.284	32.26
250.501	42.5
250.717	46.59
250.934	-72.19
251.151	67.07
251.368	13.82
251.585	52.74
251.801	32.26
252.018	71.17
252.235	46.59
252.451	-8.7
252.668	-6.66
252.885	77.31
253.102	13.82
253.318	42.5
253.535	-6.66
253.752	48.64
253.968	-18.94
254.185	-16.9
254.401	32.26
254.618	65.02
254.835	-10.75
255.051	87.55
255.268	95.74
255.484	79.36
255.701	13.82
255.917	93.69
256.134	-27.14
256.351	22.02
256.567	24.06
256.784	91.65
257	26.11
257.217	42.5
257.433	136.7
257.65	38.4
257.866	101.89
258.082	1.54
258.299	-2.56
258.515	73.21
258.732	-4.61
258.948	95.74
259.165	-47.62
259.381	9.73
259.597	46.59
259.814	17.92
260.03	-10.75
260.246	19.97
260.463	54.78
260.679	77.31
260.895	108.03
261.112	13.82
261.328	54.78
261.544	48.64
261.761	81.41
261.977	50.69
262.193	24.06
262.409	87.55
262.626	-16.9
262.842	24.06
263.058	54.78
263.274	71.17
263.49	56.83
263.707	15.87
263.923	38.4
264.139	67.07
264.355	58.88
264.571	22.02
264.787	7.68
265.004	62.98
265.22	26.11
265.436	75.26
265.652	-18.94
265.868	81.41
266.084	-0.51
266.3	34.3
266.516	101.89
266.732	42.5
266.948	15.87
267.164	67.07
267.38	54.78
267.596	50.69
267.812	19.97
268.028	77.31
268.244	62.98
268.46	30.21
268.676	42.5
268.892	46.59
269.108	-31.23
269.324	-4.61
269.54	-14.85
269.756	69.12
269.972	26.11
270.188	-23.04
270.403	30.21
270.619	46.59
270.835	65.02
271.051	-0.51
271.267	36.35
271.483	56.83
271.698	-10.75
271.914	26.11
272.13	42.5
272.346	38.4
272.562	5.63
272.777	114.17
272.993	13.82
273.209	81.41
273.425	15.87
273.64	7.68
273.856	9.73
274.072	15.87
274.287	1.54
274.503	116.22
274.719	62.98
274.934	48.64
275.15	-0.51
275.366	5.63
275.581	22.02
275.797	24.06
276.012	87.55
276.228	65.02
276.444	93.69
276.659	67.07
276.875	22.02
277.09	-2.56
277.306	46.59
277.521	34.3
277.737	26.11
277.952	5.63
278.168	22.02
278.383	24.06
278.599	22.02
278.814	89.6
279.03	83.45
279.245	97.79
279.461	13.82
279.676	75.26
279.892	7.68
280.107	36.35
280.322	38.4
280.538	73.21
280.753	32.26
280.969	79.36
281.184	38.4
281.399	81.41
281.615	13.82
281.83	28.16
282.045	11.78
282.26	50.69
282.476	-20.99
282.691	-51.71
282.906	-4.61
283.122	95.74
283.337	-35.33
283.552	54.78
283.767	32.26
283.983	108.03
284.198	48.64
284.413	81.41
284.628	19.97
284.843	38.4
285.058	105.98
285.274	19.97
285.489	40.45
285.704	19.97
285.919	-0.51
286.134	30.21
286.349	7.68
286.564	22.02
286.779	97.79
286.995	32.26
287.21	22.02
287.425	81.41
287.64	30.21
287.855	44.54
288.07	42.5
288.285	95.74
288.5	62.98
288.715	112.13
288.93	-2.56
289.145	-72.19
289.36	1.54
289.575	54.78
289.79	38.4
290.004	71.17
290.219	69.12
290.434	3.58
290.649	15.87
290.864	9.73
291.079	13.82
291.294	22.02
291.509	71.17
291.724	3.58
291.938	38.4
292.153	97.79
292.368	26.11
292.583	99.84
292.798	-6.66
293.012	87.55
293.227	46.59
293.442	83.45
293.657	75.26
293.871	71.17
294.086	1.54
294.301	130.56
294.516	87.55
294.73	81.41
294.945	17.92
295.16	-14.85
295.374	140.8
295.589	46.59
295.804	-33.28
296.018	73.21
296.233	75.26
296.447	87.55
296.662	54.78
296.877	54.78
297.091	81.41
297.306	54.78
297.52	38.4
297.735	30.21
297.949	-43.52
298.164	13.82
298.378	26.11
298.593	-18.94
298.807	-35.33
299.022	-25.09
299.236	5.63
299.451	65.02
299.665	103.93
299.88	-31.23
300.094	122.37
300.309	87.55
300.523	65.02
300.737	-64
300.952	124.41
301.166	62.98
301.381	-0.51
301.595	40.45
301.809	44.54
302.024	-16.9
302.238	38.4
302.452	128.51
302.667	38.4
302.881	99.84
303.095	5.63
303.309	46.59
303.524	79.36
303.738	73.21
303.952	-12.8
304.166	42.5
304.381	-2.56
304.595	91.65
304.809	58.88
305.023	97.79
305.237	-8.7
305.452	7.68
305.666	62.98
305.88	128.51
306.094	42.5
306.308	26.11
306.522	60.93
306.736	15.87
306.95	120.32
307.164	95.74
307.379	75.26
307.593	122.37
307.807	22.02
308.021	85.5
308.235	34.3
308.449	62.98
308.663	13.82
308.877	81.41
309.091	34.3
309.305	30.21
309.519	7.68
309.733	95.74
309.947	69.12
310.161	13.82
310.374	67.07
310.588	99.84
310.802	71.17
311.016	83.45
311.23	136.7
311.444	-18.94
311.658	11.78
311.872	30.21
312.085	83.45
312.299	79.36
312.513	50.69
312.727	87.55
312.941	50.69
313.154	56.83
313.368	81.41
313.582	91.65
313.796	85.5
314.009	30.21
314.223	71.17
314.437	32.26
314.651	30.21
314.864	46.59
315.078	-8.7
315.292	46.59
315.505	22.02
315.719	5.63
315.933	62.98
316.146	5.63
316.36	-29.18
316.573	114.17
316.787	81.41
317.001	73.21
317.214	9.73
317.428	56.83
317.641	7.68
317.855	32.26
318.068	62.98
318.282	7.68
318.495	87.55
318.709	99.84
318.922	38.4
319.136	91.65
319.349	54.78
319.563	52.74
319.776	71.17
319.99	-35.33
320.203	7.68
320.417	19.97
320.63	93.69
320.843	95.74
321.057	44.54
321.27	-0.51
321.483	69.12
321.697	89.6
321.91	32.26
322.124	50.69
322.337	62.98
322.55	22.02
322.763	69.12
322.977	17.92
323.19	-35.33
323.403	81.41
323.617	15.87
323.83	105.98
324.043	75.26
324.256	73.21
324.469	22.02
324.683	103.93
324.896	24.06
325.109	120.32
325.322	-0.51
325.535	71.17
325.748	79.36
325.962	17.92
326.175	17.92
326.388	87.55
326.601	15.87
326.814	30.21
327.027	46.59
327.24	95.74
327.453	15.87
327.666	103.93
327.879	105.98
328.092	120.32
328.305	95.74
328.518	103.93
328.731	26.11
328.944	65.02
329.157	62.98
329.37	-10.75
329.583	81.41
329.796	60.93
330.009	-8.7
330.222	58.88
330.435	40.45
330.648	71.17
330.861	52.74
331.073	79.36
331.286	56.83
331.499	40.45
331.712	-43.52
331.925	-8.7
332.138	3.58
332.35	81.41
332.563	56.83
332.776	62.98
332.989	75.26
333.202	40.45
333.414	-10.75
333.627	105.98
333.84	-27.14
334.053	-37.38
334.265	30.21
334.478	56.83
334.691	65.02
334.903	62.98
335.116	65.02
335.329	9.73
335.541	89.6
335.754	128.51
335.966	3.58
336.179	93.69
336.392	42.5
336.604	32.26
336.817	50.69
337.029	38.4
337.242	62.98
337.454	54.78
337.667	54.78
337.88	62.98
338.092	22.02
338.305	71.17
338.517	50.69
338.729	73.21
338.942	30.21
339.154	79.36
339.367	32.26
339.579	32.26
339.792	32.26
340.004	22.02
340.217	87.55
340.429	71.17
340.641	75.26
340.854	17.92
341.066	103.93
341.278	112.13
341.491	69.12
341.703	62.98
341.915	5.63
342.128	85.5
342.34	83.45
342.552	34.3
342.764	79.36
342.977	71.17
343.189	-10.75
343.401	112.13
343.613	-2.56
343.826	67.07
344.038	9.73
344.25	83.45
344.462	30.21
344.674	91.65
344.886	28.16
345.099	42.5
345.311	67.07
345.523	17.92
345.735	-45.57
345.947	52.74
346.159	48.64
346.371	65.02
346.583	54.78
346.795	99.84
347.007	-16.9
347.219	95.74
347.431	5.63
347.643	79.36
347.855	56.83
348.067	130.56
348.279	95.74
348.491	30.21
348.703	114.17
348.915	24.06
349.127	-10.75
349.339	-0.51
349.551	7.68
349.763	93.69
349.975	38.4
350.187	38.4
350.399	103.93
350.61	46.59
350.822	58.88
351.034	56.83
351.246	69.12
351.458	9.73
351.669	50.69
351.881	81.41
352.093	99.84
352.305	114.17
352.517	73.21
352.728	157.18
352.94	73.21
353.152	116.22
353.363	-10.75
353.575	-12.8
353.787	83.45
353.999	128.51
354.21	95.74
354.422	-14.85
354.633	95.74
354.845	108.03
355.057	95.74
355.268	40.45
355.48	50.69
355.692	54.78
355.903	120.32
356.115	54.78
356.326	-51.71
356.538	32.26
356.749	108.03
356.961	71.17
357.172	46.59
357.384	48.64
357.595	83.45
357.807	67.07
358.018	1.54
358.23	48.64
358.441	65.02
358.653	32.26
358.864	-27.14
359.075	5.63
359.287	105.98
359.498	3.58
359.709	105.98
359.921	-8.7
360.132	-4.61
360.344	22.02
360.555	3.58
360.766	105.98
360.977	22.02
361.189	54.78
361.4	122.37
361.611	54.78
361.823	159.23
362.034	87.55
362.245	13.82
362.456	54.78
362.667	62.98
362.879	75.26
363.09	26.11
363.301	124.41
363.512	122.37
363.723	28.16
363.935	42.5
364.146	9.73
364.357	46.59
364.568	58.88
364.779	40.45
364.99	116.22
365.201	62.98
365.412	50.69
365.623	30.21
365.834	71.17
366.045	71.17
366.256	71.17
366.467	85.5
366.678	99.84
366.889	101.89
367.1	79.36
367.311	71.17
367.522	24.06
367.733	7.68
367.944	42.5
368.155	73.21
368.366	126.46
368.577	120.32
368.788	103.93
368.999	120.32
369.209	71.17
369.42	171.52
369.631	144.89
369.842	87.55
370.053	36.35
370.264	62.98
370.474	65.02
370.685	110.08
370.896	50.69
371.107	202.24
371.317	67.07
371.528	30.21
371.739	122.37
371.95	136.7
372.16	46.59
372.371	13.82
372.582	62.98
372.792	75.26
373.003	105.98
373.214	58.88
373.424	71.17
373.635	93.69
373.846	157.18
374.056	13.82
374.267	65.02
374.477	65.02
374.688	62.98
374.898	38.4
375.109	26.11
375.319	56.83
375.53	81.41
375.74	62.98
375.951	79.36
376.161	65.02
376.372	130.56
376.582	46.59
376.793	24.06
377.003	38.4
377.214	112.13
377.424	73.21
377.635	50.69
377.845	1.54
378.055	118.27
378.266	42.5
378.476	112.13
378.686	13.82
378.897	79.36
379.107	69.12
379.317	67.07
379.528	83.45
379.738	120.32
379.948	103.93
380.158	138.75
380.369	97.79
380.579	103.93
380.789	40.45
380.999	71.17
381.21	103.93
381.42	132.61
381.63	44.54
381.84	13.82
382.05	161.28
382.261	56.83
382.471	99.84
382.681	71.17
382.891	89.6
383.101	124.41
383.311	42.5
383.521	89.6
383.731	95.74
383.941	48.64
384.151	5.63
384.361	46.59
384.571	60.93
384.781	114.17
384.991	120.32
385.201	187.9
385.411	179.71
385.621	95.74
385.831	103.93
386.041	54.78
386.251	97.79
386.461	103.93
386.671	65.02
386.881	71.17
387.091	30.21
387.301	58.88
387.511	15.87
387.72	136.7
387.93	38.4
388.14	-8.7
388.35	50.69
388.56	138.75
388.769	56.83
388.979	114.17
389.189	95.74
389.399	34.3
389.609	60.93
389.818	185.85
390.028	50.69
390.238	122.37
390.447	50.69
390.657	62.98
390.867	42.5
391.076	48.64
391.286	38.4
391.496	40.45
391.705	122.37
391.915	144.89
392.125	130.56
392.334	58.88
392.544	146.94
392.753	71.17
392.963	95.74
393.172	99.84
393.382	-10.75
393.591	136.7
393.801	34.3
394.01	79.36
394.22	69.12
394.429	28.16
394.639	108.03
394.848	108.03
395.058	38.4
395.267	97.79
395.477	108.03
395.686	136.7
395.895	259.58
396.105	261.63
396.314	103.93
396.524	136.7
396.733	103.93
396.942	144.89
397.152	153.09
397.361	146.94
397.57	155.13
397.78	83.45
397.989	132.61
398.198	120.32
398.407	120.32
398.617	153.09
398.826	120.32
399.035	155.13
399.244	146.94
399.453	138.75
399.663	146.94
399.872	116.22
400.081	120.32
400.29	146.94
400.499	87.55
400.708	159.23
400.917	192
401.127	93.69
401.336	93.69
401.545	196.09
401.754	187.9
401.963	177.66
402.172	124.41
402.381	136.7
402.59	112.13
402.799	177.66
403.008	206.33
403.217	153.09
403.426	155.13
403.635	222.72
403.844	136.7
404.053	169.47
404.262	228.86
404.471	255.48
404.68	187.9
404.888	187.9
405.097	210.43
405.306	185.85
405.515	237.05
405.724	259.58
405.933	206.33
406.142	259.58
406.35	278.01
406.559	292.35
406.768	269.82
406.977	302.59
407.185	243.2
407.394	292.35
407.603	237.05
407.812	296.44
408.02	290.3
408.229	310.78
408.438	275.96
408.646	241.15
408.855	353.79
409.064	370.17
409.272	386.55
409.481	431.61
409.69	366.07
409.898	327.16
410.107	357.88
410.315	484.86
410.524	374.27
410.733	402.94
410.941	466.42
411.15	538.1
411.358	517.62
411.567	529.91
411.775	579.06
411.984	550.39
412.192	564.73
412.401	630.26
412.609	687.61
412.818	644.6
413.026	681.46
413.234	703.99
413.443	685.56
413.651	660.98
413.86	732.66
414.068	861.68
414.276	787.96
414.485	845.3
414.693	916.98
414.901	894.45
415.11	964.08
415.318	939.51
415.526	945.65
415.734	1037.81
415.943	1058.29
416.151	1132.01
416.359	1107.44
416.567	1193.45
416.776	1209.84
416.984	1172.97
417.192	1242.61
417.4	1201.65
417.608	1304.04
417.817	1435.11
418.025	1431.02
418.233	1570.28
418.441	1418.73
418.649	1562.09
418.857	1746.41
419.065	1801.7
419.273	1803.75
419.481	1801.7
419.689	1881.57
419.897	2088.42
420.105	1975.78
420.313	2053.6
420.521	2168.29
420.729	2258.4
420.937	2178.53
421.145	2424.28
421.353	2430.43
421.561	2586.07
421.769	2596.31
421.977	2721.24
422.185	2659.8
422.393	2741.72
422.601	3044.82
422.809	3163.6
423.017	3093.97
423.224	3319.25
423.432	3276.24
423.64	3403.21
423.848	3671.5
424.056	3419.6
424.263	3798.47
424.471	3831.24
424.679	3923.4
424.887	4085.19
425.094	4232.64
425.302	4249.02
425.51	4332.99
425.718	4707.77
425.925	4715.96
426.133	4765.11
426.341	4814.26
426.548	5021.11
426.756	5273.01
426.964	5209.52
427.171	5666.22
427.379	5741.99
427.586	5705.13
427.794	5989.8
428.001	6208.93
428.209	6561.18
428.417	6391.2
428.624	6763.93
428.832	6874.52
429.039	6790.55
429.247	6747.55
429.454	7476.62
429.662	7921.03
429.869	7460.24
430.076	8093.06
430.284	7697.8
430.491	8140.16
430.699	8535.42
430.906	8578.43
431.114	8709.5
431.321	8908.15
431.528	9143.67
431.736	9588.08
431.943	10001.77
432.15	9893.23
432.358	9878.89
432.565	10659.17
432.772	10589.53
432.979	10802.52
433.187	11115.86
433.394	11220.31
433.601	12051.78
433.808	12094.79
434.016	11945.29
434.223	12434.75
434.43	13133.11
434.637	12807.48
434.844	13452.59
435.052	13980.97
435.259	13819.18
435.466	14087.47
435.673	13843.76
435.88	14816.54
436.087	15275.29
436.294	15392.02
436.501	15228.18
436.708	15406.36
436.915	16069.9
437.122	16700.67
437.329	16706.82
437.537	17110.27
437.743	17380.6
437.95	17315.06
438.157	17976.56
438.364	18801.89
438.571	18767.07
438.778	18973.92
438.985	20499.66
439.192	19832.02
439.399	20331.72
439.606	19829.97
439.813	21273.79
440.02	22369.45
440.227	21732.53
440.433	21787.83
440.64	22891.68
440.847	22072.5
441.054	22783.14
441.261	24575.11
441.467	24190.09
441.674	24409.23
441.881	25355.39
442.088	25336.96
442.294	25279.61
442.501	25449.6
442.708	26205.3
442.914	27178.08
443.121	28429.39
443.328	27720.79
443.534	29627.45
443.741	28906.57
443.948	28214.35
444.154	30487.6
444.361	30198.84
444.568	30481.45
444.774	30596.14
444.981	30780.46
445.187	31380.51
445.394	32871.43
445.6	32678.93
445.807	35748.83
446.013	34270.2
446.22	34706.41
446.426	35949.53
446.633	36453.33
446.839	37706.69
447.046	35754.97
447.252	37913.53
447.459	37778.37
447.665	37893.05
447.871	39998.37
448.078	41126.8
448.284	39222.19
448.491	40199.07
448.697	41960.32
448.903	43076.46
449.11	42173.31
449.316	42029.95
449.522	42666.87
449.728	43436.91
449.935	44292.96
450.141	44174.17
450.347	44823.38
450.553	43434.86
450.76	44329.82
450.966	45624.14
451.172	44964.69
451.378	46113.6
451.584	45108.05
451.791	46471.99
451.997	46222.14
452.203	46803.77
452.409	46943.03
452.615	46801.72
452.821	44657.49
453.027	44551
453.233	46707.51
453.44	44903.25
453.646	45452.11
453.852	45400.91
454.058	46555.96
454.264	45022.03
454.47	46119.74
454.676	45042.51
454.882	46168.9
455.088	42363.77
455.294	42920.82
455.5	43502.44
455.705	44178.27
455.911	42568.57
456.117	41501.57
456.323	41081.74
456.529	38898.61
456.735	40512.41
456.941	39371.69
457.147	38966.19
457.352	37520.32
457.558	37194.7
457.764	37067.72
457.97	36459.48
458.176	35802.08
458.381	35580.9
458.587	33995.77
458.793	34032.63
458.999	32209.94
459.204	34880.49
459.41	33731.58
459.616	31011.88
459.821	31527.97
460.027	31347.75
460.233	30911.53
460.438	29033.54
460.644	29389.89
460.85	28238.93
461.055	27509.85
461.261	27690.07
461.466	25619.58
461.672	24458.38
461.878	26295.41
462.083	24896.64
462.289	24155.28
462.494	23936.15
462.7	22758.56
462.905	22164.65
463.111	22916.26
463.316	23377.05
463.522	22682.79
463.727	22420.65
463.932	22590.63
464.138	22576.3
464.343	22236.33
464.549	21902.51
464.754	22285.48
464.959	22439.08
465.165	22176.94
465.37	21058.75
465.575	20688.07
465.781	21449.91
465.986	21724.34
466.191	20903.11
466.397	20546.76
466.602	19481.81
466.807	20348.11
467.012	20012.24
467.218	20151.5
467.423	19600.6
467.628	19973.33
467.833	20745.41
468.038	19764.43
468.244	19264.73
468.449	20124.88
468.654	19449.05
468.859	19293.4
469.064	18988.25
469.269	18380.01
469.474	18756.83
469.679	19002.59
469.885	18445.54
470.09	18621.67
470.295	18453.73
470.5	18027.76
470.705	18283.75
470.91	17915.12
471.115	17720.56
471.32	17947.89
471.525	17646.83
471.73	17360.12
471.935	17302.78
472.139	16608.51
472.344	17079.55
472.549	16637.19
472.754	16620.8
472.959	16180.49
473.164	15961.36
473.369	15781.14
473.574	16442.63
473.778	15852.81
473.983	15992.08
474.188	15981.84
474.393	15230.23
474.598	15265.05
474.802	15164.7
475.007	15068.44
475.212	15211.8
475.417	14384.42
475.621	14447.91
475.826	14310.69
476.031	14144.81
476.235	14062.89
476.44	14005.55
476.645	14153
476.849	14036.27
477.054	13767.98
477.259	13477.17
477.463	13743.41
477.668	13280.57
477.872	13464.88
478.077	13081.91
478.282	12922.17
478.486	12965.18
478.691	12660.03
478.895	12827.96
479.1	12434.75
479.304	12528.96
479.509	12307.78
479.713	12428.61
479.918	12176.71
480.122	12117.32
480.326	12227.91
480.531	12262.72
480.735	11883.85
480.94	12057.93
481.144	12197.19
481.348	11660.62
481.553	11963.72
481.757	11482.45
481.961	11760.97
482.166	11869.51
482.37	11806.03
482.574	11519.31
482.778	11967.82
482.983	11744.59
483.187	11758.92
483.391	11705.68
483.595	11707.73
483.8	11672.91
484.004	11515.22
484.208	11748.68
484.412	11681.1
484.616	11748.68
484.821	11853.13
485.025	11466.07
485.229	11924.81
485.433	11777.36
485.637	11687.25
485.841	11564.37
486.045	11601.23
486.249	11629.9
486.453	11408.72
486.657	11597.14
486.861	11550.03
487.065	11287.89
487.269	11713.87
487.473	11343.19
487.677	11631.95
487.881	11646.29
488.085	11654.48
488.289	11558.22
488.493	11468.11
488.697	11713.87
488.901	11517.26
489.105	11605.33
489.309	11607.37
489.512	11670.86
489.716	11492.69
489.92	11615.57
490.124	11679.05
490.328	11779.4
490.531	11679.05
490.735	11877.71
490.939	11787.6
491.143	11801.93
491.346	11658.57
491.55	12010.82
491.754	11855.18
491.958	12117.32
492.161	12006.73
492.365	12180.81
492.569	11973.96
492.772	12033.35
492.976	12275.01
493.18	12287.3
493.383	12385.6
493.587	12531.01
493.79	12567.87
493.994	12375.36
494.197	12586.3
494.401	12670.27
494.605	12678.46
494.808	12899.64
495.012	12735.81
495.215	12805.44
495.419	13043
495.622	13088.06
495.825	12965.18
496.029	13145.4
496.232	13526.32
496.436	13372.72
496.639	13870.38
496.843	13468.98
497.046	13897
497.249	13940.01
497.453	14122.28
497.656	14157.1
497.859	14120.23
498.063	14333.22
498.266	14540.07
498.469	14599.46
498.673	14646.56
498.876	14652.7
499.079	15242.52
499.282	15160.6
499.485	15398.17
499.689	15537.43
499.892	15863.05
500.095	15770.9
500.298	16049.42
500.501	15768.85
500.705	16360.71
500.908	16399.62
501.111	16831.74
501.314	16805.12
501.517	17147.13
501.72	17110.27
501.923	17171.71
502.126	17405.17
502.329	18013.42
502.532	17786.1
502.735	17927.41
502.938	18052.33
503.141	18320.62
503.344	18500.84
503.547	18754.79
503.75	18978.01
503.953	19137.76
504.156	19178.72
504.359	19447
504.562	19510.49
504.765	20067.53
504.968	20010.19
505.17	20430.02
505.373	20270.28
505.576	20655.3
505.779	20968.64
505.982	20997.31
506.185	21232.83
506.387	21179.58
506.59	21378.23
506.793	21884.08
506.996	22011.06
507.198	22744.23
507.401	22201.52
507.604	22779.04
507.807	23166.11
508.009	23327.9
508.212	23137.44
508.415	24173.71
508.617	23897.24
508.82	24222.86
509.022	23923.86
509.225	24691.85
509.428	24824.97
509.63	24673.42
509.833	24779.91
510.035	25648.25
510.238	25574.52
510.44	25562.23
510.643	26414.19
510.845	26436.72
511.048	26203.25
511.25	26672.23
511.453	26733.67
511.655	27593.82
511.858	27737.18
512.06	27685.98
512.262	28298.32
512.465	28077.14
512.667	28257.36
512.87	28841.03
513.072	29121.6
513.274	29164.61
513.477	29625.4
513.679	29961.27
513.881	30458.93
514.084	30393.39
514.286	30508.08
514.488	30780.46
514.69	31386.66
514.893	31341.6
515.095	31513.63
515.297	32087.06
515.499	31915.03
515.701	32697.36
515.904	32930.83
516.106	32824.33
516.308	33125.38
516.51	33510.4
516.712	33586.18
516.914	33997.82
517.116	34333.68
517.318	34225.14
517.52	34784.24
517.722	34966.51
517.925	35224.55
518.127	35331.04
518.329	35802.08
518.531	35253.22
518.733	36150.23
518.935	36574.16
519.136	36332.5
519.338	36531.15
519.54	36572.11
519.742	37307.33
519.944	37317.57
520.146	38003.64
520.348	38282.17
520.55	37991.36
520.752	38503.35
520.954	38853.55
521.155	38781.87
521.357	39308.2
521.559	39490.47
521.761	39734.18
521.963	39775.14
522.164	39981.98
522.366	40280.99
522.568	40211.35
522.77	40735.63
522.971	41208.72
523.173	40700.82
523.375	41124.75
523.576	40985.49
523.778	40754.07
523.98	41767.81
524.181	41816.96
524.383	41888.64
524.584	41802.63
524.786	42111.87
524.988	42060.67
525.189	42677.11
525.391	42255.23
525.592	42797.94
525.794	42840.95
525.995	42599.29
526.197	43092.85
526.398	42697.59
526.6	43178.86
526.801	43031.41
527.003	43221.87
527.204	43244.4
527.406	43549.54
527.607	43328.36
527.808	43629.41
528.01	42859.38
528.211	43211.63
528.412	44165.98
528.614	43602.79
528.815	43907.94
529.016	44299.1
529.218	43811.68
529.419	44260.19
529.62	43742.05
529.822	43776.87
530.023	43895.65
530.224	43719.52
530.425	43850.59
530.626	43608.93
530.828	43336.55
531.029	44082.02
531.23	43838.31
531.431	43729.76
531.632	44120.93
531.833	43682.66
532.035	43733.86
532.236	43942.75
532.437	43764.58
532.638	43641.7
532.839	43828.07
533.04	43627.37
533.241	43553.64
533.442	43846.5
533.643	43832.16
533.844	43592.55
534.045	43606.89
534.246	43432.81
534.447	43707.24
534.648	43668.33
534.849	43711.33
535.05	43563.88
535.251	43109.23
535.451	43322.22
535.652	43740
535.853	43170.67
536.054	43273.07
536.255	43424.62
536.456	42697.59
536.657	43291.5
536.857	42945.39
537.058	42834.8
537.259	43303.79
537.46	43297.64
537.66	42683.25
537.861	43068.27
538.062	42619.77
538.263	42840.95
538.463	42855.28
538.664	42939.25
538.865	42830.71
539.065	42814.32
539.266	42503.03
539.466	43322.22
539.667	42093.44
539.868	42961.78
540.068	42613.62
540.269	42779.51
540.469	42888.05
540.67	42206.08
540.87	42570.61
541.071	42566.52
541.271	42673.01
541.472	42466.17
541.672	42238.84
541.873	42144.64
542.073	41608.07
542.274	42396.54
542.474	42140.54
542.675	41999.23
542.875	42451.83
543.075	42138.49
543.276	41685.89
543.476	42451.83
543.676	42187.64
543.877	42314.62
544.077	42046.33
544.277	42068.86
544.478	41632.64
544.678	42365.82
544.878	42148.73
545.078	42199.93
545.279	42079.1
545.479	41786.24
545.679	42232.7
545.879	42068.86
546.079	42001.28
546.28	41995.14
546.48	41749.38
546.68	41921.41
546.88	41612.17
547.08	41917.31
547.28	41870.21
547.48	41759.62
547.68	42083.2
547.88	41814.91
548.081	41880.45
548.281	41384.84
548.481	41954.18
548.681	42103.68
548.881	41845.63
549.081	42085.25
549.28	41583.49
549.48	42173.31
549.68	41733
549.88	42535.8
550.08	41550.73
550.28	41923.46
550.48	41810.82
550.68	42158.97
550.88	41706.37
551.08	41853.83
551.279	41827.2
551.479	42003.33
551.679	41601.93
551.879	41788.29
552.079	42238.84
552.278	41569.16
552.478	41667.46
552.678	41995.14
552.878	42326.91
553.077	41716.61
553.277	42113.92
553.477	42150.78
553.676	42177.4
553.876	42275.71
554.076	42003.33
554.275	41862.02
554.475	41769.86
554.674	42011.52
554.874	41814.91
555.074	41978.75
555.273	42613.62
555.473	42263.42
555.672	41933.7
555.872	41759.62
556.071	42349.43
556.271	42343.29
556.47	42257.28
556.67	41800.58
556.869	42064.77
557.068	41921.41
557.268	42144.64
557.467	42105.73
557.667	42150.78
557.866	42357.63
558.065	42142.59
558.265	41804.67
558.464	42044.29
558.663	42388.35
558.863	41589.64
559.062	42732.4
559.261	41749.38
559.461	43053.94
559.66	41601.93
559.859	42543.99
560.058	41522.05
560.258	42077.05
560.457	41786.24
560.656	42527.61
560.855	41755.52
561.054	42251.13
561.253	41712.52
561.453	41980.8
561.652	42400.63
561.851	42517.37
562.05	41911.17
562.249	41585.54
562.448	42328.95
562.647	42191.74
562.846	41984.9
563.045	41749.38
563.244	41335.69
563.443	42142.59
563.642	41536.39
563.841	41976.7
564.04	41712.52
564.239	41728.9
564.438	41784.19
564.637	41452.42
564.836	41573.25
565.035	41003.92
565.234	41526.15
565.432	41253.77
565.631	41356.17
565.83	41888.64
566.029	40952.72
566.228	41132.94
566.427	41386.89
566.625	40973.2
566.824	40813.46
567.023	41227.15
567.222	40436.63
567.42	40772.5
567.619	40536.98
567.818	41008.01
568.016	40723.35
568.215	40872.85
568.414	40760.21
568.612	40840.08
568.811	40278.94
569.01	40596.37
569.208	40141.72
569.407	40348.57
569.605	39973.79
569.804	40207.26
570.002	39603.11
570.201	40543.13
570.4	39615.4
570.598	39816.1
570.797	39513
570.995	39869.34
571.193	39308.2
571.392	39816.1
571.59	39619.49
571.789	39488.42
571.987	39699.36
572.186	39553.96
572.384	39279.53
572.582	39621.54
572.781	39074.73
572.979	38517.68
573.177	38802.35
573.376	39459.75
573.574	38810.54
573.772	38867.89
573.971	38280.12
574.169	38208.44
574.367	38460.34
574.565	38446.01
574.763	38257.59
574.962	38300.6
575.16	38218.68
575.358	38159.29
575.556	37452.74
575.754	38470.58
575.952	37729.22
576.151	38208.44
576.349	37520.32
576.547	37602.24
576.745	37411.78
576.943	37757.89
577.141	37444.55
577.339	37389.25
577.537	37055.43
577.735	36991.95
577.933	36707.28
578.131	37100.49
578.329	36916.17
578.527	36799.44
578.725	36828.11
578.923	36955.08
579.121	36359.13
579.319	36582.35
579.516	36781.01
579.714	36492.24
579.912	36084.7
580.11	36211.67
580.308	36146.14
580.506	36152.28
580.704	35640.29
580.901	35701.73
581.099	36365.27
581.297	35482.59
581.495	35654.62
581.692	35773.41
581.89	34976.75
582.088	35392.48
582.285	35441.64
582.483	35210.21
582.681	34923.5
582.878	35021.8
583.076	34884.59
583.274	35013.61
583.471	34728.94
583.669	34679.79
583.866	34290.68
584.064	34823.15
584.262	33952.76
584.459	34423.79
584.657	34415.6
584.854	34327.54
585.052	33811.45
585.249	33958.91
585.447	34022.39
585.644	33682.43
585.841	33694.72
586.039	34141.18
586.236	33283.08
586.434	33379.33
586.631	33510.4
586.828	33330.18
587.026	33246.21
587.223	33512.45
587.42	33272.84
587.618	33219.59
587.815	32988.17
588.012	32828.43
588.21	32838.67
588.407	33252.36
588.604	32988.17
588.801	32635.92
588.999	32537.62
589.196	32363.54
589.393	32177.17
589.59	32322.58
589.787	32484.37
589.984	32060.44
590.182	31955.99
590.379	32322.58
590.576	31593.5
590.773	31714.33
590.97	31865.88
591.167	31616.03
591.364	31411.23
591.561	31773.72
591.758	31581.21
591.955	31421.47
592.152	31826.97
592.349	31329.31
592.546	31314.98
592.743	31435.81
592.94	31013.93
593.137	31362.08
593.334	31685.66
593.531	30821.42
593.727	31392.8
593.924	31530.01
594.121	30712.88
594.318	31202.34
594.515	30657.58
594.712	30872.62
594.908	31030.31
595.105	30614.57
595.302	30526.51
595.499	30596.14
595.696	30313.52
595.892	30334
596.089	30508.08
596.286	30753.83
596.482	30422.06
596.679	30702.64
596.876	30606.38
597.072	30377.01
597.269	30567.47
597.466	29936.7
597.662	30067.77
597.859	30141.49
598.055	30194.74
598.252	29746.23
598.448	30037.05
598.645	29633.6
598.841	29480
599.038	30276.66
599.234	30067.77
599.431	29725.75
599.627	29797.43
599.824	30110.77
600.02	30008.37
600.217	29711.42
600.413	29789.24
600.609	29457.47
600.806	29549.63
601.002	29281.35
601.198	29830.2
601.395	29445.18
601.591	29578.3
601.787	29781.05
601.984	29469.76
602.18	29406.27
602.376	29357.12
602.572	29461.57
602.769	29574.2
602.965	28963.91
603.161	29731.9
603.357	29070.4
603.553	29393.98
603.75	29656.12
603.946	29363.26
604.142	29303.87
604.338	29137.99
604.534	29471.81
604.73	28982.34
604.926	28865.61
605.122	29473.85
605.318	29101.12
605.514	29447.23
605.71	29041.73
605.906	29105.22
606.102	28877.9
606.298	29566.01
606.494	29168.71
606.69	29262.91
606.886	29013.06
607.082	28953.67
607.278	29525.05
607.474	28812.36
607.67	29242.43
607.866	28601.42
608.062	29439.04
608.257	29011.01
608.453	29180.99
608.649	29264.96
608.845	29236.29
609.041	29373.5
609.236	29174.85
609.432	29332.54
609.628	29469.76
609.824	29305.92
610.019	28873.8
610.215	29164.61
610.411	29137.99
610.606	29172.8
610.802	29301.82
610.998	29307.97
611.193	29377.6
611.389	28996.68
611.584	29064.26
611.78	29090.88
611.976	29117.51
612.171	29131.84
612.367	29150.28
612.562	29135.94
612.758	28732.49
612.953	28937.29
613.149	29297.73
613.344	29064.26
613.539	29695.03
613.735	29267.01
613.93	29584.44
614.126	29258.82
614.321	29502.53
614.517	29385.79
614.712	28861.51
614.907	28920.9
615.103	29187.14
615.298	29070.4
615.493	29629.5
615.688	28927.05
615.884	29772.86
616.079	29105.22
616.274	29240.39
616.47	29162.56
616.665	29520.96
616.86	28785.74
617.055	29197.38
617.25	29013.06
617.445	29152.32
617.641	28570.7
617.836	28881.99
618.031	28808.26
618.226	29185.09
618.421	28572.75
618.616	28863.56
618.811	28326.99
619.006	29176.9
619.201	28087.38
619.396	28431.44
619.591	28034.13
619.786	28453.97
619.981	27866.2
620.176	28503.12
620.371	27685.98
620.566	28060.76
620.761	27858.01
620.956	27845.72
621.151	27733.08
621.346	27837.53
621.541	27475.04
621.735	27739.22
621.93	26987.62
622.125	27489.37
622.32	26641.51
622.515	26881.13
622.709	26735.72
622.904	26965.09
623.099	26410.09
623.294	26510.44
623.488	26104.95
623.683	26504.3
623.878	25820.28
624.072	26178.67
624.267	26006.64
624.462	25746.55
624.656	25676.92
624.851	25740.41
625.046	25312.38
625.24	25267.33
625.435	25181.31
625.629	25185.41
625.824	25001.09
626.018	24878.21
626.213	24548.49
626.407	24761.48
626.602	24433.8
626.796	24669.32
626.991	24269.97
627.185	24163.47
627.38	24063.12
627.574	23913.62
627.768	23721.11
627.963	23792.79
628.157	23540.89
628.352	23311.52
628.546	23139.49
628.74	23680.15
628.935	22961.31
629.129	23291.04
629.323	22854.82
629.517	22758.56
629.712	22713.51
629.906	22865.06
630.1	22238.38
630.294	22437.03
630.489	22172.85
630.683	22635.69
630.877	21996.72
631.071	21910.71
631.265	22076.59
631.459	21836.98
631.653	21566.65
631.848	21744.82
632.042	21626.04
632.236	21331.13
632.43	21247.16
632.624	21214.4
632.818	21091.52
633.012	20577.48
633.206	20735.17
633.4	21124.29
633.594	20427.98
633.788	20440.26
633.982	20673.73
634.176	20640.97
634.369	20169.93
634.563	20186.32
634.757	19846.35
634.951	19975.38
635.145	20165.84
635.339	19913.94
635.533	19561.69
635.726	19768.53
635.92	19428.57
636.114	19381.46
636.308	19352.79
636.501	19162.33
636.695	19156.19
636.889	19080.41
637.083	18930.91
637.276	18660.58
637.47	18615.52
637.664	18611.43
637.857	18515.17
638.051	18523.37
638.244	18343.14
638.438	18236.65
638.632	18085.1
638.825	17941.74
639.019	17851.63
639.212	17552.63
639.406	17620.21
639.599	17720.56
639.793	17321.21
639.986	17388.79
640.18	17483
640.373	17116.41
640.567	17149.18
640.76	17073.4
640.954	17001.72
641.147	16770.3
641.34	16653.57
641.534	16555.27
641.727	16626.95
641.92	16473.35
642.114	16577.8
642.307	16346.37
642.5	16325.89
642.694	15983.88
642.887	16145.67
643.08	15987.98
643.273	15897.87
643.467	15789.33
643.66	15510.8
643.853	15607.06
644.046	15500.56
644.239	15770.9
644.432	15164.7
644.626	15195.42
644.819	15103.26
645.012	15226.14
645.205	14949.66
645.398	15127.83
645.591	14857.5
645.784	14771.49
645.977	14650.66
646.17	14632.22
646.363	14521.63
646.556	14374.18
646.749	14431.52
646.942	14542.11
647.135	14263.59
647.328	14265.64
647.521	14107.94
647.714	13598
647.907	14013.74
648.099	13999.4
648.292	13753.65
648.485	13614.38
648.678	13634.86
648.871	13638.96
649.064	13200.69
649.256	13679.92
649.449	13311.28
649.642	13219.13
649.835	12979.51
650.027	13124.92
650.22	12809.53
650.413	12690.75
650.605	12977.47
650.798	12830.01
650.991	12502.34
651.183	12588.35
651.376	12481.86
651.568	12590.4
651.761	12672.32
651.954	12309.83
652.146	12340.55
652.339	12385.6
652.531	12205.38
652.724	12172.61
652.916	11922.76
653.109	11838.8
653.301	11881.8
653.494	11943.24
653.686	11646.29
653.879	11695.44
654.071	11664.72
654.263	11586.9
654.456	11498.83
654.648	11482.45
654.84	11326.8
655.033	11353.43
655.225	11347.28
655.417	11228.5
655.61	11044.18
655.802	11369.81
655.994	10921.31
656.186	10892.63
656.379	11191.64
656.571	10945.88
656.763	10823
656.955	10724.7
657.148	10753.37
657.34	10771.8
657.532	10468.7
657.724	10712.41
657.916	10550.62
658.108	10677.6
658.3	10276.2
658.492	10476.9
658.684	10114.41
658.876	10298.72
659.068	10089.83
659.26	10220.9
659.452	10167.65
659.644	9938.28
659.836	10024.3
660.028	9960.81
660.22	9729.39
660.412	9946.47
660.604	9674.09
660.796	9663.85
660.988	9663.85
661.18	9440.62
661.372	9411.95
661.563	9532.78
661.755	9330.03
661.947	9477.49
662.139	9180.53
662.331	9098.61
662.522	9176.44
662.714	9182.58
662.906	8908.15
663.097	9149.81
663.289	8938.87
663.481	9012.6
663.673	8824.19
663.864	8922.49
664.056	8934.78
664.247	8803.71
664.439	8594.81
664.631	8836.47
664.822	8545.66
665.014	8670.59
665.205	8527.23
665.397	8643.96
665.588	8400.26
665.78	8213.89
665.971	8404.35
666.163	8369.54
666.354	8148.36
666.546	8324.48
666.737	8207.75
666.929	7951.75
667.12	8232.32
667.311	8101.25
667.503	7959.94
667.694	7916.94
667.885	7839.11
668.077	7798.15
668.268	7697.8
668.459	7759.24
668.651	7888.26
668.842	7832.97
669.033	7402.9
669.224	7527.82
669.416	7804.3
669.607	7501.2
669.798	7497.1
669.989	7613.84
670.18	7470.48
670.371	7484.81
670.563	7484.81
670.754	7331.22
670.945	7241.11
671.136	7214.48
671.327	7208.34
671.518	7355.79
671.709	7161.23
671.9	7263.63
672.091	7224.72
672.282	7042.45
672.473	7255.44
672.664	7116.18
672.855	7067.03
673.046	6993.3
673.237	7062.93
673.428	6923.67
673.619	6944.15
673.809	6854.04
674	6927.77
674.191	6899.09
674.382	6915.48
674.573	6813.08
674.764	6655.39
674.954	6796.7
675.145	6727.07
675.336	6657.43
675.527	6649.24
675.717	6692.25
675.908	6391.2
676.099	6557.08
676.289	6530.46
676.48	6725.02
676.671	6464.93
676.861	6559.13
677.052	6380.96
677.243	6471.07
677.433	6469.02
677.624	6397.34
677.814	6309.28
678.005	6491.55
678.195	6251.94
678.386	6208.93
678.576	6292.9
678.767	6331.81
678.957	6167.97
679.148	6323.62
679.338	6170.02
679.529	6198.69
679.719	6133.15
679.909	6124.96
680.1	6225.31
680.29	6233.5
680.481	6014.37
680.671	6081.96
680.861	6065.57
681.052	6153.63
681.242	5905.83
681.432	6030.76
681.622	5856.68
681.813	5871.01
682.003	5860.77
682.193	5936.55
682.383	5914.02
682.573	5905.83
682.764	6012.32
682.954	6043.04
683.144	5830.06
683.334	5789.1
683.524	5809.58
683.714	5727.66
683.904	5752.23
684.094	5805.48
684.284	5748.14
684.474	5715.37
684.664	5840.29
684.854	5608.87
685.044	5625.26
685.234	5643.69
685.424	5557.68
685.614	5608.87
685.804	5576.11
685.994	5719.46
686.184	5658.03
686.374	5629.35
686.564	5510.57
686.753	5557.68
686.943	5520.81
687.133	5395.89
687.323	5508.52
687.513	5389.74
687.702	5412.27
687.892	5338.54
688.082	5389.74
688.272	5332.4
688.461	5354.93
688.651	5563.82
688.841	5318.06
689.03	5373.36
689.22	5258.67
689.41	5311.92
689.599	5129.65
689.789	5137.84
689.979	5238.19
690.168	5162.42
690.358	5125.55
690.547	5236.14
690.737	5119.41
690.926	5105.07
691.116	4988.34
691.305	5230
691.495	5256.62
691.684	5070.26
691.874	5123.51
692.063	5051.83
692.252	5060.02
692.442	4953.52
692.631	4801.97
692.82	5068.21
693.01	4810.17
693.199	4873.65
693.388	4773.3
693.578	4937.14
693.767	4855.22
693.956	4885.94
694.146	4875.7
694.335	4863.41
694.524	4863.41
694.713	4765.11
694.902	4683.19
695.092	4763.06
695.281	4773.3
695.47	4613.56
695.659	4568.51
695.848	4423.1
696.037	4642.23
696.226	4568.51
696.415	4601.27
696.604	4507.07
696.793	4480.44
696.982	4548.03
697.171	4736.44
697.36	4631.99
697.549	4400.57
697.738	4486.59
697.927	4384.19
698.116	4466.11
698.305	4406.72
698.494	4492.73
698.683	4400.57
698.872	4552.12
699.061	4447.68
699.25	4445.63
699.438	4289.98
699.627	4337.09
699.816	4404.67
700.005	4443.58
700.193	4242.88
700.382	4410.81
700.571	4373.95
700.76	4380.09
700.948	4197.82
701.137	4142.53
701.326	4277.69
701.514	4259.26
701.703	4097.47
701.892	4132.29
702.08	4193.73
702.269	4152.77
702.457	4060.61
702.646	4120
702.834	4146.62
703.023	3976.64
703.212	4183.49
703.4	4126.15
703.589	3986.88
703.777	4142.53
703.965	4038.08
704.154	3868.1
704.342	4019.65
704.531	3999.17
704.719	3933.64
704.907	4044.23
705.096	3913.16
705.284	4068.8
705.472	3861.96
705.661	3872.2
705.849	3947.97
706.037	3833.29
706.226	3872.2
706.414	3849.67
706.602	3898.82
706.79	3880.39
706.979	3825.09
707.167	3775.94
707.355	3593.67
707.543	3694.02
707.731	3728.84
707.919	3786.18
708.107	3651.02
708.296	3704.26
708.484	3653.06
708.672	3718.6
708.86	3675.59
709.048	3675.59
709.236	3458.51
709.424	3739.08
709.612	3579.34
709.8	3530.19
709.988	3626.44
710.176	3595.72
710.364	3644.87
710.551	3544.52
710.739	3577.29
710.927	3530.19
711.115	3618.25
711.303	3374.54
711.491	3487.18
711.679	3476.94
711.866	3446.22
712.054	3433.93
712.242	3347.92
712.43	3530.19
712.617	3446.22
712.805	3331.53
712.993	3349.96
713.181	3257.81
713.368	3366.35
713.556	3491.27
713.744	3202.51
713.931	3395.02
714.119	3216.85
714.306	3255.76
714.494	3233.23
714.682	3323.34
714.869	3249.61
715.057	3184.08
715.244	3116.5
715.432	3184.08
715.619	3098.06
715.807	3200.46
715.994	3190.22
716.182	3220.94
716.369	3081.68
716.556	3136.98
716.744	3061.2
716.931	3050.96
717.119	3069.39
717.306	3085.78
717.493	3184.08
717.681	3063.25
717.868	3020.24
718.055	3102.16
718.242	3012.05
718.43	3012.05
718.617	2921.94
718.804	3034.58
718.991	2973.14
719.179	2921.94
719.366	2825.68
719.553	2891.22
719.74	2942.42
719.927	2954.71
720.114	2905.56
720.301	2819.54
720.488	2866.64
720.676	2782.68
720.863	2837.97
721.05	2969.04
721.237	2776.53
721.424	2770.39
721.611	2823.64
721.798	2809.3
721.985	2684.38
722.172	2829.78
722.358	2782.68
722.545	2727.38
722.732	2733.53
722.919	2682.33
723.106	2727.38
723.293	2645.46
723.48	2616.79
723.667	2653.66
723.853	2749.91
724.04	2776.53
724.227	2725.33
724.414	2694.61
724.6	2487.77
724.787	2678.23
724.974	2643.42
725.161	2618.84
725.347	2620.89
725.534	2600.41
725.72	2600.41
725.907	2528.73
726.094	2516.44
726.28	2592.22
726.467	2555.35
726.653	2471.39
726.84	2670.04
727.027	2450.91
727.213	2514.39
727.4	2481.63
727.586	2520.54
727.773	2504.15
727.959	2557.4
728.145	2502.11
728.332	2455
728.518	2422.24
728.705	2596.31
728.891	2455
729.077	2368.99
729.264	2319.84
729.45	2352.6
729.636	2498.01
729.823	2405.85
730.009	2512.35
730.195	2440.67
730.382	2412
730.568	2354.65
730.754	2426.33
730.94	2409.95
731.126	2358.75
731.313	2391.52
731.499	2299.36
731.685	2352.6
731.871	2233.82
732.057	2368.99
732.243	2268.64
732.429	2278.88
732.615	2334.17
732.801	2266.59
732.987	2106.85
733.173	2258.4
733.359	2270.69
733.545	2311.64
733.731	2117.09
733.917	2209.25
734.103	2242.01
734.289	2162.14
734.475	2219.49
734.661	2235.87
734.847	2217.44
735.033	2205.15
735.219	2211.29
735.404	2352.6
735.59	2168.29
735.776	2098.66
735.962	2141.66
736.148	2176.48
736.333	2225.63
736.519	2145.76
736.705	2119.14
736.89	2194.91
737.076	2012.64
737.262	2086.37
737.447	2084.32
737.633	2020.83
737.819	2117.09
738.004	2080.22
738.19	2094.56
738.375	2045.41
738.561	2053.6
738.747	2016.74
738.932	1934.82
739.118	2049.5
739.303	1959.39
739.489	2115.04
739.674	1932.77
739.859	1996.26
740.045	1947.11
740.23	1979.87
740.416	1867.24
740.601	1955.3
740.786	1926.63
740.972	1873.38
741.157	1918.43
741.342	1924.58
741.528	2014.69
741.713	1936.87
741.898	1859.04
742.084	1938.91
742.269	1949.15
742.454	1910.24
742.639	1867.24
742.824	1871.33
743.01	1928.67
743.195	2014.69
743.38	1803.75
743.565	1734.12
743.75	1791.46
743.935	1887.72
744.12	1777.12
744.305	1807.84
744.49	1803.75
744.675	1734.12
744.86	1664.49
745.045	1746.41
745.23	1875.43
745.415	1668.58
745.6	1791.46
745.785	1619.43
745.97	1709.54
746.155	1734.12
746.34	1605.1
746.525	1705.45
746.71	1625.58
746.895	1545.7
747.079	1582.57
747.264	1596.9
747.449	1656.29
747.634	1625.58
747.819	1529.32
748.003	1537.51
748.188	1590.76
748.373	1656.29
748.557	1578.47
748.742	1594.86
748.927	1496.55
749.111	1525.22
749.296	1672.68
749.481	1562.09
749.665	1508.84
749.85	1492.46
750.034	1521.13
750.219	1500.65
750.404	1521.13
750.588	1490.41
750.773	1422.83
750.957	1408.49
751.141	1449.45
751.326	1394.15
751.51	1482.22
751.695	1375.72
751.879	1408.49
752.064	1359.34
752.248	1400.3
752.432	1439.21
752.617	1426.92
752.801	1381.87
752.985	1295.85
753.17	1383.91
753.354	1299.95
753.538	1345
753.722	1172.97
753.907	1152.49
754.091	1297.9
754.275	1267.18
754.459	1283.56
754.643	1215.98
754.828	1242.61
755.012	1191.41
755.196	1195.5
755.38	1160.69
755.564	1099.25
755.748	1172.97
755.932	1103.34
756.116	1140.21
756.3	1080.82
756.484	1062.38
756.668	1168.88
756.852	1089.01
757.036	1156.59
757.22	1091.06
757.404	1119.73
757.588	1152.49
757.772	1138.16
757.956	1086.96
758.14	1134.06
758.323	1041.9
758.507	1046
758.691	1119.73
758.875	1056.24
759.059	1097.2
759.242	1013.23
759.426	1007.09
759.61	1037.81
759.794	947.7
759.977	1031.66
760.161	1041.9
760.345	990.7
760.528	1054.19
760.712	996.85
760.895	945.65
761.079	980.47
761.263	935.41
761.446	972.27
761.63	959.99
761.813	943.6
761.997	906.74
762.18	935.41
762.364	937.46
762.547	923.12
762.731	908.79
762.914	980.47
763.098	939.51
763.281	861.68
763.464	947.7
763.648	916.98
763.831	972.27
764.015	910.83
764.198	908.79
764.381	914.93
764.564	959.99
764.748	843.25
764.931	966.13
765.114	882.16
765.297	890.35
765.481	853.49
765.664	914.93
765.847	796.15
766.03	921.07
766.213	785.91
766.397	845.3
766.58	824.82
766.763	906.74
766.946	794.1
767.129	841.2
767.312	808.44
767.495	818.68
767.678	701.94
767.861	867.83
768.044	855.54
768.227	861.68
768.41	810.48
768.593	861.68
768.776	769.52
768.959	818.68
769.142	816.63
769.324	849.4
769.507	810.48
769.69	742.9
769.873	828.92
770.056	886.26
770.239	736.76
770.421	792.05
770.604	781.81
770.787	796.15
770.97	779.76
771.152	742.9
771.335	701.94
771.518	759.28
771.7	808.44
771.883	800.24
772.066	787.96
772.248	816.63
772.431	759.28
772.613	790
772.796	701.94
772.978	787.96
773.161	726.52
773.343	722.42
773.526	601.59
773.708	783.86
773.891	636.41
774.073	730.61
774.256	605.69
774.438	759.28
774.621	722.42
774.803	710.13
774.985	710.13
775.168	722.42
775.35	636.41
775.532	693.75
775.715	636.41
775.897	742.9
776.079	640.5
776.261	626.17
776.444	671.22
776.626	669.17
776.808	654.84
776.99	656.89
777.173	636.41
777.355	624.12
777.537	706.04
777.719	706.04
777.901	591.35
778.083	579.06
778.265	595.45
778.447	695.8
778.629	622.07
778.811	601.59
778.993	583.16
779.175	703.99
779.357	546.3
779.539	568.82
779.721	484.86
779.903	622.07
780.085	540.15
780.267	464.38
780.449	556.54
780.631	570.87
780.812	589.3
780.994	540.15
781.176	579.06
781.358	507.38
781.54	570.87
781.721	570.87
781.903	499.19
782.085	495.1
782.267	435.71
782.448	466.42
782.63	425.47
782.812	472.57
782.993	538.1
783.175	488.95
783.357	538.1
783.538	538.1
783.72	372.22
783.901	521.72
784.083	491
784.264	400.89
784.446	472.57
784.627	456.19
784.809	384.51
784.99	488.95
785.172	437.75
785.353	464.38
785.535	384.51
785.716	409.08
785.897	400.89
786.079	466.42
786.26	439.8
786.441	458.23
786.623	400.89
786.804	452.09
786.985	349.69
787.167	433.66
787.348	452.09
787.529	398.84
787.71	452.09
787.891	411.13
788.073	386.55
788.254	349.69
788.435	398.84
788.616	382.46
788.797	343.55
788.978	384.51
789.159	357.88
789.34	402.94
789.522	327.16
789.703	308.73
789.884	366.07
790.065	388.6
790.246	370.17
790.427	415.23
790.607	423.42
790.788	341.5
790.969	374.27
791.15	390.65
791.331	310.78
791.512	345.59
791.693	294.4
791.874	333.31
792.054	316.92
792.235	384.51
792.416	337.4
792.597	267.77
792.778	294.4
792.958	228.86
793.139	357.88
793.32	318.97
793.5	267.77
793.681	374.27
793.862	359.93
794.042	302.59
794.223	280.06
794.404	232.96
794.584	294.4
794.765	251.39
794.945	318.97
795.126	294.4
795.306	368.12
795.487	304.64
795.667	259.58
795.848	331.26
796.028	218.62
796.209	318.97
796.389	296.44
796.57	255.48
796.75	261.63
796.93	333.31
797.111	275.96
797.291	284.16
797.471	327.16
797.652	280.06
797.832	210.43
798.012	308.73
798.192	257.53
798.373	210.43
798.553	228.86
798.733	245.24
798.913	245.24
799.093	185.85
799.274	230.91
799.454	171.52
799.634	235
799.814	243.2
799.994	312.83
800.174	294.4
800.354	241.15
800.534	237.05
800.714	181.76
800.894	179.71
801.074	228.86
801.254	189.95
801.434	312.83
801.614	251.39
801.794	194.05
801.974	935.41
802.154	267.77
802.334	228.86
802.514	179.71
802.693	153.09
802.873	220.67
803.053	255.48
803.233	161.28
803.413	122.37
803.592	224.76
803.772	65.02
803.952	218.62
804.131	241.15
804.311	259.58
804.491	253.44
804.67	157.18
804.85	124.41
805.03	200.19
805.209	202.24
805.389	187.9
805.568	169.47
805.748	148.99
805.928	226.81
806.107	183.81
806.287	269.82
806.466	169.47
806.646	185.85
806.825	202.24
807.004	169.47
807.184	228.86
807.363	245.24
807.543	222.72
807.722	108.03
807.901	257.53
808.081	206.33
808.26	120.32
808.439	157.18
808.619	138.75
808.798	179.71
808.977	251.39
809.156	169.47
809.336	224.76
809.515	153.09
809.694	136.7
809.873	124.41
810.052	202.24
810.231	228.86
810.411	173.57
810.59	183.81
810.769	138.75
810.948	249.34
811.127	148.99
811.306	198.14
811.485	112.13
811.664	261.63
811.843	155.13
812.022	169.47
812.201	148.99
812.38	114.17
812.559	110.08
812.737	142.85
812.916	132.61
813.095	185.85
813.274	153.09
813.453	144.89
813.632	120.32
813.811	210.43
813.989	114.17
814.168	235
814.347	237.05
814.526	128.51
814.704	185.85
814.883	210.43
815.062	134.65
815.24	130.56
815.419	103.93
815.598	140.8
815.776	108.03
815.955	140.8
816.133	153.09
816.312	173.57
816.49	153.09
816.669	153.09
816.847	118.27
817.026	202.24
817.204	144.89
817.383	130.56
817.561	22.02
817.74	222.72
817.918	120.32
818.097	91.65
818.275	138.75
818.453	179.71
818.632	146.94
818.81	120.32
818.988	79.36
819.167	71.17
819.345	153.09
819.523	124.41
819.701	128.51
819.879	79.36
820.058	89.6
820.236	120.32
820.414	101.89
820.592	187.9
820.77	60.93
820.948	120.32
821.127	81.41
821.305	153.09
821.483	79.36
821.661	218.62
821.839	87.55
822.017	120.32
822.195	161.28
822.373	148.99
822.551	169.47
822.729	189.95
822.907	79.36
823.085	118.27
823.262	134.65
823.44	112.13
823.618	69.12
823.796	169.47
823.974	99.84
824.152	-2.56
824.329	138.75
824.507	13.82
824.685	173.57
824.863	22.02
825.04	-4.61
825.218	73.21
825.396	95.74
825.574	97.79
825.751	22.02
825.929	169.47
826.107	161.28
826.284	103.93
826.462	171.52
826.639	89.6
826.817	50.69
826.994	71.17
827.172	67.07
827.349	54.78
827.527	120.32
827.704	95.74
827.882	140.8
828.059	71.17
828.237	110.08
828.414	120.32
828.591	36.35
828.769	26.11
828.946	30.21
829.124	36.35
829.301	128.51
829.478	54.78
829.655	157.18
829.833	75.26
830.01	34.3
830.187	-33.28
830.364	140.8
830.542	91.65
830.719	34.3
830.896	62.98
831.073	103.93
831.25	120.32
831.427	83.45
831.604	58.88
831.782	62.98
831.959	54.78
832.136	120.32
832.313	81.41
832.49	62.98
832.667	105.98
832.844	22.02
833.021	99.84
833.198	54.78
833.374	144.89
833.551	114.17
833.728	40.45
833.905	110.08
834.082	-16.9
834.259	75.26
834.436	99.84
834.612	32.26
834.789	124.41
834.966	71.17
835.143	79.36
835.319	116.22
835.496	105.98
835.673	122.37
835.85	99.84
836.026	75.26
836.203	134.65
836.38	-6.66
836.556	144.89
836.733	22.02
836.909	183.81
837.086	120.32
837.262	22.02
837.439	65.02
837.616	73.21
837.792	-8.7
837.968	65.02
838.145	19.97
838.321	79.36
838.498	97.79
838.674	71.17
838.851	69.12
839.027	83.45
839.203	60.93
839.38	95.74
839.556	7.68
839.732	48.64
839.909	79.36
840.085	38.4
840.261	9.73
840.437	30.21
840.614	13.82
840.79	112.13
840.966	5.63
841.142	89.6
841.318	13.82
841.494	60.93
841.671	97.79
841.847	67.07
842.023	130.56
842.199	38.4
842.375	17.92
842.551	-33.28
842.727	42.5
842.903	62.98
843.079	-2.56
843.255	40.45
843.431	40.45
843.607	91.65
843.783	54.78
843.959	105.98
844.134	-27.14
844.31	30.21
844.486	1.54
844.662	-35.33
844.838	17.92
845.013	79.36
845.189	67.07
845.365	71.17
845.541	15.87
845.716	71.17
845.892	132.61
846.068	73.21
846.244	22.02
846.419	87.55
846.595	-2.56
846.77	38.4
846.946	32.26
847.122	38.4
847.297	5.63
847.473	138.75
847.648	19.97
847.824	38.4
847.999	-41.47
848.175	52.74
848.35	-14.85
848.526	97.79
848.701	11.78
848.876	138.75
849.052	87.55
849.227	93.69
849.403	52.74
849.578	32.26
849.753	40.45
849.929	122.37
850.104	38.4
850.279	46.59
850.454	-10.75
850.63	95.74
850.805	7.68
850.98	136.7
851.155	-39.42
851.33	79.36
851.505	-25.09
851.681	65.02
851.856	-0.51
852.031	54.78
852.206	75.26
852.381	56.83
852.556	32.26
852.731	153.09
852.906	79.36
853.081	54.78
853.256	89.6
853.431	71.17
853.606	22.02
853.781	71.17
853.956	50.69
854.131	58.88
854.305	38.4
854.48	13.82
854.655	38.4
854.83	71.17
855.005	-8.7
855.18	-12.8
855.354	46.59
855.529	9.73
855.704	75.26
855.879	73.21
856.053	99.84
856.228	79.36
856.403	34.3
856.577	34.3
856.752	-33.28
856.926	54.78
857.101	38.4
857.276	24.06
857.45	30.21
857.625	95.74
857.799	50.69
857.974	-8.7
858.148	-0.51
858.323	-0.51
858.497	9.73
858.672	11.78
858.846	-31.23
859.02	67.07
859.195	-2.56
859.369	89.6
859.543	54.78
859.718	44.54
859.892	-16.9
860.066	22.02
860.241	28.16
860.415	-33.28
860.589	-10.75
860.763	22.02
860.938	65.02
861.112	46.59
861.286	62.98
861.46	22.02
861.634	-47.62
861.808	71.17
861.982	36.35
862.157	5.63
862.331	13.82
862.505	34.3
862.679	-16.9
862.853	30.21
863.027	32.26
863.201	67.07
863.375	62.98
863.549	24.06
863.722	65.02
863.896	81.41
864.07	42.5
864.244	62.98
864.418	48.64
864.592	56.83
864.766	26.11
864.939	22.02
865.113	-59.9
865.287	79.36
865.461	-8.7
865.634	-2.56
865.808	38.4
865.982	48.64
866.156	38.4
866.329	9.73
866.503	110.08
866.676	-35.33
866.85	-0.51
867.024	-23.04
867.197	114.17
867.371	48.64
867.544	17.92
867.718	13.82
867.891	38.4
868.065	50.69
868.238	40.45
868.412	50.69
868.585	44.54
868.759	32.26
868.932	38.4
869.105	-14.85
869.279	40.45
869.452	-18.94
869.625	50.69
869.799	11.78
869.972	-18.94
870.145	-23.04
870.319	65.02
870.492	-47.62
870.665	9.73
870.838	17.92
871.011	30.21
871.185	-37.38
871.358	1.54
871.531	46.59
871.704	-43.52
871.877	38.4
872.05	-6.66
872.223	-43.52
872.396	56.83
872.569	48.64
872.742	-25.09
872.915	50.69
873.088	5.63
873.261	-51.71
873.434	54.78
873.607	46.59
873.78	60.93
873.953	-18.94
874.126	-10.75
874.299	48.64
874.471	32.26
874.644	19.97
874.817	30.21
874.99	48.64
875.163	-12.8
875.335	13.82
875.508	30.21
875.681	-2.56
875.853	-6.66
876.026	9.73
876.199	85.5
876.371	30.21
876.544	71.17
876.717	-23.04
876.889	54.78
877.062	15.87
877.234	-33.28
877.407	62.98
877.579	15.87
877.752	11.78
877.924	1.54
878.097	34.3
878.269	-25.09
878.442	48.64
878.614	58.88
878.786	-35.33
878.959	73.21
879.131	30.21
879.303	-0.51
879.476	58.88
879.648	48.64
879.82	-14.85
879.993	24.06
880.165	-16.9
880.337	30.21
880.509	38.4
880.681	-2.56
880.854	30.21
881.026	11.78
881.198	65.02
881.37	-59.9
881.542	5.63
881.714	-45.57
881.886	24.06
882.058	-64
882.23	50.69
882.402	-43.52
882.574	30.21
882.746	-2.56
882.918	44.54
883.09	71.17
883.262	5.63
883.434	5.63
883.606	-31.23
883.778	-27.14
883.95	-2.56
884.122	46.59
884.293	67.07
884.465	-6.66
884.637	89.6
884.809	-10.75
884.98	97.79
885.152	65.02
885.324	-8.7
885.496	-31.23
885.667	-35.33
885.839	67.07
886.011	40.45
886.182	38.4
886.354	114.17
886.525	87.55
886.697	42.5
886.869	-23.04
887.04	-41.47
887.212	60.93
887.383	58.88
887.555	65.02
887.726	15.87
887.897	-31.23
888.069	-4.61
888.24	85.5
888.412	144.89
888.583	56.83
888.754	17.92
888.926	-23.04
889.097	3.58
889.268	-2.56
889.44	17.92
889.611	-8.7
889.782	-14.85
889.953	48.64
890.125	120.32
890.296	-0.51
890.467	32.26
890.638	5.63
890.809	32.26
890.98	-47.62
891.151	38.4
891.323	50.69
891.494	30.21
891.665	89.6
891.836	58.88
892.007	13.82
892.178	54.78
892.349	50.69
892.52	7.68
892.691	22.02
892.862	-18.94
893.032	-35.33
893.203	-4.61
893.374	-53.76
893.545	-12.8
893.716	7.68
893.887	58.88
894.057	-0.51
894.228	-25.09
894.399	9.73
894.57	28.16
894.74	17.92
894.911	46.59
895.082	34.3
895.253	40.45
895.423	54.78
895.594	79.36
895.764	3.58
895.935	3.58
896.106	-23.04
896.276	48.64
896.447	62.98
896.617	-2.56
896.788	-43.52
896.958	1.54
897.129	-68.09
897.299	-0.51
897.47	-31.23
897.64	-31.23
897.81	-0.51
897.981	34.3
898.151	-35.33
898.322	-18.94
898.492	54.78
898.662	-27.14
898.832	-68.09
899.003	62.98
899.173	36.35
899.343	5.63
899.513	-59.9
