Data from USB4F104151__157__14-32-02-197.txt Node

Date: Thu Mar 13 14:32:02 EDT 2025
User: louis
Spectrometer: USB4F10415
Trigger mode: 4
Integration Time (sec): 2.500000E-2
Scans to average: 1
Electric dark correction enabled: true
Nonlinearity correction enabled: false
Boxcar width: 0
XAxis mode: Wavelengths
Number of Pixels in Spectrum: 3648
>>>>>Begin Spectral Data<<<<<
178.204	-135.68
178.424	-135.68
178.644	-135.68
178.864	-176.64
179.084	-123.39
179.304	-27.14
179.524	-8.7
179.744	85.5
179.964	-4.61
180.184	44.54
180.404	48.64
180.624	-39.42
180.844	-25.09
181.064	-37.38
181.283	-57.86
181.503	22.02
181.723	-0.51
181.943	-107.01
182.163	56.83
182.383	17.92
182.602	32.26
182.822	105.98
183.042	67.07
183.262	-45.57
183.482	40.45
183.701	32.26
183.921	93.69
184.141	-0.51
184.361	126.46
184.58	71.17
184.8	-41.47
185.02	48.64
185.239	60.93
185.459	103.93
185.679	52.74
185.898	-25.09
186.118	89.6
186.338	42.5
186.557	-25.09
186.777	-8.7
186.997	7.68
187.216	7.68
187.436	81.41
187.655	-39.42
187.875	69.12
188.095	44.54
188.314	85.5
188.534	132.61
188.753	-29.18
188.973	15.87
189.192	15.87
189.412	3.58
189.631	75.26
189.851	-8.7
190.07	56.83
190.29	56.83
190.509	1.54
190.729	30.21
190.948	34.3
191.168	148.99
191.387	48.64
191.607	19.97
191.826	11.78
192.045	-33.28
192.265	67.07
192.484	-31.23
192.704	99.84
192.923	-78.33
193.142	56.83
193.362	13.82
193.581	97.79
193.8	38.4
194.02	38.4
194.239	32.26
194.458	48.64
194.678	38.4
194.897	75.26
195.116	11.78
195.335	19.97
195.555	32.26
195.774	99.84
195.993	46.59
196.212	58.88
196.432	52.74
196.651	24.06
196.87	44.54
197.089	114.17
197.308	15.87
197.528	52.74
197.747	24.06
197.966	58.88
198.185	56.83
198.404	-8.7
198.623	15.87
198.842	130.56
199.062	36.35
199.281	56.83
199.5	-29.18
199.719	24.06
199.938	159.23
200.157	89.6
200.376	138.75
200.595	34.3
200.814	36.35
201.033	48.64
201.252	73.21
201.471	112.13
201.69	95.74
201.909	73.21
202.128	67.07
202.347	108.03
202.566	22.02
202.785	-0.51
203.004	22.02
203.223	179.71
203.442	22.02
203.661	38.4
203.879	40.45
204.098	52.74
204.317	24.06
204.536	9.73
204.755	3.58
204.974	81.41
205.193	9.73
205.411	116.22
205.63	77.31
205.849	-27.14
206.068	40.45
206.287	-23.04
206.505	108.03
206.724	-8.7
206.943	28.16
207.162	36.35
207.381	9.73
207.599	81.41
207.818	38.4
208.037	5.63
208.255	58.88
208.474	50.69
208.693	48.64
208.911	-12.8
209.13	114.17
209.349	69.12
209.567	122.37
209.786	126.46
210.005	65.02
210.223	7.68
210.442	7.68
210.661	24.06
210.879	7.68
211.098	42.5
211.316	91.65
211.535	99.84
211.753	34.3
211.972	60.93
212.191	-16.9
212.409	24.06
212.628	-4.61
212.846	36.35
213.065	105.98
213.283	101.89
213.502	30.21
213.72	58.88
213.938	44.54
214.157	-16.9
214.375	50.69
214.594	-16.9
214.812	48.64
215.031	5.63
215.249	58.88
215.467	26.11
215.686	32.26
215.904	11.78
216.122	73.21
216.341	60.93
216.559	85.5
216.778	56.83
216.996	77.31
217.214	44.54
217.432	56.83
217.651	1.54
217.869	28.16
218.087	26.11
218.306	34.3
218.524	36.35
218.742	-47.62
218.96	-74.24
219.179	81.41
219.397	65.02
219.615	118.27
219.833	-23.04
220.051	60.93
220.27	9.73
220.488	32.26
220.706	50.69
220.924	-6.66
221.142	48.64
221.36	-8.7
221.578	56.83
221.796	-2.56
222.015	15.87
222.233	44.54
222.451	7.68
222.669	32.26
222.887	81.41
223.105	48.64
223.323	-20.99
223.541	44.54
223.759	19.97
223.977	-0.51
224.195	32.26
224.413	114.17
224.631	24.06
224.849	22.02
225.067	99.84
225.285	42.5
225.503	40.45
225.721	-25.09
225.939	11.78
226.157	52.74
226.375	126.46
226.592	17.92
226.81	17.92
227.028	56.83
227.246	73.21
227.464	65.02
227.682	89.6
227.9	44.54
228.117	-8.7
228.335	22.02
228.553	7.68
228.771	19.97
228.989	-6.66
229.206	65.02
229.424	-8.7
229.642	5.63
229.86	24.06
230.077	48.64
230.295	-33.28
230.513	101.89
230.731	116.22
230.948	77.31
231.166	73.21
231.384	11.78
231.601	-20.99
231.819	91.65
232.037	69.12
232.254	15.87
232.472	108.03
232.689	-25.09
232.907	108.03
233.125	101.89
233.342	17.92
233.56	-64
233.777	34.3
233.995	-0.51
234.213	48.64
234.43	11.78
234.648	58.88
234.865	5.63
235.083	83.45
235.3	-12.8
235.518	32.26
235.735	19.97
235.953	62.98
236.17	32.26
236.388	34.3
236.605	-25.09
236.822	73.21
237.04	-6.66
237.257	48.64
237.475	-8.7
237.692	105.98
237.909	69.12
238.127	48.64
238.344	81.41
238.562	65.02
238.779	-0.51
238.996	-49.66
239.214	91.65
239.431	28.16
239.648	81.41
239.865	77.31
240.083	46.59
240.3	13.82
240.517	-23.04
240.735	-57.86
240.952	122.37
241.169	30.21
241.386	65.02
241.603	52.74
241.821	7.68
242.038	32.26
242.255	52.74
242.472	-33.28
242.689	65.02
242.907	52.74
243.124	13.82
243.341	-8.7
243.558	15.87
243.775	-6.66
243.992	5.63
244.209	32.26
244.426	13.82
244.643	97.79
244.86	93.69
245.078	83.45
245.295	81.41
245.512	24.06
245.729	-0.51
245.946	9.73
246.163	81.41
246.38	48.64
246.597	-4.61
246.814	32.26
247.031	24.06
247.248	15.87
247.464	97.79
247.681	73.21
247.898	-6.66
248.115	52.74
248.332	-12.8
248.549	93.69
248.766	108.03
248.983	50.69
249.2	67.07
249.417	67.07
249.633	24.06
249.85	97.79
250.067	40.45
250.284	105.98
250.501	93.69
250.717	7.68
250.934	-41.47
251.151	93.69
251.368	17.92
251.585	95.74
251.801	34.3
252.018	-16.9
252.235	52.74
252.451	-16.9
252.668	-18.94
252.885	-39.42
253.102	-35.33
253.318	67.07
253.535	71.17
253.752	1.54
253.968	19.97
254.185	24.06
254.401	24.06
254.618	126.46
254.835	24.06
255.051	67.07
255.268	5.63
255.484	97.79
255.701	11.78
255.917	60.93
256.134	19.97
256.351	9.73
256.567	7.68
256.784	97.79
257	-41.47
257.217	38.4
257.433	159.23
257.65	40.45
257.866	15.87
258.082	17.92
258.299	28.16
258.515	56.83
258.732	-0.51
258.948	-8.7
259.165	58.88
259.381	-20.99
259.597	42.5
259.814	-20.99
260.03	-16.9
260.246	17.92
260.463	65.02
260.679	77.31
260.895	99.84
261.112	108.03
261.328	15.87
261.544	28.16
261.761	105.98
261.977	17.92
262.193	32.26
262.409	48.64
262.626	15.87
262.842	91.65
263.058	15.87
263.274	28.16
263.49	93.69
263.707	7.68
263.923	34.3
264.139	-23.04
264.355	85.5
264.571	151.04
264.787	44.54
265.004	32.26
265.22	71.17
265.436	-68.09
265.652	28.16
265.868	56.83
266.084	69.12
266.3	75.26
266.516	15.87
266.732	101.89
266.948	118.27
267.164	48.64
267.38	-16.9
267.596	75.26
267.812	97.79
268.028	56.83
268.244	-49.66
268.46	15.87
268.676	44.54
268.892	69.12
269.108	38.4
269.324	-33.28
269.54	19.97
269.756	128.51
269.972	7.68
270.188	60.93
270.403	32.26
270.619	85.5
270.835	26.11
271.051	60.93
271.267	5.63
271.483	34.3
271.698	79.36
271.914	-12.8
272.13	-29.18
272.346	34.3
272.562	32.26
272.777	108.03
272.993	-53.76
273.209	-25.09
273.425	26.11
273.64	24.06
273.856	40.45
274.072	40.45
274.287	-41.47
274.503	101.89
274.719	101.89
274.934	81.41
275.15	-12.8
275.366	50.69
275.581	65.02
275.797	77.31
276.012	-6.66
276.228	9.73
276.444	15.87
276.659	28.16
276.875	7.68
277.09	-49.66
277.306	-23.04
277.521	97.79
277.737	11.78
277.952	7.68
278.168	46.59
278.383	81.41
278.599	50.69
278.814	93.69
279.03	93.69
279.245	69.12
279.461	48.64
279.676	56.83
279.892	3.58
280.107	48.64
280.322	17.92
280.538	-6.66
280.753	1.54
280.969	-33.28
281.184	19.97
281.399	146.94
281.615	48.64
281.83	75.26
282.045	89.6
282.26	56.83
282.476	56.83
282.691	40.45
282.906	9.73
283.122	58.88
283.337	19.97
283.552	91.65
283.767	34.3
283.983	34.3
284.198	56.83
284.413	97.79
284.628	-20.99
284.843	132.61
285.058	69.12
285.274	32.26
285.489	-16.9
285.704	48.64
285.919	7.68
286.134	9.73
286.349	-25.09
286.564	28.16
286.779	67.07
286.995	83.45
287.21	5.63
287.425	69.12
287.64	46.59
287.855	56.83
288.07	3.58
288.285	7.68
288.5	89.6
288.715	77.31
288.93	83.45
289.145	1.54
289.36	140.8
289.575	50.69
289.79	97.79
290.004	62.98
290.219	-0.51
290.434	40.45
290.649	32.26
290.864	44.54
291.079	81.41
291.294	69.12
291.509	58.88
291.724	-8.7
291.938	-12.8
292.153	110.08
292.368	-14.85
292.583	-6.66
292.798	40.45
293.012	34.3
293.227	91.65
293.442	15.87
293.657	95.74
293.871	103.93
294.086	28.16
294.301	77.31
294.516	48.64
294.73	17.92
294.945	26.11
295.16	26.11
295.374	85.5
295.589	108.03
295.804	26.11
296.018	-8.7
296.233	124.41
296.447	79.36
296.662	7.68
296.877	87.55
297.091	32.26
297.306	69.12
297.52	-29.18
297.735	79.36
297.949	52.74
298.164	26.11
298.378	26.11
298.593	9.73
298.807	42.5
299.022	-25.09
299.236	-6.66
299.451	-16.9
299.665	73.21
299.88	83.45
300.094	48.64
300.309	-43.52
300.523	58.88
300.737	69.12
300.952	50.69
301.166	91.65
301.381	44.54
301.595	81.41
301.809	36.35
302.024	36.35
302.238	-33.28
302.452	101.89
302.667	91.65
302.881	75.26
303.095	75.26
303.309	34.3
303.524	15.87
303.738	15.87
303.952	3.58
304.166	79.36
304.381	5.63
304.595	28.16
304.809	54.78
305.023	28.16
305.237	28.16
305.452	32.26
305.666	52.74
305.88	97.79
306.094	75.26
306.308	77.31
306.522	85.5
306.736	40.45
306.95	48.64
307.164	15.87
307.379	15.87
307.593	114.17
307.807	114.17
308.021	34.3
308.235	114.17
308.449	-49.66
308.663	81.41
308.877	130.56
309.091	32.26
309.305	105.98
309.519	-0.51
309.733	24.06
309.947	13.82
310.161	9.73
310.374	89.6
310.588	67.07
310.802	24.06
311.016	32.26
311.23	56.83
311.444	-20.99
311.658	42.5
311.872	-0.51
312.085	5.63
312.299	163.33
312.513	56.83
312.727	26.11
312.941	73.21
313.154	46.59
313.368	-12.8
313.582	-31.23
313.796	17.92
314.009	46.59
314.223	108.03
314.437	103.93
314.651	69.12
314.864	34.3
315.078	85.5
315.292	17.92
315.505	28.16
315.719	-6.66
315.933	52.74
316.146	1.54
316.36	15.87
316.573	56.83
316.787	116.22
317.001	58.88
317.214	30.21
317.428	-6.66
317.641	60.93
317.855	40.45
318.068	56.83
318.282	19.97
318.495	142.85
318.709	97.79
318.922	50.69
319.136	122.37
319.349	91.65
319.563	40.45
319.776	73.21
319.99	9.73
320.203	9.73
320.417	69.12
320.63	32.26
320.843	69.12
321.057	91.65
321.27	11.78
321.483	42.5
321.697	81.41
321.91	28.16
322.124	130.56
322.337	32.26
322.55	15.87
322.763	91.65
322.977	81.41
323.19	32.26
323.403	-10.75
323.617	13.82
323.83	65.02
324.043	85.5
324.256	67.07
324.469	-35.33
324.683	140.8
324.896	71.17
325.109	28.16
325.322	-6.66
325.535	11.78
325.748	83.45
325.962	87.55
326.175	9.73
326.388	32.26
326.601	65.02
326.814	67.07
327.027	9.73
327.24	56.83
327.453	15.87
327.666	56.83
327.879	81.41
328.092	24.06
328.305	97.79
328.518	42.5
328.731	81.41
328.944	11.78
329.157	-16.9
329.37	114.17
329.583	97.79
329.796	67.07
330.009	-39.42
330.222	89.6
330.435	89.6
330.648	34.3
330.861	40.45
331.073	105.98
331.286	85.5
331.499	42.5
331.712	7.68
331.925	15.87
332.138	42.5
332.35	60.93
332.563	42.5
332.776	85.5
332.989	-23.04
333.202	50.69
333.414	3.58
333.627	58.88
333.84	3.58
334.053	93.69
334.265	-4.61
334.478	-51.71
334.691	1.54
334.903	50.69
335.116	97.79
335.329	34.3
335.541	91.65
335.754	128.51
335.966	85.5
336.179	73.21
336.392	105.98
336.604	89.6
336.817	81.41
337.029	75.26
337.242	69.12
337.454	40.45
337.667	67.07
337.88	67.07
338.092	48.64
338.305	15.87
338.517	83.45
338.729	97.79
338.942	91.65
339.154	52.74
339.367	-0.51
339.579	7.68
339.792	-20.99
340.004	114.17
340.217	28.16
340.429	81.41
340.641	48.64
340.854	11.78
341.066	19.97
341.278	69.12
341.491	79.36
341.703	-4.61
341.915	24.06
342.128	69.12
342.34	26.11
342.552	60.93
342.764	48.64
342.977	142.85
343.189	50.69
343.401	97.79
343.613	26.11
343.826	7.68
344.038	48.64
344.25	52.74
344.462	65.02
344.674	36.35
344.886	17.92
345.099	24.06
345.311	97.79
345.523	52.74
345.735	65.02
345.947	77.31
346.159	120.32
346.371	26.11
346.583	56.83
346.795	42.5
347.007	73.21
347.219	81.41
347.431	-68.09
347.643	40.45
347.855	32.26
348.067	81.41
348.279	40.45
348.491	110.08
348.703	83.45
348.915	-8.7
349.127	60.93
349.339	48.64
349.551	40.45
349.763	32.26
349.975	101.89
350.187	24.06
350.399	85.5
350.61	28.16
350.822	42.5
351.034	58.88
351.246	36.35
351.458	32.26
351.669	32.26
351.881	17.92
352.093	122.37
352.305	38.4
352.517	56.83
352.728	75.26
352.94	97.79
353.152	24.06
353.363	26.11
353.575	85.5
353.787	93.69
353.999	44.54
354.21	105.98
354.422	40.45
354.633	30.21
354.845	79.36
355.057	15.87
355.268	97.79
355.48	124.41
355.692	42.5
355.903	24.06
356.115	60.93
356.326	-2.56
356.538	114.17
356.749	99.84
356.961	81.41
357.172	40.45
357.384	38.4
357.595	105.98
357.807	85.5
358.018	50.69
358.23	93.69
358.441	153.09
358.653	136.7
358.864	19.97
359.075	105.98
359.287	87.55
359.498	91.65
359.709	48.64
359.921	105.98
360.132	60.93
360.344	30.21
360.555	32.26
360.766	118.27
360.977	50.69
361.189	48.64
361.4	67.07
361.611	81.41
361.823	173.57
362.034	56.83
362.245	75.26
362.456	40.45
362.667	77.31
362.879	-0.51
363.09	77.31
363.301	15.87
363.512	130.56
363.723	7.68
363.935	81.41
364.146	50.69
364.357	99.84
364.568	99.84
364.779	-20.99
364.99	110.08
365.201	67.07
365.412	89.6
365.623	26.11
365.834	15.87
366.045	75.26
366.256	128.51
366.467	38.4
366.678	38.4
366.889	44.54
367.1	3.58
367.311	19.97
367.522	28.16
367.733	91.65
367.944	50.69
368.155	-14.85
368.366	34.3
368.577	97.79
368.788	97.79
368.999	85.5
369.209	52.74
369.42	142.85
369.631	134.65
369.842	40.45
370.053	85.5
370.264	110.08
370.474	-8.7
370.685	58.88
370.896	122.37
371.107	132.61
371.317	67.07
371.528	56.83
371.739	60.93
371.95	69.12
372.16	81.41
372.371	50.69
372.582	48.64
372.792	99.84
373.003	32.26
373.214	112.13
373.424	-31.23
373.635	73.21
373.846	140.8
374.056	26.11
374.267	97.79
374.477	28.16
374.688	56.83
374.898	32.26
375.109	50.69
375.319	122.37
375.53	19.97
375.74	114.17
375.951	13.82
376.161	112.13
376.372	142.85
376.582	108.03
376.793	114.17
377.003	91.65
377.214	34.3
377.424	73.21
377.635	93.69
377.845	83.45
378.055	120.32
378.266	65.02
378.476	44.54
378.686	26.11
378.897	146.94
379.107	81.41
379.317	77.31
379.528	95.74
379.738	24.06
379.948	-4.61
380.158	157.18
380.369	52.74
380.579	32.26
380.789	73.21
380.999	48.64
381.21	83.45
381.42	71.17
381.63	110.08
381.84	81.41
382.05	19.97
382.261	157.18
382.471	79.36
382.681	73.21
382.891	81.41
383.101	87.55
383.311	87.55
383.521	62.98
383.731	155.13
383.941	38.4
384.151	75.26
384.361	52.74
384.571	62.98
384.781	89.6
384.991	67.07
385.201	126.46
385.411	75.26
385.621	24.06
385.831	134.65
386.041	54.78
386.251	19.97
386.461	-33.28
386.671	93.69
386.881	42.5
387.091	9.73
387.301	108.03
387.511	56.83
387.72	81.41
387.93	124.41
388.14	67.07
388.35	28.16
388.56	48.64
388.769	171.52
388.979	105.98
389.189	17.92
389.399	128.51
389.609	122.37
389.818	124.41
390.028	93.69
390.238	40.45
390.447	67.07
390.657	65.02
390.867	22.02
391.076	108.03
391.286	11.78
391.496	116.22
391.705	3.58
391.915	97.79
392.125	181.76
392.334	81.41
392.544	65.02
392.753	105.98
392.963	7.68
393.172	40.45
393.382	7.68
393.591	181.76
393.801	93.69
394.01	144.89
394.22	99.84
394.429	73.21
394.639	142.85
394.848	124.41
395.058	87.55
395.267	116.22
395.477	132.61
395.686	130.56
395.895	130.56
396.105	140.8
396.314	69.12
396.524	171.52
396.733	44.54
396.942	120.32
397.152	116.22
397.361	181.76
397.57	87.55
397.78	93.69
397.989	95.74
398.198	146.94
398.407	56.83
398.617	93.69
398.826	124.41
399.035	132.61
399.244	189.95
399.453	87.55
399.663	132.61
399.872	140.8
400.081	91.65
400.29	65.02
400.499	89.6
400.708	189.95
400.917	114.17
401.127	126.46
401.336	202.24
401.545	173.57
401.754	142.85
401.963	208.38
402.172	171.52
402.381	114.17
402.59	177.66
402.799	194.05
403.008	194.05
403.217	146.94
403.426	163.33
403.635	206.33
403.844	206.33
404.053	206.33
404.262	81.41
404.471	228.86
404.68	183.81
404.888	148.99
405.097	183.81
405.306	228.86
405.515	198.14
405.724	200.19
405.933	228.86
406.142	175.61
406.35	226.81
406.559	208.38
406.768	196.09
406.977	273.92
407.185	200.19
407.394	292.35
407.603	220.67
407.812	331.26
408.02	220.67
408.229	237.05
408.438	249.34
408.646	253.44
408.855	368.12
409.064	314.88
409.272	327.16
409.481	407.03
409.69	351.74
409.898	278.01
410.107	458.23
410.315	439.8
410.524	396.79
410.733	468.47
410.941	368.12
411.15	421.37
411.358	536.06
411.567	572.92
411.775	466.42
411.984	566.78
412.192	556.54
412.401	491
412.609	638.45
412.818	650.74
413.026	638.45
413.234	640.5
413.443	669.17
413.651	734.71
413.86	654.84
414.068	798.2
414.276	808.44
414.485	841.2
414.693	790
414.901	929.27
415.11	929.27
415.318	910.83
415.526	880.11
415.734	1002.99
415.943	1058.29
416.151	998.9
416.359	1107.44
416.567	1107.44
416.776	1183.21
416.984	1162.73
417.192	1220.08
417.4	1250.8
417.608	1334.76
417.817	1295.85
418.025	1447.4
418.233	1531.37
418.441	1449.45
418.649	1543.66
418.857	1678.82
419.065	1658.34
419.273	1650.15
419.481	1766.89
419.689	1809.89
419.897	1865.19
420.105	1924.58
420.313	1969.63
420.521	2008.55
420.729	1965.54
420.937	2158.05
421.145	2268.64
421.353	2438.62
421.561	2502.11
421.769	2393.56
421.977	2801.11
422.185	2631.13
422.393	2711
422.601	2835.92
422.809	2850.26
423.017	2837.97
423.224	2997.71
423.432	3179.98
423.64	3290.57
423.848	3485.13
424.056	3309.01
424.263	3583.43
424.471	3565
424.679	3608.01
424.887	3841.48
425.094	3997.12
425.302	4111.81
425.51	4136.38
425.718	4318.65
425.925	4386.24
426.133	4421.05
426.341	4824.5
426.548	4974
426.756	4877.75
426.964	5146.03
427.171	5328.3
427.379	5486
427.586	5463.47
427.794	5529
428.001	5809.58
428.209	6231.46
428.417	6155.68
428.624	6565.28
428.832	6573.47
429.039	6573.47
429.247	6407.58
429.454	7171.47
429.662	7544.2
429.869	7036.31
430.076	7542.16
430.284	7241.11
430.491	7654.8
430.699	8027.53
430.906	8142.21
431.114	8148.36
431.321	8394.11
431.528	8654.2
431.736	9239.92
431.943	9403.76
432.15	9543.02
432.358	9600.37
432.565	9966.95
432.772	9921.9
432.979	10511.71
433.187	10722.65
433.394	10642.78
433.601	11304.28
433.808	11550.03
434.016	11541.84
434.223	11822.41
434.43	12737.85
434.637	12338.5
434.844	13133.11
435.052	13225.27
435.259	13407.54
435.466	13442.35
435.673	13325.62
435.88	13985.07
436.087	14951.71
436.294	14712.1
436.501	14257.45
436.708	14656.8
436.915	15406.36
437.122	15934.73
437.329	15641.87
437.537	16184.59
437.743	16600.32
437.95	16327.94
438.157	17255.67
438.364	17958.13
438.571	17738.99
438.778	17868.02
438.985	19336.41
439.192	18693.35
439.399	19467.48
439.606	19033.31
439.813	20235.47
440.02	21241.02
440.227	21003.46
440.433	20884.67
440.64	21443.77
440.847	21384.38
441.054	21734.58
441.261	23284.89
441.467	22799.52
441.674	23119.01
441.881	24106.13
442.088	24196.24
442.294	23731.35
442.501	24151.18
442.708	24695.94
442.914	26119.28
443.121	26604.65
443.328	26055.79
443.534	28081.24
443.741	27233.38
443.948	26838.12
444.154	28746.83
444.361	28697.67
444.568	28941.38
444.774	28806.22
444.981	29076.55
445.187	29760.57
445.394	31788.06
445.6	31034.41
445.807	33793.02
446.013	32435.22
446.22	32887.82
446.426	34358.26
446.633	34532.34
446.839	35593.18
447.046	33944.57
447.252	36281.3
447.459	36293.59
447.665	36051.93
447.871	37678.02
448.078	39050.16
448.284	37270.47
448.491	38226.87
448.697	39742.37
448.903	40135.58
449.11	40338.33
449.316	39719.84
449.522	40770.45
449.728	41905.02
449.935	42335.1
450.141	42068.86
450.347	42961.78
450.553	41511.81
450.76	42105.73
450.966	43672.42
451.172	42683.25
451.378	44290.91
451.584	43035.5
451.791	44243.8
451.997	44381.02
452.203	45085.52
452.409	44856.15
452.615	44917.59
452.821	43035.5
453.027	42849.14
453.233	44641.11
453.44	42806.13
453.646	43221.87
453.852	43848.55
454.058	44792.66
454.264	43178.86
454.47	44102.5
454.676	43058.03
454.882	44460.89
455.088	40543.13
455.294	41368.46
455.5	41704.32
455.705	42455.93
455.911	40805.27
456.117	40127.39
456.323	39541.67
456.529	37086.15
456.735	39160.75
456.941	37895.1
457.147	37487.56
457.352	36142.04
457.558	35777.5
457.764	36109.27
457.97	35042.28
458.176	34790.38
458.381	34391.03
458.587	32762.89
458.793	32916.49
458.999	31216.68
459.204	33209.35
459.41	32617.49
459.616	30301.23
459.821	30329.91
460.027	30178.36
460.233	29875.26
460.438	27876.44
460.644	28247.12
460.85	27249.76
461.055	26760.3
461.261	26504.3
461.466	24642.7
461.672	23755.93
461.878	25861.24
462.083	23858.32
462.289	23610.52
462.494	23436.44
462.7	22115.5
462.905	21564.6
463.111	22252.72
463.316	22715.56
463.522	21834.93
463.727	22133.93
463.932	21855.41
464.138	21439.67
464.343	21642.42
464.549	20894.91
464.754	21736.63
464.959	21552.31
465.165	21331.13
465.37	20249.8
465.575	19961.04
465.781	20647.11
465.986	20774.08
466.191	19938.51
466.397	19535.06
466.602	18689.25
466.807	19506.39
467.012	19195.1
467.218	19381.46
467.423	19053.79
467.628	19295.45
467.833	19975.38
468.038	19057.89
468.244	18787.55
468.449	19094.75
468.654	18517.22
468.859	18511.08
469.064	18289.9
469.269	17804.53
469.474	17763.57
469.679	18005.23
469.885	17745.14
470.09	17745.14
470.295	17669.36
470.5	17372.41
470.705	17575.16
470.91	16833.79
471.115	17102.08
471.32	17218.81
471.525	16997.63
471.73	16850.17
471.935	16573.7
472.139	16096.52
472.344	16377.09
472.549	15781.14
472.754	15836.43
472.959	15723.79
473.164	15365.4
473.369	15076.63
473.574	15639.83
473.778	15396.12
473.983	15449.36
474.188	15269.14
474.393	14470.44
474.598	14710.05
474.802	14574.88
475.007	14093.61
475.212	14421.28
475.417	13788.46
475.621	13864.24
475.826	14153
476.031	13561.14
476.235	13446.45
476.44	13770.03
476.645	13129.02
476.849	13622.58
477.054	13178.17
477.259	12770.62
477.463	12895.55
477.668	12682.56
477.872	12975.42
478.077	12625.22
478.282	12326.21
478.486	12184.9
478.691	12143.94
478.895	12148.04
479.1	11969.87
479.304	12045.64
479.509	11717.97
479.713	11908.43
479.918	11732.3
480.122	11406.67
480.326	11640.14
480.531	11711.82
480.735	11498.83
480.94	11488.59
481.144	11828.56
481.348	11208.02
481.553	11429.2
481.757	11011.42
481.961	11203.93
482.166	11588.94
482.37	11435.35
482.574	11226.45
482.778	11029.85
482.983	11296.08
483.187	11214.16
483.391	11160.92
483.595	11115.86
483.8	10947.93
484.004	11156.82
484.208	11316.56
484.412	11025.75
484.616	10974.55
484.821	11081.05
485.025	10796.38
485.229	11201.88
485.433	10954.07
485.637	11062.62
485.841	10929.5
486.045	10812.76
486.249	10911.07
486.453	10982.74
486.657	11136.34
486.861	11048.28
487.065	10784.09
487.269	11040.09
487.473	10855.77
487.677	11007.32
487.881	11132.25
488.085	11079
488.289	10997.08
488.493	11134.29
488.697	11363.67
488.901	11187.54
489.105	11136.34
489.309	11181.4
489.512	10966.36
489.716	11070.81
489.92	11066.71
490.124	10976.6
490.328	11238.74
490.531	11115.86
490.735	11378
490.939	11212.12
491.143	11259.22
491.346	11093.33
491.55	11496.78
491.754	11263.32
491.958	11494.74
492.161	11296.08
492.365	11746.64
492.569	11357.52
492.772	11478.35
492.976	11574.61
493.18	11693.39
493.383	11840.84
493.587	11777.36
493.79	11920.71
493.994	11797.84
494.197	11998.54
494.401	11943.24
494.605	11908.43
494.808	12297.54
495.012	12082.5
495.215	12318.02
495.419	12272.96
495.622	12619.07
495.825	12463.43
496.029	12535.1
496.232	12778.81
496.436	12746.05
496.639	13163.83
496.843	13110.58
497.046	13339.96
497.249	13503.79
497.453	13471.03
497.656	13554.99
497.859	13505.84
498.063	13675.82
498.266	13915.44
498.469	13845.8
498.673	14069.03
498.876	14386.47
499.079	14488.87
499.282	14390.56
499.485	14710.05
499.689	14898.46
499.892	14959.9
500.095	14904.6
500.298	15258.9
500.501	15095.07
500.705	15383.83
500.908	15676.69
501.111	16047.37
501.314	15885.58
501.517	16051.47
501.72	16311.56
501.923	16325.89
502.126	16540.93
502.329	16807.17
502.532	16897.28
502.735	16971.01
502.938	17558.77
503.141	17722.61
503.344	17775.86
503.547	17865.97
503.75	18201.83
503.953	18302.18
504.156	18474.21
504.359	18648.29
504.562	18629.86
504.765	19059.93
504.968	19299.55
505.17	19240.15
505.373	19410.14
505.576	19741.91
505.779	19952.85
505.982	20325.58
506.185	20542.66
506.387	20393.16
506.59	20460.74
506.793	20933.82
506.996	20982.98
507.198	21640.37
507.401	21474.49
507.604	21687.48
507.807	22092.97
508.009	22414.51
508.212	22174.89
508.415	22553.77
508.617	22705.32
508.82	23190.69
509.022	22795.43
509.225	23293.08
509.428	23454.87
509.63	24011.92
509.833	23688.34
510.035	24255.63
510.238	24331.4
510.44	24550.54
510.643	25103.49
510.845	25222.27
511.048	25033.86
511.25	25621.63
511.453	25785.46
511.655	26219.63
511.858	26291.31
512.06	26213.49
512.262	26793.06
512.465	26612.84
512.667	27133.03
512.87	27579.48
513.072	27569.24
513.274	27974.74
513.477	27894.87
513.679	28251.22
513.881	28732.49
514.084	29113.41
514.286	28927.05
514.488	28849.22
514.69	29893.69
514.893	29764.67
515.095	30037.05
515.297	30282.8
515.499	30555.18
515.701	30710.83
515.904	31024.17
516.106	30889
516.308	31210.53
516.51	31783.96
516.712	31945.75
516.914	31919.13
517.116	32545.81
517.318	32764.94
517.52	33025.03
517.722	33242.12
517.925	33240.07
518.127	34192.37
518.329	33954.81
518.531	33909.75
518.733	34386.93
518.935	34726.89
519.136	34565.1
519.338	35458.02
519.54	35148.78
519.742	35435.49
519.944	35679.2
520.146	36293.59
520.348	36223.96
520.55	36307.93
520.752	36664.27
520.954	36694.99
521.155	36574.16
521.357	37487.56
521.559	37407.69
521.761	38013.88
521.963	37589.95
522.164	37864.38
522.366	38435.77
522.568	38325.18
522.77	38302.65
522.971	38900.65
523.173	38958
523.375	39257
523.576	38880.17
523.778	39082.92
523.98	39158.7
524.181	39367.59
524.383	39682.98
524.584	39768.99
524.786	39490.47
524.988	40090.52
525.189	40287.13
525.391	40414.1
525.592	40588.18
525.794	40444.82
525.995	40842.13
526.197	40190.87
526.398	40555.41
526.6	40965.01
526.801	41044.88
527.003	41149.32
527.204	40989.58
527.406	41601.93
527.607	41061.26
527.808	41579.4
528.01	40838.03
528.211	41341.83
528.412	42539.89
528.614	41542.53
528.815	41458.57
529.016	41958.27
529.218	41644.93
529.419	41579.4
529.62	41540.49
529.822	41673.6
530.023	41599.88
530.224	41751.43
530.425	41794.43
530.626	41733
530.828	41423.75
531.029	42124.16
531.23	41796.48
531.431	41696.13
531.632	41569.16
531.833	41321.35
532.035	41716.61
532.236	41808.77
532.437	41907.07
532.638	41345.93
532.839	41728.9
533.04	41821.06
533.241	41407.37
533.442	41786.24
533.643	41382.79
533.844	41634.69
534.045	41575.3
534.246	40887.18
534.447	41477
534.648	41556.87
534.849	41794.43
535.05	41178
535.251	41194.38
535.451	41075.6
535.652	41452.42
535.853	41106.32
536.054	41593.73
536.255	41292.68
536.456	40967.05
536.657	41644.93
536.857	41390.98
537.058	40840.08
537.259	41616.26
537.46	41405.32
537.66	41061.26
537.861	40903.57
538.062	41214.86
538.263	41122.7
538.463	40790.93
538.664	41051.02
538.865	41452.42
539.065	41100.17
539.266	40459.16
539.466	40979.34
539.667	40422.3
539.868	40940.43
540.068	41083.79
540.269	40657.81
540.469	40725.39
540.67	40719.25
540.87	40424.34
541.071	40526.74
541.271	40819.6
541.472	40668.05
541.672	40547.22
541.873	40096.67
542.073	40047.52
542.274	40739.73
542.474	40592.28
542.675	40369.05
542.875	40784.79
543.075	40442.77
543.276	39936.93
543.476	40721.3
543.676	40319.9
543.877	40444.82
544.077	40410.01
544.277	40326.04
544.478	40190.87
544.678	40356.76
544.878	40209.31
545.078	40137.63
545.279	40289.18
545.479	40006.56
545.679	40410.01
545.879	40391.58
546.079	39971.74
546.28	39977.89
546.48	40063.9
546.68	40258.46
546.88	40309.66
547.08	40405.91
547.28	40129.44
547.48	39861.15
547.68	40117.15
547.88	40151.96
548.081	40154.01
548.281	40221.59
548.481	39797.66
548.681	40473.49
548.881	40115.1
549.081	40385.43
549.28	39922.59
549.48	40446.87
549.68	39736.23
549.88	40584.08
550.08	40098.72
550.28	40205.21
550.48	40268.7
550.68	40475.54
550.88	40127.39
551.08	40074.14
551.279	40434.58
551.479	39932.83
551.679	40330.14
551.879	40115.1
552.079	40588.18
552.278	40111
552.478	40489.88
552.678	40459.16
552.878	40399.77
553.077	40323.99
553.277	40125.34
553.477	40485.78
553.676	40338.33
553.876	40221.59
554.076	40199.07
554.275	40201.11
554.475	39713.7
554.674	40246.17
554.874	40479.64
555.074	40006.56
555.273	40481.69
555.473	40881.04
555.672	40061.85
555.872	40395.67
556.071	40565.65
556.271	40430.49
556.47	40092.57
556.67	40133.53
556.869	40364.95
557.068	40317.85
557.268	40270.75
557.467	40174.49
557.667	40258.46
557.866	40786.83
558.065	40297.37
558.265	39871.39
558.464	40006.56
558.663	40280.99
558.863	40207.26
559.062	40524.69
559.261	40008.61
559.461	40465.3
559.66	39613.35
559.859	40579.99
560.058	40149.92
560.258	40434.58
560.457	39951.26
560.656	40440.73
560.855	40442.77
561.054	40338.33
561.253	39789.47
561.453	40020.89
561.652	40561.56
561.851	40250.27
562.05	40145.82
562.249	40039.33
562.448	40070.04
562.647	40061.85
562.846	39957.41
563.045	39947.17
563.244	39588.77
563.443	40018.85
563.642	39699.36
563.841	39852.96
564.04	40164.25
564.239	39967.65
564.438	39900.06
564.637	39822.24
564.836	39646.12
565.035	39259.05
565.234	39781.28
565.432	39422.89
565.631	39517.09
565.83	39523.24
566.029	39041.96
566.228	39496.61
566.427	39533.48
566.625	39355.3
566.824	39007.15
567.023	38972.33
567.222	38364.09
567.42	39295.91
567.619	39089.07
567.818	38843.31
568.016	38904.75
568.215	39060.4
568.414	38704.05
568.612	39232.43
568.811	38712.24
569.01	38826.93
569.208	38466.49
569.407	38683.57
569.605	38443.96
569.804	38560.69
570.002	38196.15
570.201	38464.44
570.4	38298.55
570.598	38069.18
570.797	37907.39
570.995	38054.84
571.193	37710.78
571.392	37893.05
571.59	37815.23
571.789	37934.01
571.987	37837.76
572.186	37764.03
572.384	37465.03
572.582	37698.5
572.781	38083.51
572.979	37065.67
573.177	37178.31
573.376	37180.36
573.574	37211.08
573.772	37018.57
573.971	36821.97
574.169	37010.38
574.367	36709.33
574.565	36969.42
574.763	37129.16
574.962	36580.31
575.16	36754.38
575.358	36441.04
575.556	35849.18
575.754	36596.69
575.952	36035.55
576.151	36406.23
576.349	35711.97
576.547	35705.82
576.745	35746.78
576.943	36045.79
577.141	35697.63
577.339	35333.09
577.537	35654.62
577.735	35611.62
577.933	35220.45
578.131	35673.06
578.329	35124.2
578.527	34882.54
578.725	35339.24
578.923	35546.08
579.121	34995.18
579.319	34677.74
579.516	35156.97
579.714	35107.82
579.912	34661.36
580.11	34642.93
580.308	34659.31
580.506	34546.67
580.704	33893.37
580.901	34548.72
581.099	34608.11
581.297	34276.34
581.495	34417.65
581.692	34163.7
581.89	33799.16
582.088	33840.12
582.285	33950.71
582.483	34018.3
582.681	33512.45
582.878	33358.85
583.076	33063.94
583.274	33637.37
583.471	33002.5
583.669	33264.64
583.866	33233.92
584.064	33203.21
584.262	33096.71
584.459	33090.57
584.657	32713.74
584.854	32939.02
585.052	32263.19
585.249	32959.5
585.447	32922.63
585.644	32502.8
585.841	32347.15
586.039	32816.14
586.236	32154.65
586.434	31726.62
586.631	32140.31
586.828	32199.7
587.026	32222.23
587.223	31917.08
587.42	31786.01
587.618	32072.73
587.815	31527.97
588.012	31433.76
588.21	31636.51
588.407	31736.86
588.604	31415.33
588.801	31087.65
588.999	31450.14
589.196	31534.11
589.393	30903.34
589.59	30870.57
589.787	30964.78
589.984	30772.27
590.182	30618.67
590.379	30972.97
590.576	30745.64
590.773	30821.42
590.97	30383.15
591.167	30520.37
591.364	30481.45
591.561	30608.43
591.758	30094.39
591.955	30358.58
592.152	30428.21
592.349	30499.89
592.546	30284.85
592.743	30123.06
592.94	29848.63
593.137	29920.31
593.334	30008.37
593.531	29752.38
593.727	29897.78
593.924	29920.31
594.121	29389.89
594.318	29998.13
594.515	29523.01
594.712	29537.34
594.908	29455.42
595.105	29799.48
595.302	29371.46
595.499	29461.57
595.696	29613.12
595.892	29023.3
596.089	29346.88
596.286	29295.68
596.482	29113.41
596.679	29277.25
596.876	29176.9
597.072	28832.84
597.269	28812.36
597.466	28636.24
597.662	28802.12
597.859	28595.28
598.055	28808.26
598.252	28433.49
598.448	28947.53
598.645	28824.65
598.841	28726.35
599.038	28523.6
599.234	28824.65
599.431	28312.66
599.627	28554.32
599.824	28353.62
600.02	28501.07
600.217	28533.84
600.413	28210.26
600.609	28763.21
600.806	28220.5
601.002	28578.89
601.198	28421.2
601.395	28226.64
601.591	27976.79
601.787	28351.57
601.984	28071
602.18	28761.16
602.376	28130.39
602.572	28091.48
602.769	28177.49
602.965	28046.42
603.161	27958.36
603.357	27952.21
603.553	27913.3
603.75	28021.84
603.946	28087.38
604.142	28042.32
604.338	28040.28
604.534	28263.5
604.73	27954.26
604.926	27948.12
605.122	28087.38
605.318	27911.25
605.514	27849.82
605.71	28058.71
605.906	27892.82
606.102	27982.93
606.298	28302.42
606.494	28040.28
606.69	28124.24
606.886	27858.01
607.082	27765.85
607.278	28048.47
607.474	27714.65
607.67	28169.3
607.866	27786.33
608.062	28249.17
608.257	28150.87
608.453	28081.24
608.649	28015.7
608.845	28007.51
609.041	27853.91
609.236	28097.62
609.432	27931.73
609.628	27980.89
609.824	28052.56
610.019	28103.76
610.215	28097.62
610.411	28101.72
610.606	27896.92
610.802	28533.84
610.998	28116.05
611.193	28247.12
611.389	28138.58
611.584	28011.6
611.78	28007.51
611.976	28382.29
612.171	28230.74
612.367	28032.08
612.562	28212.31
612.758	27872.34
612.953	27929.69
613.149	28370
613.344	27976.79
613.539	28396.62
613.735	28042.32
613.93	28077.14
614.126	28030.04
614.321	28568.65
614.517	28025.94
614.712	28042.32
614.907	28056.66
615.103	28517.45
615.298	27966.55
615.493	28324.94
615.688	28040.28
615.884	28509.26
616.079	27995.22
616.274	28132.43
616.47	27817.05
616.665	28138.58
616.86	28187.73
617.055	27677.79
617.25	27972.69
617.445	28312.66
617.641	27462.75
617.836	27843.67
618.031	27487.32
618.226	27815
618.421	27849.82
618.616	27688.03
618.811	27237.47
619.006	27829.34
619.201	27225.18
619.396	27411.55
619.591	27071.59
619.786	27397.21
619.981	26807.4
620.176	27309.15
620.371	26831.97
620.566	27061.35
620.761	26778.73
620.956	27225.18
621.151	26565.74
621.346	26625.13
621.541	25795.7
621.735	26516.59
621.93	26131.57
622.125	25963.64
622.32	25941.11
622.515	26029.17
622.709	25840.76
622.904	25525.37
623.099	25545.85
623.294	25627.77
623.488	25410.68
623.683	25169.02
623.878	25293.95
624.072	25277.57
624.267	25056.39
624.462	24994.95
624.656	24730.76
624.851	24958.08
625.046	24523.91
625.24	24870.02
625.435	24833.16
625.629	24376.46
625.824	24042.64
626.018	24319.12
626.213	23534.74
626.407	23882.9
626.602	23833.75
626.796	23721.11
626.991	23702.68
627.185	23473.31
627.38	23188.64
627.574	23377.05
627.768	23073.95
627.963	22928.55
628.157	22891.68
628.352	22758.56
628.546	22318.25
628.74	22434.99
628.935	22144.17
629.129	22371.5
629.323	22076.59
629.517	22054.06
629.712	21851.31
629.906	21879.99
630.1	21724.34
630.294	21783.73
630.489	21638.33
630.683	21820.6
630.877	21179.58
631.071	21286.08
631.265	21271.74
631.459	20849.86
631.653	20929.73
631.848	20972.74
632.042	20677.83
632.236	20808.9
632.43	20315.34
632.624	20505.8
632.818	20712.64
633.012	20122.83
633.206	20331.72
633.4	20233.42
633.594	20063.44
633.788	20100.3
633.982	19961.04
634.176	19690.71
634.369	19569.88
634.563	19463.38
634.757	19326.17
634.951	19330.27
635.145	19442.9
635.339	19111.13
635.533	19154.14
635.726	18840.8
635.92	18605.28
636.114	18654.44
636.308	18701.54
636.501	18783.46
636.695	18533.61
636.889	18324.71
637.083	18420.97
637.276	18293.99
637.47	18105.58
637.664	17792.24
637.857	17741.04
638.051	17845.49
638.244	17675.51
638.438	17679.6
638.632	17595.64
638.825	17382.65
639.019	17345.78
639.212	17200.38
639.406	17308.92
639.599	17087.74
639.793	17102.08
639.986	16801.02
640.18	16993.53
640.373	16672
640.567	16346.37
640.76	16518.4
640.954	16489.73
641.147	16200.97
641.34	16137.48
641.534	15938.83
641.727	16143.63
641.92	16061.71
642.114	15908.11
642.307	15818
642.5	15688.98
642.694	15465.75
642.887	15435.03
643.08	15519
643.273	15336.73
643.467	15140.12
643.66	14867.74
643.853	14730.53
644.046	14892.32
644.239	14949.66
644.432	14667.04
644.626	14447.91
644.819	14533.92
645.012	14564.64
645.205	14505.25
645.398	14316.84
645.591	13974.83
645.784	14279.97
645.977	13974.83
646.17	13983.02
646.363	14087.47
646.556	13862.19
646.749	13819.18
646.942	13858.09
647.135	13550.9
647.328	13430.07
647.521	13497.65
647.714	13237.56
647.907	13411.64
648.099	13378.87
648.292	13180.21
648.485	13057.34
648.678	12983.61
648.871	12893.5
649.064	12934.46
649.256	12705.09
649.449	12625.22
649.642	12598.59
649.835	12758.33
650.027	12584.26
650.22	12442.95
650.413	12268.87
650.605	12219.72
650.798	12195.14
650.991	12178.76
651.183	12301.64
651.376	11941.19
651.568	12019.02
651.761	11857.23
651.954	11935.05
652.146	11822.41
652.339	11824.46
652.531	11711.82
652.724	11683.15
652.916	11289.94
653.109	11519.31
653.301	11390.29
653.494	11345.23
653.686	11105.62
653.879	11500.88
654.071	11087.19
654.263	11167.06
654.456	11165.01
654.648	11074.9
654.84	10876.25
655.033	10919.26
655.225	10816.86
655.417	10788.19
655.61	10812.76
655.802	10804.57
655.994	10546.53
656.186	10476.9
656.379	10468.7
656.571	10458.46
656.763	10313.06
656.955	10042.73
657.148	10325.35
657.34	10329.44
657.532	10265.96
657.724	10173.8
657.916	10233.19
658.108	10016.1
658.3	9940.33
658.492	9817.45
658.684	9704.81
658.876	9823.59
659.068	9749.87
659.26	9678.19
659.452	9764.2
659.644	9682.28
659.836	9436.53
660.028	9739.63
660.22	9362.8
660.412	9729.39
660.604	9233.78
660.796	9258.35
660.988	9370.99
661.18	9168.24
661.372	9092.47
661.563	9110.9
661.755	9012.6
661.947	9108.85
662.139	8904.06
662.331	8881.53
662.522	8875.38
662.714	8940.92
662.906	8859
663.097	8809.85
663.289	8607.1
663.481	8537.47
663.673	8709.5
663.864	8377.73
664.056	8480.13
664.247	8375.68
664.439	8217.99
664.631	8381.82
664.822	8338.82
665.014	8406.4
665.205	8127.88
665.397	8140.16
665.588	8275.33
665.78	8084.87
665.971	8134.02
666.163	7966.09
666.354	7966.09
666.546	7884.17
666.737	7939.46
666.929	7749
667.12	7701.9
667.311	7880.07
667.503	7865.74
667.694	7875.98
667.885	7613.84
668.077	7478.67
668.268	7441.81
668.459	7593.36
668.651	7607.69
668.842	7544.2
669.033	7472.53
669.224	7376.27
669.416	7523.73
669.607	7482.77
669.798	7249.3
669.989	7437.71
670.18	7232.91
670.371	7275.92
670.563	7128.47
670.754	7134.61
670.945	7093.65
671.136	6923.67
671.327	6868.38
671.518	7136.66
671.709	7114.13
671.9	6976.92
672.091	6954.39
672.282	6843.8
672.473	6997.4
672.664	6905.24
672.855	6946.2
673.046	6964.63
673.237	6776.22
673.428	6905.24
673.619	6735.26
673.809	6843.8
674	6679.96
674.191	6772.12
674.382	6544.8
674.573	6573.47
674.764	6606.24
674.954	6548.89
675.145	6454.69
675.336	6575.52
675.527	6493.6
675.717	6495.64
675.908	6413.73
676.099	6536.6
676.289	6407.58
676.48	6555.04
676.671	6432.16
676.861	6462.88
677.052	6432.16
677.243	6417.82
677.433	6309.28
677.624	6405.53
677.814	6249.89
678.005	6178.21
678.195	6364.57
678.386	6407.58
678.576	6274.46
678.767	6217.12
678.957	6276.51
679.148	6217.12
679.338	6253.98
679.529	6340
679.719	6243.74
679.909	6274.46
680.1	6286.75
680.29	6219.17
680.481	6194.59
680.671	6186.4
680.861	6045.09
681.052	6045.09
681.242	6020.52
681.432	6129.06
681.622	6002.08
681.813	6104.48
682.003	6073.76
682.193	5932.45
682.383	6081.96
682.573	5922.21
682.764	6055.33
682.954	6139.3
683.144	5995.94
683.334	5922.21
683.524	5969.32
683.714	6004.13
683.904	5840.29
684.094	6000.04
684.284	5801.38
684.474	5762.47
684.664	5793.19
684.854	5785
685.044	5842.34
685.234	5770.66
685.424	5789.1
685.614	5596.59
685.804	5705.13
685.994	5768.62
686.184	5707.18
686.374	5610.92
686.564	5660.07
686.753	5670.31
686.943	5655.98
687.133	5713.32
687.323	5668.27
687.513	5588.39
687.702	5627.31
687.892	5447.08
688.082	5596.59
688.272	5709.22
688.461	5463.47
688.651	5612.97
688.841	5520.81
689.03	5475.76
689.22	5479.85
689.41	5492.14
689.599	5406.13
689.789	5596.59
689.979	5457.32
690.168	5453.23
690.358	5418.41
690.547	5285.3
690.737	5410.22
690.926	5203.38
691.116	5250.48
691.305	5344.69
691.495	5199.28
691.684	5254.58
691.874	5205.42
692.063	5232.05
692.252	5291.44
692.442	5135.79
692.631	5172.66
692.82	4951.48
693.01	5160.37
693.199	5146.03
693.388	5086.64
693.578	5103.03
693.767	5098.93
693.956	5033.4
694.146	4920.76
694.335	4902.33
694.524	4955.57
694.713	5121.46
694.902	5045.68
695.092	4906.42
695.281	4926.9
695.47	4990.39
695.659	4750.78
695.848	4859.32
696.037	4894.13
696.226	4892.09
696.415	4853.17
696.604	4693.43
696.793	4685.24
696.982	4730.3
697.171	4777.4
697.36	4701.62
697.549	4584.89
697.738	4830.65
697.927	4662.71
698.116	4752.82
698.305	4687.29
698.494	4801.97
698.683	4603.32
698.872	4697.53
699.061	4578.75
699.25	4625.85
699.438	4586.94
699.627	4529.59
699.816	4515.26
700.005	4341.18
700.193	4654.52
700.382	4550.07
700.571	4656.57
700.76	4552.12
700.948	4552.12
701.137	4521.4
701.326	4488.64
701.514	4525.5
701.703	4531.64
701.892	4380.09
702.08	4464.06
702.269	4492.73
702.457	4242.88
702.646	4433.34
702.834	4341.18
703.023	4283.84
703.212	4449.72
703.4	4218.3
703.589	4298.17
703.777	4345.28
703.965	4142.53
704.154	4236.74
704.342	4183.49
704.531	4220.35
704.719	4101.57
704.907	4425.15
705.096	4064.71
705.284	4156.86
705.472	4136.38
705.661	4091.33
705.849	4189.63
706.037	4066.75
706.226	4021.7
706.414	4066.75
706.602	3986.88
706.79	4038.08
706.979	4038.08
707.167	4128.19
707.355	4058.56
707.543	4029.89
707.731	4044.23
707.919	4005.31
708.107	3964.36
708.296	3997.12
708.484	3966.4
708.672	3947.97
708.86	3808.71
709.048	3968.45
709.236	3734.98
709.424	3937.73
709.612	3767.75
709.8	3874.24
709.988	3737.03
710.176	3847.62
710.364	3849.67
710.551	3620.3
710.739	3694.02
710.927	3786.18
711.115	3769.8
711.303	3816.9
711.491	3747.27
711.679	3653.06
711.866	3655.11
712.054	3763.65
712.242	3589.58
712.43	3638.73
712.617	3642.82
712.805	3526.09
712.993	3608.01
713.181	3448.27
713.368	3573.19
713.556	3550.67
713.744	3423.69
713.931	3747.27
714.119	3593.67
714.306	3644.87
714.494	3360.2
714.682	3532.23
714.869	3599.82
715.057	3464.65
715.244	3509.71
715.432	3538.38
715.619	3327.44
715.807	3376.59
715.994	3468.75
716.182	3421.64
716.369	3397.07
716.556	3382.73
716.744	3415.5
716.931	3321.29
717.119	3409.36
717.306	3333.58
717.493	3235.28
717.681	3337.68
717.868	3341.77
718.055	3333.58
718.242	3329.49
718.43	3274.19
718.617	3292.62
718.804	3286.48
718.991	3343.82
719.179	3352.01
719.366	3251.66
719.553	3159.5
719.74	3206.61
719.927	3149.26
720.114	3065.3
720.301	3132.88
720.488	3114.45
720.676	3030.48
720.863	3128.78
721.05	3214.8
721.237	3141.07
721.424	3071.44
721.611	2981.33
721.798	2995.67
721.985	3026.39
722.172	3096.02
722.358	3145.17
722.545	2993.62
722.732	3012.05
722.919	2991.57
723.106	2934.23
723.293	2915.8
723.48	2866.64
723.667	3014.1
723.853	2926.04
724.04	2868.69
724.227	3016.15
724.414	2977.23
724.6	2850.26
724.787	3007.95
724.974	2928.08
725.161	2942.42
725.347	2792.92
725.534	2891.22
725.72	2891.22
725.907	2876.88
726.094	2901.46
726.28	2747.86
726.467	2799.06
726.653	2909.65
726.84	2825.68
727.027	2850.26
727.213	2721.24
727.4	2876.88
727.586	2756.05
727.773	2829.78
727.959	2706.9
728.145	2809.3
728.332	2794.97
728.518	2819.54
728.705	2772.44
728.891	2555.35
729.077	2729.43
729.264	2688.47
729.45	2602.46
729.636	2809.3
729.823	2754.01
730.009	2653.66
730.195	2620.89
730.382	2686.42
730.568	2661.85
730.754	2711
730.94	2553.31
731.126	2725.33
731.313	2641.37
731.499	2608.6
731.685	2559.45
731.871	2565.59
732.057	2600.41
732.243	2596.31
732.429	2448.86
732.615	2532.83
732.801	2526.68
732.987	2522.59
733.173	2612.7
733.359	2590.17
733.545	2493.91
733.731	2504.15
733.917	2608.6
734.103	2545.11
734.289	2399.71
734.475	2481.63
734.661	2467.29
734.847	2538.97
735.033	2414.04
735.219	2559.45
735.404	2514.39
735.59	2495.96
735.776	2469.34
735.962	2549.21
736.148	2442.71
736.333	2401.76
736.519	2416.09
736.705	2395.61
736.89	2481.63
737.076	2430.43
737.262	2366.94
737.447	2317.79
737.633	2328.03
737.819	2321.88
738.004	2391.52
738.19	2354.65
738.375	2399.71
738.561	2334.17
738.747	2317.79
738.932	2170.33
739.118	2317.79
739.303	2278.88
739.489	2307.55
739.674	2190.81
739.859	2278.88
740.045	2227.68
740.23	2248.16
740.416	2219.49
740.601	2213.34
740.786	2125.28
740.972	2072.03
741.157	2100.7
741.342	2096.61
741.528	2196.96
741.713	2176.48
741.898	2168.29
742.084	2207.2
742.269	2156
742.454	2131.42
742.639	2196.96
742.824	2129.38
743.01	2104.8
743.195	2080.22
743.38	2016.74
743.565	2067.94
743.75	2178.53
743.935	2016.74
744.12	2139.62
744.305	1940.96
744.49	2006.5
744.675	1975.78
744.86	2055.65
745.045	1842.66
745.23	1951.2
745.415	1875.43
745.6	2000.35
745.785	1924.58
745.97	2090.46
746.155	1949.15
746.34	1973.73
746.525	1893.86
746.71	1871.33
746.895	1916.39
747.079	1832.42
747.264	1867.24
747.449	1852.9
747.634	1736.17
747.819	1842.66
748.003	1758.69
748.188	1795.56
748.373	1777.12
748.557	1719.78
748.742	1727.97
748.927	1734.12
749.111	1908.19
749.296	1748.45
749.481	1711.59
749.665	1703.4
749.85	1719.78
750.034	1754.6
750.219	1615.34
750.404	1646.05
750.588	1662.44
750.773	1625.58
750.957	1631.72
751.141	1658.34
751.326	1611.24
751.51	1629.67
751.695	1500.65
751.879	1539.56
752.064	1547.75
752.248	1531.37
752.432	1609.19
752.617	1519.08
752.801	1560.04
752.985	1566.18
753.17	1514.98
753.354	1517.03
753.538	1408.49
753.722	1453.55
753.907	1441.26
754.091	1416.68
754.275	1457.64
754.459	1431.02
754.643	1367.53
754.828	1469.93
755.012	1449.45
755.196	1332.72
755.38	1408.49
755.564	1318.38
755.748	1258.99
755.932	1383.91
756.116	1347.05
756.3	1279.47
756.484	1486.31
756.668	1318.38
756.852	1336.81
757.036	1359.34
757.22	1197.55
757.404	1220.08
757.588	1211.89
757.772	1230.32
757.956	1306.09
758.14	1275.37
758.323	1197.55
758.507	1246.7
758.691	1213.93
758.875	1195.5
759.059	1252.84
759.242	1238.51
759.426	1207.79
759.61	1240.56
759.794	1084.91
759.977	1226.22
760.161	1238.51
760.345	1203.69
760.528	1195.5
760.712	1156.59
760.895	1121.77
761.079	1095.15
761.263	1041.9
761.446	1064.43
761.63	1125.87
761.813	1181.17
761.997	1097.2
762.18	1091.06
762.364	1007.09
762.547	990.7
762.731	1056.24
762.914	1041.9
763.098	1064.43
763.281	1060.34
763.464	1158.64
763.648	1043.95
763.831	1048.05
764.015	1005.04
764.198	1039.86
764.381	1068.53
764.564	1025.52
764.748	1013.23
764.931	1078.77
765.114	1031.66
765.297	986.61
765.481	966.13
765.664	937.46
765.847	1015.28
766.03	945.65
766.213	949.75
766.397	1005.04
766.58	959.99
766.763	974.32
766.946	925.17
767.129	970.23
767.312	990.7
767.495	896.5
767.678	1007.09
767.861	871.92
768.044	908.79
768.227	867.83
768.41	964.08
768.593	986.61
768.776	884.21
768.959	851.44
769.142	949.75
769.324	941.55
769.507	855.54
769.69	884.21
769.873	949.75
770.056	931.31
770.239	853.49
770.421	890.35
770.604	906.74
770.787	777.72
770.97	835.06
771.152	867.83
771.335	904.69
771.518	910.83
771.7	888.31
771.883	900.59
772.066	892.4
772.248	931.31
772.431	833.01
772.613	814.58
772.796	867.83
772.978	802.29
773.161	855.54
773.343	781.81
773.526	910.83
773.708	785.91
773.891	785.91
774.073	826.87
774.256	757.24
774.438	732.66
774.621	855.54
774.803	812.53
774.985	812.53
775.168	736.76
775.35	747
775.532	790
775.715	703.99
775.897	787.96
776.079	710.13
776.261	747
776.444	761.33
776.626	765.43
776.808	607.73
776.99	671.22
777.173	691.7
777.355	630.26
777.537	730.61
777.719	648.69
777.901	648.69
778.083	691.7
778.265	663.03
778.447	646.65
778.629	650.74
778.811	646.65
778.993	626.17
779.175	691.7
779.357	650.74
779.539	615.93
779.721	638.45
779.903	703.99
780.085	615.93
780.267	597.49
780.449	566.78
780.631	574.97
780.812	564.73
780.994	548.34
781.176	605.69
781.358	583.16
781.54	673.27
781.721	556.54
781.903	712.18
782.085	566.78
782.267	577.02
782.448	609.78
782.63	570.87
782.812	568.82
782.993	589.3
783.175	574.97
783.357	458.23
783.538	527.86
783.72	577.02
783.901	499.19
784.083	474.62
784.264	468.47
784.446	527.86
784.627	462.33
784.809	585.21
784.99	431.61
785.172	468.47
785.353	562.68
785.535	441.85
785.716	499.19
785.897	460.28
786.079	484.86
786.26	523.77
786.441	554.49
786.623	409.08
786.804	509.43
786.985	482.81
787.167	488.95
787.348	454.14
787.529	527.86
787.71	491
787.891	419.32
788.073	450.04
788.254	386.55
788.435	534.01
788.616	400.89
788.797	347.64
788.978	458.23
789.159	370.17
789.34	474.62
789.522	386.55
789.703	372.22
789.884	339.45
790.065	353.79
790.246	433.66
790.427	374.27
790.607	419.32
790.788	460.28
790.969	337.4
791.15	245.24
791.331	359.93
791.512	370.17
791.693	425.47
791.874	343.55
792.054	384.51
792.235	370.17
792.416	392.7
792.597	308.73
792.778	425.47
792.958	425.47
793.139	466.42
793.32	364.03
793.5	361.98
793.681	394.75
793.862	253.44
794.042	339.45
794.223	300.54
794.404	327.16
794.584	409.08
794.765	312.83
794.945	302.59
795.126	351.74
795.306	296.44
795.487	372.22
795.667	376.31
795.848	353.79
796.028	347.64
796.209	323.07
796.389	302.59
796.57	343.55
796.75	294.4
796.93	196.09
797.111	257.53
797.291	306.68
797.471	359.93
797.652	351.74
797.832	245.24
798.012	312.83
798.192	222.72
798.373	235
798.553	347.64
798.733	235
798.913	220.67
799.093	275.96
799.274	314.88
799.454	261.63
799.634	282.11
799.814	337.4
799.994	335.35
800.174	257.53
800.354	286.2
800.534	269.82
800.714	282.11
800.894	257.53
801.074	187.9
801.254	241.15
801.434	292.35
801.614	183.81
801.794	253.44
801.974	790
802.154	198.14
802.334	290.3
802.514	208.38
802.693	171.52
802.873	261.63
803.053	353.79
803.233	275.96
803.413	194.05
803.592	265.72
803.772	206.33
803.952	318.97
804.131	126.46
804.311	204.28
804.491	278.01
804.67	253.44
804.85	169.47
805.03	216.57
805.209	269.82
805.389	175.61
805.568	210.43
805.748	269.82
805.928	204.28
806.107	202.24
806.287	194.05
806.466	189.95
806.646	175.61
806.825	179.71
807.004	122.37
807.184	226.81
807.363	212.48
807.543	245.24
807.722	228.86
807.901	269.82
808.081	237.05
808.26	155.13
808.439	171.52
808.619	237.05
808.798	224.76
808.977	192
809.156	239.1
809.336	140.8
809.515	140.8
809.694	157.18
809.873	151.04
810.052	204.28
810.231	202.24
810.411	202.24
810.59	298.49
810.769	214.52
810.948	273.92
811.127	192
811.306	122.37
811.485	151.04
811.664	273.92
811.843	161.28
812.022	165.37
812.201	210.43
812.38	179.71
812.559	208.38
812.737	187.9
812.916	146.94
813.095	116.22
813.274	155.13
813.453	155.13
813.632	220.67
813.811	200.19
813.989	130.56
814.168	228.86
814.347	151.04
814.526	255.48
814.704	196.09
814.883	208.38
815.062	146.94
815.24	183.81
815.419	140.8
815.598	173.57
815.776	118.27
815.955	130.56
816.133	48.64
816.312	192
816.49	126.46
816.669	118.27
816.847	130.56
817.026	132.61
817.204	136.7
817.383	120.32
817.561	38.4
817.74	171.52
817.918	132.61
818.097	138.75
818.275	99.84
818.453	155.13
818.632	77.31
818.81	181.76
818.988	144.89
819.167	146.94
819.345	138.75
819.523	151.04
819.701	179.71
819.879	105.98
820.058	136.7
820.236	196.09
820.414	114.17
820.592	114.17
820.77	118.27
820.948	67.07
821.127	169.47
821.305	153.09
821.483	146.94
821.661	157.18
821.839	118.27
822.017	85.5
822.195	110.08
822.373	224.76
822.551	67.07
822.729	138.75
822.907	26.11
823.085	87.55
823.262	97.79
823.44	108.03
823.618	56.83
823.796	130.56
823.974	132.61
824.152	157.18
824.329	116.22
824.507	196.09
824.685	85.5
824.863	148.99
825.04	93.69
825.218	144.89
825.396	126.46
825.574	155.13
825.751	85.5
825.929	105.98
826.107	50.69
826.284	130.56
826.462	187.9
826.639	58.88
826.817	85.5
826.994	114.17
827.172	105.98
827.349	155.13
827.527	110.08
827.704	75.26
827.882	118.27
828.059	91.65
828.237	99.84
828.414	118.27
828.591	48.64
828.769	124.41
828.946	24.06
829.124	91.65
829.301	146.94
829.478	11.78
829.655	167.42
829.833	81.41
830.01	69.12
830.187	40.45
830.364	132.61
830.542	54.78
830.719	112.13
830.896	38.4
831.073	36.35
831.25	97.79
831.427	140.8
831.604	67.07
831.782	116.22
831.959	85.5
832.136	89.6
832.313	110.08
832.49	93.69
832.667	130.56
832.844	148.99
833.021	189.95
833.198	157.18
833.374	36.35
833.551	34.3
833.728	91.65
833.905	89.6
834.082	50.69
834.259	128.51
834.436	134.65
834.612	26.11
834.789	48.64
834.966	77.31
835.143	73.21
835.319	91.65
835.496	134.65
835.673	58.88
835.85	58.88
836.026	73.21
836.203	118.27
836.38	81.41
836.556	52.74
836.733	-8.7
836.909	73.21
837.086	101.89
837.262	58.88
837.439	50.69
837.616	69.12
837.792	42.5
837.968	44.54
838.145	34.3
838.321	62.98
838.498	89.6
838.674	11.78
838.851	19.97
839.027	48.64
839.203	65.02
839.38	77.31
839.556	17.92
839.732	118.27
839.909	26.11
840.085	114.17
840.261	93.69
840.437	69.12
840.614	58.88
840.79	118.27
840.966	73.21
841.142	56.83
841.318	44.54
841.494	148.99
841.671	62.98
841.847	56.83
842.023	-35.33
842.199	60.93
842.375	101.89
842.551	50.69
842.727	-0.51
842.903	167.42
843.079	-29.18
843.255	67.07
843.431	48.64
843.607	114.17
843.783	-82.43
843.959	83.45
844.134	52.74
844.31	105.98
844.486	24.06
844.662	83.45
844.838	60.93
845.013	75.26
845.189	79.36
845.365	-10.75
845.541	116.22
845.716	62.98
845.892	75.26
846.068	1.54
846.244	48.64
846.419	151.04
846.595	9.73
846.77	73.21
846.946	112.13
847.122	9.73
847.297	-8.7
847.473	130.56
847.648	77.31
847.824	-14.85
847.999	75.26
848.175	124.41
848.35	40.45
848.526	122.37
848.701	118.27
848.876	58.88
849.052	81.41
849.227	60.93
849.403	40.45
849.578	105.98
849.753	-12.8
849.929	81.41
850.104	40.45
850.279	26.11
850.454	7.68
850.63	42.5
850.805	99.84
850.98	67.07
851.155	40.45
851.33	60.93
851.505	-4.61
851.681	50.69
851.856	-23.04
852.031	93.69
852.206	77.31
852.381	73.21
852.556	-18.94
852.731	26.11
852.906	99.84
853.081	7.68
853.256	136.7
853.431	-0.51
853.606	-4.61
853.781	11.78
853.956	15.87
854.131	69.12
854.305	48.64
854.48	-25.09
854.655	-66.05
854.83	-4.61
855.005	67.07
855.18	101.89
855.354	65.02
855.529	15.87
855.704	7.68
855.879	42.5
856.053	17.92
856.228	138.75
856.403	9.73
856.577	32.26
856.752	105.98
856.926	40.45
857.101	99.84
857.276	7.68
857.45	32.26
857.625	36.35
857.799	24.06
857.974	-41.47
858.148	19.97
858.323	105.98
858.497	56.83
858.672	34.3
858.846	32.26
859.02	110.08
859.195	56.83
859.369	48.64
859.543	19.97
859.718	-16.9
859.892	9.73
860.066	24.06
860.241	38.4
860.415	-29.18
860.589	-20.99
860.763	-4.61
860.938	22.02
861.112	-39.42
861.286	91.65
861.46	7.68
861.634	-37.38
861.808	73.21
861.982	-23.04
862.157	75.26
862.331	36.35
862.505	44.54
862.679	-0.51
862.853	24.06
863.027	-20.99
863.201	91.65
863.375	48.64
863.549	3.58
863.722	-51.71
863.896	42.5
864.07	52.74
864.244	101.89
864.418	138.75
864.592	67.07
864.766	46.59
864.939	97.79
865.113	60.93
865.287	-0.51
865.461	-16.9
865.634	75.26
865.808	83.45
865.982	-8.7
866.156	58.88
866.329	-6.66
866.503	3.58
866.676	89.6
866.85	73.21
867.024	34.3
867.197	26.11
867.371	83.45
867.544	40.45
867.718	17.92
867.891	50.69
868.065	34.3
868.238	48.64
868.412	87.55
868.585	44.54
868.759	-8.7
868.932	-14.85
869.105	1.54
869.279	9.73
869.452	32.26
869.625	65.02
869.799	15.87
869.972	-51.71
870.145	60.93
870.319	134.65
870.492	42.5
870.665	3.58
870.838	-8.7
871.011	-53.76
871.185	56.83
871.358	13.82
871.531	40.45
871.704	-47.62
871.877	40.45
872.05	-39.42
872.223	42.5
872.396	48.64
872.569	50.69
872.742	54.78
872.915	34.3
873.088	-4.61
873.261	60.93
873.434	-49.66
873.607	32.26
873.78	69.12
873.953	-64
874.126	130.56
874.299	3.58
874.471	3.58
874.644	3.58
874.817	22.02
874.99	112.13
875.163	11.78
875.335	48.64
875.508	-25.09
875.681	32.26
875.853	-33.28
876.026	105.98
876.199	40.45
876.371	56.83
876.544	-57.86
876.717	9.73
876.889	60.93
877.062	65.02
877.234	-29.18
877.407	7.68
877.579	46.59
877.752	24.06
877.924	56.83
878.097	-25.09
878.269	-6.66
878.442	-8.7
878.614	15.87
878.786	32.26
878.959	40.45
879.131	79.36
879.303	-64
879.476	36.35
879.648	7.68
879.82	19.97
879.993	60.93
880.165	13.82
880.337	17.92
880.509	36.35
880.681	-35.33
880.854	-0.51
881.026	77.31
881.198	65.02
881.37	15.87
881.542	-37.38
881.714	15.87
881.886	97.79
882.058	-4.61
882.23	50.69
882.402	-6.66
882.574	7.68
882.746	42.5
882.918	91.65
883.09	-0.51
883.262	-4.61
883.434	-88.57
883.606	-29.18
883.778	32.26
883.95	40.45
884.122	-39.42
884.293	81.41
884.465	-4.61
884.637	15.87
884.809	28.16
884.98	-82.43
885.152	42.5
885.324	-35.33
885.496	9.73
885.667	-2.56
885.839	87.55
886.011	36.35
886.182	-8.7
886.354	19.97
886.525	19.97
886.697	-27.14
886.869	-41.47
887.04	15.87
887.212	71.17
887.383	60.93
887.555	1.54
887.726	-4.61
887.897	-90.62
888.069	-18.94
888.24	9.73
888.412	99.84
888.583	7.68
888.754	11.78
888.926	-74.24
889.097	-31.23
889.268	32.26
889.44	-12.8
889.611	7.68
889.782	48.64
889.953	44.54
890.125	85.5
890.296	-37.38
890.467	-80.38
890.638	9.73
890.809	-18.94
890.98	52.74
891.151	7.68
891.323	89.6
891.494	-16.9
891.665	5.63
891.836	1.54
892.007	32.26
892.178	65.02
892.349	101.89
892.52	-16.9
892.691	1.54
892.862	-39.42
893.032	-82.43
893.203	-66.05
893.374	7.68
893.545	1.54
893.716	-2.56
893.887	30.21
894.057	-0.51
894.228	-4.61
894.399	-16.9
894.57	48.64
894.74	13.82
894.911	17.92
895.082	3.58
895.253	-33.28
895.423	-43.52
895.594	99.84
895.764	48.64
895.935	-14.85
896.106	40.45
896.276	44.54
896.447	13.82
896.617	-33.28
896.788	-14.85
896.958	-12.8
897.129	-31.23
897.299	9.73
897.47	13.82
897.64	71.17
897.81	-8.7
897.981	5.63
898.151	-57.86
898.322	1.54
898.492	-23.04
898.662	40.45
898.832	-41.47
899.003	-16.9
899.173	15.87
899.343	-57.86
899.513	-29.18
