Data from USB4F104151__249__14-34-13-884.txt Node

Date: Thu Mar 13 14:34:13 EDT 2025
User: louis
Spectrometer: USB4F10415
Trigger mode: 4
Integration Time (sec): 2.500000E-2
Scans to average: 1
Electric dark correction enabled: true
Nonlinearity correction enabled: false
Boxcar width: 0
XAxis mode: Wavelengths
Number of Pixels in Spectrum: 3648
>>>>>Begin Spectral Data<<<<<
178.204	-145.41
178.424	-145.41
178.644	-145.41
178.864	-202.75
179.084	-147.45
179.304	8.19
179.524	43.01
179.744	12.29
179.964	40.96
180.184	16.38
180.404	0
180.624	-65.53
180.844	-24.58
181.064	-40.96
181.283	-14.34
181.503	18.43
181.723	6.14
181.943	-40.96
182.163	106.49
182.383	-28.67
182.602	34.82
182.822	-18.43
183.042	124.93
183.262	-53.25
183.482	65.54
183.701	34.82
183.921	57.34
184.141	-14.34
184.361	98.3
184.58	61.44
184.8	-14.34
185.02	-20.48
185.239	81.92
185.459	-69.63
185.679	24.58
185.898	-69.63
186.118	106.49
186.338	18.43
186.557	36.86
186.777	-61.44
186.997	-96.25
187.216	14.34
187.436	53.25
187.655	81.92
187.875	18.43
188.095	22.53
188.314	-2.05
188.534	100.35
188.753	12.29
188.973	28.67
189.192	24.58
189.412	26.62
189.631	10.24
189.851	77.82
190.07	114.69
190.29	18.43
190.509	114.69
190.729	6.14
190.948	57.34
191.168	53.25
191.387	63.49
191.607	-47.1
191.826	106.49
192.045	61.44
192.265	8.19
192.484	49.15
192.704	24.58
192.923	-36.86
193.142	104.45
193.362	57.34
193.581	90.11
193.8	-22.53
194.02	108.54
194.239	26.62
194.458	32.77
194.678	-28.67
194.897	47.1
195.116	-16.38
195.335	40.96
195.555	34.82
195.774	65.54
195.993	67.58
196.212	8.19
196.432	32.77
196.651	75.77
196.87	102.4
197.089	59.39
197.308	26.62
197.528	40.96
197.747	-18.43
197.966	12.29
198.185	88.06
198.404	-2.05
198.623	18.43
198.842	88.06
199.062	8.19
199.281	57.34
199.5	43.01
199.719	-10.24
199.938	43.01
200.157	16.38
200.376	8.19
200.595	65.54
200.814	-8.19
201.033	36.86
201.252	92.16
201.471	77.82
201.69	14.34
201.909	40.96
202.128	14.34
202.347	32.77
202.566	-8.19
202.785	22.53
203.004	8.19
203.223	116.73
203.442	71.68
203.661	-86.01
203.879	-63.49
204.098	0
204.317	0
204.536	49.15
204.755	59.39
204.974	61.44
205.193	55.3
205.411	110.59
205.63	40.96
205.849	59.39
206.068	0
206.287	43.01
206.505	96.25
206.724	-32.77
206.943	32.77
207.162	49.15
207.381	-16.38
207.599	69.63
207.818	40.96
208.037	81.92
208.255	32.77
208.474	45.06
208.693	8.19
208.911	63.49
209.13	55.3
209.349	16.38
209.567	16.38
209.786	30.72
210.005	47.1
210.223	22.53
210.442	-28.67
210.661	61.44
210.879	8.19
211.098	2.05
211.316	137.21
211.535	8.19
211.753	36.86
211.972	16.38
212.191	-40.96
212.409	73.73
212.628	2.05
212.846	-10.24
213.065	63.49
213.283	47.1
213.502	-26.62
213.72	0
213.938	77.82
214.157	-14.34
214.375	49.15
214.594	-14.34
214.812	51.2
215.031	16.38
215.249	10.24
215.467	55.3
215.686	18.43
215.904	86.01
216.122	24.58
216.341	65.54
216.559	67.58
216.778	10.24
216.996	-2.05
217.214	32.77
217.432	12.29
217.651	18.43
217.869	22.53
218.087	61.44
218.306	26.62
218.524	32.77
218.742	-8.19
218.96	4.1
219.179	43.01
219.397	28.67
219.615	47.1
219.833	45.06
220.051	-16.38
220.27	100.35
220.488	32.77
220.706	8.19
220.924	-22.53
221.142	73.73
221.36	-43.01
221.578	83.97
221.796	-36.86
222.015	92.16
222.233	-6.14
222.451	45.06
222.669	69.63
222.887	-8.19
223.105	-18.43
223.323	59.39
223.541	38.91
223.759	-8.19
223.977	24.58
224.195	73.73
224.413	10.24
224.631	32.77
224.849	-4.1
225.067	83.97
225.285	-10.24
225.503	32.77
225.721	-16.38
225.939	0
226.157	57.34
226.375	122.88
226.592	-6.14
226.81	26.62
227.028	-12.29
227.246	67.58
227.464	86.01
227.682	18.43
227.9	61.44
228.117	36.86
228.335	24.58
228.553	-38.91
228.771	86.01
228.989	2.05
229.206	4.1
229.424	-4.1
229.642	49.15
229.86	16.38
230.077	32.77
230.295	114.69
230.513	22.53
230.731	10.24
230.948	79.87
231.166	98.3
231.384	-22.53
231.601	-8.19
231.819	90.11
232.037	-6.14
232.254	20.48
232.472	43.01
232.689	20.48
232.907	26.62
233.125	-18.43
233.342	-106.49
233.56	-36.86
233.777	4.1
233.995	40.96
234.213	8.19
234.43	-71.68
234.648	36.86
234.865	-8.19
235.083	49.15
235.3	104.45
235.518	34.82
235.735	122.88
235.953	75.77
236.17	-24.58
236.388	57.34
236.605	20.48
236.822	73.73
237.04	100.35
237.257	32.77
237.475	-10.24
237.692	-6.14
237.909	6.14
238.127	-8.19
238.344	69.63
238.562	24.58
238.779	18.43
238.996	34.82
239.214	-16.38
239.431	-6.14
239.648	57.34
239.865	24.58
240.083	57.34
240.3	-4.1
240.517	28.67
240.735	67.58
240.952	10.24
241.169	55.3
241.386	90.11
241.603	16.38
241.821	-18.43
242.038	51.2
242.255	20.48
242.472	18.43
242.689	12.29
242.907	65.54
243.124	45.06
243.341	-12.29
243.558	22.53
243.775	40.96
243.992	40.96
244.209	147.45
244.426	-8.19
244.643	24.58
244.86	-32.77
245.078	0
245.295	28.67
245.512	20.48
245.729	67.58
245.946	-4.1
246.163	38.91
246.38	81.92
246.597	12.29
246.814	49.15
247.031	40.96
247.248	45.06
247.464	57.34
247.681	51.2
247.898	49.15
248.115	47.1
248.332	36.86
248.549	73.73
248.766	73.73
248.983	55.3
249.2	-28.67
249.417	20.48
249.633	-40.96
249.85	51.2
250.067	49.15
250.284	8.19
250.501	-12.29
250.717	51.2
250.934	63.49
251.151	28.67
251.368	-53.25
251.585	81.92
251.801	18.43
252.018	-10.24
252.235	0
252.451	-20.48
252.668	-36.86
252.885	12.29
253.102	-16.38
253.318	16.38
253.535	-6.14
253.752	-8.19
253.968	-22.53
254.185	12.29
254.401	-12.29
254.618	92.16
254.835	24.58
255.051	-20.48
255.268	2.05
255.484	77.82
255.701	4.1
255.917	12.29
256.134	28.67
256.351	24.58
256.567	12.29
256.784	24.58
257	0
257.217	-12.29
257.433	32.77
257.65	-10.24
257.866	26.62
258.082	20.48
258.299	-40.96
258.515	-24.58
258.732	28.67
258.948	-12.29
259.165	43.01
259.381	-14.34
259.597	57.34
259.814	-16.38
260.03	8.19
260.246	8.19
260.463	92.16
260.679	163.84
260.895	47.1
261.112	122.88
261.328	26.62
261.544	94.21
261.761	92.16
261.977	16.38
262.193	18.43
262.409	79.87
262.626	12.29
262.842	65.54
263.058	-22.53
263.274	49.15
263.49	-12.29
263.707	34.82
263.923	43.01
264.139	6.14
264.355	14.34
264.571	157.69
264.787	49.15
265.004	79.87
265.22	114.69
265.436	26.62
265.652	-22.53
265.868	-6.14
266.084	-63.49
266.3	26.62
266.516	8.19
266.732	51.2
266.948	73.73
267.164	10.24
267.38	-2.05
267.596	90.11
267.812	24.58
268.028	49.15
268.244	-47.1
268.46	10.24
268.676	-30.72
268.892	47.1
269.108	-16.38
269.324	-38.91
269.54	-16.38
269.756	-32.77
269.972	-40.96
270.188	16.38
270.403	-28.67
270.619	10.24
270.835	51.2
271.051	32.77
271.267	-55.3
271.483	-20.48
271.698	16.38
271.914	32.77
272.13	-32.77
272.346	16.38
272.562	28.67
272.777	79.87
272.993	81.92
273.209	4.1
273.425	8.19
273.64	-14.34
273.856	20.48
274.072	67.58
274.287	36.86
274.503	79.87
274.719	81.92
274.934	100.35
275.15	-59.39
275.366	-14.34
275.581	-16.38
275.797	20.48
276.012	36.86
276.228	43.01
276.444	-20.48
276.659	102.4
276.875	16.38
277.09	-4.1
277.306	34.82
277.521	-26.62
277.737	0
277.952	24.58
278.168	0
278.383	32.77
278.599	8.19
278.814	55.3
279.03	57.34
279.245	57.34
279.461	38.91
279.676	8.19
279.892	-90.11
280.107	-2.05
280.322	-61.44
280.538	45.06
280.753	-16.38
280.969	61.44
281.184	-24.58
281.399	86.01
281.615	69.63
281.83	40.96
282.045	-36.86
282.26	-6.14
282.476	65.54
282.691	4.1
282.906	49.15
283.122	-16.38
283.337	-22.53
283.552	10.24
283.767	24.58
283.983	40.96
284.198	-55.3
284.413	40.96
284.628	-6.14
284.843	45.06
285.058	53.25
285.274	-6.14
285.489	0
285.704	90.11
285.919	32.77
286.134	32.77
286.349	24.58
286.564	2.05
286.779	28.67
286.995	65.54
287.21	40.96
287.425	94.21
287.64	40.96
287.855	102.4
288.07	-18.43
288.285	32.77
288.5	36.86
288.715	73.73
288.93	-20.48
289.145	18.43
289.36	49.15
289.575	18.43
289.79	32.77
290.004	57.34
290.219	59.39
290.434	-47.1
290.649	0
290.864	8.19
291.079	-4.1
291.294	14.34
291.509	59.39
291.724	10.24
291.938	-18.43
292.153	-20.48
292.368	-20.48
292.583	145.41
292.798	59.39
293.012	0
293.227	57.34
293.442	20.48
293.657	-8.19
293.871	116.73
294.086	122.88
294.301	57.34
294.516	55.3
294.73	40.96
294.945	69.63
295.16	65.54
295.374	34.82
295.589	57.34
295.804	-83.97
296.018	106.49
296.233	53.25
296.447	8.19
296.662	81.92
296.877	40.96
297.091	28.67
297.306	6.14
297.52	22.53
297.735	-6.14
297.949	16.38
298.164	73.73
298.378	81.92
298.593	24.58
298.807	-40.96
299.022	32.77
299.236	4.1
299.451	0
299.665	98.3
299.88	0
300.094	32.77
300.309	-12.29
300.523	-4.1
300.737	67.58
300.952	36.86
301.166	4.1
301.381	16.38
301.595	18.43
301.809	51.2
302.024	-20.48
302.238	57.34
302.452	110.59
302.667	0
302.881	143.36
303.095	30.72
303.309	36.86
303.524	-2.05
303.738	16.38
303.952	-73.73
304.166	51.2
304.381	59.39
304.595	12.29
304.809	100.35
305.023	-20.48
305.237	24.58
305.452	10.24
305.666	32.77
305.88	16.38
306.094	90.11
306.308	75.77
306.522	-57.34
306.736	30.72
306.95	83.97
307.164	73.73
307.379	-47.1
307.593	59.39
307.807	86.01
308.021	43.01
308.235	10.24
308.449	26.62
308.663	45.06
308.877	79.87
309.091	-8.19
309.305	-6.14
309.519	-71.68
309.733	94.21
309.947	32.77
310.161	2.05
310.374	-22.53
310.588	36.86
310.802	-6.14
311.016	32.77
311.23	-22.53
311.444	0
311.658	-2.05
311.872	59.39
312.085	92.16
312.299	10.24
312.513	-57.34
312.727	114.69
312.941	-38.91
313.154	36.86
313.368	34.82
313.582	49.15
313.796	18.43
314.009	77.82
314.223	20.48
314.437	65.54
314.651	65.54
314.864	16.38
315.078	67.58
315.292	34.82
315.505	98.3
315.719	-8.19
315.933	83.97
316.146	-22.53
316.36	-16.38
316.573	90.11
316.787	79.87
317.001	81.92
317.214	-2.05
317.428	43.01
317.641	10.24
317.855	86.01
318.068	61.44
318.282	2.05
318.495	114.69
318.709	59.39
318.922	36.86
319.136	67.58
319.349	49.15
319.563	40.96
319.776	0
319.99	8.19
320.203	20.48
320.417	0
320.63	102.4
320.843	94.21
321.057	57.34
321.27	100.35
321.483	65.54
321.697	106.49
321.91	14.34
322.124	18.43
322.337	49.15
322.55	10.24
322.763	-24.58
322.977	73.73
323.19	65.54
323.403	43.01
323.617	24.58
323.83	77.82
324.043	26.62
324.256	18.43
324.469	75.77
324.683	114.69
324.896	-24.58
325.109	49.15
325.322	-40.96
325.535	83.97
325.748	129.02
325.962	28.67
326.175	-12.29
326.388	53.25
326.601	36.86
326.814	-16.38
327.027	40.96
327.24	94.21
327.453	-57.34
327.666	40.96
327.879	16.38
328.092	16.38
328.305	34.82
328.518	-24.58
328.731	26.62
328.944	-8.19
329.157	65.54
329.37	71.68
329.583	71.68
329.796	2.05
330.009	-28.67
330.222	-16.38
330.435	18.43
330.648	16.38
330.861	57.34
331.073	16.38
331.286	73.73
331.499	4.1
331.712	18.43
331.925	40.96
332.138	-12.29
332.35	24.58
332.563	-30.72
332.776	116.73
332.989	-24.58
333.202	0
333.414	32.77
333.627	86.01
333.84	18.43
334.053	8.19
334.265	55.3
334.478	-22.53
334.691	51.2
334.903	45.06
335.116	-36.86
335.329	-28.67
335.541	10.24
335.754	49.15
335.966	30.72
336.179	45.06
336.392	-4.1
336.604	112.64
336.817	28.67
337.029	102.4
337.242	-14.34
337.454	-8.19
337.667	34.82
337.88	0
338.092	86.01
338.305	-16.38
338.517	-12.29
338.729	53.25
338.942	100.35
339.154	-8.19
339.367	-22.53
339.579	-8.19
339.792	-24.58
340.004	-6.14
340.217	28.67
340.429	-30.72
340.641	-24.58
340.854	49.15
341.066	-14.34
341.278	79.87
341.491	30.72
341.703	73.73
341.915	2.05
342.128	20.48
342.34	-12.29
342.552	26.62
342.764	43.01
342.977	28.67
343.189	16.38
343.401	49.15
343.613	-45.06
343.826	24.58
344.038	-32.77
344.25	59.39
344.462	69.63
344.674	-49.15
344.886	2.05
345.099	83.97
345.311	98.3
345.523	-6.14
345.735	51.2
345.947	34.82
346.159	108.54
346.371	-45.06
346.583	16.38
346.795	159.74
347.007	0
347.219	69.63
347.431	49.15
347.643	14.34
347.855	8.19
348.067	108.54
348.279	14.34
348.491	43.01
348.703	26.62
348.915	-16.38
349.127	-45.06
349.339	-4.1
349.551	-16.38
349.763	57.34
349.975	49.15
350.187	77.82
350.399	24.58
350.61	26.62
350.822	-49.15
351.034	-12.29
351.246	28.67
351.458	10.24
351.669	34.82
351.881	40.96
352.093	114.69
352.305	40.96
352.517	2.05
352.728	69.63
352.94	-12.29
353.152	28.67
353.363	36.86
353.575	55.3
353.787	137.21
353.999	-24.58
354.21	40.96
354.422	26.62
354.633	98.3
354.845	53.25
355.057	2.05
355.268	-22.53
355.48	61.44
355.692	55.3
355.903	18.43
356.115	65.54
356.326	-24.58
356.538	98.3
356.749	-4.1
356.961	16.38
357.172	6.14
357.384	0
357.595	65.54
357.807	0
358.018	-53.25
358.23	98.3
358.441	43.01
358.653	57.34
358.864	40.96
359.075	-32.77
359.287	20.48
359.498	32.77
359.709	32.77
359.921	22.53
360.132	-22.53
360.344	-57.34
360.555	-18.43
360.766	65.54
360.977	86.01
361.189	49.15
361.4	34.82
361.611	139.26
361.823	81.92
362.034	0
362.245	92.16
362.456	51.2
362.667	98.3
362.879	-20.48
363.09	-51.2
363.301	8.19
363.512	67.58
363.723	0
363.935	-10.24
364.146	83.97
364.357	-14.34
364.568	34.82
364.779	-6.14
364.99	57.34
365.201	-47.1
365.412	61.44
365.623	8.19
365.834	45.06
366.045	36.86
366.256	49.15
366.467	30.72
366.678	-4.1
366.889	34.82
367.1	-16.38
367.311	53.25
367.522	16.38
367.733	-30.72
367.944	67.58
368.155	28.67
368.366	26.62
368.577	98.3
368.788	81.92
368.999	24.58
369.209	57.34
369.42	67.58
369.631	32.77
369.842	16.38
370.053	0
370.264	61.44
370.474	63.49
370.685	114.69
370.896	40.96
371.107	92.16
371.317	-43.01
371.528	43.01
371.739	61.44
371.95	2.05
372.16	81.92
372.371	36.86
372.582	16.38
372.792	43.01
373.003	18.43
373.214	-4.1
373.424	49.15
373.635	-8.19
373.846	110.59
374.056	59.39
374.267	12.29
374.477	86.01
374.688	32.77
374.898	51.2
375.109	63.49
375.319	8.19
375.53	108.54
375.74	40.96
375.951	106.49
376.161	69.63
376.372	77.82
376.582	73.73
376.793	49.15
377.003	20.48
377.214	57.34
377.424	18.43
377.635	75.77
377.845	-73.73
378.055	57.34
378.266	-22.53
378.476	77.82
378.686	51.2
378.897	49.15
379.107	106.49
379.317	43.01
379.528	40.96
379.738	45.06
379.948	43.01
380.158	30.72
380.369	8.19
380.579	86.01
380.789	28.67
380.999	36.86
381.21	92.16
381.42	116.73
381.63	51.2
381.84	92.16
382.05	131.07
382.261	102.4
382.471	49.15
382.681	40.96
382.891	53.25
383.101	67.58
383.311	-12.29
383.521	43.01
383.731	26.62
383.941	57.34
384.151	30.72
384.361	32.77
384.571	-28.67
384.781	92.16
384.991	116.73
385.201	98.3
385.411	94.21
385.621	77.82
385.831	81.92
386.041	-8.19
386.251	90.11
386.461	106.49
386.671	122.88
386.881	-8.19
387.091	24.58
387.301	151.55
387.511	32.77
387.72	81.92
387.93	14.34
388.14	57.34
388.35	49.15
388.56	124.93
388.769	49.15
388.979	47.1
389.189	10.24
389.399	32.77
389.609	24.58
389.818	69.63
390.028	43.01
390.238	32.77
390.447	86.01
390.657	92.16
390.867	57.34
391.076	47.1
391.286	67.58
391.496	32.77
391.705	88.06
391.915	73.73
392.125	143.36
392.334	73.73
392.544	139.26
392.753	73.73
392.963	69.63
393.172	90.11
393.382	8.19
393.591	73.73
393.801	73.73
394.01	51.2
394.22	26.62
394.429	71.68
394.639	106.49
394.848	57.34
395.058	100.35
395.267	81.92
395.477	92.16
395.686	122.88
395.895	176.13
396.105	81.92
396.314	165.89
396.524	149.5
396.733	116.73
396.942	57.34
397.152	100.35
397.361	106.49
397.57	59.39
397.78	143.36
397.989	81.92
398.198	155.65
398.407	30.72
398.617	98.3
398.826	53.25
399.035	120.83
399.244	131.07
399.453	114.69
399.663	18.43
399.872	98.3
400.081	129.02
400.29	110.59
400.499	122.88
400.708	122.88
400.917	116.73
401.127	51.2
401.336	28.67
401.545	208.89
401.754	167.93
401.963	190.46
402.172	159.74
402.381	45.06
402.59	67.58
402.799	145.41
403.008	221.18
403.217	94.21
403.426	139.26
403.635	49.15
403.844	98.3
404.053	163.84
404.262	81.92
404.471	237.56
404.68	180.22
404.888	139.26
405.097	122.88
405.306	151.55
405.515	225.28
405.724	81.92
405.933	200.7
406.142	233.47
406.35	215.04
406.559	159.74
406.768	206.84
406.977	180.22
407.185	182.27
407.394	210.94
407.603	196.61
407.812	204.8
408.02	301.05
408.229	237.56
408.438	299
408.646	174.08
408.855	264.19
409.064	278.52
409.272	290.81
409.481	311.29
409.69	323.58
409.898	262.14
410.107	442.36
410.315	354.3
410.524	294.91
410.733	344.06
410.941	356.35
411.15	428.03
411.358	450.55
411.567	499.7
411.775	423.93
411.984	448.51
412.192	507.9
412.401	493.56
412.609	567.29
412.818	583.67
413.026	569.34
413.234	561.14
413.443	534.52
413.651	638.97
413.86	606.2
414.068	655.35
414.276	747.51
414.485	722.93
414.693	731.12
414.901	790.52
415.11	856.05
415.318	755.7
415.526	755.7
415.734	901.11
415.943	843.76
416.151	966.64
416.359	974.83
416.567	884.72
416.776	966.64
416.984	1073.14
417.192	1069.04
417.4	1130.48
417.608	1093.62
417.817	1210.35
418.025	1183.73
418.233	1394.67
418.441	1275.88
418.649	1322.99
418.857	1540.07
419.065	1476.59
419.273	1460.2
419.481	1574.89
419.689	1658.85
419.897	1712.1
420.105	1665
420.313	1765.35
420.521	1888.23
420.729	1873.89
420.937	1886.18
421.145	1978.34
421.353	2031.59
421.561	2267.1
421.769	2338.78
421.977	2318.3
422.185	2371.55
422.393	2482.14
422.601	2572.25
422.809	2652.12
423.017	2656.22
423.224	2707.41
423.432	2787.29
423.64	2844.63
423.848	3129.3
424.056	2981.84
424.263	3200.98
424.471	3217.36
424.679	3278.8
424.887	3416.01
425.094	3534.79
425.302	3655.62
425.51	3723.21
425.718	3936.2
425.925	3895.24
426.133	4044.74
426.341	4427.71
426.548	4349.89
426.756	4339.65
426.964	4464.57
427.171	4681.66
427.379	4734.9
427.586	4876.21
427.794	4956.08
428.001	5357.49
428.209	5455.79
428.417	5390.25
428.624	5900.2
428.832	5793.7
429.039	5746.6
429.247	5892.01
429.454	6414.24
429.662	6803.35
429.869	6266.78
430.076	6635.42
430.284	6563.74
430.491	6807.45
430.699	7268.24
430.906	7194.51
431.114	7387.02
431.321	7532.43
431.528	7974.79
431.736	8097.67
431.943	8603.52
432.15	8507.26
432.358	8595.32
432.565	8996.73
432.772	8955.77
432.979	9389.94
433.187	9547.63
433.394	9533.29
433.601	10108.77
433.808	10463.07
434.016	10272.61
434.223	10579.81
434.43	11231.06
434.637	10864.47
434.844	11773.77
435.052	11839.31
435.259	11712.33
435.466	11943.75
435.673	11923.27
435.88	12498.75
436.087	13332.28
436.294	13184.82
436.501	13070.14
436.708	13229.88
436.915	13659.95
437.122	14239.53
437.329	14282.53
437.537	14839.58
437.743	14712.61
437.95	14774.05
438.157	15630.1
438.364	16170.76
438.571	16019.21
438.778	16189.19
438.985	17532.66
439.192	16785.15
439.399	17354.49
439.606	17137.4
439.813	18231.02
440.02	19033.82
440.227	18714.34
440.433	18470.63
440.64	19232.47
440.847	18898.66
441.054	19498.71
441.261	20836.03
441.467	20401.86
441.674	20909.76
441.881	21716.66
442.088	21634.74
442.294	21542.58
442.501	21966.51
442.708	22498.98
442.914	23373.47
443.121	24133.26
443.328	23471.77
443.534	25071.23
443.741	24905.35
443.948	24368.78
444.154	25824.89
444.361	25730.68
444.568	25648.76
444.774	25671.29
444.981	26506.86
445.187	26910.31
445.394	28079.7
445.6	27784.79
445.807	30541.36
446.013	28855.88
446.22	29615.68
446.426	30766.63
446.633	31211.04
446.839	32226.84
447.046	30697
447.252	32423.44
447.459	32697.87
447.665	32294.42
447.871	33623.55
448.078	35005.93
448.284	33066.5
448.491	34080.25
448.697	36093.4
448.903	36584.91
449.11	36537.81
449.316	35692
449.522	36328.92
449.728	37467.59
449.935	38104.51
450.141	37782.98
450.347	38725.04
450.553	37717.44
450.76	37864.89
450.966	39189.93
451.172	39112.11
451.378	40045.98
451.584	38972.85
451.791	39941.53
451.997	39818.66
452.203	40316.31
452.409	40267.16
452.615	40158.62
452.821	38753.71
453.027	38266.3
453.233	39976.35
453.44	38612.4
453.646	38909.36
453.852	38954.41
454.058	40213.91
454.264	38593.97
454.47	39679.39
454.676	38485.43
454.882	39951.77
455.088	36318.68
455.294	37033.42
455.5	37508.55
455.705	37686.72
455.911	36312.53
456.117	36068.83
456.323	35188.2
456.529	33375.75
456.735	34874.86
456.941	33891.83
457.147	33508.86
457.352	32220.69
457.558	32142.87
457.764	31716.89
457.97	31628.83
458.176	30735.91
458.381	30725.68
458.587	29236.8
458.793	29394.5
458.999	27960.92
459.204	29699.64
459.41	28730.95
459.616	26877.54
459.821	27065.95
460.027	26877.54
460.233	26119.79
460.438	24931.97
460.644	25169.54
460.85	23897.75
461.055	23772.82
461.261	23750.29
461.466	22079.15
461.672	21059.26
461.878	22822.56
462.083	20883.14
462.289	20743.88
462.494	20444.87
462.7	19619.54
462.905	19293.91
463.111	19816.15
463.316	19652.31
463.522	19465.94
463.727	19384.02
463.932	19052.25
464.138	18929.38
464.343	19142.36
464.549	18527.97
464.754	19207.9
464.959	19023.58
465.165	18935.52
465.37	18063.08
465.575	17368.82
465.781	18210.54
465.986	18300.65
466.191	17596.15
466.397	17254.14
466.602	16293.64
466.807	16998.14
467.012	17297.14
467.218	16908.03
467.423	16750.34
467.628	16914.17
467.833	17420.02
468.038	16713.47
468.244	16267.02
468.449	16867.07
468.654	16428.81
468.859	16002.83
469.064	16328.45
469.269	15742.74
469.474	15597.33
469.679	15914.77
469.885	15372.05
470.09	15707.92
470.295	15687.44
470.5	15195.93
470.705	15329.05
470.91	14690.08
471.115	14765.85
471.32	15148.82
471.525	15157.02
471.73	14516
471.935	14507.81
472.139	14110.5
472.344	14204.71
472.549	14274.34
472.754	13756.21
472.959	13893.42
473.164	13246.26
473.369	13199.16
473.574	13868.84
473.778	13565.74
473.983	13354.8
474.188	13289.27
474.393	12650.3
474.598	12828.48
474.802	12465.99
475.007	12588.86
475.212	12672.83
475.417	12248.9
475.621	12074.82
475.826	12126.02
476.031	11900.75
476.235	11534.16
476.44	11927.37
476.645	11585.36
476.849	11587.41
477.054	11538.26
477.259	10991.45
477.463	11192.15
477.668	11069.27
477.872	11276.12
478.077	10895.19
478.282	10796.89
478.486	10602.33
478.691	10794.84
478.895	10458.98
479.1	10477.41
479.304	10645.34
479.509	10159.97
479.713	10264.42
479.918	10297.19
480.122	9924.46
480.326	10127.21
480.531	10198.88
480.735	10002.28
480.94	9822.06
481.144	10035.05
481.348	9510.77
481.553	9953.13
481.757	9690.99
481.961	9817.96
482.166	10051.43
482.37	9697.13
482.574	9674.6
482.778	9641.84
482.983	9764.71
483.187	9627.5
483.391	9633.64
483.595	9789.29
483.8	9551.73
484.004	9742.19
484.208	9854.83
484.412	9637.74
484.616	9592.69
484.821	9633.64
485.025	9502.57
485.229	9631.6
485.433	9496.43
485.637	9828.2
485.841	9531.25
486.045	9346.93
486.249	9711.47
486.453	9510.77
486.657	9512.81
486.861	9697.13
487.065	9439.09
487.269	9490.29
487.473	9160.56
487.677	9645.93
487.881	9654.12
488.085	9580.4
488.289	9529.2
488.493	9441.14
488.697	9502.57
488.901	9701.23
489.105	9406.32
489.309	9666.41
489.512	9623.41
489.716	9635.69
489.92	9629.55
490.124	9682.8
490.328	9871.21
490.531	9492.34
490.735	9672.56
490.939	9660.27
491.143	9600.88
491.346	9781.1
491.55	9938.79
491.754	9756.52
491.958	9768.81
492.161	9588.59
492.365	9885.55
492.569	9580.4
492.772	9727.85
492.976	10090.34
493.18	9912.17
493.383	10082.15
493.587	10026.85
493.79	10213.22
493.994	10260.32
494.197	10202.98
494.401	10477.41
494.605	10266.47
494.808	10563.42
495.012	10561.37
495.215	10596.19
495.419	10424.16
495.622	10542.94
495.825	10710.88
496.029	10721.12
496.232	10944.34
496.436	10841.95
496.639	11378.51
496.843	11140.95
497.046	11224.92
497.249	11429.71
497.453	11372.37
497.656	11644.75
497.859	11460.43
498.063	11607.89
498.266	11804.49
498.469	11749.2
498.673	11923.27
498.876	12044.1
499.079	12050.25
499.282	11962.19
499.485	12324.68
499.689	12613.44
499.892	12748.61
500.095	12687.17
500.298	13111.1
500.501	12795.71
500.705	13225.78
500.908	13092.66
501.111	13399.86
501.314	13510.45
501.517	13639.47
501.72	13715.25
501.923	13608.75
502.126	14171.94
502.329	14581.54
502.532	14303.01
502.735	14384.93
502.938	14753.57
503.141	14800.67
503.344	15120.15
503.547	14980.89
503.75	15027.99
503.953	15605.52
504.156	15367.96
504.359	15449.88
504.562	15544.08
504.765	15886.09
504.968	16101.13
505.17	16508.68
505.373	16328.45
505.576	16633.6
505.779	16729.86
505.982	16791.3
506.185	17174.27
506.387	17143.55
506.59	17579.76
506.793	17790.7
506.996	17745.65
507.198	18173.67
507.401	18106.09
507.604	18380.52
507.807	18568.93
508.009	18538.21
508.212	18661.09
508.415	19019.49
508.617	19072.73
508.82	19445.46
509.022	19445.46
509.225	19865.3
509.428	19826.39
509.63	20004.56
509.833	20100.81
510.035	20893.38
510.238	20405.96
510.44	21055.17
510.643	21073.6
510.845	21122.75
511.048	21145.28
511.25	21577.4
511.453	21763.76
511.655	22494.89
511.858	22304.43
512.06	22548.14
512.262	22707.88
512.465	22634.15
512.667	23158.43
512.87	23033.5
513.072	23565.98
513.274	23709.33
513.477	23576.22
513.679	24135.31
513.881	24592.01
514.084	24467.08
514.286	24628.87
514.488	24706.69
514.69	25398.91
514.893	25208.45
515.095	25525.88
515.297	26140.27
515.499	26119.79
515.701	26130.03
515.904	26674.79
516.106	26891.88
516.308	26879.59
516.51	27072.1
516.712	27188.83
516.914	27233.89
517.116	28110.42
517.318	27639.39
517.52	28071.51
517.722	27897.43
517.925	28544.59
518.127	29025.86
518.329	28986.95
518.531	28798.54
518.733	29294.14
518.935	29630.01
519.136	29744.7
519.338	30045.75
519.54	29752.89
519.742	30582.32
519.944	30643.76
520.146	30852.65
520.348	31135.27
520.55	30832.17
520.752	31268.39
520.954	31598.11
521.155	31272.48
521.357	32095.77
521.559	32206.36
521.761	32687.63
521.963	32226.84
522.164	32759.31
522.366	32448.02
522.568	33064.46
522.77	33211.91
522.971	33385.99
523.173	33097.22
523.375	33474.05
523.576	33330.69
523.778	33404.42
523.98	33994.23
524.181	34129.4
524.383	33975.8
524.584	34536.94
524.786	34354.68
524.988	34129.4
525.189	34262.52
525.391	34846.19
525.592	34668.01
525.794	34659.82
525.995	34893.29
526.197	34760.17
526.398	34743.79
526.6	34772.46
526.801	34985.45
527.003	35266.02
527.204	35266.02
527.406	35425.76
527.607	35476.96
527.808	35761.63
528.01	35010.03
528.211	35538.4
528.412	35806.69
528.614	35866.08
528.815	35562.98
529.016	36058.59
529.218	35214.82
529.419	35677.66
529.62	35329.51
529.822	35319.27
530.023	35245.54
530.224	35409.38
530.425	35393
530.626	35177.96
530.828	34842.09
531.029	35814.88
531.23	35286.5
531.431	35257.83
531.632	35538.4
531.833	35536.35
532.035	35169.77
532.236	35247.59
532.437	35593.7
532.638	35210.73
532.839	35509.73
533.04	35208.68
533.241	34762.22
533.442	35321.32
533.643	34870.76
533.844	35100.14
534.045	35005.93
534.246	34751.98
534.447	35147.24
534.648	34661.87
534.849	34751.98
535.05	34563.57
535.251	34436.59
535.451	34524.66
535.652	34731.5
535.853	34551.28
536.054	34584.05
536.255	34706.93
536.456	34321.91
536.657	34467.31
536.857	34508.27
537.058	34403.83
537.259	34780.65
537.46	34463.22
537.66	33848.83
537.861	34170.36
538.062	34121.21
538.263	34000.38
538.463	33922.55
538.664	34010.62
538.865	33842.68
539.065	34295.28
539.266	33781.24
539.466	34133.5
539.667	33338.88
539.868	33779.2
540.068	33498.62
540.269	33625.6
540.469	33801.72
540.67	33547.78
540.87	33732.09
541.071	33750.53
541.271	33811.96
541.472	33742.33
541.672	33504.77
541.873	33582.59
542.073	33023.5
542.274	33467.91
542.474	33287.68
542.675	33449.47
542.875	33437.19
543.075	33535.49
543.276	33095.18
543.476	33560.06
543.676	33062.41
543.877	33322.5
544.077	33719.81
544.277	33144.33
544.478	32898.57
544.678	33299.97
544.878	32863.75
545.078	33248.77
545.279	32931.34
545.479	32990.73
545.679	33375.75
545.879	33183.24
546.079	33179.14
546.28	32966.15
546.48	32790.03
546.68	33330.69
546.88	33465.86
547.08	33211.91
547.28	32998.92
547.48	32663.05
547.68	33050.12
547.88	32812.56
548.081	33236.48
548.281	32994.82
548.481	32857.61
548.681	33334.79
548.881	33113.61
549.081	33207.81
549.28	32869.9
549.48	33197.57
549.68	32984.58
549.88	33656.32
550.08	33082.89
550.28	33330.69
550.48	33189.38
550.68	33519.1
550.88	32937.48
551.08	33494.53
551.279	33416.71
551.479	33043.98
551.679	33275.4
551.879	33273.35
552.079	33306.12
552.278	33295.88
552.478	33363.46
552.678	33398.27
552.878	33744.38
553.077	33308.16
553.277	32906.76
553.477	34029.05
553.676	33183.24
553.876	33549.82
554.076	33379.84
554.275	33394.18
554.475	33093.13
554.674	33498.62
554.874	33535.49
555.074	33441.28
555.273	33676.8
555.473	34024.95
555.672	33543.68
555.872	33410.56
556.071	33771
556.271	33723.9
556.47	33601.02
556.67	33590.78
556.869	33973.75
557.068	33887.74
557.268	33955.32
557.467	33967.61
557.667	33670.65
557.866	33859.07
558.065	34094.58
558.265	33979.9
558.464	33779.2
558.663	34516.47
558.863	33848.83
559.062	34067.96
559.261	33852.92
559.461	34313.72
559.66	33838.59
559.859	33949.18
560.058	33764.86
560.258	33943.03
560.457	33846.78
560.656	34211.32
560.855	33850.88
561.054	34117.11
561.253	33709.57
561.453	33924.6
561.652	33922.55
561.851	33887.74
562.05	34113.02
562.249	33744.38
562.448	34237.94
562.647	33859.07
562.846	33480.19
563.045	33920.51
563.244	33410.56
563.443	34012.67
563.642	33490.43
563.841	33904.12
564.04	33166.85
564.239	34162.17
564.438	33484.29
564.637	33363.46
564.836	33820.16
565.035	33414.66
565.234	33506.82
565.432	33459.71
565.631	33140.23
565.83	33734.14
566.029	33228.29
566.228	33218.05
566.427	33191.43
566.625	33011.21
566.824	32656.91
567.023	33193.48
567.222	32595.47
567.42	33134.09
567.619	33048.07
567.818	32525.84
568.016	32867.85
568.215	33015.3
568.414	32757.26
568.612	32824.84
568.811	32661.01
569.01	32618
569.208	32503.31
569.407	32730.64
569.605	32329.23
569.804	32607.76
570.002	32085.53
570.201	32509.46
570.4	31985.18
570.598	31720.99
570.797	32073.24
570.995	31909.4
571.193	31643.17
571.392	31839.77
571.59	31376.93
571.789	31452.7
571.987	31632.93
572.186	31686.17
572.384	31299.11
572.582	31532.57
572.781	31817.24
572.979	30780.97
573.177	31186.47
573.376	30955.05
573.574	30848.55
573.772	31182.37
573.971	30748.2
574.169	30486.06
574.367	30488.11
574.565	30807.59
574.763	30154.29
574.962	30477.87
575.16	29861.43
575.358	29951.54
575.556	29746.75
575.754	30211.63
575.952	29896.25
576.151	30064.18
576.349	29406.78
576.547	29562.43
576.745	29955.64
576.943	29584.96
577.141	29607.48
577.339	29285.95
577.537	29134.4
577.735	29324.86
577.933	28585.55
578.131	29232.71
578.329	28907.08
578.527	28823.11
578.725	29099.59
578.923	29003.33
579.121	28616.27
579.319	28624.46
579.516	28841.54
579.714	28700.23
579.912	28055.12
580.11	28339.79
580.308	28333.65
580.506	28048.98
580.704	27569.76
580.901	27811.42
581.099	28321.36
581.297	27784.79
581.495	27614.81
581.692	27944.53
581.89	27420.25
582.088	28026.45
582.285	27256.42
582.483	27379.29
582.681	27301.47
582.878	27162.21
583.076	27080.29
583.274	27391.58
583.471	27127.39
583.669	26986.08
583.866	26607.21
584.064	27055.72
584.262	27080.29
584.459	26959.46
584.657	26920.55
584.854	26918.5
585.052	26345.07
585.249	26531.44
585.447	26365.55
585.644	26246.77
585.841	26302.06
586.039	26680.94
586.236	26058.35
586.434	26140.27
586.631	25958
586.828	26046.07
587.026	26039.92
587.223	25865.85
587.42	25888.37
587.618	26207.86
587.815	25493.11
588.012	25800.31
588.21	25564.79
588.407	26166.9
588.604	25370.24
588.801	25452.16
588.999	25476.73
589.196	25247.36
589.393	25347.71
589.59	25144.96
589.787	25091.71
589.984	25220.74
590.182	24536.71
590.379	25138.82
590.576	24798.85
590.773	25116.29
590.97	24567.43
591.167	25069.19
591.364	24440.46
591.561	24864.39
591.758	24376.97
591.955	24614.54
592.152	24880.77
592.349	24759.94
592.546	24737.41
592.743	24426.12
592.94	24411.79
593.137	24329.87
593.334	24600.2
593.531	24413.84
593.727	24442.51
593.924	24284.81
594.121	24137.36
594.318	24348.3
594.515	24026.77
594.712	24448.65
594.908	24141.46
595.105	24295.05
595.302	24235.66
595.499	24284.81
595.696	24116.88
595.892	23869.08
596.089	24108.69
596.286	24170.13
596.482	24018.58
596.679	24053.39
596.876	24108.69
597.072	23670.42
597.269	23781.01
597.466	23869.08
597.662	23658.13
597.859	23942.8
598.055	23914.13
598.252	23684.76
598.448	24077.97
598.645	24092.3
598.841	23398.04
599.038	23768.73
599.234	23787.16
599.431	23705.24
599.627	23484.06
599.824	24043.15
600.02	23594.65
600.217	23830.16
600.413	24092.3
600.609	23625.37
600.806	23695
601.002	24088.21
601.198	23844.5
601.395	23729.81
601.591	23836.31
601.787	23899.8
601.984	23821.97
602.18	24143.5
602.376	23846.55
602.572	23858.84
602.769	24272.53
602.965	23766.68
603.161	23682.71
603.357	23813.78
603.553	23654.04
603.75	23903.89
603.946	23848.6
604.142	23766.68
604.338	23832.21
604.534	24041.11
604.73	23645.85
604.926	24096.4
605.122	24415.88
605.318	23903.89
605.514	24252.05
605.71	24032.91
605.906	24270.48
606.102	24317.58
606.298	24321.68
606.494	24178.32
606.69	24114.83
606.886	24333.96
607.082	24094.35
607.278	24301.2
607.474	23973.52
607.67	24559.24
607.866	24295.05
608.062	24661.64
608.257	24417.93
608.453	24495.75
608.649	24682.12
608.845	24444.55
609.041	24428.17
609.236	24784.52
609.432	24696.46
609.628	24624.78
609.824	24592.01
610.019	24526.47
610.215	24684.17
610.411	24948.36
610.606	25020.03
610.802	24645.26
610.998	24649.35
611.193	24813.19
611.389	24905.35
611.584	25005.7
611.78	24764.04
611.976	24888.96
612.171	25163.39
612.367	25013.89
612.562	24977.03
612.758	24690.31
612.953	24741.51
613.149	25038.47
613.344	25067.14
613.539	25265.79
613.735	25357.95
613.93	25357.95
614.126	24874.63
614.321	25251.45
614.517	25144.96
614.712	25106.05
614.907	25095.81
615.103	25337.47
615.298	25075.33
615.493	25583.23
615.688	25165.44
615.884	25605.75
616.079	24813.19
616.274	25173.63
616.47	24960.64
616.665	25319.04
616.86	25034.37
617.055	25097.86
617.25	25083.52
617.445	25523.83
617.641	24854.15
617.836	25046.66
618.031	24696.46
618.226	25294.46
618.421	24960.64
618.616	25300.61
618.811	24592.01
619.006	25147.01
619.201	24553.1
619.396	24968.83
619.591	24325.77
619.786	24942.21
619.981	24473.23
620.176	24747.65
620.371	24501.9
620.566	24630.92
620.761	24247.95
620.956	24614.54
621.151	23953.04
621.346	24250
621.541	23803.54
621.735	24227.47
621.93	23637.66
622.125	23760.53
622.32	23486.11
622.515	23418.52
622.709	23502.49
622.904	23488.15
623.099	23533.21
623.294	23539.35
623.488	23137.95
623.683	23242.4
623.878	22714.02
624.072	22924.96
624.267	22834.85
624.462	22498.98
624.656	22658.73
624.851	22585
625.046	22320.81
625.24	22625.96
625.435	22130.35
625.629	22050.48
625.824	21980.85
626.018	22122.16
626.213	21716.66
626.407	21948.08
626.602	21677.75
626.796	21716.66
626.991	21868.21
627.185	21440.18
627.38	21311.16
627.574	21229.24
627.768	21108.41
627.963	20948.67
628.157	21061.31
628.352	20803.27
628.546	20485.83
628.74	20946.62
628.935	20438.73
629.129	20393.67
629.323	20272.84
629.517	20016.85
629.712	20188.88
629.906	19953.36
630.1	19654.36
630.294	19785.43
630.489	19615.44
630.683	19570.39
630.877	19244.76
631.071	19470.04
631.265	19463.89
631.459	19091.16
631.653	19154.65
631.848	19058.4
632.042	18939.61
632.236	19076.83
632.43	18646.76
632.624	18906.85
632.818	18677.47
633.012	18353.9
633.206	18216.68
633.4	18607.84
633.594	18106.09
633.788	18372.33
633.982	18384.62
634.176	17915.63
634.369	18028.27
634.563	17831.66
634.757	17762.03
634.951	17886.96
635.145	17915.63
635.339	17798.9
635.533	17311.48
635.726	17456.89
635.92	16715.52
636.114	17266.42
636.308	17032.96
636.501	17147.64
636.695	16867.07
636.889	16946.94
637.083	16656.13
637.276	16424.71
637.47	16527.11
637.664	16492.29
637.857	16244.49
638.051	16295.69
638.244	16111.37
638.438	16213.77
638.632	15998.73
638.825	15673.1
639.019	15789.84
639.212	15611.67
639.406	15726.35
639.599	15507.22
639.793	15505.17
639.986	15195.93
640.18	15333.14
640.373	15324.95
640.567	15075.1
640.76	15034.14
640.954	14810.91
641.147	14919.45
641.34	14880.54
641.534	14769.95
641.727	14685.98
641.92	14728.99
642.114	14505.76
642.307	14214.95
642.5	14274.34
642.694	14069.55
642.887	13893.42
643.08	14098.22
643.273	13813.55
643.467	13895.47
643.66	13780.78
643.853	13766.45
644.046	13549.36
644.239	13690.67
644.432	13418.29
644.626	13272.89
644.819	13319.99
645.012	13297.46
645.205	13289.27
645.398	13238.07
645.591	13188.92
645.784	12998.46
645.977	12646.21
646.17	12711.74
646.363	12769.09
646.556	12533.57
646.749	12748.61
646.942	12633.92
647.135	12349.25
647.328	12332.87
647.521	12478.27
647.714	12115.78
647.907	12091.21
648.099	12060.49
648.292	11962.19
648.485	11933.51
648.678	11947.85
648.871	11962.19
649.064	11734.86
649.256	11589.46
649.449	11786.06
649.642	11607.89
649.835	11296.6
650.027	11251.54
650.22	11452.24
650.413	11411.28
650.605	11122.52
650.798	11335.51
650.991	11143
651.183	11186.01
651.376	10948.44
651.568	10846.04
651.761	10665.82
651.954	10833.75
652.146	10985.3
652.339	10850.14
652.531	10551.13
652.724	10702.68
652.916	10223.46
653.109	10426.21
653.301	10258.28
653.494	10327.91
653.686	10063.72
653.879	10362.72
654.071	10174.31
654.263	9932.65
654.456	10116.97
654.648	10004.33
654.84	9772.91
655.033	9924.46
655.225	9781.1
655.417	9799.53
655.61	9930.6
655.802	9826.15
655.994	9422.7
656.186	9654.12
656.379	9494.38
656.571	9713.52
656.763	9383.79
656.955	9584.49
657.148	9371.5
657.34	9498.48
657.532	9275.25
657.724	9164.66
657.916	9131.89
658.108	9174.9
658.3	9119.6
658.492	9062.26
658.684	8851.32
658.876	8787.83
659.068	8970.1
659.26	8677.24
659.452	8920.95
659.644	8718.2
659.836	8609.66
660.028	8775.55
660.22	8478.59
660.412	8451.97
660.604	8331.14
660.796	8470.4
660.988	8232.83
661.18	8238.98
661.372	8286.08
661.563	8218.5
661.755	8177.54
661.947	8118.15
662.139	8079.24
662.331	7939.97
662.522	7962.5
662.714	8038.28
662.906	7882.63
663.097	7804.81
663.289	7884.68
663.481	7929.73
663.673	7571.34
663.864	7622.54
664.056	7671.69
664.247	7554.96
664.439	7634.83
664.631	7659.4
664.822	7698.31
665.014	7489.42
665.205	7344.02
665.397	7243.67
665.588	7364.5
665.78	7217.04
665.971	7194.51
666.163	7354.26
666.354	7026.58
666.546	7262.1
666.737	6885.27
666.929	6969.24
667.12	6909.85
667.311	6954.9
667.503	6934.42
667.694	7008.15
667.885	6786.97
668.077	6815.64
668.268	6619.04
668.459	6750.11
668.651	6950.81
668.842	6711.19
669.033	6672.28
669.224	6696.86
669.416	6721.43
669.607	6684.57
669.798	6481.82
669.989	6576.03
670.18	6571.93
670.371	6447.01
670.563	6371.23
670.754	6479.77
670.945	6438.81
671.136	6317.98
671.327	6309.79
671.518	6350.75
671.709	6291.36
671.9	6315.94
672.091	6178.72
672.282	6117.28
672.473	6129.57
672.664	6109.09
672.855	6107.04
673.046	6074.28
673.237	6242.21
673.428	5996.45
673.619	5914.53
673.809	5961.64
674	5957.54
674.191	6029.22
674.382	5881.77
674.573	5955.49
674.764	5994.4
674.954	5965.73
675.145	5889.96
675.336	5791.66
675.527	5717.93
675.717	5732.26
675.908	5873.57
676.099	5730.22
676.289	5865.38
676.48	5750.7
676.671	5666.73
676.861	5857.19
677.052	5701.55
677.243	5406.64
677.433	5668.78
677.624	5615.53
677.814	5535.66
678.005	5676.97
678.195	5541.8
678.386	5566.38
678.576	5545.9
678.767	5486.51
678.957	5562.28
679.148	5572.52
679.338	5588.91
679.529	5498.8
679.719	5521.32
679.909	5547.95
680.1	5457.84
680.29	5504.94
680.481	5398.45
680.671	5439.4
680.861	5390.25
681.052	5445.55
681.242	5441.45
681.432	5404.59
681.622	5310.38
681.813	5435.31
682.003	5283.76
682.193	5279.66
682.383	5273.52
682.573	5275.57
682.764	5267.38
682.954	5310.38
683.144	5343.15
683.334	5230.51
683.524	5130.16
683.714	5242.8
683.904	5406.64
684.094	5195.7
684.284	5214.13
684.474	5185.46
684.664	5296.05
684.854	5197.74
685.044	5205.94
685.234	5138.35
685.424	5072.82
685.614	5095.35
685.804	5187.5
685.994	5103.54
686.184	5136.31
686.374	5150.64
686.564	5124.02
686.753	5138.35
686.943	4947.89
687.133	4911.03
687.323	4931.51
687.513	4896.69
687.702	4958.13
687.892	4988.85
688.082	4929.46
688.272	4958.13
688.461	4792.25
688.651	5083.06
688.841	4972.47
689.03	4863.93
689.22	4882.36
689.41	4890.55
689.599	4849.59
689.789	4931.51
689.979	4827.06
690.168	4855.73
690.358	4681.66
690.547	4685.75
690.737	4644.79
690.926	4790.2
691.116	4591.55
691.305	4747.19
691.495	4573.11
691.684	4702.14
691.874	4605.88
692.063	4775.86
692.252	4573.11
692.442	4710.33
692.631	4491.2
692.82	4493.24
693.01	4433.85
693.199	4491.2
693.388	4562.87
693.578	4489.15
693.767	4513.72
693.956	4491.2
694.146	4403.13
694.335	4202.43
694.524	4464.57
694.713	4403.13
694.902	4323.26
695.092	4528.06
695.281	4440
695.47	4308.93
695.659	4280.25
695.848	4278.21
696.037	4407.23
696.226	4353.98
696.415	4333.5
696.604	4270.01
696.793	4302.78
696.982	4349.89
697.171	4372.41
697.36	4401.08
697.549	4200.38
697.738	4140.99
697.927	4227.01
698.116	4343.74
698.305	4210.62
698.494	4175.81
698.683	4220.86
698.872	4257.73
699.061	4313.02
699.25	4161.47
699.438	4347.84
699.627	4087.75
699.816	4263.87
700.005	4140.99
700.193	4245.44
700.382	4126.66
700.571	4188.1
700.76	4106.18
700.948	4122.56
701.137	4120.51
701.326	4235.2
701.514	3973.06
701.703	4026.31
701.892	4040.64
702.08	4120.51
702.269	4022.21
702.457	4065.22
702.646	4034.5
702.834	3960.77
703.023	4022.21
703.212	4112.32
703.4	4003.78
703.589	3915.72
703.777	4095.94
703.965	3715.02
704.154	3973.06
704.342	3815.37
704.531	3819.46
704.719	3915.72
704.907	3997.64
705.096	3801.03
705.284	3833.8
705.472	3825.61
705.661	3819.46
705.849	3837.89
706.037	3803.08
706.226	3755.97
706.414	3850.18
706.602	3735.49
706.79	3858.37
706.979	3710.92
707.167	3778.5
707.355	3725.26
707.543	3641.29
707.731	3661.77
707.919	3653.58
708.107	3530.7
708.296	3807.17
708.484	3596.23
708.672	3579.85
708.86	3631.05
709.048	3596.23
709.236	3542.99
709.424	3604.43
709.612	3629
709.8	3473.36
709.988	3643.34
710.176	3540.94
710.364	3604.43
710.551	3403.72
710.739	3411.92
710.927	3553.23
711.115	3522.51
711.303	3471.31
711.491	3313.61
711.679	3407.82
711.866	3542.99
712.054	3442.64
712.242	3526.6
712.43	3502.03
712.617	3434.44
712.805	3393.48
712.993	3319.76
713.181	3270.61
713.368	3366.86
713.556	3317.71
713.744	3317.71
713.931	3379.15
714.119	3282.89
714.306	3350.48
714.494	3149.78
714.682	3235.79
714.869	3252.17
715.057	3252.17
715.244	3153.87
715.432	3282.89
715.619	3278.8
715.807	3186.64
715.994	3284.94
716.182	3293.13
716.369	3239.89
716.556	3225.55
716.744	3092.43
716.931	3117.01
717.119	3309.52
717.306	3137.49
717.493	3147.73
717.681	2981.84
717.868	3123.15
718.055	3041.23
718.242	3172.3
718.43	3041.23
718.617	3123.15
718.804	3131.34
718.991	3008.47
719.179	3076.05
719.366	3055.57
719.553	3016.66
719.74	3026.9
719.927	2990.03
720.114	2998.23
720.301	2983.89
720.488	2973.65
720.676	3043.28
720.863	2867.16
721.05	3057.62
721.237	2949.07
721.424	2969.55
721.611	3008.47
721.798	2977.75
721.985	2973.65
722.172	2838.48
722.358	2891.73
722.545	2918.36
722.732	2904.02
722.919	2901.97
723.106	2826.2
723.293	2901.97
723.48	2850.77
723.667	2838.48
723.853	2815.96
724.04	2861.01
724.227	2865.11
724.414	2764.76
724.6	2719.7
724.787	2842.58
724.974	2883.54
725.161	2727.89
725.347	2605.02
725.534	2762.71
725.72	2691.03
725.907	2768.85
726.094	2736.09
726.28	2643.93
726.467	2727.89
726.653	2625.5
726.84	2727.89
727.027	2711.51
727.213	2688.98
727.4	2666.46
727.586	2527.19
727.773	2662.36
727.959	2605.02
728.145	2705.37
728.332	2588.63
728.518	2555.87
728.705	2623.45
728.891	2547.67
729.077	2666.46
729.264	2494.43
729.45	2686.94
729.636	2584.54
729.823	2566.1
730.009	2582.49
730.195	2475.99
730.382	2562.01
730.568	2623.45
730.754	2541.53
730.94	2592.73
731.126	2551.77
731.313	2580.44
731.499	2555.87
731.685	2494.43
731.871	2473.95
732.057	2539.48
732.243	2574.3
732.429	2557.91
732.615	2451.42
732.801	2443.23
732.987	2498.52
733.173	2566.1
733.359	2475.99
733.545	2465.75
733.731	2402.27
733.917	2557.91
734.103	2445.27
734.289	2392.03
734.475	2301.92
734.661	2377.69
734.847	2529.24
735.033	2424.8
735.219	2396.12
735.404	2488.28
735.59	2375.64
735.776	2414.56
735.962	2420.7
736.148	2369.5
736.333	2467.8
736.519	2392.03
736.705	2234.33
736.89	2342.88
737.076	2369.5
737.262	2346.97
737.447	2306.01
737.633	2318.3
737.819	2349.02
738.004	2265.05
738.19	2285.53
738.375	2277.34
738.561	2279.39
738.747	2269.15
738.932	2254.81
739.118	2263.01
739.303	2271.2
739.489	2320.35
739.674	2238.43
739.859	2230.24
740.045	2271.2
740.23	2213.85
740.416	2117.6
740.601	2244.57
740.786	2133.98
740.972	2205.66
741.157	2064.35
741.342	2140.13
741.528	2140.13
741.713	2242.53
741.898	2146.27
742.084	2080.74
742.269	2142.18
742.454	2146.27
742.639	2150.37
742.824	2125.79
743.01	2015.2
743.195	2080.74
743.38	2041.82
743.565	1978.34
743.75	1986.53
743.935	2039.78
744.12	2011.11
744.305	1902.56
744.49	2023.39
744.675	1982.43
744.86	1968.1
745.045	1957.86
745.23	1867.75
745.415	1968.1
745.6	2011.11
745.785	1916.9
745.97	1843.17
746.155	1910.75
746.34	1880.04
746.525	1910.75
746.71	1794.02
746.895	1759.21
747.079	1763.3
747.264	1781.73
747.449	1867.75
747.634	1771.49
747.819	1837.03
748.003	1656.81
748.188	1642.47
748.373	1759.21
748.557	1755.11
748.742	1679.33
748.927	1761.25
749.111	1667.05
749.296	1679.33
749.481	1720.29
749.665	1634.28
749.85	1679.33
750.034	1640.42
750.219	1585.13
750.404	1665
750.588	1630.18
750.773	1613.8
750.957	1794.02
751.141	1558.5
751.326	1572.84
751.51	1546.22
751.695	1558.5
751.879	1701.86
752.064	1572.84
752.248	1589.22
752.432	1607.66
752.617	1462.25
752.801	1531.88
752.985	1574.89
753.17	1499.11
753.354	1439.72
753.538	1499.11
753.722	1314.8
753.907	1466.35
754.091	1339.37
754.275	1388.52
754.459	1435.63
754.643	1329.13
754.828	1499.11
755.012	1427.43
755.196	1361.9
755.38	1279.98
755.564	1277.93
755.748	1335.28
755.932	1470.44
756.116	1316.84
756.3	1302.51
756.484	1261.55
756.668	1290.22
756.852	1216.49
757.036	1196.01
757.22	1370.09
757.404	1361.9
757.588	1253.36
757.772	1228.78
757.956	1142.77
758.14	1312.75
758.323	1189.87
758.507	1179.63
758.691	1220.59
758.875	1204.21
759.059	1216.49
759.242	1230.83
759.426	1089.52
759.61	1171.44
759.794	1116.14
759.977	1202.16
760.161	1234.93
760.345	1193.97
760.528	1185.77
760.712	1202.16
760.895	1163.25
761.079	1187.82
761.263	1155.05
761.446	1130.48
761.63	1062.9
761.813	1130.48
761.997	1052.66
762.18	1077.23
762.364	1153.01
762.547	1021.94
762.731	1007.6
762.914	999.41
763.098	1023.98
763.281	1105.9
763.464	989.17
763.648	1044.46
763.831	985.07
764.015	1032.18
764.198	1036.27
764.381	1034.22
764.564	1028.08
764.748	983.03
764.931	999.41
765.114	1036.27
765.297	991.22
765.481	925.68
765.664	974.83
765.847	929.78
766.03	1042.42
766.213	970.74
766.397	1009.65
766.58	976.88
766.763	968.69
766.946	880.63
767.129	935.92
767.312	876.53
767.495	1040.37
767.678	897.01
767.861	999.41
768.044	870.39
768.227	831.48
768.41	884.72
768.593	1028.08
768.776	862.19
768.959	991.22
769.142	974.83
769.324	851.96
769.507	958.45
769.69	960.5
769.873	843.76
770.056	827.38
770.239	843.76
770.421	894.96
770.604	876.53
770.787	806.9
770.97	854
771.152	903.15
771.335	903.15
771.518	772.08
771.7	880.63
771.883	901.11
772.066	835.57
772.248	870.39
772.431	849.91
772.613	841.72
772.796	819.19
772.978	843.76
773.161	786.42
773.343	819.19
773.526	856.05
773.708	854
773.891	757.75
774.073	802.8
774.256	755.7
774.438	831.48
774.621	712.69
774.803	753.65
774.985	745.46
775.168	794.61
775.35	819.19
775.532	753.65
775.715	606.2
775.897	755.7
776.079	753.65
776.261	649.21
776.444	688.12
776.626	739.32
776.808	690.17
776.99	702.45
777.173	688.12
777.355	739.32
777.537	671.73
777.719	679.93
777.901	616.44
778.083	655.35
778.265	577.53
778.447	634.87
778.629	647.16
778.811	667.64
778.993	649.21
779.175	714.74
779.357	665.59
779.539	622.58
779.721	536.57
779.903	622.58
780.085	679.93
780.267	624.63
780.449	583.67
780.631	712.69
780.812	616.44
780.994	626.68
781.176	561.14
781.358	526.33
781.54	585.72
781.721	638.97
781.903	591.86
782.085	608.25
782.267	606.2
782.448	518.14
782.63	567.29
782.812	557.05
782.993	526.33
783.175	526.33
783.357	507.9
783.538	509.94
783.72	475.13
783.901	475.13
784.083	589.82
784.264	493.56
784.446	475.13
784.627	511.99
784.809	493.56
784.99	471.03
785.172	409.59
785.353	495.61
785.535	511.99
785.716	436.22
785.897	434.17
786.079	430.07
786.26	477.18
786.441	434.17
786.623	372.73
786.804	444.41
786.985	376.83
787.167	442.36
787.348	331.77
787.529	425.98
787.71	409.59
787.891	378.87
788.073	376.83
788.254	499.7
788.435	464.89
788.616	395.26
788.797	421.88
788.978	411.64
789.159	385.02
789.34	417.79
789.522	364.54
789.703	362.49
789.884	327.67
790.065	407.55
790.246	401.4
790.427	352.25
790.607	370.68
790.788	434.17
790.969	321.53
791.15	344.06
791.331	264.19
791.512	321.53
791.693	333.82
791.874	311.29
792.054	438.27
792.235	348.15
792.416	385.02
792.597	282.62
792.778	294.91
792.958	411.64
793.139	311.29
793.32	315.39
793.5	327.67
793.681	409.59
793.862	327.67
794.042	387.07
794.223	249.85
794.404	274.43
794.584	208.89
794.765	321.53
794.945	323.58
795.126	327.67
795.306	288.76
795.487	329.72
795.667	258.04
795.848	303.1
796.028	282.62
796.209	348.15
796.389	299
796.57	346.11
796.75	247.8
796.93	204.8
797.111	270.33
797.291	344.06
797.471	348.15
797.652	278.52
797.832	270.33
798.012	354.3
798.192	294.91
798.373	270.33
798.553	247.8
798.733	323.58
798.913	215.04
799.093	233.47
799.274	245.76
799.454	313.34
799.634	268.28
799.814	290.81
799.994	253.95
800.174	221.18
800.354	253.95
800.534	192.51
800.714	229.37
800.894	176.13
801.074	174.08
801.254	290.81
801.434	237.56
801.614	229.37
801.794	145.41
801.974	978.93
802.154	204.8
802.334	192.51
802.514	157.69
802.693	180.22
802.873	163.84
803.053	296.96
803.233	210.94
803.413	253.95
803.592	196.61
803.772	237.56
803.952	190.46
804.131	241.66
804.311	245.76
804.491	229.37
804.67	200.7
804.85	155.65
805.03	253.95
805.209	233.47
805.389	215.04
805.568	198.65
805.748	258.04
805.928	157.69
806.107	303.1
806.287	122.88
806.466	194.56
806.646	245.76
806.825	151.55
807.004	143.36
807.184	241.66
807.363	135.17
807.543	227.32
807.722	100.35
807.901	208.89
808.081	217.08
808.26	90.11
808.439	212.99
808.619	204.8
808.798	102.4
808.977	122.88
809.156	141.31
809.336	194.56
809.515	188.41
809.694	192.51
809.873	94.21
810.052	149.5
810.231	176.13
810.411	167.93
810.59	212.99
810.769	114.69
810.948	157.69
811.127	122.88
811.306	206.84
811.485	124.93
811.664	196.61
811.843	174.08
812.022	196.61
812.201	165.89
812.38	172.03
812.559	155.65
812.737	133.12
812.916	102.4
813.095	77.82
813.274	114.69
813.453	149.5
813.632	114.69
813.811	188.41
813.989	116.73
814.168	165.89
814.347	77.82
814.526	51.2
814.704	126.97
814.883	155.65
815.062	73.73
815.24	223.23
815.419	49.15
815.598	81.92
815.776	120.83
815.955	147.45
816.133	102.4
816.312	124.93
816.49	65.54
816.669	159.74
816.847	98.3
817.026	114.69
817.204	139.26
817.383	167.93
817.561	135.17
817.74	49.15
817.918	147.45
818.097	163.84
818.275	118.78
818.453	210.94
818.632	126.97
818.81	167.93
818.988	65.54
819.167	131.07
819.345	92.16
819.523	108.54
819.701	139.26
819.879	75.77
820.058	143.36
820.236	124.93
820.414	108.54
820.592	122.88
820.77	116.73
820.948	100.35
821.127	131.07
821.305	167.93
821.483	120.83
821.661	165.89
821.839	139.26
822.017	114.69
822.195	90.11
822.373	157.69
822.551	110.59
822.729	90.11
822.907	186.37
823.085	135.17
823.262	126.97
823.44	88.06
823.618	135.17
823.796	75.77
823.974	38.91
824.152	96.25
824.329	122.88
824.507	126.97
824.685	182.27
824.863	110.59
825.04	116.73
825.218	204.8
825.396	98.3
825.574	114.69
825.751	16.38
825.929	147.45
826.107	90.11
826.284	24.58
826.462	61.44
826.639	100.35
826.817	59.39
826.994	8.19
827.172	34.82
827.349	167.93
827.527	110.59
827.704	86.01
827.882	83.97
828.059	147.45
828.237	-2.05
828.414	77.82
828.591	63.49
828.769	81.92
828.946	45.06
829.124	53.25
829.301	40.96
829.478	34.82
829.655	28.67
829.833	126.97
830.01	-8.19
830.187	40.96
830.364	129.02
830.542	71.68
830.719	184.32
830.896	163.84
831.073	57.34
831.25	2.05
831.427	26.62
831.604	65.54
831.782	129.02
831.959	90.11
832.136	81.92
832.313	40.96
832.49	43.01
832.667	22.53
832.844	18.43
833.021	124.93
833.198	83.97
833.374	77.82
833.551	2.05
833.728	28.67
833.905	114.69
834.082	4.1
834.259	77.82
834.436	8.19
834.612	0
834.789	28.67
834.966	43.01
835.143	133.12
835.319	8.19
835.496	92.16
835.673	106.49
835.85	98.3
836.026	75.77
836.203	106.49
836.38	69.63
836.556	69.63
836.733	57.34
836.909	73.73
837.086	16.38
837.262	40.96
837.439	40.96
837.616	-2.05
837.792	65.54
837.968	47.1
838.145	8.19
838.321	133.12
838.498	139.26
838.674	38.91
838.851	4.1
839.027	0
839.203	57.34
839.38	69.63
839.556	8.19
839.732	77.82
839.909	22.53
840.085	45.06
840.261	22.53
840.437	106.49
840.614	2.05
840.79	-10.24
840.966	8.19
841.142	65.54
841.318	102.4
841.494	126.97
841.671	-8.19
841.847	57.34
842.023	-30.72
842.199	57.34
842.375	32.77
842.551	-2.05
842.727	47.1
842.903	65.54
843.079	16.38
843.255	77.82
843.431	28.67
843.607	104.45
843.783	-16.38
843.959	57.34
844.134	55.3
844.31	32.77
844.486	67.58
844.662	12.29
844.838	65.54
845.013	57.34
845.189	126.97
845.365	24.58
845.541	79.87
845.716	57.34
845.892	61.44
846.068	24.58
846.244	90.11
846.419	65.54
846.595	-71.68
846.77	40.96
846.946	106.49
847.122	102.4
847.297	79.87
847.473	90.11
847.648	4.1
847.824	-14.34
847.999	-6.14
848.175	12.29
848.35	106.49
848.526	98.3
848.701	122.88
848.876	59.39
849.052	122.88
849.227	-40.96
849.403	26.62
849.578	51.2
849.753	-16.38
849.929	32.77
850.104	8.19
850.279	-20.48
850.454	8.19
850.63	0
850.805	-16.38
850.98	40.96
851.155	106.49
851.33	51.2
851.505	-12.29
851.681	53.25
851.856	0
852.031	57.34
852.206	24.58
852.381	-16.38
852.556	40.96
852.731	59.39
852.906	143.36
853.081	16.38
853.256	53.25
853.431	-8.19
853.606	10.24
853.781	-14.34
853.956	32.77
854.131	79.87
854.305	-94.21
854.48	12.29
854.655	-34.82
854.83	2.05
855.005	57.34
855.18	-36.86
855.354	16.38
855.529	114.69
855.704	40.96
855.879	77.82
856.053	16.38
856.228	106.49
856.403	0
856.577	79.87
856.752	69.63
856.926	10.24
857.101	28.67
857.276	40.96
857.45	30.72
857.625	34.82
857.799	-6.14
857.974	20.48
858.148	-43.01
858.323	110.59
858.497	-32.77
858.672	40.96
858.846	-22.53
859.02	0
859.195	-14.34
859.369	32.77
859.543	47.1
859.718	79.87
859.892	69.63
860.066	8.19
860.241	67.58
860.415	12.29
860.589	73.73
860.763	40.96
860.938	32.77
861.112	61.44
861.286	8.19
861.46	-4.1
861.634	4.1
861.808	63.49
861.982	28.67
862.157	-38.91
862.331	18.43
862.505	-30.72
862.679	51.2
862.853	4.1
863.027	-73.73
863.201	4.1
863.375	-16.38
863.549	-53.25
863.722	8.19
863.896	79.87
864.07	-38.91
864.244	-22.53
864.418	-34.82
864.592	-38.91
864.766	-8.19
864.939	47.1
865.113	16.38
865.287	49.15
865.461	-47.1
865.634	18.43
865.808	45.06
865.982	34.82
866.156	-28.67
866.329	4.1
866.503	34.82
866.676	10.24
866.85	22.53
867.024	-26.62
867.197	34.82
867.371	12.29
867.544	-4.1
867.718	-2.05
867.891	10.24
868.065	-4.1
868.238	-20.48
868.412	65.54
868.585	51.2
868.759	-90.11
868.932	-32.77
869.105	4.1
869.279	-59.39
869.452	34.82
869.625	32.77
869.799	34.82
869.972	-16.38
870.145	69.63
870.319	0
870.492	-57.34
870.665	0
870.838	-2.05
871.011	-30.72
871.185	32.77
871.358	12.29
871.531	16.38
871.704	2.05
871.877	26.62
872.05	20.48
872.223	-26.62
872.396	4.1
872.569	45.06
872.742	-24.58
872.915	135.17
873.088	26.62
873.261	-71.68
873.434	57.34
873.607	-16.38
873.78	77.82
873.953	-10.24
874.126	-90.11
874.299	77.82
874.471	-47.1
874.644	12.29
874.817	-36.86
874.99	83.97
875.163	34.82
875.335	-6.14
875.508	73.73
875.681	16.38
875.853	-4.1
876.026	-88.06
876.199	34.82
876.371	73.73
876.544	20.48
876.717	0
876.889	-22.53
877.062	34.82
877.234	90.11
877.407	-4.1
877.579	40.96
877.752	2.05
877.924	0
878.097	28.67
878.269	-16.38
878.442	32.77
878.614	73.73
878.786	-22.53
878.959	-12.29
879.131	40.96
879.303	-57.34
879.476	73.73
879.648	47.1
879.82	49.15
879.993	-8.19
880.165	-55.3
880.337	-14.34
880.509	-22.53
880.681	-20.48
880.854	-12.29
881.026	49.15
881.198	90.11
881.37	-6.14
881.542	14.34
881.714	-24.58
881.886	-65.53
882.058	24.58
882.23	-49.15
882.402	-30.72
882.574	8.19
882.746	-38.91
882.918	10.24
883.09	-12.29
883.262	-73.73
883.434	-22.53
883.606	-22.53
883.778	45.06
883.95	32.77
884.122	-14.34
884.293	49.15
884.465	-14.34
884.637	77.82
884.809	-14.34
884.98	-63.49
885.152	22.53
885.324	24.58
885.496	-53.25
885.667	4.1
885.839	-36.86
886.011	34.82
886.182	43.01
886.354	-4.1
886.525	-36.86
886.697	43.01
886.869	-34.82
887.04	-96.25
887.212	-45.06
887.383	-65.53
887.555	0
887.726	28.67
887.897	16.38
888.069	-24.58
888.24	-12.29
888.412	24.58
888.583	0
888.754	8.19
888.926	-45.06
889.097	-49.15
889.268	-69.63
889.44	-69.63
889.611	8.19
889.782	-22.53
889.953	-32.77
890.125	49.15
890.296	2.05
890.467	-45.06
890.638	-96.25
890.809	20.48
890.98	8.19
891.151	8.19
891.323	-12.29
891.494	-36.86
891.665	-32.77
891.836	-65.53
892.007	-88.06
892.178	12.29
892.349	-28.67
892.52	-26.62
892.691	-2.05
892.862	0
893.032	-98.3
893.203	-4.1
893.374	61.44
893.545	6.14
893.716	32.77
893.887	16.38
894.057	38.91
894.228	67.58
894.399	-16.38
894.57	34.82
894.74	20.48
894.911	12.29
895.082	45.06
895.253	-6.14
895.423	45.06
895.594	10.24
895.764	-28.67
895.935	-73.73
896.106	-24.58
896.276	26.62
896.447	40.96
896.617	0
896.788	-4.1
896.958	-30.72
897.129	4.1
897.299	32.77
897.47	10.24
897.64	36.86
897.81	-18.43
897.981	65.54
898.151	10.24
898.322	-10.24
898.492	4.1
898.662	-86.01
898.832	16.38
899.003	-22.53
899.173	-22.53
899.343	-45.06
899.513	51.2
