Data from USB4F104151__154__14-31-59-348.txt Node

Date: Thu Mar 13 14:31:59 EDT 2025
User: louis
Spectrometer: USB4F10415
Trigger mode: 4
Integration Time (sec): 2.500000E-2
Scans to average: 1
Electric dark correction enabled: true
Nonlinearity correction enabled: false
Boxcar width: 0
XAxis mode: Wavelengths
Number of Pixels in Spectrum: 3648
>>>>>Begin Spectral Data<<<<<
178.204	-128.51
178.424	-128.51
178.644	-128.51
178.864	-161.28
179.084	-187.9
179.304	-26.11
179.524	18.94
179.744	70.14
179.964	10.75
180.184	-32.26
180.404	68.09
180.624	18.94
180.844	-50.69
181.064	-91.65
181.283	14.85
181.503	-32.26
181.723	31.23
181.943	-50.69
182.163	86.53
182.383	31.23
182.602	80.38
182.822	61.95
183.042	74.24
183.262	16.9
183.482	6.66
183.701	35.33
183.921	41.47
184.141	49.66
184.361	78.33
184.58	88.57
184.8	100.86
185.02	78.33
185.239	31.23
185.459	82.43
185.679	147.97
185.898	-40.45
186.118	47.62
186.338	31.23
186.557	145.92
186.777	-34.3
186.997	31.23
187.216	96.77
187.436	27.14
187.655	23.04
187.875	49.66
188.095	47.62
188.314	66.05
188.534	86.53
188.753	25.09
188.973	18.94
189.192	23.04
189.412	23.04
189.631	37.38
189.851	66.05
190.07	20.99
190.29	-50.69
190.509	12.8
190.729	16.9
190.948	123.39
191.168	170.49
191.387	18.94
191.607	-5.63
191.826	14.85
192.045	29.18
192.265	84.48
192.484	16.9
192.704	39.42
192.923	-28.16
193.142	125.44
193.362	12.8
193.581	18.94
193.8	-13.82
194.02	57.86
194.239	64
194.458	0.51
194.678	43.52
194.897	14.85
195.116	41.47
195.335	72.19
195.555	129.53
195.774	51.71
195.993	-9.73
196.212	31.23
196.432	6.66
196.651	-30.21
196.87	64
197.089	154.11
197.308	78.33
197.528	57.86
197.747	27.14
197.966	31.23
198.185	66.05
198.404	16.9
198.623	8.7
198.842	74.24
199.062	86.53
199.281	55.81
199.5	23.04
199.719	14.85
199.938	43.52
200.157	0.51
200.376	96.77
200.595	98.81
200.814	64
201.033	0.51
201.252	90.62
201.471	47.62
201.69	82.43
201.909	72.19
202.128	47.62
202.347	39.42
202.566	-13.82
202.785	-9.73
203.004	35.33
203.223	88.57
203.442	18.94
203.661	84.48
203.879	90.62
204.098	-11.78
204.317	57.86
204.536	104.96
204.755	-13.82
204.974	76.29
205.193	-17.92
205.411	164.35
205.63	39.42
205.849	49.66
206.068	80.38
206.287	70.14
206.505	102.91
206.724	14.85
206.943	145.92
207.162	66.05
207.381	82.43
207.599	70.14
207.818	31.23
208.037	-9.73
208.255	-22.02
208.474	-19.97
208.693	53.76
208.911	49.66
209.13	70.14
209.349	10.75
209.567	39.42
209.786	41.47
210.005	86.53
210.223	47.62
210.442	-5.63
210.661	47.62
210.879	59.9
211.098	49.66
211.316	-11.78
211.535	74.24
211.753	29.18
211.972	107.01
212.191	8.7
212.409	49.66
212.628	68.09
212.846	-22.02
213.065	66.05
213.283	141.82
213.502	66.05
213.72	23.04
213.938	10.75
214.157	80.38
214.375	57.86
214.594	39.42
214.812	31.23
215.031	-22.02
215.249	98.81
215.467	6.66
215.686	47.62
215.904	59.9
216.122	-9.73
216.341	14.85
216.559	53.76
216.778	55.81
216.996	-9.73
217.214	49.66
217.432	39.42
217.651	-3.58
217.869	33.28
218.087	12.8
218.306	-3.58
218.524	107.01
218.742	-5.63
218.96	49.66
219.179	-32.26
219.397	80.38
219.615	147.97
219.833	49.66
220.051	25.09
220.27	72.19
220.488	64
220.706	-17.92
220.924	23.04
221.142	72.19
221.36	64
221.578	121.34
221.796	37.38
222.015	72.19
222.233	88.57
222.451	57.86
222.669	88.57
222.887	123.39
223.105	12.8
223.323	27.14
223.541	-15.87
223.759	35.33
223.977	49.66
224.195	14.85
224.413	76.29
224.631	55.81
224.849	39.42
225.067	82.43
225.285	-1.54
225.503	117.25
225.721	-1.54
225.939	6.66
226.157	74.24
226.375	139.77
226.592	0.51
226.81	96.77
227.028	39.42
227.246	53.76
227.464	27.14
227.682	51.71
227.9	14.85
228.117	80.38
228.335	31.23
228.553	31.23
228.771	23.04
228.989	43.52
229.206	47.62
229.424	6.66
229.642	-30.21
229.86	88.57
230.077	98.81
230.295	-1.54
230.513	100.86
230.731	37.38
230.948	154.11
231.166	72.19
231.384	23.04
231.601	-50.69
231.819	51.71
232.037	-7.68
232.254	4.61
232.472	96.77
232.689	45.57
232.907	68.09
233.125	-1.54
233.342	41.47
233.56	8.7
233.777	23.04
233.995	14.85
234.213	154.11
234.43	47.62
234.648	-9.73
234.865	82.43
235.083	33.28
235.3	31.23
235.518	94.72
235.735	47.62
235.953	131.58
236.17	76.29
236.388	68.09
236.605	115.2
236.822	41.47
237.04	113.15
237.257	51.71
237.475	61.95
237.692	59.9
237.909	-42.5
238.127	-26.11
238.344	31.23
238.562	8.7
238.779	-56.83
238.996	74.24
239.214	-40.45
239.431	68.09
239.648	-1.54
239.865	-42.5
240.083	98.81
240.3	18.94
240.517	37.38
240.735	16.9
240.952	117.25
241.169	109.05
241.386	78.33
241.603	6.66
241.821	-17.92
242.038	43.52
242.255	70.14
242.472	-1.54
242.689	92.67
242.907	88.57
243.124	-56.83
243.341	23.04
243.558	98.81
243.775	55.81
243.992	33.28
244.209	4.61
244.426	90.62
244.643	129.53
244.86	-22.02
245.078	55.81
245.295	72.19
245.512	-5.63
245.729	43.52
245.946	64
246.163	39.42
246.38	23.04
246.597	18.94
246.814	104.96
247.031	8.7
247.248	53.76
247.464	115.2
247.681	115.2
247.898	33.28
248.115	82.43
248.332	64
248.549	64
248.766	117.25
248.983	92.67
249.2	49.66
249.417	66.05
249.633	59.9
249.85	57.86
250.067	-17.92
250.284	12.8
250.501	127.49
250.717	31.23
250.934	23.04
251.151	14.85
251.368	55.81
251.585	92.67
251.801	82.43
252.018	8.7
252.235	55.81
252.451	33.28
252.668	147.97
252.885	74.24
253.102	57.86
253.318	90.62
253.535	8.7
253.752	0.51
253.968	14.85
254.185	-7.68
254.401	55.81
254.618	55.81
254.835	8.7
255.051	123.39
255.268	4.61
255.484	123.39
255.701	14.85
255.917	90.62
256.134	20.99
256.351	-9.73
256.567	55.81
256.784	86.53
257	57.86
257.217	55.81
257.433	55.81
257.65	-13.82
257.866	109.05
258.082	-48.64
258.299	20.99
258.515	-26.11
258.732	10.75
258.948	33.28
259.165	74.24
259.381	31.23
259.597	31.23
259.814	80.38
260.03	61.95
260.246	90.62
260.463	64
260.679	121.34
260.895	72.19
261.112	37.38
261.328	43.52
261.544	88.57
261.761	113.15
261.977	66.05
262.193	6.66
262.409	115.2
262.626	53.76
262.842	72.19
263.058	31.23
263.274	33.28
263.49	47.62
263.707	141.82
263.923	47.62
264.139	-13.82
264.355	76.29
264.571	80.38
264.787	51.71
265.004	72.19
265.22	64
265.436	39.42
265.652	35.33
265.868	55.81
266.084	51.71
266.3	47.62
266.516	-7.68
266.732	8.7
266.948	25.09
267.164	0.51
267.38	113.15
267.596	18.94
267.812	53.76
268.028	37.38
268.244	-19.97
268.46	39.42
268.676	16.9
268.892	113.15
269.108	121.34
269.324	66.05
269.54	43.52
269.756	53.76
269.972	31.23
270.188	41.47
270.403	6.66
270.619	39.42
270.835	55.81
271.051	23.04
271.267	-26.11
271.483	59.9
271.698	84.48
271.914	104.96
272.13	-9.73
272.346	23.04
272.562	72.19
272.777	111.1
272.993	47.62
273.209	23.04
273.425	-13.82
273.64	14.85
273.856	74.24
274.072	72.19
274.287	8.7
274.503	90.62
274.719	90.62
274.934	47.62
275.15	10.75
275.366	74.24
275.581	-24.06
275.797	31.23
276.012	33.28
276.228	88.57
276.444	78.33
276.659	80.38
276.875	16.9
277.09	49.66
277.306	31.23
277.521	72.19
277.737	88.57
277.952	98.81
278.168	80.38
278.383	18.94
278.599	43.52
278.814	92.67
279.03	25.09
279.245	72.19
279.461	47.62
279.676	23.04
279.892	37.38
280.107	14.85
280.322	47.62
280.538	51.71
280.753	27.14
280.969	72.19
281.184	47.62
281.399	51.71
281.615	23.04
281.83	64
282.045	-9.73
282.26	80.38
282.476	33.28
282.691	64
282.906	66.05
283.122	70.14
283.337	41.47
283.552	88.57
283.767	-9.73
283.983	-56.83
284.198	88.57
284.413	129.53
284.628	23.04
284.843	31.23
285.058	107.01
285.274	64
285.489	0.51
285.704	121.34
285.919	55.81
286.134	-1.54
286.349	33.28
286.564	33.28
286.779	72.19
286.995	59.9
287.21	-30.21
287.425	2.56
287.64	10.75
287.855	125.44
288.07	57.86
288.285	59.9
288.5	51.71
288.715	8.7
288.93	49.66
289.145	96.77
289.36	72.19
289.575	27.14
289.79	107.01
290.004	55.81
290.219	33.28
290.434	98.81
290.649	-5.63
290.864	-17.92
291.079	6.66
291.294	51.71
291.509	14.85
291.724	43.52
291.938	-26.11
292.153	47.62
292.368	39.42
292.583	25.09
292.798	86.53
293.012	-5.63
293.227	111.1
293.442	55.81
293.657	64
293.871	64
294.086	51.71
294.301	186.88
294.516	84.48
294.73	47.62
294.945	2.56
295.16	82.43
295.374	74.24
295.589	64
295.804	0.51
296.018	18.94
296.233	8.7
296.447	39.42
296.662	25.09
296.877	74.24
297.091	4.61
297.306	-26.11
297.52	-26.11
297.735	14.85
297.949	10.75
298.164	25.09
298.378	-32.26
298.593	14.85
298.807	33.28
299.022	27.14
299.236	129.53
299.451	68.09
299.665	84.48
299.88	49.66
300.094	104.96
300.309	98.81
300.523	47.62
300.737	0.51
300.952	121.34
301.166	43.52
301.381	80.38
301.595	41.47
301.809	-17.92
302.024	55.81
302.238	-32.26
302.452	145.92
302.667	-3.58
302.881	70.14
303.095	18.94
303.309	64
303.524	47.62
303.738	47.62
303.952	-7.68
304.166	35.33
304.381	23.04
304.595	88.57
304.809	55.81
305.023	-34.3
305.237	29.18
305.452	90.62
305.666	23.04
305.88	80.38
306.094	68.09
306.308	92.67
306.522	66.05
306.736	98.81
306.95	117.25
307.164	37.38
307.379	-17.92
307.593	33.28
307.807	57.86
308.021	113.15
308.235	31.23
308.449	-34.3
308.663	39.42
308.877	57.86
309.091	41.47
309.305	90.62
309.519	25.09
309.733	104.96
309.947	35.33
310.161	64
310.374	117.25
310.588	90.62
310.802	59.9
311.016	64
311.23	66.05
311.444	49.66
311.658	47.62
311.872	80.38
312.085	121.34
312.299	109.05
312.513	107.01
312.727	104.96
312.941	61.95
313.154	51.71
313.368	27.14
313.582	57.86
313.796	-5.63
314.009	49.66
314.223	107.01
314.437	72.19
314.651	59.9
314.864	-1.54
315.078	31.23
315.292	-7.68
315.505	59.9
315.719	66.05
315.933	66.05
316.146	96.77
316.36	-32.26
316.573	39.42
316.787	104.96
317.001	0.51
317.214	39.42
317.428	104.96
317.641	10.75
317.855	14.85
318.068	14.85
318.282	59.9
318.495	39.42
318.709	88.57
318.922	20.99
319.136	6.66
319.349	33.28
319.563	27.14
319.776	66.05
319.99	55.81
320.203	84.48
320.417	47.62
320.63	158.21
320.843	72.19
321.057	88.57
321.27	53.76
321.483	84.48
321.697	133.63
321.91	47.62
322.124	84.48
322.337	-50.69
322.55	47.62
322.763	78.33
322.977	90.62
323.19	72.19
323.403	0.51
323.617	47.62
323.83	92.67
324.043	113.15
324.256	80.38
324.469	37.38
324.683	64
324.896	10.75
325.109	88.57
325.322	-32.26
325.535	102.91
325.748	25.09
325.962	123.39
326.175	-32.26
326.388	96.77
326.601	82.43
326.814	2.56
327.027	-9.73
327.24	109.05
327.453	-1.54
327.666	29.18
327.879	86.53
328.092	23.04
328.305	68.09
328.518	2.56
328.731	53.76
328.944	31.23
329.157	23.04
329.37	47.62
329.583	74.24
329.796	172.54
330.009	-32.26
330.222	47.62
330.435	96.77
330.648	55.81
330.861	47.62
331.073	64
331.286	-34.3
331.499	78.33
331.712	6.66
331.925	72.19
332.138	92.67
332.35	139.77
332.563	-3.58
332.776	125.44
332.989	6.66
333.202	-15.87
333.414	39.42
333.627	25.09
333.84	55.81
334.053	66.05
334.265	31.23
334.478	-17.92
334.691	61.95
334.903	74.24
335.116	74.24
335.329	57.86
335.541	53.76
335.754	180.73
335.966	70.14
336.179	72.19
336.392	51.71
336.604	2.56
336.817	23.04
337.029	76.29
337.242	43.52
337.454	107.01
337.667	78.33
337.88	109.05
338.092	6.66
338.305	35.33
338.517	-9.73
338.729	107.01
338.942	80.38
339.154	92.67
339.367	39.42
339.579	41.47
339.792	64
340.004	133.63
340.217	41.47
340.429	59.9
340.641	8.7
340.854	14.85
341.066	25.09
341.278	72.19
341.491	96.77
341.703	18.94
341.915	16.9
342.128	23.04
342.34	39.42
342.552	-5.63
342.764	64
342.977	-42.5
343.189	39.42
343.401	64
343.613	39.42
343.826	84.48
344.038	88.57
344.25	47.62
344.462	88.57
344.674	55.81
344.886	76.29
345.099	133.63
345.311	-3.58
345.523	27.14
345.735	-5.63
345.947	-5.63
346.159	72.19
346.371	47.62
346.583	109.05
346.795	145.92
347.007	66.05
347.219	64
347.431	41.47
347.643	25.09
347.855	47.62
348.067	84.48
348.279	64
348.491	31.23
348.703	104.96
348.915	31.23
349.127	72.19
349.339	14.85
349.551	-36.35
349.763	31.23
349.975	4.61
350.187	59.9
350.399	55.81
350.61	43.52
350.822	57.86
351.034	100.86
351.246	55.81
351.458	59.9
351.669	117.25
351.881	107.01
352.093	43.52
352.305	43.52
352.517	72.19
352.728	96.77
352.94	68.09
353.152	96.77
353.363	0.51
353.575	16.9
353.787	64
353.999	82.43
354.21	123.39
354.422	66.05
354.633	47.62
354.845	39.42
355.057	23.04
355.268	-17.92
355.48	41.47
355.692	43.52
355.903	-58.88
356.115	154.11
356.326	74.24
356.538	127.49
356.749	100.86
356.961	90.62
357.172	27.14
357.384	39.42
357.595	154.11
357.807	16.9
358.018	88.57
358.23	66.05
358.441	104.96
358.653	66.05
358.864	8.7
359.075	23.04
359.287	72.19
359.498	88.57
359.709	76.29
359.921	72.19
360.132	121.34
360.344	16.9
360.555	59.9
360.766	49.66
360.977	-9.73
361.189	84.48
361.4	113.15
361.611	82.43
361.823	109.05
362.034	88.57
362.245	47.62
362.456	10.75
362.667	-1.54
362.879	78.33
363.09	55.81
363.301	20.99
363.512	0.51
363.723	66.05
363.935	66.05
364.146	98.81
364.357	33.28
364.568	164.35
364.779	8.7
364.99	96.77
365.201	37.38
365.412	27.14
365.623	-38.4
365.834	80.38
366.045	88.57
366.256	104.96
366.467	64
366.678	47.62
366.889	59.9
367.1	25.09
367.311	104.96
367.522	41.47
367.733	98.81
367.944	137.73
368.155	-17.92
368.366	41.47
368.577	170.49
368.788	88.57
368.999	137.73
369.209	23.04
369.42	137.73
369.631	158.21
369.842	72.19
370.053	96.77
370.264	125.44
370.474	64
370.685	129.53
370.896	16.9
371.107	47.62
371.317	82.43
371.528	66.05
371.739	121.34
371.95	111.1
372.16	47.62
372.371	27.14
372.582	104.96
372.792	-1.54
373.003	84.48
373.214	104.96
373.424	82.43
373.635	66.05
373.846	125.44
374.056	92.67
374.267	41.47
374.477	27.14
374.688	-7.68
374.898	49.66
375.109	35.33
375.319	18.94
375.53	199.16
375.74	57.86
375.951	61.95
376.161	104.96
376.372	143.87
376.582	25.09
376.793	39.42
377.003	66.05
377.214	0.51
377.424	119.29
377.635	51.71
377.845	39.42
378.055	64
378.266	29.18
378.476	31.23
378.686	66.05
378.897	72.19
379.107	59.9
379.317	82.43
379.528	119.29
379.738	80.38
379.948	47.62
380.158	121.34
380.369	-15.87
380.579	70.14
380.789	27.14
380.999	41.47
381.21	139.77
381.42	115.2
381.63	98.81
381.84	66.05
382.05	88.57
382.261	94.72
382.471	98.81
382.681	78.33
382.891	90.62
383.101	64
383.311	102.91
383.521	92.67
383.731	104.96
383.941	82.43
384.151	31.23
384.361	14.85
384.571	47.62
384.781	92.67
384.991	135.68
385.201	107.01
385.411	154.11
385.621	100.86
385.831	113.15
386.041	104.96
386.251	47.62
386.461	66.05
386.671	137.73
386.881	133.63
387.091	23.04
387.301	111.1
387.511	72.19
387.72	84.48
387.93	109.05
388.14	31.23
388.35	86.53
388.56	78.33
388.769	74.24
388.979	49.66
389.189	41.47
389.399	39.42
389.609	145.92
389.818	121.34
390.028	47.62
390.238	39.42
390.447	33.28
390.657	178.69
390.867	176.64
391.076	-67.07
391.286	121.34
391.496	98.81
391.705	55.81
391.915	55.81
392.125	117.25
392.334	41.47
392.544	86.53
392.753	18.94
392.963	90.62
393.172	49.66
393.382	109.05
393.591	180.73
393.801	55.81
394.01	131.58
394.22	123.39
394.429	59.9
394.639	86.53
394.848	121.34
395.058	59.9
395.267	88.57
395.477	107.01
395.686	145.92
395.895	166.4
396.105	164.35
396.314	193.02
396.524	139.77
396.733	119.29
396.942	156.16
397.152	131.58
397.361	92.67
397.57	98.81
397.78	113.15
397.989	76.29
398.198	170.49
398.407	135.68
398.617	115.2
398.826	162.3
399.035	57.86
399.244	92.67
399.453	190.97
399.663	131.58
399.872	176.64
400.081	137.73
400.29	166.4
400.499	72.19
400.708	150.01
400.917	147.97
401.127	47.62
401.336	107.01
401.545	152.06
401.754	125.44
401.963	154.11
402.172	100.86
402.381	133.63
402.59	94.72
402.799	137.73
403.008	186.88
403.217	178.69
403.426	145.92
403.635	98.81
403.844	129.53
404.053	139.77
404.262	244.22
404.471	156.16
404.68	207.36
404.888	252.41
405.097	229.88
405.306	188.93
405.515	236.03
405.724	137.73
405.933	193.02
406.142	201.21
406.35	262.65
406.559	154.11
406.768	246.27
406.977	229.88
407.185	238.08
407.394	320
407.603	231.93
407.812	231.93
408.02	348.67
408.229	246.27
408.438	260.6
408.646	260.6
408.855	244.22
409.064	285.18
409.272	287.23
409.481	326.14
409.69	272.89
409.898	338.43
410.107	322.04
410.315	311.8
410.524	334.33
410.733	416.25
410.941	430.59
411.15	367.1
411.358	457.21
411.567	434.68
411.775	387.58
411.984	461.3
412.192	571.9
412.401	422.39
412.609	494.07
412.818	498.17
413.026	582.14
413.234	547.32
413.443	522.74
413.651	547.32
413.86	623.09
414.068	711.16
414.276	727.54
414.485	719.35
414.693	780.79
414.901	795.12
415.11	799.22
415.318	811.51
415.526	854.51
415.734	850.42
415.943	866.8
416.151	956.91
416.359	1001.97
416.567	1030.64
416.776	973.3
416.984	1028.59
417.192	1161.71
417.4	1049.07
417.608	1106.42
417.817	1141.23
418.025	1272.3
418.233	1317.36
418.441	1270.25
418.649	1352.17
418.857	1481.19
419.065	1448.43
419.273	1481.19
419.481	1442.28
419.689	1765.86
419.897	1575.4
420.105	1761.77
420.313	1694.18
420.521	1806.82
420.729	1825.25
420.937	1825.25
421.145	1958.37
421.353	2138.59
421.561	2269.66
421.769	2169.31
421.977	2284
422.185	2251.23
422.393	2460.12
422.601	2619.86
422.809	2599.38
423.017	2589.14
423.224	2750.93
423.432	2746.84
423.64	2800.09
423.848	3004.88
424.056	3021.27
424.263	3160.53
424.471	3144.14
424.679	3396.04
424.887	3459.53
425.094	3512.78
425.302	3561.93
425.51	3717.58
425.718	3703.24
425.925	3881.41
426.133	3901.89
426.341	4188.61
426.548	4405.69
426.756	4268.48
426.964	4460.99
427.171	4635.07
427.379	4751.8
427.586	4932.02
427.794	5030.32
428.001	5276.08
428.209	5478.83
428.417	5462.44
428.624	5800.36
428.832	5755.3
429.039	5691.82
429.247	5679.53
429.454	6396.32
429.662	6683.03
429.869	6367.65
430.076	6748.57
430.284	6545.82
430.491	6762.9
430.699	7240.08
430.906	7059.86
431.114	7256.47
431.321	7551.37
431.528	7682.44
431.736	7969.16
431.943	8325.5
432.15	8206.72
432.358	8319.36
432.565	9034.1
432.772	8765.82
432.979	9296.24
433.187	9308.53
433.394	9503.09
433.601	10086.76
433.808	10017.13
434.016	9961.83
434.223	10385.76
434.43	11010.39
434.637	10717.53
434.844	11622.73
435.052	11735.37
435.259	11690.32
435.466	11581.78
435.673	11360.59
435.88	12298.56
436.087	13164.86
436.294	12949.82
436.501	12742.97
436.708	12826.94
436.915	13220.15
437.122	14334.25
437.329	13953.32
437.537	14137.64
437.743	14663.97
437.95	14432.55
438.157	15034.65
438.364	15829.26
438.571	15655.19
438.778	15810.83
438.985	17254.65
439.192	16451.84
439.399	17021.18
439.606	16623.87
439.813	17731.83
440.02	18647.27
440.227	18219.24
440.433	17957.1
440.64	18708.71
440.847	18661.6
441.054	19237.08
441.261	20193.48
441.467	19904.72
441.674	20515.01
441.881	21133.5
442.088	21084.35
442.294	20754.63
442.501	21459.13
442.708	21905.59
442.914	22954.15
443.121	23402.65
443.328	23195.81
443.534	24862.85
443.741	23816.34
443.948	23578.78
444.154	25307.26
444.361	25223.3
444.568	25178.24
444.774	25155.71
444.981	25778.29
445.187	26396.78
445.394	27410.53
445.6	27256.93
445.807	29800.51
446.013	28848.2
446.22	28672.07
446.426	29919.29
446.633	30208.05
446.839	31514.66
447.046	29833.27
447.252	31461.41
447.459	31940.63
447.665	31748.12
447.871	33101.83
448.078	34398.2
448.284	32542.74
448.491	33705.98
448.697	34514.93
448.903	35512.29
449.11	35612.64
449.316	34910.19
449.522	36067.29
449.728	36333.53
449.935	37126.09
450.141	37119.95
450.347	37803.97
450.553	36327.38
450.76	37208.01
450.966	38309.82
451.172	37533.64
451.378	39083.95
451.584	37828.54
451.791	38969.26
451.997	38520.76
452.203	39507.88
452.409	39253.93
452.615	39208.87
452.821	37746.62
453.027	37513.16
453.233	39591.84
453.44	37691.33
453.646	38164.41
453.852	38246.33
454.058	39395.24
454.264	37836.73
454.47	38686.64
454.676	37580.74
454.882	39169.96
455.088	35594.21
455.294	36034.52
455.5	36624.34
455.705	37468.1
455.911	35962.84
456.117	35088.36
456.323	34492.4
456.529	32753.68
456.735	34220.02
456.941	33251.33
457.147	32759.82
457.352	31987.74
457.558	31410.21
457.764	31440.93
457.97	31139.88
458.176	30163
458.381	30019.64
458.587	28954.69
458.793	28807.24
458.999	27107.43
459.204	29245.51
459.41	28608.59
459.616	26706.02
459.821	26538.09
460.027	26411.12
460.233	26310.77
460.438	24516.75
460.644	24928.39
460.85	23998.61
461.055	23124.13
461.261	23154.85
461.466	21536.95
461.672	20840.64
461.878	22315.18
462.083	20572.36
462.289	20275.4
462.494	20203.72
462.7	19362.01
462.905	19005.66
463.111	19294.43
463.316	19769.55
463.522	18936.03
463.727	19007.71
463.932	19251.42
464.138	18759.91
464.343	18864.35
464.549	18444.52
464.754	18831.58
464.959	18815.2
465.165	18428.13
465.37	17737.97
465.575	17254.65
465.781	18045.16
465.986	18049.26
466.191	17125.63
466.397	17006.84
466.602	16234.76
466.807	16670.98
467.012	16703.75
467.218	16744.7
467.423	16439.56
467.628	16435.46
467.833	17266.94
468.038	16640.26
468.244	15773.97
468.449	16410.89
468.654	16058.63
468.859	16070.92
469.064	15962.38
469.269	15399.19
469.474	15198.49
469.679	15747.34
469.885	15339.8
470.09	15513.88
470.295	15221.02
470.5	14967.07
470.705	15137.05
470.91	14852.38
471.115	14565.67
471.32	14749.98
471.525	14831.9
471.73	14303.53
471.935	14397.73
472.139	13828.4
472.344	13863.21
472.549	13795.63
472.754	13723.95
472.959	13386.04
473.164	13236.53
473.369	13148.47
473.574	13359.41
473.778	13246.77
473.983	13056.31
474.188	13029.69
474.393	12544.32
474.598	12491.07
474.802	12413.25
475.007	12370.24
475.212	12386.63
475.417	11843.92
475.621	11915.59
475.826	11862.35
476.031	11696.46
476.235	11536.72
476.44	11675.98
476.645	11604.3
476.849	11401.55
477.054	11270.48
477.259	11145.56
477.463	11219.28
477.668	10713.44
477.872	10959.19
478.077	10854.75
478.282	10596.7
478.486	10451.3
478.691	10312.03
478.895	10561.89
479.1	10402.15
479.304	10328.42
479.509	10125.67
479.713	10256.74
479.918	10041.7
480.122	9779.56
480.326	10176.87
480.531	9847.15
480.735	9861.48
480.94	9994.6
481.144	10025.32
481.348	9720.17
481.553	9638.25
481.757	9509.23
481.961	9501.04
482.166	9746.8
482.37	9691.5
482.574	9447.79
482.778	9517.42
482.983	9599.34
483.187	9769.32
483.391	9601.39
483.595	9525.61
483.8	9347.44
484.004	9486.7
484.208	9574.77
484.412	9548.14
484.616	9638.25
484.821	9445.74
485.025	9259.38
485.229	9460.08
485.433	9402.74
485.637	9656.68
485.841	9238.9
486.045	9277.81
486.249	9455.98
486.453	9380.21
486.657	9406.83
486.861	9560.43
487.065	9247.09
487.269	9492.85
487.473	9169.27
487.677	9335.15
487.881	9562.48
488.085	9240.95
488.289	9400.69
488.493	9202.04
488.697	9554.29
488.901	9554.29
489.105	9353.59
489.309	9242.99
489.512	9503.09
489.716	9566.57
489.92	9519.47
490.124	9337.2
490.328	9628.01
490.531	9636.2
490.735	9615.73
490.939	9533.81
491.143	9464.18
491.346	9339.25
491.55	9615.73
491.754	9742.7
491.958	9777.51
492.161	9722.22
492.365	9785.71
492.569	9779.56
492.772	9714.03
492.976	10033.51
493.18	9863.53
493.383	10094.95
493.587	9824.62
493.79	10207.59
493.994	9939.3
494.197	10033.51
494.401	10191.2
494.605	10346.85
494.808	10172.77
495.012	10477.92
495.215	10377.57
495.419	10453.34
495.622	10340.71
495.825	10463.58
496.029	10643.81
496.232	10545.5
496.436	10701.15
496.639	11051.35
496.843	10959.19
497.046	10936.67
497.249	11422.03
497.453	11278.68
497.656	11323.73
497.859	11331.92
498.063	11407.7
498.266	11653.45
498.469	11723.09
498.673	11692.37
498.876	12026.18
499.079	12038.47
499.282	11815.24
499.485	12376.39
499.689	12386.63
499.892	12613.95
500.095	12775.74
500.298	12847.42
500.501	12824.89
500.705	12966.2
500.908	13179.19
501.111	13277.49
501.314	13183.29
501.517	13521.2
501.72	13625.65
501.923	13726
502.126	13979.95
502.329	14244.13
502.532	14217.51
502.735	14375.2
502.938	14496.03
503.141	14627.1
503.344	14819.61
503.547	14698.78
503.75	14915.87
503.953	15141.14
504.156	15300.89
504.359	15515.92
504.562	15382.81
504.765	15683.86
504.968	16087.31
505.17	16185.61
505.373	16181.51
505.576	16523.52
505.779	16523.52
505.982	16656.64
506.185	16861.44
506.387	16828.67
506.59	17309.94
506.793	17481.97
506.996	17541.36
507.198	17869.04
507.401	17731.83
507.604	18098.41
507.807	18401.51
508.009	18446.57
508.212	18745.57
508.415	18895.07
508.617	19011.81
508.82	19259.61
509.022	19114.2
509.225	19544.28
509.428	19878.1
509.63	19708.12
509.833	19970.26
510.035	20390.09
510.238	20281.55
510.44	20549.83
510.643	20918.46
510.845	20949.18
511.048	20963.52
511.25	21459.13
511.453	21397.69
511.655	22268.08
511.858	22077.62
512.06	22081.71
512.262	22290.6
512.465	22356.14
512.667	22577.32
512.87	22917.28
513.072	22851.75
513.274	23154.85
513.477	23509.15
513.679	23701.65
513.881	23765.14
514.084	24164.5
514.286	24559.75
514.488	24219.79
514.69	24834.18
514.893	24666.25
515.095	25251.97
515.297	25489.53
515.499	25288.83
515.701	25772.15
515.904	26151.02
516.106	26110.07
516.308	26128.5
516.51	26587.24
516.712	26597.48
516.914	27111.52
517.116	27484.25
517.318	27582.56
517.52	27211.87
517.722	27652.19
517.925	27957.33
518.127	28123.22
518.329	28401.74
518.531	28160.08
518.733	28846.15
518.935	29206.59
519.136	28952.65
519.338	29425.73
519.54	29763.64
519.742	29773.88
519.944	29896.76
520.146	30339.12
520.348	30255.15
520.55	30576.69
520.752	30355.5
520.954	31045.67
521.155	30771.24
521.357	31039.53
521.559	31406.11
521.761	31713.31
521.963	31541.28
522.164	31893.53
522.366	31756.32
522.568	32155.67
522.77	32149.53
522.971	32636.94
523.173	32581.65
523.375	32958.47
523.576	32651.28
523.778	32653.33
523.98	32679.95
524.181	33042.44
524.383	32937.99
524.584	33640.45
524.786	33593.34
524.988	33222.66
525.189	33474.56
525.391	33738.75
525.592	33964.03
525.794	34121.72
525.995	34080.76
526.197	34060.28
526.398	34113.53
526.6	34568.18
526.801	34187.25
527.003	34226.17
527.204	34277.36
527.406	34715.63
527.607	34596.85
527.808	34594.8
528.01	34154.49
528.211	34451.44
528.412	35012.59
528.614	34762.73
528.815	35194.85
529.016	34981.87
529.218	34877.42
529.419	34912.24
529.62	35123.18
529.822	34678.77
530.023	34701.29
530.224	34631.66
530.425	34992.11
530.626	34625.52
530.828	34381.81
531.029	35008.49
531.23	34756.59
531.431	34709.49
531.632	34887.66
531.833	34822.12
532.035	34639.86
532.236	34689.01
532.437	35004.39
532.638	34588.66
532.839	34592.75
533.04	34621.42
533.241	34021.37
533.442	35121.13
533.643	34451.44
533.844	34480.11
534.045	34418.67
534.246	34170.87
534.447	34717.68
534.648	34473.97
534.849	34521.07
535.05	34093.05
535.251	34084.86
535.451	34510.83
535.652	34232.31
535.853	33802.24
536.054	34260.98
536.255	34113.53
536.456	33912.83
536.657	34441.2
536.857	33994.75
537.058	33722.37
537.259	34242.55
537.46	34172.92
537.66	33832.96
537.861	34148.34
538.062	34054.14
538.263	34144.25
538.463	33740.8
538.664	33777.66
538.865	33785.85
539.065	33898.49
539.266	33421.31
539.466	34023.42
539.667	33331.2
539.868	33667.07
540.068	33624.06
540.269	33703.93
540.469	33961.98
540.67	33466.37
540.87	33607.68
541.071	33378.31
541.271	33550.34
541.472	33466.37
541.672	33200.13
541.873	32927.75
542.073	32997.38
542.274	33353.73
542.474	33247.24
542.675	33673.21
542.875	33857.53
543.075	33468.42
543.276	32638.99
543.476	33359.87
543.676	33390.59
543.877	33171.46
544.077	33226.76
544.277	33443.84
544.478	33159.17
544.678	33234.95
544.878	33101.83
545.078	33314.82
545.279	32696.33
545.479	32888.84
545.679	33210.37
545.879	33454.08
546.079	32948.23
546.28	32604.17
546.48	32661.52
546.68	33449.99
546.88	32985.1
547.08	32958.47
547.28	32931.85
547.48	33116.17
547.68	33095.69
547.88	32768.01
548.081	33277.96
548.281	33191.94
548.481	33087.5
548.681	33392.64
548.881	32804.88
549.081	33015.82
549.28	32933.9
549.48	33040.39
549.68	33103.88
549.88	33529.86
550.08	32700.43
550.28	33030.15
550.48	33122.31
550.68	33083.4
550.88	33013.77
551.08	32894.99
551.279	32929.8
551.479	32950.28
551.679	33153.03
551.879	33079.3
552.079	33267.72
552.278	33124.36
552.478	33120.26
552.678	33161.22
552.878	33671.17
553.077	33325.06
553.277	32645.13
553.477	33748.99
553.676	32999.43
553.876	33402.88
554.076	33220.61
554.275	33150.98
554.475	32804.88
554.674	33382.4
554.874	33187.85
555.074	33110.02
555.273	33523.71
555.473	33542.14
555.672	33198.09
555.872	33263.62
556.071	33419.27
556.271	33404.93
556.47	33460.23
556.67	32974.86
556.869	33306.63
557.068	33376.26
557.268	33097.73
557.467	33347.59
557.667	33257.48
557.866	33187.85
558.065	33255.43
558.265	33290.24
558.464	33167.37
558.663	33597.44
558.863	33003.53
559.062	33650.69
559.261	33169.41
559.461	33589.25
559.66	32845.83
559.859	33345.54
560.058	33146.89
560.258	33564.67
560.457	32823.31
560.656	33193.99
560.855	33153.03
561.054	33312.77
561.253	32804.88
561.453	33208.33
561.652	33462.27
561.851	33226.76
562.05	33130.5
562.249	32618.51
562.448	33357.83
562.647	33107.97
562.846	33009.67
563.045	33484.8
563.244	32757.77
563.443	33439.75
563.642	33177.61
563.841	33632.25
564.04	33105.93
564.239	33378.31
564.438	32835.59
564.637	33193.99
564.836	33013.77
565.035	32376.85
565.234	33052.68
565.432	32317.46
565.631	32856.07
565.83	32798.73
566.029	32731.15
566.228	32837.64
566.427	32552.98
566.625	32450.58
566.824	32716.81
567.023	33030.15
567.222	32192.53
567.42	32411.67
567.619	32610.32
567.818	32469.01
568.016	32798.73
568.215	32258.07
568.414	32129.05
568.612	32307.22
568.811	32380.95
569.01	32163.86
569.208	31623.2
569.407	32374.8
569.605	32012.31
569.804	32184.34
570.002	31948.82
570.201	31744.03
570.4	31666.2
570.598	31592.48
570.797	31356.96
570.995	31494.18
571.193	31205.41
571.392	31637.53
571.59	31465.5
571.789	31391.78
571.987	30976.04
572.186	30933.03
572.384	30949.42
572.582	31240.23
572.781	30804.01
572.979	30281.78
573.177	30664.75
573.376	30914.6
573.574	30763.05
573.772	30711.85
573.971	30574.64
574.169	30322.74
574.367	30251.06
574.565	30646.32
574.763	30201.91
574.962	30302.26
575.16	29904.95
575.358	29876.28
575.556	29573.18
575.754	30234.67
575.952	29429.82
576.151	29743.16
576.349	29368.38
576.547	29354.05
576.745	29454.4
576.943	29567.04
577.141	29403.2
577.339	29597.76
577.537	29349.95
577.735	28895.3
577.933	28915.78
578.131	29048.9
578.329	29237.31
578.527	28428.37
578.725	28872.78
578.923	29114.44
579.121	28627.02
579.319	28674.12
579.516	28684.36
579.714	28561.48
579.912	28342.35
580.11	28360.78
580.308	28133.46
580.506	28047.44
580.704	27766.87
580.901	28061.78
581.099	28280.91
581.297	27623.51
581.495	27850.84
581.692	28125.27
581.89	27433.05
582.088	27662.43
582.285	27637.85
582.483	27486.3
582.681	27336.8
582.878	27377.76
583.076	27230.3
583.274	27361.37
583.471	27418.72
583.669	27281.5
583.866	26994.79
584.064	27076.71
584.262	26810.47
584.459	27015.27
584.657	26955.88
584.854	27232.35
585.052	26366.06
585.249	26789.99
585.447	26787.94
585.644	26341.49
585.841	26452.08
586.039	27105.38
586.236	26273.9
586.434	25944.18
586.631	26230.9
586.828	26122.35
587.026	26321.01
587.223	25927.8
587.42	26255.47
587.618	26191.98
587.815	25895.03
588.012	25921.65
588.21	25802.87
588.407	26065.01
588.604	25745.53
588.801	25962.61
588.999	25852.02
589.196	25557.11
589.393	25761.91
589.59	25446.52
589.787	25268.35
589.984	25405.56
590.182	25055.36
590.379	25299.07
590.576	25147.52
590.773	25428.09
590.97	24862.85
591.167	25348.22
591.364	25018.5
591.561	25159.81
591.758	24852.61
591.955	24664.2
592.152	25008.26
592.349	24750.21
592.546	25051.27
592.743	24651.91
592.94	24328.33
593.137	24518.79
593.334	24557.71
593.531	24002.71
593.727	24596.62
593.924	24510.6
594.121	23945.36
594.318	24365.2
594.515	24139.92
594.712	24359.05
594.908	24006.8
595.105	24471.69
595.302	24197.26
595.499	24109.2
595.696	24094.86
595.892	24012.95
596.089	24041.62
596.286	23945.36
596.482	24062.1
596.679	24158.35
596.876	23963.79
597.072	24051.86
597.269	23924.88
597.466	23935.12
597.662	23644.31
597.859	23560.34
598.055	23873.68
598.252	23793.81
598.448	23617.69
598.645	23787.67
598.841	23589.02
599.038	23830.68
599.234	23888.02
599.431	23441.56
599.627	23632.02
599.824	23855.25
600.02	23476.38
600.217	23935.12
600.413	23787.67
600.609	23580.82
600.806	23320.73
601.002	23754.9
601.198	23750.81
601.395	23572.63
601.591	23459.99
601.787	23724.18
601.984	23539.86
602.18	23838.87
602.376	23503
602.572	23433.37
602.769	23730.33
602.965	23507.1
603.161	23394.46
603.357	23623.83
603.553	23658.65
603.75	23951.51
603.946	23474.33
604.142	23883.92
604.338	23482.52
604.534	23464.09
604.73	23566.49
604.926	23808.15
605.122	23967.89
605.318	23517.34
605.514	23859.35
605.71	23586.97
605.906	24012.95
606.102	24027.28
606.298	24025.23
606.494	24012.95
606.69	23857.3
606.886	23687.32
607.082	23896.21
607.278	23931.03
607.474	23648.41
607.67	23976.08
607.866	23591.06
608.062	24258.7
608.257	24101.01
608.453	24033.43
608.649	24299.66
608.845	23808.15
609.041	24129.68
609.236	24215.69
609.432	24051.86
609.628	24481.93
609.824	24408.2
610.019	24150.16
610.215	24410.25
610.411	24217.74
610.606	24113.3
610.802	24397.96
610.998	24449.16
611.193	24473.74
611.389	24352.91
611.584	24615.05
611.78	24533.13
611.976	24477.83
612.171	24699.02
612.367	24565.9
612.562	24656.01
612.758	24252.56
612.953	24268.94
613.149	24774.79
613.344	24713.35
613.539	24852.61
613.735	24899.72
613.93	24543.37
614.126	24541.32
614.321	24739.97
614.517	24856.71
614.712	24791.17
614.907	24266.89
615.103	24782.98
615.298	24631.43
615.493	24895.62
615.688	24524.94
615.884	25065.6
616.079	24586.38
616.274	24821.89
616.47	24989.83
616.665	24912
616.86	24721.54
617.055	24912
617.25	24619.14
617.445	24957.06
617.641	24379.53
617.836	25045.12
618.031	24260.75
618.226	24588.42
618.421	24574.09
618.616	24729.73
618.811	24529.03
619.006	24580.23
619.201	23752.85
619.396	24502.41
619.591	24025.23
619.786	24086.67
619.981	23779.48
620.176	24524.94
620.371	23810.2
620.566	23890.07
620.761	23736.47
620.956	23890.07
621.151	23746.71
621.346	23980.18
621.541	23234.72
621.735	23781.53
621.93	23191.71
622.125	23503
622.32	23044.26
622.515	22935.71
622.709	22954.15
622.904	23107.74
623.099	22771.88
623.294	23158.94
623.488	22700.2
623.683	22698.15
623.878	22616.23
624.072	22483.11
624.267	22380.71
624.462	22360.23
624.656	22100.14
624.851	21969.07
625.046	22341.8
625.24	21764.28
625.435	21469.37
625.629	21608.63
625.824	21414.07
626.018	21579.96
626.213	21123.26
626.407	21266.62
626.602	20830.4
626.796	21237.95
626.991	21047.49
627.185	21094.59
627.38	20715.72
627.574	20943.04
627.768	20465.86
627.963	20691.14
628.157	20373.71
628.352	20342.99
628.546	20277.45
628.74	20175.05
628.935	19939.54
629.129	20197.58
629.323	19902.67
629.517	19845.33
629.712	19517.65
629.906	19833.04
630.1	19378.39
630.294	19552.47
630.489	19460.31
630.683	19355.86
630.877	19118.3
631.071	18798.82
631.265	19050.72
631.459	18860.26
631.653	18743.52
631.848	18718.95
632.042	18700.51
632.236	18585.83
632.43	18548.96
632.624	18368.74
632.818	18256.11
633.012	18137.32
633.206	17957.1
633.4	18129.13
633.594	17996.01
633.788	17948.91
633.982	18010.35
634.176	17776.88
634.369	17512.69
634.563	17344.76
634.757	17406.2
634.951	17666.29
635.145	17316.09
635.339	17291.51
635.533	16996.6
635.726	17121.53
635.92	16795.9
636.114	17017.08
636.308	16644.35
636.501	16621.83
636.695	16531.72
636.889	16474.37
637.083	16453.89
637.276	16390.41
637.47	16328.97
637.664	15972.62
637.857	16234.76
638.051	16204.04
638.244	15827.21
638.438	15702.29
638.632	15714.58
638.825	15739.15
639.019	15374.61
639.212	15442.2
639.406	15556.88
639.599	15448.34
639.793	15034.65
639.986	14940.44
640.18	15132.95
640.373	14979.36
640.567	14838.05
640.76	14809.37
640.954	14471.46
641.147	14743.84
641.34	14530.85
641.534	14696.74
641.727	14260.52
641.92	14375.2
642.114	14158.12
642.307	14231.85
642.5	14133.54
642.694	14010.67
642.887	13941.04
643.08	13699.37
643.273	13572.4
643.467	13607.22
643.66	13463.86
643.853	13343.03
644.046	13107.51
644.239	13105.46
644.432	13326.64
644.626	12945.72
644.819	13115.7
645.012	13138.23
645.205	13015.35
645.398	12695.87
645.591	12548.42
645.784	12798.27
645.977	12728.64
646.17	12505.41
646.363	12480.83
646.556	12413.25
646.749	12378.44
646.942	12271.94
647.135	12165.45
647.328	12091.72
647.521	11884.87
647.714	11864.39
647.907	11772.24
648.099	11721.04
648.292	11911.5
648.485	11714.89
648.678	11487.57
648.871	11477.33
649.064	11557.2
649.256	11491.66
649.449	11340.11
649.642	11086.17
649.835	11325.78
650.027	11006.3
650.22	11204.95
650.413	11192.66
650.605	11082.07
650.798	10821.98
650.991	10854.75
651.183	10885.47
651.376	10768.73
651.568	10891.61
651.761	10617.18
651.954	10600.8
652.146	10484.06
652.339	10594.65
652.531	10377.57
652.724	10385.76
652.916	10094.95
653.109	10324.32
653.301	10004.84
653.494	10166.63
653.686	9920.87
653.879	10060.13
654.071	9945.45
654.263	9881.96
654.456	9994.6
654.648	10047.85
654.84	9671.02
655.033	9730.41
655.225	9527.66
655.417	9542
655.61	9623.92
655.802	9564.53
655.994	9382.26
656.186	9300.34
656.379	9501.04
656.571	9333.11
656.763	9435.5
656.955	9202.04
657.148	9398.64
657.34	9118.07
657.532	9107.83
657.724	9009.53
657.916	8868.22
658.108	8843.64
658.3	8886.65
658.492	8864.12
658.684	8837.5
658.876	8567.17
659.068	8651.13
659.26	8620.41
659.452	8583.55
659.644	8558.97
659.836	8501.63
660.028	8374.66
660.22	8366.46
660.412	8372.61
660.604	8202.63
660.796	8290.69
660.988	8192.39
661.18	8159.62
661.372	8063.36
661.563	8153.48
661.755	7913.86
661.947	7952.77
662.139	7971.21
662.331	7854.47
662.522	7676.3
662.714	7862.66
662.906	7629.2
663.097	7682.44
663.289	7561.61
663.481	7590.28
663.673	7727.5
663.864	7354.77
664.056	7496.08
664.247	7514.51
664.439	7338.38
664.631	7418.25
664.822	7354.77
665.014	7322
665.205	7143.83
665.397	7205.27
665.588	7051.67
665.78	7072.15
665.971	7094.68
666.163	7223.7
666.354	7139.73
666.546	7010.71
666.737	6848.92
666.929	6957.46
667.12	7010.71
667.311	6936.98
667.503	6769.05
667.694	6777.24
667.885	6760.86
668.077	6814.1
668.268	6590.88
668.459	6617.5
668.651	6613.4
668.842	6705.56
669.033	6445.47
669.224	6455.71
669.416	6492.57
669.607	6470.05
669.798	6400.41
669.989	6365.6
670.18	6396.32
670.371	6341.02
670.563	6320.54
670.754	6363.55
670.945	6285.73
671.136	6300.06
671.327	6195.62
671.518	6185.38
671.709	6281.63
671.9	6244.77
672.091	6152.61
672.282	6183.33
672.473	6140.32
672.664	6031.78
672.855	6232.48
673.046	6066.6
673.237	5953.96
673.428	5994.92
673.619	5953.96
673.809	6050.21
674	5847.46
674.191	5894.57
674.382	5814.7
674.573	5925.29
674.764	5773.74
674.954	5915.05
675.145	5898.66
675.336	5804.46
675.527	5700.01
675.717	5872.04
675.908	5691.82
676.099	5808.55
676.289	5693.87
676.48	5493.16
676.671	5525.93
676.861	5669.29
677.052	5620.14
677.243	5593.51
677.433	5585.32
677.624	5648.81
677.814	5519.79
678.005	5511.6
678.195	5489.07
678.386	5587.37
678.576	5489.07
678.767	5470.64
678.957	5396.91
679.148	5505.45
679.338	5433.77
679.529	5366.19
679.719	5396.91
679.909	5511.6
680.1	5355.95
680.29	5298.61
680.481	5429.68
680.671	5568.94
680.861	5431.73
681.052	5372.33
681.242	5339.57
681.432	5450.16
681.622	5413.29
681.813	5265.84
682.003	5314.99
682.193	5212.59
682.383	5413.29
682.573	5401.01
682.764	5355.95
682.954	5249.46
683.144	5380.53
683.334	5226.93
683.524	5280.18
683.714	5257.65
683.904	5122.48
684.094	5155.25
684.284	5159.35
684.474	5167.54
684.664	5274.03
684.854	5128.63
685.044	5269.94
685.234	5102
685.424	5155.25
685.614	5218.74
685.804	4999.6
685.994	5044.66
686.184	5194.16
686.374	5153.2
686.564	5259.7
686.753	5104.05
686.943	5011.89
687.133	5069.23
687.323	4977.08
687.513	5102
687.702	5007.8
687.892	4954.55
688.082	4964.79
688.272	4983.22
688.461	4866.49
688.651	5046.71
688.841	4749.75
689.03	4905.4
689.22	4848.05
689.41	4977.08
689.599	4880.82
689.789	4852.15
689.979	4774.33
690.168	4770.23
690.358	4940.21
690.547	4901.3
690.737	4917.68
690.926	4874.68
691.116	4669.88
691.305	4741.56
691.495	4684.22
691.684	4651.45
691.874	4729.27
692.063	4667.83
692.252	4628.92
692.442	4585.91
692.631	4678.07
692.82	4618.68
693.01	4592.06
693.199	4604.35
693.388	4520.38
693.578	4483.52
693.767	4594.11
693.956	4467.13
694.146	4426.17
694.335	4547
694.524	4639.16
694.713	4549.05
694.902	4526.52
695.092	4481.47
695.281	4385.21
695.47	4471.23
695.659	4422.08
695.848	4233.66
696.037	4483.52
696.226	4323.77
696.415	4432.32
696.604	4327.87
696.793	4323.77
696.982	4315.58
697.171	4331.97
697.36	4389.31
697.549	4325.82
697.738	4299.2
697.927	4350.4
698.116	4424.12
698.305	4307.39
698.494	4282.81
698.683	4340.16
698.872	4422.08
699.061	4102.59
699.25	4082.11
699.438	4291.01
699.627	4180.42
699.816	4159.94
700.005	4239.81
700.193	4211.14
700.382	4342.21
700.571	4153.79
700.76	4174.27
700.948	4137.41
701.137	4159.94
701.326	4168.13
701.514	4143.55
701.703	4194.75
701.892	4209.09
702.08	4071.87
702.269	4065.73
702.457	3967.43
702.646	4065.73
702.834	3924.42
703.023	4078.02
703.212	4012.48
703.4	4094.4
703.589	3795.4
703.777	3963.33
703.965	3971.52
704.154	4010.43
704.342	3938.76
704.531	3856.84
704.719	3946.95
704.907	3887.56
705.096	3889.6
705.284	3758.53
705.472	3813.83
705.661	3686.86
705.849	3922.37
706.037	3758.53
706.226	3865.03
706.414	3869.12
706.602	3746.25
706.79	3865.03
706.979	3762.63
707.167	3709.38
707.355	3633.61
707.543	3766.73
707.731	3787.21
707.919	3754.44
708.107	3684.81
708.296	3615.18
708.484	3606.98
708.672	3582.41
708.86	3707.34
709.048	3666.38
709.236	3463.63
709.424	3566.03
709.612	3516.87
709.8	3639.75
709.988	3500.49
710.176	3467.72
710.364	3545.55
710.551	3576.27
710.739	3561.93
710.927	3576.27
711.115	3590.6
711.303	3672.52
711.491	3520.97
711.679	3326.41
711.866	3303.89
712.054	3461.58
712.242	3404.24
712.43	3473.87
712.617	3353.04
712.805	3389.9
712.993	3307.98
713.181	3344.84
713.368	3258.83
713.556	3348.94
713.744	3275.21
713.931	3437
714.119	3234.25
714.306	3371.47
714.494	3293.65
714.682	3185.1
714.869	3019.22
715.057	3318.22
715.244	3293.65
715.432	3316.17
715.619	3209.68
715.807	3135.95
715.994	3119.57
716.182	3230.16
716.369	3267.02
716.556	3115.47
716.744	3054.03
716.931	3097.04
717.119	3195.34
717.306	3039.7
717.493	3185.1
717.681	3162.58
717.868	3072.47
718.055	3047.89
718.242	3105.23
718.43	3162.58
718.617	3015.12
718.804	2968.02
718.991	3054.03
719.179	3015.12
719.366	2980.31
719.553	2996.69
719.74	2920.92
719.927	3006.93
720.114	2961.87
720.301	2970.07
720.488	2888.15
720.676	2873.81
720.863	2937.3
721.05	3037.65
721.237	2824.66
721.424	2955.73
721.611	2873.81
721.798	2914.77
721.985	2851.28
722.172	2810.33
722.358	2841.04
722.545	2857.43
722.732	2798.04
722.919	2820.56
723.106	2859.48
723.293	2775.51
723.48	2898.39
723.667	2798.04
723.853	2728.41
724.04	2755.03
724.227	2742.74
724.414	2755.03
724.6	2806.23
724.787	2791.89
724.974	2709.97
725.161	2611.67
725.347	2689.49
725.534	2703.83
725.72	2730.45
725.907	2675.16
726.094	2662.87
726.28	2623.96
726.467	2677.21
726.653	2699.73
726.84	2562.52
727.027	2677.21
727.213	2529.75
727.4	2587.1
727.586	2472.41
727.773	2703.83
727.959	2580.95
728.145	2589.14
728.332	2535.9
728.518	2464.22
728.705	2509.27
728.891	2460.12
729.077	2623.96
729.264	2484.7
729.45	2591.19
729.636	2572.76
729.823	2439.64
730.009	2568.66
730.195	2402.78
730.382	2431.45
730.568	2449.88
730.754	2490.84
730.94	2396.64
731.126	2492.89
731.313	2474.46
731.499	2480.6
731.685	2578.9
731.871	2349.53
732.057	2441.69
732.243	2370.01
732.429	2257.37
732.615	2441.69
732.801	2292.19
732.987	2349.53
733.173	2388.44
733.359	2505.18
733.545	2443.74
733.731	2288.09
733.917	2279.9
734.103	2273.76
734.289	2324.96
734.475	2226.65
734.661	2331.1
734.847	2300.38
735.033	2255.33
735.219	2308.57
735.404	2251.23
735.59	2376.16
735.776	2218.46
735.962	2212.32
736.148	2316.76
736.333	2269.66
736.519	2269.66
736.705	2189.79
736.89	2179.55
737.076	2195.93
737.262	2163.17
737.447	2218.46
737.633	2177.5
737.819	2210.27
738.004	2195.93
738.19	2124.26
738.375	2128.35
738.561	2243.04
738.747	2140.64
738.932	2050.53
739.118	2150.88
739.303	2140.64
739.489	2097.63
739.674	2007.52
739.859	2062.82
740.045	2138.59
740.23	2028
740.416	1941.99
740.601	1989.09
740.786	2089.44
740.972	1843.68
741.157	2161.12
741.342	1997.28
741.528	1939.94
741.713	1980.9
741.898	2046.43
742.084	1898.98
742.269	2025.95
742.454	1915.36
742.639	1956.32
742.824	1964.51
743.01	2015.71
743.195	2001.38
743.38	1927.65
743.565	1841.64
743.75	1858.02
743.935	1853.92
744.12	1993.19
744.305	1769.96
744.49	1829.35
744.675	1821.16
744.86	1907.17
745.045	1808.87
745.23	1843.68
745.415	1763.81
745.6	1853.92
745.785	1810.92
745.97	1927.65
746.155	1794.53
746.34	1776.1
746.525	1858.02
746.71	1782.24
746.895	1720.81
747.079	1673.7
747.264	1700.33
747.449	1628.65
747.634	1790.44
747.819	1583.59
748.003	1589.74
748.188	1694.18
748.373	1669.61
748.557	1608.17
748.742	1612.26
748.927	1655.27
749.111	1587.69
749.296	1591.78
749.481	1718.76
749.665	1667.56
749.85	1565.16
750.034	1630.7
750.219	1563.11
750.404	1487.34
750.588	1587.69
750.773	1417.71
750.957	1509.86
751.141	1559.02
751.326	1536.49
751.51	1473
751.695	1491.43
751.879	1448.43
752.064	1458.67
752.248	1362.41
752.432	1503.72
752.617	1450.47
752.801	1485.29
752.985	1403.37
753.17	1399.27
753.354	1419.75
753.538	1389.03
753.722	1280.49
753.907	1399.27
754.091	1270.25
754.275	1309.16
754.459	1391.08
754.643	1231.34
754.828	1329.64
755.012	1366.51
755.196	1286.64
755.38	1290.73
755.564	1268.2
755.748	1229.29
755.932	1405.42
756.116	1255.92
756.3	1147.37
756.484	1327.6
756.668	1233.39
756.852	1114.61
757.036	1206.77
757.22	1128.94
757.404	1110.51
757.588	1174
757.772	1163.76
757.956	1055.22
758.14	1276.4
758.323	1124.85
758.507	1206.77
758.691	1223.15
758.875	1073.65
759.059	1151.47
759.242	1137.13
759.426	1112.56
759.61	1042.93
759.794	1102.32
759.977	1133.04
760.161	1182.19
760.345	1155.57
760.528	1147.37
760.712	1049.07
760.895	1063.41
761.079	1063.41
761.263	1092.08
761.446	1044.98
761.63	926.19
761.813	1126.89
761.997	1098.22
762.18	983.54
762.364	1022.45
762.547	915.95
762.731	991.73
762.914	1016.3
763.098	918
763.281	907.76
763.464	926.19
763.648	977.39
763.831	932.34
764.015	932.34
764.198	1055.22
764.381	885.23
764.564	1008.11
764.748	997.87
764.931	973.3
765.114	981.49
765.297	1006.06
765.481	940.53
765.664	899.57
765.847	999.92
766.03	948.72
766.213	879.09
766.397	903.67
766.58	926.19
766.763	965.11
766.946	991.73
767.129	874.99
767.312	762.36
767.495	848.37
767.678	866.8
767.861	848.37
768.044	797.17
768.227	862.71
768.41	838.13
768.593	825.84
768.776	893.43
768.959	834.04
769.142	870.9
769.324	852.47
769.507	844.28
769.69	825.84
769.873	795.12
770.056	911.86
770.239	784.88
770.421	887.28
770.604	813.56
770.787	727.54
770.97	819.7
771.152	834.04
771.335	862.71
771.518	711.16
771.7	803.32
771.883	915.95
772.066	770.55
772.248	903.67
772.431	735.73
772.613	936.43
772.796	688.63
772.978	809.46
773.161	745.97
773.343	752.12
773.526	729.59
773.708	711.16
773.891	666.1
774.073	725.49
774.256	674.29
774.438	735.73
774.621	766.45
774.803	713.21
774.985	702.97
775.168	680.44
775.35	719.35
775.532	772.6
775.715	688.63
775.897	702.97
776.079	633.33
776.261	743.92
776.444	662.01
776.626	672.25
776.808	629.24
776.99	553.46
777.173	596.47
777.355	680.44
777.537	645.62
777.719	641.53
777.901	600.57
778.083	604.66
778.265	619
778.447	639.48
778.629	588.28
778.811	602.61
778.993	625.14
779.175	705.01
779.357	651.77
779.539	524.79
779.721	600.57
779.903	604.66
780.085	694.77
780.267	557.56
780.449	543.22
780.631	592.37
780.812	555.51
780.994	496.12
781.176	606.71
781.358	508.41
781.54	625.14
781.721	565.75
781.903	575.99
782.085	547.32
782.267	510.46
782.448	522.74
782.63	532.98
782.812	506.36
782.993	530.94
783.175	547.32
783.357	475.64
783.538	541.18
783.72	473.59
783.901	516.6
784.083	465.4
784.264	457.21
784.446	498.17
784.627	459.26
784.809	469.5
784.99	475.64
785.172	485.88
785.353	467.45
785.535	522.74
785.716	467.45
785.897	492.02
786.079	469.5
786.26	420.35
786.441	426.49
786.623	408.06
786.804	432.63
786.985	432.63
787.167	512.5
787.348	383.48
787.529	399.87
787.71	408.06
787.891	385.53
788.073	420.35
788.254	399.87
788.435	489.98
788.616	426.49
788.797	301.56
788.978	358.91
789.159	395.77
789.34	385.53
789.522	408.06
789.703	401.91
789.884	352.76
790.065	375.29
790.246	395.77
790.427	432.63
790.607	426.49
790.788	397.82
790.969	377.34
791.15	442.87
791.331	363
791.512	389.63
791.693	252.41
791.874	342.52
792.054	367.1
792.235	391.67
792.416	293.37
792.597	317.95
792.778	358.91
792.958	276.99
793.139	348.67
793.32	317.95
793.5	293.37
793.681	338.43
793.862	334.33
794.042	293.37
794.223	276.99
794.404	354.81
794.584	322.04
794.765	363
794.945	264.7
795.126	334.33
795.306	326.14
795.487	293.37
795.667	229.88
795.848	354.81
796.028	320
796.209	213.5
796.389	367.1
796.57	301.56
796.75	260.6
796.93	268.8
797.111	276.99
797.291	219.64
797.471	360.95
797.652	219.64
797.832	336.38
798.012	309.76
798.192	236.03
798.373	295.42
798.553	287.23
798.733	195.07
798.913	158.21
799.093	281.08
799.274	168.45
799.454	317.95
799.634	352.76
799.814	231.93
799.994	244.22
800.174	350.71
800.354	279.04
800.534	219.64
800.714	268.8
800.894	199.16
801.074	236.03
801.254	133.63
801.434	285.18
801.614	199.16
801.794	178.69
801.974	891.38
802.154	188.93
802.334	276.99
802.514	137.73
802.693	338.43
802.873	197.12
803.053	299.52
803.233	270.84
803.413	186.88
803.592	231.93
803.772	262.65
803.952	203.26
804.131	227.84
804.311	156.16
804.491	264.7
804.67	186.88
804.85	219.64
805.03	256.51
805.209	246.27
805.389	213.5
805.568	178.69
805.748	242.17
805.928	190.97
806.107	88.57
806.287	147.97
806.466	213.5
806.646	203.26
806.825	199.16
807.004	211.45
807.184	244.22
807.363	287.23
807.543	154.11
807.722	203.26
807.901	184.83
808.081	160.25
808.26	113.15
808.439	123.39
808.619	238.08
808.798	109.05
808.977	190.97
809.156	276.99
809.336	80.38
809.515	231.93
809.694	231.93
809.873	182.78
810.052	223.74
810.231	180.73
810.411	156.16
810.59	250.36
810.769	172.54
810.948	137.73
811.127	96.77
811.306	121.34
811.485	170.49
811.664	180.73
811.843	203.26
812.022	104.96
812.201	152.06
812.38	150.01
812.559	125.44
812.737	223.74
812.916	129.53
813.095	131.58
813.274	119.29
813.453	215.55
813.632	123.39
813.811	231.93
813.989	72.19
814.168	137.73
814.347	49.66
814.526	164.35
814.704	141.82
814.883	227.84
815.062	92.67
815.24	211.45
815.419	49.66
815.598	133.63
815.776	55.81
815.955	154.11
816.133	49.66
816.312	178.69
816.49	51.71
816.669	162.3
816.847	211.45
817.026	176.64
817.204	137.73
817.383	137.73
817.561	115.2
817.74	107.01
817.918	98.81
818.097	107.01
818.275	119.29
818.453	125.44
818.632	182.78
818.81	78.33
818.988	162.3
819.167	174.59
819.345	117.25
819.523	141.82
819.701	121.34
819.879	147.97
820.058	49.66
820.236	162.3
820.414	158.21
820.592	104.96
820.77	80.38
820.948	127.49
821.127	115.2
821.305	201.21
821.483	100.86
821.661	129.53
821.839	115.2
822.017	-26.11
822.195	107.01
822.373	115.2
822.551	64
822.729	115.2
822.907	154.11
823.085	145.92
823.262	156.16
823.44	59.9
823.618	129.53
823.796	178.69
823.974	82.43
824.152	98.81
824.329	72.19
824.507	84.48
824.685	137.73
824.863	31.23
825.04	47.62
825.218	123.39
825.396	84.48
825.574	92.67
825.751	119.29
825.929	139.77
826.107	109.05
826.284	104.96
826.462	131.58
826.639	64
826.817	14.85
826.994	90.62
827.172	80.38
827.349	178.69
827.527	107.01
827.704	84.48
827.882	111.1
828.059	98.81
828.237	35.33
828.414	59.9
828.591	45.57
828.769	123.39
828.946	102.91
829.124	125.44
829.301	139.77
829.478	96.77
829.655	16.9
829.833	86.53
830.01	80.38
830.187	43.52
830.364	16.9
830.542	64
830.719	98.81
830.896	41.47
831.073	109.05
831.25	133.63
831.427	150.01
831.604	84.48
831.782	14.85
831.959	31.23
832.136	47.62
832.313	111.1
832.49	113.15
832.667	53.76
832.844	109.05
833.021	154.11
833.198	104.96
833.374	43.52
833.551	104.96
833.728	33.28
833.905	88.57
834.082	37.38
834.259	88.57
834.436	121.34
834.612	88.57
834.789	68.09
834.966	59.9
835.143	115.2
835.319	55.81
835.496	80.38
835.673	29.18
835.85	82.43
836.026	64
836.203	104.96
836.38	76.29
836.556	29.18
836.733	41.47
836.909	88.57
837.086	70.14
837.262	14.85
837.439	64
837.616	72.19
837.792	104.96
837.968	96.77
838.145	49.66
838.321	92.67
838.498	49.66
838.674	119.29
838.851	66.05
839.027	51.71
839.203	31.23
839.38	125.44
839.556	10.75
839.732	123.39
839.909	18.94
840.085	88.57
840.261	102.91
840.437	6.66
840.614	10.75
840.79	59.9
840.966	92.67
841.142	82.43
841.318	72.19
841.494	76.29
841.671	121.34
841.847	76.29
842.023	49.66
842.199	6.66
842.375	96.77
842.551	20.99
842.727	18.94
842.903	104.96
843.079	39.42
843.255	107.01
843.431	0.51
843.607	59.9
843.783	27.14
843.959	49.66
844.134	2.56
844.31	145.92
844.486	55.81
844.662	31.23
844.838	-26.11
845.013	39.42
845.189	61.95
845.365	72.19
845.541	33.28
845.716	57.86
845.892	145.92
846.068	47.62
846.244	-19.97
846.419	14.85
846.595	37.38
846.77	33.28
846.946	80.38
847.122	55.81
847.297	29.18
847.473	43.52
847.648	47.62
847.824	92.67
847.999	-1.54
848.175	31.23
848.35	92.67
848.526	129.53
848.701	39.42
848.876	41.47
849.052	145.92
849.227	10.75
849.403	51.71
849.578	66.05
849.753	39.42
849.929	59.9
850.104	47.62
850.279	92.67
850.454	125.44
850.63	23.04
850.805	49.66
850.98	6.66
851.155	12.8
851.33	18.94
851.505	55.81
851.681	18.94
851.856	-7.68
852.031	64
852.206	23.04
852.381	16.9
852.556	43.52
852.731	86.53
852.906	64
853.081	90.62
853.256	195.07
853.431	55.81
853.606	27.14
853.781	55.81
853.956	-22.02
854.131	59.9
854.305	-11.78
854.48	20.99
854.655	78.33
854.83	-15.87
855.005	31.23
855.18	14.85
855.354	23.04
855.529	80.38
855.704	72.19
855.879	6.66
856.053	-9.73
856.228	55.81
856.403	-30.21
856.577	55.81
856.752	-13.82
856.926	98.81
857.101	39.42
857.276	41.47
857.45	25.09
857.625	43.52
857.799	55.81
857.974	109.05
858.148	-26.11
858.323	64
858.497	-36.35
858.672	51.71
858.846	-17.92
859.02	-7.68
859.195	68.09
859.369	-32.26
859.543	45.57
859.718	33.28
859.892	39.42
860.066	113.15
860.241	68.09
860.415	33.28
860.589	66.05
860.763	43.52
860.938	72.19
861.112	68.09
861.286	25.09
861.46	29.18
861.634	51.71
861.808	70.14
861.982	55.81
862.157	49.66
862.331	49.66
862.505	12.8
862.679	-13.82
862.853	6.66
863.027	-13.82
863.201	154.11
863.375	-26.11
863.549	82.43
863.722	31.23
863.896	10.75
864.07	-17.92
864.244	-73.21
864.418	49.66
864.592	88.57
864.766	-30.21
864.939	64
865.113	25.09
865.287	2.56
865.461	16.9
865.634	47.62
865.808	14.85
865.982	6.66
866.156	-1.54
866.329	10.75
866.503	18.94
866.676	-30.21
866.85	-3.58
867.024	64
867.197	51.71
867.371	96.77
867.544	6.66
867.718	-15.87
867.891	27.14
868.065	-15.87
868.238	35.33
868.412	133.63
868.585	78.33
868.759	-1.54
868.932	-17.92
869.105	-50.69
869.279	2.56
869.452	41.47
869.625	57.86
869.799	96.77
869.972	25.09
870.145	59.9
870.319	16.9
870.492	-22.02
870.665	33.28
870.838	-1.54
871.011	-81.41
871.185	6.66
871.358	27.14
871.531	55.81
871.704	37.38
871.877	0.51
872.05	-56.83
872.223	0.51
872.396	6.66
872.569	43.52
872.742	-42.5
872.915	39.42
873.088	29.18
873.261	-7.68
873.434	107.01
873.607	14.85
873.78	55.81
873.953	-1.54
874.126	-7.68
874.299	0.51
874.471	-73.21
874.644	41.47
874.817	27.14
874.99	96.77
875.163	-48.64
875.335	113.15
875.508	64
875.681	96.77
875.853	-60.93
876.026	25.09
876.199	-17.92
876.371	43.52
876.544	27.14
876.717	25.09
876.889	6.66
877.062	39.42
877.234	-7.68
877.407	41.47
877.579	8.7
877.752	51.71
877.924	70.14
878.097	14.85
878.269	6.66
878.442	96.77
878.614	47.62
878.786	55.81
878.959	6.66
879.131	23.04
879.303	-48.64
879.476	23.04
879.648	45.57
879.82	-22.02
879.993	39.42
880.165	-7.68
880.337	12.8
880.509	27.14
880.681	-36.35
880.854	-9.73
881.026	31.23
881.198	14.85
881.37	-1.54
881.542	0.51
881.714	27.14
881.886	6.66
882.058	41.47
882.23	41.47
882.402	33.28
882.574	-13.82
882.746	10.75
882.918	43.52
883.09	88.57
883.262	-71.17
883.434	-13.82
883.606	109.05
883.778	-1.54
883.95	80.38
884.122	-9.73
884.293	76.29
884.465	27.14
884.637	64
884.809	55.81
884.98	57.86
885.152	-26.11
885.324	39.42
885.496	25.09
885.667	31.23
885.839	47.62
886.011	61.95
886.182	-7.68
886.354	29.18
886.525	27.14
886.697	20.99
886.869	-36.35
887.04	23.04
887.212	104.96
887.383	39.42
887.555	64
887.726	39.42
887.897	-32.26
888.069	-15.87
888.24	16.9
888.412	27.14
888.583	6.66
888.754	-15.87
888.926	23.04
889.097	-15.87
889.268	14.85
889.44	29.18
889.611	-42.5
889.782	8.7
889.953	-17.92
890.125	41.47
890.296	25.09
890.467	6.66
890.638	31.23
890.809	55.81
890.98	-46.59
891.151	78.33
891.323	80.38
891.494	49.66
891.665	-24.06
891.836	80.38
892.007	55.81
892.178	43.52
892.349	43.52
892.52	59.9
892.691	10.75
892.862	-1.54
893.032	12.8
893.203	35.33
893.374	39.42
893.545	64
893.716	25.09
893.887	27.14
894.057	33.28
894.228	51.71
894.399	57.86
894.57	111.1
894.74	18.94
894.911	33.28
895.082	-36.35
895.253	49.66
895.423	80.38
895.594	33.28
895.764	39.42
895.935	37.38
896.106	64
896.276	-9.73
896.447	16.9
896.617	-40.45
896.788	-58.88
896.958	14.85
897.129	-24.06
897.299	6.66
897.47	147.97
897.64	27.14
897.81	45.57
897.981	76.29
898.151	35.33
898.322	12.8
898.492	27.14
898.662	-71.17
898.832	-9.73
899.003	47.62
899.173	82.43
899.343	82.43
899.513	0.51
