Data from USB4F104151__259__14-34-20-107.txt Node

Date: Thu Mar 13 14:34:20 EDT 2025
User: louis
Spectrometer: USB4F10415
Trigger mode: 4
Integration Time (sec): 2.500000E-2
Scans to average: 1
Electric dark correction enabled: true
Nonlinearity correction enabled: false
Boxcar width: 0
XAxis mode: Wavelengths
Number of Pixels in Spectrum: 3648
>>>>>Begin Spectral Data<<<<<
178.204	-129.53
178.424	-129.53
178.644	-129.53
178.864	-174.59
179.084	-195.07
179.304	-55.81
179.524	13.82
179.744	-64
179.964	32.26
180.184	-23.04
180.404	-4.61
180.624	-2.56
180.844	34.3
181.064	-14.85
181.283	48.64
181.503	-31.23
181.723	67.07
181.943	-78.33
182.163	93.69
182.383	26.11
182.602	126.46
182.822	15.87
183.042	42.5
183.262	9.73
183.482	-70.14
183.701	-31.23
183.921	-18.94
184.141	42.5
184.361	46.59
184.58	-12.8
184.8	65.02
185.02	-16.9
185.239	62.98
185.459	42.5
185.679	32.26
185.898	-55.81
186.118	-6.66
186.338	58.88
186.557	69.12
186.777	-12.8
186.997	38.4
187.216	9.73
187.436	101.89
187.655	38.4
187.875	1.54
188.095	28.16
188.314	44.54
188.534	30.21
188.753	3.58
188.973	22.02
189.192	132.61
189.412	-10.75
189.631	1.54
189.851	9.73
190.07	54.78
190.29	24.06
190.509	13.82
190.729	44.54
190.948	3.58
191.168	112.13
191.387	-47.62
191.607	91.65
191.826	28.16
192.045	56.83
192.265	9.73
192.484	34.3
192.704	3.58
192.923	-18.94
193.142	67.07
193.362	-29.18
193.581	91.65
193.8	32.26
194.02	50.69
194.239	-43.52
194.458	30.21
194.678	50.69
194.897	1.54
195.116	54.78
195.335	26.11
195.555	50.69
195.774	3.58
195.993	42.5
196.212	-6.66
196.432	5.63
196.651	3.58
196.87	67.07
197.089	36.35
197.308	108.03
197.528	19.97
197.747	3.58
197.966	71.17
198.185	52.74
198.404	9.73
198.623	-31.23
198.842	9.73
199.062	108.03
199.281	-2.56
199.5	19.97
199.719	75.26
199.938	52.74
200.157	26.11
200.376	79.36
200.595	65.02
200.814	-59.9
201.033	38.4
201.252	36.35
201.471	-39.42
201.69	69.12
201.909	58.88
202.128	101.89
202.347	79.36
202.566	105.98
202.785	-8.7
203.004	-51.71
203.223	93.69
203.442	-20.99
203.661	1.54
203.879	34.3
204.098	-6.66
204.317	-35.33
204.536	24.06
204.755	-2.56
204.974	50.69
205.193	71.17
205.411	99.84
205.63	26.11
205.849	7.68
206.068	42.5
206.287	-6.66
206.505	60.93
206.724	77.31
206.943	17.92
207.162	52.74
207.381	58.88
207.599	15.87
207.818	15.87
208.037	69.12
208.255	52.74
208.474	30.21
208.693	30.21
208.911	-57.86
209.13	-2.56
209.349	26.11
209.567	-2.56
209.786	34.3
210.005	58.88
210.223	38.4
210.442	-88.57
210.661	75.26
210.879	11.78
211.098	-31.23
211.316	28.16
211.535	62.98
211.753	38.4
211.972	56.83
212.191	67.07
212.409	17.92
212.628	-43.52
212.846	-35.33
213.065	28.16
213.283	42.5
213.502	7.68
213.72	-35.33
213.938	3.58
214.157	48.64
214.375	38.4
214.594	-0.51
214.812	50.69
215.031	-14.85
215.249	71.17
215.467	95.74
215.686	11.78
215.904	24.06
216.122	-31.23
216.341	-27.14
216.559	50.69
216.778	34.3
216.996	79.36
217.214	36.35
217.432	9.73
217.651	-39.42
217.869	95.74
218.087	93.69
218.306	67.07
218.524	62.98
218.742	36.35
218.96	52.74
219.179	-23.04
219.397	-39.42
219.615	83.45
219.833	1.54
220.051	-66.05
220.27	42.5
220.488	-4.61
220.706	42.5
220.924	9.73
221.142	58.88
221.36	32.26
221.578	-10.75
221.796	-47.62
222.015	-10.75
222.233	-29.18
222.451	83.45
222.669	-35.33
222.887	130.56
223.105	1.54
223.323	50.69
223.541	85.5
223.759	34.3
223.977	9.73
224.195	58.88
224.413	-6.66
224.631	42.5
224.849	11.78
225.067	58.88
225.285	26.11
225.503	5.63
225.721	-39.42
225.939	17.92
226.157	48.64
226.375	44.54
226.592	91.65
226.81	-53.76
227.028	67.07
227.246	83.45
227.464	-68.09
227.682	-2.56
227.9	50.69
228.117	9.73
228.335	3.58
228.553	-12.8
228.771	-0.51
228.989	71.17
229.206	69.12
229.424	58.88
229.642	50.69
229.86	91.65
230.077	40.45
230.295	83.45
230.513	65.02
230.731	62.98
230.948	126.46
231.166	118.27
231.384	-6.66
231.601	75.26
231.819	1.54
232.037	26.11
232.254	40.45
232.472	44.54
232.689	42.5
232.907	85.5
233.125	44.54
233.342	13.82
233.56	9.73
233.777	-72.19
233.995	28.16
234.213	79.36
234.43	11.78
234.648	-29.18
234.865	-29.18
235.083	52.74
235.3	-35.33
235.518	71.17
235.735	11.78
235.953	28.16
236.17	118.27
236.388	26.11
236.605	50.69
236.822	99.84
237.04	85.5
237.257	67.07
237.475	11.78
237.692	15.87
237.909	91.65
238.127	-14.85
238.344	56.83
238.562	75.26
238.779	-14.85
238.996	-29.18
239.214	-6.66
239.431	28.16
239.648	-29.18
239.865	52.74
240.083	83.45
240.3	28.16
240.517	3.58
240.735	17.92
240.952	110.08
241.169	58.88
241.386	54.78
241.603	-10.75
241.821	54.78
242.038	83.45
242.255	19.97
242.472	-68.09
242.689	30.21
242.907	73.21
243.124	32.26
243.341	-12.8
243.558	-29.18
243.775	42.5
243.992	-57.86
244.209	-37.38
244.426	75.26
244.643	67.07
244.86	-18.94
245.078	83.45
245.295	116.22
245.512	3.58
245.729	52.74
245.946	112.13
246.163	46.59
246.38	-25.09
246.597	67.07
246.814	9.73
247.031	26.11
247.248	85.5
247.464	40.45
247.681	22.02
247.898	32.26
248.115	-12.8
248.332	58.88
248.549	56.83
248.766	101.89
248.983	89.6
249.2	9.73
249.417	28.16
249.633	13.82
249.85	28.16
250.067	46.59
250.284	5.63
250.501	108.03
250.717	60.93
250.934	28.16
251.151	93.69
251.368	3.58
251.585	73.21
251.801	30.21
252.018	-6.66
252.235	44.54
252.451	-6.66
252.668	36.35
252.885	-59.9
253.102	48.64
253.318	50.69
253.535	38.4
253.752	-14.85
253.968	-12.8
254.185	-61.95
254.401	38.4
254.618	-10.75
254.835	-37.38
255.051	91.65
255.268	71.17
255.484	67.07
255.701	-10.75
255.917	22.02
256.134	19.97
256.351	50.69
256.567	-23.04
256.784	54.78
257	-10.75
257.217	-20.99
257.433	52.74
257.65	38.4
257.866	26.11
258.082	11.78
258.299	-47.62
258.515	62.98
258.732	42.5
258.948	40.45
259.165	-104.96
259.381	-14.85
259.597	-6.66
259.814	87.55
260.03	75.26
260.246	52.74
260.463	87.55
260.679	83.45
260.895	38.4
261.112	19.97
261.328	48.64
261.544	75.26
261.761	50.69
261.977	-23.04
262.193	-2.56
262.409	73.21
262.626	5.63
262.842	34.3
263.058	1.54
263.274	83.45
263.49	-2.56
263.707	50.69
263.923	81.41
264.139	-25.09
264.355	54.78
264.571	62.98
264.787	-0.51
265.004	17.92
265.22	3.58
265.436	-4.61
265.652	5.63
265.868	75.26
266.084	22.02
266.3	1.54
266.516	-10.75
266.732	-20.99
266.948	-14.85
267.164	79.36
267.38	11.78
267.596	99.84
267.812	40.45
268.028	-4.61
268.244	26.11
268.46	44.54
268.676	26.11
268.892	75.26
269.108	13.82
269.324	36.35
269.54	3.58
269.756	112.13
269.972	7.68
270.188	30.21
270.403	-4.61
270.619	1.54
270.835	28.16
271.051	83.45
271.267	58.88
271.483	38.4
271.698	58.88
271.914	-31.23
272.13	73.21
272.346	-6.66
272.562	62.98
272.777	108.03
272.993	-2.56
273.209	-45.57
273.425	42.5
273.64	17.92
273.856	44.54
274.072	-4.61
274.287	38.4
274.503	42.5
274.719	132.61
274.934	9.73
275.15	-59.9
275.366	5.63
275.581	52.74
275.797	-0.51
276.012	-2.56
276.228	58.88
276.444	17.92
276.659	-0.51
276.875	-39.42
277.09	-55.81
277.306	17.92
277.521	1.54
277.737	26.11
277.952	69.12
278.168	42.5
278.383	30.21
278.599	19.97
278.814	71.17
279.03	-70.14
279.245	22.02
279.461	48.64
279.676	112.13
279.892	22.02
280.107	-47.62
280.322	60.93
280.538	108.03
280.753	9.73
280.969	34.3
281.184	38.4
281.399	50.69
281.615	50.69
281.83	28.16
282.045	13.82
282.26	-29.18
282.476	26.11
282.691	112.13
282.906	-23.04
283.122	93.69
283.337	-12.8
283.552	48.64
283.767	3.58
283.983	108.03
284.198	-41.47
284.413	54.78
284.628	-78.33
284.843	-18.94
285.058	48.64
285.274	95.74
285.489	-55.81
285.704	87.55
285.919	-12.8
286.134	93.69
286.349	75.26
286.564	-55.81
286.779	75.26
286.995	71.17
287.21	-41.47
287.425	97.79
287.64	30.21
287.855	101.89
288.07	-72.19
288.285	77.31
288.5	13.82
288.715	36.35
288.93	5.63
289.145	44.54
289.36	42.5
289.575	50.69
289.79	65.02
290.004	11.78
290.219	58.88
290.434	69.12
290.649	-47.62
290.864	28.16
291.079	15.87
291.294	60.93
291.509	36.35
291.724	-6.66
291.938	48.64
292.153	50.69
292.368	95.74
292.583	69.12
292.798	99.84
293.012	52.74
293.227	34.3
293.442	9.73
293.657	15.87
293.871	99.84
294.086	58.88
294.301	130.56
294.516	50.69
294.73	97.79
294.945	-51.71
295.16	58.88
295.374	-12.8
295.589	71.17
295.804	69.12
296.018	7.68
296.233	62.98
296.447	13.82
296.662	-61.95
296.877	79.36
297.091	69.12
297.306	42.5
297.52	46.59
297.735	54.78
297.949	67.07
298.164	54.78
298.378	48.64
298.593	-14.85
298.807	34.3
299.022	1.54
299.236	1.54
299.451	50.69
299.665	26.11
299.88	73.21
300.094	46.59
300.309	112.13
300.523	42.5
300.737	50.69
300.952	54.78
301.166	19.97
301.381	13.82
301.595	42.5
301.809	36.35
302.024	1.54
302.238	11.78
302.452	87.55
302.667	42.5
302.881	83.45
303.095	42.5
303.309	56.83
303.524	-4.61
303.738	-23.04
303.952	-0.51
304.166	36.35
304.381	-12.8
304.595	75.26
304.809	-14.85
305.023	85.5
305.237	52.74
305.452	42.5
305.666	46.59
305.88	62.98
306.094	42.5
306.308	3.58
306.522	75.26
306.736	87.55
306.95	40.45
307.164	17.92
307.379	-10.75
307.593	58.88
307.807	40.45
308.021	9.73
308.235	-6.66
308.449	-64
308.663	9.73
308.877	50.69
309.091	75.26
309.305	-2.56
309.519	5.63
309.733	17.92
309.947	-49.66
310.161	58.88
310.374	46.59
310.588	108.03
310.802	24.06
311.016	-51.71
311.23	62.98
311.444	36.35
311.658	50.69
311.872	-12.8
312.085	189.95
312.299	85.5
312.513	60.93
312.727	30.21
312.941	-14.85
313.154	95.74
313.368	44.54
313.582	-18.94
313.796	42.5
314.009	26.11
314.223	52.74
314.437	75.26
314.651	93.69
314.864	-23.04
315.078	17.92
315.292	-8.7
315.505	-6.66
315.719	26.11
315.933	52.74
316.146	99.84
316.36	36.35
316.573	85.5
316.787	22.02
317.001	28.16
317.214	-4.61
317.428	32.26
317.641	19.97
317.855	42.5
318.068	75.26
318.282	-8.7
318.495	89.6
318.709	-35.33
318.922	-4.61
319.136	67.07
319.349	1.54
319.563	54.78
319.776	50.69
319.99	-23.04
320.203	30.21
320.417	38.4
320.63	75.26
320.843	77.31
321.057	83.45
321.27	-27.14
321.483	-35.33
321.697	58.88
321.91	48.64
322.124	-47.62
322.337	38.4
322.55	-43.52
322.763	108.03
322.977	42.5
323.19	28.16
323.403	-43.52
323.617	69.12
323.83	101.89
324.043	13.82
324.256	50.69
324.469	-4.61
324.683	17.92
324.896	17.92
325.109	67.07
325.322	-29.18
325.535	19.97
325.748	26.11
325.962	-78.33
326.175	28.16
326.388	13.82
326.601	34.3
326.814	56.83
327.027	52.74
327.24	101.89
327.453	46.59
327.666	50.69
327.879	26.11
328.092	58.88
328.305	22.02
328.518	9.73
328.731	-12.8
328.944	77.31
329.157	62.98
329.37	-2.56
329.583	77.31
329.796	83.45
330.009	-23.04
330.222	26.11
330.435	89.6
330.648	44.54
330.861	-20.99
331.073	-6.66
331.286	19.97
331.499	-25.09
331.712	30.21
331.925	42.5
332.138	32.26
332.35	79.36
332.563	54.78
332.776	19.97
332.989	13.82
333.202	42.5
333.414	-23.04
333.627	-31.23
333.84	67.07
334.053	42.5
334.265	89.6
334.478	-10.75
334.691	-6.66
334.903	79.36
335.116	11.78
335.329	48.64
335.541	140.8
335.754	110.08
335.966	13.82
336.179	-47.62
336.392	17.92
336.604	85.5
336.817	69.12
337.029	67.07
337.242	11.78
337.454	148.99
337.667	83.45
337.88	58.88
338.092	56.83
338.305	9.73
338.517	26.11
338.729	91.65
338.942	75.26
339.154	5.63
339.367	-33.28
339.579	56.83
339.792	-25.09
340.004	17.92
340.217	19.97
340.429	69.12
340.641	-27.14
340.854	-2.56
341.066	3.58
341.278	-14.85
341.491	67.07
341.703	22.02
341.915	22.02
342.128	75.26
342.34	34.3
342.552	17.92
342.764	42.5
342.977	17.92
343.189	52.74
343.401	69.12
343.613	22.02
343.826	87.55
344.038	46.59
344.25	15.87
344.462	-6.66
344.674	1.54
344.886	19.97
345.099	50.69
345.311	-16.9
345.523	60.93
345.735	34.3
345.947	62.98
346.159	22.02
346.371	9.73
346.583	-18.94
346.795	13.82
347.007	17.92
347.219	17.92
347.431	-41.47
347.643	40.45
347.855	-55.81
348.067	85.5
348.279	110.08
348.491	75.26
348.703	9.73
348.915	108.03
349.127	-35.33
349.339	26.11
349.551	-10.75
349.763	71.17
349.975	52.74
350.187	67.07
350.399	83.45
350.61	44.54
350.822	67.07
351.034	44.54
351.246	38.4
351.458	71.17
351.669	62.98
351.881	194.05
352.093	81.41
352.305	69.12
352.517	108.03
352.728	54.78
352.94	42.5
353.152	71.17
353.363	11.78
353.575	77.31
353.787	36.35
353.999	3.58
354.21	58.88
354.422	62.98
354.633	13.82
354.845	69.12
355.057	38.4
355.268	5.63
355.48	24.06
355.692	-47.62
355.903	38.4
356.115	77.31
356.326	-16.9
356.538	87.55
356.749	19.97
356.961	75.26
357.172	26.11
357.384	65.02
357.595	159.23
357.807	62.98
358.018	56.83
358.23	26.11
358.441	1.54
358.653	83.45
358.864	75.26
359.075	77.31
359.287	1.54
359.498	9.73
359.709	-0.51
359.921	42.5
360.132	60.93
360.344	-12.8
360.555	22.02
360.766	34.3
360.977	54.78
361.189	3.58
361.4	58.88
361.611	93.69
361.823	-10.75
362.034	22.02
362.245	-72.19
362.456	-47.62
362.667	130.56
362.879	58.88
363.09	-2.56
363.301	34.3
363.512	73.21
363.723	-20.99
363.935	17.92
364.146	-23.04
364.357	19.97
364.568	26.11
364.779	11.78
364.99	105.98
365.201	26.11
365.412	36.35
365.623	-31.23
365.834	99.84
366.045	28.16
366.256	26.11
366.467	38.4
366.678	36.35
366.889	54.78
367.1	-2.56
367.311	132.61
367.522	83.45
367.733	36.35
367.944	60.93
368.155	71.17
368.366	32.26
368.577	58.88
368.788	52.74
368.999	19.97
369.209	50.69
369.42	116.22
369.631	65.02
369.842	26.11
370.053	13.82
370.264	62.98
370.474	93.69
370.685	89.6
370.896	116.22
371.107	79.36
371.317	128.51
371.528	38.4
371.739	110.08
371.95	99.84
372.16	48.64
372.371	26.11
372.582	46.59
372.792	5.63
373.003	17.92
373.214	38.4
373.424	95.74
373.635	58.88
373.846	67.07
374.056	54.78
374.267	42.5
374.477	13.82
374.688	42.5
374.898	50.69
375.109	36.35
375.319	69.12
375.53	146.94
375.74	13.82
375.951	-14.85
376.161	75.26
376.372	89.6
376.582	17.92
376.793	95.74
377.003	-27.14
377.214	62.98
377.424	89.6
377.635	-14.85
377.845	38.4
378.055	34.3
378.266	-2.56
378.476	75.26
378.686	7.68
378.897	60.93
379.107	-20.99
379.317	28.16
379.528	62.98
379.738	17.92
379.948	34.3
380.158	42.5
380.369	67.07
380.579	34.3
380.789	-20.99
380.999	58.88
381.21	91.65
381.42	83.45
381.63	17.92
381.84	54.78
382.05	36.35
382.261	17.92
382.471	95.74
382.681	28.16
382.891	128.51
383.101	91.65
383.311	52.74
383.521	15.87
383.731	38.4
383.941	-6.66
384.151	67.07
384.361	-20.99
384.571	46.59
384.781	28.16
384.991	157.18
385.201	73.21
385.411	93.69
385.621	79.36
385.831	28.16
386.041	99.84
386.251	87.55
386.461	112.13
386.671	87.55
386.881	99.84
387.091	71.17
387.301	46.59
387.511	91.65
387.72	17.92
387.93	67.07
388.14	110.08
388.35	9.73
388.56	130.56
388.769	75.26
388.979	112.13
389.189	85.5
389.399	85.5
389.609	19.97
389.818	167.42
390.028	-27.14
390.238	50.69
390.447	42.5
390.657	118.27
390.867	1.54
391.076	24.06
391.286	17.92
391.496	9.73
391.705	128.51
391.915	52.74
392.125	54.78
392.334	19.97
392.544	134.65
392.753	75.26
392.963	67.07
393.172	42.5
393.382	3.58
393.591	46.59
393.801	13.82
394.01	142.85
394.22	26.11
394.429	91.65
394.639	91.65
394.848	48.64
395.058	75.26
395.267	34.3
395.477	69.12
395.686	126.46
395.895	71.17
396.105	148.99
396.314	75.26
396.524	83.45
396.733	116.22
396.942	185.85
397.152	144.89
397.361	110.08
397.57	167.42
397.78	175.61
397.989	87.55
398.198	216.57
398.407	175.61
398.617	91.65
398.826	136.7
399.035	52.74
399.244	132.61
399.453	67.07
399.663	161.28
399.872	120.32
400.081	79.36
400.29	134.65
400.499	126.46
400.708	165.37
400.917	167.42
401.127	112.13
401.336	95.74
401.545	196.09
401.754	173.57
401.963	185.85
402.172	75.26
402.381	34.3
402.59	144.89
402.799	163.33
403.008	144.89
403.217	108.03
403.426	140.8
403.635	173.57
403.844	146.94
404.053	163.33
404.262	130.56
404.471	206.33
404.68	157.18
404.888	136.7
405.097	165.37
405.306	181.76
405.515	177.66
405.724	93.69
405.933	210.43
406.142	263.68
406.35	247.29
406.559	181.76
406.768	220.67
406.977	210.43
407.185	253.44
407.394	208.38
407.603	130.56
407.812	378.36
408.02	290.3
408.229	235
408.438	192
408.646	271.87
408.855	271.87
409.064	337.4
409.272	282.11
409.481	376.31
409.69	296.44
409.898	376.31
410.107	321.02
410.315	421.37
410.524	333.31
410.733	353.79
410.941	382.46
411.15	366.07
411.358	509.43
411.567	493.05
411.775	394.75
411.984	435.71
412.192	482.81
412.401	534.01
412.609	534.01
412.818	544.25
413.026	609.78
413.234	626.17
413.443	581.11
413.651	611.83
413.86	599.54
414.068	677.37
414.276	656.89
414.485	671.22
414.693	830.96
414.901	812.53
415.11	763.38
415.318	787.96
415.526	886.26
415.734	898.55
415.943	970.23
416.151	1041.9
416.359	1025.52
416.567	1052.14
416.776	1039.86
416.984	1134.06
417.192	1117.68
417.4	1156.59
417.608	1115.63
417.817	1189.36
418.025	1324.52
418.233	1426.92
418.441	1443.31
418.649	1451.5
418.857	1512.94
419.065	1535.46
419.273	1650.15
419.481	1619.43
419.689	1678.82
419.897	1740.26
420.105	1848.8
420.313	1953.25
420.521	1979.87
420.729	1928.67
420.937	1934.82
421.145	2053.6
421.353	2100.7
421.561	2346.46
421.769	2262.49
421.977	2475.48
422.185	2518.49
422.393	2528.73
422.601	2819.54
422.809	2635.22
423.017	2606.55
423.224	2807.25
423.432	2985.43
423.64	2897.36
423.848	3153.36
424.056	3239.37
424.263	3384.78
424.471	3270.09
424.679	3411.4
424.887	3730.89
425.094	3659.21
425.302	3788.23
425.51	3732.94
425.718	3974.6
425.925	4007.36
426.133	4187.58
426.341	4367.81
426.548	4597.18
426.756	4472.25
426.964	4679.1
427.171	5002.68
427.379	5049.78
427.586	5252.53
427.794	5246.38
428.001	5440.94
428.209	5668.27
428.417	5662.12
428.624	5963.17
428.832	6124.96
429.039	6120.87
429.247	6043.04
429.454	6614.43
429.662	7095.7
429.869	6708.63
430.076	7114.13
430.284	6808.98
430.491	7185.81
430.699	7470.48
430.906	7679.37
431.114	7652.75
431.321	8078.72
431.528	8179.08
431.736	8621.44
431.943	9061.75
432.15	8566.14
432.358	8861.05
432.565	9311.6
432.772	9151.86
432.979	9876.84
433.187	9741.68
433.394	9819.5
433.601	10636.64
433.808	10673.5
434.016	10630.49
434.223	10831.19
434.43	11781.45
434.637	11371.86
434.844	12389.7
435.052	12182.85
435.259	12299.59
435.466	12242.25
435.673	12248.39
435.88	13090.1
436.087	13731.12
436.294	13780.27
436.501	13354.29
436.708	13632.82
436.915	14148.9
437.122	14761.25
437.329	14791.97
437.537	15439.12
437.743	15201.56
437.95	15326.49
438.157	16243.98
438.364	16704.77
438.571	16686.34
438.778	16530.69
438.985	18250.99
439.192	17499.38
439.399	17954.03
439.606	17544.44
439.813	18746.59
440.02	19950.8
440.227	19506.39
440.433	19279.07
440.64	19832.02
440.847	19604.69
441.054	20223.18
441.261	21447.86
441.467	21136.57
441.674	21845.17
441.881	22516.9
442.088	22250.67
442.294	22029.49
442.501	22690.98
442.708	23176.35
442.914	24155.28
443.121	24759.43
443.328	24343.69
443.534	25939.06
443.741	25525.37
443.948	24810.63
444.154	26891.37
444.361	26592.36
444.568	26834.02
444.774	26748.01
444.981	27409.5
445.187	27905.11
445.394	28986.44
445.6	28578.89
445.807	31128.61
446.013	30407.73
446.22	30270.51
446.426	31349.79
446.633	32263.19
446.839	32896.01
447.046	31630.37
447.252	33211.4
447.459	33383.43
447.665	33596.42
447.871	34937.83
448.078	36588.5
448.284	34405.36
448.491	35824.61
448.697	37006.28
448.903	37643.2
449.11	37766.08
449.316	37338.05
449.522	37977.02
449.728	38689.71
449.935	38970.29
450.141	39248.81
450.347	40674.2
450.553	38511.54
450.76	39046.06
450.966	40491.93
451.172	39828.38
451.378	40862.61
451.584	40176.54
451.791	41358.22
451.997	41329.55
452.203	41792.39
452.409	41788.29
452.615	41481.1
452.821	39852.96
453.027	39707.55
453.233	41550.73
453.44	40096.67
453.646	40334.23
453.852	40588.18
454.058	41597.83
454.264	39768.99
454.47	40901.52
454.676	40010.65
454.882	40850.32
455.088	37575.62
455.294	38468.53
455.5	38845.36
455.705	39181.23
455.911	37792.7
456.117	36699.09
456.323	36338.65
456.529	34671.6
456.735	35931.1
456.941	35034.09
457.147	34456.56
457.352	33856.51
457.558	33111.05
457.764	33221.64
457.97	32476.18
458.176	31812.63
458.381	31843.35
458.587	30217.27
458.793	30407.73
458.999	28789.83
459.204	30567.47
459.41	29985.85
459.616	27788.38
459.821	27808.86
460.027	27796.57
460.233	27133.03
460.438	25853.05
460.644	26201.2
460.85	24829.06
461.055	24233.1
461.261	24413.32
461.466	22758.56
461.672	21882.03
461.878	23256.22
462.083	21955.76
462.289	21976.24
462.494	20985.02
462.7	20460.74
462.905	19408.09
463.111	20317.39
463.316	20544.71
463.522	19946.7
463.727	20114.64
463.932	20204.75
464.138	19709.14
464.343	19711.19
464.549	19485.91
464.754	19848.4
464.959	19746
465.165	19565.78
465.37	18740.45
465.575	18044.14
465.781	18941.15
465.986	18982.11
466.191	18072.81
466.397	17728.75
466.602	17018.11
466.807	17470.71
467.012	17790.19
467.218	17405.17
467.423	17425.65
467.628	17415.41
467.833	18134.25
468.038	17626.36
468.244	16962.81
468.449	17431.8
468.654	16758.02
468.859	16686.34
469.064	16803.07
469.269	16051.47
469.474	16205.06
469.679	16469.25
469.885	15942.92
470.09	15889.68
470.295	16041.23
470.5	15639.83
470.705	15721.74
470.91	15281.43
471.115	15195.42
471.32	15512.85
471.525	15451.41
471.73	15181.08
471.935	14853.41
472.139	14337.32
472.344	14775.58
472.549	14372.13
472.754	14357.8
472.959	14077.23
473.164	13753.65
473.369	13686.06
473.574	14134.57
473.778	13911.34
473.983	13681.97
474.188	13561.14
474.393	12930.36
474.598	13063.48
474.802	13223.22
475.007	12995.9
475.212	12981.56
475.417	12420.42
475.621	12617.02
475.826	12571.97
476.031	12334.4
476.235	12076.36
476.44	12422.47
476.645	12025.16
476.849	12045.64
477.054	12019.02
477.259	11615.57
477.463	11750.73
477.668	11341.14
477.872	11478.35
478.077	11341.14
478.282	11089.24
478.486	11011.42
478.691	10683.74
478.895	10880.35
479.1	10909.02
479.304	10653.02
479.509	10474.85
479.713	10564.96
479.918	10564.96
480.122	10313.06
480.326	10556.77
480.531	10466.66
480.735	10339.68
480.94	10272.1
481.144	10466.66
481.348	10085.73
481.553	10241.38
481.757	9950.57
481.961	10102.12
482.166	10048.87
482.37	9995.62
482.574	9858.41
482.778	9864.55
482.983	10149.22
483.187	10042.73
483.391	10012.01
483.595	9805.16
483.8	9831.79
484.004	9977.19
484.208	9987.43
484.412	9764.2
484.616	9790.83
484.821	9909.61
485.025	9704.81
485.229	10024.3
485.433	9962.86
485.637	9905.51
485.841	9786.73
486.045	9909.61
486.249	9964.9
486.453	9807.21
486.657	9878.89
486.861	9913.7
487.065	9502.06
487.269	9923.94
487.473	9581.93
487.677	9799.02
487.881	9944.42
488.085	9901.42
488.289	9790.83
488.493	9831.79
488.697	9921.9
488.901	9913.7
489.105	9860.46
489.309	9940.33
489.512	9977.19
489.716	9901.42
489.92	9930.09
490.124	9790.83
490.328	10151.27
490.531	9915.75
490.735	10206.56
490.939	9948.52
491.143	9839.98
491.346	10186.08
491.55	10124.65
491.754	10009.96
491.958	10263.91
492.161	10153.32
492.365	10249.57
492.569	10118.5
492.772	10079.59
492.976	10343.78
493.18	10100.07
493.383	10360.16
493.587	10388.83
493.79	10530.14
493.994	10364.26
494.197	10544.48
494.401	10718.56
494.605	10650.97
494.808	10696.03
495.012	10773.85
495.215	10888.54
495.419	11101.53
495.622	10954.07
495.825	11046.23
496.029	11015.51
496.232	11189.59
496.436	11150.68
496.639	11498.83
496.843	11285.84
497.046	11527.5
497.249	11642.19
497.453	11824.46
497.656	12066.12
497.859	11849.04
498.063	12049.74
498.266	12025.16
498.469	11846.99
498.673	12309.83
498.876	12543.3
499.079	12227.91
499.282	12557.63
499.485	12961.08
499.689	12840.25
499.892	13071.67
500.095	13075.77
500.298	13120.82
500.501	13073.72
500.705	13595.95
500.908	13722.93
501.111	14019.88
501.314	14050.6
501.517	14273.83
501.72	14128.42
501.923	13991.21
502.126	14669.09
502.329	14845.21
502.532	14927.13
502.735	14863.65
502.938	14871.84
503.141	14992.67
503.344	15349.01
503.547	15533.33
503.75	15664.4
503.953	15828.24
504.156	15912.21
504.359	16035.08
504.562	16395.53
504.765	16491.78
504.968	16657.67
505.17	16874.75
505.373	16958.72
505.576	17212.67
505.779	17128.7
505.982	17569.01
506.185	17431.8
506.387	17693.94
506.59	18029.8
506.793	18306.28
506.996	18093.29
507.198	18742.5
507.401	18605.28
507.604	18900.19
507.807	19262.68
508.009	18957.53
508.212	19420.38
508.415	19576.02
508.617	19819.73
508.82	19875.02
509.022	19643.6
509.225	20409.54
509.428	20571.33
509.63	20473.03
509.833	20952.26
510.035	21357.75
510.238	20899.01
510.44	21204.16
510.643	21673.14
510.845	21916.85
511.048	21783.73
511.25	22127.79
511.453	22527.14
511.655	23104.67
511.858	22858.92
512.06	23086.24
512.262	23309.47
512.465	23256.22
512.667	23409.82
512.87	23485.59
513.072	24081.55
513.274	24136.85
513.477	24491.15
513.679	24872.07
513.881	24931.46
514.084	25293.95
514.286	25351.29
514.488	25314.43
514.69	25924.72
514.893	26190.96
515.095	26086.51
515.297	26465.39
515.499	26481.77
515.701	26838.12
515.904	27063.4
516.106	27479.13
516.308	27716.7
516.51	27495.52
516.712	27950.17
516.914	28202.07
517.116	28410.96
517.318	28771.4
517.52	28847.18
517.722	29043.78
517.925	29484.09
518.127	29447.23
518.329	29860.92
518.531	29826.1
518.733	29918.26
518.935	30362.67
519.136	30096.44
519.338	30766.12
519.54	31056.93
519.742	31329.31
519.944	31183.91
520.146	31519.78
520.348	31509.54
520.55	31974.42
520.752	31796.25
520.954	32322.58
521.155	32205.84
521.357	32687.12
521.559	32955.4
521.761	33278.98
521.963	33168.39
522.164	33201.16
522.366	33070.09
522.568	33958.91
522.77	33473.54
522.971	33952.76
523.173	33862.65
523.375	34139.13
523.576	34323.44
523.778	34083.83
523.98	34757.61
524.181	35099.62
524.383	34673.65
524.584	35353.57
524.786	34677.74
524.988	34479.09
525.189	35312.61
525.391	35437.54
525.592	35734.49
525.794	35449.83
525.995	35718.11
526.197	35541.99
526.398	35752.93
526.6	35933.15
526.801	35988.44
527.003	36115.42
527.204	35836.89
527.406	36279.25
527.607	36105.18
527.808	36611.03
528.01	35656.67
528.211	36142.04
528.412	36699.09
528.614	36336.6
528.815	36398.04
529.016	36994
529.218	36269.01
529.419	36510.67
529.62	36508.63
529.822	36457.43
530.023	36187.1
530.224	36412.37
530.425	36232.15
530.626	36320.21
530.828	36256.73
531.029	36942.8
531.23	36174.81
531.431	36195.29
531.632	36518.87
531.833	36596.69
532.035	35914.72
532.236	36004.83
532.437	36299.73
532.638	35861.47
532.839	36129.75
533.04	36400.08
533.241	35863.52
533.442	36125.66
533.643	35939.29
533.844	35632.1
534.045	35984.35
534.246	35521.51
534.447	36035.55
534.648	35720.16
534.849	35714.02
535.05	35603.42
535.251	36076.51
535.451	35572.71
535.652	35630.05
535.853	35470.31
536.054	35746.78
536.255	35759.07
536.456	35302.37
536.657	35816.41
536.857	35134.44
537.058	35210.21
537.259	35415.01
537.46	35398.63
537.66	35109.86
537.861	35517.41
538.062	35167.21
538.263	35230.69
538.463	34913.26
538.664	34913.26
538.865	35091.43
539.065	35095.53
539.266	34771.95
539.466	35007.47
539.667	34599.92
539.868	35066.86
540.068	34821.1
540.269	34513.91
540.469	34958.31
540.67	34950.12
540.87	34640.88
541.071	34802.67
541.271	34423.79
541.472	34991.08
541.672	34530.29
541.873	34513.91
542.073	34096.12
542.274	34817
542.474	34427.89
542.675	34245.62
542.875	34417.65
543.075	34292.72
543.276	34325.49
543.476	34528.24
543.676	33981.43
543.877	34247.67
544.077	34257.91
544.277	34290.68
544.478	33965.05
544.678	34194.42
544.878	33778.68
545.078	34106.36
545.279	34159.61
545.479	34393.08
545.679	34526.19
545.879	34151.41
546.079	34081.78
546.28	34077.69
546.48	33872.89
546.68	34345.97
546.88	34317.3
547.08	34051.06
547.28	34030.58
547.48	33866.75
547.68	34069.5
547.88	34042.87
548.081	34171.89
548.281	34151.41
548.481	34153.46
548.681	34350.07
548.881	34042.87
549.081	34298.87
549.28	33555.46
549.48	34067.45
549.68	33971.19
549.88	34829.29
550.08	34032.63
550.28	34223.09
550.48	34059.26
550.68	34376.69
550.88	34208.76
551.08	34094.07
551.279	34374.64
551.479	34167.8
551.679	34317.3
551.879	34503.67
552.079	34317.3
552.278	33932.28
552.478	34350.07
552.678	34130.94
552.878	34401.27
553.077	34239.48
553.277	33967.1
553.477	34499.57
553.676	34280.44
553.876	34313.2
554.076	34184.18
554.275	34634.74
554.475	34253.81
554.674	34274.29
554.874	34286.58
555.074	34147.32
555.273	34554.86
555.473	34706.41
555.672	34307.06
555.872	34429.94
556.071	34380.79
556.271	34698.22
556.47	34401.27
556.67	34474.99
556.869	34690.03
557.068	34622.45
557.268	34436.08
557.467	34868.2
557.667	34415.6
557.866	34358.26
558.065	34419.7
558.265	34472.95
558.464	34405.36
558.663	34829.29
558.863	34661.36
559.062	35144.68
559.261	34110.46
559.461	34776.05
559.66	34558.96
559.859	34687.98
560.058	34251.77
560.258	34610.16
560.457	34237.43
560.656	34409.46
560.855	34378.74
561.054	34687.98
561.253	34247.67
561.453	34651.12
561.652	34329.59
561.851	34599.92
562.05	34647.02
562.249	34507.76
562.448	34585.58
562.647	34294.77
562.846	34538.48
563.045	34606.06
563.244	34139.13
563.443	34733.04
563.642	34100.22
563.841	34329.59
564.04	34391.03
564.239	34257.91
564.438	34071.54
564.637	34427.89
564.836	34384.88
565.035	33975.29
565.234	34249.72
565.432	34010.11
565.631	33692.67
565.83	34077.69
566.029	34028.54
566.228	33809.4
566.427	33829.88
566.625	33717.25
566.824	33399.81
567.023	34028.54
567.222	33358.85
567.42	34006.01
567.619	33582.08
567.818	33582.08
568.016	33496.06
568.215	33627.13
568.414	33297.41
568.612	33788.92
568.811	33201.16
569.01	33575.94
569.208	33102.85
569.407	33090.57
569.605	32547.86
569.804	32887.82
570.002	32238.61
570.201	32949.26
570.4	32539.66
570.598	32660.49
570.797	32459.79
570.995	32537.62
571.193	32390.16
571.392	32519.18
571.59	31990.81
571.789	32371.73
571.987	32412.69
572.186	32003.1
572.384	31667.23
572.582	31802.39
572.781	32101.4
572.979	31560.73
573.177	31806.49
573.376	31654.94
573.574	31505.44
573.772	31622.17
573.971	31333.41
574.169	31284.26
574.367	31155.24
574.565	31233.06
574.763	30995.5
574.962	31040.55
575.16	30800.94
575.358	30876.71
575.556	30260.27
575.754	30762.03
575.952	30178.36
576.151	30731.31
576.349	29973.56
576.547	30309.43
576.745	30260.27
576.943	30233.65
577.141	30385.2
577.339	30460.98
577.537	29889.59
577.735	30086.2
577.933	30030.9
578.131	30135.35
578.329	29645.88
578.527	29455.42
578.725	29453.37
578.923	29709.37
579.121	29486.14
579.319	29137.99
579.516	29400.13
579.714	29180.99
579.912	29058.12
580.11	29142.08
580.308	29215.81
580.506	28716.11
580.704	28353.62
580.901	28881.99
581.099	28800.07
581.297	28482.64
581.495	28365.9
581.692	28623.95
581.89	28382.29
582.088	28353.62
582.285	27903.06
582.483	28388.43
582.681	27927.64
582.878	28257.36
583.076	28054.61
583.274	28226.64
583.471	27833.43
583.669	27704.41
583.866	27694.17
584.064	27427.93
584.262	27305.06
584.459	27366.49
584.657	27552.86
584.854	27599.96
585.052	26676.33
585.249	27411.55
585.447	27339.87
585.644	26977.38
585.841	27137.12
586.039	27520.09
586.236	26647.66
586.434	26727.53
586.631	26659.95
586.828	26807.4
587.026	26991.72
587.223	26492.01
587.42	26674.28
587.618	26403.95
587.815	26477.68
588.012	26135.67
588.21	26231.92
588.407	26975.33
588.604	25803.89
588.801	25984.12
588.999	26117.23
589.196	26176.62
589.393	26152.05
589.59	26072.18
589.787	25699.45
589.984	25754.74
590.182	25484.41
590.379	25601.15
590.576	25474.17
590.773	25701.5
590.97	25287.81
591.167	25721.98
591.364	25347.2
591.561	25455.74
591.758	25332.86
591.955	25154.69
592.152	25721.98
592.349	25623.67
592.546	25367.68
592.743	25324.67
592.94	24976.51
593.137	25042.05
593.334	25105.54
593.531	24804.49
593.727	25005.19
593.924	25029.76
594.121	24910.98
594.318	25031.81
594.515	24734.85
594.712	24777.86
594.908	24771.72
595.105	24788.1
595.302	24642.7
595.499	24517.77
595.696	24595.59
595.892	24568.97
596.089	24661.13
596.286	24571.02
596.482	24415.37
596.679	24489.1
596.876	24644.74
597.072	24493.19
597.269	24558.73
597.466	24331.4
597.662	24079.5
597.859	24353.93
598.055	24495.24
598.252	24544.39
598.448	24282.25
598.645	24231.05
598.841	24087.7
599.038	24204.43
599.234	24235.15
599.431	24339.6
599.627	24013.97
599.824	24341.64
600.02	24319.12
600.217	24509.58
600.413	24157.33
600.609	24310.93
600.806	24216.72
601.002	24087.7
601.198	24409.23
601.395	24222.86
601.591	24321.16
601.787	24145.04
601.984	24061.07
602.18	24542.35
602.376	24284.3
602.572	24269.97
602.769	24622.22
602.965	23848.08
603.161	24536.2
603.357	24106.13
603.553	24304.78
603.75	24470.67
603.946	24241.29
604.142	24640.65
604.338	24284.3
604.534	24552.59
604.73	24093.84
604.926	24235.15
605.122	24396.94
605.318	24253.58
605.514	24224.91
605.71	24509.58
605.906	24448.14
606.102	24628.36
606.298	24747.14
606.494	24362.12
606.69	24763.53
606.886	24513.67
607.082	24282.25
607.278	24577.16
607.474	24417.42
607.67	24980.61
607.866	24284.3
608.062	24806.53
608.257	24616.07
608.453	24575.11
608.649	24917.12
608.845	24687.75
609.041	24730.76
609.236	24831.11
609.432	24831.11
609.628	24913.03
609.824	24804.49
610.019	24786.05
610.215	24802.44
610.411	25177.22
610.606	24910.98
610.802	25105.54
610.998	24966.28
611.193	24982.66
611.389	25074.82
611.584	25058.43
611.78	24822.92
611.976	25232.51
612.171	25076.87
612.367	25365.63
612.562	25085.06
612.758	24962.18
612.953	25126.02
613.149	25529.47
613.344	25357.44
613.539	25746.55
613.735	25285.76
613.93	25508.99
614.126	24921.22
614.321	25390.2
614.517	25687.16
614.712	25463.93
614.907	25060.48
615.103	25529.47
615.298	25179.26
615.493	25646.2
615.688	24894.6
615.884	25494.65
616.079	25076.87
616.274	25408.64
616.47	25527.42
616.665	25578.62
616.86	25224.32
617.055	25255.04
617.25	25359.49
617.445	25357.44
617.641	25107.58
617.836	25472.12
618.031	25042.05
618.226	25568.38
618.421	24978.56
618.616	25312.38
618.811	24863.88
619.006	25031.81
619.201	24841.35
619.396	25193.6
619.591	24716.42
619.786	24974.47
619.981	24341.64
620.176	24786.05
620.371	24489.1
620.566	24431.76
620.761	24249.49
620.956	24741
621.151	24116.37
621.346	24339.6
621.541	23897.24
621.735	24505.48
621.93	24157.33
622.125	23925.91
622.32	23663.77
622.515	23473.31
622.709	23504.03
622.904	23577.75
623.099	23415.96
623.294	23540.89
623.488	22938.79
623.683	23526.55
623.878	22887.59
624.072	22561.96
624.267	23116.96
624.462	22561.96
624.656	22719.65
624.851	22787.24
625.046	22600.87
625.24	22312.11
625.435	22238.38
625.629	22299.82
625.824	22336.68
626.018	22260.91
626.213	21525.69
626.407	21984.43
626.602	21630.13
626.796	21456.06
626.991	21468.34
627.185	21376.19
627.38	21226.68
627.574	21361.85
627.768	20980.93
627.963	21167.29
628.157	20808.9
628.352	21097.66
628.546	20497.61
628.74	20819.14
628.935	20542.66
629.129	20497.61
629.323	20139.21
629.517	20137.16
629.712	20194.51
629.906	20198.6
630.1	19909.84
630.294	19813.59
630.489	19731.67
630.683	19805.39
630.877	19451.1
631.071	19260.63
631.265	19690.71
631.459	19492.05
631.653	19524.82
631.848	19002.59
632.042	18863.33
632.236	19113.18
632.43	18748.64
632.624	18941.15
632.818	18599.14
633.012	18582.76
633.206	18611.43
633.4	18523.37
633.594	18406.63
633.788	18203.88
633.982	18218.22
634.176	18038
634.369	17831.15
634.563	18003.18
634.757	17675.51
634.951	17943.79
635.145	17822.96
635.339	17911.02
635.533	17495.29
635.726	17171.71
635.92	17394.93
636.114	17294.58
636.308	17071.36
636.501	16979.2
636.695	17188.09
636.889	16747.78
637.083	16758.02
637.276	16461.06
637.47	16526.6
637.664	16647.43
637.857	16387.33
638.051	16512.26
638.244	16129.29
638.438	16131.34
638.632	16086.28
638.825	15770.9
639.019	16053.52
639.212	15768.85
639.406	15598.87
639.599	15695.12
639.793	15494.42
639.986	15394.07
640.18	15291.67
640.373	15236.38
640.567	15140.12
640.76	15158.55
640.954	14888.22
641.147	15019.29
641.34	14798.11
641.534	14959.9
641.727	14732.58
641.92	14558.5
642.114	14437.67
642.307	14484.77
642.5	14394.66
642.694	13993.26
642.887	14292.26
643.08	13993.26
643.273	14089.51
643.467	14079.27
643.66	13772.08
643.853	13804.85
644.046	13696.3
644.239	13532.47
644.432	13548.85
644.626	13249.85
644.819	13229.37
645.012	13489.46
645.205	13235.51
645.398	13251.89
645.591	13192.5
645.784	13051.19
645.977	13112.63
646.17	12862.78
646.363	12680.51
646.556	12455.23
646.749	12584.26
646.942	12633.41
647.135	12561.73
647.328	12533.06
647.521	12389.7
647.714	12150.09
647.907	12256.58
648.099	12019.02
648.292	12047.69
648.485	12100.94
648.678	11808.08
648.871	11740.49
649.064	11789.64
649.256	11980.11
649.449	11691.34
649.642	11650.38
649.835	11515.22
650.027	11351.38
650.22	11441.49
650.413	11335
650.605	11248.98
650.798	11169.11
650.991	11109.72
651.183	11130.2
651.376	10945.88
651.568	10913.11
651.761	10904.92
651.954	10941.79
652.146	11058.52
652.339	10714.46
652.531	10710.36
652.724	10452.32
652.916	10333.54
653.109	10440.03
653.301	10401.12
653.494	10495.33
653.686	10220.9
653.879	10331.49
654.071	10100.07
654.263	10216.8
654.456	10235.24
654.648	10208.61
654.84	9964.9
655.033	9770.35
655.225	10030.44
655.417	9491.82
655.61	10012.01
655.802	9854.31
655.994	9706.86
656.186	9844.07
656.379	9446.77
656.571	9497.97
656.763	9399.66
656.955	9450.86
657.148	9354.61
657.34	9383.28
657.532	9287.03
657.724	9258.35
657.916	9258.35
658.108	9256.31
658.3	8975.74
658.492	9061.75
658.684	8867.19
658.876	8879.48
659.068	8981.88
659.26	8807.8
659.452	8686.97
659.644	8770.94
659.836	8693.12
660.028	8701.31
660.22	8308.1
660.412	8746.36
660.604	8549.76
660.796	8533.37
660.988	8422.78
661.18	8430.98
661.372	8244.61
661.563	8242.56
661.755	8086.92
661.947	8148.36
662.139	7839.11
662.331	8150.4
662.522	8029.57
662.714	8228.23
662.906	7832.97
663.097	7796.11
663.289	7830.92
663.481	7716.23
663.673	7812.49
663.864	7683.47
664.056	7603.6
664.247	7570.83
664.439	7705.99
664.631	7701.9
664.822	7546.25
665.014	7531.92
665.205	7386.51
665.397	7402.9
665.588	7417.23
665.78	7224.72
665.971	7120.28
666.163	7230.87
666.354	7251.35
666.546	7202.19
666.737	7073.17
666.929	7114.13
667.12	7058.84
667.311	7015.83
667.503	6802.84
667.694	6827.42
667.885	6923.67
668.077	6962.58
668.268	6735.26
668.459	6792.6
668.651	6907.29
668.842	6763.93
669.033	6679.96
669.224	6772.12
669.416	6655.39
669.607	6788.5
669.798	6628.76
669.989	6548.89
670.18	6503.84
670.371	6473.12
670.563	6497.69
670.754	6530.46
670.945	6227.36
671.136	6311.33
671.327	6376.86
671.518	6350.24
671.709	6229.41
671.9	6452.64
672.091	6325.66
672.282	6229.41
672.473	6309.28
672.664	6274.46
672.855	6159.78
673.046	6094.24
673.237	6229.41
673.428	6077.86
673.619	6098.34
673.809	5881.25
674	6059.43
674.191	5975.46
674.382	5875.11
674.573	5891.49
674.764	5897.64
674.954	5854.63
675.145	5727.66
675.336	5975.46
675.527	5883.3
675.717	5858.73
675.908	5885.35
676.099	5735.85
676.289	5772.71
676.48	5787.05
676.671	5662.12
676.861	5690.79
677.052	5707.18
677.243	5746.09
677.433	5563.82
677.624	5584.3
677.814	5817.77
678.005	5547.44
678.195	5563.82
678.386	5719.46
678.576	5582.25
678.767	5653.93
678.957	5483.95
679.148	5670.31
679.338	5486
679.529	5457.32
679.719	5506.48
679.909	5426.61
680.1	5518.76
680.29	5481.9
680.481	5559.72
680.671	5477.8
680.861	5490.09
681.052	5379.5
681.242	5430.7
681.432	5412.27
681.622	5473.71
681.813	5445.04
682.003	5498.28
682.193	5428.65
682.383	5408.17
682.573	5377.45
682.764	5350.83
682.954	5442.99
683.144	5326.25
683.334	5514.67
683.524	5459.37
683.714	5442.99
683.904	5098.93
684.094	5375.41
684.284	5311.92
684.474	5309.87
684.664	5139.89
684.854	5371.31
685.044	5211.57
685.234	5045.68
685.424	5186.99
685.614	5168.56
685.804	5258.67
685.994	5115.31
686.184	5219.76
686.374	5238.19
686.564	5088.69
686.753	5121.46
686.943	5023.16
687.133	5137.84
687.323	5123.51
687.513	5039.54
687.702	5080.5
687.892	4996.53
688.082	4912.57
688.272	5074.35
688.461	4941.24
688.651	5025.2
688.841	4943.28
689.03	4900.28
689.22	5008.82
689.41	4887.99
689.599	4887.99
689.789	4990.39
689.979	4763.06
690.168	4730.3
690.358	4822.45
690.547	4879.8
690.737	4765.11
690.926	4662.71
691.116	4847.03
691.305	4943.28
691.495	4683.19
691.684	4564.41
691.874	4699.58
692.063	4773.3
692.252	4732.34
692.442	4656.57
692.631	4609.47
692.82	4705.72
693.01	4631.99
693.199	4617.66
693.388	4541.88
693.578	4584.89
693.767	4621.75
693.956	4629.95
694.146	4566.46
694.335	4492.73
694.524	4492.73
694.713	4572.6
694.902	4523.45
695.092	4609.47
695.281	4468.16
695.47	4453.82
695.659	4376
695.848	4330.94
696.037	4507.07
696.226	4427.2
696.415	4470.2
696.604	4396.48
696.793	4398.52
696.982	4339.13
697.171	4386.24
697.36	4330.94
697.549	4201.92
697.738	4371.9
697.927	4351.42
698.116	4341.18
698.305	4351.42
698.494	4310.46
698.683	4265.41
698.872	4171.2
699.061	4294.08
699.25	4189.63
699.438	4214.21
699.627	4216.26
699.816	4201.92
700.005	4134.34
700.193	4273.6
700.382	4189.63
700.571	4171.2
700.76	4122.05
700.948	4199.87
701.137	4171.2
701.326	4128.19
701.514	4099.52
701.703	3974.6
701.892	3966.4
702.08	4072.9
702.269	4103.62
702.457	3958.21
702.646	4113.86
702.834	4079.04
703.023	3878.34
703.212	4064.71
703.4	3950.02
703.589	3894.72
703.777	4154.82
703.965	3909.06
704.154	4050.37
704.342	3843.53
704.531	3843.53
704.719	3964.36
704.907	3894.72
705.096	3861.96
705.284	3962.31
705.472	3929.54
705.661	4001.22
705.849	3900.87
706.037	3804.61
706.226	3818.95
706.414	3720.65
706.602	3730.89
706.79	3874.24
706.979	3780.04
707.167	3720.65
707.355	3675.59
707.543	3638.73
707.731	3806.66
707.919	3696.07
708.107	3718.6
708.296	3739.08
708.484	3593.67
708.672	3552.71
708.86	3612.1
709.048	3624.39
709.236	3565
709.424	3726.79
709.612	3565
709.8	3630.54
709.988	3521.99
710.176	3558.86
710.364	3696.07
710.551	3544.52
710.739	3501.51
710.927	3605.96
711.115	3485.13
711.303	3583.43
711.491	3513.8
711.679	3470.8
711.866	3438.03
712.054	3440.08
712.242	3392.97
712.43	3472.84
712.617	3476.94
712.805	3513.8
712.993	3272.14
713.181	3249.61
713.368	3302.86
713.556	3368.4
713.744	3309.01
713.931	3466.7
714.119	3421.64
714.306	3268.05
714.494	3245.52
714.682	3311.05
714.869	3302.86
715.057	3294.67
715.244	3253.71
715.432	3466.7
715.619	3270.09
715.807	3384.78
715.994	3220.94
716.182	3296.72
716.369	3329.49
716.556	3253.71
716.744	3249.61
716.931	3300.81
717.119	3171.79
717.306	3114.45
717.493	3198.42
717.681	3112.4
717.868	3087.82
718.055	3147.22
718.242	3110.35
718.43	3122.64
718.617	3165.65
718.804	3235.28
718.991	3083.73
719.179	3147.22
719.366	3124.69
719.553	3106.26
719.74	3036.63
719.927	3139.02
720.114	3042.77
720.301	3065.3
720.488	2983.38
720.676	2870.74
720.863	2930.13
721.05	3034.58
721.237	2969.04
721.424	2997.71
721.611	2985.43
721.798	2971.09
721.985	2948.56
722.172	2885.08
722.358	2895.32
722.545	3067.35
722.732	2895.32
722.919	2975.19
723.106	2954.71
723.293	2856.4
723.48	2862.55
723.667	2794.97
723.853	2975.19
724.04	2876.88
724.227	2876.88
724.414	2688.47
724.6	2778.58
724.787	2958.8
724.974	2758.1
725.161	2811.35
725.347	2778.58
725.534	2923.99
725.72	2954.71
725.907	2786.77
726.094	2934.23
726.28	2797.01
726.467	2891.22
726.653	2790.87
726.84	2665.94
727.027	2864.6
727.213	2717.14
727.4	2756.05
727.586	2663.9
727.773	2731.48
727.959	2616.79
728.145	2592.22
728.332	2698.71
728.518	2741.72
728.705	2661.85
728.891	2737.62
729.077	2631.13
729.264	2592.22
729.45	2715.09
729.636	2684.38
729.823	2639.32
730.009	2706.9
730.195	2606.55
730.382	2678.23
730.568	2518.49
730.754	2518.49
730.94	2485.72
731.126	2682.33
731.313	2647.51
731.499	2598.36
731.685	2631.13
731.871	2522.59
732.057	2608.6
732.243	2553.31
732.429	2532.83
732.615	2563.54
732.801	2614.74
732.987	2581.98
733.173	2534.87
733.359	2508.25
733.545	2606.55
733.731	2475.48
733.917	2598.36
734.103	2567.64
734.289	2569.69
734.475	2547.16
734.661	2424.28
734.847	2387.42
735.033	2491.87
735.219	2475.48
735.404	2422.24
735.59	2389.47
735.776	2483.67
735.962	2297.31
736.148	2377.18
736.333	2524.63
736.519	2401.76
736.705	2412
736.89	2395.61
737.076	2342.36
737.262	2342.36
737.447	2225.63
737.633	2395.61
737.819	2467.29
738.004	2414.04
738.19	2485.72
738.375	2291.17
738.561	2399.71
738.747	2285.02
738.932	2299.36
739.118	2262.49
739.303	2344.41
739.489	2328.03
739.674	2225.63
739.859	2270.69
740.045	2217.44
740.23	2205.15
740.416	2285.02
740.601	2164.19
740.786	2086.37
740.972	2213.34
741.157	2291.17
741.342	2182.62
741.528	2201.05
741.713	2229.73
741.898	2131.42
742.084	2280.93
742.269	2227.68
742.454	2190.81
742.639	2182.62
742.824	2174.43
743.01	2082.27
743.195	2256.35
743.38	2043.36
743.565	2041.31
743.75	2125.28
743.935	1897.96
744.12	2145.76
744.305	2110.94
744.49	2000.35
744.675	1988.07
744.86	2012.64
745.045	1983.97
745.23	1988.07
745.415	2008.55
745.6	2035.17
745.785	1922.53
745.97	1996.26
746.155	1926.63
746.34	1797.6
746.525	1783.27
746.71	2092.51
746.895	1828.32
747.079	1910.24
747.264	1904.1
747.449	1836.52
747.634	1906.15
747.819	1840.61
748.003	1840.61
748.188	1828.32
748.373	1893.86
748.557	1748.45
748.742	1852.9
748.927	1730.02
749.111	1748.45
749.296	1707.49
749.481	1697.25
749.665	1738.21
749.85	1715.69
750.034	1658.34
750.219	1742.31
750.404	1734.12
750.588	1607.14
750.773	1598.95
750.957	1662.44
751.141	1590.76
751.326	1598.95
751.51	1660.39
751.695	1619.43
751.879	1566.18
752.064	1582.57
752.248	1480.17
752.432	1709.54
752.617	1541.61
752.801	1570.28
752.985	1459.69
753.17	1584.62
753.354	1549.8
753.538	1459.69
753.722	1492.46
753.907	1437.16
754.091	1465.83
754.275	1398.25
754.459	1482.22
754.643	1402.35
754.828	1488.36
755.012	1390.06
755.196	1414.63
755.38	1381.87
755.564	1357.29
755.748	1353.2
755.932	1353.2
756.116	1318.38
756.3	1420.78
756.484	1394.15
756.668	1365.48
756.852	1328.62
757.036	1312.24
757.22	1213.93
757.404	1230.32
757.588	1314.28
757.772	1299.95
757.956	1250.8
758.14	1263.08
758.323	1209.84
758.507	1220.08
758.691	1269.23
758.875	1218.03
759.059	1172.97
759.242	1099.25
759.426	1082.86
759.61	1148.4
759.794	1166.83
759.977	1342.96
760.161	1295.85
760.345	1177.07
760.528	1179.12
760.712	1152.49
760.895	1189.36
761.079	1150.45
761.263	1043.95
761.446	1091.06
761.63	1084.91
761.813	1048.05
761.997	1025.52
762.18	1052.14
762.364	1041.9
762.547	1091.06
762.731	1111.54
762.914	1107.44
763.098	1033.71
763.281	1093.1
763.464	980.47
763.648	1043.95
763.831	943.6
764.015	968.18
764.198	1021.42
764.381	970.23
764.564	1041.9
764.748	1101.3
764.931	1117.68
765.114	972.27
765.297	1062.38
765.481	943.6
765.664	1062.38
765.847	1070.58
766.03	998.9
766.213	955.89
766.397	1041.9
766.58	880.11
766.763	1017.33
766.946	1058.29
767.129	982.51
767.312	1009.14
767.495	1056.24
767.678	1054.19
767.861	908.79
768.044	984.56
768.227	943.6
768.41	904.69
768.593	921.07
768.776	943.6
768.959	902.64
769.142	941.55
769.324	839.16
769.507	812.53
769.69	894.45
769.873	902.64
770.056	959.99
770.239	822.77
770.421	964.08
770.604	839.16
770.787	880.11
770.97	812.53
771.152	873.97
771.335	837.11
771.518	865.78
771.7	796.15
771.883	886.26
772.066	847.35
772.248	863.73
772.431	931.31
772.613	837.11
772.796	853.49
772.978	861.68
773.161	882.16
773.343	816.63
773.526	732.66
773.708	796.15
773.891	722.42
774.073	790
774.256	759.28
774.438	839.16
774.621	898.55
774.803	839.16
774.985	691.7
775.168	855.54
775.35	671.22
775.532	751.09
775.715	804.34
775.897	763.38
776.079	656.89
776.261	808.44
776.444	685.56
776.626	683.51
776.808	706.04
776.99	673.27
777.173	689.65
777.355	652.79
777.537	691.7
777.719	642.55
777.901	640.5
778.083	689.65
778.265	656.89
778.447	667.13
778.629	640.5
778.811	730.61
778.993	638.45
779.175	654.84
779.357	675.32
779.539	574.97
779.721	648.69
779.903	675.32
780.085	583.16
780.267	689.65
780.449	624.12
780.631	599.54
780.812	601.59
780.994	591.35
781.176	595.45
781.358	542.2
781.54	548.34
781.721	650.74
781.903	587.26
782.085	591.35
782.267	624.12
782.448	513.53
782.63	493.05
782.812	493.05
782.993	550.39
783.175	615.93
783.357	550.39
783.538	568.82
783.72	517.62
783.901	558.58
784.083	550.39
784.264	511.48
784.446	470.52
784.627	583.16
784.809	443.9
784.99	558.58
785.172	470.52
785.353	511.48
785.535	560.63
785.716	466.42
785.897	486.9
786.079	433.66
786.26	484.86
786.441	419.32
786.623	404.99
786.804	421.37
786.985	493.05
787.167	493.05
787.348	374.27
787.529	427.51
787.71	491
787.891	435.71
788.073	390.65
788.254	357.88
788.435	478.71
788.616	468.47
788.797	337.4
788.978	439.8
789.159	445.95
789.34	398.84
789.522	370.17
789.703	353.79
789.884	394.75
790.065	421.37
790.246	357.88
790.427	386.55
790.607	374.27
790.788	435.71
790.969	353.79
791.15	378.36
791.331	331.26
791.512	366.07
791.693	273.92
791.874	327.16
792.054	411.13
792.235	419.32
792.416	296.44
792.597	304.64
792.778	357.88
792.958	339.45
793.139	316.92
793.32	343.55
793.5	370.17
793.681	361.98
793.862	329.21
794.042	331.26
794.223	390.65
794.404	308.73
794.584	249.34
794.765	286.2
794.945	417.27
795.126	294.4
795.306	341.5
795.487	247.29
795.667	249.34
795.848	214.52
796.028	280.06
796.209	345.59
796.389	325.12
796.57	222.72
796.75	312.83
796.93	284.16
797.111	255.48
797.291	296.44
797.471	341.5
797.652	249.34
797.832	232.96
798.012	337.4
798.192	214.52
798.373	300.54
798.553	235
798.733	271.87
798.913	255.48
799.093	271.87
799.274	349.69
799.454	282.11
799.634	282.11
799.814	302.59
799.994	312.83
800.174	290.3
800.354	224.76
800.534	202.24
800.714	237.05
800.894	214.52
801.074	271.87
801.254	247.29
801.434	298.49
801.614	214.52
801.794	230.91
801.974	994.8
802.154	239.1
802.334	296.44
802.514	200.19
802.693	263.68
802.873	259.58
803.053	241.15
803.233	222.72
803.413	298.49
803.592	181.76
803.772	222.72
803.952	216.57
804.131	230.91
804.311	159.23
804.491	263.68
804.67	210.43
804.85	208.38
805.03	159.23
805.209	132.61
805.389	216.57
805.568	183.81
805.748	183.81
805.928	183.81
806.107	271.87
806.287	259.58
806.466	243.2
806.646	165.37
806.825	148.99
807.004	161.28
807.184	232.96
807.363	232.96
807.543	183.81
807.722	157.18
807.901	228.86
808.081	222.72
808.26	183.81
808.439	181.76
808.619	296.44
808.798	157.18
808.977	202.24
809.156	202.24
809.336	214.52
809.515	230.91
809.694	116.22
809.873	153.09
810.052	239.1
810.231	206.33
810.411	75.26
810.59	263.68
810.769	181.76
810.948	128.51
811.127	181.76
811.306	103.93
811.485	173.57
811.664	206.33
811.843	173.57
812.022	122.37
812.201	206.33
812.38	206.33
812.559	130.56
812.737	214.52
812.916	114.17
813.095	83.45
813.274	130.56
813.453	177.66
813.632	189.95
813.811	151.04
813.989	58.88
814.168	183.81
814.347	69.12
814.526	175.61
814.704	181.76
814.883	165.37
815.062	192
815.24	192
815.419	142.85
815.598	173.57
815.776	87.55
815.955	77.31
816.133	128.51
816.312	112.13
816.49	181.76
816.669	151.04
816.847	126.46
817.026	60.93
817.204	112.13
817.383	110.08
817.561	110.08
817.74	263.68
817.918	116.22
818.097	148.99
818.275	134.65
818.453	181.76
818.632	148.99
818.81	144.89
818.988	83.45
819.167	132.61
819.345	108.03
819.523	69.12
819.701	101.89
819.879	116.22
820.058	54.78
820.236	32.26
820.414	44.54
820.592	103.93
820.77	69.12
820.948	79.36
821.127	134.65
821.305	116.22
821.483	148.99
821.661	114.17
821.839	136.7
822.017	99.84
822.195	83.45
822.373	126.46
822.551	140.8
822.729	165.37
822.907	202.24
823.085	157.18
823.262	136.7
823.44	13.82
823.618	116.22
823.796	101.89
823.974	36.35
824.152	52.74
824.329	89.6
824.507	95.74
824.685	151.04
824.863	99.84
825.04	83.45
825.218	95.74
825.396	122.37
825.574	54.78
825.751	103.93
825.929	85.5
826.107	110.08
826.284	77.31
826.462	91.65
826.639	89.6
826.817	54.78
826.994	112.13
827.172	19.97
827.349	167.42
827.527	118.27
827.704	97.79
827.882	81.41
828.059	19.97
828.237	101.89
828.414	116.22
828.591	62.98
828.769	99.84
828.946	1.54
829.124	108.03
829.301	124.41
829.478	138.75
829.655	26.11
829.833	50.69
830.01	62.98
830.187	67.07
830.364	153.09
830.542	134.65
830.719	36.35
830.896	69.12
831.073	116.22
831.25	144.89
831.427	124.41
831.604	34.3
831.782	67.07
831.959	192
832.136	28.16
832.313	58.88
832.49	103.93
832.667	-4.61
832.844	15.87
833.021	83.45
833.198	75.26
833.374	91.65
833.551	89.6
833.728	56.83
833.905	130.56
834.082	17.92
834.259	95.74
834.436	62.98
834.612	38.4
834.789	62.98
834.966	85.5
835.143	71.17
835.319	40.45
835.496	71.17
835.673	75.26
835.85	124.41
836.026	28.16
836.203	122.37
836.38	118.27
836.556	15.87
836.733	99.84
836.909	189.95
837.086	71.17
837.262	62.98
837.439	28.16
837.616	42.5
837.792	83.45
837.968	108.03
838.145	22.02
838.321	-10.75
838.498	73.21
838.674	67.07
838.851	77.31
839.027	34.3
839.203	-10.75
839.38	85.5
839.556	69.12
839.732	69.12
839.909	91.65
840.085	62.98
840.261	17.92
840.437	140.8
840.614	54.78
840.79	140.8
840.966	126.46
841.142	42.5
841.318	-55.81
841.494	83.45
841.671	85.5
841.847	114.17
842.023	17.92
842.199	71.17
842.375	118.27
842.551	15.87
842.727	-12.8
842.903	151.04
843.079	42.5
843.255	91.65
843.431	50.69
843.607	-14.85
843.783	-20.99
843.959	42.5
844.134	-33.28
844.31	118.27
844.486	11.78
844.662	44.54
844.838	-18.94
845.013	99.84
845.189	-27.14
845.365	140.8
845.541	93.69
845.716	75.26
845.892	132.61
846.068	69.12
846.244	75.26
846.419	95.74
846.595	3.58
846.77	-27.14
846.946	13.82
847.122	42.5
847.297	75.26
847.473	79.36
847.648	-39.42
847.824	38.4
847.999	-2.56
848.175	30.21
848.35	-18.94
848.526	142.85
848.701	17.92
848.876	69.12
849.052	46.59
849.227	103.93
849.403	11.78
849.578	40.45
849.753	34.3
849.929	67.07
850.104	-14.85
850.279	28.16
850.454	62.98
850.63	83.45
850.805	38.4
850.98	112.13
851.155	-6.66
851.33	58.88
851.505	5.63
851.681	52.74
851.856	19.97
852.031	26.11
852.206	13.82
852.381	34.3
852.556	116.22
852.731	110.08
852.906	50.69
853.081	3.58
853.256	54.78
853.431	58.88
853.606	34.3
853.781	30.21
853.956	87.55
854.131	46.59
854.305	13.82
854.48	60.93
854.655	34.3
854.83	17.92
855.005	71.17
855.18	-47.62
855.354	19.97
855.529	5.63
855.704	3.58
855.879	30.21
856.053	-39.42
856.228	54.78
856.403	-10.75
856.577	71.17
856.752	-14.85
856.926	1.54
857.101	-12.8
857.276	19.97
857.45	77.31
857.625	77.31
857.799	22.02
857.974	1.54
858.148	-29.18
858.323	17.92
858.497	1.54
858.672	3.58
858.846	65.02
859.02	-37.38
859.195	34.3
859.369	60.93
859.543	28.16
859.718	26.11
859.892	56.83
860.066	73.21
860.241	-4.61
860.415	-45.57
860.589	30.21
860.763	28.16
860.938	9.73
861.112	26.11
861.286	-23.04
861.46	13.82
861.634	-0.51
861.808	5.63
861.982	-12.8
862.157	60.93
862.331	19.97
862.505	34.3
862.679	9.73
862.853	44.54
863.027	-12.8
863.201	91.65
863.375	-51.71
863.549	110.08
863.722	36.35
863.896	128.51
864.07	-37.38
864.244	-18.94
864.418	-74.24
864.592	26.11
864.766	28.16
864.939	22.02
865.113	-25.09
865.287	-4.61
865.461	-14.85
865.634	19.97
865.808	-18.94
865.982	-37.38
866.156	-18.94
866.329	-39.42
866.503	-6.66
866.676	50.69
866.85	42.5
867.024	-53.76
867.197	11.78
867.371	46.59
867.544	54.78
867.718	42.5
867.891	44.54
868.065	-4.61
868.238	-23.04
868.412	24.06
868.585	36.35
868.759	36.35
868.932	-39.42
869.105	5.63
869.279	17.92
869.452	-98.81
869.625	62.98
869.799	26.11
869.972	-27.14
870.145	11.78
870.319	58.88
870.492	46.59
870.665	11.78
870.838	62.98
871.011	-64
871.185	-14.85
871.358	44.54
871.531	75.26
871.704	38.4
871.877	56.83
872.05	-39.42
872.223	17.92
872.396	71.17
872.569	-47.62
872.742	-10.75
872.915	46.59
873.088	-16.9
873.261	17.92
873.434	36.35
873.607	-70.14
873.78	75.26
873.953	-23.04
874.126	1.54
874.299	5.63
874.471	17.92
874.644	-20.99
874.817	-18.94
874.99	17.92
875.163	46.59
875.335	50.69
875.508	54.78
875.681	91.65
875.853	30.21
876.026	17.92
876.199	46.59
876.371	50.69
876.544	93.69
876.717	-33.28
876.889	28.16
877.062	13.82
877.234	3.58
877.407	26.11
877.579	-14.85
877.752	-18.94
877.924	-10.75
878.097	22.02
878.269	-0.51
878.442	67.07
878.614	42.5
878.786	-14.85
878.959	50.69
879.131	19.97
879.303	-47.62
879.476	-8.7
879.648	3.58
879.82	44.54
879.993	-12.8
880.165	22.02
880.337	3.58
880.509	-6.66
880.681	-20.99
880.854	-2.56
881.026	5.63
881.198	99.84
881.37	-14.85
881.542	-2.56
881.714	-4.61
881.886	-41.47
882.058	-12.8
882.23	-14.85
882.402	-68.09
882.574	34.3
882.746	-39.42
882.918	42.5
883.09	-61.95
883.262	-51.71
883.434	-31.23
883.606	9.73
883.778	95.74
883.95	58.88
884.122	-35.33
884.293	91.65
884.465	-43.52
884.637	11.78
884.809	-64
884.98	26.11
885.152	34.3
885.324	9.73
885.496	-41.47
885.667	-12.8
885.839	56.83
886.011	99.84
886.182	30.21
886.354	54.78
886.525	1.54
886.697	-102.91
886.869	-20.99
887.04	22.02
887.212	15.87
887.383	67.07
887.555	-4.61
887.726	19.97
887.897	26.11
888.069	42.5
888.24	-6.66
888.412	-6.66
888.583	-90.62
888.754	-80.38
888.926	-80.38
889.097	-51.71
889.268	-23.04
889.44	-43.52
889.611	-47.62
889.782	9.73
889.953	7.68
890.125	22.02
890.296	-31.23
890.467	-51.71
890.638	-31.23
890.809	42.5
890.98	-39.42
891.151	30.21
891.323	-4.61
891.494	-39.42
891.665	5.63
891.836	36.35
892.007	-6.66
892.178	-18.94
892.349	17.92
892.52	-98.81
892.691	-14.85
892.862	-51.71
893.032	-41.47
893.203	-6.66
893.374	-6.66
893.545	-12.8
893.716	-39.42
893.887	-43.52
894.057	-64
894.228	19.97
894.399	-53.76
894.57	65.02
894.74	-43.52
894.911	-14.85
895.082	-35.33
895.253	36.35
895.423	-37.38
895.594	-68.09
895.764	1.54
895.935	5.63
896.106	11.78
896.276	69.12
896.447	9.73
896.617	-20.99
896.788	-23.04
896.958	34.3
897.129	-23.04
897.299	-12.8
897.47	17.92
897.64	22.02
897.81	42.5
897.981	-31.23
898.151	-80.38
898.322	44.54
898.492	-86.53
898.662	-31.23
898.832	-39.42
899.003	38.4
899.173	1.54
899.343	-37.38
899.513	1.54
