Data from USB4F104151__287__14-34-49-749.txt Node

Date: Thu Mar 13 14:34:49 EDT 2025
User: louis
Spectrometer: USB4F10415
Trigger mode: 4
Integration Time (sec): 2.500000E-2
Scans to average: 1
Electric dark correction enabled: true
Nonlinearity correction enabled: false
Boxcar width: 0
XAxis mode: Wavelengths
Number of Pixels in Spectrum: 3648
>>>>>Begin Spectral Data<<<<<
178.204	-131.41
178.424	-131.41
178.644	-131.41
178.864	-153.94
179.084	-147.8
179.304	-2.39
179.524	32.43
179.744	7.85
179.964	93.87
180.184	-35.16
180.404	-6.49
180.624	-2.39
180.844	-0.34
181.064	-29.01
181.283	-39.25
181.503	16.04
181.723	-35.16
181.943	-55.64
182.163	57
182.383	79.53
182.602	61.1
182.822	42.67
183.042	67.24
183.262	-43.35
183.482	30.38
183.701	71.34
183.921	71.34
184.141	-26.96
184.361	54.95
184.58	54.95
184.8	104.11
185.02	9.9
185.239	46.76
185.459	24.23
185.679	46.76
185.898	13.99
186.118	22.19
186.338	-12.63
186.557	48.81
186.777	46.76
186.997	32.43
187.216	22.19
187.436	63.15
187.655	-57.68
187.875	81.58
188.095	54.95
188.314	30.38
188.534	9.9
188.753	46.76
188.973	102.06
189.192	-6.49
189.412	38.57
189.631	50.86
189.851	44.71
190.07	73.39
190.29	-16.73
190.509	3.75
190.729	7.85
190.948	63.15
191.168	251.56
191.387	32.43
191.607	-2.39
191.826	79.53
192.045	22.19
192.265	48.81
192.484	22.19
192.704	65.19
192.923	46.76
193.142	122.54
193.362	85.67
193.581	132.78
193.8	-35.16
194.02	63.15
194.239	48.81
194.458	50.86
194.678	-0.34
194.897	30.38
195.116	20.14
195.335	57
195.555	24.23
195.774	18.09
195.993	7.85
196.212	9.9
196.432	73.39
196.651	46.76
196.87	48.81
197.089	104.11
197.308	114.34
197.528	73.39
197.747	-20.82
197.966	40.62
198.185	130.73
198.404	40.62
198.623	87.72
198.842	-18.77
199.062	71.34
199.281	22.19
199.5	-24.92
199.719	54.95
199.938	63.15
200.157	79.53
200.376	110.25
200.595	112.3
200.814	32.43
201.033	9.9
201.252	106.15
201.471	42.67
201.69	48.81
201.909	83.63
202.128	73.39
202.347	13.99
202.566	18.09
202.785	-14.68
203.004	-22.87
203.223	112.3
203.442	54.95
203.661	-10.58
203.879	22.19
204.098	32.43
204.317	40.62
204.536	59.05
204.755	32.43
204.974	38.57
205.193	18.09
205.411	177.83
205.63	5.8
205.849	71.34
206.068	97.96
206.287	-10.58
206.505	97.96
206.724	-22.87
206.943	95.91
207.162	18.09
207.381	63.15
207.599	24.23
207.818	79.53
208.037	13.99
208.255	134.82
208.474	-12.63
208.693	63.15
208.911	24.23
209.13	13.99
209.349	48.81
209.567	40.62
209.786	38.57
210.005	-39.25
210.223	128.68
210.442	32.43
210.661	132.78
210.879	1.71
211.098	50.86
211.316	11.95
211.535	46.76
211.753	13.99
211.972	-6.49
212.191	13.99
212.409	1.71
212.628	42.67
212.846	26.28
213.065	81.58
213.283	79.53
213.502	-0.34
213.72	38.57
213.938	42.67
214.157	-16.73
214.375	57
214.594	46.76
214.812	-26.96
215.031	95.91
215.249	-8.53
215.467	-22.87
215.686	120.49
215.904	-8.53
216.122	5.8
216.341	52.91
216.559	-41.3
216.778	122.54
216.996	30.38
217.214	30.38
217.432	38.57
217.651	40.62
217.869	9.9
218.087	79.53
218.306	59.05
218.524	120.49
218.742	-2.39
218.96	-4.44
219.179	22.19
219.397	-2.39
219.615	104.11
219.833	73.39
220.051	87.72
220.27	65.19
220.488	5.8
220.706	97.96
220.924	30.38
221.142	79.53
221.36	130.73
221.578	48.81
221.796	79.53
222.015	-8.53
222.233	71.34
222.451	136.87
222.669	24.23
222.887	24.23
223.105	32.43
223.323	40.62
223.541	-39.25
223.759	97.96
223.977	36.52
224.195	40.62
224.413	52.91
224.631	83.63
224.849	73.39
225.067	136.87
225.285	-24.92
225.503	42.67
225.721	-31.06
225.939	54.95
226.157	65.19
226.375	186.02
226.592	83.63
226.81	79.53
227.028	3.75
227.246	153.26
227.464	79.53
227.682	95.91
227.9	104.11
228.117	73.39
228.335	136.87
228.553	32.43
228.771	73.39
228.989	83.63
229.206	32.43
229.424	-26.96
229.642	24.23
229.86	30.38
230.077	63.15
230.295	13.99
230.513	-0.34
230.731	77.48
230.948	97.96
231.166	63.15
231.384	-26.96
231.601	81.58
231.819	18.09
232.037	-10.58
232.254	-2.39
232.472	50.86
232.689	46.76
232.907	79.53
233.125	30.38
233.342	-16.73
233.56	73.39
233.777	5.8
233.995	93.87
234.213	16.04
234.43	50.86
234.648	42.67
234.865	75.43
235.083	63.15
235.3	50.86
235.518	63.15
235.735	57
235.953	59.05
236.17	-10.58
236.388	-35.16
236.605	38.57
236.822	5.8
237.04	26.28
237.257	81.58
237.475	18.09
237.692	-8.53
237.909	32.43
238.127	63.15
238.344	59.05
238.562	104.11
238.779	22.19
238.996	24.23
239.214	34.47
239.431	48.81
239.648	18.09
239.865	44.71
240.083	63.15
240.3	102.06
240.517	-10.58
240.735	104.11
240.952	79.53
241.169	73.39
241.386	44.71
241.603	26.28
241.821	-18.77
242.038	30.38
242.255	-33.11
242.472	71.34
242.689	38.57
242.907	46.76
243.124	-2.39
243.341	42.67
243.558	-49.49
243.775	71.34
243.992	-29.01
244.209	71.34
244.426	124.58
244.643	26.28
244.86	32.43
245.078	34.47
245.295	9.9
245.512	71.34
245.729	3.75
245.946	48.81
246.163	32.43
246.38	30.38
246.597	73.39
246.814	1.71
247.031	32.43
247.248	-8.53
247.464	-29.01
247.681	83.63
247.898	38.57
248.115	79.53
248.332	20.14
248.549	81.58
248.766	79.53
248.983	52.91
249.2	50.86
249.417	106.15
249.633	38.57
249.85	48.81
250.067	16.04
250.284	100.01
250.501	104.11
250.717	57
250.934	-59.73
251.151	5.8
251.368	34.47
251.585	30.38
251.801	32.43
252.018	20.14
252.235	79.53
252.451	-57.68
252.668	38.57
252.885	32.43
253.102	83.63
253.318	40.62
253.535	40.62
253.752	-59.73
253.968	67.24
254.185	30.38
254.401	-24.92
254.618	71.34
254.835	48.81
255.051	46.76
255.268	24.23
255.484	42.67
255.701	16.04
255.917	145.06
256.134	46.76
256.351	22.19
256.567	22.19
256.784	91.82
257	28.33
257.217	91.82
257.433	114.34
257.65	-26.96
257.866	48.81
258.082	-18.77
258.299	-16.73
258.515	95.91
258.732	-2.39
258.948	-6.49
259.165	48.81
259.381	18.09
259.597	65.19
259.814	-10.58
260.03	5.8
260.246	18.09
260.463	79.53
260.679	48.81
260.895	89.77
261.112	36.52
261.328	30.38
261.544	-22.87
261.761	104.11
261.977	22.19
262.193	-8.53
262.409	71.34
262.626	11.95
262.842	104.11
263.058	108.2
263.274	87.72
263.49	106.15
263.707	89.77
263.923	63.15
264.139	69.29
264.355	34.47
264.571	48.81
264.787	-24.92
265.004	67.24
265.22	32.43
265.436	79.53
265.652	13.99
265.868	59.05
266.084	26.28
266.3	38.57
266.516	71.34
266.732	1.71
266.948	-51.54
267.164	63.15
267.38	75.43
267.596	57
267.812	67.24
268.028	97.96
268.244	24.23
268.46	13.99
268.676	-2.39
268.892	5.8
269.108	46.76
269.324	22.19
269.54	-6.49
269.756	122.54
269.972	112.3
270.188	46.76
270.403	-8.53
270.619	71.34
270.835	87.72
271.051	87.72
271.267	89.77
271.483	-65.88
271.698	73.39
271.914	18.09
272.13	59.05
272.346	75.43
272.562	50.86
272.777	87.72
272.993	59.05
273.209	5.8
273.425	5.8
273.64	-57.68
273.856	20.14
274.072	79.53
274.287	5.8
274.503	81.58
274.719	63.15
274.934	16.04
275.15	-31.06
275.366	-2.39
275.581	46.76
275.797	104.11
276.012	38.57
276.228	46.76
276.444	9.9
276.659	26.28
276.875	-29.01
277.09	71.34
277.306	46.76
277.521	97.96
277.737	-8.53
277.952	73.39
278.168	22.19
278.383	79.53
278.599	9.9
278.814	65.19
279.03	42.67
279.245	81.58
279.461	46.76
279.676	114.34
279.892	30.38
280.107	-14.68
280.322	-14.68
280.538	67.24
280.753	-8.53
280.969	16.04
281.184	-10.58
281.399	136.87
281.615	24.23
281.83	36.52
282.045	50.86
282.26	7.85
282.476	-24.92
282.691	104.11
282.906	-16.73
283.122	42.67
283.337	-31.06
283.552	95.91
283.767	20.14
283.983	5.8
284.198	40.62
284.413	71.34
284.628	26.28
284.843	54.95
285.058	52.91
285.274	34.47
285.489	16.04
285.704	61.1
285.919	44.71
286.134	91.82
286.349	-26.96
286.564	7.85
286.779	75.43
286.995	89.77
287.21	34.47
287.425	69.29
287.64	65.19
287.855	63.15
288.07	13.99
288.285	126.63
288.5	5.8
288.715	52.91
288.93	40.62
289.145	85.67
289.36	46.76
289.575	79.53
289.79	71.34
290.004	81.58
290.219	54.95
290.434	116.39
290.649	73.39
290.864	46.76
291.079	71.34
291.294	67.24
291.509	83.63
291.724	13.99
291.938	75.43
292.153	91.82
292.368	59.05
292.583	13.99
292.798	50.86
293.012	59.05
293.227	20.14
293.442	46.76
293.657	50.86
293.871	140.97
294.086	7.85
294.301	50.86
294.516	75.43
294.73	104.11
294.945	-8.53
295.16	83.63
295.374	-8.53
295.589	65.19
295.804	-18.77
296.018	32.43
296.233	93.87
296.447	9.9
296.662	75.43
296.877	7.85
297.091	36.52
297.306	57
297.52	116.39
297.735	85.67
297.949	69.29
298.164	59.05
298.378	16.04
298.593	36.52
298.807	26.28
299.022	-0.34
299.236	79.53
299.451	71.34
299.665	-2.39
299.88	-0.34
300.094	42.67
300.309	13.99
300.523	57
300.737	-10.58
300.952	87.72
301.166	32.43
301.381	-10.58
301.595	65.19
301.809	95.91
302.024	42.67
302.238	30.38
302.452	100.01
302.667	79.53
302.881	100.01
303.095	30.38
303.309	140.97
303.524	95.91
303.738	38.57
303.952	71.34
304.166	44.71
304.381	-92.5
304.595	81.58
304.809	-26.96
305.023	73.39
305.237	85.67
305.452	-2.39
305.666	89.77
305.88	63.15
306.094	114.34
306.308	18.09
306.522	36.52
306.736	93.87
306.95	28.33
307.164	42.67
307.379	32.43
307.593	34.47
307.807	124.58
308.021	54.95
308.235	87.72
308.449	3.75
308.663	104.11
308.877	171.69
309.091	5.8
309.305	110.25
309.519	-31.06
309.733	97.96
309.947	-35.16
310.161	104.11
310.374	40.62
310.588	46.76
310.802	-63.83
311.016	-10.58
311.23	87.72
311.444	-2.39
311.658	120.49
311.872	114.34
312.085	71.34
312.299	69.29
312.513	87.72
312.727	30.38
312.941	34.47
313.154	-18.77
313.368	54.95
313.582	71.34
313.796	104.11
314.009	-16.73
314.223	57
314.437	-24.92
314.651	30.38
314.864	38.57
315.078	36.52
315.292	32.43
315.505	71.34
315.719	46.76
315.933	30.38
316.146	104.11
316.36	9.9
316.573	95.91
316.787	91.82
317.001	22.19
317.214	-20.82
317.428	-0.34
317.641	-0.34
317.855	-8.53
318.068	83.63
318.282	93.87
318.495	97.96
318.709	63.15
318.922	108.2
319.136	163.5
319.349	81.58
319.563	-2.39
319.776	87.72
319.99	16.04
320.203	97.96
320.417	124.58
320.63	102.06
320.843	100.01
321.057	42.67
321.27	73.39
321.483	73.39
321.697	54.95
321.91	3.75
322.124	100.01
322.337	71.34
322.55	9.9
322.763	-29.01
322.977	46.76
323.19	59.05
323.403	114.34
323.617	73.39
323.83	40.62
324.043	38.57
324.256	136.87
324.469	22.19
324.683	50.86
324.896	18.09
325.109	16.04
325.322	54.95
325.535	-2.39
325.748	81.58
325.962	22.19
326.175	22.19
326.388	26.28
326.601	95.91
326.814	34.47
327.027	-12.63
327.24	161.45
327.453	-20.82
327.666	75.43
327.879	67.24
328.092	34.47
328.305	18.09
328.518	38.57
328.731	13.99
328.944	48.81
329.157	-2.39
329.37	38.57
329.583	40.62
329.796	75.43
330.009	30.38
330.222	83.63
330.435	75.43
330.648	24.23
330.861	-47.44
331.073	128.68
331.286	100.01
331.499	128.68
331.712	24.23
331.925	91.82
332.138	13.99
332.35	40.62
332.563	38.57
332.776	161.45
332.989	34.47
333.202	57
333.414	-8.53
333.627	28.33
333.84	75.43
334.053	67.24
334.265	-2.39
334.478	-29.01
334.691	136.87
334.903	24.23
335.116	91.82
335.329	48.81
335.541	-16.73
335.754	97.96
335.966	95.91
336.179	18.09
336.392	30.38
336.604	42.67
336.817	106.15
337.029	50.86
337.242	95.91
337.454	91.82
337.667	65.19
337.88	73.39
338.092	32.43
338.305	124.58
338.517	59.05
338.729	79.53
338.942	112.3
339.154	-0.34
339.367	-0.34
339.579	87.72
339.792	-18.77
340.004	63.15
340.217	-24.92
340.429	1.71
340.641	-45.4
340.854	-10.58
341.066	-0.34
341.278	54.95
341.491	120.49
341.703	122.54
341.915	-92.5
342.128	46.76
342.34	30.38
342.552	1.71
342.764	46.76
342.977	85.67
343.189	32.43
343.401	59.05
343.613	22.19
343.826	-2.39
344.038	-6.49
344.25	97.96
344.462	28.33
344.674	9.9
344.886	91.82
345.099	145.06
345.311	59.05
345.523	40.62
345.735	-10.58
345.947	87.72
346.159	106.15
346.371	-57.68
346.583	48.81
346.795	159.4
347.007	-31.06
347.219	26.28
347.431	73.39
347.643	149.16
347.855	26.28
348.067	134.82
348.279	50.86
348.491	95.91
348.703	52.91
348.915	5.8
349.127	38.57
349.339	71.34
349.551	32.43
349.763	16.04
349.975	87.72
350.187	120.49
350.399	112.3
350.61	112.3
350.822	104.11
351.034	57
351.246	65.19
351.458	-2.39
351.669	5.8
351.881	71.34
352.093	87.72
352.305	34.47
352.517	50.86
352.728	30.38
352.94	136.87
353.152	63.15
353.363	13.99
353.575	-2.39
353.787	106.15
353.999	46.76
354.21	46.76
354.422	54.95
354.633	16.04
354.845	81.58
355.057	42.67
355.268	-24.92
355.48	59.05
355.692	24.23
355.903	46.76
356.115	95.91
356.326	9.9
356.538	161.45
356.749	16.04
356.961	153.26
357.172	71.34
357.384	38.57
357.595	128.68
357.807	54.95
358.018	54.95
358.23	108.2
358.441	97.96
358.653	22.19
358.864	36.52
359.075	30.38
359.287	95.91
359.498	63.15
359.709	75.43
359.921	42.67
360.132	16.04
360.344	85.67
360.555	79.53
360.766	40.62
360.977	18.09
361.189	112.3
361.4	-35.16
361.611	75.43
361.823	89.77
362.034	50.86
362.245	22.19
362.456	79.53
362.667	130.73
362.879	16.04
363.09	11.95
363.301	46.76
363.512	83.63
363.723	93.87
363.935	34.47
364.146	128.68
364.357	38.57
364.568	34.47
364.779	13.99
364.99	59.05
365.201	81.58
365.412	67.24
365.623	13.99
365.834	40.62
366.045	46.76
366.256	110.25
366.467	83.63
366.678	-0.34
366.889	-2.39
367.1	128.68
367.311	71.34
367.522	28.33
367.733	93.87
367.944	85.67
368.155	30.38
368.366	106.15
368.577	95.91
368.788	38.57
368.999	157.35
369.209	13.99
369.42	136.87
369.631	95.91
369.842	97.96
370.053	65.19
370.264	130.73
370.474	7.85
370.685	54.95
370.896	24.23
371.107	186.02
371.317	59.05
371.528	181.93
371.739	71.34
371.95	114.34
372.16	81.58
372.371	46.76
372.582	40.62
372.792	32.43
373.003	71.34
373.214	73.39
373.424	95.91
373.635	22.19
373.846	155.3
374.056	116.39
374.267	57
374.477	136.87
374.688	30.38
374.898	1.71
375.109	136.87
375.319	106.15
375.53	169.64
375.74	38.57
375.951	-10.58
376.161	50.86
376.372	104.11
376.582	52.91
376.793	48.81
377.003	11.95
377.214	-26.96
377.424	130.73
377.635	52.91
377.845	30.38
378.055	106.15
378.266	54.95
378.476	67.24
378.686	118.44
378.897	32.43
379.107	153.26
379.317	83.63
379.528	85.67
379.738	30.38
379.948	57
380.158	32.43
380.369	54.95
380.579	73.39
380.789	97.96
380.999	48.81
381.21	132.78
381.42	159.4
381.63	16.04
381.84	18.09
382.05	73.39
382.261	79.53
382.471	122.54
382.681	104.11
382.891	77.48
383.101	149.16
383.311	38.57
383.521	122.54
383.731	118.44
383.941	95.91
384.151	57
384.361	106.15
384.571	-16.73
384.781	136.87
384.991	54.95
385.201	97.96
385.411	24.23
385.621	54.95
385.831	63.15
386.041	95.91
386.251	132.78
386.461	38.57
386.671	34.47
386.881	130.73
387.091	24.23
387.301	30.38
387.511	87.72
387.72	95.91
387.93	38.57
388.14	63.15
388.35	87.72
388.56	5.8
388.769	120.49
388.979	130.73
389.189	20.14
389.399	63.15
389.609	32.43
389.818	91.82
390.028	83.63
390.238	136.87
390.447	104.11
390.657	81.58
390.867	61.1
391.076	89.77
391.286	9.9
391.496	87.72
391.705	77.48
391.915	75.43
392.125	188.07
392.334	59.05
392.544	145.06
392.753	54.95
392.963	26.28
393.172	83.63
393.382	77.48
393.591	128.68
393.801	59.05
394.01	173.74
394.22	48.81
394.429	143.02
394.639	159.4
394.848	71.34
395.058	18.09
395.267	83.63
395.477	145.06
395.686	145.06
395.895	157.35
396.105	87.72
396.314	100.01
396.524	77.48
396.733	75.43
396.942	202.41
397.152	89.77
397.361	42.67
397.57	138.92
397.78	89.77
397.989	161.45
398.198	173.74
398.407	114.34
398.617	116.39
398.826	136.87
399.035	87.72
399.244	220.84
399.453	140.97
399.663	73.39
399.872	208.55
400.081	122.54
400.29	226.98
400.499	46.76
400.708	163.5
400.917	169.64
401.127	147.11
401.336	30.38
401.545	183.98
401.754	136.87
401.963	237.22
402.172	161.45
402.381	153.26
402.59	114.34
402.799	218.79
403.008	112.3
403.217	136.87
403.426	128.68
403.635	118.44
403.844	210.6
404.053	153.26
404.262	179.88
404.471	253.61
404.68	134.82
404.888	171.69
405.097	194.22
405.306	177.83
405.515	208.55
405.724	181.93
405.933	220.84
406.142	226.98
406.35	251.56
406.559	210.6
406.768	265.89
406.977	261.8
407.185	251.56
407.394	245.41
407.603	269.99
407.812	278.18
408.02	315.05
408.229	263.85
408.438	272.04
408.646	251.56
408.855	317.09
409.064	278.18
409.272	386.72
409.481	341.67
409.69	356.01
409.898	349.86
410.107	370.34
410.315	374.44
410.524	325.29
410.733	415.4
410.941	409.25
411.15	523.94
411.358	472.74
411.567	407.2
411.775	448.16
411.984	448.16
412.192	546.47
412.401	493.22
412.609	603.81
412.818	644.77
413.026	630.43
413.234	663.2
413.443	646.82
413.651	652.96
413.86	751.26
414.068	722.59
414.276	855.71
414.485	816.8
414.693	808.61
414.901	837.28
415.11	843.42
415.318	824.99
415.526	849.57
415.734	824.99
415.943	945.82
416.151	1087.13
416.359	988.83
416.567	990.88
416.776	1095.32
416.984	1244.82
417.192	1244.82
417.4	1267.35
417.608	1099.42
417.817	1291.93
418.025	1414.81
418.233	1416.85
418.441	1416.85
418.649	1439.38
418.857	1611.41
419.065	1564.31
419.273	1678.99
419.481	1627.79
419.689	1859.21
419.897	1810.06
420.105	1848.97
420.313	1918.61
420.521	2082.44
420.729	2078.35
420.937	2072.2
421.145	2119.31
421.353	2119.31
421.561	2463.37
421.769	2420.36
421.977	2537.09
422.185	2625.15
422.393	2567.81
422.601	2762.37
422.809	2780.8
423.017	2774.66
423.224	2901.63
423.432	2864.77
423.64	3112.57
423.848	3419.77
424.056	3161.72
424.263	3507.83
424.471	3376.76
424.679	3450.49
424.887	3602.04
425.094	3921.52
425.302	3915.37
425.51	3839.6
425.718	4187.75
425.925	4214.38
426.133	4404.84
426.341	4712.03
426.548	4664.93
426.756	4755.04
426.964	4816.48
427.171	5166.68
427.379	5240.41
427.586	5359.19
427.794	5488.21
428.001	5682.77
428.209	5987.92
428.417	5930.58
428.624	6331.98
428.832	6291.02
429.039	6078.03
429.247	6231.63
429.454	6688.32
429.662	7261.76
429.869	6809.15
430.076	7329.34
430.284	7138.88
430.491	7339.58
430.699	7833.14
430.906	7853.62
431.114	7837.24
431.321	8189.49
431.528	8406.57
431.736	8773.16
431.943	9297.44
432.15	8926.75
432.358	9141.79
432.565	9780.76
432.772	9612.82
432.979	10116.62
433.187	10235.41
433.394	10214.93
433.601	10987.01
433.808	11044.35
434.016	11073.03
434.223	11251.2
434.43	11990.52
434.637	11787.77
434.844	12477.93
435.052	12580.33
435.259	12674.54
435.466	12807.66
435.673	12754.41
435.88	13387.23
436.087	14382.54
436.294	14005.72
436.501	13637.08
436.708	14104.02
436.915	14413.26
437.122	15085
437.329	15185.35
437.537	15476.16
437.743	16037.3
437.95	15855.03
438.157	16885.16
438.364	17194.4
438.571	17231.27
438.778	17110.44
438.985	18748.81
439.192	17872.28
439.399	18634.13
439.606	18036.12
439.813	19322.24
440.02	20323.7
440.227	19721.6
440.433	19809.66
440.64	20512.11
440.847	20346.23
441.054	20757.87
441.261	22189.4
441.467	21812.57
441.674	22347.09
441.881	23065.93
442.088	23022.92
442.294	22768.98
442.501	23371.08
442.708	23672.13
442.914	25017.64
443.121	25705.76
443.328	25204.01
443.534	27178.25
443.741	26197.27
443.948	25885.98
444.154	27610.37
444.361	27667.72
444.568	27886.85
444.774	27534.6
444.981	28185.85
445.187	28425.46
445.394	30160.09
445.6	29504.74
445.807	32265.41
446.013	30844.12
446.22	31671.5
446.426	32883.89
446.633	33143.98
446.839	34116.77
447.046	32644.28
447.252	34903.19
447.459	34632.86
447.665	34471.07
447.871	36228.23
448.078	37637.23
448.284	35662.99
448.491	36701.31
448.697	38138.98
448.903	38575.2
449.11	38472.8
449.316	37956.71
449.522	39185.49
449.728	39857.23
449.935	40186.95
450.141	40524.86
450.347	41151.54
450.553	39883.85
450.76	40379.46
450.966	41462.83
451.172	41206.84
451.378	42427.43
451.584	41409.59
451.791	42474.53
451.997	42384.42
452.203	43222.04
452.409	43119.64
452.615	42593.31
452.821	41385.01
453.027	40725.57
453.233	42763.29
453.44	41299
453.646	41524.27
453.852	41985.07
454.058	42486.82
454.264	41077.82
454.47	41815.08
454.676	40840.25
454.882	42185.77
455.088	38667.36
455.294	39152.73
455.5	39955.53
455.705	40002.63
455.911	38558.81
456.117	37733.48
456.323	37710.96
456.529	35247.25
456.735	37293.17
456.941	36064.39
457.147	35292.3
457.352	34751.64
457.558	34008.23
457.764	34022.56
457.97	33373.36
458.176	32718.01
458.381	32914.61
458.587	31331.53
458.793	30629.08
458.999	29492.46
459.204	32001.22
459.41	30837.97
459.616	28810.48
459.821	28749.04
460.027	28722.42
460.233	28044.54
460.438	26563.86
460.644	26971.41
460.85	25709.86
461.055	25255.21
461.261	25593.12
461.466	23342.41
461.672	22400.34
461.878	24249.66
462.083	22682.96
462.289	22203.74
462.494	22248.79
462.7	21146.98
462.905	20555.12
463.111	21089.64
463.316	21099.88
463.522	20571.5
463.727	20690.29
463.932	20467.06
464.138	20417.91
464.343	20387.19
464.549	20071.8
464.754	20573.55
464.959	20434.29
465.165	20209.01
465.37	19117.45
465.575	18865.55
465.781	19369.35
465.986	19449.22
466.191	19211.65
466.397	18658.7
466.602	17663.39
466.807	18359.7
467.012	18419.09
467.218	18208.15
467.423	18050.46
467.628	18400.66
467.833	18736.52
468.038	18191.77
468.244	17610.14
468.449	18304.4
468.654	17618.33
468.859	17456.54
469.064	17495.46
469.269	16723.37
469.474	17055.14
469.679	16987.56
469.885	17046.95
470.09	16778.67
470.295	16872.87
470.5	16176.56
470.705	16639.4
470.91	16143.8
471.115	15996.34
471.32	16401.84
471.525	16139.7
471.73	15633.85
471.935	15676.86
472.139	15220.16
472.344	15048.13
472.549	15195.59
472.754	15097.28
472.959	14853.58
473.164	14251.47
473.369	14210.51
473.574	14853.58
473.778	14802.38
473.983	14413.26
474.188	14249.43
474.393	13575.64
474.598	13856.22
474.802	13649.37
475.007	13868.5
475.212	13596.12
475.417	13268.45
475.621	12928.49
475.826	13239.78
476.031	13000.16
476.235	12678.63
476.44	12826.09
476.645	12647.91
476.849	12719.59
477.054	12531.18
477.259	12072.43
477.463	12066.29
477.668	11806.2
477.872	12213.74
478.077	11648.5
478.282	11746.81
478.486	11617.79
478.691	11509.24
478.895	11597.31
479.1	11507.2
479.304	11490.81
479.509	11040.26
479.713	11331.07
479.918	10909.19
480.122	10896.9
480.326	10890.76
480.531	11050.5
480.735	10919.43
480.94	10497.55
481.144	11064.83
481.348	10554.89
481.553	10696.2
481.757	10573.32
481.961	10569.23
482.166	10851.85
482.37	10673.67
482.574	10567.18
482.778	10524.17
482.983	10458.64
483.187	10546.7
483.391	10565.13
483.595	10401.29
483.8	10364.43
484.004	10649.1
484.208	10640.9
484.412	10499.59
484.616	10515.98
484.821	10395.15
485.025	10407.44
485.229	10606.09
485.433	10114.58
485.637	10376.72
485.841	10405.39
486.045	10395.15
486.249	10360.33
486.453	10405.39
486.657	10413.58
486.861	10374.67
487.065	10114.58
487.269	10491.4
487.473	10368.52
487.677	10386.96
487.881	10677.77
488.085	10253.84
488.289	10620.42
488.493	10331.66
488.697	10364.43
488.901	10532.36
489.105	10470.92
489.309	10417.68
489.512	10442.25
489.716	10565.13
489.92	10507.79
490.124	10411.53
490.328	10589.71
490.531	10532.36
490.735	10409.48
490.939	10696.2
491.143	10632.71
491.346	10761.73
491.55	10626.57
491.754	10675.72
491.958	10843.65
492.161	10735.11
492.365	10839.56
492.569	10819.08
492.772	10810.89
492.976	10870.28
493.18	11097.6
493.383	11083.27
493.587	11195.9
493.79	11460.09
493.994	11087.36
494.197	11433.47
494.401	11476.48
494.605	11572.73
494.808	11503.1
495.012	11556.35
495.215	11580.92
495.419	11703.8
495.622	11546.11
495.825	11695.61
496.029	11970.04
496.232	11984.37
496.436	11875.83
496.639	12195.31
496.843	12281.33
497.046	12572.14
497.249	12627.43
497.453	12549.61
497.656	12604.91
497.859	12725.74
498.063	12987.88
498.266	13133.28
498.469	13198.82
498.673	13307.36
498.876	13268.45
499.079	13458.91
499.282	13338.08
499.485	13807.06
499.689	13854.17
499.892	14136.79
500.095	13964.76
500.298	14378.45
500.501	14249.43
500.705	14650.83
500.908	14843.34
501.111	14892.49
501.314	14902.73
501.517	14978.5
501.72	15406.53
501.923	15482.3
502.126	15889.85
502.329	15869.37
502.532	16119.22
502.735	15930.81
502.938	16342.45
503.141	16305.59
503.344	16563.63
503.547	16588.21
503.75	16754.09
503.953	17053.09
504.156	17071.53
504.359	17366.43
504.562	17339.81
504.765	17720.73
504.968	17943.96
505.17	18185.62
505.373	18083.22
505.576	18275.73
505.779	18728.33
505.982	18697.61
506.185	19330.44
506.387	19021.19
506.59	19371.4
506.793	19914.11
506.996	19783.04
507.198	20176.25
507.401	20106.62
507.604	20362.61
507.807	20559.22
508.009	20407.67
508.212	20858.22
508.415	21214.57
508.617	21108.07
508.82	21415.27
509.022	21245.29
509.225	21720.42
509.428	22070.62
509.63	22218.07
509.833	22560.08
510.035	22867.28
510.238	23055.69
510.44	23229.77
510.643	23659.84
510.845	23491.91
511.048	23543.11
511.25	23960.89
511.453	23805.25
511.655	24753.46
511.858	24436.02
512.06	24905.01
512.262	25058.6
512.465	24974.64
512.667	25476.39
512.87	25871.65
513.072	25541.92
513.274	26295.58
513.477	26336.54
513.679	26862.86
513.881	27063.57
514.084	27125
514.286	27397.38
514.488	27456.78
514.69	27798.79
514.893	28300.54
515.095	28314.87
515.297	28361.98
515.499	28701.94
515.701	28695.8
515.904	29392.11
516.106	29607.14
516.308	29734.12
516.51	29633.77
516.712	29936.87
516.914	30035.17
517.116	30782.68
517.318	30600.41
517.52	31030.48
517.722	30852.31
517.925	31669.45
518.127	31751.37
518.329	32089.28
518.531	31683.78
518.733	32525.5
518.935	32574.65
519.136	32574.65
519.338	32801.97
519.54	32857.27
519.742	33422.51
519.944	33637.55
520.146	34026.66
520.348	34276.51
520.55	34225.31
520.752	34229.41
520.954	34768.02
521.155	34213.02
521.357	35058.84
521.559	35011.73
521.761	35736.71
521.963	35411.09
522.164	35929.22
522.366	35556.49
522.568	36244.61
522.77	36179.07
522.971	36844.66
523.173	36234.37
523.375	36772.99
523.576	36842.62
523.778	37004.41
523.98	37485.68
524.181	37366.9
524.383	37471.34
524.584	37538.93
524.786	37487.73
524.988	37452.91
525.189	37729.39
525.391	38159.46
525.592	38081.64
525.794	38124.64
525.995	38050.92
526.197	38411.36
526.398	38276.19
526.6	38724.7
526.801	38726.75
527.003	38595.68
527.204	38409.31
527.406	38788.19
527.607	38626.4
527.808	39259.22
528.01	38300.77
528.211	38675.55
528.412	39547.98
528.614	39136.34
528.815	39238.74
529.016	39593.04
529.218	38855.77
529.419	39189.59
529.62	39099.48
529.822	39230.55
530.023	39218.26
530.224	39230.55
530.425	39312.47
530.626	38587.49
530.828	38497.38
531.029	39158.87
531.23	38898.78
531.431	39369.81
531.632	39296.08
531.833	38966.36
532.035	39316.56
532.236	38947.93
532.437	38831.19
532.638	38736.99
532.839	39334.99
533.04	39398.48
533.241	38577.25
533.442	39251.03
533.643	38964.31
533.844	39146.58
534.045	39103.57
534.246	38472.8
534.447	38857.82
534.648	38714.46
534.849	38714.46
535.05	38382.69
535.251	38423.65
535.451	38505.57
535.652	38964.31
535.853	38325.35
536.054	38896.73
536.255	38779.99
536.456	37985.38
536.657	38802.52
536.857	38603.87
537.058	38284.39
537.259	38753.37
537.46	38470.75
537.66	38112.36
537.861	37960.81
538.062	38292.58
538.263	38151.27
538.463	37889.13
538.664	38177.89
538.865	38192.23
539.065	38141.03
539.266	37784.68
539.466	38126.69
539.667	37534.83
539.868	38192.23
540.068	37975.14
540.269	38128.74
540.469	38208.61
540.67	37921.9
540.87	38108.26
541.071	37848.17
541.271	37971.05
541.472	37743.72
541.672	38014.05
541.873	37747.82
542.073	37254.26
542.274	37954.66
542.474	37803.11
542.675	37643.37
542.875	37649.52
543.075	37583.98
543.276	36902.01
543.476	38012.01
543.676	37340.27
543.877	37407.86
544.077	37659.76
544.277	37342.32
544.478	37563.5
544.678	37522.54
544.878	37598.32
545.078	37760.11
545.279	37301.36
545.479	37309.55
545.679	37538.93
545.879	37231.73
546.079	37166.2
546.28	37661.8
546.48	37028.98
546.68	37694.57
546.88	37217.39
547.08	37512.3
547.28	37543.02
547.48	37471.34
547.68	37565.55
547.88	36932.73
548.081	37059.7
548.281	37233.78
548.481	37135.48
548.681	37385.33
548.881	37268.59
549.081	37450.86
549.28	37241.97
549.48	37487.73
549.68	37239.92
549.88	37766.25
550.08	37188.72
550.28	37244.02
550.48	37557.36
550.68	37995.62
550.88	36902.01
551.08	37262.45
551.279	37702.76
551.479	37524.59
551.679	37504.11
551.879	37424.24
552.079	37925.99
552.278	37321.84
552.478	37594.22
552.678	37852.27
552.878	37751.91
553.077	37471.34
553.277	37106.8
553.477	37964.9
553.676	37315.7
553.876	37891.18
554.076	37053.56
554.275	37536.88
554.475	37209.2
554.674	37829.74
554.874	37710.96
555.074	37774.44
555.273	37649.52
555.473	37786.73
555.672	37561.45
555.872	37407.86
556.071	37516.4
556.271	37772.39
556.47	37905.51
556.67	37323.89
556.869	37432.43
557.068	37813.35
557.268	37631.08
557.467	37448.82
557.667	38016.1
557.866	37782.63
558.065	37487.73
558.265	37356.66
558.464	37282.93
558.663	38003.81
558.863	37381.23
559.062	37973.1
559.261	37379.18
559.461	38179.94
559.66	37325.94
559.859	37661.8
560.058	37436.53
560.258	37543.02
560.457	37432.43
560.656	37801.07
560.855	37588.08
561.054	37868.65
561.253	37616.75
561.453	37497.97
561.652	37270.64
561.851	38001.77
562.05	37715.05
562.249	37258.35
562.448	37762.15
562.647	37522.54
562.846	37651.56
563.045	37366.9
563.244	37162.1
563.443	37489.77
563.642	37332.08
563.841	37448.82
564.04	36877.43
564.239	37811.31
564.438	37260.4
564.637	36537.47
564.836	37442.67
565.035	37262.45
565.234	37311.6
565.432	36985.97
565.631	37022.84
565.83	36914.3
566.029	36680.83
566.228	36965.49
566.427	36553.85
566.625	36527.23
566.824	36541.57
567.023	36760.7
567.222	36592.76
567.42	36707.45
567.619	36791.42
567.818	36385.92
568.016	36664.44
568.215	36598.91
568.414	36238.47
568.612	36867.19
568.811	36238.47
569.01	36469.89
569.208	35712.14
569.407	36289.66
569.605	35703.95
569.804	35857.54
570.002	36066.44
570.201	35599.5
570.4	35615.88
570.598	35417.23
570.797	35695.75
570.995	35681.42
571.193	35290.26
571.392	36033.67
571.59	35144.85
571.789	35187.86
571.987	35234.96
572.186	35343.5
572.384	34811.03
572.582	35028.12
572.781	35013.78
572.979	34823.32
573.177	34909.33
573.376	34874.52
573.574	34428.06
573.772	34356.38
573.971	34557.08
574.169	34350.24
574.367	34071.71
574.565	34186.4
574.763	34229.41
574.962	33952.93
575.16	33850.53
575.358	33971.36
575.556	33731.75
575.754	34180.26
575.952	33162.42
576.151	33684.65
576.349	32844.98
576.547	33273.01
576.745	33275.05
576.943	33160.37
577.141	33113.27
577.339	33332.4
577.537	33088.69
577.735	32832.69
577.933	33037.49
578.131	32935.09
578.329	32677.05
578.527	32724.15
578.725	32822.45
578.923	32736.44
579.121	32158.91
579.319	32519.35
579.516	32715.96
579.714	32206.02
579.912	31880.39
580.11	31923.4
580.308	32076.99
580.506	31861.96
580.704	31087.82
580.901	31792.33
581.099	32023.75
581.297	31311.05
581.495	31716.55
581.692	31612.1
581.89	31296.72
582.088	31669.45
582.285	31294.67
582.483	31517.9
582.681	31024.34
582.878	31053.01
583.076	30758.1
583.274	31100.11
583.471	30788.82
583.669	30639.32
583.866	30651.61
584.064	30893.27
584.262	30459.1
584.459	30641.37
584.657	30688.47
584.854	30837.97
585.052	30057.7
585.249	30407.9
585.447	30332.12
585.644	29684.97
585.841	30133.47
586.039	30149.85
586.236	30016.74
586.434	29551.85
586.631	29547.75
586.828	29973.73
587.026	29400.3
587.223	29517.03
587.42	29533.42
587.618	29666.53
587.815	29293.8
588.012	29013.23
588.21	29058.29
588.407	29416.68
588.604	29181.17
588.801	29103.34
588.999	29224.17
589.196	28749.04
589.393	28972.27
589.59	28558.58
589.787	28792.05
589.984	28724.47
590.182	28370.17
590.379	28556.53
590.576	28284.16
590.773	28445.94
590.97	28327.16
591.167	28437.75
591.364	28007.68
591.561	28318.97
591.758	27995.39
591.955	27852.03
592.152	28036.35
592.349	27837.7
592.546	27876.61
592.743	27751.68
592.94	27669.76
593.137	27981.06
593.334	27897.09
593.531	27522.31
593.727	27700.48
593.924	27098.38
594.121	27335.95
594.318	27585.8
594.515	27346.19
594.712	27350.28
594.908	27325.71
595.105	27786.5
595.302	27327.75
595.499	27153.68
595.696	27432.2
595.892	26973.46
596.089	27444.49
596.286	27018.51
596.482	27317.51
596.679	27049.23
596.876	27213.07
597.072	26846.48
597.269	27196.68
597.466	26918.16
597.662	26678.55
597.859	26725.65
598.055	27155.72
598.252	26570.01
598.448	26869.01
598.645	26877.2
598.841	26625.3
599.038	26909.97
599.234	26621.2
599.431	26363.16
599.627	26406.17
599.824	26983.69
600.02	26549.53
600.217	26576.15
600.413	26582.29
600.609	26567.96
600.806	26533.14
601.002	26551.57
601.198	26518.81
601.395	26510.61
601.591	26660.12
601.787	26586.39
601.984	26107.16
602.18	26440.98
602.376	26506.52
602.572	26133.79
602.769	26527
602.965	26096.92
603.161	26565.91
603.357	26459.41
603.553	26574.1
603.75	26676.5
603.946	26281.24
604.142	26516.76
604.338	26330.39
604.534	26090.78
604.73	26121.5
604.926	26363.16
605.122	26264.86
605.318	26490.13
605.514	26340.63
605.71	26422.55
605.906	26436.89
606.102	26389.78
606.298	26434.84
606.494	26266.91
606.69	26471.7
606.886	26711.32
607.082	26033.44
607.278	26465.56
607.474	26197.27
607.67	26565.91
607.866	26105.12
608.062	26918.16
608.257	26428.7
608.453	26348.82
608.649	26727.7
608.845	26365.21
609.041	26778.9
609.236	26897.68
609.432	26557.72
609.628	26643.73
609.824	26774.8
610.019	26445.08
610.215	26625.3
610.411	26744.08
610.606	26639.64
610.802	26869.01
610.998	27084.05
611.193	26979.6
611.389	26699.03
611.584	26633.49
611.78	26832.15
611.976	27241.74
612.171	27118.86
612.367	26885.39
612.562	26506.52
612.758	26658.07
612.953	26746.13
613.149	27196.68
613.344	26531.09
613.539	27190.54
613.735	27245.83
613.93	27163.92
614.126	27186.44
614.321	27227.4
614.517	26899.73
614.712	27024.65
614.907	27186.44
615.103	27192.59
615.298	26916.11
615.493	27231.5
615.688	26881.3
615.884	27473.16
616.079	26639.64
616.274	27059.47
616.47	27114.76
616.665	27073.81
616.86	26682.64
617.055	26950.93
617.25	26649.88
617.445	27217.16
617.641	26438.94
617.836	26529.05
618.031	26412.31
618.226	26993.93
618.421	26776.85
618.616	26774.8
618.811	26668.31
619.006	26918.16
619.201	26119.45
619.396	26850.58
619.591	26086.68
619.786	26379.54
619.981	25953.57
620.176	26311.96
620.371	26004.77
620.566	26250.52
620.761	25726.24
620.956	26211.61
621.151	25699.62
621.346	25677.09
621.541	25546.02
621.735	25687.33
621.93	25115.95
622.125	25513.25
622.32	25281.83
622.515	25068.84
622.709	24851.76
622.904	24792.37
623.099	24810.8
623.294	24829.23
623.488	24458.55
623.683	24661.3
623.878	24266.04
624.072	24581.43
624.267	24399.16
624.462	24327.48
624.656	24048.96
624.851	24132.92
625.046	23723.33
625.24	23893.31
625.435	23453
625.629	23582.02
625.824	23520.58
626.018	23285.06
626.213	22924.62
626.407	23201.1
626.602	22971.72
626.796	23084.36
626.991	23231.82
627.185	22932.81
627.38	22566.23
627.574	22297.94
627.768	22351.19
627.963	22177.11
628.157	21769.57
628.352	22252.89
628.546	21714.27
628.74	22232.41
628.935	21630.3
629.129	21751.13
629.323	21601.63
629.517	21480.8
629.712	21443.94
629.906	21173.61
630.1	20999.53
630.294	21249.38
630.489	20809.07
630.683	21222.76
630.877	20815.21
631.071	20526.45
631.265	20895.08
631.459	20200.82
631.653	20397.43
631.848	20350.32
632.042	20163.96
632.236	20135.29
632.43	19887.48
632.624	20145.53
632.818	20063.61
633.012	19568
633.206	19713.41
633.4	19660.16
633.594	19441.03
633.788	19438.98
633.982	19146.12
634.176	18994.57
634.369	18857.35
634.563	18886.03
634.757	18646.41
634.951	18998.66
635.145	18826.64
635.339	18607.5
635.533	18376.08
635.726	18431.38
635.92	18156.95
636.114	18232.72
636.308	18277.78
636.501	18148.76
636.695	17993.11
636.889	17751.45
637.083	17499.55
637.276	17595.81
637.47	17470.88
637.664	17571.23
637.857	17458.59
638.051	17321.38
638.244	17266.08
638.438	17266.08
638.632	17137.06
638.825	16999.85
639.019	16799.15
639.212	16643.5
639.406	16737.71
639.599	16426.42
639.793	16643.5
639.986	16375.22
640.18	16293.3
640.373	16274.87
640.567	15771.07
640.76	16041.4
640.954	15695.29
641.147	15883.7
641.34	15443.39
641.534	15746.49
641.727	15533.5
641.92	15508.93
642.114	15359.42
642.307	15291.84
642.5	15254.98
642.694	14949.83
642.887	15037.89
643.08	15140.29
643.273	15095.24
643.467	14927.3
643.66	14628.3
643.853	14507.47
644.046	14568.91
644.239	14382.54
644.432	14163.41
644.626	14357.97
644.819	14204.37
645.012	14071.25
645.205	13968.85
645.398	13931.99
645.591	14056.92
645.784	13716.95
645.977	13530.59
646.17	13716.95
646.363	13770.2
646.556	13315.55
646.749	13448.67
646.942	13352.41
647.135	13123.04
647.328	13270.5
647.521	13307.36
647.714	12877.29
647.907	12994.02
648.099	12764.65
648.292	12981.73
648.485	12568.04
648.678	12783.08
648.871	12852.71
649.064	12582.38
649.256	12455.4
649.449	12338.67
649.642	12260.85
649.835	12113.39
650.027	11924.98
650.22	12080.63
650.413	11896.31
650.605	12072.43
650.798	11746.81
650.991	11517.43
651.183	11773.43
651.376	11564.54
651.568	11738.62
651.761	11593.21
651.954	11585.02
652.146	11630.07
652.339	11458.04
652.531	11335.17
652.724	11154.94
652.916	10999.3
653.109	11314.69
653.301	11386.36
653.494	11187.71
653.686	10632.71
653.879	10929.67
654.071	11025.92
654.263	10745.35
654.456	10616.33
654.648	10767.88
654.84	10733.06
655.033	10427.92
655.225	10698.25
655.417	10376.72
655.61	10495.5
655.802	10376.72
655.994	10337.8
656.186	10321.42
656.379	10298.89
656.571	10264.08
656.763	10151.44
656.955	10042.9
657.148	10155.54
657.34	10044.95
657.532	9762.33
657.724	9860.63
657.916	9977.36
658.108	9616.92
658.3	9733.65
658.492	9643.54
658.684	9541.15
658.876	9367.07
659.068	9305.63
659.26	9307.68
659.452	9426.46
659.644	9246.24
659.836	9248.29
660.028	9322.01
660.22	9025.06
660.412	9047.58
660.604	9074.21
660.796	9070.11
660.988	8906.27
661.18	8881.7
661.372	8820.26
661.563	8775.2
661.755	8756.77
661.947	8584.74
662.139	8623.66
662.331	8586.79
662.522	8468.01
662.714	8480.3
662.906	8435.24
663.097	8490.54
663.289	8273.45
663.481	8191.53
663.673	8363.56
663.864	8402.47
664.056	7990.83
664.247	8160.81
664.439	7790.13
664.631	8228.4
664.822	7956.02
665.014	7994.93
665.205	7898.67
665.397	7902.77
665.588	7622.2
665.78	7740.98
665.971	7677.49
666.163	7837.24
666.354	7573.05
666.546	7394.87
666.737	7601.72
666.929	7657.01
667.12	7568.95
667.311	7378.49
667.503	7568.95
667.694	7378.49
667.885	7388.73
668.077	7345.72
668.268	7306.81
668.459	7222.84
668.651	7261.76
668.842	7190.08
669.033	7108.16
669.224	7110.21
669.416	7038.53
669.607	6968.9
669.798	6966.85
669.989	6995.52
670.18	7077.44
670.371	6917.7
670.563	6790.72
670.754	6852.16
670.945	6921.79
671.136	6807.11
671.327	6757.96
671.518	6665.8
671.709	6821.44
671.9	6633.03
672.091	6655.56
672.282	6725.19
672.473	6575.69
672.664	6698.56
672.855	6626.89
673.046	6561.35
673.237	6661.7
673.428	6567.49
673.619	6336.07
673.809	6454.86
674	6577.73
674.191	6250.06
674.382	6291.02
674.573	6506.06
674.764	6329.93
674.954	6352.46
675.145	6293.07
675.336	6354.51
675.527	6225.48
675.717	6448.71
675.908	6145.61
676.099	6176.33
676.289	6254.16
676.48	6094.41
676.671	6084.17
676.861	6047.31
677.052	6104.65
677.243	5998.16
677.433	6071.89
677.624	6035.02
677.814	6026.83
678.005	6182.48
678.195	6112.85
678.386	6166.09
678.576	5971.54
678.767	5815.89
678.957	5895.76
679.148	5994.06
679.338	6030.93
679.529	5910.1
679.719	5912.14
679.909	5903.95
680.1	5942.86
680.29	5834.32
680.481	5901.9
680.671	5928.53
680.861	5783.12
681.052	5783.12
681.242	5690.96
681.432	6032.97
681.622	5701.2
681.813	5678.68
682.003	5748.31
682.193	5781.07
682.383	5899.86
682.573	5766.74
682.764	5570.13
682.954	5799.51
683.144	5662.29
683.334	5678.68
683.524	5738.07
683.714	5684.82
683.904	5662.29
684.094	5576.28
684.284	5768.79
684.474	5791.31
684.664	5531.22
684.854	5656.15
685.044	5604.95
685.234	5635.67
685.424	5543.51
685.614	5529.17
685.804	5621.33
685.994	5504.6
686.184	5527.13
686.374	5502.55
686.564	5477.98
686.753	5549.65
686.943	5375.58
687.133	5402.2
687.323	5340.76
687.513	5215.84
687.702	5353.05
687.892	5324.38
688.082	5228.12
688.272	5338.71
688.461	5297.75
688.651	5385.82
688.841	5332.57
689.03	5293.66
689.22	5162.59
689.41	5150.3
689.599	5013.09
689.789	5191.26
689.979	5156.44
690.168	5264.99
690.358	5029.47
690.547	5117.53
690.737	5039.71
690.926	5084.77
691.116	5117.53
691.305	5043.81
691.495	5013.09
691.684	5080.67
691.874	4963.93
692.063	4847.2
692.252	4865.63
692.442	5006.94
692.631	4929.12
692.82	4918.88
693.01	4834.91
693.199	4980.32
693.388	4875.87
693.578	4750.95
693.767	4714.08
693.956	4826.72
694.146	4744.8
694.335	4822.63
694.524	4681.32
694.713	4664.93
694.902	4609.64
695.092	4658.79
695.281	4761.19
695.47	4771.43
695.659	4660.84
695.848	4632.16
696.037	4746.85
696.226	4726.37
696.415	4529.77
696.604	4683.36
696.793	4564.58
696.982	4593.25
697.171	4593.25
697.36	4587.11
697.549	4445.8
697.738	4472.42
697.927	4636.26
698.116	4609.64
698.305	4529.77
698.494	4421.22
698.683	4314.73
698.872	4376.17
699.061	4406.89
699.25	4388.46
699.438	4374.12
699.627	4429.42
699.816	4445.8
700.005	4363.88
700.193	4257.39
700.382	4363.88
700.571	4406.89
700.76	4396.65
700.948	4445.8
701.137	4212.33
701.326	4396.65
701.514	4351.59
701.703	4327.02
701.892	4312.68
702.08	4286.06
702.269	4312.68
702.457	4195.95
702.646	4341.35
702.834	4167.28
703.023	4124.27
703.212	4281.96
703.4	4197.99
703.589	4056.68
703.777	4079.21
703.965	4044.4
704.154	4025.97
704.342	4200.04
704.531	4097.64
704.719	3948.14
704.907	4152.94
705.096	3964.53
705.284	3942
705.472	3985.01
705.661	4023.92
705.849	4003.44
706.037	3872.37
706.226	3870.32
706.414	3964.53
706.602	3974.77
706.79	3946.09
706.979	3898.99
707.167	3808.88
707.355	3892.85
707.543	4009.58
707.731	3958.38
707.919	3796.59
708.107	3919.47
708.296	3790.45
708.484	3774.07
708.672	3745.39
708.86	3796.59
709.048	3706.48
709.236	3790.45
709.424	3706.48
709.612	3845.74
709.8	3786.35
709.988	3800.69
710.176	3718.77
710.364	3841.65
710.551	3667.57
710.739	3688.05
710.927	3675.76
711.115	3532.4
711.303	3565.17
711.491	3585.65
711.679	3532.4
711.866	3532.4
712.054	3671.67
712.242	3499.64
712.43	3581.56
712.617	3520.12
712.805	3548.79
712.993	3495.54
713.181	3507.83
713.368	3384.95
713.556	3556.98
713.744	3350.14
713.931	3475.06
714.119	3296.89
714.306	3358.33
714.494	3462.77
714.682	3440.25
714.869	3372.66
715.057	3327.61
715.244	3317.37
715.432	3399.29
715.619	3298.94
715.807	3399.29
715.994	3233.4
716.182	3331.7
716.369	3290.74
716.556	3397.24
716.744	3219.07
716.931	3341.94
717.119	3372.66
717.306	3358.33
717.493	3352.18
717.681	3270.26
717.868	3233.4
718.055	3280.5
718.242	3241.59
718.43	3208.83
718.617	3194.49
718.804	3219.07
718.991	3249.79
719.179	3167.87
719.366	3217.02
719.553	3165.82
719.74	3106.43
719.927	3153.53
720.114	2946.69
720.301	3110.52
720.488	2995.84
720.676	3044.99
720.863	3151.48
721.05	3061.37
721.237	3071.61
721.424	3057.28
721.611	3053.18
721.798	3044.99
721.985	2997.88
722.172	3024.51
722.358	2975.36
722.545	3069.56
722.732	3010.17
722.919	3016.32
723.106	2932.35
723.293	2913.92
723.48	3016.32
723.667	2885.25
723.853	3004.03
724.04	3057.28
724.227	2875.01
724.414	2903.68
724.6	3053.18
724.787	2879.1
724.974	2946.69
725.161	2883.2
725.347	2834.05
725.534	2965.12
725.72	2844.29
725.907	2877.05
726.094	2922.11
726.28	2735.74
726.467	2743.94
726.653	2766.46
726.84	2780.8
727.027	2846.34
727.213	2774.66
727.4	2717.31
727.586	2608.77
727.773	2827.9
727.959	2709.12
728.145	2635.39
728.332	2766.46
728.518	2705.03
728.705	2610.82
728.891	2584.2
729.077	2612.87
729.264	2610.82
729.45	2619.01
729.636	2655.87
729.823	2561.67
730.009	2688.64
730.195	2717.31
730.382	2629.25
730.568	2596.48
730.754	2619.01
730.94	2655.87
731.126	2670.21
731.313	2633.35
731.499	2678.4
731.685	2545.28
731.871	2545.28
732.057	2604.67
732.243	2754.18
732.429	2549.38
732.615	2590.34
732.801	2604.67
732.987	2492.04
733.173	2535.04
733.359	2633.35
733.545	2446.98
733.731	2524.8
733.917	2438.79
734.103	2524.8
734.289	2606.72
734.475	2424.45
734.661	2594.44
734.847	2528.9
735.033	2459.27
735.219	2512.52
735.404	2457.22
735.59	2352.77
735.776	2328.2
735.962	2393.73
736.148	2342.53
736.333	2375.3
736.519	2317.96
736.705	2449.03
736.89	2422.41
737.076	2436.74
737.262	2246.28
737.447	2365.06
737.633	2285.19
737.819	2365.06
738.004	2356.87
738.19	2422.41
738.375	2311.82
738.561	2391.69
738.747	2363.01
738.932	2270.86
739.118	2358.92
739.303	2365.06
739.489	2289.29
739.674	2193.03
739.859	2225.8
740.045	2291.34
740.23	2162.31
740.416	2129.55
740.601	2340.49
740.786	2082.44
740.972	2233.99
741.157	2268.81
741.342	2178.7
741.528	2139.79
741.713	2178.7
741.898	2209.42
742.084	2193.03
742.269	2217.61
742.454	2129.55
742.639	2104.97
742.824	2055.82
743.01	2162.31
743.195	2162.31
743.38	2055.82
743.565	2102.92
743.75	2057.87
743.935	2074.25
744.12	2057.87
744.305	1947.28
744.49	1934.99
744.675	2012.81
744.86	1955.47
745.045	1959.56
745.23	1898.13
745.415	1926.8
745.6	1957.52
745.785	1861.26
745.97	1918.61
746.155	2037.39
746.34	1922.7
746.525	1871.5
746.71	1842.83
746.895	1859.21
747.079	1797.78
747.264	1851.02
747.449	1922.7
747.634	1869.45
747.819	1824.4
748.003	1881.74
748.188	1769.1
748.373	1810.06
748.557	1787.54
748.742	1765.01
748.927	1812.11
749.111	1736.34
749.296	1799.82
749.481	1635.99
749.665	1635.99
749.85	1619.6
750.034	1734.29
750.219	1693.33
750.404	1623.7
750.588	1635.99
750.773	1584.79
750.957	1689.23
751.141	1611.41
751.326	1662.61
751.51	1525.4
751.695	1523.35
751.879	1478.29
752.064	1627.79
752.248	1621.65
752.432	1580.69
752.617	1541.78
752.801	1537.68
752.985	1506.96
753.17	1590.93
753.354	1537.68
753.538	1619.6
753.722	1472.15
753.907	1357.46
754.091	1341.08
754.275	1423
754.459	1429.14
754.643	1423
754.828	1476.24
755.012	1382.04
755.196	1271.45
755.38	1316.5
755.564	1431.19
755.748	1392.28
755.932	1375.89
756.116	1414.81
756.3	1240.73
756.484	1253.02
756.668	1234.58
756.852	1361.56
757.036	1320.6
757.22	1316.5
757.404	1203.86
757.588	1234.58
757.772	1293.97
757.956	1269.4
758.14	1273.5
758.323	1253.02
758.507	1263.26
758.691	1158.81
758.875	1185.43
759.059	1093.27
759.242	1212.06
759.426	1171.1
759.61	1218.2
759.794	1214.1
759.977	1228.44
760.161	1259.16
760.345	1099.42
760.528	1201.82
760.712	1171.1
760.895	1177.24
761.079	1080.99
761.263	1070.75
761.446	1148.57
761.63	1123.99
761.813	1113.75
761.997	1037.98
762.18	1195.67
762.364	1105.56
762.547	970.4
762.731	1072.79
762.914	1099.42
763.098	1072.79
763.281	1050.27
763.464	1070.75
763.648	1048.22
763.831	1005.21
764.015	1013.4
764.198	1050.27
764.381	1044.12
764.564	1060.51
764.748	1033.88
764.931	1089.18
765.114	1023.64
765.297	1013.4
765.481	984.73
765.664	992.92
765.847	1029.79
766.03	1058.46
766.213	931.48
766.397	980.64
766.58	908.96
766.763	941.72
766.946	935.58
767.129	1054.36
767.312	1021.6
767.495	974.49
767.678	968.35
767.861	1048.22
768.044	923.29
768.227	921.24
768.41	927.39
768.593	865.95
768.776	999.07
768.959	945.82
769.142	925.34
769.324	997.02
769.507	878.24
769.69	949.92
769.873	915.1
770.056	882.33
770.239	890.53
770.421	865.95
770.604	870.05
770.787	896.67
770.97	894.62
771.152	890.53
771.335	841.37
771.518	845.47
771.7	898.72
771.883	900.76
772.066	917.15
772.248	841.37
772.431	980.64
772.613	833.18
772.796	788.13
772.978	853.66
773.161	906.91
773.343	753.31
773.526	890.53
773.708	769.69
773.891	726.69
774.073	728.74
774.256	775.84
774.438	771.74
774.621	745.12
774.803	779.93
774.985	845.47
775.168	829.09
775.35	714.4
775.532	835.23
775.715	734.88
775.897	831.13
776.079	767.65
776.261	702.11
776.444	661.15
776.626	753.31
776.808	628.39
776.99	673.44
777.173	638.62
777.355	648.86
777.537	628.39
777.719	644.77
777.901	636.58
778.083	632.48
778.265	612
778.447	628.39
778.629	591.52
778.811	710.3
778.993	646.82
779.175	628.39
779.357	646.82
779.539	628.39
779.721	642.72
779.903	648.86
780.085	568.99
780.267	661.15
780.449	605.86
780.631	720.54
780.812	632.48
780.994	612
781.176	575.14
781.358	622.24
781.54	542.37
781.721	581.28
781.903	562.85
782.085	497.32
782.267	548.51
782.448	585.38
782.63	591.52
782.812	579.23
782.993	530.08
783.175	540.32
783.357	482.98
783.538	568.99
783.72	523.94
783.901	540.32
784.083	513.7
784.264	562.85
784.446	448.16
784.627	450.21
784.809	550.56
784.99	513.7
785.172	456.36
785.353	505.51
785.535	501.41
785.716	456.36
785.897	444.07
786.079	468.64
786.26	536.23
786.441	466.6
786.623	374.44
786.804	448.16
786.985	423.59
787.167	462.5
787.348	376.48
787.529	399.01
787.71	532.13
787.891	439.97
788.073	415.4
788.254	439.97
788.435	433.83
788.616	419.49
788.797	382.63
788.978	452.26
789.159	403.11
789.34	439.97
789.522	341.67
789.703	360.1
789.884	497.32
790.065	399.01
790.246	370.34
790.427	452.26
790.607	419.49
790.788	456.36
790.969	353.96
791.15	417.44
791.331	310.95
791.512	382.63
791.693	319.14
791.874	331.43
792.054	415.4
792.235	390.82
792.416	370.34
792.597	296.61
792.778	294.57
792.958	417.44
793.139	368.29
793.32	321.19
793.5	321.19
793.681	325.29
793.862	364.2
794.042	339.62
794.223	267.94
794.404	353.96
794.584	300.71
794.765	278.18
794.945	401.06
795.126	360.1
795.306	286.37
795.487	317.09
795.667	317.09
795.848	272.04
796.028	272.04
796.209	353.96
796.389	366.25
796.57	263.85
796.75	288.42
796.93	302.76
797.111	229.03
797.291	255.65
797.471	261.8
797.652	286.37
797.832	194.22
798.012	310.95
798.192	253.61
798.373	237.22
798.553	294.57
798.733	282.28
798.913	327.33
799.093	294.57
799.274	245.41
799.454	325.29
799.634	308.9
799.814	319.14
799.994	269.99
800.174	220.84
800.354	239.27
800.534	235.18
800.714	286.37
800.894	206.5
801.074	202.41
801.254	259.75
801.434	259.75
801.614	325.29
801.794	237.22
801.974	962.2
802.154	214.7
802.334	261.8
802.514	231.08
802.693	224.94
802.873	186.02
803.053	300.71
803.233	235.18
803.413	267.94
803.592	235.18
803.772	153.26
803.952	251.56
804.131	175.78
804.311	247.46
804.491	267.94
804.67	253.61
804.85	218.79
805.03	218.79
805.209	251.56
805.389	136.87
805.568	169.64
805.748	251.56
805.928	196.26
806.107	169.64
806.287	263.85
806.466	155.3
806.646	196.26
806.825	183.98
807.004	218.79
807.184	128.68
807.363	300.71
807.543	218.79
807.722	138.92
807.901	216.74
808.081	313
808.26	186.02
808.439	186.02
808.619	173.74
808.798	132.78
808.977	200.36
809.156	235.18
809.336	245.41
809.515	188.07
809.694	106.15
809.873	112.3
810.052	161.45
810.231	245.41
810.411	231.08
810.59	202.41
810.769	218.79
810.948	149.16
811.127	108.2
811.306	169.64
811.485	97.96
811.664	188.07
811.843	251.56
812.022	194.22
812.201	155.3
812.38	177.83
812.559	153.26
812.737	269.99
812.916	173.74
813.095	134.82
813.274	202.41
813.453	151.21
813.632	120.49
813.811	116.39
813.989	75.43
814.168	161.45
814.347	163.5
814.526	186.02
814.704	212.65
814.883	112.3
815.062	165.54
815.24	222.89
815.419	163.5
815.598	163.5
815.776	153.26
815.955	108.2
816.133	46.76
816.312	212.65
816.49	79.53
816.669	192.17
816.847	173.74
817.026	77.48
817.204	46.76
817.383	220.84
817.561	120.49
817.74	71.34
817.918	171.69
818.097	114.34
818.275	222.89
818.453	214.7
818.632	153.26
818.81	120.49
818.988	108.2
819.167	120.49
819.345	204.46
819.523	100.01
819.701	116.39
819.879	44.71
820.058	161.45
820.236	95.91
820.414	65.19
820.592	124.58
820.77	147.11
820.948	120.49
821.127	79.53
821.305	67.24
821.483	120.49
821.661	278.18
821.839	134.82
822.017	73.39
822.195	130.73
822.373	288.42
822.551	122.54
822.729	235.18
822.907	104.11
823.085	196.26
823.262	120.49
823.44	161.45
823.618	95.91
823.796	79.53
823.974	151.21
824.152	75.43
824.329	57
824.507	95.91
824.685	71.34
824.863	83.63
825.04	65.19
825.218	130.73
825.396	48.81
825.574	116.39
825.751	145.06
825.929	50.86
826.107	67.24
826.284	95.91
826.462	77.48
826.639	59.05
826.817	54.95
826.994	145.06
827.172	63.15
827.349	179.88
827.527	128.68
827.704	116.39
827.882	63.15
828.059	104.11
828.237	95.91
828.414	87.72
828.591	46.76
828.769	132.78
828.946	145.06
829.124	163.5
829.301	149.16
829.478	71.34
829.655	147.11
829.833	179.88
830.01	-0.34
830.187	112.3
830.364	44.71
830.542	71.34
830.719	136.87
830.896	54.95
831.073	132.78
831.25	63.15
831.427	63.15
831.604	122.54
831.782	83.63
831.959	136.87
832.136	79.53
832.313	112.3
832.49	87.72
832.667	100.01
832.844	9.9
833.021	79.53
833.198	114.34
833.374	104.11
833.551	57
833.728	128.68
833.905	54.95
834.082	-6.49
834.259	112.3
834.436	188.07
834.612	46.76
834.789	79.53
834.966	81.58
835.143	75.43
835.319	22.19
835.496	112.3
835.673	79.53
835.85	116.39
836.026	32.43
836.203	65.19
836.38	81.58
836.556	75.43
836.733	128.68
836.909	136.87
837.086	65.19
837.262	13.99
837.439	-2.39
837.616	13.99
837.792	1.71
837.968	54.95
838.145	11.95
838.321	52.91
838.498	63.15
838.674	38.57
838.851	38.57
839.027	-35.16
839.203	-12.63
839.38	48.81
839.556	40.62
839.732	149.16
839.909	112.3
840.085	173.74
840.261	54.95
840.437	48.81
840.614	7.85
840.79	54.95
840.966	57
841.142	30.38
841.318	73.39
841.494	32.43
841.671	116.39
841.847	59.05
842.023	71.34
842.199	106.15
842.375	71.34
842.551	-26.96
842.727	-2.39
842.903	81.58
843.079	16.04
843.255	79.53
843.431	-14.68
843.607	16.04
843.783	57
843.959	30.38
844.134	48.81
844.31	95.91
844.486	-10.58
844.662	59.05
844.838	61.1
845.013	11.95
845.189	202.41
845.365	128.68
845.541	-39.25
845.716	54.95
845.892	100.01
846.068	9.9
846.244	46.76
846.419	122.54
846.595	-10.58
846.77	116.39
846.946	79.53
847.122	32.43
847.297	13.99
847.473	120.49
847.648	46.76
847.824	63.15
847.999	-51.54
848.175	132.78
848.35	75.43
848.526	120.49
848.701	57
848.876	136.87
849.052	32.43
849.227	169.64
849.403	75.43
849.578	71.34
849.753	-0.34
849.929	102.06
850.104	-10.58
850.279	22.19
850.454	65.19
850.63	46.76
850.805	102.06
850.98	18.09
851.155	-2.39
851.33	22.19
851.505	13.99
851.681	73.39
851.856	54.95
852.031	11.95
852.206	38.57
852.381	30.38
852.556	5.8
852.731	54.95
852.906	97.96
853.081	-51.54
853.256	63.15
853.431	65.19
853.606	57
853.781	52.91
853.956	16.04
854.131	-6.49
854.305	9.9
854.48	-14.68
854.655	-6.49
854.83	38.57
855.005	-59.73
855.18	48.81
855.354	77.48
855.529	48.81
855.704	-10.58
855.879	89.77
856.053	48.81
856.228	32.43
856.403	-31.06
856.577	-14.68
856.752	34.47
856.926	-2.39
857.101	95.91
857.276	52.91
857.45	59.05
857.625	7.85
857.799	81.58
857.974	1.71
858.148	-33.11
858.323	1.71
858.497	30.38
858.672	67.24
858.846	79.53
859.02	128.68
859.195	26.28
859.369	-16.73
859.543	57
859.718	130.73
859.892	110.25
860.066	38.57
860.241	24.23
860.415	5.8
860.589	38.57
860.763	79.53
860.938	-55.64
861.112	42.67
861.286	59.05
861.46	40.62
861.634	-8.53
861.808	63.15
861.982	-18.77
862.157	5.8
862.331	63.15
862.505	-8.53
862.679	-2.39
862.853	16.04
863.027	-41.3
863.201	42.67
863.375	42.67
863.549	30.38
863.722	44.71
863.896	104.11
864.07	16.04
864.244	61.1
864.418	75.43
864.592	11.95
864.766	30.38
864.939	38.57
865.113	13.99
865.287	-2.39
865.461	38.57
865.634	91.82
865.808	22.19
865.982	-33.11
866.156	1.71
866.329	71.34
866.503	22.19
866.676	40.62
866.85	46.76
867.024	-2.39
867.197	77.48
867.371	73.39
867.544	63.15
867.718	-16.73
867.891	65.19
868.065	22.19
868.238	9.9
868.412	65.19
868.585	32.43
868.759	18.09
868.932	-4.44
869.105	-2.39
869.279	30.38
869.452	106.15
869.625	-24.92
869.799	22.19
869.972	-55.64
870.145	-2.39
870.319	22.19
870.492	7.85
870.665	-88.4
870.838	22.19
871.011	-49.49
871.185	18.09
871.358	-72.02
871.531	57
871.704	65.19
871.877	57
872.05	-16.73
872.223	-10.58
872.396	26.28
872.569	54.95
872.742	-33.11
872.915	22.19
873.088	-29.01
873.261	9.9
873.434	46.76
873.607	-39.25
873.78	20.14
873.953	-24.92
874.126	-16.73
874.299	106.15
874.471	20.14
874.644	-26.96
874.817	11.95
874.99	5.8
875.163	50.86
875.335	16.04
875.508	22.19
875.681	46.76
875.853	-16.73
876.026	5.8
876.199	32.43
876.371	40.62
876.544	79.53
876.717	65.19
876.889	13.99
877.062	38.57
877.234	46.76
877.407	-4.44
877.579	-2.39
877.752	1.71
877.924	26.28
878.097	59.05
878.269	91.82
878.442	1.71
878.614	63.15
878.786	120.49
878.959	36.52
879.131	7.85
879.303	-31.06
879.476	13.99
879.648	102.06
879.82	38.57
879.993	18.09
880.165	46.76
880.337	-49.49
880.509	38.57
880.681	-22.87
880.854	13.99
881.026	91.82
881.198	46.76
881.37	7.85
881.542	1.71
881.714	18.09
881.886	69.29
882.058	-18.77
882.23	59.05
882.402	-88.4
882.574	46.76
882.746	59.05
882.918	73.39
883.09	69.29
883.262	5.8
883.434	-8.53
883.606	-18.77
883.778	-18.77
883.95	26.28
884.122	30.38
884.293	71.34
884.465	-69.97
884.637	13.99
884.809	5.8
884.98	7.85
885.152	18.09
885.324	87.72
885.496	59.05
885.667	38.57
885.839	79.53
886.011	30.38
886.182	22.19
886.354	-10.58
886.525	-10.58
886.697	77.48
886.869	-4.44
887.04	-53.59
887.212	1.71
887.383	40.62
887.555	-14.68
887.726	46.76
887.897	59.05
888.069	-10.58
888.24	-12.63
888.412	48.81
888.583	71.34
888.754	-92.5
888.926	-18.77
889.097	79.53
889.268	18.09
889.44	-2.39
889.611	-10.58
889.782	-43.35
889.953	-26.96
890.125	87.72
890.296	-45.4
890.467	-8.53
890.638	38.57
890.809	71.34
890.98	38.57
891.151	118.44
891.323	54.95
891.494	54.95
891.665	-2.39
891.836	-2.39
892.007	-18.77
892.178	13.99
892.349	-43.35
892.52	-98.64
892.691	40.62
892.862	71.34
893.032	-84.31
893.203	-2.39
893.374	9.9
893.545	50.86
893.716	-18.77
893.887	57
894.057	124.58
894.228	-29.01
894.399	87.72
894.57	81.58
894.74	-16.73
894.911	59.05
895.082	1.71
895.253	57
895.423	26.28
895.594	30.38
895.764	34.47
895.935	-35.16
896.106	42.67
896.276	-26.96
896.447	34.47
896.617	-2.39
896.788	-16.73
896.958	22.19
897.129	-8.53
897.299	-14.68
897.47	42.67
897.64	-26.96
897.81	-31.06
897.981	93.87
898.151	-6.49
898.322	-33.11
898.492	5.8
898.662	7.85
898.832	-33.11
899.003	30.38
899.173	32.43
899.343	34.47
899.513	-43.35
