Data from USB4F104151__217__14-33-49-392.txt Node

Date: Thu Mar 13 14:33:49 EDT 2025
User: louis
Spectrometer: USB4F10415
Trigger mode: 4
Integration Time (sec): 2.500000E-2
Scans to average: 1
Electric dark correction enabled: true
Nonlinearity correction enabled: false
Boxcar width: 0
XAxis mode: Wavelengths
Number of Pixels in Spectrum: 3648
>>>>>Begin Spectral Data<<<<<
178.204	-105.13
178.424	-105.13
178.644	-105.13
178.864	-189.1
179.084	-101.03
179.304	48.47
179.524	-12.97
179.744	17.75
179.964	-6.83
180.184	-74.41
180.404	3.41
180.624	-29.35
180.844	27.99
181.064	-82.6
181.283	101.72
181.503	-0.68
181.723	7.51
181.943	3.41
182.163	111.96
182.383	48.47
182.602	32.08
182.822	64.85
183.042	23.89
183.262	30.04
183.482	7.51
183.701	-25.26
183.921	7.51
184.141	52.56
184.361	81.24
184.58	73.04
184.8	-0.68
185.02	17.75
185.239	32.08
185.459	-0.68
185.679	81.24
185.898	-27.31
186.118	73.04
186.338	64.85
186.557	62.8
186.777	11.61
186.997	17.75
187.216	9.56
187.436	91.48
187.655	15.7
187.875	99.67
188.095	52.56
188.314	23.89
188.534	73.04
188.753	-62.12
188.973	17.75
189.192	87.38
189.412	-8.87
189.631	91.48
189.851	34.13
190.07	40.28
190.29	-8.87
190.509	3.41
190.729	-49.83
190.948	130.39
191.168	197.97
191.387	30.04
191.607	48.47
191.826	101.72
192.045	-15.02
192.265	23.89
192.484	11.61
192.704	17.75
192.923	-58.03
193.142	97.62
193.362	36.18
193.581	128.34
193.8	89.43
194.02	60.76
194.239	34.13
194.458	1.37
194.678	89.43
194.897	-58.03
195.116	9.56
195.335	42.32
195.555	97.62
195.774	32.08
195.993	25.94
196.212	-0.68
196.432	-66.22
196.651	-51.88
196.87	34.13
197.089	138.58
197.308	101.72
197.528	75.09
197.747	27.99
197.966	25.94
198.185	17.75
198.404	-8.87
198.623	40.28
198.842	97.62
199.062	87.38
199.281	116.05
199.5	114
199.719	89.43
199.938	40.28
200.157	56.66
200.376	11.61
200.595	-6.83
200.814	23.89
201.033	50.52
201.252	34.13
201.471	15.7
201.69	60.76
201.909	48.47
202.128	56.66
202.347	73.04
202.566	42.32
202.785	-0.68
203.004	-29.35
203.223	81.24
203.442	91.48
203.661	-49.83
203.879	91.48
204.098	34.13
204.317	97.62
204.536	64.85
204.755	-6.83
204.974	19.8
205.193	19.8
205.411	75.09
205.63	60.76
205.849	19.8
206.068	38.23
206.287	23.89
206.505	38.23
206.724	107.86
206.943	77.14
207.162	1.37
207.381	-0.68
207.599	1.37
207.818	109.91
208.037	-0.68
208.255	32.08
208.474	-15.02
208.693	23.89
208.911	64.85
209.13	44.37
209.349	-17.07
209.567	83.28
209.786	64.85
210.005	58.71
210.223	34.13
210.442	-51.88
210.661	44.37
210.879	48.47
211.098	40.28
211.316	13.65
211.535	77.14
211.753	-15.02
211.972	19.8
212.191	64.85
212.409	-6.83
212.628	91.48
212.846	11.61
213.065	73.04
213.283	134.48
213.502	50.52
213.72	107.86
213.938	40.28
214.157	23.89
214.375	-8.87
214.594	-8.87
214.812	36.18
215.031	-37.55
215.249	-2.73
215.467	21.84
215.686	54.61
215.904	81.24
216.122	-33.45
216.341	34.13
216.559	-12.97
216.778	101.72
216.996	56.66
217.214	7.51
217.432	1.37
217.651	75.09
217.869	30.04
218.087	34.13
218.306	-6.83
218.524	60.76
218.742	27.99
218.96	19.8
219.179	-37.55
219.397	48.47
219.615	85.33
219.833	19.8
220.051	73.04
220.27	97.62
220.488	48.47
220.706	40.28
220.924	-29.35
221.142	42.32
221.36	97.62
221.578	25.94
221.796	44.37
222.015	34.13
222.233	-17.07
222.451	107.86
222.669	58.71
222.887	56.66
223.105	73.04
223.323	48.47
223.541	32.08
223.759	25.94
223.977	-29.35
224.195	126.29
224.413	17.75
224.631	89.43
224.849	13.65
225.067	89.43
225.285	-23.21
225.503	40.28
225.721	27.99
225.939	30.04
226.157	-25.26
226.375	107.86
226.592	17.75
226.81	-21.16
227.028	130.39
227.246	48.47
227.464	-29.35
227.682	83.28
227.9	73.04
228.117	-8.87
228.335	34.13
228.553	19.8
228.771	52.56
228.989	7.51
229.206	40.28
229.424	111.96
229.642	32.08
229.86	15.7
230.077	118.1
230.295	48.47
230.513	79.19
230.731	15.7
230.948	44.37
231.166	71
231.384	-17.07
231.601	5.46
231.819	171.35
232.037	-49.83
232.254	-43.69
232.472	75.09
232.689	56.66
232.907	25.94
233.125	73.04
233.342	64.85
233.56	48.47
233.777	48.47
233.995	-10.92
234.213	87.38
234.43	75.09
234.648	32.08
234.865	97.62
235.083	1.37
235.3	17.75
235.518	40.28
235.735	89.43
235.953	122.2
236.17	3.41
236.388	-0.68
236.605	52.56
236.822	32.08
237.04	23.89
237.257	71
237.475	50.52
237.692	32.08
237.909	34.13
238.127	23.89
238.344	66.9
238.562	42.32
238.779	-15.02
238.996	23.89
239.214	23.89
239.431	9.56
239.648	56.66
239.865	42.32
240.083	3.41
240.3	36.18
240.517	11.61
240.735	15.7
240.952	60.76
241.169	77.14
241.386	-25.26
241.603	-17.07
241.821	-4.78
242.038	81.24
242.255	89.43
242.472	-0.68
242.689	48.47
242.907	116.05
243.124	17.75
243.341	-72.36
243.558	-27.31
243.775	40.28
243.992	-25.26
244.209	71
244.426	181.59
244.643	34.13
244.86	48.47
245.078	44.37
245.295	64.85
245.512	19.8
245.729	-19.11
245.946	85.33
246.163	68.95
246.38	25.94
246.597	7.51
246.814	7.51
247.031	-21.16
247.248	40.28
247.464	109.91
247.681	58.71
247.898	64.85
248.115	83.28
248.332	-82.6
248.549	66.9
248.766	27.99
248.983	99.67
249.2	85.33
249.417	15.7
249.633	11.61
249.85	1.37
250.067	40.28
250.284	-39.59
250.501	7.51
250.717	-15.02
250.934	-17.07
251.151	38.23
251.368	64.85
251.585	118.1
251.801	62.8
252.018	-23.21
252.235	85.33
252.451	-12.97
252.668	48.47
252.885	7.51
253.102	-33.45
253.318	-8.87
253.535	23.89
253.752	-8.87
253.968	116.05
254.185	-47.79
254.401	13.65
254.618	-8.87
254.835	-62.12
255.051	36.18
255.268	56.66
255.484	32.08
255.701	5.46
255.917	19.8
256.134	64.85
256.351	11.61
256.567	25.94
256.784	52.56
257	17.75
257.217	89.43
257.433	56.66
257.65	58.71
257.866	97.62
258.082	77.14
258.299	-37.55
258.515	15.7
258.732	-90.79
258.948	73.04
259.165	34.13
259.381	-12.97
259.597	66.9
259.814	9.56
260.03	89.43
260.246	-25.26
260.463	83.28
260.679	97.62
260.895	83.28
261.112	91.48
261.328	-39.59
261.544	-51.88
261.761	60.76
261.977	-0.68
262.193	-25.26
262.409	32.08
262.626	64.85
262.842	7.51
263.058	60.76
263.274	25.94
263.49	64.85
263.707	105.81
263.923	93.52
264.139	40.28
264.355	114
264.571	81.24
264.787	27.99
265.004	42.32
265.22	64.85
265.436	-29.35
265.652	17.75
265.868	11.61
266.084	36.18
266.3	-47.79
266.516	3.41
266.732	9.56
266.948	3.41
267.164	105.81
267.38	105.81
267.596	32.08
267.812	138.58
268.028	15.7
268.244	23.89
268.46	103.76
268.676	48.47
268.892	44.37
269.108	15.7
269.324	40.28
269.54	-0.68
269.756	44.37
269.972	50.52
270.188	48.47
270.403	68.95
270.619	-2.73
270.835	91.48
271.051	27.99
271.267	58.71
271.483	73.04
271.698	81.24
271.914	-0.68
272.13	25.94
272.346	32.08
272.562	58.71
272.777	97.62
272.993	13.65
273.209	27.99
273.425	27.99
273.64	23.89
273.856	19.8
274.072	36.18
274.287	-58.03
274.503	23.89
274.719	34.13
274.934	7.51
275.15	-90.79
275.366	56.66
275.581	-21.16
275.797	40.28
276.012	52.56
276.228	64.85
276.444	17.75
276.659	142.68
276.875	1.37
277.09	103.76
277.306	32.08
277.521	25.94
277.737	48.47
277.952	-25.26
278.168	7.51
278.383	60.76
278.599	19.8
278.814	-21.16
279.03	52.56
279.245	66.9
279.461	52.56
279.676	87.38
279.892	-74.41
280.107	32.08
280.322	-0.68
280.538	120.15
280.753	23.89
280.969	130.39
281.184	15.7
281.399	66.9
281.615	9.56
281.83	77.14
282.045	-41.64
282.26	-70.31
282.476	48.47
282.691	32.08
282.906	25.94
283.122	66.9
283.337	7.51
283.552	81.24
283.767	-23.21
283.983	56.66
284.198	44.37
284.413	75.09
284.628	36.18
284.843	42.32
285.058	103.76
285.274	56.66
285.489	11.61
285.704	40.28
285.919	23.89
286.134	79.19
286.349	7.51
286.564	-31.4
286.779	68.95
286.995	27.99
287.21	58.71
287.425	9.56
287.64	52.56
287.855	130.39
288.07	15.7
288.285	48.47
288.5	93.52
288.715	36.18
288.93	93.52
289.145	-37.55
289.36	105.81
289.575	-4.78
289.79	64.85
290.004	42.32
290.219	42.32
290.434	23.89
290.649	40.28
290.864	40.28
291.079	64.85
291.294	46.42
291.509	64.85
291.724	27.99
291.938	56.66
292.153	1.37
292.368	-17.07
292.583	66.9
292.798	130.39
293.012	138.58
293.227	71
293.442	105.81
293.657	36.18
293.871	44.37
294.086	-0.68
294.301	64.85
294.516	99.67
294.73	-2.73
294.945	-0.68
295.16	56.66
295.374	118.1
295.589	-0.68
295.804	1.37
296.018	15.7
296.233	95.57
296.447	99.67
296.662	5.46
296.877	9.56
297.091	105.81
297.306	5.46
297.52	23.89
297.735	77.14
297.949	36.18
298.164	44.37
298.378	42.32
298.593	38.23
298.807	85.33
299.022	-8.87
299.236	58.71
299.451	1.37
299.665	93.52
299.88	64.85
300.094	7.51
300.309	-21.16
300.523	79.19
300.737	9.56
300.952	44.37
301.166	15.7
301.381	-29.35
301.595	23.89
301.809	-53.93
302.024	52.56
302.238	19.8
302.452	56.66
302.667	50.52
302.881	68.95
303.095	48.47
303.309	81.24
303.524	11.61
303.738	114
303.952	75.09
304.166	48.47
304.381	-53.93
304.595	23.89
304.809	38.23
305.023	87.38
305.237	19.8
305.452	17.75
305.666	50.52
305.88	-0.68
306.094	52.56
306.308	32.08
306.522	124.24
306.736	19.8
306.95	124.24
307.164	32.08
307.379	-4.78
307.593	138.58
307.807	50.52
308.021	114
308.235	44.37
308.449	-41.64
308.663	34.13
308.877	122.2
309.091	19.8
309.305	116.05
309.519	-21.16
309.733	93.52
309.947	7.51
310.161	54.61
310.374	89.43
310.588	19.8
310.802	66.9
311.016	60.76
311.23	3.41
311.444	-47.79
311.658	5.46
311.872	1.37
312.085	81.24
312.299	97.62
312.513	99.67
312.727	3.41
312.941	68.95
313.154	64.85
313.368	-4.78
313.582	36.18
313.796	48.47
314.009	-39.59
314.223	97.62
314.437	68.95
314.651	64.85
314.864	1.37
315.078	81.24
315.292	-0.68
315.505	9.56
315.719	85.33
315.933	48.47
316.146	81.24
316.36	34.13
316.573	109.91
316.787	95.57
317.001	42.32
317.214	-15.02
317.428	56.66
317.641	-25.26
317.855	79.19
318.068	64.85
318.282	50.52
318.495	146.77
318.709	58.71
318.922	-49.83
319.136	1.37
319.349	-4.78
319.563	32.08
319.776	25.94
319.99	44.37
320.203	23.89
320.417	15.7
320.63	140.63
320.843	40.28
321.057	17.75
321.27	3.41
321.483	105.81
321.697	85.33
321.91	60.76
322.124	89.43
322.337	38.23
322.55	81.24
322.763	66.9
322.977	32.08
323.19	73.04
323.403	159.06
323.617	68.95
323.83	81.24
324.043	38.23
324.256	52.56
324.469	-0.68
324.683	114
324.896	36.18
325.109	93.52
325.322	-37.55
325.535	32.08
325.748	64.85
325.962	23.89
326.175	109.91
326.388	197.97
326.601	71
326.814	-0.68
327.027	142.68
327.24	130.39
327.453	40.28
327.666	23.89
327.879	81.24
328.092	87.38
328.305	-0.68
328.518	23.89
328.731	-25.26
328.944	42.32
329.157	120.15
329.37	77.14
329.583	97.62
329.796	122.2
330.009	40.28
330.222	38.23
330.435	60.76
330.648	159.06
330.861	64.85
331.073	109.91
331.286	68.95
331.499	120.15
331.712	-31.4
331.925	32.08
332.138	25.94
332.35	32.08
332.563	17.75
332.776	73.04
332.989	32.08
333.202	23.89
333.414	30.04
333.627	97.62
333.84	-23.21
334.053	30.04
334.265	23.89
334.478	50.52
334.691	25.94
334.903	48.47
335.116	38.23
335.329	-12.97
335.541	52.56
335.754	154.96
335.966	-6.83
336.179	1.37
336.392	23.89
336.604	73.04
336.817	11.61
337.029	122.2
337.242	75.09
337.454	122.2
337.667	23.89
337.88	64.85
338.092	66.9
338.305	48.47
338.517	48.47
338.729	81.24
338.942	116.05
339.154	73.04
339.367	3.41
339.579	17.75
339.792	23.89
340.004	48.47
340.217	71
340.429	71
340.641	34.13
340.854	32.08
341.066	32.08
341.278	34.13
341.491	132.44
341.703	56.66
341.915	7.51
342.128	56.66
342.34	58.71
342.552	89.43
342.764	54.61
342.977	124.24
343.189	62.8
343.401	23.89
343.613	9.56
343.826	66.9
344.038	60.76
344.25	97.62
344.462	30.04
344.674	97.62
344.886	150.87
345.099	66.9
345.311	56.66
345.523	32.08
345.735	1.37
345.947	66.9
346.159	30.04
346.371	32.08
346.583	101.72
346.795	81.24
347.007	17.75
347.219	48.47
347.431	52.56
347.643	62.8
347.855	-8.87
348.067	48.47
348.279	58.71
348.491	34.13
348.703	81.24
348.915	-17.07
349.127	58.71
349.339	32.08
349.551	9.56
349.763	122.2
349.975	91.48
350.187	71
350.399	-12.97
350.61	91.48
350.822	64.85
351.034	50.52
351.246	38.23
351.458	97.62
351.669	40.28
351.881	42.32
352.093	114
352.305	40.28
352.517	99.67
352.728	105.81
352.94	17.75
353.152	32.08
353.363	50.52
353.575	91.48
353.787	60.76
353.999	93.52
354.21	107.86
354.422	-33.45
354.633	9.56
354.845	79.19
355.057	42.32
355.268	71
355.48	66.9
355.692	114
355.903	95.57
356.115	48.47
356.326	-23.21
356.538	118.1
356.749	56.66
356.961	132.44
357.172	109.91
357.384	-41.64
357.595	128.34
357.807	54.61
358.018	52.56
358.23	15.7
358.441	105.81
358.653	64.85
358.864	81.24
359.075	42.32
359.287	25.94
359.498	81.24
359.709	52.56
359.921	97.62
360.132	99.67
360.344	68.95
360.555	64.85
360.766	68.95
360.977	40.28
361.189	79.19
361.4	44.37
361.611	81.24
361.823	81.24
362.034	3.41
362.245	44.37
362.456	58.71
362.667	25.94
362.879	44.37
363.09	124.24
363.301	7.51
363.512	42.32
363.723	48.47
363.935	85.33
364.146	116.05
364.357	23.89
364.568	40.28
364.779	122.2
364.99	99.67
365.201	60.76
365.412	99.67
365.623	23.89
365.834	73.04
366.045	89.43
366.256	56.66
366.467	-12.97
366.678	38.23
366.889	66.9
367.1	32.08
367.311	73.04
367.522	15.7
367.733	101.72
367.944	42.32
368.155	1.37
368.366	116.05
368.577	58.71
368.788	81.24
368.999	36.18
369.209	25.94
369.42	187.73
369.631	50.52
369.842	32.08
370.053	9.56
370.264	130.39
370.474	-33.45
370.685	95.57
370.896	89.43
371.107	77.14
371.317	75.09
371.528	44.37
371.739	91.48
371.95	56.66
372.16	60.76
372.371	36.18
372.582	27.99
372.792	99.67
373.003	50.52
373.214	101.72
373.424	148.82
373.635	32.08
373.846	185.68
374.056	25.94
374.267	40.28
374.477	134.48
374.688	36.18
374.898	58.71
375.109	-4.78
375.319	5.46
375.53	97.62
375.74	64.85
375.951	-39.59
376.161	-12.97
376.372	66.9
376.582	93.52
376.793	93.52
377.003	32.08
377.214	83.28
377.424	64.85
377.635	34.13
377.845	3.41
378.055	134.48
378.266	-62.12
378.476	71
378.686	58.71
378.897	91.48
379.107	95.57
379.317	122.2
379.528	58.71
379.738	126.29
379.948	23.89
380.158	114
380.369	77.14
380.579	66.9
380.789	114
380.999	40.28
381.21	-2.73
381.42	75.09
381.63	77.14
381.84	118.1
382.05	64.85
382.261	138.58
382.471	122.2
382.681	32.08
382.891	89.43
383.101	118.1
383.311	7.51
383.521	-17.07
383.731	77.14
383.941	146.77
384.151	25.94
384.361	40.28
384.571	91.48
384.781	58.71
384.991	120.15
385.201	161.11
385.411	97.62
385.621	66.9
385.831	68.95
386.041	-17.07
386.251	93.52
386.461	128.34
386.671	93.52
386.881	101.72
387.091	66.9
387.301	77.14
387.511	179.54
387.72	132.44
387.93	58.71
388.14	-8.87
388.35	130.39
388.56	130.39
388.769	107.86
388.979	75.09
389.189	60.76
389.399	103.76
389.609	93.52
389.818	73.04
390.028	87.38
390.238	68.95
390.447	52.56
390.657	157.01
390.867	58.71
391.076	75.09
391.286	122.2
391.496	105.81
391.705	83.28
391.915	75.09
392.125	79.19
392.334	79.19
392.544	173.39
392.753	157.01
392.963	44.37
393.172	204.11
393.382	68.95
393.591	114
393.801	95.57
394.01	132.44
394.22	97.62
394.429	64.85
394.639	163.15
394.848	140.63
395.058	79.19
395.267	40.28
395.477	66.9
395.686	157.01
395.895	103.76
396.105	101.72
396.314	189.78
396.524	97.62
396.733	60.76
396.942	97.62
397.152	95.57
397.361	214.35
397.57	132.44
397.78	206.16
397.989	105.81
398.198	220.5
398.407	142.68
398.617	173.39
398.826	132.44
399.035	148.82
399.244	181.59
399.453	103.76
399.663	222.55
399.872	126.29
400.081	167.25
400.29	136.53
400.499	118.1
400.708	163.15
400.917	183.63
401.127	171.35
401.336	195.92
401.545	228.69
401.754	255.31
401.963	206.16
402.172	116.05
402.381	107.86
402.59	175.44
402.799	140.63
403.008	173.39
403.217	189.78
403.426	208.21
403.635	163.15
403.844	200.02
404.053	228.69
404.262	163.15
404.471	286.03
404.68	197.97
404.888	157.01
405.097	200.02
405.306	253.27
405.515	224.59
405.724	253.27
405.933	255.31
406.142	269.65
406.35	275.79
406.559	308.56
406.768	261.46
406.977	253.27
407.185	386.38
407.394	286.03
407.603	347.47
407.812	312.66
408.02	388.43
408.229	335.18
408.438	367.95
408.646	384.34
408.855	331.09
409.064	333.14
409.272	441.68
409.481	402.77
409.69	425.29
409.898	415.05
410.107	435.53
410.315	548.17
410.524	519.5
410.733	451.92
410.941	462.16
411.15	548.17
411.358	566.6
411.567	683.34
411.775	613.71
411.984	654.67
412.192	654.67
412.401	654.67
412.609	650.57
412.818	695.63
413.026	752.97
413.234	863.56
413.443	834.89
413.651	826.7
413.86	826.7
414.068	916.81
414.276	949.57
414.485	965.96
414.693	1131.84
414.901	1047.88
415.11	1068.36
415.318	1031.49
415.526	1172.8
415.734	1219.91
415.943	1174.85
416.151	1181
416.359	1287.49
416.567	1219.91
416.776	1408.32
416.984	1400.13
417.192	1541.44
417.4	1539.39
417.608	1469.76
417.817	1627.45
418.025	1713.47
418.233	1729.85
418.441	1791.29
418.649	1781.05
418.857	1951.03
419.065	1944.89
419.273	1910.07
419.481	2080.05
419.689	2194.74
419.897	2282.8
420.105	2370.87
420.313	2358.58
420.521	2360.63
420.729	2495.79
420.937	2622.77
421.145	2762.03
421.353	2788.65
421.561	2993.45
421.769	2968.87
421.977	3222.82
422.185	3104.04
422.393	3327.27
422.601	3456.29
422.809	3403.04
423.017	3558.69
423.224	3743
423.432	3757.34
423.64	3980.57
423.848	4236.56
424.056	4089.11
424.263	4386.07
424.471	4457.75
424.679	4510.99
424.887	4750.6
425.094	4988.17
425.302	4867.34
425.51	5053.7
425.718	5350.66
425.925	5459.2
426.133	5639.42
426.341	5774.59
426.548	5934.33
426.756	6020.35
426.964	6022.39
427.171	6491.38
427.379	6675.7
427.586	6868.2
427.794	6958.32
428.001	7382.24
428.209	7636.19
428.417	7279.85
428.624	8053.98
428.832	8076.51
429.039	8051.93
429.247	7961.82
429.454	8754.38
429.662	9202.89
429.869	8772.82
430.076	9053.39
430.284	9053.39
430.491	9585.86
430.699	9942.21
430.906	10003.64
431.114	10077.37
431.321	10511.54
431.528	10767.54
431.736	11103.4
431.943	11609.25
432.15	11658.4
432.358	11584.68
432.565	12199.07
432.772	12225.69
432.979	12754.07
433.187	12999.82
433.394	13178
433.601	13915.26
433.808	14079.1
434.016	13886.59
434.223	14449.78
434.43	15371.37
434.637	15076.46
434.844	15907.94
435.052	16243.81
435.259	16317.53
435.466	16432.22
435.673	16227.42
435.88	17040.47
436.087	18084.93
436.294	18072.64
436.501	17587.27
436.708	18060.35
436.915	18750.52
437.122	19553.32
437.329	19160.11
437.537	20153.38
437.743	20628.51
437.95	20345.89
438.157	21414.93
438.364	22225.92
438.571	21668.87
438.778	22086.66
438.985	23880.68
439.192	23032.82
439.399	23847.91
439.606	23536.62
439.813	24458.21
440.02	26127.3
440.227	25713.61
440.433	25289.68
440.64	26309.57
440.847	26049.48
441.054	26653.63
441.261	28883.87
441.467	28126.12
441.674	28631.97
441.881	29576.08
442.088	29760.4
442.294	29377.43
442.501	30047.11
442.708	30651.27
442.914	31832.94
443.121	33336.15
443.328	32283.5
443.534	34665.28
443.741	33485.65
443.948	33153.88
444.154	36000.56
444.361	35392.31
444.568	35797.81
444.774	35353.4
444.981	36389.67
445.187	36905.76
445.394	38226.7
445.6	37735.19
445.807	41687.77
446.013	39604.99
446.22	40350.45
446.426	42302.16
446.633	42111.7
446.839	43791.03
447.046	42126.03
447.252	44427.95
447.459	44483.25
447.665	44255.92
447.871	45990.55
448.078	48335.48
448.284	45654.68
448.491	47035.02
448.697	48482.93
448.903	49515.11
449.11	49951.32
449.316	48779.88
449.522	49719.9
449.728	51069.51
449.935	51364.42
450.141	51294.79
450.347	52046.4
450.553	50696.78
450.76	51092.04
450.966	53064.24
451.172	52613.68
451.378	53506.6
451.584	52507.19
451.791	53604.9
451.997	53479.97
452.203	54624.79
452.409	55005.71
452.615	54067.74
452.821	52589.11
453.027	51395.14
453.233	54413.85
453.44	52496.95
453.646	52789.81
453.852	52695.6
454.058	53666.34
454.264	52048.44
454.47	53062.19
454.676	51817.02
454.882	53379.62
455.088	49453.67
455.294	49855.07
455.5	50188.89
455.705	51098.19
455.911	49087.08
456.117	48525.94
456.323	47442.56
456.529	45519.52
456.735	47280.77
456.941	45882.01
457.147	44675.76
457.352	43621.05
457.558	43496.13
457.764	43328.19
457.97	42541.77
458.176	41714.39
458.381	41267.94
458.587	39418.62
458.793	39785.21
458.999	37069.6
459.204	40217.33
459.41	39283.45
459.616	36444.97
459.821	36670.25
460.027	36670.25
460.233	35443.51
460.438	33760.08
460.644	34308.94
460.85	32828.26
461.055	32156.52
461.261	32291.69
461.466	29995.92
461.672	28935.07
461.878	31140.73
462.083	28644.26
462.289	28642.21
462.494	28412.84
462.7	26530.75
462.905	25918.41
463.111	26960.83
463.316	27280.31
463.522	26686.4
463.727	27108.28
463.932	26850.24
464.138	26186.69
464.343	26459.07
464.549	25760.72
464.754	26577.86
464.959	26012.62
465.165	26391.49
465.37	24873.95
465.575	24443.87
465.781	25160.66
465.986	25285.59
466.191	24671.2
466.397	23972.84
466.602	22875.13
466.807	23800.81
467.012	23897.06
467.218	23579.63
467.423	23407.6
467.628	23485.42
467.833	24335.33
468.038	23342.07
468.244	22649.85
468.449	23565.29
468.654	22846.46
468.859	23008.25
469.064	23002.1
469.269	21845
469.474	21900.3
469.679	22201.35
469.885	21847.05
470.09	22117.38
470.295	21906.44
470.5	21236.75
470.705	21498.89
470.91	21197.84
471.115	20935.7
471.32	21511.18
471.525	20937.75
471.73	20263.97
471.935	20368.41
472.139	19672.11
472.344	19995.68
472.549	19930.15
472.754	19784.74
472.959	19412.01
473.164	18744.38
473.369	18560.06
473.574	19276.85
473.778	19006.52
473.983	18697.27
474.188	18828.34
474.393	17921.09
474.598	17947.72
474.802	17810.5
475.007	17689.67
475.212	17908.8
475.417	17124.43
475.621	16923.73
475.826	17351.76
476.031	16751.7
476.235	16419.93
476.44	17079.38
476.645	16395.36
476.849	16481.37
477.054	16223.33
477.259	16223.33
477.463	15809.64
477.668	15580.26
477.872	15715.43
478.077	15701.09
478.282	15307.88
478.486	15008.88
478.691	15156.33
478.895	15047.79
479.1	14896.24
479.304	14697.59
479.509	14449.78
479.713	14640.25
479.918	14234.75
480.122	14300.28
480.326	14285.95
480.531	14376.06
480.735	14378.11
480.94	14085.25
481.144	14595.19
481.348	13655.17
481.553	14146.69
481.757	13782.15
481.961	13909.12
482.166	13943.94
482.37	13995.14
482.574	13702.28
482.778	13747.33
482.983	14097.53
483.187	13862.02
483.391	14054.53
483.595	13644.93
483.8	13649.03
484.004	13718.66
484.208	14091.39
484.412	14058.62
484.616	13819.01
484.821	13593.73
485.025	13720.71
485.229	13788.29
485.433	13628.55
485.637	13730.95
485.841	13765.76
486.045	13638.79
486.249	13796.48
486.453	13614.21
486.657	13982.85
486.861	13827.2
487.065	13388.94
487.269	13790.34
487.473	13614.21
487.677	13610.12
487.881	13884.55
488.085	13726.85
488.289	13698.18
488.493	13667.46
488.697	13831.3
488.901	13862.02
489.105	13882.5
489.309	13755.52
489.512	13902.98
489.716	13868.16
489.92	13872.26
490.124	13962.37
490.328	14099.58
490.531	13978.75
490.735	14040.19
490.939	14087.29
491.143	13933.7
491.346	13933.7
491.55	14222.46
491.754	14310.52
491.958	14365.82
492.161	14339.19
492.365	14507.13
492.569	14255.23
492.772	14326.91
492.976	14587
493.18	14382.2
493.383	14877.81
493.587	14720.12
493.79	14769.27
493.994	14750.84
494.197	15017.07
494.401	15080.56
494.605	15209.58
494.808	15336.56
495.012	15254.64
495.215	15432.81
495.419	15441
495.622	15451.24
495.825	15649.89
496.029	15510.63
496.232	16030.82
496.436	15909.99
496.639	16274.53
496.843	16274.53
497.046	16680.02
497.249	16804.95
497.453	16538.71
497.656	17019.99
497.859	16827.48
498.063	17288.27
498.266	17464.39
498.469	17699.91
498.673	17577.03
498.876	18068.55
499.079	17820.74
499.282	18224.19
499.485	18730.04
499.689	18439.23
499.892	18766.9
500.095	18603.07
500.298	19084.34
500.501	19061.81
500.705	19432.49
500.908	19924.01
501.111	19950.63
501.314	20126.75
501.517	20495.39
501.72	20573.21
501.923	20466.72
502.126	21062.68
502.329	21101.59
502.532	21597.2
502.735	21400.59
502.938	21996.55
503.141	21922.82
503.344	22422.53
503.547	22291.46
503.75	22918.14
503.953	22862.84
504.156	23059.45
504.359	23399.41
504.562	23323.63
504.765	23714.8
504.968	24228.84
505.17	24574.94
505.373	24525.79
505.576	24941.53
505.779	24968.15
505.982	25236.44
506.185	25826.25
506.387	25519.06
506.59	26063.82
506.793	26463.17
506.996	26633.15
507.198	27284.4
507.401	26756.03
507.604	27448.24
507.807	27812.78
508.009	27872.17
508.212	27863.98
508.415	28402.6
508.617	28808.09
508.82	28930.97
509.022	28693.41
509.225	29471.64
509.428	29725.58
509.63	29938.57
509.833	30155.66
510.035	31056.76
510.238	30368.65
510.44	31220.6
510.643	31546.23
510.845	31855.47
511.048	31409.01
511.25	32236.39
511.453	32142.19
511.655	33579.86
511.858	33278.81
512.06	33514.33
512.262	33815.38
512.465	33432.41
512.667	33854.29
512.87	34267.98
513.072	34511.69
513.274	35420.98
513.477	35124.03
513.679	35601.21
513.881	36285.23
514.084	36078.38
514.286	36301.61
514.488	36635.43
514.69	37772.05
514.893	37800.72
515.095	37899.03
515.297	37921.55
515.499	38152.98
515.701	38613.77
515.904	39179.01
516.106	39469.82
516.308	39731.96
516.51	39805.69
516.712	40256.24
516.914	40526.57
517.116	40970.98
517.318	41009.89
517.52	41536.22
517.722	41511.64
517.925	41888.47
518.127	42138.32
518.329	42644.17
518.531	42713.8
518.733	43250.37
518.935	43334.34
519.136	43641.53
519.338	44305.07
519.54	44311.22
519.742	44563.12
519.944	44452.53
520.146	45496.99
520.348	45642.4
520.55	45120.16
520.752	45628.06
520.954	46303.89
521.155	45847.19
521.357	46623.37
521.559	46899.85
521.761	47454.85
521.963	47268.48
522.164	47592.06
522.366	47420.03
522.568	48022.14
522.77	48534.13
522.971	49181.29
523.173	48331.38
523.375	48804.46
523.576	48480.88
523.778	48986.73
523.98	49527.39
524.181	49597.02
524.383	49480.29
524.584	49752.67
524.786	50410.07
524.988	49795.68
525.189	50319.96
525.391	50295.38
525.592	50598.48
525.794	50815.57
525.995	51188.3
526.197	50807.37
526.398	50893.39
526.6	50909.77
526.801	51358.28
527.003	51223.11
527.204	51462.72
527.406	51688
527.607	51714.62
527.808	51931.71
528.01	51108.43
528.211	51450.44
528.412	52283.96
528.614	52228.66
528.815	51958.33
529.016	52554.29
529.218	51778.11
529.419	52292.15
529.62	52253.24
529.822	52030.01
530.023	51907.13
530.224	52126.27
530.425	52210.23
530.626	51950.14
530.828	51714.62
531.029	52863.53
531.23	52013.63
531.431	51991.1
531.632	52400.69
531.833	52396.6
532.035	52357.69
532.236	52599.35
532.437	52535.86
532.638	52075.07
532.839	52367.93
533.04	52363.83
533.241	51438.15
533.442	52791.86
533.643	52363.83
533.844	51913.28
534.045	52462.13
534.246	51634.75
534.447	52277.82
534.648	52011.58
534.849	52302.39
535.05	51237.45
535.251	52159.03
535.451	51980.86
535.652	52097.59
535.853	51835.45
536.054	52032.06
536.255	51622.47
536.456	51546.69
536.657	52492.85
536.857	51819.07
537.058	51692.1
537.259	52013.63
537.46	52032.06
537.66	51655.23
537.861	51556.93
538.062	51563.07
538.263	51927.61
538.463	51413.57
538.664	51638.85
538.865	51438.15
539.065	51264.07
539.266	50997.84
539.466	51982.91
539.667	50977.36
539.868	51487.3
540.068	51253.83
540.269	51176.01
540.469	51546.69
540.67	51442.24
540.87	51063.37
541.071	51319.37
541.271	51468.87
541.472	51104.33
541.672	51130.95
541.873	51302.98
542.073	50659.92
542.274	51286.6
542.474	51225.16
542.675	50803.28
542.875	51415.62
543.075	50596.43
543.276	50145.88
543.476	51366.47
543.676	50786.89
543.877	50745.93
544.077	51128.91
544.277	50946.64
544.478	50913.87
544.678	50713.17
544.878	50930.25
545.078	50840.14
545.279	50471.51
545.479	51003.98
545.679	50936.4
545.879	51167.82
546.079	50842.19
546.28	50780.75
546.48	50373.2
546.68	51118.67
546.88	50778.7
547.08	50602.58
547.28	50752.08
547.48	50281.05
547.68	50410.07
547.88	50489.94
548.081	50704.98
548.281	50737.74
548.481	50455.12
548.681	50926.16
548.881	50614.86
549.081	50852.43
549.28	50086.49
549.48	50602.58
549.68	50340.44
549.88	51223.11
550.08	50180.7
550.28	50700.88
550.48	50717.26
550.68	50858.57
550.88	50246.23
551.08	50465.36
551.279	50719.31
551.479	50213.46
551.679	50332.25
551.879	50557.52
552.079	51126.86
552.278	50338.39
552.478	50883.15
552.678	50717.26
552.878	50868.81
553.077	50465.36
553.277	49963.61
553.477	51124.81
553.676	50571.86
553.876	51063.37
554.076	50598.48
554.275	50221.65
554.475	49885.79
554.674	50549.33
554.874	50815.57
555.074	50649.68
555.273	50752.08
555.473	50786.89
555.672	50158.17
555.872	50367.06
556.071	50672.21
556.271	50803.28
556.47	50301.53
556.67	50440.79
556.869	50485.84
557.068	50893.39
557.268	50324.05
557.467	50393.68
557.667	50938.44
557.866	50629.2
558.065	50747.98
558.265	50401.88
558.464	50070.11
558.663	50745.93
558.863	49994.33
559.062	50766.41
559.261	50287.19
559.461	50704.98
559.66	50031.19
559.859	50352.72
560.058	49934.94
560.258	50606.67
560.457	49922.65
560.656	50778.7
560.855	50231.89
561.054	50412.12
561.253	50389.59
561.453	50274.9
561.652	50514.51
561.851	50604.63
562.05	50145.88
562.249	50205.27
562.448	50299.48
562.647	50102.87
562.846	50014.81
563.045	50104.92
563.244	49578.59
563.443	50539.09
563.642	49678.94
563.841	49838.68
564.04	49842.78
564.239	50149.98
564.438	49664.61
564.637	49662.56
564.836	50164.31
565.035	49189.48
565.234	50045.53
565.432	49693.28
565.631	49547.87
565.83	49646.18
566.029	49402.47
566.228	49465.95
566.427	49750.62
566.625	49175.14
566.824	48599.66
567.023	49287.78
567.222	48566.9
567.42	49431.14
567.619	49082.98
567.818	48728.69
568.016	48783.98
568.215	49087.08
568.414	48919.15
568.612	48788.08
568.811	48751.21
569.01	48716.4
569.208	47985.27
569.407	48872.04
569.605	47923.83
569.804	48788.08
570.002	47676.03
570.201	48384.63
570.4	47962.75
570.598	48022.14
570.797	47698.56
570.995	47870.59
571.193	47444.61
571.392	47680.13
571.59	47118.98
571.789	47620.73
571.987	47532.67
572.186	47166.09
572.384	46969.48
572.582	47415.94
572.781	47415.94
572.979	46764.68
573.177	47071.88
573.376	47184.52
573.574	46762.64
573.772	46783.12
573.971	46795.4
574.169	46340.75
574.367	46432.91
574.565	46172.82
574.763	46256.79
574.962	46232.21
575.16	45761.18
575.358	46049.94
575.556	45828.76
575.754	46224.02
575.952	45294.24
576.151	46011.03
576.349	45318.82
576.547	45144.74
576.745	45568.67
576.943	45548.19
577.141	44821.16
577.339	45429.41
577.537	44952.23
577.735	45028.01
577.933	44640.94
578.131	44686
578.329	44597.93
578.527	44395.18
578.725	44614.32
578.923	44651.18
579.121	44016.31
579.319	44493.49
579.516	44470.96
579.714	44110.52
579.912	44233.39
580.11	43524.8
580.308	43727.55
580.506	43576
580.704	42967.75
580.901	43694.78
581.099	43899.58
581.297	43021
581.495	43061.96
581.692	43295.42
581.89	42390.22
582.088	43086.53
582.285	42584.78
582.483	42810.06
582.681	42769.1
582.878	42672.84
583.076	41997.01
583.274	42635.98
583.471	41892.57
583.669	41941.72
583.866	41861.85
584.064	42328.78
584.262	41382.62
584.459	41519.84
584.657	41972.44
584.854	41898.71
585.052	41374.43
585.249	41878.23
585.447	41704.15
585.644	41186.02
585.841	41423.58
586.039	41327.33
586.236	41028.32
586.434	41007.84
586.631	40704.74
586.828	40684.26
587.026	40874.73
587.223	40415.98
587.42	40415.98
587.618	40377.07
587.815	40317.68
588.012	39975.67
588.21	40334.06
588.407	40633.07
588.604	39787.25
588.801	39815.93
588.999	39615.22
589.196	39680.76
589.393	39473.92
589.59	39564.03
589.787	39252.73
589.984	39357.18
590.182	39115.52
590.379	39121.66
590.576	38742.79
590.773	39197.44
590.97	38916.87
591.167	38988.55
591.364	38769.41
591.561	39013.12
591.758	38568.71
591.955	38574.86
592.152	38318.86
592.349	38273.81
592.546	38286.09
592.743	38671.11
592.94	37946.13
593.137	38353.68
593.334	37989.14
593.531	37567.26
593.727	37511.96
593.924	37688.09
594.121	37466.91
594.318	37772.05
594.515	37356.32
594.712	37532.44
594.908	37149.47
595.105	37362.46
595.302	37081.89
595.499	37413.66
595.696	37253.92
595.892	36895.52
596.089	37139.23
596.286	37010.21
596.482	37032.74
596.679	36563.75
596.876	37194.53
597.072	36299.56
597.269	36428.59
597.466	36371.24
597.662	36252.46
597.859	36148.01
598.055	36365.1
598.252	36006.7
598.448	36363.05
598.645	36178.73
598.841	35867.44
599.038	36113.2
599.234	36029.23
599.431	35914.55
599.627	35709.75
599.824	35814.19
600.02	35726.13
600.217	35975.98
600.413	35726.13
600.609	35695.41
600.806	35443.51
601.002	35582.77
601.198	35586.87
601.395	35042.11
601.591	35490.62
601.787	35337.02
601.984	34941.76
602.18	35531.58
602.376	35273.53
602.572	34882.37
602.769	35072.83
602.965	34771.78
603.161	35169.08
603.357	34704.2
603.553	34511.69
603.75	35083.07
603.946	34736.96
604.142	35048.25
604.338	34415.43
604.534	35017.53
604.73	34540.36
604.926	34814.79
605.122	34841.41
605.318	34450.25
605.514	34667.33
605.71	34513.73
605.906	34366.28
606.102	34601.8
606.298	34779.97
606.494	34468.68
606.69	34736.96
606.886	34421.58
607.082	33784.66
607.278	34444.1
607.474	34188.11
607.67	34222.92
607.866	33696.6
608.062	34751.3
608.257	34347.85
608.453	34190.16
608.649	34587.46
608.845	34462.54
609.041	34425.67
609.236	34616.13
609.432	34054.99
609.628	34577.22
609.824	34171.72
610.019	33727.31
610.215	34128.72
610.411	34431.82
610.606	33842
610.802	34296.65
610.998	34026.32
611.193	34067.28
611.389	34085.71
611.584	33788.75
611.78	34175.82
611.976	33944.4
612.171	34059.09
612.367	34112.33
612.562	34102.09
612.758	33702.74
612.953	33885.01
613.149	34224.97
613.344	33452.89
613.539	34241.35
613.735	34145.1
613.93	34083.66
614.126	34034.51
614.321	34587.46
614.517	33844.05
614.712	33870.67
614.907	33717.07
615.103	33885.01
615.298	33680.21
615.493	34724.68
615.688	33319.77
615.884	33889.1
616.079	33495.89
616.274	33827.67
616.47	33739.6
616.665	33786.71
616.86	33274.71
617.055	33766.23
617.25	33467.22
617.445	33520.47
617.641	33057.63
617.836	33659.73
618.031	33151.84
618.226	33387.35
618.421	33207.13
618.616	33215.32
618.811	32856.93
619.006	33254.23
619.201	32519.01
619.396	32867.17
619.591	32154.47
619.786	32895.84
619.981	32131.95
620.176	32633.7
620.371	32125.8
620.566	32314.22
620.761	32002.92
620.956	32238.44
621.151	31542.13
621.346	31990.64
621.541	31417.21
621.735	31982.45
621.93	31286.14
622.125	31466.36
622.32	31001.47
622.515	31099.77
622.709	30872.45
622.904	30649.22
623.099	30483.33
623.294	30419.85
623.488	30219.14
623.683	30217.1
623.878	29834.13
624.072	30061.45
624.267	29920.14
624.462	29559.7
624.656	29402
624.851	29547.41
625.046	29240.22
625.24	29088.67
625.435	28875.68
625.629	28660.64
625.824	28335.01
626.018	28466.08
626.213	27847.6
626.407	28222.37
626.602	28079.02
626.796	27896.75
626.991	28087.21
627.185	28165.03
627.38	27710.38
627.574	27286.45
627.768	27085.75
627.963	26926.01
628.157	26948.54
628.352	27425.71
628.546	26530.75
628.74	27038.65
628.935	26397.63
629.129	26684.35
629.323	25926.6
629.517	26233.8
629.712	25787.34
629.906	25975.75
630.1	25586.64
630.294	25764.81
630.489	25486.29
630.683	25674.7
630.877	25166.81
631.071	25029.59
631.265	25019.35
631.459	24564.7
631.653	24927.19
631.848	24753.12
632.042	24452.06
632.236	24443.87
632.43	24036.33
632.624	24257.51
632.818	24163.3
633.012	24093.67
633.206	23694.32
633.4	23837.67
633.594	23344.11
633.788	23616.49
633.982	23614.44
634.176	23401.46
634.369	23075.83
634.563	23096.31
634.757	22504.45
634.951	23006.2
635.145	22911.99
635.339	22856.7
635.533	22469.63
635.726	22602.75
635.92	22250.5
636.114	22258.69
636.308	22244.35
636.501	21982.21
636.695	21976.07
636.889	21666.83
637.083	21574.67
637.276	21361.68
637.47	21376.02
637.664	21203.99
637.857	21117.97
638.051	21187.6
638.244	20689.95
638.438	20569.12
638.632	20757.53
638.825	20517.92
639.019	20466.72
639.212	20384.8
639.406	20130.85
639.599	20079.65
639.793	20349.98
639.986	19864.61
640.18	19889.19
640.373	19508.27
640.567	19526.7
640.76	19592.23
640.954	19299.37
641.147	19104.82
641.34	19049.52
641.534	18879.54
641.727	19051.57
641.92	18971.7
642.114	18623.55
642.307	18803.77
642.5	18551.87
642.694	18340.93
642.887	18418.75
643.08	18412.6
643.273	18525.24
643.467	18082.88
643.66	17824.84
643.853	17988.67
644.046	17722.44
644.239	17835.08
644.432	17259.6
644.626	17370.19
644.819	17439.82
645.012	17278.03
645.205	17167.44
645.398	17007.7
645.591	16962.64
645.784	17132.62
645.977	16817.24
646.17	16688.21
646.363	16510.04
646.556	16469.08
646.749	16473.18
646.942	16632.92
647.135	16022.62
647.328	16202.85
647.521	15981.67
647.714	15780.96
647.907	15998.05
648.099	15905.89
648.292	15629.41
648.485	15713.38
648.678	15422.57
648.871	15469.67
649.064	15156.33
649.256	15447.15
649.449	15256.68
649.642	15281.26
649.835	14888.05
650.027	14933.11
650.22	14941.3
650.413	14896.24
650.605	15041.65
650.798	14720.12
650.991	14621.81
651.183	14574.71
651.376	14490.74
651.568	14351.48
651.761	14238.84
651.954	14011.52
652.146	14304.38
652.339	14165.12
652.531	14173.31
652.724	14089.34
652.916	13814.91
653.109	13982.85
653.301	13792.39
653.494	13689.99
653.686	13622.41
653.879	13456.52
654.071	13509.77
654.263	13380.75
654.456	13411.46
654.648	13489.29
654.84	13077.65
655.033	12874.9
655.225	12868.75
655.417	12944.53
655.61	12842.13
655.802	13042.83
655.994	12958.86
656.186	12833.94
656.379	12684.44
656.571	12588.18
656.763	12231.83
656.955	12356.76
657.148	12582.04
657.34	12326.04
657.532	11898.02
657.724	12086.43
657.916	12106.91
658.108	12063.9
658.3	12070.05
658.492	12104.86
658.684	11857.06
658.876	11914.4
659.068	11871.39
659.26	11521.19
659.452	11783.33
659.644	11738.27
659.836	11291.82
660.028	11351.21
660.22	11173.03
660.412	11297.96
660.604	11140.27
660.796	11312.3
660.988	11084.97
661.18	11007.15
661.372	10951.85
661.563	11080.88
661.755	10734.77
661.947	10886.32
662.139	10648.75
662.331	10628.28
662.522	10534.07
662.714	10697.91
662.906	10441.91
663.097	10628.28
663.289	10323.13
663.481	10357.94
663.673	10454.2
663.864	9991.36
664.056	9985.21
664.247	9958.59
664.439	9931.97
664.631	9903.29
664.822	9927.87
665.014	9956.54
665.205	9850.05
665.397	9807.04
665.588	9833.66
665.78	9585.86
665.971	9804.99
666.163	9604.29
666.354	9379.01
666.546	9577.67
666.737	9329.86
666.929	9217.22
667.12	9297.1
667.311	9358.53
667.503	9051.34
667.694	9114.83
667.885	9153.74
668.077	9315.53
668.268	8994
668.459	8987.85
668.651	8903.89
668.842	8887.5
669.033	8838.35
669.224	8826.06
669.416	8963.28
669.607	8647.89
669.798	8559.83
669.989	8879.31
670.18	8664.27
670.371	8608.98
670.563	8475.86
670.754	8649.94
670.945	8461.52
671.136	8439
671.327	8293.59
671.518	8342.74
671.709	8254.68
671.9	8361.17
672.091	8256.73
672.282	8166.62
672.473	8023.26
672.664	8090.84
672.855	8049.88
673.046	8035.55
673.237	8150.23
673.428	8152.28
673.619	7986.4
673.809	7888.09
674	7863.52
674.191	7976.16
674.382	7785.69
674.573	7642.34
674.764	7654.62
674.954	7699.68
675.145	7511.27
675.336	7630.05
675.527	7576.8
675.717	7658.72
675.908	7521.51
676.099	7511.27
676.289	7607.52
676.48	7400.68
676.671	7494.88
676.861	7308.52
677.052	7234.79
677.243	7345.38
677.433	7242.98
677.624	7396.58
677.814	7290.09
678.005	7281.89
678.195	7118.06
678.386	7216.36
678.576	7009.51
678.767	7232.74
678.957	7066.86
679.148	7220.46
679.338	7019.75
679.529	7029.99
679.719	7052.52
679.909	7056.62
680.1	6956.27
680.29	7019.75
680.481	6896.88
680.671	6814.96
680.861	6880.49
681.052	6888.68
681.242	6733.04
681.432	7027.95
681.622	6561.01
681.813	6673.65
682.003	6794.48
682.193	6487.28
682.383	6753.52
682.573	6677.74
682.764	6700.27
682.954	6687.98
683.144	6610.16
683.334	6565.11
683.524	6563.06
683.714	6454.51
683.904	6532.34
684.094	6487.28
684.284	6581.49
684.474	6524.15
684.664	6399.22
684.854	6315.25
685.044	6245.62
685.234	6323.44
685.424	6423.8
685.614	6335.73
685.804	6341.88
685.994	6167.8
686.184	6284.53
686.374	6356.21
686.564	6208.76
686.753	6247.67
686.943	6208.76
687.133	6087.93
687.323	6073.59
687.513	6249.72
687.702	6143.22
687.892	6018.3
688.082	5934.33
688.272	6020.35
688.461	5889.28
688.651	5971.19
688.841	5903.61
689.03	5750.01
689.22	5858.56
689.41	5893.37
689.599	5973.24
689.789	5922.04
689.979	5825.79
690.168	5881.08
690.358	5813.5
690.547	5702.91
690.737	5741.82
690.926	5803.26
691.116	5518.59
691.305	5844.22
691.495	5436.67
691.684	5625.09
691.874	5666.05
692.063	5487.87
692.252	5598.46
692.442	5534.98
692.631	5577.98
692.82	5537.02
693.01	5367.04
693.199	5457.15
693.388	5317.89
693.578	5278.98
693.767	5496.07
693.956	5424.39
694.146	5315.84
694.335	5348.61
694.524	5195.01
694.713	5340.42
694.902	5205.25
695.092	5293.32
695.281	5135.62
695.47	5211.4
695.659	5074.18
695.848	5174.53
696.037	5137.67
696.226	5072.14
696.415	5092.62
696.604	5166.34
696.793	5086.47
696.982	5025.03
697.171	5106.95
697.36	4916.49
697.549	4941.07
697.738	4965.64
697.927	4855.05
698.116	4857.1
698.305	4914.44
698.494	5029.13
698.683	4785.42
698.872	5025.03
699.061	4783.37
699.25	4871.43
699.438	4832.52
699.627	4828.43
699.816	5004.55
700.005	4791.56
700.193	4738.32
700.382	4797.71
700.571	4744.46
700.76	4785.42
700.948	4771.08
701.137	4627.73
701.326	4601.1
701.514	4439.31
701.703	4631.82
701.892	4390.16
702.08	4775.18
702.269	4621.58
702.457	4629.77
702.646	4422.93
702.834	4486.42
703.023	4506.9
703.212	4412.69
703.4	4592.91
703.589	4494.61
703.777	4597.01
703.965	4406.55
704.154	4414.74
704.342	4302.1
704.531	4232.47
704.719	4349.2
704.907	4472.08
705.096	4304.15
705.284	4275.48
705.472	4224.28
705.661	4295.96
705.849	4275.48
706.037	4422.93
706.226	4209.94
706.414	4316.44
706.602	4218.13
706.79	4158.74
706.979	4148.5
707.167	4099.35
707.355	4168.98
707.543	3939.61
707.731	4039.96
707.919	3976.47
708.107	4171.03
708.296	3970.33
708.484	3919.13
708.672	3962.14
708.86	4013.34
709.048	4046.1
709.236	3949.85
709.424	3945.75
709.612	4062.49
709.8	3970.33
709.988	3915.03
710.176	3882.27
710.364	3906.84
710.551	3833.11
710.739	3884.31
710.927	3822.88
711.115	3816.73
711.303	3978.52
711.491	3745.05
711.679	3691.8
711.866	3714.33
712.054	3794.2
712.242	3652.89
712.43	3749.15
712.617	3646.75
712.805	3570.97
712.993	3630.37
713.181	3544.35
713.368	3554.59
713.556	3677.47
713.744	3497.25
713.931	3570.97
714.119	3501.34
714.306	3505.44
714.494	3562.78
714.682	3513.63
714.869	3482.91
715.057	3513.63
715.244	3360.03
715.432	3542.3
715.619	3538.21
715.807	3452.19
715.994	3366.18
716.182	3343.65
716.369	3300.64
716.556	3450.14
716.744	3325.22
716.931	3314.98
717.119	3417.38
717.306	3351.84
717.493	3398.95
717.681	3462.43
717.868	3200.29
718.055	3312.93
718.242	3343.65
718.43	3255.59
718.617	3300.64
718.804	3136.81
718.991	3188
719.179	3220.77
719.366	3214.63
719.553	3298.59
719.74	3104.04
719.927	3083.56
720.114	3097.89
720.301	2956.58
720.488	3083.56
720.676	2950.44
720.863	3058.98
721.05	3140.9
721.237	3020.07
721.424	3081.51
721.611	2975.02
721.798	3108.13
721.985	3097.89
722.172	2907.43
722.358	2929.96
722.545	3009.83
722.732	2866.47
722.919	2919.72
723.106	2891.05
723.293	2923.82
723.48	2938.15
723.667	2831.66
723.853	2923.82
724.04	2899.24
724.227	2850.09
724.414	2854.19
724.6	2837.8
724.787	2833.71
724.974	2968.87
725.161	2651.44
725.347	2776.36
725.534	2772.27
725.72	2768.17
725.907	2807.08
726.094	2753.84
726.28	2555.18
726.467	2620.72
726.653	2686.25
726.84	2719.02
727.027	2624.81
727.213	2653.48
727.4	2551.09
727.586	2747.69
727.773	2606.38
727.959	2639.15
728.145	2604.33
728.332	2590
728.518	2610.48
728.705	2653.48
728.891	2546.99
729.077	2522.41
729.264	2604.33
729.45	2575.66
729.636	2555.18
729.823	2622.77
730.009	2514.22
730.195	2553.13
730.382	2563.37
730.568	2497.84
730.754	2352.43
730.94	2475.31
731.126	2442.54
731.313	2557.23
731.499	2493.74
731.685	2383.15
731.871	2489.65
732.057	2520.37
732.243	2407.73
732.429	2571.57
732.615	2522.41
732.801	2290.99
732.987	2452.78
733.173	2393.39
733.359	2428.21
733.545	2295.09
733.731	2319.67
733.917	2415.92
734.103	2440.5
734.289	2372.91
734.475	2217.27
734.661	2411.82
734.847	2370.87
735.033	2256.18
735.219	2334
735.404	2254.13
735.59	2243.89
735.776	2219.32
735.962	2280.75
736.148	2329.91
736.333	2278.71
736.519	2170.16
736.705	2127.16
736.89	2221.36
737.076	2284.85
737.262	2223.41
737.447	2213.17
737.633	2186.55
737.819	2213.17
738.004	2092.34
738.19	2211.12
738.375	2149.68
738.561	2225.46
738.747	2135.35
738.932	2112.82
739.118	2055.48
739.303	2135.35
739.489	2092.34
739.674	2088.25
739.859	2000.18
740.045	2118.96
740.23	2067.77
740.416	1893.69
740.601	2125.11
740.786	2090.29
740.972	1973.56
741.157	1998.13
741.342	1971.51
741.528	1944.89
741.713	1998.13
741.898	1989.94
742.084	1998.13
742.269	2051.38
742.454	1793.34
742.639	2037.05
742.824	1926.46
743.01	1955.13
743.195	1948.98
743.38	1887.54
743.565	1828.15
743.75	1797.43
743.935	1781.05
744.12	1948.98
744.305	1854.78
744.49	1809.72
744.675	1809.72
744.86	1805.63
745.045	1936.7
745.23	1787.19
745.415	1735.99
745.6	1791.29
745.785	1760.57
745.97	1822.01
746.155	1826.11
746.34	1662.27
746.525	1678.65
746.71	1738.04
746.895	1631.55
747.079	1633.6
747.264	1715.52
747.449	1662.27
747.634	1639.74
747.819	1600.83
748.003	1572.16
748.188	1645.88
748.373	1604.92
748.557	1604.92
748.742	1658.17
748.927	1572.16
749.111	1488.19
749.296	1615.16
749.481	1527.1
749.665	1576.25
749.85	1441.09
750.034	1617.21
750.219	1467.71
750.404	1494.33
750.588	1520.96
750.773	1574.21
750.957	1473.85
751.141	1488.19
751.326	1510.72
751.51	1494.33
751.695	1502.53
751.879	1420.61
752.064	1473.85
752.248	1408.32
752.432	1418.56
752.617	1383.74
752.801	1408.32
752.985	1432.9
753.17	1449.28
753.354	1285.44
753.538	1350.98
753.722	1297.73
753.907	1353.02
754.091	1219.91
754.275	1457.47
754.459	1285.44
754.643	1264.96
754.828	1326.4
755.012	1256.77
755.196	1357.12
755.38	1291.59
755.564	1289.54
755.748	1238.34
755.932	1271.11
756.116	1209.67
756.3	1221.95
756.484	1162.56
756.668	1258.82
756.852	1269.06
757.036	1142.08
757.22	1099.08
757.404	1252.67
757.588	1051.97
757.772	1203.52
757.956	1176.9
758.14	1209.67
758.323	1094.98
758.507	1097.03
758.691	1056.07
758.875	1135.94
759.059	1123.65
759.242	1076.55
759.426	1115.46
759.61	1000.77
759.794	1107.27
759.977	1099.08
760.161	1109.32
760.345	996.68
760.528	1107.27
760.712	1072.45
760.895	1097.03
761.079	1058.12
761.263	1099.08
761.446	980.29
761.63	1043.78
761.813	957.77
761.997	933.19
762.18	959.81
762.364	1023.3
762.547	951.62
762.731	990.53
762.914	853.32
763.098	998.73
763.281	925
763.464	986.44
763.648	1015.11
763.831	935.24
764.015	957.77
764.198	894.28
764.381	990.53
764.564	925
764.748	910.66
764.931	965.96
765.114	900.42
765.297	974.15
765.481	857.42
765.664	941.38
765.847	916.81
766.03	990.53
766.213	859.46
766.397	974.15
766.58	861.51
766.763	941.38
766.946	896.33
767.129	886.09
767.312	929.1
767.495	886.09
767.678	838.98
767.861	949.57
768.044	910.66
768.227	867.66
768.41	857.42
768.593	871.75
768.776	820.55
768.959	822.6
769.142	875.85
769.324	884.04
769.507	849.22
769.69	826.7
769.873	832.84
770.056	830.79
770.239	820.55
770.421	877.9
770.604	795.98
770.787	822.6
770.97	812.36
771.152	834.89
771.335	838.98
771.518	820.55
771.7	834.89
771.883	769.35
772.066	828.74
772.248	781.64
772.431	884.04
772.613	826.7
772.796	781.64
772.978	752.97
773.161	836.94
773.343	761.16
773.526	720.2
773.708	746.83
773.891	701.77
774.073	679.24
774.256	712.01
774.438	802.12
774.621	748.87
774.803	634.19
774.985	779.59
775.168	843.08
775.35	632.14
775.532	722.25
775.715	673.1
775.897	656.72
776.079	697.67
776.261	752.97
776.444	656.72
776.626	673.1
776.808	714.06
776.99	597.32
777.173	654.67
777.355	654.67
777.537	650.57
777.719	632.14
777.901	566.6
778.083	642.38
778.265	621.9
778.447	658.76
778.629	591.18
778.811	552.27
778.993	589.13
779.175	662.86
779.357	646.48
779.539	638.28
779.721	556.36
779.903	664.91
780.085	607.56
780.267	589.13
780.449	531.79
780.631	580.94
780.812	566.6
780.994	552.27
781.176	531.79
781.358	613.71
781.54	494.93
781.721	535.89
781.903	589.13
782.085	464.21
782.267	542.03
782.448	460.11
782.63	544.08
782.812	509.26
782.993	486.73
783.175	503.12
783.357	501.07
783.538	529.74
783.72	417.1
783.901	507.21
784.083	490.83
784.264	451.92
784.446	441.68
784.627	437.58
784.809	492.88
784.99	400.72
785.172	501.07
785.353	474.45
785.535	544.08
785.716	460.11
785.897	505.17
786.079	476.49
786.26	494.93
786.441	523.6
786.623	310.61
786.804	478.54
786.985	429.39
787.167	445.77
787.348	421.2
787.529	396.62
787.71	437.58
787.891	443.73
788.073	359.76
788.254	326.99
788.435	427.34
788.616	451.92
788.797	380.24
788.978	378.19
789.159	314.7
789.34	441.68
789.522	386.38
789.703	337.23
789.884	396.62
790.065	347.47
790.246	404.82
790.427	365.9
790.607	419.15
790.788	421.2
790.969	347.47
791.15	370
791.331	363.86
791.512	298.32
791.693	298.32
791.874	351.57
792.054	449.87
792.235	417.1
792.416	347.47
792.597	326.99
792.778	372.05
792.958	335.18
793.139	257.36
793.32	283.98
793.5	347.47
793.681	314.7
793.862	290.13
794.042	363.86
794.223	290.13
794.404	296.27
794.584	265.55
794.765	257.36
794.945	312.66
795.126	367.95
795.306	322.9
795.487	312.66
795.667	292.18
795.848	343.38
796.028	320.85
796.209	320.85
796.389	308.56
796.57	255.31
796.75	310.61
796.93	286.03
797.111	263.51
797.291	286.03
797.471	351.57
797.652	206.16
797.832	220.5
798.012	329.04
798.192	255.31
798.373	300.37
798.553	251.22
798.733	249.17
798.913	308.56
799.093	251.22
799.274	230.74
799.454	236.88
799.634	202.07
799.814	222.55
799.994	212.31
800.174	261.46
800.354	220.5
800.534	163.15
800.714	245.07
800.894	236.88
801.074	222.55
801.254	195.92
801.434	247.12
801.614	220.5
801.794	228.69
801.974	1051.97
802.154	187.73
802.334	292.18
802.514	228.69
802.693	216.4
802.873	148.82
803.053	247.12
803.233	290.13
803.413	214.35
803.592	103.76
803.772	281.94
803.952	212.31
804.131	140.63
804.311	187.73
804.491	296.27
804.67	195.92
804.85	189.78
805.03	206.16
805.209	181.59
805.389	177.49
805.568	132.44
805.748	296.27
805.928	236.88
806.107	249.17
806.287	173.39
806.466	243.03
806.646	187.73
806.825	148.82
807.004	236.88
807.184	138.58
807.363	279.89
807.543	286.03
807.722	105.81
807.901	294.22
808.081	195.92
808.26	60.76
808.439	173.39
808.619	212.31
808.798	163.15
808.977	212.31
809.156	253.27
809.336	173.39
809.515	222.55
809.694	142.68
809.873	247.12
810.052	187.73
810.231	179.54
810.411	220.5
810.59	171.35
810.769	185.68
810.948	167.25
811.127	114
811.306	111.96
811.485	187.73
811.664	173.39
811.843	212.31
812.022	148.82
812.201	130.39
812.38	173.39
812.559	171.35
812.737	228.69
812.916	120.15
813.095	157.01
813.274	159.06
813.453	152.91
813.632	189.78
813.811	159.06
813.989	116.05
814.168	167.25
814.347	34.13
814.526	136.53
814.704	230.74
814.883	228.69
815.062	120.15
815.24	148.82
815.419	109.91
815.598	212.31
815.776	128.34
815.955	154.96
816.133	46.42
816.312	193.87
816.49	89.43
816.669	132.44
816.847	116.05
817.026	111.96
817.204	81.24
817.383	179.54
817.561	93.52
817.74	142.68
817.918	216.4
818.097	130.39
818.275	111.96
818.453	173.39
818.632	159.06
818.81	150.87
818.988	101.72
819.167	138.58
819.345	187.73
819.523	140.63
819.701	99.67
819.879	116.05
820.058	114
820.236	171.35
820.414	114
820.592	73.04
820.77	97.62
820.948	150.87
821.127	109.91
821.305	68.95
821.483	130.39
821.661	200.02
821.839	134.48
822.017	97.62
822.195	111.96
822.373	163.15
822.551	75.09
822.729	142.68
822.907	56.66
823.085	159.06
823.262	118.1
823.44	120.15
823.618	130.39
823.796	60.76
823.974	97.62
824.152	109.91
824.329	109.91
824.507	75.09
824.685	107.86
824.863	105.81
825.04	68.95
825.218	93.52
825.396	11.61
825.574	114
825.751	58.71
825.929	171.35
826.107	44.37
826.284	87.38
826.462	73.04
826.639	101.72
826.817	32.08
826.994	-12.97
827.172	81.24
827.349	140.63
827.527	73.04
827.704	107.86
827.882	101.72
828.059	134.48
828.237	58.71
828.414	89.43
828.591	79.19
828.769	17.75
828.946	23.89
829.124	97.62
829.301	105.81
829.478	97.62
829.655	109.91
829.833	157.01
830.01	101.72
830.187	101.72
830.364	27.99
830.542	105.81
830.719	93.52
830.896	36.18
831.073	52.56
831.25	85.33
831.427	107.86
831.604	136.53
831.782	5.46
831.959	83.28
832.136	122.2
832.313	89.43
832.49	75.09
832.667	136.53
832.844	73.04
833.021	124.24
833.198	109.91
833.374	77.14
833.551	73.04
833.728	89.43
833.905	27.99
834.082	50.52
834.259	58.71
834.436	81.24
834.612	19.8
834.789	146.77
834.966	56.66
835.143	-6.83
835.319	-8.87
835.496	75.09
835.673	126.29
835.85	89.43
836.026	66.9
836.203	138.58
836.38	79.19
836.556	71
836.733	-39.59
836.909	126.29
837.086	132.44
837.262	60.76
837.439	64.85
837.616	-2.73
837.792	25.94
837.968	64.85
838.145	64.85
838.321	111.96
838.498	40.28
838.674	17.75
838.851	105.81
839.027	66.9
839.203	56.66
839.38	60.76
839.556	-8.87
839.732	64.85
839.909	32.08
840.085	83.28
840.261	40.28
840.437	97.62
840.614	77.14
840.79	89.43
840.966	64.85
841.142	50.52
841.318	9.56
841.494	32.08
841.671	89.43
841.847	3.41
842.023	11.61
842.199	132.44
842.375	95.57
842.551	-6.83
842.727	21.84
842.903	114
843.079	30.04
843.255	81.24
843.431	89.43
843.607	99.67
843.783	-19.11
843.959	48.47
844.134	23.89
844.31	66.9
844.486	40.28
844.662	40.28
844.838	91.48
845.013	32.08
845.189	83.28
845.365	11.61
845.541	48.47
845.716	81.24
845.892	68.95
846.068	21.84
846.244	77.14
846.419	99.67
846.595	19.8
846.77	56.66
846.946	79.19
847.122	60.76
847.297	58.71
847.473	73.04
847.648	38.23
847.824	105.81
847.999	-15.02
848.175	23.89
848.35	23.89
848.526	138.58
848.701	-43.69
848.876	66.9
849.052	40.28
849.227	40.28
849.403	56.66
849.578	36.18
849.753	134.48
849.929	91.48
850.104	-0.68
850.279	-8.87
850.454	32.08
850.63	50.52
850.805	58.71
850.98	64.85
851.155	32.08
851.33	9.56
851.505	97.62
851.681	25.94
851.856	-12.97
852.031	56.66
852.206	36.18
852.381	9.56
852.556	-64.17
852.731	40.28
852.906	-0.68
853.081	36.18
853.256	81.24
853.431	-15.02
853.606	97.62
853.781	11.61
853.956	-25.26
854.131	93.52
854.305	40.28
854.48	56.66
854.655	-17.07
854.83	23.89
855.005	11.61
855.18	118.1
855.354	23.89
855.529	75.09
855.704	56.66
855.879	48.47
856.053	-25.26
856.228	1.37
856.403	38.23
856.577	68.95
856.752	-15.02
856.926	66.9
857.101	60.76
857.276	32.08
857.45	79.19
857.625	42.32
857.799	7.51
857.974	-33.45
858.148	-10.92
858.323	40.28
858.497	27.99
858.672	23.89
858.846	9.56
859.02	93.52
859.195	7.51
859.369	38.23
859.543	-25.26
859.718	40.28
859.892	68.95
860.066	-23.21
860.241	-60.07
860.415	-4.78
860.589	11.61
860.763	93.52
860.938	-10.92
861.112	56.66
861.286	101.72
861.46	52.56
861.634	17.75
861.808	150.87
861.982	-17.07
862.157	-10.92
862.331	17.75
862.505	64.85
862.679	60.76
862.853	-31.4
863.027	32.08
863.201	99.67
863.375	40.28
863.549	62.8
863.722	1.37
863.896	48.47
864.07	-12.97
864.244	-23.21
864.418	27.99
864.592	-17.07
864.766	-6.83
864.939	9.56
865.113	-49.83
865.287	85.33
865.461	23.89
865.634	15.7
865.808	-23.21
865.982	-49.83
866.156	-4.78
866.329	-47.79
866.503	44.37
866.676	44.37
866.85	5.46
867.024	-6.83
867.197	89.43
867.371	27.99
867.544	42.32
867.718	48.47
867.891	68.95
868.065	-45.74
868.238	-21.16
868.412	34.13
868.585	3.41
868.759	40.28
868.932	-17.07
869.105	-64.17
869.279	60.76
869.452	-17.07
869.625	32.08
869.799	-31.4
869.972	-25.26
870.145	50.52
870.319	-29.35
870.492	34.13
870.665	34.13
870.838	27.99
871.011	-47.79
871.185	-47.79
871.358	-8.87
871.531	75.09
871.704	-17.07
871.877	-0.68
872.05	-33.45
872.223	25.94
872.396	-0.68
872.569	23.89
872.742	19.8
872.915	7.51
873.088	23.89
873.261	17.75
873.434	-25.26
873.607	40.28
873.78	97.62
873.953	-62.12
874.126	-19.11
874.299	56.66
874.471	-0.68
874.644	-17.07
874.817	107.86
874.99	19.8
875.163	23.89
875.335	71
875.508	-8.87
875.681	46.42
875.853	-17.07
876.026	60.76
876.199	62.8
876.371	7.51
876.544	27.99
876.717	-8.87
876.889	15.7
877.062	3.41
877.234	-0.68
877.407	-33.45
877.579	23.89
877.752	27.99
877.924	-60.07
878.097	-25.26
878.269	-4.78
878.442	25.94
878.614	42.32
878.786	83.28
878.959	36.18
879.131	-6.83
879.303	-27.31
879.476	15.7
879.648	73.04
879.82	-6.83
879.993	-23.21
880.165	40.28
880.337	9.56
880.509	23.89
880.681	44.37
880.854	11.61
881.026	5.46
881.198	-0.68
881.37	-66.22
881.542	-0.68
881.714	77.14
881.886	-6.83
882.058	15.7
882.23	54.61
882.402	1.37
882.574	-62.12
882.746	7.51
882.918	-47.79
883.09	91.48
883.262	-8.87
883.434	-33.45
883.606	36.18
883.778	81.24
883.95	81.24
884.122	-31.4
884.293	1.37
884.465	-8.87
884.637	-12.97
884.809	40.28
884.98	36.18
885.152	9.56
885.324	-17.07
885.496	40.28
885.667	32.08
885.839	-37.55
886.011	-0.68
886.182	54.61
886.354	46.42
886.525	52.56
886.697	23.89
886.869	1.37
887.04	7.51
887.212	85.33
887.383	64.85
887.555	11.61
887.726	13.65
887.897	-45.74
888.069	-17.07
888.24	7.51
888.412	48.47
888.583	-23.21
888.754	-12.97
888.926	23.89
889.097	-41.64
889.268	-29.35
889.44	23.89
889.611	-55.98
889.782	40.28
889.953	-41.64
890.125	44.37
890.296	17.75
890.467	89.43
890.638	-31.4
890.809	25.94
890.98	19.8
891.151	64.85
891.323	-6.83
891.494	-6.83
891.665	42.32
891.836	25.94
892.007	-39.59
892.178	7.51
892.349	3.41
892.52	-21.16
892.691	56.66
892.862	46.42
893.032	-25.26
893.203	-12.97
893.374	21.84
893.545	48.47
893.716	-29.35
893.887	5.46
894.057	34.13
894.228	62.8
894.399	-47.79
894.57	64.85
894.74	54.61
894.911	64.85
895.082	-23.21
895.253	15.7
895.423	15.7
895.594	5.46
895.764	56.66
895.935	60.76
896.106	-0.68
896.276	-4.78
896.447	-47.79
896.617	-25.26
896.788	-23.21
896.958	3.41
897.129	-15.02
897.299	-49.83
897.47	-33.45
897.64	15.7
897.81	-15.02
897.981	19.8
898.151	-53.93
898.322	30.04
898.492	-17.07
898.662	81.24
898.832	44.37
899.003	23.89
899.173	3.41
899.343	-78.51
899.513	-27.31
