Data from USB4F104151__155__14-32-01-422.txt Node

Date: Thu Mar 13 14:32:01 EDT 2025
User: louis
Spectrometer: USB4F10415
Trigger mode: 4
Integration Time (sec): 2.500000E-2
Scans to average: 1
Electric dark correction enabled: true
Nonlinearity correction enabled: false
Boxcar width: 0
XAxis mode: Wavelengths
Number of Pixels in Spectrum: 3648
>>>>>Begin Spectral Data<<<<<
178.204	-217.43
178.424	-217.43
178.644	-217.43
178.864	-190.8
179.084	-203.09
179.304	5.8
179.524	-63.83
179.744	9.9
179.964	22.19
180.184	42.67
180.404	13.99
180.624	13.99
180.844	-2.39
181.064	-37.2
181.283	32.43
181.503	-37.2
181.723	-0.34
181.943	-10.58
182.163	52.91
182.383	-96.6
182.602	100.01
182.822	67.24
183.042	22.19
183.262	67.24
183.482	44.71
183.701	42.67
183.921	20.14
184.141	-47.44
184.361	52.91
184.58	-20.82
184.8	85.67
185.02	28.33
185.239	38.57
185.459	-45.4
185.679	67.24
185.898	42.67
186.118	75.43
186.338	-37.2
186.557	85.67
186.777	42.67
186.997	5.8
187.216	1.71
187.436	59.05
187.655	95.91
187.875	9.9
188.095	-80.21
188.314	26.28
188.534	106.15
188.753	-12.63
188.973	3.75
189.192	143.02
189.412	11.95
189.631	28.33
189.851	28.33
190.07	30.38
190.29	9.9
190.509	38.57
190.729	36.52
190.948	9.9
191.168	171.69
191.387	87.72
191.607	-6.49
191.826	26.28
192.045	46.76
192.265	50.86
192.484	50.86
192.704	1.71
192.923	-84.31
193.142	136.87
193.362	38.57
193.581	-22.87
193.8	118.44
194.02	34.47
194.239	18.09
194.458	-20.82
194.678	13.99
194.897	54.95
195.116	91.82
195.335	50.86
195.555	20.14
195.774	-2.39
195.993	85.67
196.212	9.9
196.432	-12.63
196.651	13.99
196.87	-22.87
197.089	44.71
197.308	97.96
197.528	79.53
197.747	-4.44
197.966	20.14
198.185	20.14
198.404	16.04
198.623	59.05
198.842	-47.44
199.062	132.78
199.281	34.47
199.5	22.19
199.719	57
199.938	102.06
200.157	100.01
200.376	67.24
200.595	95.91
200.814	42.67
201.033	-20.82
201.252	120.49
201.471	-29.01
201.69	61.1
201.909	59.05
202.128	50.86
202.347	77.48
202.566	81.58
202.785	18.09
203.004	71.34
203.223	110.25
203.442	9.9
203.661	-6.49
203.879	-12.63
204.098	106.15
204.317	18.09
204.536	75.43
204.755	69.29
204.974	20.14
205.193	50.86
205.411	46.76
205.63	67.24
205.849	79.53
206.068	54.95
206.287	-6.49
206.505	30.38
206.724	11.95
206.943	18.09
207.162	34.47
207.381	67.24
207.599	18.09
207.818	61.1
208.037	75.43
208.255	-31.06
208.474	71.34
208.693	-12.63
208.911	5.8
209.13	22.19
209.349	11.95
209.567	52.91
209.786	26.28
210.005	50.86
210.223	-12.63
210.442	-72.02
210.661	9.9
210.879	9.9
211.098	-45.4
211.316	-6.49
211.535	59.05
211.753	44.71
211.972	44.71
212.191	-4.44
212.409	-8.53
212.628	85.67
212.846	-55.64
213.065	42.67
213.283	151.21
213.502	42.67
213.72	-63.83
213.938	81.58
214.157	65.19
214.375	46.76
214.594	95.91
214.812	50.86
215.031	26.28
215.249	34.47
215.467	57
215.686	28.33
215.904	18.09
216.122	71.34
216.341	85.67
216.559	-8.53
216.778	71.34
216.996	128.68
217.214	18.09
217.432	18.09
217.651	57
217.869	11.95
218.087	91.82
218.306	-6.49
218.524	-14.68
218.742	-8.53
218.96	93.87
219.179	46.76
219.397	59.05
219.615	30.38
219.833	69.29
220.051	42.67
220.27	77.48
220.488	95.91
220.706	77.48
220.924	28.33
221.142	65.19
221.36	18.09
221.578	59.05
221.796	52.91
222.015	50.86
222.233	61.1
222.451	149.16
222.669	-43.35
222.887	36.52
223.105	-35.16
223.323	11.95
223.541	16.04
223.759	52.91
223.977	5.8
224.195	100.01
224.413	67.24
224.631	59.05
224.849	30.38
225.067	71.34
225.285	16.04
225.503	1.71
225.721	-67.92
225.939	46.76
226.157	77.48
226.375	136.87
226.592	26.28
226.81	26.28
227.028	42.67
227.246	112.3
227.464	30.38
227.682	75.43
227.9	42.67
228.117	108.2
228.335	-4.44
228.553	1.71
228.771	30.38
228.989	77.48
229.206	5.8
229.424	-51.54
229.642	30.38
229.86	36.52
230.077	42.67
230.295	59.05
230.513	59.05
230.731	63.15
230.948	112.3
231.166	75.43
231.384	-4.44
231.601	1.71
231.819	20.14
232.037	42.67
232.254	9.9
232.472	-6.49
232.689	83.63
232.907	-6.49
233.125	-10.58
233.342	-14.68
233.56	28.33
233.777	28.33
233.995	77.48
234.213	83.63
234.43	42.67
234.648	1.71
234.865	24.23
235.083	26.28
235.3	52.91
235.518	83.63
235.735	44.71
235.953	63.15
236.17	52.91
236.388	-39.25
236.605	-14.68
236.822	50.86
237.04	30.38
237.257	44.71
237.475	5.8
237.692	1.71
237.909	13.99
238.127	-12.63
238.344	46.76
238.562	69.29
238.779	-6.49
238.996	5.8
239.214	63.15
239.431	97.96
239.648	-12.63
239.865	28.33
240.083	18.09
240.3	-6.49
240.517	-26.96
240.735	-2.39
240.952	95.91
241.169	54.95
241.386	67.24
241.603	-16.73
241.821	36.52
242.038	93.87
242.255	63.15
242.472	-18.77
242.689	-6.49
242.907	69.29
243.124	13.99
243.341	81.58
243.558	32.43
243.775	-12.63
243.992	-24.92
244.209	28.33
244.426	65.19
244.643	26.28
244.86	-2.39
245.078	-14.68
245.295	50.86
245.512	-6.49
245.729	-26.96
245.946	50.86
246.163	38.57
246.38	65.19
246.597	75.43
246.814	79.53
247.031	13.99
247.248	13.99
247.464	50.86
247.681	91.82
247.898	-6.49
248.115	69.29
248.332	59.05
248.549	57
248.766	79.53
248.983	85.67
249.2	36.52
249.417	59.05
249.633	38.57
249.85	67.24
250.067	-47.44
250.284	42.67
250.501	-2.39
250.717	91.82
250.934	-39.25
251.151	22.19
251.368	83.63
251.585	30.38
251.801	1.71
252.018	-31.06
252.235	95.91
252.451	1.71
252.668	-2.39
252.885	52.91
253.102	124.58
253.318	20.14
253.535	3.75
253.752	-33.11
253.968	34.47
254.185	38.57
254.401	69.29
254.618	34.47
254.835	20.14
255.051	50.86
255.268	-14.68
255.484	5.8
255.701	83.63
255.917	63.15
256.134	9.9
256.351	85.67
256.567	44.71
256.784	18.09
257	18.09
257.217	157.35
257.433	11.95
257.65	28.33
257.866	9.9
258.082	26.28
258.299	28.33
258.515	7.85
258.732	-18.77
258.948	-14.68
259.165	104.11
259.381	-6.49
259.597	13.99
259.814	-18.77
260.03	7.85
260.246	-39.25
260.463	67.24
260.679	52.91
260.895	26.28
261.112	77.48
261.328	1.71
261.544	-10.58
261.761	34.47
261.977	3.75
262.193	-12.63
262.409	110.25
262.626	69.29
262.842	11.95
263.058	20.14
263.274	26.28
263.49	61.1
263.707	34.47
263.923	-26.96
264.139	52.91
264.355	-14.68
264.571	44.71
264.787	59.05
265.004	34.47
265.22	52.91
265.436	-22.87
265.652	22.19
265.868	9.9
266.084	9.9
266.3	34.47
266.516	50.86
266.732	18.09
266.948	54.95
267.164	9.9
267.38	52.91
267.596	-12.63
267.812	124.58
268.028	46.76
268.244	1.71
268.46	1.71
268.676	-6.49
268.892	108.2
269.108	-6.49
269.324	-18.77
269.54	48.81
269.756	81.58
269.972	-67.92
270.188	-0.34
270.403	61.1
270.619	59.05
270.835	28.33
271.051	11.95
271.267	-12.63
271.483	-10.58
271.698	108.2
271.914	18.09
272.13	91.82
272.346	26.28
272.562	9.9
272.777	36.52
272.993	-20.82
273.209	-22.87
273.425	36.52
273.64	-4.44
273.856	91.82
274.072	28.33
274.287	108.2
274.503	112.3
274.719	54.95
274.934	-14.68
275.15	26.28
275.366	145.06
275.581	-37.2
275.797	22.19
276.012	59.05
276.228	87.72
276.444	36.52
276.659	75.43
276.875	26.28
277.09	32.43
277.306	79.53
277.521	71.34
277.737	-6.49
277.952	44.71
278.168	-0.34
278.383	5.8
278.599	7.85
278.814	108.2
279.03	40.62
279.245	48.81
279.461	-24.92
279.676	110.25
279.892	-63.83
280.107	9.9
280.322	-4.44
280.538	36.52
280.753	36.52
280.969	50.86
281.184	-14.68
281.399	44.71
281.615	-29.01
281.83	91.82
282.045	-51.54
282.26	26.28
282.476	67.24
282.691	89.77
282.906	30.38
283.122	50.86
283.337	9.9
283.552	26.28
283.767	100.01
283.983	87.72
284.198	-8.53
284.413	20.14
284.628	54.95
284.843	54.95
285.058	114.34
285.274	34.47
285.489	42.67
285.704	83.63
285.919	-0.34
286.134	95.91
286.349	-31.06
286.564	7.85
286.779	61.1
286.995	22.19
287.21	-6.49
287.425	38.57
287.64	34.47
287.855	1.71
288.07	-2.39
288.285	26.28
288.5	67.24
288.715	143.02
288.93	85.67
289.145	67.24
289.36	57
289.575	9.9
289.79	87.72
290.004	26.28
290.219	26.28
290.434	93.87
290.649	-6.49
290.864	110.25
291.079	-0.34
291.294	44.71
291.509	83.63
291.724	-16.73
291.938	1.71
292.153	67.24
292.368	34.47
292.583	87.72
292.798	26.28
293.012	-10.58
293.227	-2.39
293.442	11.95
293.657	48.81
293.871	81.58
294.086	20.14
294.301	134.82
294.516	136.87
294.73	-29.01
294.945	26.28
295.16	116.39
295.374	124.58
295.589	1.71
295.804	1.71
296.018	11.95
296.233	71.34
296.447	108.2
296.662	63.15
296.877	61.1
297.091	1.71
297.306	36.52
297.52	83.63
297.735	-31.06
297.949	40.62
298.164	65.19
298.378	28.33
298.593	7.85
298.807	-6.49
299.022	63.15
299.236	134.82
299.451	42.67
299.665	-6.49
299.88	-39.25
300.094	28.33
300.309	-55.64
300.523	9.9
300.737	138.92
300.952	59.05
301.166	32.43
301.381	59.05
301.595	34.47
301.809	42.67
302.024	-22.87
302.238	36.52
302.452	20.14
302.667	11.95
302.881	91.82
303.095	50.86
303.309	46.76
303.524	1.71
303.738	-37.2
303.952	-26.96
304.166	50.86
304.381	-39.25
304.595	-12.63
304.809	22.19
305.023	65.19
305.237	1.71
305.452	20.14
305.666	-6.49
305.88	48.81
306.094	50.86
306.308	36.52
306.522	116.39
306.736	20.14
306.95	52.91
307.164	116.39
307.379	18.09
307.593	77.48
307.807	44.71
308.021	18.09
308.235	132.78
308.449	-57.68
308.663	18.09
308.877	198.31
309.091	22.19
309.305	83.63
309.519	-45.4
309.733	59.05
309.947	20.14
310.161	67.24
310.374	83.63
310.588	71.34
310.802	32.43
311.016	32.43
311.23	7.85
311.444	-14.68
311.658	30.38
311.872	46.76
312.085	67.24
312.299	120.49
312.513	61.1
312.727	50.86
312.941	22.19
313.154	9.9
313.368	100.01
313.582	18.09
313.796	50.86
314.009	38.57
314.223	34.47
314.437	54.95
314.651	-31.06
314.864	71.34
315.078	1.71
315.292	3.75
315.505	67.24
315.719	5.8
315.933	26.28
316.146	-22.87
316.36	9.9
316.573	134.82
316.787	126.63
317.001	30.38
317.214	16.04
317.428	44.71
317.641	9.9
317.855	28.33
318.068	18.09
318.282	34.47
318.495	91.82
318.709	57
318.922	42.67
319.136	69.29
319.349	69.29
319.563	-22.87
319.776	20.14
319.99	52.91
320.203	28.33
320.417	79.53
320.63	97.96
320.843	48.81
321.057	-4.44
321.27	22.19
321.483	83.63
321.697	100.01
321.91	42.67
322.124	97.96
322.337	71.34
322.55	93.87
322.763	50.86
322.977	77.48
323.19	-31.06
323.403	7.85
323.617	1.71
323.83	1.71
324.043	120.49
324.256	1.71
324.469	1.71
324.683	13.99
324.896	102.06
325.109	24.23
325.322	57
325.535	132.78
325.748	120.49
325.962	-39.25
326.175	50.86
326.388	59.05
326.601	30.38
326.814	50.86
327.027	34.47
327.24	95.91
327.453	-14.68
327.666	34.47
327.879	85.67
328.092	63.15
328.305	-6.49
328.518	59.05
328.731	-6.49
328.944	34.47
329.157	122.54
329.37	52.91
329.583	95.91
329.796	108.2
330.009	-31.06
330.222	65.19
330.435	40.62
330.648	18.09
330.861	22.19
331.073	9.9
331.286	5.8
331.499	91.82
331.712	9.9
331.925	59.05
332.138	-31.06
332.35	81.58
332.563	77.48
332.776	77.48
332.989	1.71
333.202	65.19
333.414	3.75
333.627	71.34
333.84	50.86
334.053	67.24
334.265	44.71
334.478	28.33
334.691	81.58
334.903	44.71
335.116	22.19
335.329	9.9
335.541	63.15
335.754	130.73
335.966	-4.44
336.179	75.43
336.392	-20.82
336.604	77.48
336.817	46.76
337.029	18.09
337.242	22.19
337.454	11.95
337.667	44.71
337.88	67.24
338.092	100.01
338.305	36.52
338.517	46.76
338.729	110.25
338.942	42.67
339.154	3.75
339.367	57
339.579	114.34
339.792	46.76
340.004	83.63
340.217	24.23
340.429	95.91
340.641	-31.06
340.854	24.23
341.066	83.63
341.278	34.47
341.491	91.82
341.703	124.58
341.915	44.71
342.128	140.97
342.34	24.23
342.552	54.95
342.764	-22.87
342.977	-10.58
343.189	79.53
343.401	110.25
343.613	-31.06
343.826	46.76
344.038	42.67
344.25	32.43
344.462	28.33
344.674	30.38
344.886	-10.58
345.099	104.11
345.311	-0.34
345.523	20.14
345.735	24.23
345.947	79.53
346.159	79.53
346.371	18.09
346.583	40.62
346.795	167.59
347.007	30.38
347.219	48.81
347.431	22.19
347.643	42.67
347.855	3.75
348.067	100.01
348.279	-20.82
348.491	69.29
348.703	87.72
348.915	42.67
349.127	42.67
349.339	126.63
349.551	-0.34
349.763	-6.49
349.975	13.99
350.187	87.72
350.399	-0.34
350.61	22.19
350.822	20.14
351.034	124.58
351.246	40.62
351.458	93.87
351.669	73.39
351.881	140.97
352.093	59.05
352.305	61.1
352.517	87.72
352.728	22.19
352.94	61.1
353.152	28.33
353.363	42.67
353.575	9.9
353.787	67.24
353.999	108.2
354.21	163.5
354.422	-29.01
354.633	-102.74
354.845	-18.77
355.057	67.24
355.268	104.11
355.48	71.34
355.692	-47.44
355.903	-10.58
356.115	-18.77
356.326	-67.92
356.538	46.76
356.749	54.95
356.961	116.39
357.172	9.9
357.384	79.53
357.595	75.43
357.807	77.48
358.018	-26.96
358.23	95.91
358.441	112.3
358.653	67.24
358.864	50.86
359.075	67.24
359.287	22.19
359.498	85.67
359.709	16.04
359.921	59.05
360.132	40.62
360.344	67.24
360.555	13.99
360.766	91.82
360.977	30.38
361.189	77.48
361.4	57
361.611	71.34
361.823	116.39
362.034	18.09
362.245	46.76
362.456	106.15
362.667	81.58
362.879	11.95
363.09	26.28
363.301	30.38
363.512	34.47
363.723	50.86
363.935	108.2
364.146	126.63
364.357	50.86
364.568	73.39
364.779	44.71
364.99	71.34
365.201	46.76
365.412	132.78
365.623	28.33
365.834	77.48
366.045	-14.68
366.256	108.2
366.467	73.39
366.678	83.63
366.889	95.91
367.1	-8.53
367.311	67.24
367.522	85.67
367.733	32.43
367.944	120.49
368.155	102.06
368.366	46.76
368.577	116.39
368.788	85.67
368.999	93.87
369.209	167.59
369.42	102.06
369.631	132.78
369.842	73.39
370.053	59.05
370.264	26.28
370.474	-18.77
370.685	5.8
370.896	-2.39
371.107	34.47
371.317	11.95
371.528	24.23
371.739	83.63
371.95	91.82
372.16	18.09
372.371	-90.45
372.582	67.24
372.792	22.19
373.003	91.82
373.214	59.05
373.424	120.49
373.635	16.04
373.846	97.96
374.056	75.43
374.267	46.76
374.477	69.29
374.688	22.19
374.898	44.71
375.109	-4.44
375.319	59.05
375.53	50.86
375.74	52.91
375.951	67.24
376.161	71.34
376.372	87.72
376.582	44.71
376.793	28.33
377.003	83.63
377.214	-12.63
377.424	100.01
377.635	52.91
377.845	-22.87
378.055	87.72
378.266	1.71
378.476	59.05
378.686	26.28
378.897	50.86
379.107	75.43
379.317	59.05
379.528	77.48
379.738	83.63
379.948	65.19
380.158	61.1
380.369	18.09
380.579	44.71
380.789	-31.06
380.999	124.58
381.21	71.34
381.42	110.25
381.63	9.9
381.84	46.76
382.05	85.67
382.261	102.06
382.471	93.87
382.681	81.58
382.891	91.82
383.101	77.48
383.311	42.67
383.521	112.3
383.731	102.06
383.941	54.95
384.151	67.24
384.361	-2.39
384.571	-8.53
384.781	54.95
384.991	171.69
385.201	116.39
385.411	61.1
385.621	1.71
385.831	108.2
386.041	42.67
386.251	65.19
386.461	97.96
386.671	26.28
386.881	44.71
387.091	69.29
387.301	87.72
387.511	85.67
387.72	40.62
387.93	91.82
388.14	36.52
388.35	59.05
388.56	104.11
388.769	100.01
388.979	46.76
389.189	26.28
389.399	42.67
389.609	124.58
389.818	128.68
390.028	13.99
390.238	100.01
390.447	9.9
390.657	83.63
390.867	71.34
391.076	-2.39
391.286	87.72
391.496	85.67
391.705	81.58
391.915	91.82
392.125	114.34
392.334	77.48
392.544	79.53
392.753	30.38
392.963	-2.39
393.172	143.02
393.382	91.82
393.591	102.06
393.801	91.82
394.01	163.5
394.22	30.38
394.429	116.39
394.639	42.67
394.848	173.74
395.058	71.34
395.267	52.91
395.477	112.3
395.686	67.24
395.895	100.01
396.105	220.84
396.314	149.16
396.524	167.59
396.733	13.99
396.942	145.06
397.152	73.39
397.361	118.44
397.57	116.39
397.78	151.21
397.989	138.92
398.198	167.59
398.407	67.24
398.617	102.06
398.826	106.15
399.035	26.28
399.244	173.74
399.453	118.44
399.663	136.87
399.872	140.97
400.081	110.25
400.29	143.02
400.499	95.91
400.708	157.35
400.917	104.11
401.127	188.07
401.336	83.63
401.545	140.97
401.754	95.91
401.963	124.58
402.172	44.71
402.381	143.02
402.59	190.12
402.799	102.06
403.008	87.72
403.217	145.06
403.426	81.58
403.635	85.67
403.844	134.82
404.053	140.97
404.262	179.88
404.471	181.93
404.68	132.78
404.888	145.06
405.097	91.82
405.306	245.41
405.515	214.7
405.724	255.65
405.933	263.85
406.142	202.41
406.35	198.31
406.559	317.09
406.768	175.78
406.977	265.89
407.185	272.04
407.394	280.23
407.603	263.85
407.812	210.6
408.02	304.81
408.229	278.18
408.438	157.35
408.646	206.5
408.855	267.94
409.064	323.24
409.272	313
409.481	431.78
409.69	339.62
409.898	331.43
410.107	370.34
410.315	345.77
410.524	362.15
410.733	444.07
410.941	427.68
411.15	472.74
411.358	575.14
411.567	513.7
411.775	444.07
411.984	546.47
412.192	575.14
412.401	550.56
412.609	558.75
412.818	628.39
413.026	616.1
413.234	601.76
413.443	591.52
413.651	648.86
413.86	700.06
414.068	800.41
414.276	718.5
414.485	794.27
414.693	714.4
414.901	894.62
415.11	831.13
415.318	894.62
415.526	892.57
415.734	923.29
415.943	1021.6
416.151	994.97
416.359	1050.27
416.567	1130.14
416.776	1117.85
416.984	1189.53
417.192	1216.15
417.4	1207.96
417.608	1181.34
417.817	1363.61
418.025	1359.51
418.233	1410.71
418.441	1353.37
418.649	1455.76
418.857	1576.59
419.065	1566.35
419.273	1648.27
419.481	1740.43
419.689	1738.38
419.897	1834.64
420.105	1867.41
420.313	1953.42
420.521	1984.14
420.729	1996.43
420.937	1963.66
421.145	2186.89
421.353	2219.66
421.561	2369.16
421.769	2467.46
421.977	2393.73
422.185	2569.86
422.393	2625.15
422.601	2819.71
422.809	2838.14
423.017	2897.53
423.224	2741.89
423.432	3133.05
423.64	3008.12
423.848	3307.13
424.056	3376.76
424.263	3430.01
424.471	3376.76
424.679	3630.71
424.887	3772.02
425.094	3982.96
425.302	3851.89
425.51	4042.35
425.718	4167.28
425.925	4257.39
426.133	4384.36
426.341	4632.16
426.548	4673.12
426.756	4621.92
426.964	4845.15
427.171	5318.23
427.379	5373.53
427.586	5512.79
427.794	5551.7
428.001	5746.26
428.209	6098.51
428.417	5815.89
428.624	6383.18
428.832	6250.06
429.039	6280.78
429.247	6213.2
429.454	6827.59
429.662	7312.96
429.869	6864.45
430.076	7132.73
430.284	7116.35
430.491	7546.42
430.699	7984.69
430.906	7724.6
431.114	8035.89
431.321	8357.42
431.528	8474.15
431.736	8906.27
431.943	9215.52
432.15	9258.53
432.358	9211.42
432.565	9760.28
432.772	9688.6
432.979	9944.59
433.187	10145.3
433.394	10135.06
433.601	11085.31
433.808	11050.5
434.016	11060.74
434.223	11433.47
434.43	12150.26
434.637	11965.94
434.844	12801.51
435.052	13028.84
435.259	12725.74
435.466	12832.23
435.673	12750.31
435.88	13579.74
436.087	14296.53
436.294	14351.82
436.501	14138.83
436.708	14308.82
436.915	14724.55
437.122	15287.75
437.329	15457.73
437.537	15818.17
437.743	16025.01
437.95	15930.81
438.157	16948.65
438.364	17581.47
438.571	17319.33
438.778	17388.96
438.985	19086.73
439.192	18134.42
439.399	19086.73
439.606	18263.44
439.813	19604.86
440.02	20747.63
440.227	20305.27
440.433	20114.81
440.64	20702.57
440.847	20546.93
441.054	21056.87
441.261	22715.73
441.467	22324.57
441.674	22820.17
441.881	23528.77
442.088	23323.97
442.294	23074.12
442.501	23723.33
442.708	24118.59
442.914	25224.49
443.121	26281.24
443.328	25589.03
443.534	27364.62
443.741	26613.01
443.948	26164.51
444.154	28165.37
444.361	27784.45
444.568	28192
444.774	27854.08
444.981	28595.45
445.187	29187.31
445.394	30516.44
445.6	30448.86
445.807	32748.73
446.013	31585.48
446.22	31849.67
446.426	33600.68
446.633	33684.65
446.839	34780.31
447.046	33305.77
447.252	35318.93
447.459	35204.24
447.665	35490.96
447.871	36467.84
448.078	38149.22
448.284	36740.22
448.491	37463.15
448.697	38384.74
448.903	39717.96
449.11	39183.44
449.316	38802.52
449.522	39771.21
449.728	40817.72
449.935	41038.9
450.141	40864.83
450.347	41851.95
450.553	40449.09
450.76	40852.54
450.966	42454.05
451.172	41909.29
451.378	43267.09
451.584	42134.57
451.791	43187.22
451.997	43039.77
452.203	43873.29
452.409	43764.75
452.615	43656.21
452.821	42001.45
453.027	41638.96
453.233	43525.14
453.44	41780.27
453.646	42361.89
453.852	42396.71
454.058	43598.87
454.264	41972.78
454.47	42773.53
454.676	41737.26
454.882	43023.39
455.088	39283.8
455.294	40430.66
455.5	40744
455.705	40969.27
455.911	39867.47
456.117	38990.94
456.323	38464.61
456.529	36322.43
456.735	38018.15
456.941	36891.77
457.147	36304
457.352	35206.29
457.558	35140.75
457.764	35427.47
457.97	34573.47
458.176	33477.8
458.381	33537.19
458.587	31995.07
458.793	31687.88
458.999	30026.98
459.204	32408.76
459.41	31618.25
459.616	29873.38
459.821	29428.97
460.027	29547.75
460.233	28710.13
460.438	27399.43
460.644	27835.65
460.85	26443.03
461.055	25928.99
461.261	25920.8
461.466	23991.61
461.672	22967.63
461.878	24728.88
462.083	23065.93
462.289	22777.17
462.494	22535.51
462.7	21472.61
462.905	20925.8
463.111	21427.56
463.316	21697.89
463.522	21261.67
463.727	21017.96
463.932	21331.3
464.138	21044.59
464.343	20985.19
464.549	20675.95
464.754	21134.7
464.959	21079.4
465.165	20647.28
465.37	19635.58
465.575	19142.02
465.781	19889.53
465.986	20114.81
466.191	19250.56
466.397	19301.76
466.602	17999.26
466.807	18652.56
467.012	18748.81
467.218	18752.91
467.423	18533.78
467.628	18668.94
467.833	19240.33
468.038	18570.64
468.244	18148.76
468.449	18599.31
468.654	17982.87
468.859	17749.4
469.064	17745.31
469.269	17261.99
469.474	17049
469.679	17788.32
469.885	17216.93
470.09	17221.03
470.295	17153.44
470.5	16549.29
470.705	17147.3
470.91	16526.77
471.115	16303.54
471.32	16741.8
471.525	16870.83
471.73	16041.4
471.935	16197.04
472.139	15648.19
472.344	15863.22
472.549	15533.5
472.754	15363.52
472.959	15369.66
473.164	14579.15
473.369	14712.27
473.574	15168.96
473.778	14720.46
473.983	14943.69
474.188	14509.52
474.393	14034.39
474.598	14163.41
474.802	14001.62
475.007	13888.98
475.212	13946.33
475.417	13356.51
475.621	13618.65
475.826	13616.6
476.031	13151.71
476.235	13037.03
476.44	13399.52
476.645	12844.52
476.849	12955.11
477.054	12711.4
477.259	12434.92
477.463	12834.28
477.668	12379.63
477.872	12359.15
478.077	12062.19
478.282	11900.41
478.486	11906.55
478.691	11711.99
478.895	11863.54
479.1	11671.03
479.304	11671.03
479.509	11392.51
479.713	11793.91
479.918	11384.32
480.122	11308.54
480.326	11181.57
480.531	11464.19
480.735	11118.08
480.94	10778.12
481.144	11412.99
481.348	11161.09
481.553	11056.64
481.757	10712.58
481.961	10894.85
482.166	11212.29
482.37	10829.32
482.574	10737.16
482.778	10765.83
482.983	10931.72
483.187	11089.41
483.391	11103.75
483.595	10757.64
483.8	10860.04
484.004	10806.79
484.208	11159.04
484.412	10626.57
484.616	10696.2
484.821	10845.7
485.025	10587.66
485.229	10911.24
485.433	10657.29
485.637	10759.69
485.841	10628.62
486.045	10462.73
486.249	10737.16
486.453	10608.14
486.657	10536.46
486.861	10661.38
487.065	10579.47
487.269	10903.04
487.473	10466.83
487.677	10817.03
487.881	10798.6
488.085	10511.88
488.289	10659.34
488.493	10645
488.697	10796.55
488.901	10792.45
489.105	10733.06
489.309	10700.3
489.512	10741.25
489.716	10835.46
489.92	10745.35
490.124	10651.14
490.328	10950.15
490.531	10817.03
490.735	11062.79
490.939	11083.27
491.143	10903.04
491.346	10946.05
491.55	11169.28
491.754	11023.87
491.958	11134.46
492.161	11087.36
492.365	11081.22
492.569	11079.17
492.772	11177.47
492.976	11290.11
493.18	11281.92
493.383	11412.99
493.587	11595.26
493.79	11677.18
493.994	11486.72
494.197	11642.36
494.401	11830.77
494.605	11685.37
494.808	11785.72
495.012	11902.45
495.215	11728.38
495.419	12092.91
495.622	11978.23
495.825	12142.07
496.029	12164.59
496.232	12531.18
496.436	12176.88
496.639	12684.78
496.843	12600.81
497.046	12944.87
497.249	13010.4
497.453	12912.1
497.656	13030.88
497.859	12985.83
498.063	13348.32
498.266	13796.82
498.469	13549.02
498.673	13456.86
498.876	13802.97
499.079	13825.5
499.282	13837.78
499.485	14534.09
499.689	14310.86
499.892	14519.76
500.095	14525.9
500.298	14855.62
500.501	14527.95
500.705	15078.85
500.908	15314.37
501.111	15447.49
501.314	15492.54
501.517	15779.26
501.72	15863.22
501.923	15728.06
502.126	16270.77
502.329	16405.94
502.532	16625.07
502.735	16614.83
502.938	16852.39
503.141	16807.34
503.344	17122.73
503.547	16874.92
503.75	17522.08
503.953	17597.85
504.156	17917.34
504.359	18122.13
504.562	18224.53
504.765	18355.6
504.968	18666.89
505.17	18853.26
505.373	18750.86
505.576	19146.12
505.779	19445.12
505.982	19680.64
506.185	19735.93
506.387	19934.59
506.59	20180.34
506.793	20452.72
506.996	20209.01
507.198	20870.51
507.401	20872.56
507.604	20755.82
507.807	21319.01
508.009	21556.58
508.212	21687.65
508.415	21804.38
508.617	22160.73
508.82	22293.85
509.022	22277.46
509.225	22861.13
509.428	22848.85
509.63	23237.96
509.833	23250.25
510.035	23557.44
510.238	23407.94
510.44	24167.74
510.643	24483.13
510.845	24833.33
511.048	24362.29
511.25	24876.34
511.453	25044.27
511.655	26058.01
511.858	25521.45
512.06	25885.98
512.262	25746.72
512.465	25814.3
512.667	26527
512.87	26639.64
513.072	26445.08
513.274	26887.44
513.477	27628.81
513.679	27659.52
513.881	27598.09
514.084	27976.96
514.286	28065.02
514.488	28327.16
514.69	29070.58
514.893	28826.87
515.095	28978.42
515.297	29527.27
515.499	29142.25
515.701	29840.61
515.904	30244.06
516.106	30590.17
516.308	30508.25
516.51	31136.98
516.712	30784.72
516.914	31063.25
517.116	31704.26
517.318	31743.17
517.52	32023.75
517.722	32201.92
517.925	32416.96
518.127	32642.23
518.329	32865.46
518.531	32922.8
518.733	33531.05
518.935	33651.88
519.136	33348.78
519.338	33950.88
519.54	34034.85
519.742	34231.46
519.944	34598.04
520.146	35093.65
520.348	35028.12
520.55	35523.72
520.752	35105.94
520.954	36068.48
521.155	35579.02
521.357	36408.45
521.559	36007.05
521.761	36742.27
521.963	36469.89
522.164	36351.1
522.366	36959.35
522.568	37090.42
522.77	37184.63
522.971	38034.53
523.173	37409.9
523.375	38030.44
523.576	37987.43
523.778	38073.45
523.98	38286.43
524.181	38440.03
524.383	38456.42
524.584	38790.23
524.786	39308.37
524.988	38630.49
525.189	39181.4
525.391	39052.37
525.592	39175.25
525.794	39773.26
525.995	39785.55
526.197	39652.43
526.398	39523.41
526.6	39935.05
526.801	39828.55
527.003	40324.16
527.204	40008.78
527.406	40066.12
527.607	40576.06
527.808	40342.6
528.01	40023.11
528.211	40008.78
528.412	40762.43
528.614	40444.99
528.815	40158.28
529.016	40690.75
529.218	40299.59
529.419	40111.17
529.62	40256.58
529.822	40430.66
530.023	40895.55
530.224	40913.98
530.425	40145.99
530.626	40152.13
530.828	40352.83
531.029	40870.97
531.23	40424.51
531.431	40465.47
531.632	40436.8
531.833	40571.97
532.035	40760.38
532.236	40473.67
532.437	40645.69
532.638	40361.03
532.839	40457.28
533.04	40969.27
533.241	40236.1
533.442	40961.08
533.643	40344.64
533.844	40408.13
534.045	40522.82
534.246	39976.01
534.447	40631.36
534.648	40270.92
534.849	40244.29
535.05	40221.76
535.251	39996.49
535.451	39636.05
535.652	40442.95
535.853	39933
536.054	40385.6
536.255	40094.79
536.456	39484.5
536.657	40393.79
536.857	39976.01
537.058	39507.02
537.259	40436.8
537.46	39945.29
537.66	39978.06
537.861	40064.07
538.062	40055.88
538.263	39814.22
538.463	39953.48
538.664	39384.15
538.865	39816.27
539.065	40268.87
539.266	39576.65
539.466	39814.22
539.667	39711.82
539.868	39765.07
540.068	39822.41
540.269	39681.1
540.469	39722.06
540.67	39210.07
540.87	39384.15
541.071	39689.29
541.271	39351.38
541.472	39349.33
541.672	39269.46
541.873	39189.59
542.073	39128.15
542.274	39130.2
542.474	39044.18
542.675	39015.51
542.875	39677.01
543.075	39345.23
543.276	38761.56
543.476	39490.64
543.676	39140.44
543.877	39330.9
544.077	39277.65
544.277	39062.61
544.478	39500.88
544.678	39265.36
544.878	39298.13
545.078	39181.4
545.279	38831.19
545.479	38909.02
545.679	39136.34
545.879	39291.99
546.079	39097.43
546.28	39042.13
546.48	38900.83
546.68	38904.92
546.88	39058.52
547.08	39064.66
547.28	39015.51
547.48	38808.67
547.68	39214.16
547.88	38966.36
548.081	39373.91
548.281	39265.36
548.481	38927.45
548.681	39459.92
548.881	38974.55
549.081	38888.54
549.28	38892.63
549.48	38898.78
549.68	38853.72
549.88	39132.25
550.08	39273.56
550.28	39085.14
550.48	39052.37
550.68	39191.64
550.88	38732.89
551.08	38763.61
551.279	39531.6
551.479	38728.8
551.679	38853.72
551.879	38569.05
552.079	39275.6
552.278	38890.59
552.478	39322.71
552.678	38921.3
552.878	39091.29
553.077	39185.49
553.277	39005.27
553.477	39185.49
553.676	39025.75
553.876	39027.8
554.076	39093.33
554.275	38956.12
554.475	38937.69
554.674	38913.11
554.874	38909.02
555.074	39154.77
555.273	39150.68
555.473	39169.11
555.672	38874.2
555.872	39179.35
556.071	39167.06
556.271	39318.61
556.47	39406.67
556.67	38679.64
556.869	39263.32
557.068	39187.54
557.268	38747.23
557.467	39271.51
557.667	39070.81
557.866	39236.69
558.065	39165.01
558.265	38798.43
558.464	39167.06
558.663	39421.01
558.863	38954.07
559.062	39484.5
559.261	39218.26
559.461	39306.32
559.66	38642.78
559.859	39107.67
560.058	39052.37
560.258	39040.09
560.457	38818.91
560.656	39400.53
560.855	39212.12
561.054	39275.6
561.253	38569.05
561.453	38919.26
561.652	39222.36
561.851	39353.43
562.05	38745.18
562.249	38812.76
562.448	39474.26
562.647	38712.41
562.846	39040.09
563.045	38546.53
563.244	38796.38
563.443	39169.11
563.642	38726.75
563.841	38622.3
564.04	38450.27
564.239	38984.79
564.438	38493.28
564.637	38679.64
564.836	38567.01
565.035	38440.03
565.234	38206.56
565.432	38394.98
565.631	38476.9
565.83	38704.22
566.029	38163.56
566.228	38349.92
566.427	38294.63
566.625	38055.01
566.824	37815.4
567.023	38151.27
567.222	37762.15
567.42	38360.16
567.619	37874.79
567.818	37667.95
568.016	37346.42
568.215	38044.77
568.414	37844.07
568.612	37977.19
568.811	37819.5
569.01	37706.86
569.208	37252.21
569.407	37559.41
569.605	37428.34
569.804	37473.39
570.002	37071.99
570.201	36875.38
570.4	37125.24
570.598	36770.94
570.797	36996.21
570.995	36838.52
571.193	36895.86
571.392	37540.97
571.59	36412.54
571.789	36686.97
571.987	36686.97
572.186	36441.21
572.384	36836.47
572.582	36451.45
572.781	36684.92
572.979	36068.48
573.177	36582.52
573.376	36062.34
573.574	36113.54
573.772	35832.97
573.971	35802.25
574.169	35456.14
574.367	35587.21
574.565	35746.95
574.763	35071.12
574.962	35441.81
575.16	35220.63
575.358	35665.03
575.556	35114.13
575.754	35460.24
575.952	35017.88
576.151	35601.55
576.349	34821.27
576.547	34860.18
576.745	34749.59
576.943	34827.42
577.141	34839.7
577.339	34942.1
577.537	34593.95
577.735	34415.77
577.933	34235.55
578.131	34268.32
578.329	34233.5
578.527	34045.09
578.725	34245.79
578.923	34110.63
579.121	33871.01
579.319	33811.62
579.516	33969.32
579.714	33723.56
579.912	33899.69
580.11	33447.08
580.308	33488.04
580.506	33477.8
580.704	32916.66
580.901	33311.92
581.099	33586.35
581.297	33283.25
581.495	32830.65
581.692	33021.11
581.89	32664.76
582.088	33352.88
582.285	32414.91
582.483	33156.27
582.681	32881.84
582.878	32615.61
583.076	32130.24
583.274	32664.76
583.471	32122.05
583.669	32265.41
583.866	31808.71
584.064	32316.61
584.262	31628.49
584.459	32402.62
584.657	31972.55
584.854	32191.68
585.052	31544.52
585.249	31837.38
585.447	31933.64
585.644	31290.57
585.841	31378.64
586.039	31603.91
586.236	31509.71
586.434	31288.53
586.631	31302.86
586.828	31231.18
587.026	31163.6
587.223	31003.86
587.42	31018.19
587.618	31114.45
587.815	30471.39
588.012	30469.34
588.21	30557.4
588.407	30541.02
588.604	30667.99
588.801	30317.79
588.999	30233.82
589.196	30426.33
589.393	30317.79
589.59	30330.08
589.787	29979.87
589.984	30190.81
590.182	29779.17
590.379	29805.8
590.576	29390.06
590.773	30080.22
590.97	29555.94
591.167	29777.12
591.364	29179.12
591.561	29762.79
591.758	29609.19
591.955	28916.98
592.152	29703.4
592.349	29271.28
592.546	29404.39
592.743	29013.23
592.94	29181.17
593.137	29230.32
593.334	29443.31
593.531	28660.98
593.727	28910.83
593.924	28959.98
594.121	28785.91
594.318	28984.56
594.515	28417.27
594.712	29121.77
594.908	28591.35
595.105	28634.36
595.302	28847.35
595.499	28818.67
595.696	28304.63
595.892	28353.79
596.089	28402.94
596.286	28503.29
596.482	28165.37
596.679	28241.15
596.876	28132.61
597.072	28175.61
597.269	28124.41
597.466	27909.38
597.662	28001.54
597.859	28179.71
598.055	27960.58
598.252	27804.93
598.448	27993.34
598.645	27763.97
598.841	27766.02
599.038	27747.59
599.234	27860.23
599.431	27815.17
599.627	27503.88
599.824	27915.52
600.02	27395.34
600.217	27647.24
600.413	27424.01
600.609	27550.98
600.806	27452.68
601.002	27829.51
601.198	27381
601.395	27290.89
601.591	27526.41
601.787	27507.97
601.984	27448.58
602.18	27587.85
602.376	27430.15
602.572	27518.21
602.769	27385.1
602.965	27448.58
603.161	27442.44
603.357	27294.99
603.553	27405.58
603.75	27370.76
603.946	26754.32
604.142	27202.83
604.338	26858.77
604.534	27604.23
604.73	27217.16
604.926	27215.12
605.122	27350.28
605.318	27229.45
605.514	26922.26
605.71	27034.89
605.906	26826
606.102	26998.03
606.298	27122.96
606.494	27182.35
606.69	27110.67
606.886	27522.31
607.082	26928.4
607.278	27477.26
607.474	26918.16
607.67	27127.05
607.866	26907.92
608.062	27532.55
608.257	26971.41
608.453	27294.99
608.649	27317.51
608.845	27145.48
609.041	27460.87
609.236	27133.2
609.432	27196.68
609.628	27499.78
609.824	27047.18
610.019	27120.91
610.215	27268.36
610.411	27637
610.606	27159.82
610.802	27528.45
610.998	27112.72
611.193	27387.14
611.389	27118.86
611.584	27198.73
611.78	27079.95
611.976	27346.19
612.171	27409.67
612.367	27319.56
612.562	27223.31
612.758	27006.22
612.953	27204.88
613.149	27469.06
613.344	26875.15
613.539	27794.69
613.735	27458.82
613.93	27469.06
614.126	27294.99
614.321	27540.74
614.517	27456.78
614.712	27356.43
614.907	27548.93
615.103	27448.58
615.298	27213.07
615.493	27706.63
615.688	26914.06
615.884	27882.75
616.079	27053.33
616.274	27256.07
616.47	27276.55
616.665	27243.79
616.86	27067.66
617.055	26885.39
617.25	26887.44
617.445	27436.3
617.641	26752.27
617.836	26930.45
618.031	26830.1
618.226	27137.29
618.421	26674.45
618.616	27229.45
618.811	26846.48
619.006	27045.13
619.201	26254.62
619.396	26748.18
619.591	26029.34
619.786	26516.76
619.981	26105.12
620.176	26436.89
620.371	26201.37
620.566	26322.2
620.761	25838.88
620.956	26330.39
621.151	26047.77
621.346	25943.33
621.541	25595.17
621.735	25881.89
621.93	25292.07
622.125	25656.61
622.32	25136.43
622.515	25595.17
622.709	25087.28
622.904	25122.09
623.099	25275.69
623.294	24741.17
623.488	24702.26
623.683	24716.59
623.878	24671.54
624.072	24397.11
624.267	24366.39
624.462	24132.92
624.656	23690.56
624.851	23999.8
625.046	23776.58
625.24	23862.59
625.435	23498.05
625.629	23807.3
625.824	23438.66
626.018	23555.4
626.213	22932.81
626.407	23014.73
626.602	23020.88
626.796	22953.29
626.991	23176.52
627.185	23024.97
627.38	22357.33
627.574	22365.53
627.768	22453.59
627.963	22388.05
628.157	22138.2
628.352	22166.87
628.546	21458.28
628.74	22355.29
628.935	21925.21
629.129	22003.03
629.323	21196.14
629.517	21532
629.712	21468.52
629.906	21468.52
630.1	21122.41
630.294	21257.57
630.489	20442.48
630.683	21110.12
630.877	20401.52
631.071	20522.35
631.265	20657.52
631.459	20686.19
631.653	20278.65
631.848	20311.41
632.042	20346.23
632.236	19973.5
632.43	20180.34
632.624	20022.65
632.818	19830.14
633.012	19727.74
633.206	19508.61
633.4	19574.14
633.594	19522.94
633.788	19359.11
633.982	19391.87
634.176	19076.49
634.369	19166.6
634.563	18853.26
634.757	18908.55
634.951	19041.67
635.145	18793.87
635.339	18541.97
635.533	18339.22
635.726	18722.19
635.92	18079.13
636.114	18447.76
636.308	18216.34
636.501	18210.2
636.695	18142.61
636.889	17739.16
637.083	17675.68
637.276	17513.89
637.47	17493.41
637.664	17401.25
637.857	17444.26
638.051	17380.77
638.244	17075.62
638.438	17059.24
638.632	16819.63
638.825	16872.87
639.019	16793
639.212	16901.54
639.406	16831.91
639.599	16729.52
639.793	16577.97
639.986	16430.51
640.18	16430.51
640.373	16197.04
640.567	15801.79
640.76	15951.29
640.954	15949.24
641.147	15658.43
641.34	15865.27
641.534	15793.59
641.727	15482.3
641.92	15558.08
642.114	15363.52
642.307	15037.89
642.5	15199.68
642.694	14992.84
642.887	14788.04
643.08	15195.59
643.273	14726.6
643.467	14880.2
643.66	14624.2
643.853	14667.21
644.046	14329.3
644.239	14349.78
644.432	14411.21
644.626	14085.59
644.819	14075.35
645.012	14081.49
645.205	14251.47
645.398	14104.02
645.591	13946.33
645.784	13954.52
645.977	13624.79
646.17	13739.48
646.363	13536.73
646.556	13379.04
646.749	13520.35
646.942	13424.09
647.135	13137.38
647.328	13149.67
647.521	13075.94
647.714	13110.75
647.907	12815.85
648.099	13022.69
648.292	12940.77
648.485	12672.49
648.678	12457.45
648.871	12592.62
649.064	12527.08
649.256	12604.91
649.449	12617.19
649.642	12248.56
649.835	12047.86
650.027	12027.38
650.22	12111.35
650.413	12084.72
650.605	11929.08
650.798	11861.49
650.991	11816.44
651.183	11912.69
651.376	11593.21
651.568	11679.22
651.761	11523.58
651.954	11482.62
652.146	11501.05
652.339	11486.72
652.531	11447.8
652.724	11421.18
652.916	11169.28
653.109	11283.97
653.301	11015.68
653.494	10999.3
653.686	10767.88
653.879	10901
654.071	10886.66
654.263	10659.34
654.456	10667.53
654.648	10991.11
654.84	10567.18
655.033	10507.79
655.225	10554.89
655.417	10323.47
655.61	10309.13
655.802	10419.72
655.994	10135.06
656.186	10229.26
656.379	10403.34
656.571	10257.93
656.763	9944.59
656.955	10139.15
657.148	10118.67
657.34	9995.79
657.532	9801.24
657.724	9858.58
657.916	9725.46
658.108	9819.67
658.3	9948.69
658.492	9651.74
658.684	9614.87
658.876	9594.39
659.068	9512.47
659.26	9356.83
659.452	9489.95
659.644	9487.9
659.836	9348.64
660.028	9401.88
660.22	9041.44
660.412	9129.5
660.604	9029.15
660.796	9008.67
660.988	8953.38
661.18	9033.25
661.372	8836.64
661.563	8869.41
661.755	8605.22
661.947	8893.99
662.139	8681
662.331	8644.13
662.522	8488.49
662.714	8668.71
662.906	8455.72
663.097	8463.91
663.289	8353.32
663.481	8515.11
663.673	8394.28
663.864	8164.91
664.056	8193.58
664.247	8199.73
664.439	8095.28
664.631	7960.11
664.822	8169.01
665.014	8144.43
665.205	7800.37
665.397	7767.6
665.588	8117.81
665.78	7702.07
665.971	8062.51
666.163	8042.03
666.354	7724.6
666.546	7759.41
666.737	7624.25
666.929	7652.92
667.12	7521.85
667.311	7435.83
667.503	7425.59
667.694	7319.1
667.885	7321.15
668.077	7382.59
668.268	7327.29
668.459	7433.79
668.651	7323.19
668.842	7491.13
669.033	7114.3
669.224	7097.92
669.416	7106.11
669.607	7292.48
669.798	7038.53
669.989	7030.34
670.18	7294.52
670.371	6833.73
670.563	7050.82
670.754	7059.01
670.945	6895.17
671.136	7087.68
671.327	6884.93
671.518	6815.3
671.709	6809.15
671.9	6862.4
672.091	6893.12
672.282	6655.56
672.473	6555.21
672.664	6762.05
672.855	6622.79
673.046	6776.39
673.237	6639.17
673.428	6682.18
673.619	6641.22
673.809	6403.66
674	6657.61
674.191	6563.4
674.382	6442.57
674.573	6448.71
674.764	6432.33
674.954	6532.68
675.145	6286.92
675.336	6350.41
675.527	6272.59
675.717	6473.29
675.908	6348.36
676.099	6288.97
676.289	6280.78
676.48	6307.4
676.671	6153.8
676.861	6184.52
677.052	6213.2
677.243	6205
677.433	6100.56
677.624	6262.35
677.814	6145.61
678.005	6110.8
678.195	6166.09
678.386	6190.67
678.576	5944.91
678.767	6012.49
678.957	5877.33
679.148	6051.41
679.338	6039.12
679.529	6024.78
679.719	5811.79
679.909	6043.21
680.1	5998.16
680.29	6014.54
680.481	5940.82
680.671	5983.82
680.861	6065.74
681.052	5844.56
681.242	5813.84
681.432	5901.9
681.622	5781.07
681.813	5817.94
682.003	5748.31
682.193	5844.56
682.383	5928.53
682.573	5746.26
682.764	5860.95
682.954	5834.32
683.144	5793.36
683.334	5844.56
683.524	5764.69
683.714	5711.44
683.904	5592.66
684.094	5760.59
684.284	5570.13
684.474	5781.07
684.664	5699.16
684.854	5729.88
685.044	5549.65
685.234	5629.52
685.424	5490.26
685.614	5502.55
685.804	5580.37
685.994	5752.4
686.184	5719.64
686.374	5414.49
686.564	5443.16
686.753	5662.29
686.943	5488.21
687.133	5625.43
687.323	5453.4
687.513	5607
687.702	5490.26
687.892	5430.87
688.082	5488.21
688.272	5285.47
688.461	5379.67
688.651	5375.58
688.841	5285.47
689.03	5527.13
689.22	5367.38
689.41	5351
689.599	5234.27
689.789	5383.77
689.979	5146.2
690.168	5148.25
690.358	5160.54
690.547	5211.74
690.737	5064.29
690.926	4994.65
691.116	4994.65
691.305	5062.24
691.495	5064.29
691.684	4937.31
691.874	5082.72
692.063	4965.98
692.252	5072.48
692.442	5099.1
692.631	4857.44
692.82	4890.21
693.01	4961.89
693.199	5015.13
693.388	4933.22
693.578	4994.65
693.767	4974.17
693.956	4941.41
694.146	4900.45
694.335	4884.06
694.524	4804.19
694.713	4888.16
694.902	4830.82
695.092	4785.76
695.281	4787.81
695.47	4712.03
695.659	4580.96
695.848	4677.22
696.037	4601.44
696.226	4583.01
696.415	4757.09
696.604	4773.47
696.793	4767.33
696.982	4589.16
697.171	4662.88
697.36	4607.59
697.549	4558.44
697.738	4580.96
697.927	4523.62
698.116	4527.72
698.305	4560.49
698.494	4503.14
698.683	4410.98
698.872	4591.2
699.061	4425.32
699.25	4560.49
699.438	4310.63
699.627	4466.28
699.816	4480.61
700.005	4367.98
700.193	4376.17
700.382	4410.98
700.571	4271.72
700.76	4359.78
700.948	4404.84
701.137	4318.82
701.326	4310.63
701.514	4288.11
701.703	4294.25
701.892	4320.87
702.08	4335.21
702.269	4284.01
702.457	4161.13
702.646	4263.53
702.834	4130.41
703.023	4105.84
703.212	4214.38
703.4	4114.03
703.589	4048.49
703.777	4281.96
703.965	4165.23
704.154	4249.19
704.342	4226.67
704.531	4017.77
704.719	3993.2
704.907	4200.04
705.096	3935.85
705.284	4064.88
705.472	4023.92
705.661	4134.51
705.849	4034.16
706.037	3944.05
706.226	4114.03
706.414	3925.61
706.602	3892.85
706.79	3878.51
706.979	3946.09
707.167	3919.47
707.355	3944.05
707.543	3858.03
707.731	3962.48
707.919	3942
708.107	3968.62
708.296	3804.78
708.484	3739.25
708.672	3765.87
708.86	3681.91
709.048	3829.36
709.236	3868.27
709.424	3749.49
709.612	3624.56
709.8	3753.59
709.988	3702.39
710.176	3665.52
710.364	3690.1
710.551	3772.02
710.739	3643
710.927	3657.33
711.115	3499.64
711.303	3726.96
711.491	3614.32
711.679	3671.67
711.866	3581.56
712.054	3573.36
712.242	3651.19
712.43	3559.03
712.617	3550.84
712.805	3616.37
712.993	3548.79
713.181	3559.03
713.368	3540.6
713.556	3683.95
713.744	3419.77
713.931	3585.65
714.119	3567.22
714.306	3411.57
714.494	3395.19
714.682	3468.92
714.869	3499.64
715.057	3374.71
715.244	3270.26
715.432	3511.93
715.619	3284.6
715.807	3374.71
715.994	3249.79
716.182	3450.49
716.369	3307.13
716.556	3208.83
716.744	3235.45
716.931	3272.31
717.119	3272.31
717.306	3298.94
717.493	3120.76
717.681	3264.12
717.868	3270.26
718.055	3114.62
718.242	3190.39
718.43	3206.78
718.617	3208.83
718.804	3135.1
718.991	3059.32
719.179	3135.1
719.366	3036.8
719.553	3102.33
719.74	2999.93
719.927	3145.34
720.114	3151.48
720.301	3114.62
720.488	2963.07
720.676	3044.99
720.863	2979.45
721.05	3049.08
721.237	2913.92
721.424	3077.76
721.611	3024.51
721.798	2958.97
721.985	2885.25
722.172	2875.01
722.358	2977.41
722.545	2938.49
722.732	2748.03
722.919	2842.24
723.106	2895.49
723.293	2911.87
723.48	2852.48
723.667	2885.25
723.853	2791.04
724.04	2743.94
724.227	2848.38
724.414	2860.67
724.6	2723.46
724.787	2881.15
724.974	2854.53
725.161	2803.33
725.347	2721.41
725.534	2860.67
725.72	2731.65
725.907	2770.56
726.094	2821.76
726.28	2801.28
726.467	2832
726.653	2807.42
726.84	2635.39
727.027	2721.41
727.213	2696.83
727.4	2715.27
727.586	2729.6
727.773	2737.79
727.959	2672.26
728.145	2692.74
728.332	2614.91
728.518	2453.13
728.705	2680.45
728.891	2561.67
729.077	2571.91
729.264	2477.7
729.45	2696.83
729.636	2696.83
729.823	2713.22
730.009	2647.68
730.195	2535.04
730.382	2619.01
730.568	2533
730.754	2551.43
730.94	2586.24
731.126	2647.68
731.313	2539.14
731.499	2606.72
731.685	2551.43
731.871	2561.67
732.057	2434.69
732.243	2563.72
732.429	2426.5
732.615	2485.89
732.801	2453.13
732.987	2504.32
733.173	2475.65
733.359	2395.78
733.545	2496.13
733.731	2397.83
733.917	2479.75
734.103	2410.12
734.289	2371.21
734.475	2387.59
734.661	2391.69
734.847	2387.59
735.033	2406.02
735.219	2401.93
735.404	2305.67
735.59	2289.29
735.776	2303.62
735.962	2356.87
736.148	2461.32
736.333	2356.87
736.519	2209.42
736.705	2330.25
736.89	2236.04
737.076	2201.23
737.262	2229.9
737.447	2352.77
737.633	2315.91
737.819	2324.1
738.004	2170.51
738.19	2299.53
738.375	2371.21
738.561	2117.26
738.747	2147.98
738.932	2137.74
739.118	2279.05
739.303	2297.48
739.489	2303.62
739.674	2238.09
739.859	2166.41
740.045	2170.51
740.23	2164.36
740.416	2104.97
740.601	2168.46
740.786	2082.44
740.972	2266.76
741.157	2059.92
741.342	1965.71
741.528	1978
741.713	2117.26
741.898	2082.44
742.084	1982.09
742.269	1998.48
742.454	2049.68
742.639	2139.79
742.824	2047.63
743.01	2000.52
743.195	2035.34
743.38	1881.74
743.565	1904.27
743.75	1939.09
743.935	1879.69
744.12	1894.03
744.305	1908.37
744.49	1947.28
744.675	1922.7
744.86	1922.7
745.045	1902.22
745.23	1877.65
745.415	1922.7
745.6	1969.8
745.785	1889.93
745.97	1859.21
746.155	1595.03
746.34	1816.21
746.525	1765.01
746.71	1910.41
746.895	1797.78
747.079	1816.21
747.264	1805.97
747.449	1830.54
747.634	1777.3
747.819	1779.34
748.003	1816.21
748.188	1726.1
748.373	1746.58
748.557	1713.81
748.742	1652.37
748.927	1799.82
749.111	1713.81
749.296	1509.01
749.481	1615.51
749.665	1742.48
749.85	1672.85
750.034	1562.26
750.219	1574.55
750.404	1574.55
750.588	1549.97
750.773	1529.49
750.957	1650.32
751.141	1564.31
751.326	1578.64
751.51	1488.53
751.695	1500.82
751.879	1470.1
752.064	1459.86
752.248	1437.33
752.432	1459.86
752.617	1410.71
752.801	1574.55
752.985	1523.35
753.17	1519.25
753.354	1459.86
753.538	1363.61
753.722	1248.92
753.907	1332.89
754.091	1357.46
754.275	1379.99
754.459	1433.24
754.643	1339.03
754.828	1259.16
755.012	1363.61
755.196	1326.74
755.38	1345.17
755.564	1296.02
755.748	1437.33
755.932	1300.12
756.116	1308.31
756.3	1285.78
756.484	1271.45
756.668	1314.45
756.852	1154.71
757.036	1167
757.22	1300.12
757.404	1255.06
757.588	1222.3
757.772	1162.9
757.956	1164.95
758.14	1162.9
758.323	1107.61
758.507	1205.91
758.691	1107.61
758.875	1117.85
759.059	1218.2
759.242	1136.28
759.426	1103.51
759.61	1087.13
759.794	1060.51
759.977	1156.76
760.161	1197.72
760.345	1083.03
760.528	1107.61
760.712	1107.61
760.895	1144.47
761.079	1042.07
761.263	1132.19
761.446	988.83
761.63	1001.12
761.813	1097.37
761.997	882.33
762.18	1060.51
762.364	1107.61
762.547	954.01
762.731	1021.6
762.914	904.86
763.098	1021.6
763.281	1058.46
763.464	1027.74
763.648	1054.36
763.831	976.54
764.015	972.44
764.198	933.53
764.381	976.54
764.564	988.83
764.748	980.64
764.931	997.02
765.114	919.2
765.297	992.92
765.481	968.35
765.664	1003.16
765.847	900.76
766.03	976.54
766.213	841.37
766.397	966.3
766.58	865.95
766.763	935.58
766.946	935.58
767.129	874.14
767.312	904.86
767.495	935.58
767.678	857.76
767.861	929.44
768.044	861.85
768.227	913.05
768.41	841.37
768.593	894.62
768.776	872.09
768.959	886.43
769.142	888.48
769.324	831.13
769.507	757.41
769.69	779.93
769.873	861.85
770.056	968.35
770.239	855.71
770.421	954.01
770.604	939.68
770.787	755.36
770.97	853.66
771.152	757.41
771.335	857.76
771.518	894.62
771.7	861.85
771.883	861.85
772.066	855.71
772.248	884.38
772.431	839.33
772.613	865.95
772.796	722.59
772.978	853.66
773.161	829.09
773.343	798.37
773.526	759.46
773.708	802.46
773.891	814.75
774.073	792.22
774.256	763.55
774.438	753.31
774.621	700.06
774.803	691.87
774.985	650.91
775.168	775.84
775.35	775.84
775.532	788.13
775.715	726.69
775.897	644.77
776.079	671.39
776.261	677.54
776.444	657.06
776.626	669.34
776.808	689.82
776.99	671.39
777.173	644.77
777.355	698.02
777.537	667.3
777.719	673.44
777.901	640.67
778.083	624.29
778.265	554.66
778.447	663.2
778.629	630.43
778.811	702.11
778.993	659.1
779.175	626.34
779.357	642.72
779.539	642.72
779.721	675.49
779.903	618.15
780.085	591.52
780.267	632.48
780.449	599.71
780.631	607.91
780.812	575.14
780.994	540.32
781.176	599.71
781.358	503.46
781.54	519.84
781.721	642.72
781.903	589.47
782.085	511.65
782.267	538.27
782.448	579.23
782.63	509.6
782.812	542.37
782.993	591.52
783.175	595.62
783.357	482.98
783.538	489.12
783.72	487.08
783.901	468.64
784.083	476.84
784.264	476.84
784.446	415.4
784.627	519.84
784.809	439.97
784.99	495.27
785.172	462.5
785.353	452.26
785.535	427.68
785.716	435.88
785.897	470.69
786.079	431.78
786.26	384.68
786.441	468.64
786.623	341.67
786.804	390.82
786.985	419.49
787.167	493.22
787.348	368.29
787.529	337.57
787.71	413.35
787.891	462.5
788.073	437.92
788.254	349.86
788.435	482.98
788.616	407.2
788.797	366.25
788.978	413.35
789.159	419.49
789.34	517.79
789.522	302.76
789.703	290.47
789.884	345.77
790.065	425.64
790.246	448.16
790.427	413.35
790.607	353.96
790.788	497.32
790.969	315.05
791.15	437.92
791.331	399.01
791.512	399.01
791.693	290.47
791.874	413.35
792.054	370.34
792.235	399.01
792.416	337.57
792.597	364.2
792.778	356.01
792.958	282.28
793.139	368.29
793.32	296.61
793.5	263.85
793.681	327.33
793.862	329.38
794.042	313
794.223	296.61
794.404	378.53
794.584	329.38
794.765	306.85
794.945	319.14
795.126	372.39
795.306	353.96
795.487	272.04
795.667	272.04
795.848	304.81
796.028	304.81
796.209	298.66
796.389	390.82
796.57	247.46
796.75	247.46
796.93	329.38
797.111	286.37
797.291	239.27
797.471	288.42
797.652	313
797.832	243.37
798.012	290.47
798.192	263.85
798.373	231.08
798.553	198.31
798.733	272.04
798.913	241.32
799.093	173.74
799.274	222.89
799.454	267.94
799.634	276.13
799.814	313
799.994	249.51
800.174	319.14
800.354	192.17
800.534	194.22
800.714	269.99
800.894	224.94
801.074	302.76
801.254	265.89
801.434	282.28
801.614	269.99
801.794	183.98
801.974	978.59
802.154	218.79
802.334	206.5
802.514	239.27
802.693	175.78
802.873	200.36
803.053	255.65
803.233	253.61
803.413	181.93
803.592	249.51
803.772	196.26
803.952	167.59
804.131	153.26
804.311	216.74
804.491	300.71
804.67	147.11
804.85	298.66
805.03	132.78
805.209	231.08
805.389	231.08
805.568	226.98
805.748	247.46
805.928	247.46
806.107	198.31
806.287	177.83
806.466	233.13
806.646	181.93
806.825	202.41
807.004	233.13
807.184	177.83
807.363	200.36
807.543	192.17
807.722	175.78
807.901	198.31
808.081	280.23
808.26	89.77
808.439	226.98
808.619	259.75
808.798	173.74
808.977	165.54
809.156	239.27
809.336	210.6
809.515	149.16
809.694	112.3
809.873	200.36
810.052	173.74
810.231	226.98
810.411	186.02
810.59	192.17
810.769	183.98
810.948	177.83
811.127	110.25
811.306	181.93
811.485	108.2
811.664	157.35
811.843	177.83
812.022	120.49
812.201	169.64
812.38	138.92
812.559	124.58
812.737	198.31
812.916	132.78
813.095	157.35
813.274	153.26
813.453	134.82
813.632	145.06
813.811	192.17
813.989	108.2
814.168	206.5
814.347	159.4
814.526	208.55
814.704	171.69
814.883	132.78
815.062	169.64
815.24	181.93
815.419	143.02
815.598	132.78
815.776	57
815.955	100.01
816.133	34.47
816.312	126.63
816.49	190.12
816.669	177.83
816.847	50.86
817.026	157.35
817.204	102.06
817.383	79.53
817.561	57
817.74	100.01
817.918	108.2
818.097	132.78
818.275	157.35
818.453	143.02
818.632	165.54
818.81	87.72
818.988	206.5
819.167	124.58
819.345	130.73
819.523	134.82
819.701	192.17
819.879	87.72
820.058	120.49
820.236	128.68
820.414	69.29
820.592	149.16
820.77	61.1
820.948	77.48
821.127	65.19
821.305	163.5
821.483	102.06
821.661	159.4
821.839	91.82
822.017	5.8
822.195	52.91
822.373	110.25
822.551	100.01
822.729	102.06
822.907	67.24
823.085	112.3
823.262	151.21
823.44	143.02
823.618	91.82
823.796	91.82
823.974	140.97
824.152	91.82
824.329	132.78
824.507	85.67
824.685	149.16
824.863	118.44
825.04	112.3
825.218	167.59
825.396	147.11
825.574	130.73
825.751	73.39
825.929	87.72
826.107	67.24
826.284	93.87
826.462	110.25
826.639	52.91
826.817	71.34
826.994	124.58
827.172	50.86
827.349	75.43
827.527	87.72
827.704	134.82
827.882	54.95
828.059	124.58
828.237	81.58
828.414	124.58
828.591	-16.73
828.769	34.47
828.946	65.19
829.124	18.09
829.301	120.49
829.478	83.63
829.655	65.19
829.833	124.58
830.01	1.71
830.187	118.44
830.364	196.26
830.542	75.43
830.719	110.25
830.896	100.01
831.073	61.1
831.25	61.1
831.427	95.91
831.604	20.14
831.782	44.71
831.959	40.62
832.136	61.1
832.313	67.24
832.49	95.91
832.667	89.77
832.844	42.67
833.021	124.58
833.198	83.63
833.374	69.29
833.551	61.1
833.728	85.67
833.905	-26.96
834.082	65.19
834.259	18.09
834.436	95.91
834.612	91.82
834.789	44.71
834.966	67.24
835.143	106.15
835.319	30.38
835.496	46.76
835.673	110.25
835.85	24.23
836.026	36.52
836.203	69.29
836.38	52.91
836.556	36.52
836.733	-10.58
836.909	132.78
837.086	9.9
837.262	9.9
837.439	5.8
837.616	-2.39
837.792	57
837.968	44.71
838.145	-14.68
838.321	46.76
838.498	77.48
838.674	91.82
838.851	22.19
839.027	83.63
839.203	50.86
839.38	54.95
839.556	46.76
839.732	69.29
839.909	40.62
840.085	126.63
840.261	85.67
840.437	165.54
840.614	87.72
840.79	132.78
840.966	124.58
841.142	67.24
841.318	91.82
841.494	83.63
841.671	75.43
841.847	75.43
842.023	-24.92
842.199	24.23
842.375	102.06
842.551	26.28
842.727	5.8
842.903	63.15
843.079	28.33
843.255	44.71
843.431	46.76
843.607	59.05
843.783	-14.68
843.959	44.71
844.134	-31.06
844.31	134.82
844.486	108.2
844.662	59.05
844.838	100.01
845.013	67.24
845.189	42.67
845.365	108.2
845.541	28.33
845.716	38.57
845.892	79.53
846.068	44.71
846.244	50.86
846.419	36.52
846.595	38.57
846.77	44.71
846.946	97.96
847.122	1.71
847.297	-55.64
847.473	108.2
847.648	-31.06
847.824	79.53
847.999	9.9
848.175	20.14
848.35	-10.58
848.526	100.01
848.701	65.19
848.876	-10.58
849.052	13.99
849.227	106.15
849.403	-67.92
849.578	77.48
849.753	-8.53
849.929	34.47
850.104	-26.96
850.279	69.29
850.454	13.99
850.63	59.05
850.805	-4.44
850.98	24.23
851.155	-12.63
851.33	-53.59
851.505	-10.58
851.681	112.3
851.856	-12.63
852.031	93.87
852.206	73.39
852.381	48.81
852.556	20.14
852.731	-18.77
852.906	36.52
853.081	26.28
853.256	145.06
853.431	30.38
853.606	54.95
853.781	77.48
853.956	-20.82
854.131	44.71
854.305	28.33
854.48	-20.82
854.655	87.72
854.83	18.09
855.005	52.91
855.18	50.86
855.354	-0.34
855.529	-4.44
855.704	67.24
855.879	100.01
856.053	18.09
856.228	34.47
856.403	-41.3
856.577	59.05
856.752	28.33
856.926	-20.82
857.101	-12.63
857.276	7.85
857.45	32.43
857.625	-14.68
857.799	-10.58
857.974	52.91
858.148	20.14
858.323	-45.4
858.497	42.67
858.672	42.67
858.846	30.38
859.02	34.47
859.195	-10.58
859.369	61.1
859.543	26.28
859.718	69.29
859.892	-10.58
860.066	28.33
860.241	1.71
860.415	7.85
860.589	9.9
860.763	9.9
860.938	-14.68
861.112	100.01
861.286	44.71
861.46	52.91
861.634	69.29
861.808	3.75
861.982	44.71
862.157	-2.39
862.331	5.8
862.505	-6.49
862.679	-14.68
862.853	-2.39
863.027	75.43
863.201	1.71
863.375	3.75
863.549	28.33
863.722	22.19
863.896	-18.77
864.07	-4.44
864.244	26.28
864.418	22.19
864.592	1.71
864.766	69.29
864.939	50.86
865.113	38.57
865.287	22.19
865.461	-10.58
865.634	-29.01
865.808	42.67
865.982	-6.49
866.156	-22.87
866.329	20.14
866.503	54.95
866.676	34.47
866.85	-2.39
867.024	36.52
867.197	63.15
867.371	54.95
867.544	34.47
867.718	-22.87
867.891	26.28
868.065	-20.82
868.238	73.39
868.412	69.29
868.585	36.52
868.759	-4.44
868.932	75.43
869.105	26.28
869.279	-59.73
869.452	-4.44
869.625	-12.63
869.799	11.95
869.972	-96.6
870.145	36.52
870.319	3.75
870.492	-10.58
870.665	11.95
870.838	-29.01
871.011	-4.44
871.185	20.14
871.358	1.71
871.531	34.47
871.704	-59.73
871.877	11.95
872.05	28.33
872.223	-31.06
872.396	65.19
872.569	48.81
872.742	-53.59
872.915	-29.01
873.088	-12.63
873.261	-24.92
873.434	-20.82
873.607	34.47
873.78	42.67
873.953	11.95
874.126	-6.49
874.299	34.47
874.471	3.75
874.644	61.1
874.817	59.05
874.99	54.95
875.163	-6.49
875.335	7.85
875.508	30.38
875.681	69.29
875.853	18.09
876.026	3.75
876.199	50.86
876.371	-22.87
876.544	-76.12
876.717	-6.49
876.889	34.47
877.062	11.95
877.234	-98.64
877.407	-26.96
877.579	36.52
877.752	126.63
877.924	36.52
878.097	18.09
878.269	-6.49
878.442	-4.44
878.614	-18.77
878.786	44.71
878.959	18.09
879.131	-18.77
879.303	-84.31
879.476	-12.63
879.648	20.14
879.82	-4.44
879.993	5.8
880.165	-51.54
880.337	20.14
880.509	-12.63
880.681	-31.06
880.854	-31.06
881.026	5.8
881.198	85.67
881.37	-43.35
881.542	-20.82
881.714	-59.73
881.886	85.67
882.058	77.48
882.23	52.91
882.402	-16.73
882.574	18.09
882.746	9.9
882.918	108.2
883.09	-12.63
883.262	67.24
883.434	52.91
883.606	52.91
883.778	71.34
883.95	13.99
884.122	34.47
884.293	83.63
884.465	-26.96
884.637	89.77
884.809	-22.87
884.98	75.43
885.152	50.86
885.324	-41.3
885.496	-10.58
885.667	-8.53
885.839	1.71
886.011	77.48
886.182	36.52
886.354	30.38
886.525	13.99
886.697	11.95
886.869	-35.16
887.04	-67.92
887.212	91.82
887.383	28.33
887.555	5.8
887.726	-51.54
887.897	18.09
888.069	-22.87
888.24	46.76
888.412	102.06
888.583	7.85
888.754	-39.25
888.926	-14.68
889.097	3.75
889.268	-69.97
889.44	-61.78
889.611	-53.59
889.782	-31.06
889.953	5.8
890.125	20.14
890.296	13.99
890.467	3.75
890.638	-33.11
890.809	1.71
890.98	-33.11
891.151	-24.92
891.323	73.39
891.494	52.91
891.665	-12.63
891.836	-55.64
892.007	-37.2
892.178	-24.92
892.349	-31.06
892.52	-26.96
892.691	-51.54
892.862	-31.06
893.032	1.71
893.203	-14.68
893.374	-24.92
893.545	54.95
893.716	-47.44
893.887	46.76
894.057	-4.44
894.228	-37.2
894.399	9.9
894.57	20.14
894.74	-47.44
894.911	-29.01
895.082	18.09
895.253	-2.39
895.423	-31.06
895.594	5.8
895.764	44.71
895.935	9.9
896.106	1.71
896.276	-22.87
896.447	38.57
896.617	32.43
896.788	18.09
896.958	-47.44
897.129	11.95
897.299	-24.92
897.47	95.91
897.64	59.05
897.81	-6.49
897.981	-12.63
898.151	-37.2
898.322	-14.68
898.492	11.95
898.662	18.09
898.832	-12.63
899.003	42.67
899.173	38.57
899.343	9.9
899.513	-86.36
