Data from USB4F104151__159__14-32-02-897.txt Node

Date: Thu Mar 13 14:32:02 EDT 2025
User: louis
Spectrometer: USB4F10415
Trigger mode: 4
Integration Time (sec): 2.500000E-2
Scans to average: 1
Electric dark correction enabled: true
Nonlinearity correction enabled: false
Boxcar width: 0
XAxis mode: Wavelengths
Number of Pixels in Spectrum: 3648
>>>>>Begin Spectral Data<<<<<
178.204	-111.44
178.424	-111.44
178.644	-111.44
178.864	-123.73
179.084	-82.77
179.304	-29.52
179.524	-2.9
179.744	-19.29
179.964	33.96
180.184	1.19
180.404	13.48
180.624	56.49
180.844	-2.9
181.064	-43.86
181.283	-25.43
181.503	-11.09
181.723	29.87
181.943	-9.05
182.163	87.21
182.383	70.83
182.602	101.55
182.822	81.07
183.042	72.87
183.262	56.49
183.482	58.54
183.701	15.53
183.921	1.19
184.141	54.44
184.361	95.4
184.58	60.59
184.8	7.34
185.02	-27.48
185.239	79.02
185.459	-19.29
185.679	25.77
185.898	7.34
186.118	70.83
186.338	103.59
186.557	111.78
186.777	46.25
186.997	76.97
187.216	-25.43
187.436	169.13
187.655	50.35
187.875	58.54
188.095	5.29
188.314	144.55
188.534	160.94
188.753	27.82
188.973	70.83
189.192	107.69
189.412	54.44
189.631	95.4
189.851	46.25
190.07	40.11
190.29	46.25
190.509	79.02
190.729	66.73
190.948	99.5
191.168	205.99
191.387	79.02
191.607	21.67
191.826	17.58
192.045	33.96
192.265	66.73
192.484	9.39
192.704	76.97
192.923	29.87
193.142	46.25
193.362	87.21
193.581	15.53
193.8	93.35
194.02	81.07
194.239	95.4
194.458	54.44
194.678	107.69
194.897	19.63
195.116	74.92
195.335	79.02
195.555	54.44
195.774	50.35
195.993	105.64
196.212	48.3
196.432	31.91
196.651	7.34
196.87	-41.81
197.089	115.88
197.308	113.83
197.528	124.07
197.747	19.63
197.966	-2.9
198.185	138.41
198.404	38.06
198.623	3.24
198.842	42.15
199.062	48.3
199.281	64.68
199.5	42.15
199.719	107.69
199.938	50.35
200.157	50.35
200.376	109.74
200.595	111.78
200.814	70.83
201.033	29.87
201.252	36.01
201.471	56.49
201.69	87.21
201.909	46.25
202.128	113.83
202.347	62.63
202.566	31.91
202.785	48.3
203.004	74.92
203.223	144.55
203.442	54.44
203.661	119.98
203.879	-7
204.098	173.22
204.317	134.31
204.536	62.63
204.755	1.19
204.974	36.01
205.193	81.07
205.411	173.22
205.63	44.2
205.849	54.44
206.068	-27.48
206.287	50.35
206.505	42.15
206.724	79.02
206.943	36.01
207.162	7.34
207.381	83.11
207.599	17.58
207.818	109.74
208.037	-7
208.255	19.63
208.474	113.83
208.693	62.63
208.911	-13.14
209.13	111.78
209.349	64.68
209.567	97.45
209.786	105.64
210.005	33.96
210.223	17.58
210.442	17.58
210.661	103.59
210.879	56.49
211.098	13.48
211.316	66.73
211.535	70.83
211.753	52.39
211.972	38.06
212.191	54.44
212.409	64.68
212.628	130.22
212.846	40.11
213.065	117.93
213.283	54.44
213.502	5.29
213.72	-9.05
213.938	42.15
214.157	-17.24
214.375	62.63
214.594	97.45
214.812	83.11
215.031	13.48
215.249	29.87
215.467	70.83
215.686	62.63
215.904	62.63
216.122	38.06
216.341	169.13
216.559	64.68
216.778	70.83
216.996	38.06
217.214	19.63
217.432	23.72
217.651	48.3
217.869	62.63
218.087	52.39
218.306	70.83
218.524	33.96
218.742	111.78
218.96	103.59
219.179	56.49
219.397	25.77
219.615	130.22
219.833	-17.24
220.051	25.77
220.27	183.46
220.488	46.25
220.706	58.54
220.924	9.39
221.142	27.82
221.36	66.73
221.578	122.02
221.796	54.44
222.015	19.63
222.233	93.35
222.451	154.79
222.669	70.83
222.887	89.26
223.105	31.91
223.323	1.19
223.541	23.72
223.759	91.31
223.977	7.34
224.195	70.83
224.413	54.44
224.631	95.4
224.849	134.31
225.067	115.88
225.285	46.25
225.503	91.31
225.721	58.54
225.939	38.06
226.157	-0.85
226.375	140.46
226.592	3.24
226.81	101.55
227.028	64.68
227.246	83.11
227.464	117.93
227.682	128.17
227.9	101.55
228.117	171.18
228.335	95.4
228.553	70.83
228.771	42.15
228.989	70.83
229.206	50.35
229.424	56.49
229.642	60.59
229.86	27.82
230.077	128.17
230.295	111.78
230.513	105.64
230.731	87.21
230.948	124.07
231.166	124.07
231.384	27.82
231.601	-11.09
231.819	58.54
232.037	-56.15
232.254	56.49
232.472	64.68
232.689	95.4
232.907	46.25
233.125	119.98
233.342	70.83
233.56	-4.95
233.777	23.72
233.995	17.58
234.213	54.44
234.43	91.31
234.648	56.49
234.865	-68.44
235.083	1.19
235.3	13.48
235.518	79.02
235.735	162.98
235.953	79.02
236.17	74.92
236.388	68.78
236.605	42.15
236.822	21.67
237.04	148.65
237.257	126.12
237.475	38.06
237.692	46.25
237.909	66.73
238.127	56.49
238.344	54.44
238.562	54.44
238.779	-39.76
238.996	-11.09
239.214	119.98
239.431	128.17
239.648	42.15
239.865	46.25
240.083	54.44
240.3	81.07
240.517	-2.9
240.735	89.26
240.952	128.17
241.169	97.45
241.386	7.34
241.603	13.48
241.821	83.11
242.038	111.78
242.255	11.43
242.472	48.3
242.689	87.21
242.907	38.06
243.124	33.96
243.341	42.15
243.558	107.69
243.775	46.25
243.992	-0.85
244.209	29.87
244.426	101.55
244.643	119.98
244.86	64.68
245.078	87.21
245.295	126.12
245.512	56.49
245.729	9.39
245.946	58.54
246.163	83.11
246.38	54.44
246.597	50.35
246.814	54.44
247.031	124.07
247.248	95.4
247.464	54.44
247.681	74.92
247.898	40.11
248.115	62.63
248.332	29.87
248.549	56.49
248.766	105.64
248.983	72.87
249.2	99.5
249.417	87.21
249.633	107.69
249.85	128.17
250.067	-19.29
250.284	56.49
250.501	15.53
250.717	66.73
250.934	15.53
251.151	74.92
251.368	33.96
251.585	97.45
251.801	25.77
252.018	-25.43
252.235	132.26
252.451	79.02
252.668	23.72
252.885	103.59
253.102	99.5
253.318	66.73
253.535	31.91
253.752	79.02
253.968	-19.29
254.185	7.34
254.401	70.83
254.618	72.87
254.835	23.72
255.051	138.41
255.268	62.63
255.484	72.87
255.701	29.87
255.917	148.65
256.134	25.77
256.351	42.15
256.567	38.06
256.784	124.07
257	-9.05
257.217	87.21
257.433	122.02
257.65	72.87
257.866	134.31
258.082	64.68
258.299	66.73
258.515	83.11
258.732	27.82
258.948	95.4
259.165	33.96
259.381	-78.68
259.597	52.39
259.814	70.83
260.03	50.35
260.246	1.19
260.463	111.78
260.679	97.45
260.895	23.72
261.112	46.25
261.328	95.4
261.544	54.44
261.761	148.65
261.977	95.4
262.193	74.92
262.409	89.26
262.626	54.44
262.842	81.07
263.058	76.97
263.274	68.78
263.49	103.59
263.707	62.63
263.923	58.54
264.139	3.24
264.355	56.49
264.571	87.21
264.787	95.4
265.004	62.63
265.22	60.59
265.436	79.02
265.652	87.21
265.868	83.11
266.084	-11.09
266.3	169.13
266.516	60.59
266.732	91.31
266.948	103.59
267.164	95.4
267.38	103.59
267.596	136.36
267.812	146.6
268.028	83.11
268.244	70.83
268.46	15.53
268.676	66.73
268.892	72.87
269.108	54.44
269.324	31.91
269.54	-15.19
269.756	87.21
269.972	40.11
270.188	76.97
270.403	62.63
270.619	81.07
270.835	103.59
271.051	95.4
271.267	25.77
271.483	29.87
271.698	89.26
271.914	74.92
272.13	93.35
272.346	48.3
272.562	46.25
272.777	62.63
272.993	93.35
273.209	31.91
273.425	62.63
273.64	7.34
273.856	62.63
274.072	23.72
274.287	5.29
274.503	95.4
274.719	95.4
274.934	148.65
275.15	21.67
275.366	56.49
275.581	5.29
275.797	169.13
276.012	91.31
276.228	87.21
276.444	31.91
276.659	128.17
276.875	-68.44
277.09	52.39
277.306	17.58
277.521	54.44
277.737	-11.09
277.952	83.11
278.168	58.54
278.383	66.73
278.599	76.97
278.814	113.83
279.03	111.78
279.245	111.78
279.461	13.48
279.676	89.26
279.892	58.54
280.107	7.34
280.322	60.59
280.538	124.07
280.753	-0.85
280.969	66.73
281.184	40.11
281.399	87.21
281.615	48.3
281.83	27.82
282.045	-11.09
282.26	31.91
282.476	97.45
282.691	40.11
282.906	87.21
283.122	38.06
283.337	93.35
283.552	54.44
283.767	70.83
283.983	56.49
284.198	103.59
284.413	128.17
284.628	56.49
284.843	81.07
285.058	130.22
285.274	109.74
285.489	44.2
285.704	177.32
285.919	-0.85
286.134	-11.09
286.349	54.44
286.564	111.78
286.779	152.74
286.995	54.44
287.21	-31.57
287.425	91.31
287.64	76.97
287.855	87.21
288.07	46.25
288.285	76.97
288.5	91.31
288.715	-11.09
288.93	79.02
289.145	56.49
289.36	62.63
289.575	115.88
289.79	134.31
290.004	25.77
290.219	29.87
290.434	87.21
290.649	-25.43
290.864	50.35
291.079	-0.85
291.294	91.31
291.509	105.64
291.724	83.11
291.938	17.58
292.153	87.21
292.368	13.48
292.583	48.3
292.798	46.25
293.012	103.59
293.227	58.54
293.442	56.49
293.657	42.15
293.871	117.93
294.086	87.21
294.301	146.6
294.516	144.55
294.73	60.59
294.945	5.29
295.16	40.11
295.374	50.35
295.589	79.02
295.804	13.48
296.018	5.29
296.233	148.65
296.447	54.44
296.662	27.82
296.877	31.91
297.091	148.65
297.306	58.54
297.52	79.02
297.735	87.21
297.949	105.64
298.164	97.45
298.378	136.36
298.593	105.64
298.807	29.87
299.022	95.4
299.236	113.83
299.451	119.98
299.665	54.44
299.88	83.11
300.094	21.67
300.309	-9.05
300.523	111.78
300.737	29.87
300.952	103.59
301.166	21.67
301.381	50.35
301.595	115.88
301.809	29.87
302.024	-19.29
302.238	113.83
302.452	105.64
302.667	66.73
302.881	119.98
303.095	83.11
303.309	124.07
303.524	83.11
303.738	79.02
303.952	54.44
304.166	13.48
304.381	13.48
304.595	89.26
304.809	87.21
305.023	97.45
305.237	5.29
305.452	17.58
305.666	150.7
305.88	66.73
306.094	56.49
306.308	56.49
306.522	29.87
306.736	54.44
306.95	72.87
307.164	46.25
307.379	13.48
307.593	38.06
307.807	62.63
308.021	122.02
308.235	85.16
308.449	9.39
308.663	74.92
308.877	119.98
309.091	46.25
309.305	31.91
309.519	-9.05
309.733	31.91
309.947	21.67
310.161	76.97
310.374	95.4
310.588	150.7
310.802	5.29
311.016	79.02
311.23	97.45
311.444	66.73
311.658	-2.9
311.872	85.16
312.085	79.02
312.299	119.98
312.513	128.17
312.727	97.45
312.941	21.67
313.154	54.44
313.368	74.92
313.582	95.4
313.796	64.68
314.009	40.11
314.223	97.45
314.437	48.3
314.651	64.68
314.864	81.07
315.078	54.44
315.292	-11.09
315.505	62.63
315.719	29.87
315.933	72.87
316.146	46.25
316.36	21.67
316.573	115.88
316.787	109.74
317.001	111.78
317.214	-11.09
317.428	62.63
317.641	-17.24
317.855	95.4
318.068	124.07
318.282	62.63
318.495	160.94
318.709	27.82
318.922	117.93
319.136	58.54
319.349	68.78
319.563	21.67
319.776	99.5
319.99	50.35
320.203	162.98
320.417	58.54
320.63	89.26
320.843	201.9
321.057	40.11
321.27	119.98
321.483	33.96
321.697	152.74
321.91	54.44
322.124	48.3
322.337	29.87
322.55	-56.15
322.763	72.87
322.977	138.41
323.19	31.91
323.403	95.4
323.617	38.06
323.83	132.26
324.043	19.63
324.256	64.68
324.469	33.96
324.683	62.63
324.896	85.16
325.109	-17.24
325.322	54.44
325.535	29.87
325.748	89.26
325.962	7.34
326.175	19.63
326.388	64.68
326.601	107.69
326.814	126.12
327.027	79.02
327.24	99.5
327.453	85.16
327.666	136.36
327.879	23.72
328.092	119.98
328.305	50.35
328.518	70.83
328.731	119.98
328.944	7.34
329.157	64.68
329.37	48.3
329.583	124.07
329.796	105.64
330.009	-17.24
330.222	95.4
330.435	62.63
330.648	46.25
330.861	119.98
331.073	62.63
331.286	89.26
331.499	150.7
331.712	-52.05
331.925	21.67
332.138	50.35
332.35	113.83
332.563	13.48
332.776	95.4
332.989	31.91
333.202	95.4
333.414	154.79
333.627	48.3
333.84	17.58
334.053	40.11
334.265	38.06
334.478	29.87
334.691	46.25
334.903	7.34
335.116	44.2
335.329	66.73
335.541	66.73
335.754	119.98
335.966	62.63
336.179	56.49
336.392	64.68
336.604	95.4
336.817	21.67
337.029	46.25
337.242	79.02
337.454	31.91
337.667	19.63
337.88	132.26
338.092	46.25
338.305	56.49
338.517	119.98
338.729	95.4
338.942	177.32
339.154	25.77
339.367	38.06
339.579	83.11
339.792	25.77
340.004	62.63
340.217	64.68
340.429	79.02
340.641	52.39
340.854	107.69
341.066	66.73
341.278	105.64
341.491	87.21
341.703	48.3
341.915	46.25
342.128	97.45
342.34	5.29
342.552	66.73
342.764	105.64
342.977	70.83
343.189	105.64
343.401	115.88
343.613	72.87
343.826	103.59
344.038	64.68
344.25	31.91
344.462	68.78
344.674	54.44
344.886	29.87
345.099	95.4
345.311	87.21
345.523	42.15
345.735	15.53
345.947	97.45
346.159	101.55
346.371	113.83
346.583	122.02
346.795	160.94
347.007	72.87
347.219	87.21
347.431	93.35
347.643	128.17
347.855	48.3
348.067	113.83
348.279	68.78
348.491	58.54
348.703	183.46
348.915	113.83
349.127	107.69
349.339	62.63
349.551	83.11
349.763	48.3
349.975	46.25
350.187	87.21
350.399	124.07
350.61	111.78
350.822	79.02
351.034	56.49
351.246	70.83
351.458	130.22
351.669	54.44
351.881	119.98
352.093	85.16
352.305	72.87
352.517	68.78
352.728	111.78
352.94	64.68
353.152	87.21
353.363	50.35
353.575	79.02
353.787	148.65
353.999	124.07
354.21	154.79
354.422	46.25
354.633	64.68
354.845	109.74
355.057	48.3
355.268	62.63
355.48	187.56
355.692	42.15
355.903	62.63
356.115	72.87
356.326	38.06
356.538	103.59
356.749	87.21
356.961	218.28
357.172	-11.09
357.384	79.02
357.595	136.36
357.807	66.73
358.018	29.87
358.23	107.69
358.441	150.7
358.653	93.35
358.864	117.93
359.075	91.31
359.287	136.36
359.498	72.87
359.709	25.77
359.921	50.35
360.132	70.83
360.344	113.83
360.555	58.54
360.766	115.88
360.977	46.25
361.189	107.69
361.4	46.25
361.611	107.69
361.823	97.45
362.034	140.46
362.245	13.48
362.456	54.44
362.667	74.92
362.879	-11.09
363.09	97.45
363.301	152.74
363.512	62.63
363.723	91.31
363.935	79.02
364.146	81.07
364.357	148.65
364.568	62.63
364.779	54.44
364.99	97.45
365.201	52.39
365.412	122.02
365.623	140.46
365.834	210.09
366.045	152.74
366.256	146.6
366.467	128.17
366.678	58.54
366.889	111.78
367.1	21.67
367.311	113.83
367.522	111.78
367.733	130.22
367.944	142.5
368.155	95.4
368.366	140.46
368.577	91.31
368.788	48.3
368.999	70.83
369.209	148.65
369.42	138.41
369.631	138.41
369.842	187.56
370.053	148.65
370.264	68.78
370.474	-9.05
370.685	91.31
370.896	68.78
371.107	160.94
371.317	85.16
371.528	113.83
371.739	91.31
371.95	128.17
372.16	38.06
372.371	19.63
372.582	56.49
372.792	122.02
373.003	128.17
373.214	74.92
373.424	105.64
373.635	9.39
373.846	89.26
374.056	117.93
374.267	103.59
374.477	107.69
374.688	72.87
374.898	134.31
375.109	40.11
375.319	128.17
375.53	105.64
375.74	68.78
375.951	72.87
376.161	93.35
376.372	119.98
376.582	62.63
376.793	76.97
377.003	-25.43
377.214	109.74
377.424	79.02
377.635	17.58
377.845	128.17
378.055	99.5
378.266	42.15
378.476	38.06
378.686	38.06
378.897	91.31
379.107	72.87
379.317	79.02
379.528	87.21
379.738	85.16
379.948	103.59
380.158	138.41
380.369	38.06
380.579	99.5
380.789	66.73
380.999	128.17
381.21	144.55
381.42	171.18
381.63	93.35
381.84	99.5
382.05	81.07
382.261	111.78
382.471	160.94
382.681	56.49
382.891	103.59
383.101	152.74
383.311	95.4
383.521	113.83
383.731	128.17
383.941	130.22
384.151	79.02
384.361	130.22
384.571	46.25
384.781	124.07
384.991	138.41
385.201	103.59
385.411	58.54
385.621	72.87
385.831	109.74
386.041	124.07
386.251	97.45
386.461	195.75
386.671	107.69
386.881	79.02
387.091	97.45
387.301	105.64
387.511	60.59
387.72	107.69
387.93	62.63
388.14	87.21
388.35	132.26
388.56	70.83
388.769	103.59
388.979	95.4
389.189	81.07
389.399	19.63
389.609	99.5
389.818	122.02
390.028	70.83
390.238	115.88
390.447	42.15
390.657	130.22
390.867	124.07
391.076	58.54
391.286	91.31
391.496	128.17
391.705	119.98
391.915	210.09
392.125	105.64
392.334	81.07
392.544	160.94
392.753	111.78
392.963	136.36
393.172	162.98
393.382	79.02
393.591	109.74
393.801	42.15
394.01	138.41
394.22	91.31
394.429	46.25
394.639	46.25
394.848	128.17
395.058	79.02
395.267	64.68
395.477	216.23
395.686	160.94
395.895	210.09
396.105	193.7
396.314	95.4
396.524	99.5
396.733	152.74
396.942	160.94
397.152	144.55
397.361	162.98
397.57	140.46
397.78	175.27
397.989	103.59
398.198	156.84
398.407	144.55
398.617	146.6
398.826	158.89
399.035	54.44
399.244	87.21
399.453	111.78
399.663	181.42
399.872	74.92
400.081	122.02
400.29	142.5
400.499	146.6
400.708	216.23
400.917	107.69
401.127	201.9
401.336	154.79
401.545	154.79
401.754	173.22
401.963	259.24
402.172	173.22
402.381	105.64
402.59	199.85
402.799	169.13
403.008	179.37
403.217	171.18
403.426	167.08
403.635	154.79
403.844	185.51
404.053	130.22
404.262	179.37
404.471	251.05
404.68	208.04
404.888	171.18
405.097	208.04
405.306	205.99
405.515	277.67
405.724	179.37
405.933	316.58
406.142	222.38
406.35	296.1
406.559	232.62
406.768	234.66
406.977	265.38
407.185	224.42
407.394	304.29
407.603	261.29
407.812	386.21
408.02	375.97
408.229	302.25
408.438	316.58
408.646	267.43
408.855	300.2
409.064	435.36
409.272	390.31
409.481	373.92
409.69	361.64
409.898	367.78
410.107	392.36
410.315	406.69
410.524	435.36
410.733	427.17
410.941	394.4
411.15	545.95
411.358	488.61
411.567	566.43
411.775	572.58
411.984	535.71
412.192	435.36
412.401	541.86
412.609	523.43
412.818	582.82
413.026	636.06
413.234	677.02
413.443	623.78
413.651	595.11
413.86	644.26
414.068	722.08
414.276	767.13
414.485	769.18
414.693	769.18
414.901	832.67
415.11	799.9
415.318	875.68
415.526	832.67
415.734	943.26
415.943	1021.08
416.151	885.92
416.359	1004.7
416.567	1012.89
416.776	1039.51
416.984	1119.39
417.192	1092.76
417.4	1170.58
417.608	998.56
417.817	1170.58
418.025	1313.94
418.233	1447.06
418.441	1324.18
418.649	1332.37
418.857	1471.64
419.065	1537.17
419.273	1422.48
419.481	1533.08
419.689	1516.69
419.897	1727.63
420.105	1735.82
420.313	1776.78
420.521	1838.22
420.729	1922.19
420.937	1899.66
421.145	2086.03
421.353	2057.36
421.561	2260.1
421.769	2172.04
421.977	2292.87
422.185	2165.9
422.393	2442.37
422.601	2565.25
422.809	2550.92
423.017	2563.2
423.224	2577.54
423.432	2712.71
423.64	2802.82
423.848	2974.85
424.056	2987.13
424.263	3181.69
424.471	3150.97
424.679	3241.08
424.887	3339.38
425.094	3519.6
425.302	3554.42
425.51	3626.1
425.718	3820.66
425.925	3658.87
426.133	4037.74
426.341	4070.51
426.548	4371.56
426.756	4277.35
426.964	4365.42
427.171	4723.81
427.379	4654.18
427.586	4818.02
427.794	4996.19
428.001	5067.87
428.209	5526.61
428.417	5258.33
428.624	5751.89
428.832	5794.9
429.039	5645.4
429.247	5643.35
429.454	6304.84
429.662	6671.43
429.869	6141
430.076	6681.67
430.284	6321.23
430.491	6581.32
430.699	7113.79
430.906	7099.45
431.114	7263.29
431.321	7603.25
431.528	7527.48
431.736	8092.72
431.943	8348.72
432.15	8148.01
432.358	8199.21
432.565	8447.02
432.772	8621.1
432.979	9176.09
433.187	9040.93
433.394	9290.78
433.601	9849.88
433.808	10152.98
434.016	9939.99
434.223	10257.42
434.43	10884.1
434.637	10595.34
434.844	11197.44
435.052	11559.93
435.259	11367.42
435.466	11752.44
435.673	11576.31
435.88	12260.34
436.087	12499.95
436.294	12837.86
436.501	12604.39
436.708	12837.86
436.915	13097.95
437.122	13992.92
437.329	13786.07
437.537	14302.16
437.743	14384.08
437.95	14347.22
438.157	15064
438.364	15446.97
438.571	15567.81
438.778	15549.37
438.985	16851.88
439.192	15995.83
439.399	16757.67
439.606	16436.14
439.813	17925.02
440.02	18459.54
440.227	18070.42
440.433	17978.26
440.64	18682.77
440.847	18545.55
441.054	18881.42
441.261	20157.3
441.467	19766.14
441.674	20663.15
441.881	21013.35
442.088	20874.09
442.294	20853.61
442.501	21142.38
442.708	21705.57
442.914	22582.1
443.121	23350.09
443.328	22889.29
443.534	24281.91
443.741	23538.5
443.948	23341.89
444.154	25129.77
444.361	24884.01
444.568	25068.33
444.774	24879.92
444.981	25465.64
445.187	26112.8
445.394	27388.68
445.6	26792.72
445.807	29393.64
446.013	28093.18
446.22	28633.85
446.426	29672.17
446.633	30055.14
446.839	30816.98
447.046	29645.54
447.252	31390.41
447.459	31412.94
447.665	31277.77
447.871	33032.88
448.078	33995.43
448.284	32400.06
448.491	33422
448.697	34542.24
448.903	35259.02
449.11	35506.83
449.316	34749.08
449.522	35474.06
449.728	36264.58
449.935	36498.05
450.141	37171.83
450.347	37089.91
450.553	36252.29
450.76	36954.74
450.966	37702.25
451.172	37538.41
451.378	38568.54
451.584	37923.43
451.791	38685.28
451.997	38220.39
452.203	39170.64
452.409	39023.19
452.615	38931.03
452.821	37667.44
453.027	37208.69
453.233	39027.29
453.44	37485.17
453.646	37900.9
453.852	38003.3
454.058	38836.83
454.264	37317.23
454.47	38470.24
454.676	37104.24
454.882	38627.93
455.088	35285.65
455.294	35859.08
455.5	36674.17
455.705	36455.04
455.911	35431.05
456.117	35076.76
456.323	34411.17
456.529	32412.35
456.735	33804.97
456.941	33166
457.147	32348.86
457.352	31378.12
457.558	30835.41
457.764	31027.92
457.97	30464.73
458.176	29850.34
458.381	29473.51
458.587	28277.5
458.793	28570.36
458.999	27015.95
459.204	28707.57
459.41	28254.97
459.616	26299.16
459.821	26106.65
460.027	25910.05
460.233	25903.9
460.438	24386.36
460.644	24845.1
460.85	23483.2
461.055	22983.5
461.261	22905.68
461.466	21607.26
461.672	20614
461.878	22203.22
462.083	20808.56
462.289	20255.61
462.494	20085.62
462.7	19311.49
462.905	18822.03
463.111	19362.69
463.316	19620.74
463.522	18895.75
463.727	18811.79
463.932	18996.1
464.138	18641.81
464.343	18662.29
464.549	18146.2
464.754	18703.25
464.959	18768.78
465.165	18457.49
465.37	17857.43
465.575	17312.67
465.781	18008.98
465.986	18041.75
466.191	17429.41
466.397	17036.2
466.602	16155.57
466.807	16792.49
467.012	16954.28
467.218	16591.79
467.423	16511.92
467.628	16495.53
467.833	17042.34
468.038	16337.84
468.244	16163.76
468.449	16567.21
468.654	16262.07
468.859	16012.21
469.064	15897.53
469.269	15406.02
469.474	15119.3
469.679	15795.13
469.885	15199.17
470.09	15389.63
470.295	15193.03
470.5	15195.07
470.705	15184.83
470.91	14713.8
471.115	14771.15
471.32	14934.98
471.525	14787.53
471.73	14361.55
471.935	14148.56
472.139	13788.12
472.344	13812.7
472.549	13857.75
472.754	13695.96
472.959	13575.13
473.164	13200.35
473.369	13040.61
473.574	13474.78
473.778	13419.49
473.983	13282.27
474.188	12970.98
474.393	12747.75
474.598	12813.29
474.802	12604.39
475.007	12391.41
475.212	12702.7
475.417	12016.63
475.621	12010.48
475.826	12063.73
476.031	11731.96
476.235	11598.84
476.44	11707.38
476.645	11484.16
476.849	11721.72
477.054	11564.03
477.259	11260.93
477.463	11445.24
477.668	10910.72
477.872	11222.02
478.077	10863.62
478.282	10701.83
478.486	10671.11
478.691	10384.4
478.895	10372.11
479.1	10230.8
479.304	10472.46
479.509	10165.26
479.713	10294.29
479.918	10107.92
480.122	9960.47
480.326	10048.53
480.531	9952.27
480.735	9989.14
480.94	9847.83
481.144	10099.73
481.348	9739.29
481.553	9845.78
481.757	9665.56
481.961	9727
482.166	9939.99
482.37	9749.53
482.574	9503.77
482.778	9700.37
482.983	9835.54
483.187	9669.66
483.391	9716.76
483.595	9763.86
483.8	9544.73
484.004	9694.23
484.208	9737.24
484.412	9706.52
484.616	9794.58
484.821	9716.76
485.025	9493.53
485.229	9679.89
485.433	9675.8
485.637	9503.77
485.841	9352.22
486.045	9516.06
486.249	9624.6
486.453	9450.52
486.657	9675.8
486.861	9657.37
487.065	9456.67
487.269	9661.46
487.473	9417.75
487.677	9645.08
487.881	9671.7
488.085	9450.52
488.289	9759.77
488.493	9589.78
488.697	9745.43
488.901	9552.92
489.105	9536.54
489.309	9616.41
489.512	9485.34
489.716	9663.51
489.92	9630.74
490.124	9526.3
490.328	9788.44
490.531	9720.85
490.735	9845.78
490.939	9757.72
491.143	9915.41
491.346	9649.18
491.55	9933.84
491.754	9802.77
491.958	10040.34
492.161	9956.37
492.365	9999.38
492.569	9960.47
492.772	10138.64
492.976	9968.66
493.18	10159.12
493.383	10103.82
493.587	10294.29
493.79	10171.41
493.994	10148.88
494.197	10427.4
494.401	10433.55
494.605	10460.17
494.808	10621.96
495.012	10527.75
495.215	10849.29
495.419	10677.26
495.622	10632.2
495.825	10880
496.029	10916.87
496.232	11154.43
496.436	11047.94
496.639	11301.89
496.843	11097.09
497.046	11453.44
497.249	11160.58
497.453	11465.72
497.656	11762.68
497.859	11828.21
498.063	11647.99
498.266	12297.2
498.469	12176.37
498.673	12139.51
498.876	12399.6
499.079	12194.8
499.282	12432.36
499.485	12895.21
499.689	12706.79
499.892	12999.65
500.095	12891.11
500.298	13302.75
500.501	13188.07
500.705	13405.15
500.908	13597.66
501.111	13497.31
501.314	13798.36
501.517	13925.33
501.72	14189.52
501.923	14005.2
502.126	14226.39
502.329	14660.55
502.532	14619.6
502.735	14644.17
502.938	14992.33
503.141	15115.2
503.344	15086.53
503.547	15317.95
503.75	15573.95
503.953	15758.27
504.156	15995.83
504.359	16100.28
504.562	15985.59
504.765	16534.45
504.968	16378.8
505.17	16671.66
505.373	16708.52
505.576	17114.02
505.779	17159.08
505.982	17208.23
506.185	17312.67
506.387	17734.56
506.59	17908.63
506.793	18123.67
506.996	18250.64
507.198	18576.27
507.401	18361.23
507.604	18637.71
507.807	19137.41
508.009	19039.11
508.212	19221.38
508.415	19477.38
508.617	19653.5
508.82	19903.35
509.022	19919.74
509.225	20202.36
509.428	20642.67
509.63	20192.12
509.833	20558.7
510.035	21160.81
510.238	21357.41
510.44	21287.78
510.643	21666.66
510.845	21795.68
511.048	21621.6
511.25	22340.44
511.453	22244.18
511.655	23028.56
511.858	22825.81
512.06	23028.56
512.262	23288.65
512.465	23124.81
512.667	23501.64
512.87	23833.41
513.072	23655.23
513.274	24302.39
513.477	24175.42
513.679	24697.65
513.881	24646.45
514.084	24945.45
514.286	25191.21
514.488	25367.34
514.69	25832.22
514.893	25609
515.095	25838.37
515.297	26174.24
515.499	26315.55
515.701	26360.6
515.904	26759.95
516.106	27173.64
516.308	27233.04
516.51	27556.61
516.712	27626.25
516.914	27970.3
517.116	28019.46
517.318	28234.49
517.52	28291.83
517.722	28431.1
517.925	28850.93
518.127	29442.79
518.329	29369.07
518.531	29436.65
518.733	29833.96
518.935	30003.94
519.136	30145.25
519.338	30438.11
519.54	30634.71
519.742	30706.39
519.944	30917.33
520.146	31560.39
520.348	31630.02
520.55	31740.61
520.752	31666.89
520.954	32164.54
521.155	31711.94
521.357	32268.99
521.559	32228.03
521.761	32817.85
521.963	32506.55
522.164	32797.37
522.366	33039.03
522.568	33508.01
522.77	33221.3
522.971	33557.16
523.173	33389.23
523.375	33897.13
523.576	33518.25
523.778	33788.58
523.98	34450.08
524.181	34138.79
524.383	34028.2
524.584	34525.85
524.786	34597.53
524.988	34478.75
525.189	35230.35
525.391	35156.63
525.592	35011.22
525.794	35164.82
525.995	35267.22
526.197	35394.19
526.398	35314.32
526.6	35426.96
526.801	35766.92
527.003	35404.43
527.204	35676.81
527.406	35713.67
527.607	35994.25
527.808	35824.26
528.01	35494.54
528.211	35537.55
528.412	36477.57
528.614	36113.03
528.815	35953.29
529.016	36618.88
529.218	36153.99
529.419	36061.83
529.62	36061.83
529.822	35619.47
530.023	36086.4
530.224	36199.04
530.425	36178.56
530.626	36170.37
530.828	35658.38
531.029	36512.38
531.23	35955.33
531.431	36055.68
531.632	36098.69
531.833	36067.97
532.035	36336.26
532.236	36108.93
532.437	36412.03
532.638	35801.74
532.839	35975.81
533.04	36381.31
533.241	35961.48
533.442	36270.72
533.643	36188.8
533.844	36190.85
534.045	36289.15
534.246	35545.74
534.447	35811.98
534.648	36004.49
534.849	36272.77
535.05	35877.51
535.251	35791.5
535.451	35689.1
535.652	35783.3
535.853	35795.59
536.054	35648.14
536.255	35791.5
536.456	35082.9
536.657	35897.99
536.857	35500.68
537.058	35351.18
537.259	35762.82
537.46	35570.32
537.66	35467.92
537.861	35465.87
538.062	35617.42
538.263	35250.83
538.463	35134.1
538.664	35660.43
538.865	35283.6
539.065	35580.56
539.266	35046.04
539.466	35572.36
539.667	34863.77
539.868	35443.34
540.068	35146.39
540.269	35152.53
540.469	35486.35
540.67	34996.88
540.87	34984.6
541.071	35105.43
541.271	34900.63
541.472	35234.45
541.672	34843.29
541.873	35093.14
542.073	34134.69
542.274	35271.31
542.474	35105.43
542.675	34400.93
542.875	35254.93
543.075	34978.45
543.276	34595.48
543.476	35019.41
543.676	34841.24
543.877	34921.11
544.077	34984.6
544.277	34951.83
544.478	34890.39
544.678	34962.07
544.878	34962.07
545.078	34935.45
545.279	34407.07
545.479	34552.48
545.679	34673.31
545.879	34749.08
546.079	34812.57
546.28	34517.66
546.48	34638.49
546.68	34941.59
546.88	34673.31
547.08	34720.41
547.28	34632.35
547.48	34294.43
547.68	34882.2
547.88	34521.76
548.081	34515.61
548.281	34611.87
548.481	34663.07
548.681	34847.38
548.881	34910.87
549.081	34757.27
549.28	34380.45
549.48	34689.69
549.68	34439.84
549.88	35158.67
550.08	34591.39
550.28	34775.7
550.48	34720.41
550.68	34718.36
550.88	34480.8
551.08	34466.46
551.279	34951.83
551.479	34480.8
551.679	34568.86
551.879	34603.67
552.079	34652.83
552.278	34505.37
552.478	34808.47
552.678	34595.48
552.878	34732.7
553.077	34759.32
553.277	34472.6
553.477	34974.36
553.676	34839.19
553.876	34599.58
554.076	34986.64
554.275	34792.09
554.475	34511.52
554.674	35041.94
554.874	34945.69
555.074	34632.35
555.273	34613.91
555.473	35058.32
555.672	35013.27
555.872	35023.51
556.071	34759.32
556.271	34933.4
556.47	34763.42
556.67	34609.82
556.869	34630.3
557.068	34859.67
557.268	34681.5
557.467	34493.08
557.667	34503.32
557.866	34654.87
558.065	34937.49
558.265	34824.86
558.464	34513.56
558.663	35039.89
558.863	34177.7
559.062	34978.45
559.261	34181.79
559.461	35218.07
559.66	34411.17
559.859	34783.9
560.058	34466.46
560.258	34876.05
560.457	34566.81
560.656	34785.94
560.855	34755.22
561.054	35078.8
561.253	34509.47
561.453	34972.31
561.652	34710.17
561.851	34964.12
562.05	34347.68
562.249	34630.3
562.448	35390.09
562.647	34976.4
562.846	34390.69
563.045	34572.96
563.244	34345.63
563.443	34923.16
563.642	34276
563.841	34712.22
564.04	34398.88
564.239	34599.58
564.438	34499.23
564.637	34650.78
564.836	34357.92
565.035	34253.47
565.234	34638.49
565.432	34030.24
565.631	34230.94
565.83	34153.12
566.029	34228.9
566.228	34310.82
566.427	33950.37
566.625	34079.39
566.824	33690.28
567.023	34116.26
567.222	33256.11
567.42	34243.23
567.619	33817.25
567.818	33589.93
568.016	33776.3
568.215	33893.03
568.414	33974.95
568.612	33745.58
568.811	33710.76
569.01	33342.13
569.208	33213.1
569.407	33579.69
569.605	33129.14
569.804	33608.36
570.002	33299.12
570.201	33280.69
570.4	33122.99
570.598	33057.46
570.797	32744.12
570.995	32930.48
571.193	32432.83
571.392	32930.48
571.59	32957.11
571.789	32522.94
571.987	32647.86
572.186	32410.3
572.384	32248.51
572.582	32770.74
572.781	32709.3
572.979	32381.63
573.177	32293.57
573.376	32207.55
573.574	31969.99
573.772	31939.27
573.971	32043.71
574.169	31660.74
574.367	31468.23
574.565	31912.64
574.763	31552.2
574.962	31541.96
575.16	31314.64
575.358	31523.53
575.556	31228.62
575.754	31779.53
575.952	31175.37
576.151	31531.72
576.349	30530.26
576.547	31042.26
576.745	31062.74
576.943	30737.11
577.141	30792.4
577.339	30794.45
577.537	30989.01
577.735	30401.24
577.933	30384.86
578.131	30872.28
578.329	30485.21
578.527	30274.27
578.725	30556.89
578.923	30415.58
579.121	30184.16
579.319	30386.91
579.516	30284.51
579.714	30223.07
579.912	29895.39
580.11	29702.89
580.308	30022.37
580.506	29760.23
580.704	29078.25
580.901	29504.23
581.099	29770.47
581.297	29364.97
581.495	29481.7
581.692	29043.44
581.89	28869.36
582.088	29463.27
582.285	29145.84
582.483	29080.3
582.681	29010.67
582.878	28799.73
583.076	28797.68
583.274	29131.5
583.471	28353.27
583.669	28807.92
583.866	28441.34
584.064	28519.16
584.262	28513.02
584.459	28599.03
584.657	28070.65
584.854	28695.28
585.052	28097.28
585.249	28291.83
585.447	28226.3
585.644	27634.44
585.841	28044.03
586.039	28017.41
586.236	27443.98
586.434	27826.95
586.631	27589.38
586.828	27591.43
587.026	27839.23
587.223	27845.38
587.42	27267.85
587.618	27636.48
587.815	27357.96
588.012	27286.28
588.21	27042.57
588.407	27443.98
588.604	26872.59
588.801	27065.1
588.999	27026.19
589.196	27001.61
589.393	27048.72
589.59	26802.96
589.787	26696.47
589.984	26407.7
590.182	26538.77
590.379	26680.08
590.576	26647.32
590.773	26651.41
590.97	26166.04
591.167	26544.92
591.364	26039.07
591.561	26153.76
591.758	26262.3
591.955	26370.84
592.152	26282.78
592.349	25899.81
592.546	26196.76
592.743	25772.83
592.94	25641.76
593.137	25994.01
593.334	25844.51
593.531	25289.51
593.727	25611.04
593.924	25549.6
594.121	25826.08
594.318	25639.72
594.515	25264.94
594.712	25531.17
594.908	25066.28
595.105	25549.6
595.302	25146.15
595.499	25230.12
595.696	25551.65
595.892	25189.16
596.089	25240.36
596.286	25264.94
596.482	24869.68
596.679	24908.59
596.876	25256.75
597.072	24920.88
597.269	25107.24
597.466	24576.82
597.662	24757.04
597.859	24765.23
598.055	24521.52
598.252	24662.83
598.448	24955.69
598.645	24513.33
598.841	24421.17
599.038	24759.09
599.234	24464.18
599.431	24335.16
599.627	24490.8
599.824	24724.27
600.02	24439.61
600.217	24423.22
600.413	24703.79
600.609	24421.17
600.806	24275.77
601.002	24431.41
601.198	24163.13
601.395	24443.7
601.591	24386.36
601.787	24525.62
601.984	24556.34
602.18	24441.65
602.376	24566.58
602.572	24611.64
602.769	24472.37
602.965	24363.83
603.161	24197.95
603.357	24343.35
603.553	24279.86
603.75	24300.34
603.946	23913.28
604.142	24568.63
604.338	24038.2
604.534	24437.56
604.73	24265.53
604.926	24363.83
605.122	24318.78
605.318	24144.7
605.514	24138.55
605.71	24001.34
605.906	24519.48
606.102	24294.2
606.298	24245.05
606.494	24609.59
606.69	24548.15
606.886	24449.85
607.082	24030.01
607.278	24587.06
607.474	24218.43
607.67	24390.45
607.866	24101.69
608.062	24130.36
608.257	24042.3
608.453	24292.15
608.649	24685.36
608.845	24169.27
609.041	24212.28
609.236	24396.6
609.432	24339.26
609.628	24392.5
609.824	24527.67
610.019	24249.14
610.215	24267.58
610.411	24335.16
610.606	24107.83
610.802	24779.57
610.998	24455.99
611.193	24367.93
611.389	24230.71
611.584	24476.47
611.78	24376.12
611.976	24472.37
612.171	24396.6
612.367	24703.79
612.562	24453.94
612.758	24415.03
612.953	24312.63
613.149	24648.5
613.344	24337.21
613.539	24625.97
613.735	24634.16
613.93	24552.24
614.126	24501.04
614.321	24709.94
614.517	24638.26
614.712	24480.57
614.907	24539.96
615.103	24699.7
615.298	24443.7
615.493	24785.71
615.688	24322.87
615.884	25017.13
616.079	24388.41
616.274	24918.83
616.47	24486.71
616.665	24439.61
616.86	24494.9
617.055	24312.63
617.25	24320.82
617.445	24607.54
617.641	24003.39
617.836	24226.62
618.031	24099.64
618.226	24175.42
618.421	24068.92
618.616	24339.26
618.811	23903.04
619.006	24546.1
619.201	23935.81
619.396	24105.79
619.591	23608.13
619.786	23941.95
619.981	23581.51
620.176	23866.17
620.371	23532.36
620.566	23667.52
620.761	23528.26
620.956	23384.9
621.151	23176.01
621.346	23329.61
621.541	22913.87
621.735	23341.89
621.93	23010.12
622.125	22827.85
622.32	22690.64
622.515	22967.12
622.709	22592.34
622.904	22592.34
623.099	22629.2
623.294	22670.16
623.488	22145.88
623.683	22408.02
623.878	21928.8
624.072	22088.54
624.267	22137.69
624.462	21719.9
624.656	21660.51
624.851	21779.29
625.046	21750.62
625.24	21551.97
625.435	21062.51
625.629	21439.33
625.824	21193.58
626.018	21162.86
626.213	20702.06
626.407	21001.07
626.602	20532.08
626.796	20673.39
626.991	20484.98
627.185	20671.34
627.38	20206.45
627.574	20345.72
627.768	20378.48
627.963	19946.36
628.157	20042.62
628.352	19958.65
628.546	19843.96
628.74	19938.17
628.935	19479.43
629.129	19538.82
629.323	19657.6
629.517	19354.5
629.712	19432.32
629.906	19051.4
630.1	18965.39
630.294	19164.04
630.489	18881.42
630.683	18725.77
630.877	18625.42
631.071	18742.16
631.265	18545.55
631.459	18236.31
631.653	18512.78
631.848	18394
632.042	18217.88
632.236	18422.67
632.43	17890.2
632.624	18131.86
632.818	17830.81
633.012	17947.54
633.206	17736.6
633.4	17929.11
633.594	17550.24
633.788	17570.72
633.982	17572.77
634.176	17306.53
634.369	17372.07
634.563	17028.01
634.757	17136.55
634.951	17146.79
635.145	16962.47
635.339	17025.96
635.533	16393.14
635.726	16544.69
635.92	16495.53
636.114	16354.23
636.308	16278.45
636.501	16487.34
636.695	16241.59
636.889	15754.17
637.083	15737.79
637.276	15670.2
637.47	15729.59
637.664	15836.09
637.857	15645.63
638.051	15469.5
638.244	15309.76
638.438	15424.45
638.632	15371.2
638.825	15197.12
639.019	15068.1
639.212	15147.97
639.406	15127.49
639.599	14867.4
639.793	14881.74
639.986	14597.07
640.18	14533.58
640.373	14633.93
640.567	14463.95
640.76	14584.78
640.954	14322.64
641.147	14365.65
641.34	14162.9
641.534	14119.89
641.727	14017.49
641.92	13763.54
642.114	13820.89
642.307	13900.76
642.5	13601.76
642.694	13456.35
642.887	13536.22
643.08	13542.36
643.273	13353.95
643.467	13517.79
643.66	13130.72
643.853	13243.36
644.046	13100
644.239	13022.18
644.432	12889.06
644.626	12846.05
644.819	12581.87
645.012	12717.03
645.205	12585.96
645.398	12588.01
645.591	12379.12
645.784	12286.96
645.977	12170.22
646.17	12354.54
646.363	12104.69
646.556	12006.39
646.749	12098.55
646.942	12016.63
647.135	11858.93
647.328	11940.85
647.521	11860.98
647.714	11729.91
647.907	11731.96
648.099	11584.51
648.292	11594.75
648.485	11508.73
648.678	11367.42
648.871	11387.9
649.064	11328.51
649.256	11324.41
649.449	11140.1
649.642	11019.27
649.835	10951.68
650.027	11140.1
650.22	11027.46
650.413	10945.54
650.605	10947.59
650.798	10693.64
650.991	10593.29
651.183	10793.99
651.376	10542.09
651.568	10607.62
651.761	10294.29
651.954	10404.88
652.146	10345.48
652.339	10339.34
652.531	10216.46
652.724	10058.77
652.916	10001.43
653.109	10073.1
653.301	10069.01
653.494	10056.72
653.686	9829.4
653.879	9925.65
654.071	9708.57
654.263	9714.71
654.456	9774.1
654.648	9853.97
654.84	9430.04
655.033	9448.47
655.225	9481.24
655.417	9389.08
655.61	9608.22
655.802	9212.96
655.994	9172
656.186	9239.58
656.379	9225.25
656.571	9251.87
656.763	9090.08
656.955	8983.59
657.148	9131.04
657.34	8854.56
657.532	8932.39
657.724	8764.45
657.916	8846.37
658.108	8797.22
658.3	8633.38
658.492	8823.84
658.684	8418.35
658.876	8797.22
659.068	8299.56
659.26	8348.72
659.452	8254.51
659.644	8469.55
659.836	8320.04
660.028	8404.01
660.22	8098.86
660.412	8240.17
660.604	8162.35
660.796	8004.66
660.988	8148.01
661.18	7998.51
661.372	7818.29
661.563	7949.36
661.755	7783.48
661.947	7869.49
662.139	7789.62
662.331	7846.96
662.522	7619.64
662.714	7691.32
662.906	7722.04
663.097	7728.18
663.289	7590.97
663.481	7427.13
663.673	7507
663.864	7427.13
664.056	7451.7
664.247	7324.73
664.439	7455.8
664.631	7185.47
664.822	7330.87
665.014	7087.17
665.205	7097.41
665.397	7083.07
665.588	7175.23
665.78	7205.95
665.971	6853.7
666.163	6999.1
666.354	7099.45
666.546	6732.87
666.737	6779.97
666.929	6779.97
667.12	6812.74
667.311	6763.59
667.503	6708.29
667.694	6661.19
667.885	6769.73
668.077	6601.8
668.268	6632.52
668.459	6589.51
668.651	6601.8
668.842	6569.03
669.033	6476.87
669.224	6505.54
669.416	6532.17
669.607	6464.58
669.798	6571.08
669.989	6198.35
670.18	6196.3
670.371	6243.4
670.563	6313.03
670.754	6356.04
670.945	6290.51
671.136	6253.64
671.327	6259.79
671.518	6325.32
671.709	6263.88
671.9	6206.54
672.091	5979.22
672.282	6028.37
672.473	6061.13
672.664	6132.81
672.855	5889.1
673.046	5919.82
673.237	6018.13
673.428	5829.71
673.619	6095.95
673.809	5946.45
674	5979.22
674.191	5952.59
674.382	5874.77
674.573	5821.52
674.764	5862.48
674.954	5848.15
675.145	5729.36
675.336	5817.43
675.527	5747.79
675.717	5710.93
675.908	5706.84
676.099	5813.33
676.289	5655.64
676.48	5749.84
676.671	5743.7
676.861	5631.06
677.052	5592.15
677.243	5631.06
677.433	5586.01
677.624	5725.27
677.814	5399.64
678.005	5614.68
678.195	5575.77
678.386	5571.67
678.576	5477.46
678.767	5553.24
678.957	5553.24
679.148	5530.71
679.338	5553.24
679.529	5489.75
679.719	5327.96
679.909	5489.75
680.1	5489.75
680.29	5616.72
680.481	5571.67
680.671	5526.61
680.861	5567.57
681.052	5391.45
681.242	5485.65
681.432	5465.18
681.622	5436.5
681.813	5409.88
682.003	5352.54
682.193	5309.53
682.383	5448.79
682.573	5260.38
682.764	5219.42
682.954	5389.4
683.144	5360.73
683.334	5237.85
683.524	5325.91
683.714	5330.01
683.904	5301.34
684.094	5276.76
684.284	5217.37
684.474	5293.15
684.664	5166.17
684.854	5151.84
685.044	5207.13
685.234	5174.36
685.424	5166.17
685.614	5078.11
685.804	5035.1
685.994	5149.79
686.184	5190.75
686.374	5106.78
686.564	5100.64
686.753	5190.75
686.943	5170.27
687.133	5133.4
687.323	4965.47
687.513	4977.76
687.702	4990.05
687.892	5110.88
688.082	4904.03
688.272	5028.96
688.461	4824.16
688.651	4904.03
688.841	5024.86
689.03	4910.18
689.22	4897.89
689.41	4881.5
689.599	4867.17
689.789	4889.7
689.979	4742.24
690.168	4856.93
690.358	4775.01
690.547	4996.19
690.737	4824.16
690.926	4861.02
691.116	4748.39
691.305	4764.77
691.495	4582.5
691.684	4725.86
691.874	4602.98
692.063	4813.92
692.252	4742.24
692.442	4586.6
692.631	4514.92
692.82	4582.5
693.01	4619.36
693.199	4568.16
693.388	4654.18
693.578	4602.98
693.767	4578.4
693.956	4461.67
694.146	4519.01
694.335	4510.82
694.524	4547.69
694.713	4576.36
694.902	4506.73
695.092	4441.19
695.281	4322.41
695.47	4469.86
695.659	4349.03
695.848	4256.87
696.037	4412.52
696.226	4480.1
696.415	4412.52
696.604	4342.89
696.793	4224.11
696.982	4205.67
697.171	4283.5
697.36	4377.7
697.549	4140.14
697.738	4142.19
697.927	4228.2
698.116	4447.33
698.305	4179.05
698.494	4191.34
698.683	4244.59
698.872	4355.18
699.061	4205.67
699.25	4226.15
699.438	4134
699.627	4088.94
699.816	4172.91
700.005	4099.18
700.193	3961.97
700.382	4226.15
700.571	4129.9
700.76	4162.67
700.948	4037.74
701.137	4105.32
701.326	4064.36
701.514	4054.12
701.703	3970.16
701.892	3959.92
702.08	3994.73
702.269	3855.47
702.457	4031.6
702.646	4002.93
702.834	3837.04
703.023	3955.82
703.212	3927.15
703.4	3900.53
703.589	3843.18
703.777	4047.98
703.965	3732.59
704.154	3859.57
704.342	3839.09
704.531	3855.47
704.719	3834.99
704.907	3884.14
705.096	3767.41
705.284	3855.47
705.472	3808.37
705.661	3822.7
705.849	3695.73
706.037	3853.42
706.226	3816.56
706.414	3796.08
706.602	3669.11
706.79	3871.86
706.979	3646.58
707.167	3695.73
707.355	3607.67
707.543	3628.15
707.731	3697.78
707.919	3705.97
708.107	3677.3
708.296	3562.61
708.484	3456.12
708.672	3703.92
708.86	3630.2
709.048	3445.88
709.236	3458.17
709.424	3529.84
709.612	3527.8
709.8	3517.56
709.988	3456.12
710.176	3538.04
710.364	3585.14
710.551	3503.22
710.739	3351.67
710.927	3359.86
711.115	3421.3
711.303	3384.44
711.491	3419.25
711.679	3406.97
711.866	3462.26
712.054	3437.69
712.242	3406.97
712.43	3413.11
712.617	3298.42
712.805	3357.82
712.993	3331.19
713.181	3314.81
713.368	3474.55
713.556	3310.71
713.744	3114.11
713.931	3409.01
714.119	3318.9
714.306	3333.24
714.494	3306.62
714.682	3222.65
714.869	3210.36
715.057	3191.93
715.244	3052.67
715.432	3245.18
715.619	3155.07
715.807	3196.03
715.994	3189.88
716.182	3048.57
716.369	3056.76
716.556	3310.71
716.744	3032.19
716.931	2921.6
717.119	3144.83
717.306	3060.86
717.493	3191.93
717.681	3046.52
717.868	3163.26
718.055	3011.71
718.242	2983.04
718.43	2972.8
718.617	2993.28
718.804	3032.19
718.991	3011.71
719.179	3024
719.366	3003.52
719.553	2952.32
719.74	2890.88
719.927	2847.87
720.114	2921.6
720.301	2858.11
720.488	2782.34
720.676	2868.35
720.863	2890.88
721.05	2843.78
721.237	2899.07
721.424	2823.3
721.611	2849.92
721.798	2790.53
721.985	2718.85
722.172	2735.23
722.358	2757.76
722.545	2811.01
722.732	2905.21
722.919	2772.1
723.106	2770.05
723.293	2772.1
723.48	2815.1
723.667	2782.34
723.853	2688.13
724.04	2782.34
724.227	2745.47
724.414	2751.62
724.6	2622.59
724.787	2618.5
724.974	2718.85
725.161	2643.07
725.347	2585.73
725.534	2579.59
725.72	2700.42
725.907	2632.83
726.094	2618.5
726.28	2589.83
726.467	2602.11
726.653	2675.84
726.84	2704.51
727.027	2628.74
727.213	2604.16
727.4	2610.31
727.586	2540.68
727.773	2585.73
727.959	2575.49
728.145	2593.92
728.332	2534.53
728.518	2536.58
728.705	2544.77
728.891	2489.48
729.077	2552.96
729.264	2505.86
729.45	2585.73
729.636	2585.73
729.823	2460.81
730.009	2528.39
730.195	2475.14
730.382	2512
730.568	2434.18
730.754	2473.09
730.94	2391.17
731.126	2528.39
731.313	2489.48
731.499	2356.36
731.685	2446.47
731.871	2520.2
732.057	2389.13
732.243	2442.37
732.429	2434.18
732.615	2425.99
732.801	2356.36
732.987	2399.37
733.173	2360.45
733.359	2348.17
733.545	2487.43
733.731	2366.6
733.917	2303.11
734.103	2319.5
734.289	2432.13
734.475	2323.59
734.661	2350.21
734.847	2317.45
735.033	2301.06
735.219	2225.29
735.404	2348.17
735.59	2176.14
735.776	2245.77
735.962	2208.9
736.148	2286.73
736.333	2184.33
736.519	2112.65
736.705	2276.49
736.89	2210.95
737.076	2358.41
737.262	2071.69
737.447	2204.81
737.633	2161.8
737.819	2292.87
738.004	2260.1
738.19	2139.27
738.375	2151.56
738.561	2172.04
738.747	2096.27
738.932	2088.07
739.118	2176.14
739.303	2114.7
739.489	2118.79
739.674	2073.74
739.859	2000.01
740.045	2147.47
740.23	2077.83
740.416	2071.69
740.601	2122.89
740.786	2098.31
740.972	1975.44
741.157	1924.24
741.342	1995.92
741.528	2030.73
741.713	1926.29
741.898	2079.88
742.084	2104.46
742.269	1975.44
742.454	1987.72
742.639	1942.67
742.824	2075.79
743.01	2028.68
743.195	1975.44
743.38	2036.88
743.565	1823.89
743.75	1920.14
743.935	1899.66
744.12	1881.23
744.305	1836.17
744.49	1866.89
744.675	1928.33
744.86	1836.17
745.045	1825.93
745.23	1946.76
745.415	1973.39
745.6	1856.65
745.785	1799.31
745.97	1858.7
746.155	1795.22
746.34	1870.99
746.525	1791.12
746.71	1774.74
746.895	1791.12
747.079	1694.86
747.264	1733.78
747.449	1791.12
747.634	1799.31
747.819	1672.34
748.003	1709.2
748.188	1729.68
748.373	1717.39
748.557	1684.62
748.742	1721.49
748.927	1610.9
749.111	1596.56
749.296	1592.47
749.481	1641.62
749.665	1635.47
749.85	1653.91
750.034	1670.29
750.219	1475.73
750.404	1571.99
750.588	1475.73
750.773	1520.79
750.957	1475.73
751.141	1510.55
751.326	1543.32
751.51	1531.03
751.695	1578.13
751.879	1414.29
752.064	1549.46
752.248	1442.96
752.432	1569.94
752.617	1500.31
752.801	1442.96
752.985	1430.68
753.17	1483.92
753.354	1520.79
753.538	1315.99
753.722	1383.57
753.907	1307.8
754.091	1365.14
754.275	1340.57
754.459	1336.47
754.643	1334.42
754.828	1344.66
755.012	1289.37
755.196	1234.07
755.38	1254.55
755.564	1340.57
755.748	1293.46
755.932	1266.84
756.116	1160.34
756.3	1338.52
756.484	1162.39
756.668	1266.84
756.852	1182.87
757.036	1148.06
757.22	1244.31
757.404	1225.88
757.588	1217.69
757.772	1234.07
757.956	1137.82
758.14	1219.74
758.323	1141.91
758.507	1129.63
758.691	1199.26
758.875	1062.04
759.059	1211.54
759.242	1156.25
759.426	1115.29
759.61	1103
759.794	1154.2
759.977	1107.1
760.161	1246.36
760.345	1131.67
760.528	1086.62
760.712	1068.19
760.895	996.51
761.079	1162.39
761.263	1043.61
761.446	996.51
761.63	1062.04
761.813	1107.1
761.997	933.02
762.18	1070.23
762.364	1176.73
762.547	900.25
762.731	1088.67
762.914	1012.89
763.098	990.36
763.281	1025.18
763.464	971.93
763.648	988.32
763.831	1023.13
764.015	867.49
764.198	1072.28
764.381	1045.66
764.564	1019.04
764.748	1002.65
764.931	963.74
765.114	935.07
765.297	971.93
765.481	953.5
765.664	996.51
765.847	980.12
766.03	982.17
766.213	885.92
766.397	885.92
766.58	963.74
766.763	1000.6
766.946	894.11
767.129	824.48
767.312	902.3
767.495	902.3
767.678	771.23
767.861	906.4
768.044	857.25
768.227	881.82
768.41	959.64
768.593	869.53
768.776	879.77
768.959	877.73
769.142	906.4
769.324	892.06
769.507	965.79
769.69	826.53
769.873	849.05
770.056	890.01
770.239	930.97
770.421	836.77
770.604	898.2
770.787	863.39
770.97	933.02
771.152	867.49
771.335	849.05
771.518	898.2
771.7	826.53
771.883	898.2
772.066	808.09
772.248	859.29
772.431	844.96
772.613	799.9
772.796	734.37
772.978	849.05
773.161	875.68
773.343	795.81
773.526	775.33
773.708	787.61
773.891	760.99
774.073	808.09
774.256	771.23
774.438	746.66
774.621	767.13
774.803	804
774.985	763.04
775.168	799.9
775.35	754.85
775.532	787.61
775.715	820.38
775.897	849.05
776.079	627.87
776.261	701.6
776.444	713.89
776.626	724.13
776.808	709.79
776.99	705.7
777.173	730.27
777.355	664.74
777.537	685.22
777.719	634.02
777.901	625.83
778.083	593.06
778.265	560.29
778.447	689.31
778.629	578.72
778.811	689.31
778.993	664.74
779.175	652.45
779.357	611.49
779.539	634.02
779.721	636.06
779.903	605.35
780.085	550.05
780.267	531.62
780.449	611.49
780.631	586.91
780.812	701.6
780.994	554.15
781.176	615.59
781.358	492.71
781.54	613.54
781.721	562.34
781.903	554.15
782.085	574.63
782.267	496.8
782.448	529.57
782.63	519.33
782.812	611.49
782.993	623.78
783.175	488.61
783.357	564.39
783.538	531.62
783.72	451.75
783.901	603.3
784.083	484.52
784.264	562.34
784.446	472.23
784.627	515.23
784.809	509.09
784.99	488.61
785.172	525.47
785.353	500.9
785.535	570.53
785.716	468.13
785.897	423.08
786.079	453.8
786.26	619.68
786.441	513.19
786.623	408.74
786.804	504.99
786.985	486.56
787.167	418.98
787.348	386.21
787.529	443.56
787.71	423.08
787.891	513.19
788.073	425.12
788.254	439.46
788.435	437.41
788.616	451.75
788.797	439.46
788.978	455.84
789.159	453.8
789.34	382.12
789.522	406.69
789.703	339.11
789.884	398.5
790.065	427.17
790.246	449.7
790.427	367.78
790.607	384.16
790.788	410.79
790.969	408.74
791.15	394.4
791.331	332.97
791.512	349.35
791.693	324.77
791.874	390.31
792.054	476.32
792.235	457.89
792.416	382.12
792.597	316.58
792.778	423.08
792.958	431.27
793.139	371.88
793.32	349.35
793.5	279.72
793.681	474.28
793.862	341.16
794.042	281.77
794.223	285.86
794.404	306.34
794.584	312.49
794.765	341.16
794.945	349.35
795.126	398.5
795.306	341.16
795.487	382.12
795.667	343.21
795.848	283.81
796.028	285.86
796.209	369.83
796.389	365.73
796.57	316.58
796.75	308.39
796.93	302.25
797.111	269.48
797.291	269.48
797.471	275.62
797.652	337.06
797.832	251.05
798.012	345.25
798.192	230.57
798.373	255.14
798.553	195.75
798.733	300.2
798.913	302.25
799.093	271.53
799.274	353.45
799.454	300.2
799.634	320.68
799.814	318.63
799.994	275.62
800.174	259.24
800.354	330.92
800.534	175.27
800.714	292.01
800.894	263.33
801.074	294.05
801.254	228.52
801.434	312.49
801.614	242.85
801.794	222.38
801.974	973.98
802.154	203.94
802.334	255.14
802.514	167.08
802.693	335.01
802.873	185.51
803.053	308.39
803.233	259.24
803.413	218.28
803.592	193.7
803.772	226.47
803.952	201.9
804.131	238.76
804.311	255.14
804.491	271.53
804.67	201.9
804.85	292.01
805.03	271.53
805.209	259.24
805.389	226.47
805.568	234.66
805.748	316.58
805.928	220.33
806.107	277.67
806.287	193.7
806.466	244.9
806.646	203.94
806.825	193.7
807.004	283.81
807.184	218.28
807.363	234.66
807.543	275.62
807.722	187.56
807.901	267.43
808.081	277.67
808.26	201.9
808.439	203.94
808.619	171.18
808.798	185.51
808.977	218.28
809.156	263.33
809.336	244.9
809.515	228.52
809.694	138.41
809.873	261.29
810.052	234.66
810.231	228.52
810.411	154.79
810.59	214.18
810.769	154.79
810.948	173.22
811.127	236.71
811.306	193.7
811.485	261.29
811.664	203.94
811.843	171.18
812.022	263.33
812.201	191.66
812.38	179.37
812.559	158.89
812.737	203.94
812.916	179.37
813.095	189.61
813.274	115.88
813.453	236.71
813.632	179.37
813.811	179.37
813.989	107.69
814.168	165.03
814.347	187.56
814.526	210.09
814.704	210.09
814.883	169.13
815.062	95.4
815.24	212.14
815.419	122.02
815.598	222.38
815.776	117.93
815.955	181.42
816.133	181.42
816.312	185.51
816.49	144.55
816.669	107.69
816.847	87.21
817.026	205.99
817.204	177.32
817.383	140.46
817.561	126.12
817.74	144.55
817.918	162.98
818.097	111.78
818.275	70.83
818.453	113.83
818.632	177.32
818.81	152.74
818.988	83.11
819.167	115.88
819.345	87.21
819.523	136.36
819.701	169.13
819.879	165.03
820.058	111.78
820.236	83.11
820.414	146.6
820.592	156.84
820.77	62.63
820.948	150.7
821.127	173.22
821.305	220.33
821.483	160.94
821.661	218.28
821.839	169.13
822.017	169.13
822.195	138.41
822.373	105.64
822.551	136.36
822.729	156.84
822.907	144.55
823.085	103.59
823.262	101.55
823.44	72.87
823.618	119.98
823.796	136.36
823.974	103.59
824.152	72.87
824.329	52.39
824.507	160.94
824.685	144.55
824.863	144.55
825.04	87.21
825.218	128.17
825.396	83.11
825.574	144.55
825.751	134.31
825.929	189.61
826.107	19.63
826.284	228.52
826.462	150.7
826.639	29.87
826.817	160.94
826.994	136.36
827.172	52.39
827.349	181.42
827.527	140.46
827.704	126.12
827.882	138.41
828.059	105.64
828.237	79.02
828.414	144.55
828.591	23.72
828.769	136.36
828.946	134.31
829.124	119.98
829.301	115.88
829.478	113.83
829.655	87.21
829.833	31.91
830.01	54.44
830.187	105.64
830.364	124.07
830.542	81.07
830.719	56.49
830.896	162.98
831.073	201.9
831.25	138.41
831.427	119.98
831.604	117.93
831.782	97.45
831.959	103.59
832.136	85.16
832.313	152.74
832.49	130.22
832.667	138.41
832.844	140.46
833.021	210.09
833.198	72.87
833.374	130.22
833.551	95.4
833.728	136.36
833.905	136.36
834.082	17.58
834.259	115.88
834.436	111.78
834.612	103.59
834.789	169.13
834.966	109.74
835.143	103.59
835.319	13.48
835.496	87.21
835.673	72.87
835.85	99.5
836.026	83.11
836.203	76.97
836.38	115.88
836.556	183.46
836.733	128.17
836.909	79.02
837.086	29.87
837.262	89.26
837.439	93.35
837.616	107.69
837.792	162.98
837.968	128.17
838.145	25.77
838.321	-35.67
838.498	79.02
838.674	70.83
838.851	62.63
839.027	87.21
839.203	130.22
839.38	167.08
839.556	126.12
839.732	105.64
839.909	70.83
840.085	128.17
840.261	74.92
840.437	101.55
840.614	46.25
840.79	109.74
840.966	107.69
841.142	64.68
841.318	42.15
841.494	64.68
841.671	165.03
841.847	25.77
842.023	52.39
842.199	81.07
842.375	101.55
842.551	52.39
842.727	79.02
842.903	146.6
843.079	21.67
843.255	33.96
843.431	74.92
843.607	103.59
843.783	46.25
843.959	152.74
844.134	23.72
844.31	136.36
844.486	70.83
844.662	130.22
844.838	109.74
845.013	140.46
845.189	111.78
845.365	146.6
845.541	15.53
845.716	111.78
845.892	83.11
846.068	105.64
846.244	13.48
846.419	117.93
846.595	42.15
846.77	29.87
846.946	150.7
847.122	31.91
847.297	148.65
847.473	103.59
847.648	-0.85
847.824	62.63
847.999	33.96
848.175	91.31
848.35	72.87
848.526	144.55
848.701	115.88
848.876	54.44
849.052	156.84
849.227	5.29
849.403	62.63
849.578	40.11
849.753	23.72
849.929	93.35
850.104	-25.43
850.279	54.44
850.454	119.98
850.63	103.59
850.805	74.92
850.98	107.69
851.155	15.53
851.33	42.15
851.505	27.82
851.681	148.65
851.856	-29.52
852.031	72.87
852.206	122.02
852.381	36.01
852.556	-35.67
852.731	85.16
852.906	97.45
853.081	95.4
853.256	79.02
853.431	7.34
853.606	13.48
853.781	87.21
853.956	62.63
854.131	29.87
854.305	103.59
854.48	113.83
854.655	-19.29
854.83	13.48
855.005	25.77
855.18	101.55
855.354	66.73
855.529	25.77
855.704	31.91
855.879	91.31
856.053	70.83
856.228	111.78
856.403	103.59
856.577	83.11
856.752	-21.33
856.926	72.87
857.101	107.69
857.276	128.17
857.45	72.87
857.625	130.22
857.799	54.44
857.974	76.97
858.148	40.11
858.323	119.98
858.497	-21.33
858.672	101.55
858.846	-11.09
859.02	70.83
859.195	40.11
859.369	54.44
859.543	72.87
859.718	17.58
859.892	85.16
860.066	111.78
860.241	79.02
860.415	25.77
860.589	27.82
860.763	56.49
860.938	79.02
861.112	13.48
861.286	64.68
861.46	56.49
861.634	23.72
861.808	81.07
861.982	1.19
862.157	29.87
862.331	48.3
862.505	-27.48
862.679	-47.96
862.853	25.77
863.027	46.25
863.201	162.98
863.375	62.63
863.549	46.25
863.722	66.73
863.896	29.87
864.07	-27.48
864.244	54.44
864.418	56.49
864.592	36.01
864.766	29.87
864.939	105.64
865.113	1.19
865.287	23.72
865.461	74.92
865.634	31.91
865.808	-11.09
865.982	68.78
866.156	25.77
866.329	-27.48
866.503	50.35
866.676	46.25
866.85	117.93
867.024	29.87
867.197	79.02
867.371	-25.43
867.544	81.07
867.718	79.02
867.891	42.15
868.065	-37.72
868.238	50.35
868.412	189.61
868.585	60.59
868.759	25.77
868.932	-9.05
869.105	23.72
869.279	52.39
869.452	17.58
869.625	60.59
869.799	97.45
869.972	-17.24
870.145	58.54
870.319	36.01
870.492	5.29
870.665	46.25
870.838	31.91
871.011	-43.86
871.185	1.19
871.358	68.78
871.531	38.06
871.704	13.48
871.877	21.67
872.05	29.87
872.223	31.91
872.396	58.54
872.569	21.67
872.742	21.67
872.915	-0.85
873.088	33.96
873.261	-19.29
873.434	48.3
873.607	122.02
873.78	23.72
873.953	38.06
874.126	36.01
874.299	38.06
874.471	13.48
874.644	99.5
874.817	25.77
874.99	50.35
875.163	7.34
875.335	54.44
875.508	21.67
875.681	48.3
875.853	29.87
876.026	46.25
876.199	70.83
876.371	50.35
876.544	-39.76
876.717	48.3
876.889	21.67
877.062	21.67
877.234	-19.29
877.407	46.25
877.579	36.01
877.752	83.11
877.924	54.44
878.097	105.64
878.269	52.39
878.442	56.49
878.614	25.77
878.786	46.25
878.959	-25.43
879.131	87.21
879.303	5.29
879.476	21.67
879.648	17.58
879.82	19.63
879.993	9.39
880.165	23.72
880.337	56.49
880.509	15.53
880.681	-15.19
880.854	27.82
881.026	9.39
881.198	87.21
881.37	48.3
881.542	-9.05
881.714	5.29
881.886	-2.9
882.058	15.53
882.23	29.87
882.402	23.72
882.574	48.3
882.746	72.87
882.918	38.06
883.09	40.11
883.262	81.07
883.434	-25.43
883.606	31.91
883.778	-15.19
883.95	38.06
884.122	29.87
884.293	38.06
884.465	21.67
884.637	42.15
884.809	33.96
884.98	-19.29
885.152	83.11
885.324	111.78
885.496	38.06
885.667	124.07
885.839	68.78
886.011	111.78
886.182	15.53
886.354	31.91
886.525	93.35
886.697	40.11
886.869	5.29
887.04	-13.14
887.212	103.59
887.383	144.55
887.555	58.54
887.726	15.53
887.897	62.63
888.069	21.67
888.24	-29.52
888.412	60.59
888.583	13.48
888.754	38.06
888.926	-21.33
889.097	31.91
889.268	17.58
889.44	81.07
889.611	-27.48
889.782	-7
889.953	-9.05
890.125	46.25
890.296	-17.24
890.467	3.24
890.638	9.39
890.809	44.2
890.98	27.82
891.151	85.16
891.323	58.54
891.494	62.63
891.665	-31.57
891.836	70.83
892.007	25.77
892.178	107.69
892.349	60.59
892.52	7.34
892.691	36.01
892.862	3.24
893.032	15.53
893.203	44.2
893.374	-25.43
893.545	130.22
893.716	-45.91
893.887	66.73
894.057	33.96
894.228	56.49
894.399	-33.62
894.57	31.91
894.74	-39.76
894.911	23.72
895.082	38.06
895.253	-19.29
895.423	31.91
895.594	72.87
895.764	25.77
895.935	-17.24
896.106	-4.95
896.276	-15.19
896.447	130.22
896.617	46.25
896.788	1.19
896.958	44.2
897.129	-56.15
897.299	1.19
897.47	70.83
897.64	79.02
897.81	36.01
897.981	42.15
898.151	15.53
898.322	29.87
898.492	54.44
898.662	-19.29
898.832	33.96
899.003	17.58
899.173	70.83
899.343	13.48
899.513	58.54
