Data from USB4F104151__69__14-30-23-100.txt Node

Date: Thu Mar 13 14:30:23 EDT 2025
User: louis
Spectrometer: USB4F10415
Trigger mode: 4
Integration Time (sec): 2.500000E-2
Scans to average: 1
Electric dark correction enabled: true
Nonlinearity correction enabled: false
Boxcar width: 0
XAxis mode: Wavelengths
Number of Pixels in Spectrum: 3648
>>>>>Begin Spectral Data<<<<<
178.204	-89.43
178.424	-89.43
178.644	-89.43
178.864	-171.35
179.084	-5.46
179.304	10.92
179.524	25.26
179.744	43.69
179.964	62.12
180.184	-68.95
180.404	-56.66
180.624	45.74
180.844	-3.41
181.064	-15.7
181.283	45.74
181.503	-36.18
181.723	-52.56
181.943	-11.61
182.163	47.79
182.383	17.07
182.602	49.83
182.822	31.4
183.042	70.31
183.262	15.02
183.482	25.26
183.701	74.41
183.921	74.41
184.141	-3.41
184.361	15.02
184.58	-34.13
184.8	25.26
185.02	96.94
185.239	15.02
185.459	0.68
185.679	88.75
185.898	-15.7
186.118	37.55
186.338	49.83
186.557	62.12
186.777	103.08
186.997	25.26
187.216	37.55
187.436	78.51
187.655	4.78
187.875	101.03
188.095	17.07
188.314	58.03
188.534	139.94
188.753	2.73
188.973	84.65
189.192	62.12
189.412	21.16
189.631	45.74
189.851	37.55
190.07	21.16
190.29	6.83
190.509	25.26
190.729	78.51
190.948	105.13
191.168	125.61
191.387	29.35
191.607	31.4
191.826	49.83
192.045	82.6
192.265	25.26
192.484	66.22
192.704	39.59
192.923	4.78
193.142	88.75
193.362	45.74
193.581	53.93
193.8	0.68
194.02	66.22
194.239	25.26
194.458	88.75
194.678	0.68
194.897	94.89
195.116	58.03
195.335	-36.18
195.555	70.31
195.774	-1.37
195.993	53.93
196.212	-36.18
196.432	33.45
196.651	55.98
196.87	-23.89
197.089	121.51
197.308	45.74
197.528	15.02
197.747	-11.61
197.966	41.64
198.185	92.84
198.404	-30.04
198.623	84.65
198.842	45.74
199.062	47.79
199.281	78.51
199.5	53.93
199.719	4.78
199.938	66.22
200.157	131.75
200.376	70.31
200.595	107.18
200.814	29.35
201.033	4.78
201.252	64.17
201.471	96.94
201.69	-3.41
201.909	86.7
202.128	53.93
202.347	-13.65
202.566	15.02
202.785	49.83
203.004	-27.99
203.223	98.99
203.442	39.59
203.661	39.59
203.879	-13.65
204.098	96.94
204.317	15.02
204.536	6.83
204.755	66.22
204.974	2.73
205.193	55.98
205.411	70.31
205.63	131.75
205.849	82.6
206.068	4.78
206.287	103.08
206.505	105.13
206.724	41.64
206.943	45.74
207.162	8.87
207.381	64.17
207.599	70.31
207.818	-11.61
208.037	-56.66
208.255	29.35
208.474	78.51
208.693	12.97
208.911	33.45
209.13	64.17
209.349	39.59
209.567	21.16
209.786	-3.41
210.005	74.41
210.223	19.11
210.442	-23.89
210.661	-9.56
210.879	12.97
211.098	86.7
211.316	49.83
211.535	94.89
211.753	-7.51
211.972	70.31
212.191	4.78
212.409	-7.51
212.628	31.4
212.846	55.98
213.065	72.36
213.283	62.12
213.502	78.51
213.72	70.31
213.938	45.74
214.157	-3.41
214.375	33.45
214.594	39.59
214.812	23.21
215.031	8.87
215.249	4.78
215.467	-89.43
215.686	4.78
215.904	60.07
216.122	47.79
216.341	62.12
216.559	31.4
216.778	58.03
216.996	25.26
217.214	4.78
217.432	-9.56
217.651	33.45
217.869	45.74
218.087	-1.37
218.306	37.55
218.524	35.5
218.742	62.12
218.96	78.51
219.179	-3.41
219.397	4.78
219.615	74.41
219.833	-3.41
220.051	-11.61
220.27	88.75
220.488	35.5
220.706	88.75
220.924	12.97
221.142	29.35
221.36	88.75
221.578	47.79
221.796	55.98
222.015	-19.8
222.233	55.98
222.451	74.41
222.669	-27.99
222.887	6.83
223.105	8.87
223.323	12.97
223.541	15.02
223.759	23.21
223.977	78.51
224.195	53.93
224.413	45.74
224.631	80.55
224.849	-1.37
225.067	58.03
225.285	-11.61
225.503	29.35
225.721	-75.09
225.939	10.92
226.157	41.64
226.375	164.52
226.592	-46.42
226.81	-1.37
227.028	90.79
227.246	70.31
227.464	17.07
227.682	88.75
227.9	6.83
228.117	133.8
228.335	62.12
228.553	55.98
228.771	62.12
228.989	-27.99
229.206	-48.47
229.424	88.75
229.642	39.59
229.86	47.79
230.077	111.27
230.295	15.02
230.513	47.79
230.731	94.89
230.948	4.78
231.166	47.79
231.384	-27.99
231.601	21.16
231.819	27.31
232.037	23.21
232.254	-19.8
232.472	21.16
232.689	62.12
232.907	-66.9
233.125	78.51
233.342	-32.08
233.56	-19.8
233.777	103.08
233.995	49.83
234.213	4.78
234.43	82.6
234.648	-15.7
234.865	25.26
235.083	10.92
235.3	-50.52
235.518	62.12
235.735	58.03
235.953	31.4
236.17	49.83
236.388	66.22
236.605	17.07
236.822	60.07
237.04	72.36
237.257	39.59
237.475	4.78
237.692	21.16
237.909	62.12
238.127	80.55
238.344	31.4
238.562	119.46
238.779	8.87
238.996	29.35
239.214	-42.32
239.431	33.45
239.648	119.46
239.865	76.46
240.083	125.61
240.3	55.98
240.517	-11.61
240.735	80.55
240.952	53.93
241.169	45.74
241.386	43.69
241.603	-56.66
241.821	0.68
242.038	64.17
242.255	86.7
242.472	4.78
242.689	-7.51
242.907	90.79
243.124	60.07
243.341	70.31
243.558	70.31
243.775	58.03
243.992	-3.41
244.209	-58.71
244.426	137.9
244.643	47.79
244.86	111.27
245.078	37.55
245.295	41.64
245.512	-42.32
245.729	55.98
245.946	17.07
246.163	33.45
246.38	-56.66
246.597	55.98
246.814	-7.51
247.031	4.78
247.248	62.12
247.464	88.75
247.681	29.35
247.898	72.36
248.115	49.83
248.332	-5.46
248.549	12.97
248.766	21.16
248.983	109.22
249.2	72.36
249.417	58.03
249.633	47.79
249.85	45.74
250.067	45.74
250.284	0.68
250.501	55.98
250.717	74.41
250.934	45.74
251.151	-15.7
251.368	-3.41
251.585	70.31
251.801	45.74
252.018	21.16
252.235	103.08
252.451	86.7
252.668	27.31
252.885	39.59
253.102	45.74
253.318	49.83
253.535	12.97
253.752	21.16
253.968	70.31
254.185	0.68
254.401	84.65
254.618	121.51
254.835	-3.41
255.051	111.27
255.268	12.97
255.484	0.68
255.701	39.59
255.917	-3.41
256.134	94.89
256.351	39.59
256.567	105.13
256.784	4.78
257	-21.85
257.217	115.37
257.433	-32.08
257.65	45.74
257.866	94.89
258.082	-7.51
258.299	15.02
258.515	37.55
258.732	74.41
258.948	-27.99
259.165	37.55
259.381	15.02
259.597	72.36
259.814	31.4
260.03	117.42
260.246	21.16
260.463	86.7
260.679	148.14
260.895	21.16
261.112	37.55
261.328	12.97
261.544	10.92
261.761	133.8
261.977	55.98
262.193	-30.04
262.409	58.03
262.626	-7.51
262.842	-11.61
263.058	29.35
263.274	47.79
263.49	68.27
263.707	58.03
263.923	62.12
264.139	-27.99
264.355	41.64
264.571	74.41
264.787	-71
265.004	-3.41
265.22	29.35
265.436	70.31
265.652	62.12
265.868	82.6
266.084	15.02
266.3	78.51
266.516	-68.95
266.732	58.03
266.948	37.55
267.164	-19.8
267.38	8.87
267.596	21.16
267.812	109.22
268.028	35.5
268.244	31.4
268.46	62.12
268.676	29.35
268.892	-5.46
269.108	94.89
269.324	31.4
269.54	4.78
269.756	29.35
269.972	-1.37
270.188	35.5
270.403	-3.41
270.619	-23.89
270.835	103.08
271.051	29.35
271.267	4.78
271.483	78.51
271.698	49.83
271.914	105.13
272.13	17.07
272.346	31.4
272.562	8.87
272.777	94.89
272.993	68.27
273.209	21.16
273.425	25.26
273.64	-34.13
273.856	37.55
274.072	39.59
274.287	25.26
274.503	103.08
274.719	29.35
274.934	49.83
275.15	70.31
275.366	68.27
275.581	80.55
275.797	-11.61
276.012	12.97
276.228	37.55
276.444	39.59
276.659	86.7
276.875	-23.89
277.09	113.32
277.306	47.79
277.521	103.08
277.737	49.83
277.952	80.55
278.168	29.35
278.383	4.78
278.599	17.07
278.814	115.37
279.03	-56.66
279.245	125.61
279.461	47.79
279.676	4.78
279.892	-17.75
280.107	-9.56
280.322	-7.51
280.538	49.83
280.753	-17.75
280.969	78.51
281.184	-5.46
281.399	113.32
281.615	45.74
281.83	-3.41
282.045	-52.56
282.26	51.88
282.476	78.51
282.691	152.23
282.906	43.69
283.122	53.93
283.337	-73.04
283.552	47.79
283.767	-30.04
283.983	39.59
284.198	70.31
284.413	51.88
284.628	4.78
284.843	35.5
285.058	88.75
285.274	53.93
285.489	10.92
285.704	31.4
285.919	-50.52
286.134	8.87
286.349	23.21
286.564	-64.85
286.779	103.08
286.995	55.98
287.21	-7.51
287.425	53.93
287.64	17.07
287.855	25.26
288.07	55.98
288.285	86.7
288.5	41.64
288.715	86.7
288.93	-3.41
289.145	0.68
289.36	33.45
289.575	41.64
289.79	94.89
290.004	17.07
290.219	29.35
290.434	-3.41
290.649	-7.51
290.864	-11.61
291.079	62.12
291.294	76.46
291.509	39.59
291.724	107.18
291.938	98.99
292.153	74.41
292.368	-50.52
292.583	-1.37
292.798	27.31
293.012	39.59
293.227	29.35
293.442	12.97
293.657	47.79
293.871	86.7
294.086	37.55
294.301	94.89
294.516	49.83
294.73	-52.56
294.945	0.68
295.16	80.55
295.374	49.83
295.589	62.12
295.804	-3.41
296.018	80.55
296.233	78.51
296.447	53.93
296.662	29.35
296.877	-32.08
297.091	29.35
297.306	86.7
297.52	37.55
297.735	-9.56
297.949	55.98
298.164	86.7
298.378	-1.37
298.593	39.59
298.807	80.55
299.022	25.26
299.236	45.74
299.451	62.12
299.665	-15.7
299.88	107.18
300.094	84.65
300.309	72.36
300.523	23.21
300.737	62.12
300.952	49.83
301.166	96.94
301.381	-19.8
301.595	39.59
301.809	25.26
302.024	-44.37
302.238	-3.41
302.452	70.31
302.667	53.93
302.881	31.4
303.095	58.03
303.309	21.16
303.524	-25.94
303.738	64.17
303.952	12.97
304.166	70.31
304.381	-17.75
304.595	68.27
304.809	-1.37
305.023	47.79
305.237	-3.41
305.452	23.21
305.666	45.74
305.88	64.17
306.094	-7.51
306.308	86.7
306.522	86.7
306.736	-13.65
306.95	51.88
307.164	62.12
307.379	33.45
307.593	70.31
307.807	62.12
308.021	55.98
308.235	23.21
308.449	6.83
308.663	58.03
308.877	111.27
309.091	33.45
309.305	55.98
309.519	-7.51
309.733	10.92
309.947	29.35
310.161	80.55
310.374	19.11
310.588	29.35
310.802	-3.41
311.016	-11.61
311.23	35.5
311.444	96.94
311.658	64.17
311.872	70.31
312.085	-13.65
312.299	78.51
312.513	137.9
312.727	31.4
312.941	0.68
313.154	35.5
313.368	62.12
313.582	-3.41
313.796	21.16
314.009	12.97
314.223	62.12
314.437	37.55
314.651	45.74
314.864	70.31
315.078	21.16
315.292	4.78
315.505	21.16
315.719	17.07
315.933	70.31
316.146	-1.37
316.36	41.64
316.573	45.74
316.787	-17.75
317.001	60.07
317.214	-19.8
317.428	53.93
317.641	-3.41
317.855	45.74
318.068	49.83
318.282	37.55
318.495	72.36
318.709	164.52
318.922	76.46
319.136	123.56
319.349	47.79
319.563	66.22
319.776	72.36
319.99	19.11
320.203	58.03
320.417	72.36
320.63	74.41
320.843	4.78
321.057	10.92
321.27	39.59
321.483	-17.75
321.697	-11.61
321.91	33.45
322.124	78.51
322.337	31.4
322.55	-54.61
322.763	103.08
322.977	17.07
323.19	6.83
323.403	49.83
323.617	43.69
323.83	31.4
324.043	8.87
324.256	111.27
324.469	-13.65
324.683	96.94
324.896	29.35
325.109	41.64
325.322	53.93
325.535	86.7
325.748	37.55
325.962	39.59
326.175	82.6
326.388	82.6
326.601	-7.51
326.814	47.79
327.027	6.83
327.24	74.41
327.453	-40.28
327.666	-3.41
327.879	60.07
328.092	107.18
328.305	10.92
328.518	49.83
328.731	31.4
328.944	23.21
329.157	58.03
329.37	37.55
329.583	117.42
329.796	58.03
330.009	21.16
330.222	37.55
330.435	25.26
330.648	37.55
330.861	98.99
331.073	33.45
331.286	64.17
331.499	88.75
331.712	94.89
331.925	-27.99
332.138	105.13
332.35	88.75
332.563	-9.56
332.776	-5.46
332.989	-19.8
333.202	-5.46
333.414	45.74
333.627	15.02
333.84	121.51
334.053	45.74
334.265	70.31
334.478	45.74
334.691	64.17
334.903	39.59
335.116	0.68
335.329	31.4
335.541	-15.7
335.754	135.85
335.966	21.16
336.179	27.31
336.392	70.31
336.604	43.69
336.817	86.7
337.029	121.51
337.242	58.03
337.454	37.55
337.667	53.93
337.88	58.03
338.092	80.55
338.305	96.94
338.517	62.12
338.729	55.98
338.942	64.17
339.154	-19.8
339.367	-34.13
339.579	88.75
339.792	41.64
340.004	78.51
340.217	21.16
340.429	-9.56
340.641	58.03
340.854	25.26
341.066	-3.41
341.278	82.6
341.491	72.36
341.703	45.74
341.915	-19.8
342.128	127.66
342.34	-9.56
342.552	70.31
342.764	4.78
342.977	94.89
343.189	-3.41
343.401	111.27
343.613	70.31
343.826	76.46
344.038	62.12
344.25	74.41
344.462	-25.94
344.674	98.99
344.886	39.59
345.099	43.69
345.311	39.59
345.523	70.31
345.735	29.35
345.947	29.35
346.159	21.16
346.371	15.02
346.583	60.07
346.795	135.85
347.007	70.31
347.219	119.46
347.431	25.26
347.643	109.22
347.855	0.68
348.067	55.98
348.279	-1.37
348.491	58.03
348.703	78.51
348.915	47.79
349.127	58.03
349.339	62.12
349.551	23.21
349.763	80.55
349.975	72.36
350.187	68.27
350.399	51.88
350.61	92.84
350.822	58.03
351.034	96.94
351.246	47.79
351.458	78.51
351.669	-3.41
351.881	10.92
352.093	94.89
352.305	86.7
352.517	60.07
352.728	88.75
352.94	29.35
353.152	37.55
353.363	41.64
353.575	-17.75
353.787	64.17
353.999	139.94
354.21	37.55
354.422	62.12
354.633	19.11
354.845	53.93
355.057	58.03
355.268	17.07
355.48	47.79
355.692	4.78
355.903	-46.42
356.115	29.35
356.326	-91.48
356.538	86.7
356.749	84.65
356.961	31.4
357.172	53.93
357.384	6.83
357.595	58.03
357.807	8.87
358.018	53.93
358.23	45.74
358.441	80.55
358.653	-38.23
358.864	21.16
359.075	58.03
359.287	43.69
359.498	115.37
359.709	78.51
359.921	-11.61
360.132	-13.65
360.344	33.45
360.555	72.36
360.766	72.36
360.977	-56.66
361.189	66.22
361.4	6.83
361.611	25.26
361.823	66.22
362.034	41.64
362.245	53.93
362.456	41.64
362.667	45.74
362.879	90.79
363.09	6.83
363.301	66.22
363.512	68.27
363.723	25.26
363.935	111.27
364.146	35.5
364.357	-3.41
364.568	107.18
364.779	-1.37
364.99	23.21
365.201	17.07
365.412	53.93
365.623	25.26
365.834	68.27
366.045	39.59
366.256	90.79
366.467	12.97
366.678	76.46
366.889	35.5
367.1	23.21
367.311	98.99
367.522	-11.61
367.733	10.92
367.944	80.55
368.155	78.51
368.366	49.83
368.577	105.13
368.788	86.7
368.999	64.17
369.209	90.79
369.42	139.94
369.631	146.09
369.842	78.51
370.053	72.36
370.264	90.79
370.474	2.73
370.685	53.93
370.896	78.51
371.107	41.64
371.317	119.46
371.528	25.26
371.739	55.98
371.95	53.93
372.16	80.55
372.371	90.79
372.582	8.87
372.792	113.32
373.003	25.26
373.214	6.83
373.424	86.7
373.635	80.55
373.846	135.85
374.056	23.21
374.267	49.83
374.477	88.75
374.688	55.98
374.898	94.89
375.109	49.83
375.319	45.74
375.53	103.08
375.74	80.55
375.951	53.93
376.161	58.03
376.372	55.98
376.582	39.59
376.793	66.22
377.003	15.02
377.214	6.83
377.424	80.55
377.635	111.27
377.845	25.26
378.055	158.38
378.266	45.74
378.476	82.6
378.686	62.12
378.897	86.7
379.107	135.85
379.317	39.59
379.528	23.21
379.738	62.12
379.948	23.21
380.158	62.12
380.369	47.79
380.579	88.75
380.789	127.66
380.999	127.66
381.21	45.74
381.42	144.04
381.63	-66.9
381.84	66.22
382.05	58.03
382.261	90.79
382.471	25.26
382.681	12.97
382.891	160.42
383.101	53.93
383.311	47.79
383.521	88.75
383.731	103.08
383.941	72.36
384.151	23.21
384.361	-15.7
384.571	49.83
384.781	53.93
384.991	107.18
385.201	154.28
385.411	29.35
385.621	45.74
385.831	23.21
386.041	115.37
386.251	72.36
386.461	47.79
386.671	45.74
386.881	123.56
387.091	117.42
387.301	111.27
387.511	31.4
387.72	74.41
387.93	55.98
388.14	78.51
388.35	92.84
388.56	82.6
388.769	107.18
388.979	62.12
389.189	29.35
389.399	23.21
389.609	135.85
389.818	187.05
390.028	74.41
390.238	94.89
390.447	-1.37
390.657	119.46
390.867	12.97
391.076	45.74
391.286	90.79
391.496	76.46
391.705	111.27
391.915	119.46
392.125	90.79
392.334	53.93
392.544	141.99
392.753	78.51
392.963	29.35
393.172	127.66
393.382	70.31
393.591	127.66
393.801	0.68
394.01	121.51
394.22	33.45
394.429	53.93
394.639	64.17
394.848	123.56
395.058	35.5
395.267	119.46
395.477	111.27
395.686	160.42
395.895	119.46
396.105	187.05
396.314	107.18
396.524	144.04
396.733	115.37
396.942	135.85
397.152	68.27
397.361	158.38
397.57	115.37
397.78	129.7
397.989	80.55
398.198	203.43
398.407	37.55
398.617	137.9
398.826	70.31
399.035	137.9
399.244	129.7
399.453	103.08
399.663	131.75
399.872	139.94
400.081	53.93
400.29	193.19
400.499	152.23
400.708	111.27
400.917	86.7
401.127	78.51
401.336	88.75
401.545	291.49
401.754	193.19
401.963	109.22
402.172	168.62
402.381	80.55
402.59	76.46
402.799	127.66
403.008	164.52
403.217	152.23
403.426	129.7
403.635	209.58
403.844	127.66
404.053	101.03
404.262	127.66
404.471	154.28
404.68	164.52
404.888	166.57
405.097	119.46
405.306	201.38
405.515	144.04
405.724	160.42
405.933	275.11
406.142	174.76
406.35	262.82
406.559	246.44
406.768	172.71
406.977	297.64
407.185	144.04
407.394	299.69
407.603	172.71
407.812	271.01
408.02	250.53
408.229	238.25
408.438	244.39
408.646	240.29
408.855	316.07
409.064	275.11
409.272	275.11
409.481	373.41
409.69	309.93
409.898	340.65
410.107	361.13
410.315	404.13
410.524	363.17
410.733	467.62
410.941	328.36
411.15	410.28
411.358	516.77
411.567	514.72
411.775	479.91
411.984	500.39
412.192	391.84
412.401	498.34
412.609	602.79
412.818	656.03
413.026	590.5
413.234	604.83
413.443	574.11
413.651	627.36
413.86	635.55
414.068	725.66
414.276	744.1
414.485	656.03
414.693	715.42
414.901	778.91
415.11	866.97
415.318	799.39
415.526	791.2
415.734	963.23
415.943	965.28
416.151	1065.63
416.359	1002.14
416.567	1063.58
416.776	1061.53
416.984	1094.3
417.192	1151.64
417.4	1055.39
417.608	1127.07
417.817	1211.03
418.025	1249.94
418.233	1352.34
418.441	1282.71
418.649	1401.49
418.857	1471.12
419.065	1469.08
419.273	1483.41
419.481	1487.51
419.689	1727.12
419.897	1716.88
420.105	1780.37
420.313	1718.93
420.521	1907.34
420.729	1966.73
420.937	1979.02
421.145	2022.03
421.353	2093.71
421.561	2167.43
421.769	2294.41
421.977	2460.29
422.185	2235.02
422.393	2445.96
422.601	2568.84
422.809	2585.22
423.017	2540.16
423.224	2693.76
423.432	2792.06
423.64	2896.51
423.848	3168.89
424.056	3031.68
424.263	3086.97
424.471	3259
424.679	3297.91
424.887	3463.8
425.094	3623.54
425.302	3666.55
425.51	3723.89
425.718	3828.34
425.925	3924.59
426.133	3961.45
426.341	4319.85
426.548	4516.45
426.756	4412.01
426.964	4528.74
427.171	4627.04
427.379	5005.92
427.586	4993.63
427.794	5003.87
428.001	5376.6
428.209	5644.88
428.417	5685.84
428.624	5870.16
428.832	5812.82
429.039	5943.89
429.247	5853.78
429.454	6279.75
429.662	6863.43
429.869	6345.29
430.076	6797.89
430.284	6591.05
430.491	7008.83
430.699	7299.64
430.906	7281.21
431.114	7191.1
431.321	7541.3
431.528	7590.45
431.736	8266.28
431.943	8581.67
432.15	8389.16
432.358	8409.64
432.565	8901.15
432.772	8788.52
432.979	9413.15
433.187	9523.74
433.394	9533.98
433.601	10244.62
433.808	10441.23
434.016	10174.99
434.223	10570.25
434.43	11495.93
434.637	10940.93
434.844	11819.51
435.052	11637.24
435.259	11862.52
435.466	11907.57
435.673	11893.24
435.88	12442.09
436.087	13369.82
436.294	13214.18
436.501	12896.74
436.708	13142.5
436.915	13476.32
437.122	14266.83
437.329	14086.61
437.537	14703.05
437.743	14721.48
437.95	14660.04
438.157	15571.39
438.364	15966.65
438.571	15962.55
438.778	15958.46
438.985	17607.07
439.192	16734.64
439.399	17306.02
439.606	16892.33
439.813	17752.48
440.02	18893.19
440.227	18430.35
440.433	18788.75
440.64	18874.76
440.847	18751.88
441.054	19499.39
441.261	20666.74
441.467	20361.59
441.674	20861.29
441.881	21393.76
442.088	21590.37
442.294	21361
442.501	21754.21
442.708	22323.54
442.914	23177.54
443.121	24015.16
443.328	23232.84
443.534	24969.52
443.741	24336.7
443.948	24117.56
444.154	26110.24
444.361	25452.84
444.568	26007.84
444.774	25942.3
444.981	26290.46
445.187	26767.63
445.394	27947.26
445.6	27672.84
445.807	30314.72
446.013	29106.41
446.22	29624.55
446.426	30779.6
446.633	30957.78
446.839	31871.17
447.046	30763.22
447.252	32159.94
447.459	32352.44
447.665	32454.84
447.871	33380.53
448.078	35045.52
448.284	33304.75
448.491	34529.44
448.697	35672.2
448.903	36280.45
449.11	36726.91
449.316	35819.66
449.522	36243.59
449.728	37185.65
449.935	37759.08
450.141	37609.58
450.347	38330.47
450.553	37179.51
450.76	37576.81
450.966	39346.26
451.172	38561.89
451.378	39612.49
451.584	38670.43
451.791	39506
451.997	39561.29
452.203	40441.92
452.409	40294.47
452.615	40101.96
452.821	38160.48
453.027	38015.08
453.233	39845.96
453.44	38418.53
453.646	38821.98
453.852	38914.14
454.058	39272.53
454.264	38285.41
454.47	39571.53
454.676	38305.89
454.882	39807.05
455.088	35889.29
455.294	36702.33
455.5	37009.53
455.705	37443.7
455.911	36014.21
456.117	35623.05
456.323	34685.08
456.529	32856.25
456.735	34447.52
456.941	33611.95
457.147	32841.91
457.352	31817.93
457.558	31527.11
457.764	31785.16
457.97	30804.18
458.176	30374.11
458.381	30312.67
458.587	29212.91
458.793	28866.8
458.999	27281.67
459.204	29540.58
459.41	28367.1
459.616	26536.21
459.821	26724.63
460.027	26200.35
460.233	25725.22
460.438	24772.91
460.644	24797.49
460.85	23808.32
461.055	23353.67
461.261	23251.27
461.466	21508.45
461.672	20787.57
461.878	22548.82
462.083	21111.14
462.289	20644.21
462.494	20117.88
462.7	19415.43
462.905	18821.52
463.111	19440
463.316	19454.34
463.522	19194.25
463.727	19059.08
463.932	19075.46
464.138	18971.02
464.343	18989.45
464.549	18235.8
464.754	18942.35
464.959	18798.99
465.165	18684.3
465.37	17861.02
465.575	17224.1
465.781	18028.95
465.986	18213.27
466.191	17396.13
466.397	17066.41
466.602	16185.78
466.807	16910.76
467.012	16843.18
467.218	17131.94
467.423	16411.06
467.628	16441.78
467.833	17117.61
468.038	16449.97
468.244	15954.36
468.449	16662.96
468.654	16335.28
468.859	16165.3
469.064	15919.54
469.269	15462.85
469.474	15540.67
469.679	15692.22
469.885	15393.22
470.09	15657.4
470.295	15411.65
470.5	14983.62
470.705	15110.6
470.91	14688.71
471.115	14801.35
471.32	15081.92
471.525	14989.77
471.73	14189.01
471.935	14225.87
472.139	13877.72
472.344	13982.17
472.549	13967.83
472.754	13748.7
472.959	13275.62
473.164	13216.22
473.369	13099.49
473.574	13455.84
473.778	13230.56
473.983	13107.68
474.188	13240.8
474.393	12376.56
474.598	12450.28
474.802	12614.12
475.007	12399.09
475.212	12431.85
475.417	11844.09
475.621	12026.36
475.826	12001.78
476.031	11784.69
476.235	11538.94
476.44	11536.89
476.645	11428.35
476.849	11555.32
477.054	11375.1
477.259	10973.7
477.463	11106.82
477.668	10910.21
477.872	10988.03
478.077	10588.68
478.282	10648.07
478.486	10408.46
478.691	10285.58
478.895	10332.68
479.1	10310.16
479.304	10183.18
479.509	10007.06
479.713	10457.61
479.918	10013.2
480.122	9820.69
480.326	9884.18
480.531	9953.81
480.735	10052.11
480.94	9691.67
481.144	10005.01
481.348	9507.35
481.553	9802.26
481.757	9441.82
481.961	9654.81
482.166	9617.94
482.37	9853.46
482.574	9445.91
482.778	9579.03
482.983	9603.61
483.187	9488.92
483.391	9542.17
483.595	9286.17
483.8	9331.23
484.004	9198.11
484.208	9581.08
484.412	9439.77
484.616	9452.06
484.821	9490.97
485.025	9263.65
485.229	9527.83
485.433	9337.37
485.637	9368.09
485.841	9341.47
486.045	9288.22
486.249	9476.63
486.453	9318.94
486.657	9269.79
486.861	9286.17
487.065	9329.18
487.269	9296.41
487.473	9282.08
487.677	9396.76
487.881	9366.04
488.085	9222.69
488.289	9402.91
488.493	9441.82
488.697	9382.43
488.901	9280.03
489.105	9263.65
489.309	9409.05
489.512	9611.8
489.716	9413.15
489.92	9523.74
490.124	9374.24
490.328	9521.69
490.531	9343.52
490.735	9435.67
490.939	9454.11
491.143	9372.19
491.346	9515.55
491.55	9531.93
491.754	9636.38
491.958	9558.55
492.161	9703.96
492.365	9683.48
492.569	9695.77
492.772	9757.21
492.976	9654.81
493.18	9634.33
493.383	9755.16
493.587	9855.51
493.79	10072.59
493.994	9855.51
494.197	9921.04
494.401	9861.65
494.605	9908.76
494.808	10209.81
495.012	10263.05
495.215	10191.38
495.419	10310.16
495.622	10385.93
495.825	10514.95
496.029	10570.25
496.232	10588.68
496.436	10342.92
496.639	10879.49
496.843	11035.14
497.046	11049.47
497.249	11229.7
497.453	11198.98
497.656	11305.47
497.859	11364.86
498.063	11346.43
498.266	11661.82
498.469	11213.31
498.673	11588.09
498.876	11540.99
499.079	11756.02
499.282	11942.39
499.485	11975.16
499.689	11966.96
499.892	12243.44
500.095	12194.29
500.298	12831.21
500.501	12620.27
500.705	12884.45
500.908	12913.13
501.111	13113.83
501.314	13152.74
501.517	13285.86
501.72	13353.44
501.923	13488.6
502.126	13652.44
502.329	14062.04
502.532	13861.34
502.735	13941.21
502.938	14158.29
503.141	14367.18
503.344	14705.1
503.547	14559.69
503.75	14758.35
503.953	14985.67
504.156	15047.11
504.359	15391.17
504.562	15116.74
504.765	15696.32
504.968	15833.53
505.17	15897.02
505.373	15911.35
505.576	16189.88
505.779	16322.99
505.982	16339.38
506.185	16955.82
506.387	16732.59
506.59	16941.48
506.793	17306.02
506.996	17215.91
507.198	17578.4
507.401	17523.1
507.604	17781.15
507.807	18334.1
508.009	18110.87
508.212	18354.58
508.415	18428.31
508.617	18672.01
508.82	18651.53
509.022	18909.58
509.225	19519.87
509.428	19284.36
509.63	19677.57
509.833	19388.8
510.035	20179.32
510.238	20093.3
510.44	20425.07
510.643	20570.48
510.845	20783.47
511.048	20687.21
511.25	21174.63
511.453	21289.32
511.655	22073.69
511.858	21547.36
512.06	22036.83
512.262	21956.96
512.465	22139.22
512.667	22618.45
512.87	22520.15
513.072	22653.26
513.274	23007.56
513.477	23361.86
513.679	23259.46
513.881	23609.67
514.084	23732.54
514.286	24432.95
514.488	24084.8
514.69	24768.82
514.893	24901.93
515.095	24844.59
515.297	25153.83
515.499	25383.21
515.701	25807.14
515.904	25821.47
516.106	25837.86
516.308	25999.65
516.51	26456.34
516.712	26583.32
516.914	26655
517.116	27316.49
517.318	27390.22
517.52	27539.72
517.722	27478.28
517.925	27834.63
518.127	28346.62
518.329	28313.85
518.531	28520.7
518.733	29047.02
518.935	29081.84
519.136	29157.61
519.338	29341.93
519.54	29516.01
519.742	29669.61
519.944	29997.28
520.146	30042.34
520.348	30249.18
520.55	30232.8
520.752	30632.15
520.954	30959.83
521.155	30609.62
521.357	31248.59
521.559	31230.16
521.761	31531.21
521.963	31649.99
522.164	31596.74
522.366	31824.07
522.568	32161.98
522.77	32045.25
522.971	32477.37
523.173	32424.12
523.375	32530.62
523.576	32598.2
523.778	32657.59
523.98	33048.75
524.181	33136.82
524.383	32692.41
524.584	33556.65
524.786	33169.58
524.988	33515.69
525.189	33570.99
525.391	33765.54
525.592	33790.12
525.794	33687.72
525.995	33880.23
526.197	33417.39
526.398	33943.72
526.6	33966.24
526.801	34117.79
527.003	33904.81
527.204	33990.82
527.406	34582.68
527.607	34537.63
527.808	34132.13
528.01	33720.49
528.211	34144.42
528.412	34572.44
528.614	34642.07
528.815	33982.63
529.016	34582.68
529.218	33992.87
529.419	34123.94
529.62	34345.12
529.822	34300.06
530.023	34220.19
530.224	34293.92
530.425	34281.63
530.626	33771.69
530.828	33507.5
531.029	34482.33
531.23	33691.82
531.431	34033.83
531.632	33972.39
531.833	34324.64
532.035	33937.57
532.236	33945.76
532.437	34287.78
532.638	33679.53
532.839	33808.55
533.04	33605.8
533.241	33433.77
533.442	33921.19
533.643	33546.41
533.844	33691.82
534.045	33626.28
534.246	33433.77
534.447	33812.65
534.648	33581.23
534.849	33482.92
535.05	32987.32
535.251	33452.2
535.451	33517.74
535.652	33691.82
535.853	33091.76
536.054	33388.72
536.255	33169.58
536.456	32669.88
536.657	33462.44
536.857	32663.74
537.058	32972.98
537.259	33249.46
537.46	32897.2
537.66	32993.46
537.861	32762.04
538.062	32944.31
538.263	32907.44
538.463	32424.12
538.664	32198.85
538.865	32415.93
539.065	32377.02
539.266	32313.53
539.466	32356.54
539.667	32127.17
539.868	32647.35
540.068	32166.08
540.269	32250.05
540.469	32428.22
540.67	31944.9
540.87	32395.45
541.071	31893.7
541.271	32338.11
541.472	32192.7
541.672	32069.83
541.873	31881.41
542.073	31705.29
542.274	31973.57
542.474	31926.47
542.675	31639.75
542.875	32428.22
543.075	32159.94
543.276	31383.76
543.476	32114.88
543.676	31944.9
543.877	32268.48
544.077	31707.33
544.277	31621.32
544.478	31729.86
544.678	31959.23
544.878	31996.1
545.078	31992
545.279	31641.8
545.479	31504.59
545.679	31637.7
545.879	31596.74
546.079	31652.04
546.28	31647.94
546.48	31619.27
546.68	31736.01
546.88	31590.6
547.08	31627.46
547.28	31256.78
547.48	31811.78
547.68	31551.69
547.88	31426.76
548.081	31967.43
548.281	31910.08
548.481	31717.57
548.681	32024.77
548.881	31793.35
549.081	32026.82
549.28	31133.9
549.48	31801.54
549.68	31832.26
549.88	32180.42
550.08	31850.69
550.28	31609.03
550.48	31967.43
550.68	32014.53
550.88	31549.64
551.08	31592.65
551.279	31862.98
551.479	31817.93
551.679	31637.7
551.879	31705.29
552.079	32280.77
552.278	31611.08
552.478	31742.15
552.678	32006.34
552.878	32250.05
553.077	31905.99
553.277	31779.01
553.477	32346.3
553.676	32004.29
553.876	32280.77
554.076	32280.77
554.275	32118.98
554.475	32010.43
554.674	32225.47
554.874	32411.84
555.074	32053.44
555.273	32178.37
555.473	32438.46
555.672	32024.77
555.872	32379.07
556.071	32297.15
556.271	32555.19
556.47	32202.94
556.67	32108.74
556.869	32295.1
557.068	32276.67
557.268	32417.98
557.467	32465.08
557.667	32438.46
557.866	32434.36
558.065	32331.97
558.265	32073.92
558.464	32245.95
558.663	32884.92
558.863	32297.15
559.062	32841.91
559.261	32338.11
559.461	32575.67
559.66	32321.73
559.859	32196.8
560.058	32196.8
560.258	32467.13
560.457	32291.01
560.656	32510.14
560.855	32495.8
561.054	32667.83
561.253	32086.21
561.453	32596.15
561.652	32594.11
561.851	32682.17
562.05	32487.61
562.249	32063.68
562.448	32368.83
562.647	32669.88
562.846	32254.14
563.045	32022.72
563.244	31709.38
563.443	32479.42
563.642	32116.93
563.841	32573.63
564.04	32362.68
564.239	32612.54
564.438	32141.5
564.637	32123.07
564.836	32155.84
565.035	31729.86
565.234	31989.95
565.432	32145.6
565.631	31797.45
565.83	32495.8
566.029	31490.25
566.228	31848.64
566.427	31762.63
566.625	31928.52
566.824	31637.7
567.023	32010.43
567.222	31512.78
567.42	31953.09
567.619	31566.02
567.818	31451.34
568.016	31602.89
568.215	31496.39
568.414	31281.36
568.612	31346.89
568.811	31045.84
569.01	31195.34
569.208	30910.67
569.407	31350.99
569.605	30662.87
569.804	30933.2
570.002	30494.94
570.201	31275.21
570.4	30900.44
570.598	30404.83
570.797	30535.9
570.995	30423.26
571.193	30337.24
571.392	30666.97
571.59	30089.44
571.789	30150.88
571.987	30171.36
572.186	30247.13
572.384	29898.98
572.582	30226.65
572.781	30077.15
572.979	29524.2
573.177	29976.8
573.376	30103.78
573.574	29413.61
573.772	29935.84
573.971	29509.86
574.169	29548.78
574.367	29182.19
574.565	29331.69
574.763	28782.84
574.962	29135.09
575.16	28831.99
575.358	28942.58
575.556	28461.3
575.754	28696.82
575.952	28426.49
576.151	28842.23
576.349	28147.97
576.547	28498.17
576.745	28295.42
576.943	28590.33
577.141	28182.78
577.339	27977.98
577.537	27871.49
577.735	28088.57
577.933	27621.64
578.131	27994.37
578.329	27556.1
578.527	27422.98
578.725	27732.23
578.923	27504.9
579.121	27203.85
579.319	27201.8
579.516	27365.64
579.714	27310.35
579.912	27183.37
580.11	26874.13
580.308	26790.16
580.506	26792.21
580.704	26333.46
580.901	26751.25
581.099	26968.34
581.297	26673.43
581.495	26200.35
581.692	26583.32
581.89	26290.46
582.088	26421.53
582.285	26167.58
582.483	26317.08
582.681	26145.05
582.878	25997.6
583.076	25712.93
583.274	26061.08
583.471	25645.35
583.669	25923.87
583.866	25714.98
584.064	25684.26
584.262	25422.12
584.459	25901.34
584.657	25336.1
584.854	25332.01
585.052	24938.8
585.249	25282.86
585.447	25293.1
585.644	25059.63
585.841	25166.12
586.039	25110.83
586.236	24797.49
586.434	25119.02
586.631	24936.75
586.828	24525.11
587.026	24682.8
587.223	24627.51
587.42	24375.61
587.618	24805.68
587.815	24357.17
588.012	24418.61
588.21	24377.65
588.407	24387.89
588.604	24330.55
588.801	24459.57
588.999	24172.86
589.196	24346.94
589.393	24342.84
589.59	24017.21
589.787	24027.45
589.984	24080.7
590.182	23718.21
590.379	23925.05
590.576	23390.53
590.773	23726.4
590.97	23892.29
591.167	23826.75
591.364	23312.71
591.561	23771.46
591.758	23712.06
591.955	23351.62
592.152	23877.95
592.349	23380.29
592.546	23449.92
592.743	23660.87
592.94	23058.76
593.137	23368.01
593.334	23423.3
593.531	23071.05
593.727	23290.18
593.924	23089.48
594.121	22980.94
594.318	23480.64
594.515	23021.9
594.712	23382.34
594.908	22884.69
595.105	23120.2
595.302	22835.53
595.499	23064.91
595.696	23052.62
595.892	22917.45
596.089	23017.8
596.286	23011.66
596.482	23001.42
596.679	22911.31
596.876	23136.59
597.072	22890.83
597.269	22745.42
597.466	22729.04
597.662	22774.1
597.859	22774.1
598.055	22899.02
598.252	22718.8
598.448	23089.48
598.645	22997.32
598.841	22843.73
599.038	22896.97
599.234	23019.85
599.431	22804.81
599.627	22903.12
599.824	23310.66
600.02	22956.36
600.217	23001.42
600.413	22819.15
600.609	23103.82
600.806	23079.24
601.002	22982.99
601.198	23185.74
601.395	22747.47
601.591	23259.46
601.787	22954.32
601.984	23007.56
602.18	23255.37
602.376	22925.64
602.572	23329.09
602.769	23232.84
602.965	22882.64
603.161	23148.87
603.357	23116.11
603.553	23107.91
603.75	23628.1
603.946	23161.16
604.142	23423.3
604.338	23312.71
604.534	23513.41
604.73	23322.95
604.926	23376.2
605.122	23599.43
605.318	23341.38
605.514	23408.97
605.71	23482.69
605.906	23540.04
606.102	24035.64
606.298	23812.42
606.494	23675.2
606.69	23765.31
606.886	23814.46
607.082	23599.43
607.278	24060.22
607.474	23802.18
607.67	24072.51
607.866	23636.29
608.062	24418.61
608.257	24195.39
608.453	24473.91
608.649	24324.41
608.845	24056.12
609.041	24217.91
609.236	24320.31
609.432	24074.56
609.628	24578.36
609.824	24164.67
610.019	24215.87
610.215	24353.08
610.411	24297.78
610.606	24623.41
610.802	24725.81
610.998	24623.41
611.193	24748.34
611.389	24596.79
611.584	24482.1
611.78	24676.66
611.976	24891.69
612.171	24723.76
612.367	24658.23
612.562	24631.6
612.758	24400.18
612.953	24518.96
613.149	25000.24
613.344	24940.85
613.539	25266.47
613.735	25022.76
613.93	25289
614.126	24678.71
614.321	25301.29
614.517	24887.6
614.712	25035.05
614.907	24852.78
615.103	25289
615.298	25274.66
615.493	25469.22
615.688	24766.77
615.884	25583.91
616.079	24969.52
616.274	25350.44
616.47	25096.49
616.665	25372.97
616.86	25051.44
617.055	24977.71
617.25	25139.5
617.445	25139.5
617.641	24906.03
617.836	24979.76
618.031	24740.15
618.226	24975.66
618.421	25071.92
618.616	24865.07
618.811	24502.58
619.006	25123.12
619.201	24594.74
619.396	25018.67
619.591	24316.22
619.786	24650.03
619.981	24416.57
620.176	24457.53
620.371	24045.88
620.566	24533.3
620.761	24269.11
620.956	24594.74
621.151	24031.55
621.346	24322.36
621.541	23826.75
621.735	23955.77
621.93	23810.37
622.125	23755.07
622.32	23281.99
622.515	23365.96
622.709	23546.18
622.904	23470.4
623.099	23202.12
623.294	23130.44
623.488	23146.83
623.683	23073.1
623.878	23026
624.072	22878.54
624.267	22712.66
624.462	22440.28
624.656	22624.59
624.851	22634.83
625.046	22876.49
625.24	22260.05
625.435	22323.54
625.629	22094.17
625.824	22081.88
626.018	21967.2
626.213	21381.48
626.407	21789.02
626.602	21344.61
626.796	21453.16
626.991	21647.71
627.185	21307.75
627.38	21543.27
627.574	21057.9
627.768	21182.82
627.963	20914.54
628.157	20748.65
628.352	21037.42
628.546	20580.72
628.74	20353.4
628.935	20296.05
629.129	20345.2
629.323	20091.26
629.517	20246.9
629.712	20316.53
629.906	19966.33
630.1	19947.9
630.294	19779.96
630.489	19663.23
630.683	19911.03
630.877	19626.37
631.071	19456.39
631.265	19353.99
631.459	19239.3
631.653	19171.72
631.848	19069.32
632.042	19108.23
632.236	18919.82
632.43	18661.77
632.624	18694.54
632.818	18602.38
633.012	18563.47
633.206	18397.59
633.4	18590.09
633.594	17977.75
633.788	18157.97
633.982	18289.04
634.176	17838.49
634.369	17848.73
634.563	17490.34
634.757	17220
634.951	17500.58
635.145	17533.34
635.339	17611.17
635.533	17115.56
635.726	17324.45
635.92	16853.42
636.114	17226.15
636.308	17090.98
636.501	17066.41
636.695	16834.99
636.889	16818.6
637.083	16486.83
637.276	16705.96
637.47	16347.57
637.664	16347.57
637.857	16030.13
638.051	16546.22
638.244	16132.53
638.438	16048.57
638.632	15831.48
638.825	15909.3
639.019	15708.6
639.212	15628.73
639.406	15382.98
639.599	15290.82
639.793	15335.87
639.986	14991.81
640.18	15471.04
640.373	14938.57
640.567	14897.61
640.76	14819.78
640.954	14793.16
641.147	14676.43
641.34	14713.29
641.534	14526.92
641.727	14221.78
641.92	14320.08
642.114	14059.99
642.307	14127.57
642.5	14051.8
642.694	13818.33
642.887	13851.1
643.08	14027.22
643.273	13777.37
643.467	13677.02
643.66	13472.22
643.853	13388.25
644.046	13269.47
644.239	13318.62
644.432	13316.58
644.626	12931.56
644.819	12954.08
645.012	13115.87
645.205	13097.44
645.398	12931.56
645.591	12564.97
645.784	12579.31
645.977	12579.31
646.17	12558.83
646.363	12427.76
646.556	12276.21
646.749	12208.62
646.942	12196.34
647.135	12130.8
647.328	11790.84
647.521	11983.35
647.714	11880.95
647.907	11809.27
648.099	11610.62
648.292	11661.82
648.485	11555.32
648.678	11586.04
648.871	11477.5
649.064	11328
649.256	11526.65
649.449	11313.66
649.642	11334.14
649.835	11063.81
650.027	11078.15
650.22	11035.14
650.413	10926.6
650.605	10895.88
650.798	10988.03
650.991	10826.25
651.183	10766.85
651.376	10627.59
651.568	10955.27
651.761	10592.78
651.954	10746.37
652.146	10502.67
652.339	10467.85
652.531	10347.02
652.724	10191.38
652.916	9982.48
653.109	10170.9
653.301	10148.37
653.494	10191.38
653.686	9957.91
653.879	9910.8
654.071	9828.88
654.263	9853.46
654.456	9812.5
654.648	9654.81
654.84	9646.62
655.033	9609.75
655.225	9839.12
655.417	9599.51
655.61	9558.55
655.802	9572.89
655.994	9595.42
656.186	9323.04
656.379	9077.28
656.571	9300.51
656.763	9212.45
656.955	9224.73
657.148	9019.94
657.34	8938.02
657.532	8931.87
657.724	8823.33
657.916	8790.56
658.108	8870.44
658.3	8714.79
658.492	8602.15
658.684	8655.4
658.876	8565.29
659.068	8722.98
659.26	8507.94
659.452	8497.7
659.644	8493.61
659.836	8444.46
660.028	8319.53
660.22	8196.65
660.412	8155.69
660.604	8124.97
660.796	8141.36
660.988	8155.69
661.18	8182.32
661.372	7862.83
661.563	7995.95
661.755	7850.55
661.947	7977.52
662.139	7836.21
662.331	7621.17
662.522	7782.96
662.714	7713.33
662.906	7547.45
663.097	7590.45
663.289	7488.06
663.481	7586.36
663.673	7551.54
663.864	7443
664.056	7393.85
664.247	7393.85
664.439	7242.3
664.631	7320.12
664.822	7219.77
665.014	7240.25
665.205	7094.85
665.397	7203.39
665.588	7060.03
665.78	6980.16
665.971	6926.91
666.163	7092.8
666.354	7029.31
666.546	6881.86
666.737	6795.84
666.929	6658.63
667.12	6976.06
667.311	6578.76
667.503	6689.35
667.694	6709.83
667.885	6756.93
668.077	6437.45
668.268	6414.92
668.459	6429.26
668.651	6406.73
668.842	6337.1
669.033	6435.4
669.224	6480.46
669.416	6421.06
669.607	6349.39
669.798	6328.91
669.989	6349.39
670.18	6152.78
670.371	6353.48
670.563	6328.91
670.754	6201.93
670.945	5997.14
671.136	6077.01
671.327	6130.25
671.518	6087.25
671.709	6154.83
671.9	6171.21
672.091	6087.25
672.282	6001.23
672.473	5888.59
672.664	5917.26
672.855	5927.5
673.046	5866.07
673.237	5771.86
673.428	5909.07
673.619	5937.74
673.809	5730.9
674	5886.54
674.191	6036.05
674.382	5765.71
674.573	5935.7
674.764	5741.14
674.954	5808.72
675.145	5671.51
675.336	5661.27
675.527	5986.9
675.717	5714.52
675.908	5608.02
676.099	5679.7
676.289	5708.37
676.48	5767.76
676.671	5685.84
676.861	5659.22
677.052	5735
677.243	5337.69
677.433	5440.09
677.624	5610.07
677.814	5476.95
678.005	5450.33
678.195	5454.42
678.386	5657.17
678.576	5497.43
678.767	5397.08
678.957	5536.34
679.148	5599.83
679.338	5442.14
679.529	5487.19
679.719	5431.9
679.909	5544.53
680.1	5515.86
680.29	5505.62
680.481	5335.64
680.671	5403.22
680.861	5479
681.052	5507.67
681.242	5468.76
681.432	5567.06
681.622	5413.46
681.813	5304.92
682.003	5356.12
682.193	5497.43
682.383	5708.37
682.573	5423.7
682.764	5372.5
682.954	5233.24
683.144	5567.06
683.334	5476.95
683.524	5382.74
683.714	5349.98
683.904	5444.18
684.094	5175.9
684.284	5225.05
684.474	5339.74
684.664	5395.03
684.854	5339.74
685.044	5249.63
685.234	5169.76
685.424	5290.59
685.614	5315.16
685.804	5339.74
685.994	5251.67
686.184	5290.59
686.374	5124.7
686.564	5196.38
686.753	5220.95
686.943	5157.47
687.133	5130.84
687.323	5192.28
687.513	5225.05
687.702	5069.41
687.892	5190.24
688.082	5182.04
688.272	5202.52
688.461	5237.34
688.651	5214.81
688.841	5001.82
689.03	5030.49
689.22	4960.86
689.41	5149.28
689.599	5071.45
689.789	5169.76
689.979	5038.69
690.168	4989.53
690.358	5003.87
690.547	5022.3
690.737	5007.97
690.926	4987.49
691.116	4878.94
691.305	4981.34
691.495	4878.94
691.684	4850.27
691.874	4942.43
692.063	4842.08
692.252	4975.2
692.442	5085.79
692.631	4745.83
692.82	4733.54
693.01	4821.6
693.199	4850.27
693.388	4850.27
693.578	4872.8
693.767	4749.92
693.956	4731.49
694.146	4698.72
694.335	4780.64
694.524	4672.1
694.713	4850.27
694.902	4715.11
695.092	4680.29
695.281	4620.9
695.47	4782.69
695.659	4680.29
695.848	4694.63
696.037	4846.18
696.226	4627.04
696.415	4633.19
696.604	4878.94
696.793	4584.04
696.982	4594.28
697.171	4543.08
697.36	4553.32
697.549	4577.89
697.738	4485.73
697.927	4461.16
698.116	4596.32
698.305	4543.08
698.494	4471.4
698.683	4479.59
698.872	4559.46
699.061	4412.01
699.25	4522.6
699.438	4526.69
699.627	4475.49
699.816	4522.6
700.005	4330.09
700.193	4452.97
700.382	4500.07
700.571	4350.57
700.76	4354.66
700.948	4510.31
701.137	4313.7
701.326	4338.28
701.514	4315.75
701.703	4407.91
701.892	4199.02
702.08	4358.76
702.269	4268.65
702.457	4256.36
702.646	4352.62
702.834	4215.4
703.023	4166.25
703.212	4209.26
703.4	4174.44
703.589	4168.3
703.777	4330.09
703.965	4055.66
704.154	4166.25
704.342	4182.63
704.531	4094.57
704.719	4135.53
704.907	4119.15
705.096	4043.37
705.284	4063.85
705.472	4035.18
705.661	4258.41
705.849	4094.57
706.037	4223.59
706.226	3990.13
706.414	3979.89
706.602	3977.84
706.79	4037.23
706.979	4037.23
707.167	3971.69
707.355	3910.26
707.543	3910.26
707.731	4037.23
707.919	3912.3
708.107	3969.65
708.296	3996.27
708.484	3961.45
708.672	3861.1
708.86	4014.7
709.048	3822.19
709.236	3836.53
709.424	3996.27
709.612	3791.47
709.8	3764.85
709.988	3719.79
710.176	3711.6
710.364	3801.71
710.551	3670.64
710.739	3840.62
710.927	3789.42
711.115	3748.47
711.303	3691.12
711.491	3633.78
711.679	3625.59
711.866	3766.9
712.054	3734.13
712.242	3633.78
712.43	3654.26
712.617	3621.49
712.805	3547.76
712.993	3484.28
713.181	3381.88
713.368	3609.2
713.556	3431.03
713.744	3574.39
713.931	3674.74
714.119	3576.44
714.306	3433.08
714.494	3406.45
714.682	3431.03
714.869	3486.33
715.057	3428.98
715.244	3443.32
715.432	3375.74
715.619	3347.06
715.807	3381.88
715.994	3381.88
716.182	3474.04
716.369	3463.8
716.556	3398.26
716.744	3320.44
716.931	3236.47
717.119	3404.41
717.306	3392.12
717.493	3211.9
717.681	3285.62
717.868	3371.64
718.055	3228.28
718.242	3142.27
718.43	3215.99
718.617	3207.8
718.804	3340.92
718.991	3113.6
719.179	3289.72
719.366	3240.57
719.553	3224.19
719.74	3076.73
719.927	3240.57
720.114	3166.84
720.301	3107.45
720.488	3086.97
720.676	3035.77
720.863	3207.8
721.05	3144.31
721.237	3142.27
721.424	3021.44
721.611	2984.57
721.798	3017.34
721.985	2937.47
722.172	3041.92
722.358	2957.95
722.545	3027.58
722.732	3021.44
722.919	3052.16
723.106	2953.85
723.293	3019.39
723.48	2888.32
723.667	2945.66
723.853	2853.5
724.04	2884.22
724.227	2808.45
724.414	2863.74
724.6	2816.64
724.787	2849.41
724.974	2779.78
725.161	2884.22
725.347	2699.91
725.534	2814.59
725.72	2953.85
725.907	2896.51
726.094	2826.88
726.28	2837.12
726.467	2867.84
726.653	2931.33
726.84	2898.56
727.027	2790.02
727.213	2761.34
727.4	2814.59
727.586	2839.17
727.773	2544.26
727.959	2720.39
728.145	2769.54
728.332	2710.15
728.518	2785.92
728.705	2808.45
728.891	2726.53
729.077	2650.75
729.264	2734.72
729.45	2663.04
729.636	2769.54
729.823	2667.14
730.009	2759.3
730.195	2544.26
730.382	2642.56
730.568	2515.59
730.754	2650.75
730.94	2552.45
731.126	2620.03
731.313	2626.18
731.499	2628.23
731.685	2519.68
731.871	2568.84
732.057	2558.6
732.243	2548.36
732.429	2546.31
732.615	2531.97
732.801	2480.77
732.987	2503.3
733.173	2505.35
733.359	2536.07
733.545	2503.3
733.731	2425.48
733.917	2626.18
734.103	2544.26
734.289	2486.92
734.475	2529.92
734.661	2538.12
734.847	2521.73
735.033	2306.7
735.219	2445.96
735.404	2368.13
735.59	2286.22
735.776	2445.96
735.962	2491.01
736.148	2364.04
736.333	2474.63
736.519	2425.48
736.705	2392.71
736.89	2341.51
737.076	2341.51
737.262	2249.35
737.447	2298.5
737.633	2448.01
737.819	2343.56
738.004	2323.08
738.19	2351.75
738.375	2237.06
738.561	2392.71
738.747	2294.41
738.932	2259.59
739.118	2273.93
739.303	2187.91
739.489	2235.02
739.674	2136.71
739.859	2165.39
740.045	2323.08
740.23	2218.63
740.416	2159.24
740.601	2243.21
740.786	2159.24
740.972	2210.44
741.157	2101.9
741.342	2108.04
741.528	2126.47
741.713	2120.33
741.898	2022.03
742.084	2085.51
742.269	2093.71
742.454	2120.33
742.639	2118.28
742.824	2099.85
743.01	2095.75
743.195	2081.42
743.38	2003.6
743.565	2001.55
743.75	2019.98
743.935	2007.69
744.12	2105.99
744.305	1956.49
744.49	1956.49
744.675	1921.68
744.86	1987.21
745.045	2009.74
745.23	1897.1
745.415	1905.29
745.6	1981.07
745.785	1899.15
745.97	1999.5
746.155	1811.09
746.34	1940.11
746.525	1776.27
746.71	1999.5
746.895	1821.33
747.079	1753.74
747.264	1864.33
747.449	1882.77
747.634	1888.91
747.819	1858.19
748.003	1704.59
748.188	1680.02
748.373	1692.3
748.557	1827.47
748.742	1872.53
748.927	1634.96
749.111	1780.37
749.296	1716.88
749.481	1772.18
749.665	1634.96
749.85	1612.43
750.034	1612.43
750.219	1667.73
750.404	1604.24
750.588	1661.59
750.773	1579.67
750.957	1565.33
751.141	1512.08
751.326	1577.62
751.51	1557.14
751.695	1606.29
751.879	1540.76
752.064	1569.43
752.248	1462.93
752.432	1471.12
752.617	1446.55
752.801	1485.46
752.985	1413.78
753.17	1495.7
753.354	1434.26
753.538	1448.6
753.722	1458.84
753.907	1432.21
754.091	1340.05
754.275	1413.78
754.459	1415.83
754.643	1356.44
754.828	1372.82
755.012	1381.01
755.196	1399.45
755.38	1342.1
755.564	1295
755.748	1268.38
755.932	1413.78
756.116	1397.4
756.3	1299.09
756.484	1305.24
756.668	1340.05
756.852	1264.28
757.036	1311.38
757.22	1235.61
757.404	1225.37
757.588	1178.26
757.772	1229.46
757.956	1235.61
758.14	1258.14
758.323	1139.35
758.507	1192.6
758.691	1170.07
758.875	1120.92
759.059	1071.77
759.242	1127.07
759.426	1208.98
759.61	1188.5
759.794	1241.75
759.977	1112.73
760.161	1170.07
760.345	1161.88
760.528	1135.26
760.712	1096.35
760.895	1065.63
761.079	1030.81
761.263	1141.4
761.446	1092.25
761.63	1082.01
761.813	1061.53
761.997	1014.43
762.18	1075.87
762.364	1012.38
762.547	998.04
762.731	1069.72
762.914	1004.19
763.098	1000.09
763.281	967.32
763.464	1079.96
763.648	1006.24
763.831	996
764.015	957.08
764.198	1020.57
764.381	955.04
764.564	1000.09
764.748	1061.53
764.931	979.61
765.114	936.6
765.297	987.8
765.481	981.66
765.664	950.94
765.847	901.79
766.03	955.04
766.213	944.8
766.397	967.32
766.58	963.23
766.763	930.46
766.946	897.69
767.129	866.97
767.312	930.46
767.495	916.12
767.678	864.93
767.861	950.94
768.044	875.17
768.227	905.88
768.41	918.17
768.593	815.77
768.776	942.75
768.959	873.12
769.142	1000.09
769.324	897.69
769.507	852.64
769.69	864.93
769.873	905.88
770.056	899.74
770.239	828.06
770.421	940.7
770.604	858.78
770.787	856.73
770.97	817.82
771.152	791.2
771.335	844.45
771.518	774.81
771.7	797.34
771.883	864.93
772.066	836.25
772.248	815.77
772.431	887.45
772.613	922.27
772.796	729.76
772.978	858.78
773.161	768.67
773.343	760.48
773.526	762.53
773.708	686.75
773.891	705.18
774.073	711.33
774.256	678.56
774.438	803.49
774.621	692.9
774.803	701.09
774.985	717.47
775.168	828.06
775.35	709.28
775.532	737.95
775.715	703.14
775.897	717.47
776.079	670.37
776.261	719.52
776.444	694.94
776.626	664.22
776.808	684.7
776.99	725.66
777.173	701.09
777.355	713.38
777.537	660.13
777.719	701.09
777.901	660.13
778.083	602.79
778.265	623.27
778.447	742.05
778.629	557.73
778.811	692.9
778.993	744.1
779.175	537.25
779.357	668.32
779.539	506.53
779.721	584.35
779.903	561.83
780.085	518.82
780.267	565.92
780.449	596.64
780.631	635.55
780.812	590.5
780.994	643.74
781.176	533.15
781.358	555.68
781.54	563.87
781.721	549.54
781.903	635.55
782.085	529.06
782.267	637.6
782.448	529.06
782.63	549.54
782.812	516.77
782.993	522.91
783.175	455.33
783.357	598.69
783.538	549.54
783.72	541.35
783.901	596.64
784.083	578.21
784.264	373.41
784.446	432.8
784.627	397.99
784.809	498.34
784.99	418.47
785.172	438.95
785.353	402.08
785.535	406.18
785.716	471.72
785.897	391.84
786.079	516.77
786.26	504.48
786.441	441
786.623	383.65
786.804	432.8
786.985	397.99
787.167	481.96
787.348	379.56
787.529	441
787.71	408.23
787.891	432.8
788.073	436.9
788.254	342.69
788.435	465.57
788.616	488.1
788.797	350.89
788.978	359.08
789.159	307.88
789.34	414.37
789.522	361.13
789.703	348.84
789.884	379.56
790.065	410.28
790.246	481.96
790.427	342.69
790.607	436.9
790.788	373.41
790.969	324.26
791.15	346.79
791.331	375.46
791.512	307.88
791.693	414.37
791.874	340.65
792.054	414.37
792.235	375.46
792.416	324.26
792.597	342.69
792.778	373.41
792.958	365.22
793.139	361.13
793.32	324.26
793.5	307.88
793.681	383.65
793.862	414.37
794.042	258.73
794.223	242.34
794.404	393.89
794.584	277.16
794.765	344.74
794.945	250.53
795.126	383.65
795.306	340.65
795.487	334.5
795.667	258.73
795.848	311.97
796.028	330.41
796.209	307.88
796.389	293.54
796.57	397.99
796.75	234.15
796.93	275.11
797.111	303.78
797.291	242.34
797.471	254.63
797.652	250.53
797.832	285.35
798.012	266.92
798.192	228.01
798.373	197.29
798.553	252.58
798.733	348.84
798.913	301.73
799.093	295.59
799.274	287.4
799.454	301.73
799.634	258.73
799.814	258.73
799.994	260.77
800.174	275.11
800.354	264.87
800.534	234.15
800.714	293.54
800.894	178.86
801.074	168.62
801.254	252.58
801.434	176.81
801.614	275.11
801.794	174.76
801.974	860.83
802.154	252.58
802.334	242.34
802.514	180.9
802.693	230.06
802.873	221.86
803.053	299.69
803.233	377.51
803.413	152.23
803.592	168.62
803.772	154.28
803.952	225.96
804.131	180.9
804.311	160.42
804.491	213.67
804.67	203.43
804.85	164.52
805.03	176.81
805.209	258.73
805.389	170.66
805.568	250.53
805.748	197.29
805.928	160.42
806.107	232.1
806.287	211.62
806.466	217.77
806.646	201.38
806.825	195.24
807.004	193.19
807.184	266.92
807.363	330.41
807.543	244.39
807.722	217.77
807.901	256.68
808.081	234.15
808.26	203.43
808.439	193.19
808.619	193.19
808.798	178.86
808.977	189.1
809.156	225.96
809.336	170.66
809.515	152.23
809.694	172.71
809.873	166.57
810.052	131.75
810.231	225.96
810.411	187.05
810.59	152.23
810.769	119.46
810.948	127.66
811.127	127.66
811.306	223.91
811.485	107.18
811.664	168.62
811.843	152.23
812.022	144.04
812.201	148.14
812.38	189.1
812.559	82.6
812.737	244.39
812.916	111.27
813.095	154.28
813.274	129.7
813.453	144.04
813.632	217.77
813.811	195.24
813.989	154.28
814.168	162.47
814.347	105.13
814.526	201.38
814.704	168.62
814.883	160.42
815.062	80.55
815.24	127.66
815.419	152.23
815.598	172.71
815.776	90.79
815.955	162.47
816.133	80.55
816.312	129.7
816.49	166.57
816.669	127.66
816.847	148.14
817.026	195.24
817.204	101.03
817.383	168.62
817.561	94.89
817.74	123.56
817.918	185
818.097	164.52
818.275	84.65
818.453	225.96
818.632	135.85
818.81	189.1
818.988	111.27
819.167	154.28
819.345	170.66
819.523	74.41
819.701	41.64
819.879	174.76
820.058	53.93
820.236	105.13
820.414	119.46
820.592	125.61
820.77	86.7
820.948	78.51
821.127	103.08
821.305	98.99
821.483	144.04
821.661	195.24
821.839	94.89
822.017	131.75
822.195	55.98
822.373	162.47
822.551	25.26
822.729	135.85
822.907	111.27
823.085	137.9
823.262	17.07
823.44	111.27
823.618	53.93
823.796	82.6
823.974	43.69
824.152	125.61
824.329	53.93
824.507	166.57
824.685	80.55
824.863	74.41
825.04	80.55
825.218	127.66
825.396	111.27
825.574	133.8
825.751	88.75
825.929	121.51
826.107	123.56
826.284	119.46
826.462	115.37
826.639	152.23
826.817	72.36
826.994	135.85
827.172	119.46
827.349	129.7
827.527	103.08
827.704	45.74
827.882	94.89
828.059	64.17
828.237	129.7
828.414	66.22
828.591	-32.08
828.769	98.99
828.946	-7.51
829.124	84.65
829.301	45.74
829.478	107.18
829.655	70.31
829.833	80.55
830.01	64.17
830.187	135.85
830.364	96.94
830.542	86.7
830.719	119.46
830.896	49.83
831.073	82.6
831.25	84.65
831.427	103.08
831.604	37.55
831.782	107.18
831.959	86.7
832.136	45.74
832.313	74.41
832.49	27.31
832.667	82.6
832.844	49.83
833.021	178.86
833.198	74.41
833.374	119.46
833.551	-3.41
833.728	113.32
833.905	88.75
834.082	105.13
834.259	58.03
834.436	96.94
834.612	94.89
834.789	82.6
834.966	17.07
835.143	74.41
835.319	129.7
835.496	111.27
835.673	119.46
835.85	168.62
836.026	21.16
836.203	168.62
836.38	41.64
836.556	103.08
836.733	60.07
836.909	111.27
837.086	17.07
837.262	98.99
837.439	53.93
837.616	45.74
837.792	45.74
837.968	33.45
838.145	12.97
838.321	70.31
838.498	62.12
838.674	103.08
838.851	47.79
839.027	62.12
839.203	80.55
839.38	111.27
839.556	12.97
839.732	66.22
839.909	45.74
840.085	53.93
840.261	37.55
840.437	121.51
840.614	94.89
840.79	111.27
840.966	84.65
841.142	-9.56
841.318	53.93
841.494	98.99
841.671	103.08
841.847	-1.37
842.023	135.85
842.199	121.51
842.375	53.93
842.551	12.97
842.727	17.07
842.903	64.17
843.079	82.6
843.255	78.51
843.431	49.83
843.607	0.68
843.783	-19.8
843.959	90.79
844.134	-11.61
844.31	129.7
844.486	86.7
844.662	68.27
844.838	66.22
845.013	113.32
845.189	103.08
845.365	29.35
845.541	29.35
845.716	-9.56
845.892	80.55
846.068	45.74
846.244	51.88
846.419	82.6
846.595	78.51
846.77	47.79
846.946	66.22
847.122	-9.56
847.297	31.4
847.473	58.03
847.648	-27.99
847.824	78.51
847.999	-36.18
848.175	-30.04
848.35	4.78
848.526	60.07
848.701	6.83
848.876	37.55
849.052	64.17
849.227	12.97
849.403	62.12
849.578	12.97
849.753	39.59
849.929	33.45
850.104	37.55
850.279	-38.23
850.454	64.17
850.63	23.21
850.805	-13.65
850.98	94.89
851.155	82.6
851.33	-3.41
851.505	72.36
851.681	139.94
851.856	-11.61
852.031	23.21
852.206	96.94
852.381	-3.41
852.556	-1.37
852.731	88.75
852.906	12.97
853.081	58.03
853.256	80.55
853.431	82.6
853.606	-36.18
853.781	66.22
853.956	-11.61
854.131	35.5
854.305	72.36
854.48	-11.61
854.655	8.87
854.83	37.55
855.005	35.5
855.18	53.93
855.354	66.22
855.529	70.31
855.704	-19.8
855.879	45.74
856.053	-34.13
856.228	-21.85
856.403	35.5
856.577	31.4
856.752	-48.47
856.926	6.83
857.101	-36.18
857.276	12.97
857.45	53.93
857.625	-3.41
857.799	15.02
857.974	49.83
858.148	-44.37
858.323	23.21
858.497	15.02
858.672	-15.7
858.846	-3.41
859.02	41.64
859.195	39.59
859.369	17.07
859.543	4.78
859.718	41.64
859.892	60.07
860.066	150.18
860.241	21.16
860.415	-19.8
860.589	37.55
860.763	82.6
860.938	8.87
861.112	12.97
861.286	15.02
861.46	33.45
861.634	62.12
861.808	37.55
861.982	8.87
862.157	29.35
862.331	23.21
862.505	-30.04
862.679	-7.51
862.853	53.93
863.027	-3.41
863.201	72.36
863.375	45.74
863.549	78.51
863.722	45.74
863.896	88.75
864.07	78.51
864.244	-3.41
864.418	-11.61
864.592	-11.61
864.766	33.45
864.939	21.16
865.113	-36.18
865.287	105.13
865.461	37.55
865.634	58.03
865.808	-30.04
865.982	4.78
866.156	-11.61
866.329	45.74
866.503	17.07
866.676	76.46
866.85	-15.7
867.024	4.78
867.197	49.83
867.371	23.21
867.544	-1.37
867.718	-50.52
867.891	47.79
868.065	-44.37
868.238	-3.41
868.412	82.6
868.585	-13.65
868.759	21.16
868.932	-9.56
869.105	-46.42
869.279	39.59
869.452	15.02
869.625	70.31
869.799	82.6
869.972	45.74
870.145	-32.08
870.319	53.93
870.492	53.93
870.665	96.94
870.838	31.4
871.011	-52.56
871.185	62.12
871.358	-1.37
871.531	17.07
871.704	74.41
871.877	45.74
872.05	15.02
872.223	-75.09
872.396	31.4
872.569	15.02
872.742	2.73
872.915	25.26
873.088	6.83
873.261	-44.37
873.434	86.7
873.607	-56.66
873.78	74.41
873.953	-44.37
874.126	41.64
874.299	-36.18
874.471	-21.85
874.644	47.79
874.817	29.35
874.99	62.12
875.163	47.79
875.335	12.97
875.508	-3.41
875.681	10.92
875.853	8.87
876.026	15.02
876.199	19.11
876.371	-11.61
876.544	-3.41
876.717	0.68
876.889	-11.61
877.062	2.73
877.234	-44.37
877.407	31.4
877.579	31.4
877.752	-13.65
877.924	39.59
878.097	64.17
878.269	88.75
878.442	-23.89
878.614	66.22
878.786	60.07
878.959	-101.72
879.131	41.64
879.303	-32.08
879.476	-27.99
879.648	21.16
879.82	64.17
879.993	29.35
880.165	-19.8
880.337	0.68
880.509	8.87
880.681	-79.19
880.854	-40.28
881.026	29.35
881.198	78.51
881.37	-62.8
881.542	12.97
881.714	29.35
881.886	-13.65
882.058	29.35
882.23	29.35
882.402	-27.99
882.574	37.55
882.746	68.27
882.918	70.31
883.09	-7.51
883.262	12.97
883.434	-44.37
883.606	8.87
883.778	25.26
883.95	94.89
884.122	6.83
884.293	33.45
884.465	31.4
884.637	31.4
884.809	25.26
884.98	90.79
885.152	-7.51
885.324	21.16
885.496	4.78
885.667	-75.09
885.839	-21.85
886.011	33.45
886.182	-1.37
886.354	27.31
886.525	-13.65
886.697	-25.94
886.869	-21.85
887.04	-3.41
887.212	-3.41
887.383	53.93
887.555	-5.46
887.726	-30.04
887.897	-36.18
888.069	23.21
888.24	15.02
888.412	-36.18
888.583	-36.18
888.754	15.02
888.926	-42.32
889.097	-19.8
889.268	17.07
889.44	12.97
889.611	-32.08
889.782	-60.76
889.953	-44.37
890.125	-11.61
890.296	-30.04
890.467	-44.37
890.638	-13.65
890.809	-32.08
890.98	12.97
891.151	41.64
891.323	-27.99
891.494	2.73
891.665	21.16
891.836	-17.75
892.007	-34.13
892.178	55.98
892.349	-7.51
892.52	-17.75
892.691	31.4
892.862	-44.37
893.032	-44.37
893.203	-42.32
893.374	-3.41
893.545	-27.99
893.716	41.64
893.887	10.92
894.057	0.68
894.228	17.07
894.399	37.55
894.57	94.89
894.74	-52.56
894.911	-58.71
895.082	53.93
895.253	45.74
895.423	27.31
895.594	-23.89
895.764	47.79
895.935	-17.75
896.106	-34.13
896.276	49.83
896.447	58.03
896.617	-7.51
896.788	-56.66
896.958	84.65
897.129	45.74
897.299	-17.75
897.47	49.83
897.64	35.5
897.81	-19.8
897.981	47.79
898.151	-27.99
898.322	62.12
898.492	29.35
898.662	-44.37
898.832	8.87
899.003	4.78
899.173	19.11
899.343	-23.89
899.513	-27.99
