Data from USB4F104151__291__14-34-52-974.txt Node

Date: Thu Mar 13 14:34:52 EDT 2025
User: louis
Spectrometer: USB4F10415
Trigger mode: 4
Integration Time (sec): 2.500000E-2
Scans to average: 1
Electric dark correction enabled: true
Nonlinearity correction enabled: false
Boxcar width: 0
XAxis mode: Wavelengths
Number of Pixels in Spectrum: 3648
>>>>>Begin Spectral Data<<<<<
178.204	-153.09
178.424	-153.09
178.644	-153.09
178.864	-169.47
179.084	-189.95
179.304	-42.5
179.524	-38.4
179.744	-40.45
179.964	43.52
180.184	72.19
180.404	-19.97
180.624	-1.54
180.844	55.81
181.064	-54.78
181.283	35.33
181.503	4.61
181.723	-13.82
181.943	-1.54
182.163	76.29
182.383	-36.35
182.602	18.94
182.822	41.47
183.042	68.09
183.262	-13.82
183.482	70.14
183.701	-13.82
183.921	49.66
184.141	18.94
184.361	10.75
184.58	16.9
184.8	31.23
185.02	-79.36
185.239	29.18
185.459	84.48
185.679	117.25
185.898	18.94
186.118	102.91
186.338	35.33
186.557	96.77
186.777	-36.35
186.997	4.61
187.216	-32.26
187.436	76.29
187.655	45.57
187.875	-38.4
188.095	-22.02
188.314	6.66
188.534	-13.82
188.753	-5.63
188.973	86.53
189.192	23.04
189.412	35.33
189.631	82.43
189.851	35.33
190.07	45.57
190.29	-15.87
190.509	27.14
190.729	-19.97
190.948	94.72
191.168	137.73
191.387	27.14
191.607	37.38
191.826	27.14
192.045	-5.63
192.265	51.71
192.484	45.57
192.704	27.14
192.923	-46.59
193.142	78.33
193.362	-5.63
193.581	55.81
193.8	-5.63
194.02	84.48
194.239	-38.4
194.458	66.05
194.678	-5.63
194.897	18.94
195.116	-30.21
195.335	-36.35
195.555	6.66
195.774	-22.02
195.993	27.14
196.212	-1.54
196.432	74.24
196.651	-5.63
196.87	135.68
197.089	68.09
197.308	10.75
197.528	-5.63
197.747	45.57
197.966	-38.4
198.185	94.72
198.404	37.38
198.623	41.47
198.842	150.01
199.062	82.43
199.281	27.14
199.5	35.33
199.719	-5.63
199.938	18.94
200.157	2.56
200.376	37.38
200.595	78.33
200.814	12.8
201.033	74.24
201.252	29.18
201.471	-5.63
201.69	25.09
201.909	37.38
202.128	43.52
202.347	55.81
202.566	16.9
202.785	-52.74
203.004	-46.59
203.223	150.01
203.442	18.94
203.661	23.04
203.879	86.53
204.098	35.33
204.317	-13.82
204.536	45.57
204.755	61.95
204.974	68.09
205.193	-3.58
205.411	170.49
205.63	-19.97
205.849	4.61
206.068	-3.58
206.287	-26.11
206.505	66.05
206.724	76.29
206.943	-60.93
207.162	4.61
207.381	12.8
207.599	-3.58
207.818	41.47
208.037	12.8
208.255	-22.02
208.474	-69.12
208.693	4.61
208.911	-5.63
209.13	27.14
209.349	59.9
209.567	68.09
209.786	82.43
210.005	-15.87
210.223	-28.16
210.442	10.75
210.661	33.28
210.879	25.09
211.098	53.76
211.316	10.75
211.535	-15.87
211.753	-9.73
211.972	84.48
212.191	-13.82
212.409	-44.54
212.628	37.38
212.846	12.8
213.065	18.94
213.283	100.86
213.502	18.94
213.72	-22.02
213.938	2.56
214.157	33.28
214.375	2.56
214.594	-5.63
214.812	51.71
215.031	20.99
215.249	18.94
215.467	55.81
215.686	29.18
215.904	39.42
216.122	-46.59
216.341	80.38
216.559	-11.78
216.778	37.38
216.996	66.05
217.214	76.29
217.432	104.96
217.651	-11.78
217.869	51.71
218.087	10.75
218.306	39.42
218.524	-5.63
218.742	76.29
218.96	76.29
219.179	-15.87
219.397	59.9
219.615	80.38
219.833	47.62
220.051	39.42
220.27	53.76
220.488	37.38
220.706	35.33
220.924	-32.26
221.142	-62.98
221.36	61.95
221.578	-26.11
221.796	76.29
222.015	-1.54
222.233	35.33
222.451	51.71
222.669	-71.17
222.887	-32.26
223.105	39.42
223.323	0.51
223.541	64
223.759	53.76
223.977	4.61
224.195	92.67
224.413	53.76
224.631	39.42
224.849	37.38
225.067	168.45
225.285	-13.82
225.503	41.47
225.721	-28.16
225.939	64
226.157	2.56
226.375	111.1
226.592	-17.92
226.81	10.75
227.028	47.62
227.246	133.63
227.464	-1.54
227.682	78.33
227.9	51.71
228.117	70.14
228.335	100.86
228.553	43.52
228.771	-24.06
228.989	66.05
229.206	61.95
229.424	-11.78
229.642	-26.11
229.86	-40.45
230.077	41.47
230.295	68.09
230.513	43.52
230.731	100.86
230.948	88.57
231.166	76.29
231.384	10.75
231.601	6.66
231.819	84.48
232.037	-13.82
232.254	-34.3
232.472	27.14
232.689	-17.92
232.907	37.38
233.125	-46.59
233.342	27.14
233.56	49.66
233.777	27.14
233.995	53.76
234.213	82.43
234.43	8.7
234.648	-42.5
234.865	-52.74
235.083	100.86
235.3	-19.97
235.518	20.99
235.735	84.48
235.953	76.29
236.17	6.66
236.388	64
236.605	16.9
236.822	53.76
237.04	41.47
237.257	88.57
237.475	10.75
237.692	37.38
237.909	51.71
238.127	66.05
238.344	-1.54
238.562	37.38
238.779	-17.92
238.996	-19.97
239.214	59.9
239.431	47.62
239.648	2.56
239.865	82.43
240.083	64
240.3	10.75
240.517	68.09
240.735	18.94
240.952	35.33
241.169	6.66
241.386	-5.63
241.603	-3.58
241.821	-77.31
242.038	35.33
242.255	82.43
242.472	-5.63
242.689	47.62
242.907	84.48
243.124	14.85
243.341	70.14
243.558	14.85
243.775	-58.88
243.992	29.18
244.209	-3.58
244.426	100.86
244.643	45.57
244.86	35.33
245.078	68.09
245.295	43.52
245.512	-38.4
245.729	-85.5
245.946	-5.63
246.163	-3.58
246.38	162.3
246.597	12.8
246.814	-13.82
247.031	14.85
247.248	70.14
247.464	-13.82
247.681	35.33
247.898	23.04
248.115	16.9
248.332	18.94
248.549	133.63
248.766	70.14
248.983	51.71
249.2	12.8
249.417	74.24
249.633	2.56
249.85	29.18
250.067	43.52
250.284	70.14
250.501	92.67
250.717	27.14
250.934	-79.36
251.151	18.94
251.368	16.9
251.585	27.14
251.801	29.18
252.018	-54.78
252.235	-28.16
252.451	20.99
252.668	2.56
252.885	2.56
253.102	49.66
253.318	47.62
253.535	-17.92
253.752	14.85
253.968	-5.63
254.185	10.75
254.401	59.9
254.618	31.23
254.835	-34.3
255.051	39.42
255.268	94.72
255.484	39.42
255.701	72.19
255.917	31.23
256.134	96.77
256.351	-22.02
256.567	10.75
256.784	51.71
257	45.57
257.217	27.14
257.433	70.14
257.65	59.9
257.866	92.67
258.082	43.52
258.299	27.14
258.515	29.18
258.732	-9.73
258.948	35.33
259.165	-5.63
259.381	43.52
259.597	68.09
259.814	45.57
260.03	43.52
260.246	61.95
260.463	88.57
260.679	31.23
260.895	104.96
261.112	92.67
261.328	53.76
261.544	14.85
261.761	98.81
261.977	-1.54
262.193	-5.63
262.409	68.09
262.626	61.95
262.842	35.33
263.058	-38.4
263.274	31.23
263.49	31.23
263.707	-11.78
263.923	-30.21
264.139	2.56
264.355	-3.58
264.571	141.82
264.787	4.61
265.004	4.61
265.22	35.33
265.436	43.52
265.652	18.94
265.868	33.28
266.084	-28.16
266.3	-7.68
266.516	-15.87
266.732	78.33
266.948	37.38
267.164	-22.02
267.38	2.56
267.596	57.86
267.812	100.86
268.028	29.18
268.244	-38.4
268.46	23.04
268.676	-30.21
268.892	20.99
269.108	2.56
269.324	-22.02
269.54	27.14
269.756	45.57
269.972	-5.63
270.188	2.56
270.403	-69.12
270.619	-58.88
270.835	31.23
271.051	-5.63
271.267	-17.92
271.483	59.9
271.698	25.09
271.914	20.99
272.13	-46.59
272.346	-15.87
272.562	102.91
272.777	41.47
272.993	53.76
273.209	45.57
273.425	-24.06
273.64	-5.63
273.856	39.42
274.072	18.94
274.287	6.66
274.503	94.72
274.719	51.71
274.934	-30.21
275.15	35.33
275.366	27.14
275.581	4.61
275.797	35.33
276.012	61.95
276.228	-36.35
276.444	64
276.659	51.71
276.875	-15.87
277.09	29.18
277.306	68.09
277.521	86.53
277.737	59.9
277.952	-11.78
278.168	-26.11
278.383	-9.73
278.599	-36.35
278.814	-30.21
279.03	80.38
279.245	37.38
279.461	39.42
279.676	37.38
279.892	27.14
280.107	35.33
280.322	-1.54
280.538	12.8
280.753	27.14
280.969	25.09
281.184	47.62
281.399	53.76
281.615	39.42
281.83	104.96
282.045	35.33
282.26	-22.02
282.476	10.75
282.691	31.23
282.906	-17.92
283.122	70.14
283.337	-28.16
283.552	129.53
283.767	53.76
283.983	100.86
284.198	80.38
284.413	39.42
284.628	-7.68
284.843	45.57
285.058	47.62
285.274	2.56
285.489	-1.54
285.704	43.52
285.919	39.42
286.134	20.99
286.349	31.23
286.564	-48.64
286.779	102.91
286.995	47.62
287.21	-42.5
287.425	35.33
287.64	53.76
287.855	-22.02
288.07	-69.12
288.285	-22.02
288.5	47.62
288.715	27.14
288.93	53.76
289.145	8.7
289.36	-13.82
289.575	25.09
289.79	113.15
290.004	37.38
290.219	45.57
290.434	51.71
290.649	4.61
290.864	35.33
291.079	53.76
291.294	20.99
291.509	18.94
291.724	94.72
291.938	23.04
292.153	55.81
292.368	-11.78
292.583	23.04
292.798	10.75
293.012	23.04
293.227	39.42
293.442	4.61
293.657	109.05
293.871	68.09
294.086	6.66
294.301	86.53
294.516	168.45
294.73	16.9
294.945	25.09
295.16	109.05
295.374	10.75
295.589	10.75
295.804	45.57
296.018	27.14
296.233	59.9
296.447	29.18
296.662	29.18
296.877	80.38
297.091	37.38
297.306	76.29
297.52	27.14
297.735	35.33
297.949	61.95
298.164	43.52
298.378	-5.63
298.593	12.8
298.807	-3.58
299.022	76.29
299.236	49.66
299.451	10.75
299.665	109.05
299.88	41.47
300.094	-1.54
300.309	-1.54
300.523	59.9
300.737	29.18
300.952	59.9
301.166	61.95
301.381	43.52
301.595	23.04
301.809	35.33
302.024	-46.59
302.238	31.23
302.452	121.34
302.667	59.9
302.881	72.19
303.095	92.67
303.309	33.28
303.524	-17.92
303.738	53.76
303.952	-3.58
304.166	92.67
304.381	-36.35
304.595	14.85
304.809	-34.3
305.023	27.14
305.237	-11.78
305.452	-36.35
305.666	55.81
305.88	64
306.094	37.38
306.308	35.33
306.522	84.48
306.736	64
306.95	70.14
307.164	-5.63
307.379	43.52
307.593	61.95
307.807	35.33
308.021	53.76
308.235	107.01
308.449	20.99
308.663	27.14
308.877	55.81
309.091	68.09
309.305	68.09
309.519	-9.73
309.733	59.9
309.947	31.23
310.161	35.33
310.374	45.57
310.588	4.61
310.802	8.7
311.016	43.52
311.23	158.21
311.444	59.9
311.658	-44.54
311.872	23.04
312.085	117.25
312.299	59.9
312.513	29.18
312.727	53.76
312.941	6.66
313.154	88.57
313.368	12.8
313.582	82.43
313.796	39.42
314.009	-11.78
314.223	43.52
314.437	113.15
314.651	125.44
314.864	10.75
315.078	59.9
315.292	0.51
315.505	47.62
315.719	4.61
315.933	10.75
316.146	27.14
316.36	39.42
316.573	94.72
316.787	18.94
317.001	66.05
317.214	-44.54
317.428	59.9
317.641	2.56
317.855	29.18
318.068	-30.21
318.282	47.62
318.495	68.09
318.709	59.9
318.922	-60.93
319.136	37.38
319.349	80.38
319.563	43.52
319.776	145.92
319.99	41.47
320.203	113.15
320.417	-1.54
320.63	16.9
320.843	70.14
321.057	10.75
321.27	43.52
321.483	51.71
321.697	107.01
321.91	18.94
322.124	43.52
322.337	4.61
322.55	-54.78
322.763	68.09
322.977	-1.54
323.19	-71.17
323.403	121.34
323.617	23.04
323.83	115.2
324.043	-36.35
324.256	31.23
324.469	-1.54
324.683	47.62
324.896	39.42
325.109	76.29
325.322	61.95
325.535	80.38
325.748	129.53
325.962	35.33
326.175	76.29
326.388	27.14
326.601	111.1
326.814	10.75
327.027	119.29
327.24	94.72
327.453	74.24
327.666	51.71
327.879	27.14
328.092	70.14
328.305	6.66
328.518	12.8
328.731	29.18
328.944	94.72
329.157	41.47
329.37	57.86
329.583	12.8
329.796	117.25
330.009	-24.06
330.222	80.38
330.435	64
330.648	115.2
330.861	53.76
331.073	16.9
331.286	23.04
331.499	182.78
331.712	-1.54
331.925	68.09
332.138	-3.58
332.35	123.39
332.563	-22.02
332.776	109.05
332.989	-19.97
333.202	31.23
333.414	27.14
333.627	6.66
333.84	29.18
334.053	57.86
334.265	-42.5
334.478	10.75
334.691	6.66
334.903	64
335.116	-40.45
335.329	98.81
335.541	43.52
335.754	2.56
335.966	6.66
336.179	107.01
336.392	20.99
336.604	53.76
336.817	111.1
337.029	59.9
337.242	-17.92
337.454	45.57
337.667	23.04
337.88	53.76
338.092	107.01
338.305	41.47
338.517	-69.12
338.729	59.9
338.942	131.58
339.154	31.23
339.367	43.52
339.579	35.33
339.792	20.99
340.004	53.76
340.217	68.09
340.429	37.38
340.641	27.14
340.854	59.9
341.066	-9.73
341.278	121.34
341.491	68.09
341.703	35.33
341.915	4.61
342.128	53.76
342.34	53.76
342.552	78.33
342.764	-3.58
342.977	10.75
343.189	6.66
343.401	61.95
343.613	39.42
343.826	31.23
344.038	-24.06
344.25	84.48
344.462	35.33
344.674	-30.21
344.886	100.86
345.099	92.67
345.311	2.56
345.523	92.67
345.735	-5.63
345.947	113.15
346.159	-26.11
346.371	76.29
346.583	68.09
346.795	104.96
347.007	2.56
347.219	78.33
347.431	39.42
347.643	43.52
347.855	51.71
348.067	72.19
348.279	-3.58
348.491	27.14
348.703	12.8
348.915	-19.97
349.127	-13.82
349.339	12.8
349.551	20.99
349.763	88.57
349.975	-48.64
350.187	12.8
350.399	111.1
350.61	68.09
350.822	2.56
351.034	29.18
351.246	84.48
351.458	37.38
351.669	96.77
351.881	61.95
352.093	127.49
352.305	51.71
352.517	14.85
352.728	94.72
352.94	53.76
353.152	92.67
353.363	-3.58
353.575	53.76
353.787	37.38
353.999	68.09
354.21	109.05
354.422	10.75
354.633	57.86
354.845	35.33
355.057	39.42
355.268	61.95
355.48	117.25
355.692	55.81
355.903	12.8
356.115	49.66
356.326	14.85
356.538	68.09
356.749	41.47
356.961	43.52
357.172	78.33
357.384	43.52
357.595	100.86
357.807	78.33
358.018	-9.73
358.23	100.86
358.441	100.86
358.653	76.29
358.864	51.71
359.075	-62.98
359.287	51.71
359.498	39.42
359.709	59.9
359.921	64
360.132	102.91
360.344	18.94
360.555	80.38
360.766	51.71
360.977	51.71
361.189	51.71
361.4	70.14
361.611	64
361.823	94.72
362.034	76.29
362.245	-38.4
362.456	45.57
362.667	70.14
362.879	10.75
363.09	18.94
363.301	37.38
363.512	45.57
363.723	-9.73
363.935	72.19
364.146	86.53
364.357	55.81
364.568	84.48
364.779	-13.82
364.99	-7.68
365.201	10.75
365.412	113.15
365.623	-5.63
365.834	68.09
366.045	70.14
366.256	102.91
366.467	51.71
366.678	127.49
366.889	2.56
367.1	72.19
367.311	55.81
367.522	37.38
367.733	51.71
367.944	76.29
368.155	-5.63
368.366	61.95
368.577	166.4
368.788	10.75
368.999	2.56
369.209	-15.87
369.42	125.44
369.631	113.15
369.842	61.95
370.053	29.18
370.264	35.33
370.474	-5.63
370.685	51.71
370.896	47.62
371.107	70.14
371.317	57.86
371.528	117.25
371.739	119.29
371.95	125.44
372.16	107.01
372.371	53.76
372.582	27.14
372.792	8.7
373.003	102.91
373.214	23.04
373.424	107.01
373.635	-22.02
373.846	80.38
374.056	76.29
374.267	41.47
374.477	72.19
374.688	43.52
374.898	45.57
375.109	59.9
375.319	20.99
375.53	66.05
375.74	90.62
375.951	10.75
376.161	20.99
376.372	76.29
376.582	27.14
376.793	27.14
377.003	39.42
377.214	68.09
377.424	70.14
377.635	70.14
377.845	76.29
378.055	35.33
378.266	72.19
378.476	49.66
378.686	55.81
378.897	76.29
379.107	-1.54
379.317	68.09
379.528	131.58
379.738	68.09
379.948	53.76
380.158	57.86
380.369	76.29
380.579	84.48
380.789	35.33
380.999	43.52
381.21	100.86
381.42	80.38
381.63	111.1
381.84	102.91
382.05	29.18
382.261	92.67
382.471	4.61
382.681	61.95
382.891	113.15
383.101	117.25
383.311	0.51
383.521	51.71
383.731	174.59
383.941	100.86
384.151	76.29
384.361	70.14
384.571	113.15
384.781	111.1
384.991	117.25
385.201	96.77
385.411	111.1
385.621	125.44
385.831	-3.58
386.041	45.57
386.251	68.09
386.461	27.14
386.671	92.67
386.881	88.57
387.091	78.33
387.301	133.63
387.511	72.19
387.72	86.53
387.93	-9.73
388.14	29.18
388.35	10.75
388.56	59.9
388.769	49.66
388.979	53.76
389.189	20.99
389.399	31.23
389.609	78.33
389.818	29.18
390.028	94.72
390.238	4.61
390.447	57.86
390.657	92.67
390.867	35.33
391.076	10.75
391.286	35.33
391.496	51.71
391.705	59.9
391.915	129.53
392.125	53.76
392.334	-3.58
392.544	117.25
392.753	84.48
392.963	27.14
393.172	70.14
393.382	104.96
393.591	72.19
393.801	37.38
394.01	168.45
394.22	39.42
394.429	150.01
394.639	125.44
394.848	158.21
395.058	47.62
395.267	59.9
395.477	68.09
395.686	68.09
395.895	135.68
396.105	207.36
396.314	78.33
396.524	141.82
396.733	76.29
396.942	98.81
397.152	119.29
397.361	51.71
397.57	131.58
397.78	82.43
397.989	111.1
398.198	158.21
398.407	141.82
398.617	92.67
398.826	178.69
399.035	96.77
399.244	90.62
399.453	90.62
399.663	127.49
399.872	76.29
400.081	-22.02
400.29	141.82
400.499	127.49
400.708	135.68
400.917	209.4
401.127	154.11
401.336	129.53
401.545	201.21
401.754	94.72
401.963	174.59
402.172	96.77
402.381	141.82
402.59	125.44
402.799	72.19
403.008	193.02
403.217	182.78
403.426	174.59
403.635	125.44
403.844	137.73
404.053	104.96
404.262	162.3
404.471	223.74
404.68	150.01
404.888	258.56
405.097	109.05
405.306	172.54
405.515	270.84
405.724	109.05
405.933	223.74
406.142	176.64
406.35	285.18
406.559	141.82
406.768	207.36
406.977	297.47
407.185	203.26
407.394	289.28
407.603	334.33
407.812	281.08
408.02	342.52
408.229	289.28
408.438	332.28
408.646	346.62
408.855	256.51
409.064	297.47
409.272	354.81
409.481	358.91
409.69	285.18
409.898	393.72
410.107	430.59
410.315	489.98
410.524	387.58
410.733	455.16
410.941	432.63
411.15	467.45
411.358	543.22
411.567	502.26
411.775	459.26
411.984	485.88
412.192	530.94
412.401	487.93
412.609	545.27
412.818	555.51
413.026	596.47
413.234	739.83
413.443	555.51
413.651	627.19
413.86	606.71
414.068	715.25
414.276	772.6
414.485	698.87
414.693	807.41
414.901	879.09
415.11	856.56
415.318	897.52
415.526	936.43
415.734	932.34
415.943	1081.84
416.151	1094.13
416.359	1110.51
416.567	1157.61
416.776	1108.46
416.984	1208.81
417.192	1153.52
417.4	1247.72
417.608	1200.62
417.817	1321.45
418.025	1466.86
418.233	1450.47
418.441	1362.41
418.649	1346.03
418.857	1599.98
419.065	1618.41
419.273	1624.55
419.481	1624.55
419.689	1763.81
419.897	1870.31
420.105	1898.98
420.313	1978.85
420.521	2099.68
420.729	2050.53
420.937	2028
421.145	2120.16
421.353	2318.81
421.561	2386.4
421.769	2443.74
421.977	2421.21
422.185	2548.19
422.393	2640.34
422.601	2935.25
422.809	2800.09
423.017	2765.27
423.224	2914.77
423.432	3111.38
423.64	3150.29
423.848	3396.04
424.056	3283.41
424.263	3422.67
424.471	3615.18
424.679	3656.14
424.887	3877.32
425.094	3875.27
425.302	3879.36
425.51	4098.5
425.718	4299.2
425.925	4233.66
426.133	4315.58
426.341	4614.59
426.548	4755.9
426.756	4921.78
426.964	4778.42
427.171	5108.15
427.379	5298.61
427.586	5360.05
427.794	5474.73
428.001	5771.69
428.209	5906.85
428.417	5992.87
428.624	6412.7
428.832	6261.15
429.039	6386.08
429.247	6326.69
429.454	6959.51
429.662	7221.65
429.869	7051.67
430.076	7391.63
430.284	7205.27
430.491	7594.38
430.699	7877
430.906	7909.77
431.114	8112.52
431.321	8319.36
431.528	8495.49
431.736	8956.28
431.943	9271.67
432.15	9259.38
432.358	9230.71
432.565	9709.93
432.772	9566.57
432.979	10150.25
433.187	10357.09
433.394	10355.04
433.601	11059.54
433.808	11469.14
434.016	11241.81
434.223	11452.75
434.43	12339.52
434.637	12167.49
434.844	12835.13
435.052	12931.39
435.259	13218.1
435.466	13121.85
435.673	12921.15
435.88	13830.44
436.087	14434.6
436.294	14463.27
436.501	13994.28
436.708	14258.47
436.915	14876.96
437.122	15474.96
437.329	15388.95
437.537	15960.33
437.743	16242.95
437.95	16087.31
438.157	16769.28
438.364	17459.45
438.571	17426.68
438.778	17518.84
438.985	19167.45
439.192	18297.06
439.399	18958.56
439.606	18301.16
439.813	19828.95
440.02	20824.26
440.227	20347.08
440.433	20263.11
440.64	20984
440.847	20625.61
441.054	21428.41
441.261	22550.7
441.467	22585.51
441.674	22880.42
441.881	23828.63
442.088	23900.31
442.294	23240.86
442.501	23715.99
442.708	24357
442.914	25407.61
443.121	26230.9
443.328	25370.75
443.534	27222.11
443.741	26624.11
443.948	26357.87
444.154	28170.32
444.361	28248.14
444.568	28313.68
444.774	28434.51
444.981	28700.75
445.187	29380.67
445.394	30531.63
445.6	30238.77
445.807	33081.35
446.013	31817.75
446.22	31934.49
446.426	33734.65
446.633	34123.77
446.839	35006.44
447.046	33591.3
447.252	35375.08
447.459	35397.6
447.665	35307.49
447.871	37017.55
448.078	38561.72
448.284	36480.98
448.491	37402.57
448.697	38709.17
448.903	39630.76
449.11	39665.57
449.316	39358.38
449.522	39501.73
449.728	41344.91
449.935	41295.75
450.141	41054.09
450.347	42229.63
450.553	40662.93
450.76	41404.3
450.966	42710.9
451.172	42254.2
451.378	43214.7
451.584	42356.6
451.791	43171.69
451.997	43401.07
452.203	44351.32
452.409	44072.8
452.615	44050.27
452.821	42221.44
453.027	41830.27
453.233	43880.29
453.44	41830.27
453.646	42332.03
453.852	42671.99
454.058	43730.79
454.264	42047.36
454.47	42829.68
454.676	41852.8
454.882	42999.66
455.088	39264.17
455.294	40005.53
455.5	40779.67
455.705	41109.39
455.911	39956.38
456.117	38934.45
456.323	38496.18
456.529	36255.7
456.735	38000.57
456.941	37134.28
457.147	36663.25
457.352	35389.41
457.558	34750.45
457.764	35043.31
457.97	33869.82
458.176	33732.61
458.381	33400.83
458.587	31971.35
458.793	31631.39
458.999	30271.54
459.204	32307.22
459.41	31580.19
459.616	29446.21
459.821	29059.14
460.027	29468.73
460.233	28731.47
460.438	27486.3
460.644	27543.64
460.85	26495.08
461.055	25741.43
461.261	25925.75
461.466	23976.08
461.672	23535.77
461.878	25020.55
462.083	22999.2
462.289	22567.08
462.494	22292.65
462.7	21641.4
462.905	21162.17
463.111	21524.66
463.316	21788.85
463.522	21088.45
463.727	21262.52
463.932	21323.96
464.138	20828.35
464.343	20889.79
464.549	20390.09
464.754	20940.99
464.959	20908.22
465.165	20695.24
465.37	19990.73
465.575	19482.84
465.781	19888.34
465.986	20121.8
466.191	19280.09
466.397	19097.82
466.602	18092.27
466.807	18737.38
467.012	18684.13
467.218	18434.28
467.423	18508.01
467.628	18589.92
467.833	19362.01
468.038	18634.98
468.244	18018.54
468.449	18524.39
468.654	17914.09
468.859	17957.1
469.064	17694.96
469.269	17125.63
469.474	17182.97
469.679	17422.58
469.885	17211.64
470.09	17344.76
470.295	17090.81
470.5	16695.55
470.705	16636.16
470.91	16218.38
471.115	16589.06
471.32	16505.09
471.525	16541.96
471.73	16304.39
471.935	15984.91
472.139	15464.72
472.344	15902.99
472.549	15419.67
472.754	15288.6
472.959	15202.58
473.164	14629.15
473.369	14903.58
473.574	15206.68
473.778	14977.31
473.983	14709.02
474.188	14596.39
474.393	14129.45
474.598	14354.72
474.802	13797.68
475.007	14078.25
475.212	13920.56
475.417	13510.96
475.621	13226.29
475.826	13728.05
476.031	13220.15
476.235	12773.69
476.44	13275.45
476.645	12867.9
476.849	12839.23
477.054	12757.31
477.259	12489.03
477.463	12448.07
477.668	12085.58
477.872	12376.39
478.077	12122.44
478.282	11688.27
478.486	11913.55
478.691	11733.32
478.895	11774.28
479.1	11694.41
479.304	11706.7
479.509	11209.04
479.713	11368.79
479.918	11037.02
480.122	11073.88
480.326	11041.11
480.531	11266.39
480.735	11045.21
480.94	10955.1
481.144	11260.24
481.348	10766.68
481.553	11004.25
481.757	10604.89
481.961	10901.85
482.166	10979.67
482.37	10791.26
482.574	10668.38
482.778	10668.38
482.983	10789.21
483.187	10799.45
483.391	10907.99
483.595	10807.64
483.8	10586.46
484.004	10582.37
484.208	11012.44
484.412	10465.63
484.616	10873.18
484.821	10692.96
485.025	10570.08
485.229	10647.9
485.433	10496.35
485.637	10543.46
485.841	10563.93
486.045	10377.57
486.249	10572.13
486.453	10361.19
486.657	10778.97
486.861	10629.47
487.065	10334.56
487.269	10459.49
487.473	10359.14
487.677	10783.07
487.881	10703.2
488.085	10514.78
488.289	10463.58
488.493	10539.36
488.697	10477.92
488.901	10588.51
489.105	10565.98
489.309	10668.38
489.512	10697.05
489.716	10619.23
489.92	10619.23
490.124	10512.74
490.328	10832.22
490.531	10652
490.735	10717.53
490.939	10733.92
491.143	10817.88
491.346	10637.66
491.55	11053.4
491.754	10690.91
491.958	10840.41
492.161	10754.4
492.365	10938.71
492.569	11002.2
492.772	10975.58
492.976	10985.82
493.18	11133.27
493.383	10946.9
493.587	11333.97
493.79	11266.39
493.994	11229.52
494.197	11462.99
494.401	11448.66
494.605	11655.5
494.808	11702.61
495.012	11577.68
495.215	11776.33
495.419	11921.74
495.622	11626.83
495.825	11985.23
496.029	12058.95
496.232	12052.81
496.436	11962.7
496.639	12228.93
496.843	12288.32
497.046	12464.45
497.249	12892.48
497.453	12869.95
497.656	12792.12
497.859	12931.39
498.063	12939.58
498.266	13328.69
498.469	13195.57
498.673	13459.76
498.876	13400.37
499.079	13842.73
499.282	13463.86
499.485	14065.96
499.689	13934.89
499.892	14094.63
500.095	14119.21
500.298	14338.34
500.501	14410.02
500.705	14641.44
500.908	14952.73
501.111	14907.68
501.314	15120.67
501.517	15460.63
501.72	15491.35
501.923	15257.88
502.126	15608.08
502.329	16044.3
502.532	16318.73
502.735	16214.28
502.938	16404.74
503.141	16460.04
503.344	16804.1
503.547	16744.7
503.75	16945.41
503.953	17148.15
504.156	17295.61
504.359	17508.6
504.562	17623.28
504.765	18049.26
504.968	17862.9
505.17	18358.5
505.373	18239.72
505.576	18577.64
505.779	18884.83
505.982	18772.19
506.185	19237.08
506.387	19171.55
506.59	19427.54
506.793	19851.47
506.996	19919.06
507.198	20435.14
507.401	20512.97
507.604	20414.66
507.807	20926.66
508.009	20641.99
508.212	21225.66
508.415	21582.01
508.617	21805.24
508.82	22028.46
509.022	21588.15
509.225	21909.68
509.428	22446.25
509.63	22411.43
509.833	22593.7
510.035	23230.62
510.238	23074.98
510.44	23531.67
510.643	23619.74
510.845	23765.14
511.048	23851.16
511.25	24051.86
511.453	24213.65
511.655	25090.18
511.858	24907.91
512.06	25059.46
512.262	25462.91
512.465	25127.04
512.667	25636.98
512.87	25962.61
513.072	26105.97
513.274	26386.54
513.477	26898.53
513.679	27222.11
513.881	27312.22
514.084	27514.97
514.286	27310.18
514.488	27568.22
514.69	28661.83
514.893	28135.51
515.095	28500.05
515.297	28995.65
515.499	28815.43
515.701	29374.53
515.904	29556.8
516.106	29831.22
516.308	29962.29
516.51	30183.48
516.712	30767.15
516.914	30654.51
517.116	31006.76
517.318	31342.63
517.52	31158.31
517.722	31576.09
517.925	31989.78
518.127	32303.12
518.329	32366.61
518.531	32143.38
518.733	32454.67
518.935	32956.43
519.136	33056.78
519.338	33413.12
519.54	33658.88
519.742	33781.76
519.944	33906.68
520.146	34234.36
520.348	34621.42
520.55	34600.94
520.752	34658.29
520.954	35586.02
521.155	34725.87
521.357	35319.78
521.559	35909.6
521.761	36452.31
521.963	35612.64
522.164	36306.9
522.366	36214.74
522.568	36831.18
522.77	36749.26
522.971	37246.92
523.173	36937.68
523.375	37478.34
523.576	37248.97
523.778	37167.05
523.98	37824.45
524.181	37730.24
524.383	37736.38
524.584	38397.88
524.786	37908.41
524.988	37820.35
525.189	38645.68
525.391	38535.09
525.592	38870.96
525.794	38557.62
525.995	38799.28
526.197	38823.86
526.398	38633.39
526.6	39034.8
526.801	38889.39
527.003	38971.31
527.204	39063.47
527.406	39344.04
527.607	39298.98
527.808	39481.25
528.01	38866.86
528.211	39010.22
528.412	39528.36
528.614	39475.11
528.815	39378.86
529.016	39692.19
529.218	39542.69
529.419	39436.2
529.62	39710.63
529.822	39165.87
530.023	39407.53
530.224	39630.76
530.425	39808.93
530.626	39157.67
530.828	39210.92
531.029	39944.09
531.23	39706.53
531.431	39346.09
531.632	39294.89
531.833	39540.64
532.035	39557.03
532.236	39190.44
532.437	39651.23
532.638	39325.61
532.839	39380.9
533.04	39264.17
533.241	38707.12
533.442	39704.48
533.643	39604.13
533.844	39086
534.045	39382.95
534.246	38723.51
534.447	39282.6
534.648	38936.49
534.849	38811.57
535.05	39067.56
535.251	38743.98
535.451	39090.09
535.652	38887.34
535.853	38954.93
536.054	38627.25
536.255	38868.91
536.456	38518.71
536.657	38969.26
536.857	38610.87
537.058	38242.23
537.259	38789.04
537.46	38842.29
537.66	38471.6
537.861	38467.51
538.062	38131.64
538.263	38635.44
538.463	38125.5
538.664	37937.09
538.865	38428.6
539.065	38664.11
539.266	37701.57
539.466	38754.22
539.667	38027.2
539.868	38598.58
540.068	38240.18
540.269	38002.62
540.469	38039.48
540.67	38141.88
540.87	38004.67
541.071	37971.9
541.271	38395.83
541.472	37918.65
541.672	37638.08
541.873	37851.07
542.073	37277.64
542.274	38234.04
542.474	37687.23
542.675	37167.05
542.875	37939.13
543.075	37650.37
543.276	37087.18
543.476	38062.01
543.676	37650.37
543.877	37515.2
544.077	37666.75
544.277	37910.46
544.478	37447.62
544.678	37697.47
544.878	37703.62
545.078	37619.65
545.279	37500.87
545.479	37203.91
545.679	37400.52
545.879	37855.17
546.079	37304.26
546.28	37230.54
546.48	37150.67
546.68	37724.1
546.88	37500.87
547.08	37523.4
547.28	37222.34
547.48	37277.64
547.68	37750.72
547.88	36861.9
548.081	38023.1
548.281	37629.89
548.481	37300.17
548.681	37855.17
548.881	37148.62
549.081	37451.72
549.28	37199.82
549.48	37752.77
549.68	37412.81
549.88	38105.02
550.08	37375.94
550.28	37373.89
550.48	37816.25
550.68	37722.05
550.88	37564.35
551.08	37552.07
551.279	37785.54
551.479	37152.71
551.679	37789.63
551.879	37314.5
552.079	37517.25
552.278	37576.64
552.478	37605.31
552.678	37773.25
552.878	38145.98
553.077	37666.75
553.277	37402.57
553.477	38258.62
553.676	37904.32
553.876	37863.36
554.076	37676.99
554.275	37722.05
554.475	37400.52
554.674	37730.24
554.874	37826.49
555.074	37648.32
555.273	37885.89
555.473	37576.64
555.672	37867.45
555.872	37916.61
556.071	38139.83
556.271	38473.65
556.47	37580.74
556.67	37384.13
556.869	37867.45
557.068	38160.31
557.268	37820.35
557.467	37881.79
557.667	37662.66
557.866	37717.95
558.065	37752.77
558.265	37720
558.464	37914.56
558.663	38494.13
558.863	37539.78
559.062	38324.15
559.261	38082.49
559.461	38375.35
559.66	37421
559.859	37994.43
560.058	37846.97
560.258	38096.83
560.457	37904.32
560.656	38279.1
560.855	37803.97
561.054	38318.01
561.253	37464
561.453	37879.74
561.652	38158.27
561.851	38166.46
562.05	37904.32
562.249	37953.47
562.448	38313.91
562.647	38125.5
562.846	37707.71
563.045	37894.08
563.244	38002.62
563.443	37998.52
563.642	37308.36
563.841	37816.25
564.04	37806.02
564.239	38021.05
564.438	37658.56
564.637	37846.97
564.836	37771.2
565.035	37369.8
565.234	37601.22
565.432	37177.29
565.631	37461.96
565.83	37500.87
566.029	37496.77
566.228	37027.79
566.427	37064.65
566.625	37027.79
566.824	37064.65
567.023	37388.23
567.222	36646.86
567.42	37201.86
567.619	36915.15
567.818	36970.44
568.016	36898.76
568.215	37208.01
568.414	36190.17
568.612	37181.38
568.811	36526.03
569.01	36597.71
569.208	36136.92
569.407	36751.31
569.605	36276.18
569.804	36675.54
570.002	36141.02
570.201	35872.73
570.4	36065.24
570.598	35674.08
570.797	35661.79
570.995	35788.77
571.193	35123.18
571.392	35827.68
571.59	35233.77
571.789	35663.84
571.987	35407.84
572.186	35663.84
572.384	35344.36
572.582	35266.53
572.781	35276.77
572.979	34727.92
573.177	35018.73
573.376	34953.19
573.574	34484.21
573.772	35090.41
573.971	34375.67
574.169	34330.61
574.367	34684.91
574.565	34555.89
574.763	34168.82
574.962	34232.31
575.16	34181.11
575.358	34154.49
575.556	33615.87
575.754	33810.43
575.952	33347.59
576.151	33679.36
576.349	33757.18
576.547	33564.67
576.745	33685.5
576.943	33515.52
577.141	33476.61
577.339	33298.44
577.537	32999.43
577.735	32712.72
577.933	32843.79
578.131	32976.9
578.329	32841.74
578.527	32491.54
578.725	32628.75
578.923	32542.74
579.121	32268.31
579.319	32219.16
579.516	32591.89
579.714	32833.55
579.912	32028.7
580.11	32098.33
580.308	32223.25
580.506	31739.93
580.704	31600.67
580.901	32086.04
581.099	32272.4
581.297	31596.57
581.495	31612.96
581.692	31662.11
581.89	31111.21
582.088	31729.69
582.285	30957.61
582.483	31117.35
582.681	31004.71
582.878	31057.96
583.076	30697.52
583.274	31260.71
583.471	30435.38
583.669	30601.26
583.866	30296.11
584.064	30744.62
584.262	30132.28
584.459	30459.95
584.657	30470.19
584.854	30337.07
585.052	29696.06
585.249	30269.49
585.447	30308.4
585.644	29739.07
585.841	29933.62
586.039	30427.18
586.236	29532.22
586.434	29612.09
586.631	29417.54
586.828	29630.52
587.026	29243.46
587.223	29685.82
587.42	29526.08
587.618	29472.83
587.815	29364.29
588.012	29212.74
588.21	29096
588.407	29081.67
588.604	28586.06
588.801	28829.77
588.999	28667.98
589.196	28790.86
589.393	28563.53
589.59	28735.56
589.787	28702.79
589.984	28500.05
590.182	28268.62
590.379	28719.18
590.576	28405.84
590.773	28528.72
590.97	28291.15
591.167	28153.94
591.364	28102.74
591.561	28248.14
591.758	27902.04
591.955	28184.66
592.152	28125.27
592.349	27973.72
592.546	27852.89
592.743	27834.46
592.94	27396.19
593.137	27779.16
593.334	27670.62
593.531	27615.32
593.727	27648.09
593.924	27576.41
594.121	27181.15
594.318	27689.05
594.515	27289.7
594.712	27447.39
594.908	27451.49
595.105	27318.37
595.302	27355.23
595.499	27185.25
595.696	27322.46
595.892	27269.22
596.089	27564.12
596.286	27353.18
596.482	27078.75
596.679	26896.49
596.876	27295.84
597.072	27175.01
597.269	26957.92
597.466	26796.14
597.662	26923.11
597.859	27009.12
598.055	26886.25
598.252	26953.83
598.448	26769.51
598.645	26851.43
598.841	26738.79
599.038	26634.35
599.234	26693.74
599.431	26650.73
599.627	26675.3
599.824	27041.89
600.02	26769.51
600.217	26869.86
600.413	26566.76
600.609	26542.19
600.806	26531.95
601.002	26660.97
601.198	26701.93
601.395	26589.29
601.591	26519.66
601.787	26609.77
601.984	26749.03
602.18	27177.06
602.376	26626.15
602.572	26519.66
602.769	26800.23
602.965	26339.44
603.161	26912.87
603.357	26654.83
603.553	26775.66
603.75	26691.69
603.946	26497.13
604.142	26734.7
604.338	26175.6
604.534	26785.9
604.73	26433.64
604.926	26454.12
605.122	26865.77
605.318	26624.11
605.514	26531.95
605.71	26693.74
605.906	26816.61
606.102	26921.06
606.298	26972.26
606.494	27058.28
606.69	27076.71
606.886	27113.57
607.082	26511.47
607.278	26925.16
607.474	26515.56
607.67	26904.68
607.866	26585.19
608.062	27136.1
608.257	26888.29
608.453	27076.71
608.649	26912.87
608.845	27048.04
609.041	27019.36
609.236	27148.39
609.432	27316.32
609.628	27209.82
609.824	27062.37
610.019	27226.21
610.215	27068.51
610.411	27283.55
610.606	26730.6
610.802	27021.41
610.998	27490.4
611.193	27332.7
611.389	27215.97
611.584	26833
611.78	26978.4
611.976	27852.89
612.171	27615.32
612.367	27533.4
612.562	27271.26
612.758	26966.12
612.953	27519.07
613.149	27633.75
613.344	27324.51
613.539	27631.71
613.735	27349.09
613.93	27369.57
614.126	27099.23
614.321	27613.27
614.517	27390.05
614.712	27568.22
614.907	27390.05
615.103	27684.95
615.298	27674.71
615.493	27574.36
615.688	27443.29
615.884	28211.28
616.079	27191.39
616.274	27392.09
616.47	27578.46
616.665	27574.36
616.86	27299.94
617.055	27322.46
617.25	27494.49
617.445	27537.5
617.641	27097.19
617.836	27738.2
618.031	27244.64
618.226	27125.86
618.421	27512.92
618.616	27349.09
618.811	26701.93
619.006	27400.29
619.201	26691.69
619.396	27261.02
619.591	26337.39
619.786	26759.27
619.981	26718.31
620.176	27054.18
620.371	26384.49
620.566	26710.12
620.761	26394.73
620.956	26959.97
621.151	26263.66
621.346	26394.73
621.541	26013.81
621.735	26507.37
621.93	25741.43
622.125	25835.64
622.32	25520.25
622.515	25813.11
622.709	25489.53
622.904	25417.85
623.099	25284.73
623.294	25172.1
623.488	25204.86
623.683	25059.46
623.878	24842.37
624.072	25108.61
624.267	24965.25
624.462	24453.26
624.656	24176.78
624.851	24627.34
625.046	24152.21
625.24	24191.12
625.435	24402.06
625.629	24387.72
625.824	23980.18
626.018	23683.22
626.213	23384.22
626.407	23537.82
626.602	23472.28
626.796	23386.27
626.991	23353.5
627.185	23193.76
627.38	22919.33
627.574	22827.17
627.768	22775.97
627.963	22687.91
628.157	22319.28
628.352	22515.88
628.546	22161.58
628.74	22386.86
628.935	22266.03
629.129	21958.83
629.323	21815.48
629.517	21801.14
629.712	21825.71
629.906	21616.82
630.1	21500.09
630.294	21534.9
630.489	21328.06
630.683	21459.13
630.877	21176.51
631.071	21244.09
631.265	21039.29
631.459	20717.76
631.653	20596.93
631.848	20730.05
632.042	20715.72
632.236	20486.34
632.43	20512.97
632.624	20064.46
632.818	20408.52
633.012	20033.74
633.206	20230.35
633.4	20060.37
633.594	19693.78
633.788	19695.83
633.982	19857.62
634.176	19562.71
634.369	19564.76
634.563	19665.11
634.757	19194.08
634.951	19288.28
635.145	19001.57
635.339	19022.05
635.533	18972.89
635.726	18931.94
635.92	18675.94
636.114	18768.1
636.308	18839.78
636.501	18467.05
636.695	18200.81
636.889	17914.09
637.083	18106.6
637.276	18065.64
637.47	17852.66
637.664	17721.59
637.857	17871.09
638.051	17684.72
638.244	17484.02
638.438	17434.87
638.632	17301.75
638.825	17074.43
639.019	17121.53
639.212	17068.28
639.406	16961.79
639.599	17033.47
639.793	16742.66
639.986	16363.78
640.18	16294.15
640.373	16580.87
640.567	16204.04
640.76	16414.98
640.954	16064.78
641.147	15886.61
641.34	16072.97
641.534	16087.31
641.727	15962.38
641.92	15943.95
642.114	15554.83
642.307	15587.6
642.5	15509.78
642.694	15014.17
642.887	15266.07
643.08	15264.02
643.273	15290.65
643.467	15048.99
643.66	15106.33
643.853	14870.81
644.046	14846.24
644.239	14584.1
644.432	14463.27
644.626	14334.25
644.819	14287.14
645.012	14139.69
645.205	14510.37
645.398	14326.05
645.591	14025
645.784	13865.26
645.977	13824.3
646.17	14004.52
646.363	13793.58
646.556	13676.85
646.749	13543.73
646.942	13740.33
647.135	13433.14
647.328	13531.44
647.521	13158.71
647.714	13052.22
647.907	13355.32
648.099	12998.97
648.292	12898.62
648.485	12869.95
648.678	12876.09
648.871	12798.27
649.064	12480.83
649.256	12796.22
649.449	12554.56
649.642	12558.66
649.835	12341.57
650.027	12341.57
650.22	12233.03
650.413	12183.88
650.605	12126.53
650.798	11987.27
650.991	11903.31
651.183	12087.62
651.376	11757.9
651.568	11907.4
651.761	11825.48
651.954	11809.1
652.146	11569.49
652.339	11688.27
652.531	11495.76
652.724	11321.68
652.916	11219.28
653.109	11293.01
653.301	11209.04
653.494	11356.5
653.686	11114.84
653.879	11145.56
654.071	11223.38
654.263	11039.06
654.456	10832.22
654.648	11061.59
654.84	10893.66
655.033	10766.68
655.225	10627.42
655.417	10619.23
655.61	10414.43
655.802	10613.09
655.994	10389.86
656.186	10393.95
656.379	10269.03
656.571	10275.17
656.763	10348.9
656.955	10049.89
657.148	10258.79
657.34	10103.14
657.532	9972.07
657.724	9918.82
657.916	9791.85
658.108	9625.97
658.3	9906.54
658.492	9857.39
658.684	9496.94
658.876	9603.44
659.068	9709.93
659.26	9515.37
659.452	9539.95
659.644	9582.96
659.836	9251.19
660.028	9488.75
660.22	8933.75
660.412	9300.34
660.604	9214.32
660.796	9056.63
660.988	9019.77
661.18	8817.02
661.372	8915.32
661.563	9189.75
661.755	8943.99
661.947	8735.1
662.139	8827.26
662.331	8642.94
662.522	8620.41
662.714	8382.85
662.906	8497.53
663.097	8481.15
663.289	8341.89
663.481	8339.84
663.673	8196.48
663.864	8319.36
664.056	8210.82
664.247	8143.24
664.439	8055.17
664.631	8180.1
664.822	8124.8
665.014	8266.11
665.205	7803.27
665.397	7965.06
665.588	8040.84
665.78	7899.53
665.971	7850.38
666.163	7688.59
666.354	7758.22
666.546	7555.47
666.737	7506.32
666.929	7768.46
667.12	7717.26
667.311	7424.4
667.503	7330.19
667.694	7260.56
667.885	7451.02
668.077	7334.29
668.268	7500.17
668.459	7313.81
668.651	7340.43
668.842	7303.57
669.033	7066
669.224	7088.53
669.416	7299.47
669.607	6961.56
669.798	6984.09
669.989	7117.2
670.18	6982.04
670.371	7006.61
670.563	7043.48
670.754	6977.94
670.945	6945.17
671.136	6893.97
671.327	7025.04
671.518	6717.85
671.709	6943.13
671.9	6785.43
672.091	6893.97
672.282	6932.89
672.473	6680.99
672.664	6556.06
672.855	6730.14
673.046	6607.26
673.237	6597.02
673.428	6551.96
673.619	6658.46
673.809	6511
674	6478.24
674.191	6445.47
674.382	6447.52
674.573	6468
674.764	6457.76
674.954	6482.33
675.145	6441.37
675.336	6498.72
675.527	6443.42
675.717	6404.51
675.908	6269.34
676.099	6328.74
676.289	6359.45
676.48	6166.95
676.671	6091.17
676.861	6265.25
677.052	6058.4
677.243	6072.74
677.433	6212
677.624	6224.29
677.814	6214.05
678.005	6156.71
678.195	6025.64
678.386	6105.51
678.576	6183.33
678.767	5845.41
678.957	6042.02
679.148	6064.55
679.338	6011.3
679.529	6097.31
679.719	6035.88
679.909	6212
680.1	6009.25
680.29	6037.92
680.481	5941.67
680.671	5894.57
680.861	5779.88
681.052	5878.18
681.242	5886.37
681.432	6052.26
681.622	5919.14
681.813	5941.67
682.003	5816.74
682.193	5921.19
682.383	5933.48
682.573	5740.97
682.764	5908.9
682.954	5847.46
683.144	5872.04
683.334	5917.09
683.524	5665.19
683.714	5773.74
683.904	5829.03
684.094	5714.34
684.284	5857.7
684.474	5755.3
684.664	5781.93
684.854	5646.76
685.044	5822.89
685.234	5786.02
685.424	5740.97
685.614	5720.49
685.804	5548.46
685.994	5532.08
686.184	5499.31
686.374	5540.27
686.564	5560.75
686.753	5732.78
686.943	5497.26
687.133	5515.69
687.323	5433.77
687.513	5634.47
687.702	5394.86
687.892	5333.42
688.082	5384.62
688.272	5554.6
688.461	5585.32
688.651	5314.99
688.841	5333.42
689.03	5437.87
689.22	5384.62
689.41	5255.6
689.599	5495.21
689.789	5405.1
689.979	5269.94
690.168	5245.36
690.358	5114.29
690.547	5376.43
690.737	5286.32
690.926	5257.65
691.116	5228.98
691.305	5249.46
691.495	5237.17
691.684	5192.11
691.874	5091.76
692.063	5175.73
692.252	5085.62
692.442	5071.28
692.631	5132.72
692.82	5089.71
693.01	4985.27
693.199	5056.95
693.388	5056.95
693.578	4993.46
693.767	4852.15
693.956	5032.37
694.146	4860.34
694.335	4944.31
694.524	4811.19
694.713	4803
694.902	4856.25
695.092	4950.45
695.281	4854.2
695.47	4897.21
695.659	4796.85
695.848	4803
696.037	4846.01
696.226	4794.81
696.415	4694.46
696.604	4923.83
696.793	4805.05
696.982	4794.81
697.171	4688.31
697.36	4843.96
697.549	4733.37
697.738	4753.85
697.927	4585.91
698.116	4694.46
698.305	4557.24
698.494	4823.48
698.683	4630.97
698.872	4647.35
699.061	4516.28
699.25	4680.12
699.438	4630.97
699.627	4475.32
699.816	4581.82
700.005	4487.61
700.193	4520.38
700.382	4585.91
700.571	4483.52
700.76	4575.67
700.948	4526.52
701.137	4446.65
701.326	4475.32
701.514	4467.13
701.703	4372.93
701.892	4440.51
702.08	4430.27
702.269	4530.62
702.457	4407.74
702.646	4485.56
702.834	4291.01
703.023	4305.34
703.212	4301.25
703.4	4340.16
703.589	4262.33
703.777	4262.33
703.965	4303.29
704.154	4225.47
704.342	4223.42
704.531	4278.72
704.719	4248
704.907	4258.24
705.096	4213.18
705.284	4166.08
705.472	4166.08
705.661	4159.94
705.849	4084.16
706.037	4114.88
706.226	4188.61
706.414	4032.96
706.602	4000.19
706.79	4204.99
706.979	3877.32
707.167	3998.15
707.355	4026.82
707.543	4055.49
707.731	4041.15
707.919	3934.66
708.107	3836.36
708.296	4016.58
708.484	3905.99
708.672	3840.45
708.86	3926.47
709.048	3854.79
709.236	3813.83
709.424	3926.47
709.612	3975.62
709.8	3875.27
709.988	3783.11
710.176	4030.91
710.364	3959.24
710.551	3926.47
710.739	3795.4
710.927	3926.47
711.115	3752.39
711.303	3828.17
711.491	3822.02
711.679	3617.22
711.866	3695.05
712.054	3772.87
712.242	3764.68
712.43	3721.67
712.617	3588.55
712.805	3631.56
712.993	3770.82
713.181	3518.92
713.368	3762.63
713.556	3549.64
713.744	3561.93
713.931	3754.44
714.119	3688.9
714.306	3684.81
714.494	3584.46
714.682	3484.11
714.869	3516.87
715.057	3568.07
715.244	3459.53
715.432	3533.26
715.619	3437
715.807	3406.28
715.994	3492.3
716.182	3428.81
716.369	3447.24
716.556	3365.32
716.744	3469.77
716.931	3467.72
717.119	3443.15
717.306	3414.48
717.493	3340.75
717.681	3336.65
717.868	3205.58
718.055	3422.67
718.242	3492.3
718.43	3396.04
718.617	3289.55
718.804	3381.71
718.991	3291.6
719.179	3459.53
719.366	3258.83
719.553	3314.13
719.74	3207.63
719.927	3328.46
720.114	3166.67
720.301	3181.01
720.488	3207.63
720.676	3244.49
720.863	3238.35
721.05	3238.35
721.237	3295.69
721.424	3299.79
721.611	3178.96
721.798	3111.38
721.985	3185.1
722.172	3103.18
722.358	3160.53
722.545	3131.86
722.732	3074.51
722.919	3017.17
723.106	3019.22
723.293	3160.53
723.48	3242.45
723.667	3078.61
723.853	3068.37
724.04	3166.67
724.227	3211.73
724.414	2955.73
724.6	3101.14
724.787	2820.56
724.974	3025.36
725.161	2980.31
725.347	2910.68
725.534	2925.01
725.72	2896.34
725.907	2802.13
726.094	2937.3
726.28	2951.63
726.467	2832.85
726.653	2955.73
726.84	2839
727.027	3019.22
727.213	2824.66
727.4	2974.16
727.586	2931.16
727.773	2918.87
727.959	2832.85
728.145	2836.95
728.332	2845.14
728.518	2836.95
728.705	2871.76
728.891	2804.18
729.077	2836.95
729.264	2757.08
729.45	2765.27
729.636	2822.61
729.823	2836.95
730.009	2757.08
730.195	2714.07
730.382	2877.91
730.568	2701.78
730.754	2755.03
730.94	2617.82
731.126	2836.95
731.313	2693.59
731.499	2773.46
731.685	2705.88
731.871	2767.32
732.057	2681.3
732.243	2681.3
732.429	2671.06
732.615	2693.59
732.801	2722.26
732.987	2726.36
733.173	2644.44
733.359	2746.84
733.545	2578.9
733.731	2658.78
733.917	2574.81
734.103	2654.68
734.289	2568.66
734.475	2589.14
734.661	2619.86
734.847	2511.32
735.033	2607.58
735.219	2519.51
735.404	2591.19
735.59	2513.37
735.776	2419.16
735.962	2542.04
736.148	2589.14
736.333	2423.26
736.519	2595.29
736.705	2472.41
736.89	2591.19
737.076	2492.89
737.262	2456.03
737.447	2517.47
737.633	2427.35
737.819	2482.65
738.004	2402.78
738.19	2484.7
738.375	2435.55
738.561	2527.71
738.747	2443.74
738.932	2435.55
739.118	2431.45
739.303	2415.07
739.489	2378.2
739.674	2300.38
739.859	2466.27
740.045	2429.4
740.23	2435.55
740.416	2406.88
740.601	2312.67
740.786	2349.53
740.972	2259.42
741.157	2243.04
741.342	2273.76
741.528	2275.81
741.713	2304.48
741.898	2185.69
742.084	2247.13
742.269	2144.74
742.454	2263.52
742.639	2144.74
742.824	2226.65
743.01	2245.09
743.195	2187.74
743.38	2226.65
743.565	2011.62
743.75	2157.02
743.935	2179.55
744.12	2197.98
744.305	2066.91
744.49	2245.09
744.675	2077.15
744.86	2058.72
745.045	2150.88
745.23	2066.91
745.415	2163.17
745.6	2134.5
745.785	2126.3
745.97	2181.6
746.155	2077.15
746.34	2046.43
746.525	2118.11
746.71	1993.19
746.895	2001.38
747.079	1952.23
747.264	1999.33
747.449	2001.38
747.634	1927.65
747.819	1952.23
748.003	1886.69
748.188	1933.79
748.373	1866.21
748.557	1876.45
748.742	1862.12
748.927	1937.89
749.111	1935.84
749.296	1759.72
749.481	1954.27
749.665	1880.55
749.85	1868.26
750.034	1806.82
750.219	1696.23
750.404	1815.01
750.588	1731.05
750.773	1665.51
750.957	1575.4
751.141	1776.1
751.326	1681.89
751.51	1679.85
751.695	1683.94
751.879	1636.84
752.064	1649.13
752.248	1671.65
752.432	1681.89
752.617	1503.72
752.801	1634.79
752.985	1642.98
753.17	1616.36
753.354	1599.98
753.538	1634.79
753.722	1479.15
753.907	1534.44
754.091	1450.47
754.275	1665.51
754.459	1450.47
754.643	1559.02
754.828	1509.86
755.012	1493.48
755.196	1436.14
755.38	1397.23
755.564	1522.15
755.748	1411.56
755.932	1339.88
756.116	1358.32
756.3	1393.13
756.484	1321.45
756.668	1505.77
756.852	1305.07
757.036	1421.8
757.22	1348.08
757.404	1282.54
757.588	1346.03
757.772	1436.14
757.956	1346.03
758.14	1366.51
758.323	1268.2
758.507	1339.88
758.691	1264.11
758.875	1305.07
759.059	1346.03
759.242	1157.61
759.426	1255.92
759.61	1198.57
759.794	1260.01
759.977	1292.78
760.161	1276.4
760.345	1190.38
760.528	1255.92
760.712	1231.34
760.895	1210.86
761.079	1284.59
761.263	1145.33
761.446	1133.04
761.63	1112.56
761.813	1182.19
761.997	1133.04
762.18	1151.47
762.364	1149.42
762.547	1122.8
762.731	1092.08
762.914	1067.5
763.098	1022.45
763.281	1038.83
763.464	1085.94
763.648	1047.02
763.831	1075.7
764.015	1079.79
764.198	1055.22
764.381	1053.17
764.564	1067.5
764.748	1055.22
764.931	1098.22
765.114	1044.98
765.297	1100.27
765.481	1034.74
765.664	1053.17
765.847	1028.59
766.03	1063.41
766.213	1042.93
766.397	1128.94
766.58	995.82
766.763	977.39
766.946	1067.5
767.129	1010.16
767.312	991.73
767.495	963.06
767.678	915.95
767.861	897.52
768.044	891.38
768.227	1026.54
768.41	1047.02
768.593	1063.41
768.776	977.39
768.959	952.82
769.142	979.44
769.324	973.3
769.507	1040.88
769.69	883.19
769.873	987.63
770.056	1059.31
770.239	936.43
770.421	1034.74
770.604	903.67
770.787	829.94
770.97	889.33
771.152	952.82
771.335	913.91
771.518	879.09
771.7	922.1
771.883	952.82
772.066	930.29
772.248	879.09
772.431	932.34
772.613	864.75
772.796	874.99
772.978	870.9
773.161	870.9
773.343	846.32
773.526	780.79
773.708	834.04
773.891	803.32
774.073	821.75
774.256	756.21
774.438	946.67
774.621	797.17
774.803	844.28
774.985	811.51
775.168	866.8
775.35	879.09
775.532	791.03
775.715	756.21
775.897	842.23
776.079	733.68
776.261	797.17
776.444	662.01
776.626	758.26
776.808	729.59
776.99	705.01
777.173	823.8
777.355	707.06
777.537	752.12
777.719	690.68
777.901	764.4
778.083	666.1
778.265	676.34
778.447	766.45
778.629	668.15
778.811	578.04
778.993	637.43
779.175	750.07
779.357	684.53
779.539	557.56
779.721	645.62
779.903	688.63
780.085	600.57
780.267	696.82
780.449	623.09
780.631	657.91
780.812	690.68
780.994	584.18
781.176	633.33
781.358	649.72
781.54	584.18
781.721	715.25
781.903	715.25
782.085	512.5
782.267	633.33
782.448	586.23
782.63	619
782.812	565.75
782.993	555.51
783.175	532.98
783.357	555.51
783.538	596.47
783.72	508.41
783.901	485.88
784.083	621.05
784.264	551.42
784.446	506.36
784.627	451.07
784.809	535.03
784.99	543.22
785.172	573.94
785.353	496.12
785.535	543.22
785.716	522.74
785.897	483.83
786.079	512.5
786.26	573.94
786.441	481.78
786.623	414.2
786.804	467.45
786.985	494.07
787.167	520.7
787.348	444.92
787.529	471.54
787.71	510.46
787.891	504.31
788.073	461.3
788.254	391.67
788.435	569.85
788.616	494.07
788.797	330.23
788.978	363
789.159	451.07
789.34	438.78
789.522	393.72
789.703	438.78
789.884	461.3
790.065	367.1
790.246	399.87
790.427	393.72
790.607	430.59
790.788	469.5
790.969	412.15
791.15	403.96
791.331	367.1
791.512	377.34
791.693	449.02
791.874	336.38
792.054	416.25
792.235	363
792.416	313.85
792.597	365.05
792.778	330.23
792.958	285.18
793.139	281.08
793.32	354.81
793.5	227.84
793.681	397.82
793.862	346.62
794.042	379.39
794.223	238.08
794.404	367.1
794.584	291.32
794.765	354.81
794.945	276.99
795.126	324.09
795.306	342.52
795.487	373.24
795.667	307.71
795.848	215.55
796.028	279.04
796.209	289.28
796.389	315.9
796.57	383.48
796.75	274.94
796.93	262.65
797.111	272.89
797.291	356.86
797.471	305.66
797.652	324.09
797.832	324.09
798.012	305.66
798.192	178.69
798.373	207.36
798.553	301.56
798.733	262.65
798.913	276.99
799.093	260.6
799.274	266.75
799.454	217.6
799.634	244.22
799.814	260.6
799.994	324.09
800.174	313.85
800.354	342.52
800.534	283.13
800.714	272.89
800.894	227.84
801.074	297.47
801.254	322.04
801.434	377.34
801.614	262.65
801.794	217.6
801.974	973.3
802.154	291.32
802.334	276.99
802.514	248.32
802.693	236.03
802.873	199.16
803.053	281.08
803.233	256.51
803.413	152.06
803.592	215.55
803.772	233.98
803.952	184.83
804.131	182.78
804.311	248.32
804.491	328.19
804.67	213.5
804.85	180.73
805.03	236.03
805.209	281.08
805.389	276.99
805.568	207.36
805.748	176.64
805.928	293.37
806.107	250.36
806.287	240.12
806.466	186.88
806.646	127.49
806.825	281.08
807.004	199.16
807.184	168.45
807.363	279.04
807.543	219.64
807.722	250.36
807.901	242.17
808.081	240.12
808.26	109.05
808.439	201.21
808.619	215.55
808.798	160.25
808.977	119.29
809.156	252.41
809.336	176.64
809.515	201.21
809.694	166.4
809.873	109.05
810.052	172.54
810.231	250.36
810.411	270.84
810.59	205.31
810.769	139.77
810.948	193.02
811.127	59.9
811.306	133.63
811.485	207.36
811.664	276.99
811.843	236.03
812.022	150.01
812.201	168.45
812.38	137.73
812.559	160.25
812.737	193.02
812.916	219.64
813.095	92.67
813.274	160.25
813.453	135.68
813.632	139.77
813.811	133.63
813.989	135.68
814.168	219.64
814.347	145.92
814.526	174.59
814.704	109.05
814.883	125.44
815.062	225.79
815.24	207.36
815.419	154.11
815.598	162.3
815.776	100.86
815.955	145.92
816.133	70.14
816.312	111.1
816.49	123.39
816.669	109.05
816.847	195.07
817.026	96.77
817.204	158.21
817.383	172.54
817.561	195.07
817.74	199.16
817.918	78.33
818.097	152.06
818.275	57.86
818.453	109.05
818.632	174.59
818.81	160.25
818.988	76.29
819.167	158.21
819.345	92.67
819.523	53.76
819.701	80.38
819.879	137.73
820.058	109.05
820.236	104.96
820.414	111.1
820.592	125.44
820.77	92.67
820.948	129.53
821.127	137.73
821.305	111.1
821.483	158.21
821.661	190.97
821.839	141.82
822.017	178.69
822.195	39.42
822.373	152.06
822.551	102.91
822.729	131.58
822.907	104.96
823.085	117.25
823.262	107.01
823.44	100.86
823.618	111.1
823.796	150.01
823.974	135.68
824.152	72.19
824.329	78.33
824.507	80.38
824.685	113.15
824.863	102.91
825.04	37.38
825.218	135.68
825.396	72.19
825.574	129.53
825.751	135.68
825.929	35.33
826.107	27.14
826.284	133.63
826.462	84.48
826.639	84.48
826.817	51.71
826.994	141.82
827.172	109.05
827.349	186.88
827.527	137.73
827.704	90.62
827.882	104.96
828.059	98.81
828.237	113.15
828.414	117.25
828.591	-30.21
828.769	100.86
828.946	86.53
829.124	100.86
829.301	182.78
829.478	55.81
829.655	45.57
829.833	137.73
830.01	45.57
830.187	123.39
830.364	109.05
830.542	160.25
830.719	104.96
830.896	39.42
831.073	152.06
831.25	158.21
831.427	27.14
831.604	137.73
831.782	51.71
831.959	117.25
832.136	141.82
832.313	133.63
832.49	88.57
832.667	162.3
832.844	68.09
833.021	141.82
833.198	137.73
833.374	74.24
833.551	70.14
833.728	84.48
833.905	121.34
834.082	-9.73
834.259	94.72
834.436	47.62
834.612	84.48
834.789	119.29
834.966	72.19
835.143	150.01
835.319	35.33
835.496	143.87
835.673	170.49
835.85	117.25
836.026	53.76
836.203	80.38
836.38	49.66
836.556	84.48
836.733	29.18
836.909	100.86
837.086	94.72
837.262	12.8
837.439	12.8
837.616	55.81
837.792	61.95
837.968	76.29
838.145	53.76
838.321	86.53
838.498	133.63
838.674	68.09
838.851	27.14
839.027	111.1
839.203	70.14
839.38	119.29
839.556	68.09
839.732	66.05
839.909	31.23
840.085	20.99
840.261	33.28
840.437	166.4
840.614	80.38
840.79	2.56
840.966	41.47
841.142	102.91
841.318	18.94
841.494	109.05
841.671	53.76
841.847	92.67
842.023	49.66
842.199	82.43
842.375	70.14
842.551	-28.16
842.727	51.71
842.903	45.57
843.079	2.56
843.255	145.92
843.431	76.29
843.607	80.38
843.783	20.99
843.959	76.29
844.134	37.38
844.31	102.91
844.486	29.18
844.662	-62.98
844.838	59.9
845.013	80.38
845.189	-11.78
845.365	35.33
845.541	39.42
845.716	74.24
845.892	92.67
846.068	51.71
846.244	29.18
846.419	39.42
846.595	84.48
846.77	123.39
846.946	14.85
847.122	-11.78
847.297	14.85
847.473	37.38
847.648	-54.78
847.824	51.71
847.999	64
848.175	-46.59
848.35	84.48
848.526	43.52
848.701	27.14
848.876	92.67
849.052	84.48
849.227	59.9
849.403	100.86
849.578	14.85
849.753	43.52
849.929	92.67
850.104	8.7
850.279	4.61
850.454	57.86
850.63	53.76
850.805	35.33
850.98	-44.54
851.155	43.52
851.33	96.77
851.505	-34.3
851.681	156.16
851.856	18.94
852.031	66.05
852.206	59.9
852.381	76.29
852.556	43.52
852.731	68.09
852.906	66.05
853.081	16.9
853.256	59.9
853.431	88.57
853.606	-13.82
853.781	45.57
853.956	39.42
854.131	88.57
854.305	25.09
854.48	35.33
854.655	4.61
854.83	-11.78
855.005	-5.63
855.18	2.56
855.354	59.9
855.529	43.52
855.704	39.42
855.879	53.76
856.053	-46.59
856.228	59.9
856.403	31.23
856.577	-13.82
856.752	-13.82
856.926	-9.73
857.101	66.05
857.276	16.9
857.45	18.94
857.625	25.09
857.799	2.56
857.974	39.42
858.148	-9.73
858.323	2.56
858.497	-3.58
858.672	10.75
858.846	29.18
859.02	86.53
859.195	10.75
859.369	18.94
859.543	18.94
859.718	143.87
859.892	35.33
860.066	35.33
860.241	-3.58
860.415	-46.59
860.589	-5.63
860.763	96.77
860.938	-17.92
861.112	88.57
861.286	-46.59
861.46	49.66
861.634	2.56
861.808	4.61
861.982	-26.11
862.157	-38.4
862.331	-3.58
862.505	-1.54
862.679	16.9
862.853	20.99
863.027	2.56
863.201	27.14
863.375	23.04
863.549	39.42
863.722	47.62
863.896	76.29
864.07	2.56
864.244	31.23
864.418	68.09
864.592	45.57
864.766	2.56
864.939	72.19
865.113	55.81
865.287	51.71
865.461	-56.83
865.634	10.75
865.808	29.18
865.982	18.94
866.156	-15.87
866.329	-19.97
866.503	2.56
866.676	25.09
866.85	-22.02
867.024	2.56
867.197	59.9
867.371	2.56
867.544	84.48
867.718	121.34
867.891	76.29
868.065	-28.16
868.238	100.86
868.412	18.94
868.585	35.33
868.759	2.56
868.932	0.51
869.105	12.8
869.279	12.8
869.452	-71.17
869.625	74.24
869.799	18.94
869.972	-5.63
870.145	18.94
870.319	23.04
870.492	-38.4
870.665	-5.63
870.838	18.94
871.011	-26.11
871.185	-28.16
871.358	-77.31
871.531	49.66
871.704	-38.4
871.877	76.29
872.05	-1.54
872.223	35.33
872.396	27.14
872.569	20.99
872.742	-71.17
872.915	18.94
873.088	10.75
873.261	-62.98
873.434	27.14
873.607	-42.5
873.78	-28.16
873.953	10.75
874.126	43.52
874.299	-1.54
874.471	-1.54
874.644	70.14
874.817	10.75
874.99	100.86
875.163	45.57
875.335	57.86
875.508	-36.35
875.681	66.05
875.853	43.52
876.026	-46.59
876.199	27.14
876.371	-38.4
876.544	31.23
876.717	76.29
876.889	-11.78
877.062	2.56
877.234	-60.93
877.407	18.94
877.579	-32.26
877.752	-13.82
877.924	-15.87
878.097	-22.02
878.269	45.57
878.442	45.57
878.614	-15.87
878.786	61.95
878.959	59.9
879.131	-7.68
879.303	-50.69
879.476	14.85
879.648	92.67
879.82	29.18
879.993	27.14
880.165	6.66
880.337	10.75
880.509	51.71
880.681	-38.4
880.854	-36.35
881.026	23.04
881.198	137.73
881.37	35.33
881.542	-44.54
881.714	-1.54
881.886	-38.4
882.058	-5.63
882.23	-36.35
882.402	-26.11
882.574	-9.73
882.746	8.7
882.918	115.2
883.09	10.75
883.262	-38.4
883.434	-22.02
883.606	-30.21
883.778	10.75
883.95	45.57
884.122	-58.88
884.293	2.56
884.465	-3.58
884.637	76.29
884.809	-22.02
884.98	-13.82
885.152	55.81
885.324	27.14
885.496	-54.78
885.667	53.76
885.839	-54.78
886.011	64
886.182	-67.07
886.354	43.52
886.525	57.86
886.697	4.61
886.869	-15.87
887.04	-1.54
887.212	27.14
887.383	51.71
887.555	-5.63
887.726	64
887.897	10.75
888.069	47.62
888.24	-19.97
888.412	10.75
888.583	-11.78
888.754	-22.02
888.926	18.94
889.097	-26.11
889.268	12.8
889.44	-5.63
889.611	-65.02
889.782	-13.82
889.953	33.28
890.125	31.23
890.296	-38.4
890.467	27.14
890.638	20.99
890.809	23.04
890.98	2.56
891.151	-32.26
891.323	53.76
891.494	18.94
891.665	-62.98
891.836	2.56
892.007	57.86
892.178	35.33
892.349	14.85
892.52	10.75
892.691	-38.4
892.862	-36.35
893.032	27.14
893.203	31.23
893.374	45.57
893.545	-93.69
893.716	-30.21
893.887	43.52
894.057	-22.02
894.228	37.38
894.399	-11.78
894.57	100.86
894.74	-46.59
894.911	12.8
895.082	20.99
895.253	-38.4
895.423	-13.82
895.594	35.33
895.764	-9.73
895.935	-15.87
896.106	-56.83
896.276	-17.92
896.447	61.95
896.617	23.04
896.788	-34.3
896.958	-22.02
897.129	-19.97
897.299	-17.92
897.47	20.99
897.64	-32.26
897.81	25.09
897.981	33.28
898.151	6.66
898.322	6.66
898.492	-19.97
898.662	27.14
898.832	-65.02
899.003	18.94
899.173	51.71
899.343	31.23
899.513	-42.5
