Data from USB4F104151__235__14-34-05-412.txt Node

Date: Thu Mar 13 14:34:05 EDT 2025
User: louis
Spectrometer: USB4F10415
Trigger mode: 4
Integration Time (sec): 2.500000E-2
Scans to average: 1
Electric dark correction enabled: true
Nonlinearity correction enabled: false
Boxcar width: 0
XAxis mode: Wavelengths
Number of Pixels in Spectrum: 3648
>>>>>Begin Spectral Data<<<<<
178.204	-91.65
178.424	-91.65
178.644	-91.65
178.864	-151.04
179.084	-95.74
179.304	-52.74
179.524	-42.5
179.744	-32.26
179.964	-9.73
180.184	-17.92
180.404	66.05
180.624	41.47
180.844	0.51
181.064	-32.26
181.283	49.66
181.503	14.85
181.723	14.85
181.943	29.18
182.163	70.14
182.383	-60.93
182.602	96.77
182.822	16.9
183.042	41.47
183.262	76.29
183.482	102.91
183.701	39.42
183.921	14.85
184.141	-40.45
184.361	27.14
184.58	49.66
184.8	55.81
185.02	37.38
185.239	102.91
185.459	88.57
185.679	61.95
185.898	-24.06
186.118	64
186.338	88.57
186.557	23.04
186.777	-1.54
186.997	98.81
187.216	82.43
187.436	78.33
187.655	82.43
187.875	31.23
188.095	92.67
188.314	80.38
188.534	47.62
188.753	41.47
188.973	70.14
189.192	137.73
189.412	72.19
189.631	37.38
189.851	31.23
190.07	86.53
190.29	25.09
190.509	-1.54
190.729	0.51
190.948	94.72
191.168	135.68
191.387	31.23
191.607	47.62
191.826	-19.97
192.045	31.23
192.265	-19.97
192.484	45.57
192.704	-3.58
192.923	33.28
193.142	78.33
193.362	145.92
193.581	135.68
193.8	113.15
194.02	59.9
194.239	86.53
194.458	20.99
194.678	47.62
194.897	64
195.116	4.61
195.335	80.38
195.555	96.77
195.774	18.94
195.993	74.24
196.212	29.18
196.432	41.47
196.651	8.7
196.87	80.38
197.089	109.05
197.308	72.19
197.528	37.38
197.747	-44.54
197.966	39.42
198.185	39.42
198.404	-11.78
198.623	31.23
198.842	88.57
199.062	53.76
199.281	133.63
199.5	55.81
199.719	55.81
199.938	88.57
200.157	20.99
200.376	113.15
200.595	61.95
200.814	86.53
201.033	-7.68
201.252	76.29
201.471	72.19
201.69	78.33
201.909	102.91
202.128	49.66
202.347	135.68
202.566	70.14
202.785	4.61
203.004	20.99
203.223	121.34
203.442	72.19
203.661	-24.06
203.879	143.87
204.098	47.62
204.317	47.62
204.536	68.09
204.755	6.66
204.974	131.58
205.193	82.43
205.411	123.39
205.63	35.33
205.849	74.24
206.068	64
206.287	-1.54
206.505	135.68
206.724	143.87
206.943	29.18
207.162	53.76
207.381	41.47
207.599	27.14
207.818	107.01
208.037	41.47
208.255	-36.35
208.474	88.57
208.693	86.53
208.911	-15.87
209.13	-3.58
209.349	51.71
209.567	86.53
209.786	14.85
210.005	64
210.223	45.57
210.442	61.95
210.661	4.61
210.879	31.23
211.098	14.85
211.316	20.99
211.535	119.29
211.753	90.62
211.972	86.53
212.191	51.71
212.409	14.85
212.628	57.86
212.846	33.28
213.065	84.48
213.283	86.53
213.502	4.61
213.72	90.62
213.938	107.01
214.157	37.38
214.375	107.01
214.594	102.91
214.812	35.33
215.031	47.62
215.249	94.72
215.467	64
215.686	127.49
215.904	143.87
216.122	104.96
216.341	61.95
216.559	-3.58
216.778	119.29
216.996	90.62
217.214	23.04
217.432	94.72
217.651	66.05
217.869	82.43
218.087	20.99
218.306	102.91
218.524	64
218.742	-19.97
218.96	27.14
219.179	23.04
219.397	143.87
219.615	100.86
219.833	53.76
220.051	16.9
220.27	53.76
220.488	96.77
220.706	70.14
220.924	-9.73
221.142	29.18
221.36	70.14
221.578	86.53
221.796	96.77
222.015	45.57
222.233	47.62
222.451	78.33
222.669	-28.16
222.887	66.05
223.105	70.14
223.323	66.05
223.541	47.62
223.759	147.97
223.977	78.33
224.195	127.49
224.413	64
224.631	86.53
224.849	66.05
225.067	88.57
225.285	4.61
225.503	111.1
225.721	-15.87
225.939	143.87
226.157	61.95
226.375	119.29
226.592	29.18
226.81	47.62
227.028	51.71
227.246	96.77
227.464	127.49
227.682	70.14
227.9	84.48
228.117	78.33
228.335	45.57
228.553	90.62
228.771	70.14
228.989	41.47
229.206	33.28
229.424	111.1
229.642	18.94
229.86	64
230.077	184.83
230.295	86.53
230.513	125.44
230.731	119.29
230.948	127.49
231.166	127.49
231.384	139.77
231.601	20.99
231.819	111.1
232.037	4.61
232.254	94.72
232.472	72.19
232.689	86.53
232.907	111.1
233.125	61.95
233.342	4.61
233.56	16.9
233.777	29.18
233.995	90.62
234.213	64
234.43	53.76
234.648	102.91
234.865	66.05
235.083	29.18
235.3	-7.68
235.518	147.97
235.735	66.05
235.953	88.57
236.17	143.87
236.388	6.66
236.605	90.62
236.822	119.29
237.04	88.57
237.257	86.53
237.475	39.42
237.692	25.09
237.909	6.66
238.127	29.18
238.344	111.1
238.562	109.05
238.779	12.8
238.996	-17.92
239.214	45.57
239.431	102.91
239.648	47.62
239.865	78.33
240.083	37.38
240.3	123.39
240.517	47.62
240.735	57.86
240.952	76.29
241.169	152.06
241.386	92.67
241.603	29.18
241.821	61.95
242.038	84.48
242.255	35.33
242.472	45.57
242.689	55.81
242.907	139.77
243.124	68.09
243.341	66.05
243.558	156.16
243.775	-3.58
243.992	57.86
244.209	66.05
244.426	61.95
244.643	45.57
244.86	61.95
245.078	55.81
245.295	119.29
245.512	90.62
245.729	-15.87
245.946	61.95
246.163	143.87
246.38	88.57
246.597	35.33
246.814	20.99
247.031	4.61
247.248	82.43
247.464	66.05
247.681	33.28
247.898	12.8
248.115	80.38
248.332	16.9
248.549	193.02
248.766	121.34
248.983	64
249.2	51.71
249.417	127.49
249.633	20.99
249.85	139.77
250.067	33.28
250.284	49.66
250.501	143.87
250.717	131.58
250.934	-44.54
251.151	59.9
251.368	-15.87
251.585	51.71
251.801	27.14
252.018	43.52
252.235	117.25
252.451	23.04
252.668	23.04
252.885	113.15
253.102	98.81
253.318	43.52
253.535	31.23
253.752	29.18
253.968	37.38
254.185	-11.78
254.401	78.33
254.618	23.04
254.835	37.38
255.051	-17.92
255.268	47.62
255.484	86.53
255.701	-28.16
255.917	59.9
256.134	80.38
256.351	82.43
256.567	-44.54
256.784	61.95
257	12.8
257.217	172.54
257.433	102.91
257.65	72.19
257.866	86.53
258.082	6.66
258.299	4.61
258.515	41.47
258.732	39.42
258.948	127.49
259.165	102.91
259.381	31.23
259.597	37.38
259.814	31.23
260.03	37.38
260.246	45.57
260.463	6.66
260.679	92.67
260.895	53.76
261.112	31.23
261.328	37.38
261.544	-22.02
261.761	180.73
261.977	80.38
262.193	6.66
262.409	70.14
262.626	78.33
262.842	33.28
263.058	37.38
263.274	80.38
263.49	59.9
263.707	96.77
263.923	39.42
264.139	57.86
264.355	102.91
264.571	137.73
264.787	59.9
265.004	31.23
265.22	18.94
265.436	4.61
265.652	61.95
265.868	53.76
266.084	57.86
266.3	76.29
266.516	49.66
266.732	-3.58
266.948	88.57
267.164	61.95
267.38	37.38
267.596	96.77
267.812	117.25
268.028	64
268.244	61.95
268.46	96.77
268.676	45.57
268.892	70.14
269.108	61.95
269.324	31.23
269.54	-19.97
269.756	55.81
269.972	-15.87
270.188	47.62
270.403	121.34
270.619	14.85
270.835	137.73
271.051	29.18
271.267	10.75
271.483	45.57
271.698	41.47
271.914	78.33
272.13	-1.54
272.346	57.86
272.562	55.81
272.777	74.24
272.993	57.86
273.209	29.18
273.425	49.66
273.64	0.51
273.856	72.19
274.072	20.99
274.287	25.09
274.503	86.53
274.719	0.51
274.934	37.38
275.15	-11.78
275.366	37.38
275.581	35.33
275.797	111.1
276.012	29.18
276.228	86.53
276.444	41.47
276.659	-28.16
276.875	88.57
277.09	186.88
277.306	16.9
277.521	107.01
277.737	70.14
277.952	78.33
278.168	27.14
278.383	47.62
278.599	45.57
278.814	135.68
279.03	45.57
279.245	113.15
279.461	37.38
279.676	37.38
279.892	53.76
280.107	29.18
280.322	-9.73
280.538	78.33
280.753	29.18
280.969	78.33
281.184	29.18
281.399	86.53
281.615	-1.54
281.83	53.76
282.045	31.23
282.26	61.95
282.476	45.57
282.691	129.53
282.906	49.66
283.122	107.01
283.337	-9.73
283.552	51.71
283.767	31.23
283.983	68.09
284.198	107.01
284.413	104.96
284.628	-32.26
284.843	90.62
285.058	125.44
285.274	29.18
285.489	57.86
285.704	86.53
285.919	-73.21
286.134	70.14
286.349	78.33
286.564	-15.87
286.779	29.18
286.995	41.47
287.21	-9.73
287.425	150.01
287.64	-7.68
287.855	47.62
288.07	49.66
288.285	147.97
288.5	76.29
288.715	80.38
288.93	16.9
289.145	57.86
289.36	59.9
289.575	129.53
289.79	227.84
290.004	86.53
290.219	139.77
290.434	90.62
290.649	8.7
290.864	64
291.079	33.28
291.294	45.57
291.509	53.76
291.724	29.18
291.938	74.24
292.153	45.57
292.368	55.81
292.583	72.19
292.798	84.48
293.012	68.09
293.227	90.62
293.442	96.77
293.657	78.33
293.871	137.73
294.086	49.66
294.301	170.49
294.516	64
294.73	66.05
294.945	20.99
295.16	70.14
295.374	102.91
295.589	51.71
295.804	12.8
296.018	133.63
296.233	94.72
296.447	49.66
296.662	51.71
296.877	143.87
297.091	133.63
297.306	66.05
297.52	29.18
297.735	53.76
297.949	117.25
298.164	61.95
298.378	80.38
298.593	35.33
298.807	61.95
299.022	72.19
299.236	111.1
299.451	18.94
299.665	-3.58
299.88	94.72
300.094	29.18
300.309	35.33
300.523	53.76
300.737	76.29
300.952	20.99
301.166	102.91
301.381	102.91
301.595	61.95
301.809	23.04
302.024	49.66
302.238	53.76
302.452	53.76
302.667	94.72
302.881	94.72
303.095	29.18
303.309	29.18
303.524	41.47
303.738	82.43
303.952	41.47
304.166	76.29
304.381	49.66
304.595	29.18
304.809	37.38
305.023	127.49
305.237	53.76
305.452	57.86
305.666	137.73
305.88	10.75
306.094	78.33
306.308	107.01
306.522	37.38
306.736	143.87
306.95	180.73
307.164	68.09
307.379	33.28
307.593	111.1
307.807	86.53
308.021	143.87
308.235	94.72
308.449	-24.06
308.663	-13.82
308.877	102.91
309.091	102.91
309.305	98.81
309.519	94.72
309.733	129.53
309.947	12.8
310.161	131.58
310.374	86.53
310.588	113.15
310.802	-40.45
311.016	115.2
311.23	121.34
311.444	61.95
311.658	74.24
311.872	80.38
312.085	94.72
312.299	55.81
312.513	115.2
312.727	94.72
312.941	33.28
313.154	55.81
313.368	57.86
313.582	29.18
313.796	45.57
314.009	96.77
314.223	127.49
314.437	78.33
314.651	16.9
314.864	57.86
315.078	55.81
315.292	-69.12
315.505	6.66
315.719	61.95
315.933	111.1
316.146	49.66
316.36	39.42
316.573	82.43
316.787	86.53
317.001	78.33
317.214	25.09
317.428	127.49
317.641	-19.97
317.855	102.91
318.068	70.14
318.282	76.29
318.495	86.53
318.709	113.15
318.922	57.86
319.136	94.72
319.349	96.77
319.563	72.19
319.776	53.76
319.99	23.04
320.203	37.38
320.417	74.24
320.63	197.12
320.843	152.06
321.057	-5.63
321.27	107.01
321.483	47.62
321.697	78.33
321.91	131.58
322.124	10.75
322.337	41.47
322.55	53.76
322.763	74.24
322.977	-3.58
323.19	96.77
323.403	66.05
323.617	100.86
323.83	135.68
324.043	113.15
324.256	147.97
324.469	29.18
324.683	127.49
324.896	88.57
325.109	55.81
325.322	66.05
325.535	88.57
325.748	55.81
325.962	137.73
326.175	94.72
326.388	78.33
326.601	102.91
326.814	72.19
327.027	74.24
327.24	131.58
327.453	33.28
327.666	98.81
327.879	156.16
328.092	66.05
328.305	53.76
328.518	41.47
328.731	-3.58
328.944	12.8
329.157	88.57
329.37	0.51
329.583	74.24
329.796	119.29
330.009	111.1
330.222	94.72
330.435	64
330.648	45.57
330.861	72.19
331.073	49.66
331.286	111.1
331.499	78.33
331.712	123.39
331.925	90.62
332.138	102.91
332.35	96.77
332.563	102.91
332.776	94.72
332.989	59.9
333.202	33.28
333.414	12.8
333.627	111.1
333.84	86.53
334.053	74.24
334.265	-7.68
334.478	49.66
334.691	23.04
334.903	-24.06
335.116	49.66
335.329	-3.58
335.541	16.9
335.754	119.29
335.966	88.57
336.179	119.29
336.392	47.62
336.604	66.05
336.817	141.82
337.029	39.42
337.242	86.53
337.454	96.77
337.667	100.86
337.88	78.33
338.092	80.38
338.305	102.91
338.517	94.72
338.729	104.96
338.942	78.33
339.154	37.38
339.367	88.57
339.579	119.29
339.792	53.76
340.004	-17.92
340.217	88.57
340.429	31.23
340.641	14.85
340.854	55.81
341.066	-3.58
341.278	131.58
341.491	121.34
341.703	94.72
341.915	102.91
342.128	80.38
342.34	18.94
342.552	-7.68
342.764	0.51
342.977	133.63
343.189	49.66
343.401	145.92
343.613	119.29
343.826	49.66
344.038	53.76
344.25	96.77
344.462	78.33
344.674	66.05
344.886	90.62
345.099	57.86
345.311	64
345.523	39.42
345.735	61.95
345.947	80.38
346.159	98.81
346.371	111.1
346.583	-3.58
346.795	47.62
347.007	37.38
347.219	70.14
347.431	82.43
347.643	121.34
347.855	94.72
348.067	102.91
348.279	31.23
348.491	115.2
348.703	119.29
348.915	102.91
349.127	4.61
349.339	111.1
349.551	45.57
349.763	127.49
349.975	94.72
350.187	119.29
350.399	33.28
350.61	104.96
350.822	84.48
351.034	68.09
351.246	70.14
351.458	39.42
351.669	96.77
351.881	115.2
352.093	86.53
352.305	168.45
352.517	102.91
352.728	113.15
352.94	70.14
353.152	64
353.363	37.38
353.575	94.72
353.787	127.49
353.999	43.52
354.21	70.14
354.422	29.18
354.633	64
354.845	82.43
355.057	57.86
355.268	23.04
355.48	127.49
355.692	78.33
355.903	70.14
356.115	107.01
356.326	14.85
356.538	55.81
356.749	121.34
356.961	80.38
357.172	41.47
357.384	127.49
357.595	131.58
357.807	92.67
358.018	143.87
358.23	104.96
358.441	131.58
358.653	123.39
358.864	43.52
359.075	14.85
359.287	76.29
359.498	131.58
359.709	33.28
359.921	131.58
360.132	156.16
360.344	102.91
360.555	78.33
360.766	33.28
360.977	43.52
361.189	98.81
361.4	74.24
361.611	135.68
361.823	131.58
362.034	70.14
362.245	94.72
362.456	4.61
362.667	139.77
362.879	45.57
363.09	49.66
363.301	131.58
363.512	53.76
363.723	53.76
363.935	39.42
364.146	135.68
364.357	-1.54
364.568	80.38
364.779	47.62
364.99	33.28
365.201	39.42
365.412	61.95
365.623	6.66
365.834	135.68
366.045	57.86
366.256	104.96
366.467	129.53
366.678	57.86
366.889	143.87
367.1	43.52
367.311	139.77
367.522	78.33
367.733	78.33
367.944	147.97
368.155	6.66
368.366	152.06
368.577	135.68
368.788	121.34
368.999	59.9
369.209	123.39
369.42	197.12
369.631	170.49
369.842	90.62
370.053	70.14
370.264	127.49
370.474	47.62
370.685	88.57
370.896	49.66
371.107	111.1
371.317	107.01
371.528	45.57
371.739	201.21
371.95	61.95
372.16	37.38
372.371	57.86
372.582	49.66
372.792	80.38
373.003	98.81
373.214	156.16
373.424	53.76
373.635	37.38
373.846	168.45
374.056	90.62
374.267	82.43
374.477	125.44
374.688	25.09
374.898	80.38
375.109	14.85
375.319	64
375.53	123.39
375.74	86.53
375.951	10.75
376.161	100.86
376.372	90.62
376.582	68.09
376.793	209.4
377.003	23.04
377.214	80.38
377.424	94.72
377.635	96.77
377.845	82.43
378.055	119.29
378.266	59.9
378.476	111.1
378.686	80.38
378.897	78.33
379.107	41.47
379.317	147.97
379.528	115.2
379.738	78.33
379.948	53.76
380.158	90.62
380.369	86.53
380.579	70.14
380.789	66.05
380.999	94.72
381.21	143.87
381.42	205.31
381.63	133.63
381.84	86.53
382.05	66.05
382.261	133.63
382.471	215.55
382.681	57.86
382.891	100.86
383.101	174.59
383.311	66.05
383.521	119.29
383.731	61.95
383.941	131.58
384.151	41.47
384.361	88.57
384.571	109.05
384.781	107.01
384.991	121.34
385.201	131.58
385.411	137.73
385.621	70.14
385.831	94.72
386.041	119.29
386.251	119.29
386.461	102.91
386.671	74.24
386.881	53.76
387.091	6.66
387.301	137.73
387.511	76.29
387.72	127.49
387.93	96.77
388.14	88.57
388.35	74.24
388.56	78.33
388.769	55.81
388.979	152.06
389.189	121.34
389.399	121.34
389.609	53.76
389.818	98.81
390.028	43.52
390.238	123.39
390.447	66.05
390.657	203.26
390.867	74.24
391.076	70.14
391.286	111.1
391.496	131.58
391.705	143.87
391.915	127.49
392.125	141.82
392.334	78.33
392.544	152.06
392.753	121.34
392.963	129.53
393.172	102.91
393.382	156.16
393.591	96.77
393.801	113.15
394.01	170.49
394.22	162.3
394.429	80.38
394.639	125.44
394.848	111.1
395.058	164.35
395.267	123.39
395.477	100.86
395.686	186.88
395.895	166.4
396.105	217.6
396.314	96.77
396.524	201.21
396.733	109.05
396.942	178.69
397.152	162.3
397.361	102.91
397.57	133.63
397.78	135.68
397.989	145.92
398.198	236.03
398.407	107.01
398.617	244.22
398.826	201.21
399.035	143.87
399.244	158.21
399.453	162.3
399.663	78.33
399.872	172.54
400.081	217.6
400.29	174.59
400.499	209.4
400.708	160.25
400.917	152.06
401.127	182.78
401.336	135.68
401.545	252.41
401.754	242.17
401.963	170.49
402.172	147.97
402.381	152.06
402.59	193.02
402.799	156.16
403.008	233.98
403.217	242.17
403.426	262.65
403.635	145.92
403.844	227.84
404.053	227.84
404.262	109.05
404.471	317.95
404.68	217.6
404.888	276.99
405.097	229.88
405.306	203.26
405.515	250.36
405.724	244.22
405.933	324.09
406.142	315.9
406.35	330.23
406.559	344.57
406.768	309.76
406.977	363
407.185	410.11
407.394	352.76
407.603	283.13
407.812	369.15
408.02	330.23
408.229	348.67
408.438	299.52
408.646	397.82
408.855	377.34
409.064	324.09
409.272	389.63
409.481	489.98
409.69	463.35
409.898	426.49
410.107	420.35
410.315	514.55
410.524	520.7
410.733	530.94
410.941	504.31
411.15	588.28
411.358	676.34
411.567	672.25
411.775	627.19
411.984	619
412.192	684.53
412.401	602.61
412.609	766.45
412.818	819.7
413.026	827.89
413.234	768.5
413.443	840.18
413.651	848.37
413.86	823.8
414.068	909.81
414.276	934.39
414.485	1030.64
414.693	1001.97
414.901	1081.84
415.11	1067.5
415.318	1096.18
415.526	1225.2
415.734	1155.57
415.943	1143.28
416.151	1260.01
416.359	1323.5
416.567	1288.68
416.776	1427.95
416.984	1454.57
417.192	1475.05
417.4	1516.01
417.608	1470.95
417.817	1503.72
418.025	1624.55
418.233	1794.53
418.441	1786.34
418.649	1804.77
418.857	1903.07
419.065	1882.6
419.273	1954.27
419.481	2204.13
419.689	2175.45
419.897	2290.14
420.105	2224.61
420.313	2339.29
420.521	2548.19
420.729	2658.78
420.937	2595.29
421.145	2666.97
421.353	2824.66
421.561	3043.79
421.769	2982.35
421.977	3119.57
422.185	3160.53
422.393	3348.94
422.601	3467.72
422.809	3469.77
423.017	3604.94
423.224	3709.38
423.432	3817.93
423.64	3738.05
423.848	4149.7
424.056	4055.49
424.263	4184.51
424.471	4342.21
424.679	4397.5
424.887	4645.31
425.094	4737.46
425.302	4915.64
425.51	5003.7
425.718	5269.94
425.925	5245.36
426.133	5341.61
426.341	5798.31
426.548	6087.08
426.756	6068.64
426.964	6183.33
427.171	6246.82
427.379	6357.41
427.586	6771.1
427.794	6861.21
428.001	7238.03
428.209	7389.58
428.417	7379.34
428.624	8032.65
428.832	7944.58
429.039	7756.17
429.247	7903.62
429.454	8655.23
429.662	9011.57
429.869	8712.57
430.076	9257.33
430.284	8974.71
430.491	9343.35
430.699	9918.82
430.906	9711.98
431.114	9867.63
431.321	10166.63
431.528	10424.67
431.736	11209.04
431.943	11694.41
432.15	11268.44
432.358	11415.89
432.565	12122.44
432.772	12015.94
432.979	12521.79
433.187	12878.14
433.394	12876.09
433.601	13826.35
433.808	13670.7
434.016	13766.96
434.223	14326.05
434.43	15122.71
434.637	14942.49
434.844	15814.93
435.052	16075.02
435.259	15853.84
435.466	16093.45
435.673	16120.07
435.88	16924.93
436.087	17903.85
436.294	17674.48
436.501	17449.21
436.708	17924.33
436.915	18510.05
437.122	19028.19
437.329	19114.2
437.537	20189.39
437.743	20203.72
437.95	19744.98
438.157	20961.47
438.364	21541.05
438.571	21526.71
438.778	21708.98
438.985	23648.41
439.192	22880.42
439.399	23744.66
439.606	23017.63
439.813	24440.97
440.02	25288.83
440.227	25053.31
440.433	24680.58
440.64	25915.51
440.847	25661.56
441.054	26372.21
441.261	27854.93
441.467	27570.27
441.674	28133.46
441.881	29237.31
442.088	29182.02
442.294	28850.25
442.501	29671.48
442.708	30410.8
442.914	31066.15
443.121	32550.93
443.328	31926.3
443.534	33892.35
443.741	33093.64
443.948	32303.12
444.154	34889.71
444.361	34529.27
444.568	34983.91
444.774	34578.42
444.981	35125.22
445.187	36286.42
445.394	37578.69
445.6	37263.3
445.807	40720.27
446.013	38934.45
446.22	39597.99
446.426	41140.11
446.633	41598.85
446.839	42905.46
447.046	41039.76
447.252	43462.5
447.459	43378.54
447.665	43409.26
447.871	44992.34
448.078	47171.38
448.284	45033.3
448.491	46028.61
448.697	47460.14
448.903	48555.8
449.11	48613.15
449.316	48160.55
449.522	48670.49
449.728	50018.05
449.935	50349.82
450.141	50333.44
450.347	51937
450.553	50048.77
450.76	50552.57
450.966	51965.67
451.172	51418.86
451.378	52821.72
451.584	51668.72
451.791	53165.78
451.997	52731.61
452.203	53602
452.409	53511.89
452.615	53331.67
452.821	51613.42
453.027	50956.02
453.233	53728.97
453.44	51726.06
453.646	52086.5
453.852	52092.65
454.058	52864.73
454.264	51332.85
454.47	52877.02
454.676	51134.2
454.882	52897.5
455.088	48525.08
455.294	49323.79
455.5	49966.85
455.705	50888.44
455.911	48533.28
456.117	47701.8
456.323	46952.24
456.529	44668.76
456.735	46692.15
456.941	45418.31
457.147	45047.63
457.352	43263.85
457.558	42899.31
457.764	43200.36
457.97	41965.44
458.176	41396.1
458.381	41201.55
458.587	39018.41
458.793	39442.34
458.999	37271.5
459.204	39810.98
459.41	38870.96
459.616	36542.42
459.821	36417.49
460.027	36419.54
460.233	35469.28
460.438	33552.38
460.644	34473.97
460.85	32446.48
461.055	31830.04
461.261	31772.7
461.466	29448.25
461.672	28633.16
461.878	30640.17
462.083	28315.73
462.289	28360.78
462.494	27758.68
462.7	26636.39
462.905	25804.92
463.111	26847.33
463.316	26916.97
463.522	26173.55
463.727	26247.28
463.932	26185.84
464.138	25915.51
464.343	25983.09
464.549	25331.84
464.754	26079.35
464.959	25845.88
465.165	25841.78
465.37	24588.42
465.575	23728.28
465.781	24983.68
465.986	24467.59
466.191	23847.06
466.397	23670.93
466.602	22565.03
466.807	23404.7
467.012	23541.91
467.218	23169.18
467.423	22861.99
467.628	23046.3
467.833	23902.36
468.038	22782.12
468.244	22460.59
468.449	23122.08
468.654	22509.74
468.859	22343.85
469.064	22364.33
469.269	21471.42
469.474	21516.47
469.679	22274.22
469.885	20992.19
470.09	21412.03
470.295	21436.6
470.5	20678.85
470.705	21102.78
470.91	20586.69
471.115	20322.51
471.32	20773.06
471.525	20625.61
471.73	20025.55
471.935	20037.84
472.139	19259.61
472.344	19620.05
472.549	19204.31
472.754	19200.22
472.959	18815.2
473.164	18303.21
473.369	18311.4
473.574	18673.89
473.778	18583.78
473.983	18233.58
474.188	18278.63
474.393	17365.24
474.598	17502.45
474.802	17488.12
475.007	17197.31
475.212	17414.39
475.417	16650.5
475.621	17002.75
475.826	16683.27
476.031	16646.4
476.235	16011.53
476.44	16339.21
476.645	15923.47
476.849	16025.87
477.054	15675.66
477.259	15595.79
477.463	15718.67
477.668	15243.54
477.872	15411.48
478.077	15409.43
478.282	14690.59
478.486	14704.93
478.691	14606.63
478.895	14594.34
479.1	14627.1
479.304	14477.6
479.509	14223.65
479.713	14522.66
479.918	14072.11
480.122	13908.27
480.326	14295.33
480.531	14051.63
480.735	13805.87
480.94	13566.26
481.144	13959.47
481.348	13347.12
481.553	13793.58
481.757	13523.25
481.961	13527.35
482.166	13599.02
482.37	13553.97
482.574	13308.21
482.778	13461.81
482.983	13695.28
483.187	13506.87
483.391	13631.79
483.595	13392.18
483.8	13111.61
484.004	13392.18
484.208	13443.38
484.412	13414.71
484.616	13553.97
484.821	13486.39
485.025	13054.26
485.229	13259.06
485.433	13226.29
485.637	13263.16
485.841	13316.4
486.045	13381.94
486.249	13269.3
486.453	13234.49
486.657	13195.57
486.861	13400.37
487.065	12904.76
487.269	13547.83
487.473	13136.18
487.677	13345.08
487.881	13267.25
488.085	13252.92
488.289	13289.78
488.493	13062.46
488.697	13562.16
488.901	13357.36
489.105	13162.81
489.309	13410.61
489.512	13470
489.716	13422.9
489.92	13564.21
490.124	13322.55
490.328	13639.98
490.531	13353.27
490.735	13762.86
490.939	13752.62
491.143	13371.7
491.346	13422.9
491.55	13809.97
491.754	13750.57
491.958	13826.35
492.161	13594.93
492.365	13865.26
492.569	13660.46
492.772	13650.22
492.976	14039.34
493.18	13930.8
493.383	14422.31
493.587	14141.74
493.79	14246.18
493.994	14068.01
494.197	14289.19
494.401	14559.52
494.605	14659.87
494.808	14741.79
495.012	14735.65
495.215	14876.96
495.419	15188.25
495.622	15042.84
495.825	15104.28
496.029	15094.04
496.232	15544.59
496.436	15452.44
496.639	15692.05
496.843	15474.96
497.046	15911.18
497.249	16150.79
497.453	16075.02
497.656	16036.11
497.859	16148.75
498.063	16382.21
498.266	16800
498.469	16726.27
498.673	16802.05
498.876	17017.08
499.079	17240.31
499.282	17608.95
499.485	17823.98
499.689	17819.89
499.892	17922.29
500.095	17936.62
500.298	18354.41
500.501	18077.93
500.705	18970.85
500.908	18772.19
501.111	18976.99
501.314	19278.04
501.517	19439.83
501.72	19761.36
501.923	19566.81
502.126	20035.79
502.329	20410.57
502.532	20422.86
502.735	20719.81
502.938	20979.9
503.141	20834.5
503.344	21401.79
503.547	21194.94
503.75	21674.17
503.953	21737.65
504.156	22347.95
504.359	22278.32
504.562	22528.17
504.765	23152.8
504.968	23185.57
505.17	23294.11
505.373	23359.64
505.576	23961.75
505.779	23910.55
505.982	24148.11
506.185	24328.33
506.387	24545.42
506.59	25108.61
506.793	25215.1
506.996	25172.1
507.198	26140.79
507.401	25733.24
507.604	25763.96
507.807	26447.98
508.009	26529.9
508.212	26841.19
508.415	27179.11
508.617	27629.66
508.82	27420.77
509.022	27465.82
509.225	28235.86
509.428	28436.56
509.63	28588.11
509.833	28651.59
510.035	29302.85
510.238	29118.53
510.44	29341.76
510.643	30025.78
510.845	30189.62
511.048	30244.91
511.25	30713.9
511.453	31039.53
511.655	31629.34
511.858	31229.99
512.06	31934.49
512.262	32172.05
512.465	32170.01
512.667	32679.95
512.87	32981
513.072	32915.47
513.274	33697.79
513.477	33548.29
513.679	34170.87
513.881	34332.66
514.084	34613.23
514.286	34392.05
514.488	34981.87
514.69	36153.3
514.893	35813.34
515.095	35932.12
515.297	36495.32
515.499	36528.08
515.701	37205.96
515.904	37332.93
516.106	37607.36
516.308	37863.36
516.51	38135.74
516.712	38322.1
516.914	38639.54
517.116	39249.83
517.318	39344.04
517.52	39223.21
517.722	39647.14
517.925	40216.47
518.127	40755.09
518.329	40695.7
518.531	40538.01
518.733	41009.04
518.935	41340.81
519.136	41549.7
519.338	41965.44
519.54	42092.41
519.742	42655.61
519.944	42616.69
520.146	43143.02
520.348	43599.72
520.55	43421.55
520.752	43812.71
520.954	44515.16
521.155	43761.51
521.357	44629.85
521.559	44990.29
521.761	45481.8
521.963	45174.61
522.164	45639.5
522.366	45752.13
522.568	46055.23
522.77	46413.63
522.971	46360.38
523.173	45815.62
523.375	46696.25
523.576	46741.3
523.778	47124.27
523.98	47056.69
524.181	47521.58
524.383	47341.36
524.584	47626.03
524.786	47740.71
524.988	47623.98
525.189	48326.43
525.391	48152.35
525.592	48752.41
525.794	48848.66
525.995	48457.5
526.197	48828.18
526.398	48699.16
526.6	48764.7
526.801	48797.46
527.003	49354.51
527.204	49020.69
527.406	49196.82
527.607	49364.75
527.808	49405.71
528.01	49125.14
528.211	49526.54
528.412	50169.6
528.614	50216.71
528.815	50126.6
529.016	50484.99
529.218	49669.9
529.419	49895.17
529.62	49938.18
529.822	49784.58
530.023	49846.02
530.224	49999.62
530.425	49864.46
530.626	49712.91
530.828	49553.16
531.029	50515.71
531.23	49669.9
531.431	50071.3
531.632	49907.46
531.833	50433.79
532.035	50126.6
532.236	50317.06
532.437	50112.26
532.638	49700.62
532.839	49747.72
533.04	50249.47
533.241	49280.78
533.442	49954.57
533.643	49891.08
533.844	49739.53
534.045	49704.71
534.246	49680.14
534.447	50120.45
534.648	49657.61
534.849	50005.76
535.05	49399.57
535.251	49596.17
535.451	49301.26
535.652	49567.5
535.853	49469.2
536.054	49413.9
536.255	49790.73
536.456	49055.51
536.657	50181.89
536.857	49428.24
537.058	49567.5
537.259	49520.4
537.46	49514.25
537.66	49139.47
537.861	49458.96
538.062	48750.36
538.263	49315.6
538.463	49153.81
538.664	48891.67
538.865	49198.87
539.065	49280.78
539.266	48570.14
539.466	49264.4
539.667	48850.71
539.868	49051.41
540.068	48717.59
540.269	48987.92
540.469	48934.68
540.67	48262.94
540.87	48783.13
541.071	49024.79
541.271	48545.56
541.472	48744.22
541.672	48416.54
541.873	48930.58
542.073	48361.25
542.274	49063.7
542.474	48875.29
542.675	47931.17
542.875	48787.22
543.075	48467.74
543.276	48029.48
543.476	48805.66
543.676	48635.67
543.877	48623.39
544.077	48340.77
544.277	48269.09
544.478	48408.35
544.678	48271.14
544.878	48457.5
545.078	48678.68
545.279	48420.64
545.479	48033.57
545.679	48244.51
545.879	48269.09
546.079	48267.04
546.28	48254.75
546.48	47724.33
546.68	48465.69
546.88	48627.48
547.08	48568.09
547.28	47953.7
547.48	47773.48
547.68	48660.25
547.88	47630.12
548.081	48717.59
548.281	48326.43
548.481	48340.77
548.681	48527.13
548.881	48299.81
549.081	47726.38
549.28	48082.72
549.48	48295.71
549.68	48234.27
549.88	49110.8
550.08	47660.84
550.28	48629.53
550.48	48117.54
550.68	48111.39
550.88	47810.34
551.08	48144.16
551.279	48406.3
551.479	47839.01
551.679	48068.39
551.879	48228.13
552.079	48277.28
552.278	47746.86
552.478	48062.24
552.678	48320.29
552.878	48584.47
553.077	47931.17
553.277	47773.48
553.477	48514.84
553.676	48062.24
553.876	48420.64
554.076	48148.26
554.275	48236.32
554.475	47697.7
554.674	47920.93
554.874	48488.22
555.074	47992.61
555.273	48224.03
555.473	48611.1
555.672	48019.24
555.872	48387.87
556.071	48385.82
556.271	48365.34
556.47	48267.04
556.67	48033.57
556.869	48224.03
557.068	48279.33
557.268	48410.4
557.467	47693.61
557.667	48402.21
557.866	48285.47
558.065	48303.9
558.265	48103.2
558.464	47986.47
558.663	48568.09
558.863	47955.75
559.062	48774.94
559.261	48013.09
559.461	48539.42
559.66	47847.21
559.859	48277.28
560.058	48172.83
560.258	48242.46
560.457	47515.43
560.656	48719.64
560.855	48062.24
561.054	48469.79
561.253	47830.82
561.453	47857.45
561.652	48072.48
561.851	48320.29
562.05	47714.09
562.249	48078.63
562.448	48795.42
562.647	47806.25
562.846	47748.9
563.045	48166.69
563.244	47478.57
563.443	48420.64
563.642	47458.09
563.841	47720.23
564.04	47523.63
564.239	47720.23
564.438	47331.12
564.637	47378.22
564.836	48113.44
565.035	47314.73
565.234	47548.2
565.432	47300.4
565.631	47154.99
565.83	47202.1
566.029	47101.75
566.228	47001.39
566.427	46851.89
566.625	46450.49
566.824	46907.19
567.023	47415.08
567.222	46411.58
567.42	47359.79
567.619	46917.43
567.818	46395.2
568.016	46511.93
568.215	47200.05
568.414	46575.42
568.612	46927.67
568.811	46495.55
569.01	46677.82
569.208	45969.22
569.407	46546.75
569.605	45811.52
569.804	46458.68
570.002	46260.03
570.201	46573.37
570.4	45842.24
570.598	45702.98
570.797	45606.73
570.995	45735.75
571.193	45471.56
571.392	45942.59
571.59	45696.84
571.789	45406.03
571.987	45221.71
572.186	45180.75
572.384	44891.99
572.582	45315.92
572.781	45250.38
572.979	44754.77
573.177	44558.17
573.376	45025.1
573.574	44676.95
573.772	44691.29
573.971	44300.12
574.169	44353.37
574.367	44140.38
574.565	44451.67
574.763	44439.39
574.962	44035.94
575.16	43732.84
575.358	44119.9
575.556	43497.32
575.754	43927.39
575.952	43276.14
576.151	43974.5
576.349	43237.23
576.547	42930.03
576.745	43386.73
576.943	43245.42
577.141	42854.26
577.339	43093.87
577.537	42635.13
577.735	42637.17
577.933	42440.57
578.131	42774.39
578.329	42387.32
578.527	42223.48
578.725	42405.75
578.923	42188.67
579.121	41967.49
579.319	42006.4
579.516	42028.93
579.714	42147.71
579.912	42008.45
580.11	41478.02
580.308	41955.2
580.506	41523.08
580.704	40953.74
580.901	41803.65
581.099	41719.68
581.297	40937.36
581.495	40966.03
581.692	41109.39
581.89	40662.93
582.088	41006.99
582.285	40687.51
582.483	40994.7
582.681	40529.81
582.878	40064.92
583.076	40075.16
583.274	40126.36
583.471	39917.47
583.669	40200.09
583.866	39860.13
584.064	40032.16
584.262	39903.14
584.459	39905.18
584.657	39362.47
584.854	39847.84
585.052	39561.12
585.249	39804.83
585.447	39671.71
585.644	39206.83
585.841	39239.59
586.039	39233.45
586.236	38707.12
586.434	38864.81
586.631	38746.03
586.828	38934.45
587.026	38539.19
587.223	38631.35
587.42	38211.51
587.618	38819.76
587.815	38047.68
588.012	38150.07
588.21	38012.86
588.407	38545.33
588.604	38148.03
588.801	37928.89
588.999	37734.34
589.196	37660.61
589.393	37529.54
589.59	37783.49
589.787	37504.96
589.984	37631.94
590.182	37003.21
590.379	37095.37
590.576	37107.66
590.773	36886.48
590.97	36949.96
591.167	37056.46
591.364	36083.67
591.561	36741.07
591.758	36870.09
591.955	36325.33
592.152	36765.65
592.349	36517.84
592.546	36841.42
592.743	36583.38
592.94	35846.11
593.137	36065.24
593.334	36433.88
593.531	35708.9
593.727	35979.23
593.924	36005.85
594.121	35680.22
594.318	35880.92
594.515	35270.63
594.712	36229.08
594.908	35297.25
595.105	36003.8
595.302	35598.3
595.499	35588.06
595.696	35583.97
595.892	35231.72
596.089	35387.36
596.286	35282.92
596.482	35358.69
596.679	35043.31
596.876	35133.42
597.072	34971.63
597.269	35037.16
597.466	34818.03
597.662	34488.31
597.859	34607.09
598.055	34834.41
598.252	34377.72
598.448	34498.55
598.645	34664.43
598.841	34295.8
599.038	34455.54
599.234	34703.34
599.431	33841.15
599.627	34201.59
599.824	34428.91
600.02	33980.41
600.217	34070.52
600.413	34062.33
600.609	33929.21
600.806	34164.73
601.002	34392.05
601.198	33947.64
601.395	33896.44
601.591	34066.42
601.787	34056.18
601.984	34004.99
602.18	34314.23
602.376	33802.24
602.572	33835
602.769	33902.59
602.965	34086.9
603.161	33660.93
603.357	33843.2
603.553	33658.88
603.75	33955.83
603.946	33585.15
604.142	33818.62
604.338	33622.01
604.534	33806.33
604.73	33402.88
604.926	34013.18
605.122	33748.99
605.318	33345.54
605.514	33384.45
605.71	33243.14
605.906	34031.61
606.102	33390.59
606.298	33527.81
606.494	33591.3
606.69	33507.33
606.886	33927.16
607.082	33503.23
607.278	33492.99
607.474	33028.1
607.67	33832.96
607.866	33165.32
608.062	33679.36
608.257	33712.13
608.453	33636.35
608.649	33828.86
608.845	33429.51
609.041	33699.84
609.236	33716.22
609.432	33708.03
609.628	33513.47
609.824	33832.96
610.019	33599.49
610.215	33503.23
610.411	34107.38
610.606	33646.59
610.802	34023.42
610.998	33804.28
611.193	33845.24
611.389	33773.56
611.584	33748.99
611.78	33345.54
611.976	33660.93
612.171	33918.97
612.367	33646.59
612.562	33568.77
612.758	33433.6
612.953	33456.13
613.149	34111.48
613.344	33656.83
613.539	34234.36
613.735	33587.2
613.93	33992.7
614.126	33433.6
614.321	34066.42
614.517	33783.8
614.712	33945.59
614.907	33708.03
615.103	33626.11
615.298	33861.63
615.493	33955.83
615.688	33208.33
615.884	34052.09
616.079	33466.37
616.274	33685.5
616.47	33427.46
616.665	33982.46
616.86	33484.8
617.055	33433.6
617.25	33226.76
617.445	33585.15
617.641	33134.6
617.836	33753.08
618.031	33185.8
618.226	33187.85
618.421	33323.01
618.616	33468.42
618.811	32786.44
619.006	33228.8
619.201	32903.18
619.396	33032.2
619.591	32704.52
619.786	32806.92
619.981	32407.57
620.176	32917.51
620.371	32309.27
620.566	32616.46
620.761	32231.44
620.956	32155.67
621.151	31776.8
621.346	31985.69
621.541	31422.5
621.735	31971.35
621.93	31373.35
622.125	31354.91
622.32	31234.08
622.515	31143.97
622.709	31234.08
622.904	30933.03
623.099	30851.11
623.294	30890.02
623.488	30230.58
623.683	30693.42
623.878	30183.48
624.072	30564.4
624.267	30038.07
624.462	29913.14
624.656	29960.25
624.851	29638.72
625.046	29458.49
625.24	29581.37
625.435	29229.12
625.629	28893.26
625.824	29134.92
626.018	28948.55
626.213	28151.89
626.407	28616.78
626.602	28162.13
626.796	28108.88
626.991	28518.48
627.185	28184.66
627.38	27762.78
627.574	27643.99
627.768	27578.46
627.963	27443.29
628.157	27187.3
628.352	27539.55
628.546	26914.92
628.74	27152.48
628.935	26558.57
629.129	26892.39
629.323	26534
629.517	26331.25
629.712	26177.65
629.906	26478.7
630.1	26054.77
630.294	26036.34
630.489	25884.79
630.683	25809.01
630.877	25424
631.071	25587.83
631.265	25602.17
631.459	25194.62
631.653	25331.84
631.848	25004.16
632.042	25026.69
632.236	25002.11
632.43	24811.65
632.624	24762.5
632.818	24291.47
633.012	24098.96
633.206	24354.96
633.4	24303.76
633.594	23810.2
633.788	23658.65
633.982	23906.45
634.176	23853.2
634.369	23398.55
634.563	23367.84
634.757	23400.6
634.951	23507.1
635.145	23105.7
635.339	23281.82
635.533	22495.4
635.726	22837.41
635.92	22476.97
636.114	22464.68
636.308	22304.94
636.501	22481.06
636.695	22282.41
636.889	22325.42
637.083	21928.11
637.276	21784.76
637.47	21930.16
637.664	21737.65
637.857	21897.39
638.051	21428.41
638.244	21295.29
638.438	20865.22
638.632	21078.21
638.825	21082.3
639.019	20818.11
639.212	20500.68
639.406	20627.65
639.599	20302.03
639.793	20447.43
639.986	20416.71
640.18	20162.76
640.373	20099.28
640.567	19943.63
640.76	19677.4
640.954	19663.06
641.147	19699.92
641.34	19402.97
641.534	19470.55
641.727	19603.67
641.92	19591.38
642.114	18976.99
642.307	19138.78
642.5	18809.06
642.694	18794.72
642.887	18530.53
643.08	18800.87
643.273	18477.29
643.467	18413.8
643.66	18192.62
643.853	18135.28
644.046	17963.25
644.239	18309.35
644.432	17891.57
644.626	17930.48
644.819	17674.48
645.012	17701.11
645.205	17465.59
645.398	17285.37
645.591	17332.47
645.784	17330.42
645.977	17027.32
646.17	17121.53
646.363	17056
646.556	16691.46
646.749	16691.46
646.942	16785.66
647.135	16515.33
647.328	16617.73
647.521	16400.65
647.714	16326.92
647.907	16232.71
648.099	16285.96
648.292	16236.81
648.485	16185.61
648.678	15638.8
648.871	15757.58
649.064	15601.94
649.256	15819.02
649.449	15472.92
649.642	15378.71
649.835	15274.26
650.027	15470.87
650.22	15135
650.413	15053.08
650.605	15018.27
650.798	15151.38
650.991	14752.03
651.183	14901.53
651.376	14792.99
651.568	14967.07
651.761	14711.07
651.954	14367.01
652.146	14315.81
652.339	14455.08
652.531	14102.82
652.724	14340.39
652.916	13783.34
653.109	13859.12
653.301	14156.07
653.494	14237.99
653.686	13676.85
653.879	14027.05
654.071	13648.18
654.263	13515.06
654.456	13783.34
654.648	13596.98
654.84	13197.62
655.033	13310.26
655.225	13089.08
655.417	13181.24
655.61	12994.87
655.802	13070.65
655.994	12972.35
656.186	13050.17
656.379	12900.67
656.571	12886.33
656.763	12767.55
656.955	12544.32
657.148	12659.01
657.34	12427.59
657.532	12421.44
657.724	12425.54
657.916	12417.35
658.108	12083.53
658.3	12183.88
658.492	12140.87
658.684	11964.75
658.876	12077.38
659.068	11993.42
659.26	11880.78
659.452	11802.96
659.644	11710.8
659.836	11489.62
660.028	11438.42
660.22	11522.38
660.412	11440.47
660.604	11491.66
660.796	11374.93
660.988	11381.07
661.18	11252.05
661.372	10963.29
661.563	11286.87
661.755	11116.89
661.947	11094.36
662.139	10875.23
662.331	10875.23
662.522	10754.4
662.714	10916.19
662.906	10629.47
663.097	10807.64
663.289	10639.71
663.481	10592.61
663.673	10516.83
663.864	10283.36
664.056	10375.52
664.247	10287.46
664.439	10152.29
664.631	10230.12
664.822	10039.65
665.014	10287.46
665.205	9904.49
665.397	9998.7
665.588	9869.67
665.78	9785.71
665.971	9681.26
666.163	9818.47
666.354	9513.33
666.546	9494.9
666.737	9593.2
666.929	9685.36
667.12	9628.01
667.311	9435.5
667.503	9466.22
667.694	9408.88
667.885	9474.42
668.077	9306.48
668.268	9173.36
668.459	9240.95
668.651	9122.16
668.842	9126.26
669.033	9007.48
669.224	8966.52
669.416	9040.25
669.607	8958.33
669.798	8724.86
669.989	8993.14
670.18	8814.97
670.371	8597.88
670.563	8479.1
670.754	8610.17
670.945	8681.85
671.136	8644.99
671.327	8491.39
671.518	8501.63
671.709	8518.01
671.9	8462.72
672.091	8335.74
672.282	8388.99
672.473	8286.59
672.664	8190.34
672.855	8245.63
673.046	8288.64
673.237	8204.67
673.428	8264.07
673.619	8085.89
673.809	8012.17
674	8122.76
674.191	7922.06
674.382	7981.45
674.573	8094.08
674.764	7924.1
674.954	8077.7
675.145	7770.51
675.336	7766.41
675.527	7762.31
675.717	7731.59
675.908	7580.04
676.099	7704.97
676.289	7872.9
676.48	7688.59
676.671	7565.71
676.861	7518.61
677.052	7537.04
677.243	7418.25
677.433	7434.64
677.624	7377.3
677.814	7377.3
678.005	7496.08
678.195	7387.54
678.386	7393.68
678.576	7459.21
678.767	7315.86
678.957	7387.54
679.148	7324.05
679.338	7401.87
679.529	7115.16
679.719	7219.6
679.909	7352.72
680.1	7156.11
680.29	7264.66
680.481	7199.12
680.671	7199.12
680.861	6949.27
681.052	7041.43
681.242	6941.08
681.432	7127.44
681.622	6828.44
681.813	7041.43
682.003	6951.32
682.193	6967.7
682.383	7078.29
682.573	6771.1
682.764	6992.28
682.954	6730.14
683.144	6853.02
683.334	6816.15
683.524	6838.68
683.714	6900.12
683.904	6754.71
684.094	6685.08
684.284	6754.71
684.474	6746.52
684.664	6705.56
684.854	6599.07
685.044	6496.67
685.234	6451.61
685.424	6623.64
685.614	6517.15
685.804	6734.23
685.994	6676.89
686.184	6826.39
686.374	6541.72
686.564	6465.95
686.753	6394.27
686.943	6320.54
687.133	6418.85
687.323	6345.12
687.513	6156.71
687.702	6369.69
687.892	6330.78
688.082	6246.82
688.272	6308.26
688.461	6193.57
688.651	6263.2
688.841	6125.99
689.03	6111.65
689.22	6066.6
689.41	6226.34
689.599	6058.4
689.789	6125.99
689.979	6080.93
690.168	6154.66
690.358	5913
690.547	5861.8
690.737	5976.48
690.926	5941.67
691.116	5947.81
691.305	6117.79
691.495	5634.47
691.684	5820.84
691.874	5892.52
692.063	5681.58
692.252	5798.31
692.442	5702.06
692.631	5497.26
692.82	5712.3
693.01	5808.55
693.199	5644.71
693.388	5573.03
693.578	5616.04
693.767	5620.14
693.956	5714.34
694.146	5673.39
694.335	5435.82
694.524	5583.27
694.713	5515.69
694.902	5454.25
695.092	5540.27
695.281	5435.82
695.47	5527.98
695.659	5421.49
695.848	5276.08
696.037	5310.89
696.226	5302.7
696.415	5362.09
696.604	5431.73
696.793	5190.06
696.982	5388.72
697.171	5497.26
697.36	5188.02
697.549	5202.35
697.738	5292.46
697.927	5050.8
698.116	5169.59
698.305	5204.4
698.494	5126.58
698.683	5134.77
698.872	5290.42
699.061	5114.29
699.25	4962.74
699.438	5102
699.627	5038.52
699.816	4995.51
700.005	5013.94
700.193	4936.12
700.382	5069.23
700.571	4932.02
700.76	5009.84
700.948	5026.23
701.137	4968.88
701.326	4897.21
701.514	5026.23
701.703	5011.89
701.892	5009.84
702.08	4925.88
702.269	4794.81
702.457	4862.39
702.646	4823.48
702.834	4725.18
703.023	4723.13
703.212	4682.17
703.4	4678.07
703.589	4641.21
703.777	4659.64
703.965	4444.6
704.154	4618.68
704.342	4747.7
704.531	4628.92
704.719	4460.99
704.907	4743.61
705.096	4559.29
705.284	4700.6
705.472	4544.95
705.661	4387.26
705.849	4544.95
706.037	4536.76
706.226	4401.6
706.414	4344.25
706.602	4452.8
706.79	4487.61
706.979	4452.8
707.167	4485.56
707.355	4301.25
707.543	4264.38
707.731	4327.87
707.919	4301.25
708.107	4174.27
708.296	4329.92
708.484	4223.42
708.672	4397.5
708.86	4323.77
709.048	4372.93
709.236	4170.18
709.424	4145.6
709.612	4108.74
709.8	4194.75
709.988	4215.23
710.176	4213.18
710.364	4157.89
710.551	4131.26
710.739	4094.4
710.927	4133.31
711.115	3979.72
711.303	4141.5
711.491	3989.96
711.679	3953.09
711.866	3955.14
712.054	3928.52
712.242	3987.91
712.43	3887.56
712.617	3750.34
712.805	3992
712.993	3862.98
713.181	3912.13
713.368	3793.35
713.556	3860.93
713.744	3936.71
713.931	3840.45
714.119	3963.33
714.306	3832.26
714.494	3838.41
714.682	3766.73
714.869	3649.99
715.057	3801.54
715.244	3652.04
715.432	3699.14
715.619	3711.43
715.807	3774.92
715.994	3846.6
716.182	3617.22
716.369	3768.77
716.556	3563.98
716.744	3678.66
716.931	3609.03
717.119	3586.51
717.306	3486.15
717.493	3502.54
717.681	3500.49
717.868	3592.65
718.055	3514.83
718.242	3471.82
718.43	3578.31
718.617	3498.44
718.804	3396.04
718.991	3539.4
719.179	3561.93
719.366	3418.57
719.553	3428.81
719.74	3396.04
719.927	3408.33
720.114	3441.1
720.301	3367.37
720.488	3334.61
720.676	3256.78
720.863	3275.21
721.05	3338.7
721.237	3254.73
721.424	3269.07
721.611	3281.36
721.798	3117.52
721.985	3160.53
722.172	3291.6
722.358	3209.68
722.545	3199.44
722.732	3267.02
722.919	3244.49
723.106	3107.28
723.293	3084.75
723.48	3193.3
723.667	3092.94
723.853	3105.23
724.04	3215.82
724.227	3138
724.414	3138
724.6	3008.98
724.787	3105.23
724.974	3168.72
725.161	3037.65
725.347	3035.6
725.534	3008.98
725.72	3039.7
725.907	3006.93
726.094	2978.26
726.28	3027.41
726.467	2871.76
726.653	2998.74
726.84	3027.41
727.027	2980.31
727.213	2871.76
727.4	3097.04
727.586	2900.44
727.773	2908.63
727.959	2963.92
728.145	2849.24
728.332	2896.34
728.518	2865.62
728.705	2990.55
728.891	2912.72
729.077	2884.05
729.264	2791.89
729.45	2800.09
729.636	2912.72
729.823	2824.66
730.009	2800.09
730.195	2849.24
730.382	2748.89
730.568	2695.64
730.754	2765.27
730.94	2765.27
731.126	2626.01
731.313	2736.6
731.499	2636.25
731.685	2658.78
731.871	2658.78
732.057	2757.08
732.243	2734.55
732.429	2816.47
732.615	2705.88
732.801	2679.26
732.987	2652.63
733.173	2683.35
733.359	2652.63
733.545	2626.01
733.731	2632.15
733.917	2583
734.103	2656.73
734.289	2638.3
734.475	2544.09
734.661	2748.89
734.847	2617.82
735.033	2609.62
735.219	2718.17
735.404	2587.1
735.59	2365.92
735.776	2429.4
735.962	2576.86
736.148	2527.71
736.333	2523.61
736.519	2492.89
736.705	2519.51
736.89	2531.8
737.076	2478.55
737.262	2435.55
737.447	2417.12
737.633	2429.4
737.819	2519.51
738.004	2392.54
738.19	2402.78
738.375	2410.97
738.561	2466.27
738.747	2347.48
738.932	2298.33
739.118	2496.99
739.303	2374.11
739.489	2349.53
739.674	2294.24
739.859	2267.61
740.045	2339.29
740.23	2372.06
740.416	2298.33
740.601	2400.73
740.786	2380.25
740.972	2335.2
741.157	2306.52
741.342	2200.03
741.528	2263.52
741.713	2253.28
741.898	2195.93
742.084	2247.13
742.269	2249.18
742.454	2273.76
742.639	2183.65
742.824	2187.74
743.01	2189.79
743.195	2265.57
743.38	2216.41
743.565	2134.5
743.75	2101.73
743.935	2040.29
744.12	2126.3
744.305	1913.31
744.49	2050.53
744.675	2152.93
744.86	2005.47
745.045	2021.86
745.23	2148.83
745.415	1923.55
745.6	1989.09
745.785	2165.21
745.97	2019.81
746.155	1946.08
746.34	2064.86
746.525	1939.94
746.71	1991.14
746.895	1937.89
747.079	1954.27
747.264	1970.66
747.449	1903.07
747.634	1989.09
747.819	2003.43
748.003	1880.55
748.188	1849.83
748.373	1839.59
748.557	1784.29
748.742	1847.78
748.927	1677.8
749.111	1782.24
749.296	1724.9
749.481	1780.2
749.665	1780.2
749.85	1790.44
750.034	1710.57
750.219	1743.33
750.404	1651.17
750.588	1659.37
750.773	1737.19
750.957	1634.79
751.141	1688.04
751.326	1700.33
751.51	1573.35
751.695	1632.74
751.879	1626.6
752.064	1606.12
752.248	1659.37
752.432	1688.04
752.617	1700.33
752.801	1585.64
752.985	1683.94
753.17	1534.44
753.354	1540.58
753.538	1462.76
753.722	1524.2
753.907	1538.54
754.091	1526.25
754.275	1456.62
754.459	1462.76
754.643	1397.23
754.828	1534.44
755.012	1462.76
755.196	1530.34
755.38	1462.76
755.564	1470.95
755.748	1413.61
755.932	1436.14
756.116	1401.32
756.3	1327.6
756.484	1350.12
756.668	1341.93
756.852	1292.78
757.036	1307.12
757.22	1413.61
757.404	1298.92
757.588	1323.5
757.772	1354.22
757.956	1382.89
758.14	1286.64
758.323	1296.88
758.507	1366.51
758.691	1188.33
758.875	1356.27
759.059	1307.12
759.242	1341.93
759.426	1210.86
759.61	1257.96
759.794	1186.29
759.977	1364.46
760.161	1298.92
760.345	1305.07
760.528	1260.01
760.712	1247.72
760.895	1235.44
761.079	1235.44
761.263	1147.37
761.446	1171.95
761.63	1192.43
761.813	1245.68
761.997	1122.8
762.18	1071.6
762.364	1200.62
762.547	1036.78
762.731	1151.47
762.914	1096.18
763.098	1116.65
763.281	1104.37
763.464	1145.33
763.648	1059.31
763.831	1071.6
764.015	1069.55
764.198	1020.4
764.381	1036.78
764.564	1028.59
764.748	1085.94
764.931	1126.89
765.114	1073.65
765.297	1047.02
765.481	1083.89
765.664	1020.4
765.847	1053.17
766.03	1087.98
766.213	981.49
766.397	987.63
766.58	1073.65
766.763	1077.74
766.946	971.25
767.129	1036.78
767.312	989.68
767.495	1028.59
767.678	1004.02
767.861	989.68
768.044	1104.37
768.227	901.62
768.41	979.44
768.593	961.01
768.776	999.92
768.959	918
769.142	909.81
769.324	1016.3
769.507	1004.02
769.69	971.25
769.873	924.15
770.056	969.2
770.239	864.75
770.421	946.67
770.604	922.1
770.787	874.99
770.97	901.62
771.152	879.09
771.335	911.86
771.518	975.35
771.7	1004.02
771.883	1069.55
772.066	1004.02
772.248	942.58
772.431	922.1
772.613	883.19
772.796	858.61
772.978	879.09
773.161	924.15
773.343	862.71
773.526	844.28
773.708	829.94
773.891	733.68
774.073	844.28
774.256	864.75
774.438	885.23
774.621	768.5
774.803	807.41
774.985	686.58
775.168	915.95
775.35	733.68
775.532	856.56
775.715	741.88
775.897	872.95
776.079	846.32
776.261	739.83
776.444	748.02
776.626	860.66
776.808	711.16
776.99	719.35
777.173	786.93
777.355	758.26
777.537	817.65
777.719	823.8
777.901	705.01
778.083	799.22
778.265	668.15
778.447	668.15
778.629	721.4
778.811	752.12
778.993	782.84
779.175	745.97
779.357	694.77
779.539	698.87
779.721	649.72
779.903	717.3
780.085	659.96
780.267	647.67
780.449	793.08
780.631	655.86
780.812	676.34
780.994	602.61
781.176	606.71
781.358	598.52
781.54	692.73
781.721	645.62
781.903	678.39
782.085	686.58
782.267	578.04
782.448	549.37
782.63	659.96
782.812	586.23
782.993	651.77
783.175	621.05
783.357	528.89
783.538	623.09
783.72	514.55
783.901	627.19
784.083	528.89
784.264	621.05
784.446	553.46
784.627	668.15
784.809	541.18
784.99	522.74
785.172	565.75
785.353	643.57
785.535	565.75
785.716	514.55
785.897	414.2
786.079	573.94
786.26	526.84
786.441	483.83
786.623	393.72
786.804	512.5
786.985	479.74
787.167	504.31
787.348	520.7
787.529	506.36
787.71	528.89
787.891	479.74
788.073	528.89
788.254	406.01
788.435	571.9
788.616	512.5
788.797	389.63
788.978	451.07
789.159	430.59
789.34	522.74
789.522	520.7
789.703	430.59
789.884	473.59
790.065	451.07
790.246	410.11
790.427	473.59
790.607	502.26
790.788	518.65
790.969	438.78
791.15	408.06
791.331	442.87
791.512	348.67
791.693	334.33
791.874	383.48
792.054	430.59
792.235	473.59
792.416	367.1
792.597	393.72
792.778	371.19
792.958	393.72
793.139	373.24
793.32	369.15
793.5	410.11
793.681	373.24
793.862	356.86
794.042	375.29
794.223	276.99
794.404	379.39
794.584	371.19
794.765	383.48
794.945	279.04
795.126	432.63
795.306	418.3
795.487	350.71
795.667	381.43
795.848	375.29
796.028	360.95
796.209	438.78
796.389	356.86
796.57	317.95
796.75	375.29
796.93	309.76
797.111	369.15
797.291	266.75
797.471	266.75
797.652	309.76
797.832	313.85
798.012	365.05
798.192	328.19
798.373	260.6
798.553	283.13
798.733	336.38
798.913	348.67
799.093	342.52
799.274	422.39
799.454	338.43
799.634	309.76
799.814	254.46
799.994	299.52
800.174	326.14
800.354	279.04
800.534	227.84
800.714	326.14
800.894	291.32
801.074	246.27
801.254	242.17
801.434	317.95
801.614	330.23
801.794	246.27
801.974	1024.5
802.154	291.32
802.334	242.17
802.514	252.41
802.693	283.13
802.873	270.84
803.053	272.89
803.233	242.17
803.413	201.21
803.592	295.42
803.772	276.99
803.952	381.43
804.131	281.08
804.311	242.17
804.491	307.71
804.67	184.83
804.85	217.6
805.03	193.02
805.209	309.76
805.389	244.22
805.568	258.56
805.748	213.5
805.928	180.73
806.107	242.17
806.287	238.08
806.466	229.88
806.646	266.75
806.825	184.83
807.004	143.87
807.184	172.54
807.363	225.79
807.543	172.54
807.722	242.17
807.901	223.74
808.081	274.94
808.26	193.02
808.439	145.92
808.619	209.4
808.798	233.98
808.977	272.89
809.156	203.26
809.336	252.41
809.515	252.41
809.694	244.22
809.873	197.12
810.052	268.8
810.231	307.71
810.411	184.83
810.59	127.49
810.769	201.21
810.948	195.07
811.127	141.82
811.306	201.21
811.485	233.98
811.664	295.42
811.843	172.54
812.022	213.5
812.201	156.16
812.38	215.55
812.559	219.64
812.737	258.56
812.916	137.73
813.095	184.83
813.274	203.26
813.453	180.73
813.632	229.88
813.811	209.4
813.989	190.97
814.168	270.84
814.347	172.54
814.526	195.07
814.704	213.5
814.883	217.6
815.062	156.16
815.24	238.08
815.419	117.25
815.598	201.21
815.776	119.29
815.955	152.06
816.133	88.57
816.312	211.45
816.49	166.4
816.669	184.83
816.847	92.67
817.026	201.21
817.204	186.88
817.383	172.54
817.561	139.77
817.74	160.25
817.918	201.21
818.097	156.16
818.275	217.6
818.453	127.49
818.632	143.87
818.81	156.16
818.988	162.3
819.167	141.82
819.345	86.53
819.523	203.26
819.701	111.1
819.879	137.73
820.058	172.54
820.236	201.21
820.414	123.39
820.592	209.4
820.77	98.81
820.948	184.83
821.127	176.64
821.305	154.11
821.483	137.73
821.661	121.34
821.839	178.69
822.017	156.16
822.195	244.22
822.373	209.4
822.551	156.16
822.729	186.88
822.907	119.29
823.085	186.88
823.262	92.67
823.44	154.11
823.618	164.35
823.796	127.49
823.974	96.77
824.152	174.59
824.329	186.88
824.507	137.73
824.685	125.44
824.863	123.39
825.04	145.92
825.218	133.63
825.396	203.26
825.574	168.45
825.751	160.25
825.929	168.45
826.107	96.77
826.284	123.39
826.462	184.83
826.639	176.64
826.817	88.57
826.994	123.39
827.172	82.43
827.349	168.45
827.527	137.73
827.704	139.77
827.882	61.95
828.059	102.91
828.237	107.01
828.414	86.53
828.591	143.87
828.769	145.92
828.946	98.81
829.124	133.63
829.301	131.58
829.478	78.33
829.655	131.58
829.833	127.49
830.01	37.38
830.187	166.4
830.364	84.48
830.542	111.1
830.719	145.92
830.896	152.06
831.073	76.29
831.25	162.3
831.427	172.54
831.604	102.91
831.782	61.95
831.959	141.82
832.136	150.01
832.313	184.83
832.49	55.81
832.667	109.05
832.844	96.77
833.021	107.01
833.198	127.49
833.374	2.56
833.551	37.38
833.728	57.86
833.905	119.29
834.082	37.38
834.259	94.72
834.436	154.11
834.612	123.39
834.789	184.83
834.966	80.38
835.143	119.29
835.319	25.09
835.496	102.91
835.673	70.14
835.85	82.43
836.026	127.49
836.203	111.1
836.38	94.72
836.556	45.57
836.733	53.76
836.909	168.45
837.086	25.09
837.262	12.8
837.439	88.57
837.616	-22.02
837.792	76.29
837.968	102.91
838.145	66.05
838.321	109.05
838.498	113.15
838.674	129.53
838.851	111.1
839.027	102.91
839.203	94.72
839.38	94.72
839.556	12.8
839.732	78.33
839.909	137.73
840.085	102.91
840.261	0.51
840.437	96.77
840.614	29.18
840.79	111.1
840.966	129.53
841.142	102.91
841.318	23.04
841.494	119.29
841.671	141.82
841.847	18.94
842.023	12.8
842.199	80.38
842.375	133.63
842.551	74.24
842.727	39.42
842.903	37.38
843.079	53.76
843.255	92.67
843.431	78.33
843.607	66.05
843.783	8.7
843.959	119.29
844.134	86.53
844.31	139.77
844.486	88.57
844.662	92.67
844.838	123.39
845.013	115.2
845.189	49.66
845.365	98.81
845.541	76.29
845.716	74.24
845.892	43.52
846.068	94.72
846.244	20.99
846.419	66.05
846.595	-28.16
846.77	70.14
846.946	61.95
847.122	115.2
847.297	47.62
847.473	76.29
847.648	-3.58
847.824	72.19
847.999	20.99
848.175	45.57
848.35	51.71
848.526	82.43
848.701	98.81
848.876	121.34
849.052	119.29
849.227	102.91
849.403	55.81
849.578	133.63
849.753	51.71
849.929	111.1
850.104	-11.78
850.279	29.18
850.454	74.24
850.63	113.15
850.805	78.33
850.98	154.11
851.155	14.85
851.33	29.18
851.505	39.42
851.681	78.33
851.856	16.9
852.031	49.66
852.206	4.61
852.381	86.53
852.556	72.19
852.731	94.72
852.906	53.76
853.081	80.38
853.256	90.62
853.431	145.92
853.606	45.57
853.781	-7.68
853.956	45.57
854.131	115.2
854.305	47.62
854.48	18.94
854.655	70.14
854.83	55.81
855.005	61.95
855.18	37.38
855.354	64
855.529	82.43
855.704	31.23
855.879	154.11
856.053	51.71
856.228	78.33
856.403	92.67
856.577	45.57
856.752	-77.31
856.926	131.58
857.101	37.38
857.276	16.9
857.45	47.62
857.625	94.72
857.799	86.53
857.974	64
858.148	-36.35
858.323	111.1
858.497	41.47
858.672	121.34
858.846	76.29
859.02	29.18
859.195	66.05
859.369	35.33
859.543	-28.16
859.718	55.81
859.892	66.05
860.066	20.99
860.241	35.33
860.415	37.38
860.589	107.01
860.763	45.57
860.938	-36.35
861.112	123.39
861.286	45.57
861.46	88.57
861.634	12.8
861.808	88.57
861.982	-11.78
862.157	4.61
862.331	16.9
862.505	70.14
862.679	-5.63
862.853	31.23
863.027	51.71
863.201	70.14
863.375	31.23
863.549	20.99
863.722	33.28
863.896	137.73
864.07	4.61
864.244	64
864.418	84.48
864.592	86.53
864.766	70.14
864.939	90.62
865.113	100.86
865.287	168.45
865.461	29.18
865.634	20.99
865.808	12.8
865.982	14.85
866.156	-13.82
866.329	37.38
866.503	39.42
866.676	88.57
866.85	66.05
867.024	12.8
867.197	86.53
867.371	49.66
867.544	45.57
867.718	4.61
867.891	16.9
868.065	-15.87
868.238	55.81
868.412	100.86
868.585	6.66
868.759	88.57
868.932	-40.45
869.105	29.18
869.279	20.99
869.452	14.85
869.625	57.86
869.799	70.14
869.972	-56.83
870.145	-26.11
870.319	70.14
870.492	45.57
870.665	70.14
870.838	29.18
871.011	-26.11
871.185	-91.65
871.358	-42.5
871.531	25.09
871.704	-3.58
871.877	29.18
872.05	35.33
872.223	23.04
872.396	53.76
872.569	111.1
872.742	-28.16
872.915	61.95
873.088	25.09
873.261	25.09
873.434	33.28
873.607	14.85
873.78	64
873.953	0.51
874.126	2.56
874.299	88.57
874.471	45.57
874.644	23.04
874.817	123.39
874.99	156.16
875.163	14.85
875.335	53.76
875.508	-5.63
875.681	100.86
875.853	6.66
876.026	-9.73
876.199	51.71
876.371	16.9
876.544	-9.73
876.717	55.81
876.889	16.9
877.062	20.99
877.234	-50.69
877.407	61.95
877.579	66.05
877.752	45.57
877.924	57.86
878.097	94.72
878.269	-26.11
878.442	23.04
878.614	45.57
878.786	6.66
878.959	72.19
879.131	74.24
879.303	-34.3
879.476	111.1
879.648	-15.87
879.82	18.94
879.993	-24.06
880.165	45.57
880.337	45.57
880.509	70.14
880.681	-5.63
880.854	45.57
881.026	20.99
881.198	51.71
881.37	14.85
881.542	29.18
881.714	4.61
881.886	70.14
882.058	16.9
882.23	31.23
882.402	-26.11
882.574	74.24
882.746	39.42
882.918	102.91
883.09	94.72
883.262	47.62
883.434	33.28
883.606	-11.78
883.778	119.29
883.95	94.72
884.122	29.18
884.293	53.76
884.465	47.62
884.637	25.09
884.809	18.94
884.98	29.18
885.152	84.48
885.324	113.15
885.496	-15.87
885.667	96.77
885.839	68.09
886.011	80.38
886.182	57.86
886.354	-1.54
886.525	27.14
886.697	76.29
886.869	12.8
887.04	57.86
887.212	53.76
887.383	88.57
887.555	31.23
887.726	-3.58
887.897	55.81
888.069	20.99
888.24	-5.63
888.412	-52.74
888.583	14.85
888.754	20.99
888.926	-1.54
889.097	66.05
889.268	29.18
889.44	47.62
889.611	-28.16
889.782	41.47
889.953	37.38
890.125	23.04
890.296	12.8
890.467	45.57
890.638	-52.74
890.809	-24.06
890.98	-54.78
891.151	74.24
891.323	102.91
891.494	25.09
891.665	37.38
891.836	31.23
892.007	-5.63
892.178	41.47
892.349	-19.97
892.52	-9.73
892.691	16.9
892.862	-81.41
893.032	-22.02
893.203	16.9
893.374	-26.11
893.545	49.66
893.716	12.8
893.887	18.94
894.057	-9.73
894.228	23.04
894.399	12.8
894.57	59.9
894.74	41.47
894.911	-3.58
895.082	20.99
895.253	39.42
895.423	14.85
895.594	-19.97
895.764	61.95
895.935	6.66
896.106	37.38
896.276	18.94
896.447	29.18
896.617	37.38
896.788	-3.58
896.958	2.56
897.129	55.81
897.299	-44.54
897.47	90.62
897.64	72.19
897.81	-36.35
897.981	-52.74
898.151	-34.3
898.322	45.57
898.492	45.57
898.662	-3.58
898.832	-28.16
899.003	8.7
899.173	57.86
899.343	10.75
899.513	-38.4
