Data from USB4F104151__190__14-33-04-954.txt Node

Date: Thu Mar 13 14:33:04 EDT 2025
User: louis
Spectrometer: USB4F10415
Trigger mode: 4
Integration Time (sec): 2.500000E-2
Scans to average: 1
Electric dark correction enabled: true
Nonlinearity correction enabled: false
Boxcar width: 0
XAxis mode: Wavelengths
Number of Pixels in Spectrum: 3648
>>>>>Begin Spectral Data<<<<<
178.204	-167.93
178.424	-167.93
178.644	-167.93
178.864	-149.5
179.084	-100.35
179.304	20.48
179.524	-38.91
179.744	12.29
179.964	4.1
180.184	-65.53
180.404	-38.91
180.624	-16.38
180.844	10.24
181.064	40.96
181.283	30.72
181.503	-26.62
181.723	67.58
181.943	-49.15
182.163	63.49
182.383	-45.06
182.602	55.3
182.822	124.93
183.042	-34.82
183.262	20.48
183.482	77.82
183.701	2.05
183.921	-47.1
184.141	-59.39
184.361	45.06
184.58	36.86
184.8	14.34
185.02	24.58
185.239	-2.05
185.459	51.2
185.679	51.2
185.898	-45.06
186.118	77.82
186.338	51.2
186.557	100.35
186.777	-24.58
186.997	18.43
187.216	67.58
187.436	110.59
187.655	36.86
187.875	73.73
188.095	-34.82
188.314	47.1
188.534	81.92
188.753	-6.14
188.973	73.73
189.192	26.62
189.412	16.38
189.631	43.01
189.851	92.16
190.07	86.01
190.29	4.1
190.509	-61.44
190.729	86.01
190.948	2.05
191.168	133.12
191.387	-4.1
191.607	61.44
191.826	-34.82
192.045	65.54
192.265	-36.86
192.484	-12.29
192.704	-40.96
192.923	22.53
193.142	126.97
193.362	-12.29
193.581	51.2
193.8	124.93
194.02	83.97
194.239	-30.72
194.458	22.53
194.678	30.72
194.897	104.45
195.116	-4.1
195.335	26.62
195.555	59.39
195.774	36.86
195.993	30.72
196.212	6.14
196.432	-8.19
196.651	77.82
196.87	-6.14
197.089	110.59
197.308	-22.53
197.528	53.25
197.747	-12.29
197.966	57.34
198.185	71.68
198.404	-2.05
198.623	71.68
198.842	83.97
199.062	65.54
199.281	77.82
199.5	-22.53
199.719	43.01
199.938	43.01
200.157	118.78
200.376	-6.14
200.595	69.63
200.814	38.91
201.033	10.24
201.252	28.67
201.471	38.91
201.69	18.43
201.909	16.38
202.128	118.78
202.347	36.86
202.566	10.24
202.785	26.62
203.004	-75.77
203.223	96.25
203.442	-2.05
203.661	-18.43
203.879	18.43
204.098	26.62
204.317	34.82
204.536	32.77
204.755	71.68
204.974	-14.34
205.193	14.34
205.411	55.3
205.63	75.77
205.849	6.14
206.068	75.77
206.287	-53.25
206.505	51.2
206.724	30.72
206.943	51.2
207.162	-20.48
207.381	18.43
207.599	86.01
207.818	83.97
208.037	-4.1
208.255	10.24
208.474	53.25
208.693	83.97
208.911	26.62
209.13	79.87
209.349	47.1
209.567	51.2
209.786	86.01
210.005	-30.72
210.223	2.05
210.442	-63.49
210.661	34.82
210.879	71.68
211.098	-53.25
211.316	16.38
211.535	18.43
211.753	90.11
211.972	-24.58
212.191	-6.14
212.409	34.82
212.628	43.01
212.846	-8.19
213.065	92.16
213.283	92.16
213.502	45.06
213.72	45.06
213.938	30.72
214.157	43.01
214.375	36.86
214.594	2.05
214.812	0
215.031	69.63
215.249	30.72
215.467	32.77
215.686	55.3
215.904	83.97
216.122	59.39
216.341	59.39
216.559	53.25
216.778	4.1
216.996	2.05
217.214	28.67
217.432	0
217.651	-2.05
217.869	59.39
218.087	45.06
218.306	71.68
218.524	4.1
218.742	-26.62
218.96	75.77
219.179	43.01
219.397	10.24
219.615	90.11
219.833	59.39
220.051	-14.34
220.27	141.31
220.488	116.73
220.706	-20.48
220.924	-12.29
221.142	108.54
221.36	24.58
221.578	69.63
221.796	2.05
222.015	-8.19
222.233	51.2
222.451	161.79
222.669	26.62
222.887	6.14
223.105	4.1
223.323	94.21
223.541	4.1
223.759	36.86
223.977	14.34
224.195	-20.48
224.413	-43.01
224.631	63.49
224.849	22.53
225.067	135.17
225.285	16.38
225.503	10.24
225.721	-63.49
225.939	22.53
226.157	20.48
226.375	149.5
226.592	2.05
226.81	-2.05
227.028	-2.05
227.246	100.35
227.464	-34.82
227.682	51.2
227.9	38.91
228.117	51.2
228.335	28.67
228.553	55.3
228.771	-2.05
228.989	69.63
229.206	26.62
229.424	-6.14
229.642	14.34
229.86	26.62
230.077	4.1
230.295	-6.14
230.513	51.2
230.731	10.24
230.948	51.2
231.166	73.73
231.384	-30.72
231.601	63.49
231.819	67.58
232.037	-47.1
232.254	-22.53
232.472	45.06
232.689	-4.1
232.907	67.58
233.125	51.2
233.342	-2.05
233.56	28.67
233.777	-71.68
233.995	18.43
234.213	102.4
234.43	10.24
234.648	36.86
234.865	10.24
235.083	83.97
235.3	-30.72
235.518	34.82
235.735	43.01
235.953	67.58
236.17	20.48
236.388	14.34
236.605	47.1
236.822	43.01
237.04	40.96
237.257	71.68
237.475	34.82
237.692	67.58
237.909	22.53
238.127	-6.14
238.344	-4.1
238.562	124.93
238.779	26.62
238.996	10.24
239.214	47.1
239.431	-22.53
239.648	51.2
239.865	43.01
240.083	34.82
240.3	30.72
240.517	20.48
240.735	71.68
240.952	-2.05
241.169	122.88
241.386	18.43
241.603	34.82
241.821	20.48
242.038	20.48
242.255	100.35
242.472	-16.38
242.689	47.1
242.907	63.49
243.124	59.39
243.341	75.77
243.558	-12.29
243.775	36.86
243.992	79.87
244.209	88.06
244.426	67.58
244.643	-6.14
244.86	6.14
245.078	36.86
245.295	67.58
245.512	34.82
245.729	38.91
245.946	-16.38
246.163	55.3
246.38	88.06
246.597	40.96
246.814	86.01
247.031	20.48
247.248	18.43
247.464	51.2
247.681	51.2
247.898	67.58
248.115	-30.72
248.332	16.38
248.549	83.97
248.766	145.41
248.983	98.3
249.2	28.67
249.417	40.96
249.633	30.72
249.85	51.2
250.067	77.82
250.284	-14.34
250.501	83.97
250.717	112.64
250.934	59.39
251.151	-10.24
251.368	22.53
251.585	73.73
251.801	18.43
252.018	-30.72
252.235	34.82
252.451	-2.05
252.668	-49.15
252.885	14.34
253.102	18.43
253.318	43.01
253.535	6.14
253.752	-104.45
253.968	12.29
254.185	22.53
254.401	14.34
254.618	43.01
254.835	-28.67
255.051	120.83
255.268	104.45
255.484	24.58
255.701	38.91
255.917	69.63
256.134	45.06
256.351	53.25
256.567	67.58
256.784	77.82
257	34.82
257.217	-10.24
257.433	75.77
257.65	96.25
257.866	55.3
258.082	-2.05
258.299	30.72
258.515	10.24
258.732	28.67
258.948	28.67
259.165	53.25
259.381	-22.53
259.597	69.63
259.814	36.86
260.03	2.05
260.246	10.24
260.463	36.86
260.679	20.48
260.895	26.62
261.112	47.1
261.328	18.43
261.544	-10.24
261.761	92.16
261.977	67.58
262.193	59.39
262.409	4.1
262.626	26.62
262.842	10.24
263.058	-30.72
263.274	100.35
263.49	-38.91
263.707	112.64
263.923	53.25
264.139	28.67
264.355	28.67
264.571	36.86
264.787	116.73
265.004	94.21
265.22	38.91
265.436	38.91
265.652	51.2
265.868	14.34
266.084	18.43
266.3	51.2
266.516	2.05
266.732	-6.14
266.948	8.19
267.164	-14.34
267.38	28.67
267.596	18.43
267.812	110.59
268.028	67.58
268.244	-43.01
268.46	-59.39
268.676	30.72
268.892	69.63
269.108	55.3
269.324	51.2
269.54	67.58
269.756	38.91
269.972	-26.62
270.188	6.14
270.403	43.01
270.619	10.24
270.835	53.25
271.051	-4.1
271.267	-55.3
271.483	14.34
271.698	20.48
271.914	67.58
272.13	32.77
272.346	75.77
272.562	40.96
272.777	100.35
272.993	32.77
273.209	38.91
273.425	38.91
273.64	-51.2
273.856	20.48
274.072	-14.34
274.287	6.14
274.503	2.05
274.719	34.82
274.934	94.21
275.15	-26.62
275.366	51.2
275.581	-55.3
275.797	14.34
276.012	69.63
276.228	47.1
276.444	34.82
276.659	-6.14
276.875	-18.43
277.09	45.06
277.306	-38.91
277.521	86.01
277.737	55.3
277.952	34.82
278.168	83.97
278.383	18.43
278.599	86.01
278.814	83.97
279.03	-40.96
279.245	63.49
279.461	8.19
279.676	100.35
279.892	6.14
280.107	12.29
280.322	38.91
280.538	45.06
280.753	26.62
280.969	77.82
281.184	-30.72
281.399	71.68
281.615	-14.34
281.83	26.62
282.045	38.91
282.26	-30.72
282.476	53.25
282.691	28.67
282.906	92.16
283.122	10.24
283.337	34.82
283.552	86.01
283.767	-30.72
283.983	51.2
284.198	36.86
284.413	38.91
284.628	30.72
284.843	12.29
285.058	71.68
285.274	30.72
285.489	43.01
285.704	77.82
285.919	8.19
286.134	-6.14
286.349	47.1
286.564	43.01
286.779	65.54
286.995	18.43
287.21	-53.25
287.425	-6.14
287.64	-32.77
287.855	126.97
288.07	12.29
288.285	38.91
288.5	73.73
288.715	75.77
288.93	49.15
289.145	59.39
289.36	-4.1
289.575	120.83
289.79	77.82
290.004	90.11
290.219	98.3
290.434	71.68
290.649	53.25
290.864	28.67
291.079	4.1
291.294	45.06
291.509	16.38
291.724	67.58
291.938	59.39
292.153	124.93
292.368	16.38
292.583	92.16
292.798	18.43
293.012	-34.82
293.227	51.2
293.442	26.62
293.657	38.91
293.871	20.48
294.086	20.48
294.301	79.87
294.516	24.58
294.73	43.01
294.945	-8.19
295.16	120.83
295.374	55.3
295.589	94.21
295.804	47.1
296.018	28.67
296.233	26.62
296.447	55.3
296.662	88.06
296.877	100.35
297.091	79.87
297.306	65.54
297.52	16.38
297.735	-14.34
297.949	-49.15
298.164	36.86
298.378	2.05
298.593	2.05
298.807	40.96
299.022	-14.34
299.236	53.25
299.451	-4.1
299.665	45.06
299.88	49.15
300.094	26.62
300.309	22.53
300.523	67.58
300.737	83.97
300.952	51.2
301.166	92.16
301.381	14.34
301.595	36.86
301.809	32.77
302.024	18.43
302.238	45.06
302.452	8.19
302.667	28.67
302.881	114.69
303.095	116.73
303.309	59.39
303.524	-14.34
303.738	-12.29
303.952	-20.48
304.166	51.2
304.381	4.1
304.595	182.27
304.809	-63.49
305.023	98.3
305.237	96.25
305.452	34.82
305.666	22.53
305.88	63.49
306.094	106.49
306.308	57.34
306.522	92.16
306.736	102.4
306.95	94.21
307.164	47.1
307.379	69.63
307.593	108.54
307.807	34.82
308.021	94.21
308.235	-2.05
308.449	-30.72
308.663	12.29
308.877	83.97
309.091	116.73
309.305	94.21
309.519	-6.14
309.733	94.21
309.947	4.1
310.161	92.16
310.374	63.49
310.588	53.25
310.802	30.72
311.016	47.1
311.23	79.87
311.444	43.01
311.658	28.67
311.872	94.21
312.085	47.1
312.299	63.49
312.513	24.58
312.727	110.59
312.941	-4.1
313.154	30.72
313.368	43.01
313.582	2.05
313.796	75.77
314.009	79.87
314.223	100.35
314.437	126.97
314.651	67.58
314.864	18.43
315.078	59.39
315.292	36.86
315.505	-6.14
315.719	100.35
315.933	26.62
316.146	43.01
316.36	-12.29
316.573	108.54
316.787	45.06
317.001	53.25
317.214	-24.58
317.428	63.49
317.641	18.43
317.855	57.34
318.068	86.01
318.282	53.25
318.495	57.34
318.709	88.06
318.922	-73.73
319.136	110.59
319.349	59.39
319.563	75.77
319.776	18.43
319.99	-30.72
320.203	92.16
320.417	30.72
320.63	100.35
320.843	63.49
321.057	34.82
321.27	69.63
321.483	120.83
321.697	174.08
321.91	-30.72
322.124	120.83
322.337	2.05
322.55	-75.77
322.763	38.91
322.977	-2.05
323.19	-18.43
323.403	22.53
323.617	57.34
323.83	92.16
324.043	32.77
324.256	34.82
324.469	-14.34
324.683	96.25
324.896	26.62
325.109	34.82
325.322	-8.19
325.535	-16.38
325.748	45.06
325.962	69.63
326.175	81.92
326.388	30.72
326.601	36.86
326.814	-43.01
327.027	-2.05
327.24	120.83
327.453	49.15
327.666	51.2
327.879	79.87
328.092	65.54
328.305	94.21
328.518	22.53
328.731	28.67
328.944	18.43
329.157	75.77
329.37	-30.72
329.583	22.53
329.796	124.93
330.009	14.34
330.222	122.88
330.435	53.25
330.648	69.63
330.861	61.44
331.073	43.01
331.286	51.2
331.499	43.01
331.712	59.39
331.925	16.38
332.138	36.86
332.35	86.01
332.563	32.77
332.776	122.88
332.989	59.39
333.202	-14.34
333.414	45.06
333.627	65.54
333.84	86.01
334.053	34.82
334.265	2.05
334.478	34.82
334.691	10.24
334.903	100.35
335.116	-14.34
335.329	63.49
335.541	141.31
335.754	43.01
335.966	55.3
336.179	4.1
336.392	45.06
336.604	67.58
336.817	90.11
337.029	67.58
337.242	75.77
337.454	14.34
337.667	51.2
337.88	59.39
338.092	28.67
338.305	55.3
338.517	61.44
338.729	112.64
338.942	38.91
339.154	4.1
339.367	26.62
339.579	12.29
339.792	43.01
340.004	26.62
340.217	69.63
340.429	79.87
340.641	55.3
340.854	34.82
341.066	67.58
341.278	86.01
341.491	53.25
341.703	30.72
341.915	43.01
342.128	106.49
342.34	59.39
342.552	36.86
342.764	75.77
342.977	-28.67
343.189	67.58
343.401	-22.53
343.613	-10.24
343.826	139.26
344.038	28.67
344.25	100.35
344.462	45.06
344.674	28.67
344.886	40.96
345.099	18.43
345.311	65.54
345.523	18.43
345.735	-12.29
345.947	90.11
346.159	-6.14
346.371	2.05
346.583	18.43
346.795	137.21
347.007	2.05
347.219	100.35
347.431	53.25
347.643	43.01
347.855	73.73
348.067	137.21
348.279	51.2
348.491	75.77
348.703	69.63
348.915	47.1
349.127	-4.1
349.339	34.82
349.551	59.39
349.763	86.01
349.975	-14.34
350.187	83.97
350.399	122.88
350.61	83.97
350.822	114.69
351.034	18.43
351.246	102.4
351.458	36.86
351.669	53.25
351.881	65.54
352.093	12.29
352.305	43.01
352.517	67.58
352.728	77.82
352.94	75.77
353.152	71.68
353.363	-34.82
353.575	79.87
353.787	53.25
353.999	43.01
354.21	10.24
354.422	26.62
354.633	-47.1
354.845	47.1
355.057	96.25
355.268	116.73
355.48	14.34
355.692	51.2
355.903	83.97
356.115	26.62
356.326	-30.72
356.538	79.87
356.749	102.4
356.961	100.35
357.172	51.2
357.384	-14.34
357.595	153.6
357.807	86.01
358.018	-26.62
358.23	20.48
358.441	102.4
358.653	34.82
358.864	16.38
359.075	28.67
359.287	100.35
359.498	47.1
359.709	83.97
359.921	18.43
360.132	45.06
360.344	-14.34
360.555	67.58
360.766	59.39
360.977	14.34
361.189	71.68
361.4	55.3
361.611	77.82
361.823	100.35
362.034	40.96
362.245	36.86
362.456	32.77
362.667	100.35
362.879	-30.72
363.09	94.21
363.301	65.54
363.512	63.49
363.723	-6.14
363.935	61.44
364.146	126.97
364.357	65.54
364.568	28.67
364.779	6.14
364.99	69.63
365.201	63.49
365.412	47.1
365.623	28.67
365.834	67.58
366.045	28.67
366.256	102.4
366.467	75.77
366.678	96.25
366.889	10.24
367.1	16.38
367.311	55.3
367.522	53.25
367.733	108.54
367.944	75.77
368.155	30.72
368.366	137.21
368.577	116.73
368.788	65.54
368.999	-8.19
369.209	81.92
369.42	153.6
369.631	161.79
369.842	71.68
370.053	77.82
370.264	112.64
370.474	10.24
370.685	163.84
370.896	-6.14
371.107	143.36
371.317	75.77
371.528	79.87
371.739	98.3
371.95	30.72
372.16	38.91
372.371	45.06
372.582	88.06
372.792	55.3
373.003	51.2
373.214	63.49
373.424	4.1
373.635	36.86
373.846	98.3
374.056	81.92
374.267	34.82
374.477	45.06
374.688	26.62
374.898	47.1
375.109	61.44
375.319	34.82
375.53	69.63
375.74	57.34
375.951	51.2
376.161	38.91
376.372	133.12
376.582	55.3
376.793	34.82
377.003	18.43
377.214	43.01
377.424	86.01
377.635	45.06
377.845	-6.14
378.055	96.25
378.266	36.86
378.476	102.4
378.686	36.86
378.897	108.54
379.107	71.68
379.317	71.68
379.528	110.59
379.738	92.16
379.948	-12.29
380.158	165.89
380.369	26.62
380.579	79.87
380.789	165.89
380.999	79.87
381.21	63.49
381.42	126.97
381.63	96.25
381.84	20.48
382.05	124.93
382.261	16.38
382.471	124.93
382.681	79.87
382.891	96.25
383.101	92.16
383.311	20.48
383.521	38.91
383.731	43.01
383.941	100.35
384.151	-22.53
384.361	69.63
384.571	55.3
384.781	73.73
384.991	124.93
385.201	112.64
385.411	104.45
385.621	69.63
385.831	18.43
386.041	69.63
386.251	49.15
386.461	71.68
386.671	43.01
386.881	36.86
387.091	6.14
387.301	149.5
387.511	67.58
387.72	108.54
387.93	90.11
388.14	20.48
388.35	73.73
388.56	34.82
388.769	83.97
388.979	157.69
389.189	30.72
389.399	53.25
389.609	61.44
389.818	100.35
390.028	0
390.238	51.2
390.447	6.14
390.657	94.21
390.867	34.82
391.076	12.29
391.286	94.21
391.496	116.73
391.705	51.2
391.915	77.82
392.125	133.12
392.334	116.73
392.544	133.12
392.753	34.82
392.963	38.91
393.172	116.73
393.382	14.34
393.591	118.78
393.801	-63.49
394.01	165.89
394.22	114.69
394.429	88.06
394.639	59.39
394.848	126.97
395.058	98.3
395.267	110.59
395.477	20.48
395.686	124.93
395.895	88.06
396.105	110.59
396.314	135.17
396.524	73.73
396.733	151.55
396.942	149.5
397.152	116.73
397.361	71.68
397.57	83.97
397.78	149.5
397.989	110.59
398.198	137.21
398.407	26.62
398.617	51.2
398.826	137.21
399.035	116.73
399.244	71.68
399.453	30.72
399.663	104.45
399.872	167.93
400.081	43.01
400.29	124.93
400.499	118.78
400.708	151.55
400.917	108.54
401.127	75.77
401.336	116.73
401.545	182.27
401.754	157.69
401.963	165.89
402.172	200.7
402.381	135.17
402.59	141.31
402.799	149.5
403.008	141.31
403.217	206.84
403.426	149.5
403.635	124.93
403.844	169.98
404.053	118.78
404.262	94.21
404.471	233.47
404.68	169.98
404.888	176.13
405.097	139.26
405.306	198.65
405.515	190.46
405.724	124.93
405.933	256
406.142	126.97
406.35	186.37
406.559	215.04
406.768	231.42
406.977	288.76
407.185	215.04
407.394	192.51
407.603	190.46
407.812	227.32
408.02	307.2
408.229	194.56
408.438	294.91
408.646	184.32
408.855	258.04
409.064	294.91
409.272	317.44
409.481	329.72
409.69	264.19
409.898	315.39
410.107	387.07
410.315	356.35
410.524	280.57
410.733	403.45
410.941	354.3
411.15	432.12
411.358	454.65
411.567	485.37
411.775	448.51
411.984	391.16
412.192	415.74
412.401	503.8
412.609	567.29
412.818	628.73
413.026	600.05
413.234	550.9
413.443	606.2
413.651	583.67
413.86	620.53
414.068	684.02
414.276	718.84
414.485	698.36
414.693	741.36
414.901	772.08
415.11	782.32
415.318	772.08
415.526	755.7
415.734	831.48
415.943	878.58
416.151	870.39
416.359	858.1
416.567	983.03
416.776	913.39
416.984	999.41
417.192	1095.66
417.4	1050.61
417.608	1181.68
417.817	1048.56
418.025	1220.59
418.233	1312.75
418.441	1206.25
418.649	1230.83
418.857	1421.29
419.065	1415.15
419.273	1386.47
419.481	1560.55
419.689	1576.94
419.897	1705.96
420.105	1675.24
420.313	1703.91
420.521	1791.97
420.729	1855.46
420.937	1890.28
421.145	1941.47
421.353	2050.02
421.561	2140.13
421.769	2150.37
421.977	2193.37
422.185	2156.51
422.393	2373.6
422.601	2652.12
422.809	2525.15
423.017	2381.79
423.224	2619.35
423.432	2652.12
423.64	2688.98
423.848	3076.05
424.056	2975.7
424.263	3164.11
424.471	3098.58
424.679	3200.98
424.887	3317.71
425.094	3454.92
425.302	3403.72
425.51	3590.09
425.718	3803.08
425.925	3770.31
426.133	3901.38
426.341	4104.13
426.548	4329.41
426.756	4300.73
426.964	4374.46
427.171	4548.54
427.379	4763.58
427.586	4908.98
427.794	4659.13
428.001	5017.52
428.209	5318.57
428.417	5273.52
428.624	5689.26
428.832	5660.59
429.039	5580.71
429.247	5705.64
429.454	6129.57
429.662	6580.12
429.869	6016.93
430.076	6623.13
430.284	6326.18
430.491	6795.16
430.699	7088.02
430.906	6940.57
431.114	7100.31
431.321	7323.54
431.528	7516.05
431.736	7989.13
431.943	8441.73
432.15	8017.8
432.358	8222.59
432.565	8523.65
432.772	8546.17
432.979	9211.76
433.187	9250.67
433.394	9291.63
433.601	9881.45
433.808	9817.96
434.016	9922.41
434.223	10229.6
434.43	10751.84
434.637	10735.45
434.844	11110.23
435.052	11429.71
435.259	11456.34
435.466	11640.65
435.673	11573.07
435.88	12138.31
436.087	12361.54
436.294	12746.56
436.501	12568.38
436.708	12678.97
436.915	13186.87
437.122	13653.81
437.329	13692.72
437.537	14133.03
437.743	14581.54
437.95	14210.86
438.157	15001.37
438.364	15503.12
438.571	15384.34
438.778	15476.5
438.985	16725.76
439.192	16369.41
439.399	16834.3
439.606	16361.22
439.813	17520.37
440.02	18222.83
440.227	18083.56
440.433	17729.27
440.64	18527.97
440.847	18353.9
441.054	18599.65
441.261	19887.82
441.467	19508.95
441.674	20199.12
441.881	20932.29
442.088	20606.66
442.294	21049.02
442.501	20997.82
442.708	21681.85
442.914	22355.63
443.121	23113.38
443.328	22865.57
443.534	24481.42
443.741	23508.63
443.948	23140
444.154	24940.16
444.361	24931.97
444.568	25063.04
444.774	25032.32
444.981	25376.38
445.187	25673.34
445.394	27262.56
445.6	26695.27
445.807	29433.41
446.013	27997.78
446.22	28626.51
446.426	29828.66
446.633	29957.69
446.839	30834.22
447.046	29507.13
447.252	31350.31
447.459	31254.05
447.665	30901.8
447.871	32595.47
448.078	34338.29
448.284	32120.34
448.491	33003.02
448.697	34422.26
448.903	35022.31
449.11	35182.06
449.316	34231.8
449.522	35276.26
449.728	36038.11
449.935	36701.65
450.141	36640.21
450.347	37148.11
450.553	35829.21
450.76	36642.26
450.966	37926.33
451.172	37275.08
451.378	37950.91
451.584	37371.33
451.791	38432.18
451.997	37940.67
452.203	38647.22
452.409	38768.05
452.615	38391.22
452.821	37072.33
453.027	36586.96
453.233	38684.08
453.44	36820.43
453.646	37152.2
453.852	37492.16
454.058	38141.37
454.264	36875.73
454.47	37920.19
454.676	36728.27
454.882	37842.37
455.088	34285.04
455.294	35075.56
455.5	35464.67
455.705	36015.58
455.911	34747.89
456.117	33816.06
456.323	33695.23
456.529	31671.84
456.735	33123.85
456.941	32112.15
457.147	31440.42
457.352	30391.86
457.558	30463.54
457.764	30187.06
457.97	29711.93
458.176	29111.88
458.381	29206.08
458.587	27840.09
458.793	27584.09
458.999	26574.44
459.204	27862.61
459.41	27188.83
459.616	25556.6
459.821	25476.73
460.027	25601.66
460.233	24741.51
460.438	23647.9
460.644	23738.01
460.85	22793.89
461.055	22376.11
461.261	22619.81
461.466	20735.68
461.672	19916.5
461.878	21532.34
462.083	20061.9
462.289	19680.98
462.494	19578.58
462.7	18718.43
462.905	18351.85
463.111	18714.34
463.316	18775.78
463.522	18425.57
463.727	18634.47
463.932	18357.99
464.138	18091.76
464.343	18347.75
464.549	17942.25
464.754	18452.2
464.959	18173.67
465.165	18091.76
465.37	16983.8
465.575	16903.93
465.781	17387.25
465.986	17635.06
466.191	17012.48
466.397	16609.03
466.602	15830.8
466.807	16611.07
467.012	16439.05
467.218	16348.93
467.423	16123.66
467.628	16256.78
467.833	16910.08
468.038	16101.13
468.244	15898.38
468.449	16111.37
468.654	15863.57
468.859	15781.65
469.064	15673.1
469.269	14821.15
469.474	15007.51
469.679	15529.75
469.885	14984.99
470.09	15083.29
470.295	15021.85
470.5	14825.25
470.705	14817.05
470.91	14520.1
471.115	14386.98
471.32	14630.69
471.525	14618.4
471.73	14296.87
471.935	14202.66
472.139	13608.75
472.344	13604.66
472.549	13537.07
472.754	13653.81
472.959	13037.37
473.164	12750.65
473.369	12732.22
473.574	13225.78
473.778	13074.23
473.983	12851
474.188	12826.43
474.393	12416.83
474.598	12330.82
474.802	12320.58
475.007	12144.45
475.212	12212.04
475.417	11747.15
475.621	11802.44
475.826	11657.04
476.031	11573.07
476.235	11210.58
476.44	11431.76
476.645	11292.5
476.849	11372.37
477.054	11167.57
477.259	11069.27
477.463	11179.86
477.668	10635.1
477.872	10841.95
478.077	10577.76
478.282	10415.97
478.486	10424.16
478.691	10391.39
478.895	10332
479.1	10168.16
479.304	10340.19
479.509	9959.27
479.713	10159.97
479.918	9822.06
480.122	9707.37
480.326	9889.64
480.531	9820.01
480.735	9807.72
480.94	9721.71
481.144	10014.57
481.348	9514.86
481.553	9617.26
481.757	9549.68
481.961	9547.63
482.166	9561.97
482.37	9590.64
482.574	9383.79
482.778	9453.42
482.983	9766.76
483.187	9353.07
483.391	9594.73
483.595	9207.67
483.8	9324.4
484.004	9537.39
484.208	9594.73
484.412	9465.71
484.616	9418.61
484.821	9373.55
485.025	9377.65
485.229	9461.62
485.433	9422.7
485.637	9385.84
485.841	9336.69
486.045	9346.93
486.249	9502.57
486.453	9078.65
486.657	9512.81
486.861	9414.51
487.065	9174.9
487.269	9400.18
487.473	9133.94
487.677	9363.31
487.881	9391.98
488.085	9672.56
488.289	9222
488.493	9248.63
488.697	9500.53
488.901	9471.86
489.105	9328.5
489.309	9471.86
489.512	9541.49
489.716	9447.28
489.92	9414.51
490.124	9432.94
490.328	9768.81
490.531	9531.25
490.735	9709.42
490.939	9269.11
491.143	9547.63
491.346	9449.33
491.55	9586.54
491.754	9779.05
491.958	9711.47
492.161	9611.12
492.365	9807.72
492.569	9688.94
492.772	9705.32
492.976	10010.47
493.18	9740.14
493.383	10133.35
493.587	10022.76
493.79	10076.01
493.994	10078.05
494.197	10250.08
494.401	10282.85
494.605	10381.15
494.808	10397.54
495.012	10291.04
495.215	10452.83
495.419	10477.41
495.622	10671.97
495.825	10768.22
496.029	10370.91
496.232	10833.75
496.436	10815.32
496.639	11163.48
496.843	11013.98
497.046	11052.89
497.249	11276.12
497.453	11511.63
497.656	11403.09
497.859	11560.78
498.063	11501.39
498.266	11794.25
498.469	11843.4
498.673	11855.69
498.876	12175.17
499.079	12248.9
499.282	12199.75
499.485	12699.45
499.689	12347.2
499.892	12818.24
500.095	12508.99
500.298	12840.76
500.501	12941.11
500.705	13352.76
500.908	13086.52
501.111	13221.69
501.314	13608.75
501.517	13612.85
501.72	13760.3
501.923	13684.53
502.126	14139.18
502.329	14300.97
502.532	14333.73
502.735	14333.73
502.938	14880.54
503.141	14843.68
503.344	14913.31
503.547	14737.18
503.75	14929.69
503.953	15478.55
504.156	15535.89
504.359	15771.41
504.562	15855.37
504.765	16113.42
504.968	16131.85
505.17	16461.57
505.373	16588.55
505.576	16733.95
505.779	16887.55
505.982	16721.66
506.185	17362.68
506.387	17090.3
506.59	17512.18
506.793	17639.15
506.996	17471.22
507.198	18140.91
507.401	18015.98
507.604	18513.64
507.807	18689.76
508.009	18839.26
508.212	18654.95
508.415	19269.34
508.617	19437.27
508.82	19359.45
509.022	19476.18
509.225	19912.4
509.428	20070.09
509.63	20049.61
509.833	20131.53
510.035	20498.12
510.238	20692.68
510.44	20926.14
510.643	21194.43
510.845	21335.74
511.048	21204.67
511.25	21460.66
511.453	21864.11
511.655	22390.44
511.858	21993.14
512.06	22398.63
512.262	22509.22
512.465	22431.4
512.667	23164.57
512.87	22996.64
513.072	23316.12
513.274	23860.88
513.477	23682.71
513.679	24213.13
513.881	24161.94
514.084	24579.72
514.286	24583.82
514.488	24905.35
514.69	25462.4
514.893	25259.65
515.095	25726.58
515.297	25986.68
515.499	25792.12
515.701	26132.08
515.904	26596.97
516.106	26453.61
516.308	27004.52
516.51	27338.33
516.712	27250.27
516.914	27381.34
517.116	27897.43
517.318	27829.85
517.52	27973.21
517.722	28239.44
517.925	28417.61
518.127	28876.36
518.329	28726.86
518.531	28499.53
518.733	29396.54
518.935	29617.72
519.136	29324.86
519.338	29894.2
519.54	30125.62
519.742	29965.88
519.944	30563.89
520.146	30748.2
520.348	30789.16
520.55	30866.99
520.752	30897.7
520.954	31362.59
521.155	31170.08
521.357	31589.92
521.559	32073.24
521.761	32275.99
521.963	32425.49
522.164	32079.38
522.366	32355.86
522.568	32476.69
522.77	32845.32
522.971	33132.04
523.173	32783.88
523.375	33277.44
523.576	33213.96
523.778	33398.27
523.98	33832.44
524.181	33365.51
524.383	33994.23
524.584	34156.02
524.786	34199.03
524.988	34139.64
525.189	34633.2
525.391	34733.55
525.592	34223.61
525.794	34684.4
525.995	34561.52
526.197	34727.41
526.398	34794.99
526.6	34848.24
526.801	34817.52
527.003	35184.1
527.204	34627.06
527.406	35261.93
527.607	35198.44
527.808	35436
528.01	34706.93
528.211	34973.16
528.412	35743.2
528.614	35352.04
528.815	35290.6
529.016	35628.51
529.218	35036.65
529.419	35108.33
529.62	35423.72
529.822	35470.82
530.023	35309.03
530.224	35196.39
530.425	35255.78
530.626	35229.16
530.828	34887.15
531.029	35812.83
531.23	35386.85
531.431	35401.19
531.632	35321.32
531.833	35421.67
532.035	35204.58
532.236	35468.77
532.437	35304.93
532.638	34989.55
532.839	35608.03
533.04	35364.32
533.241	34993.64
533.442	35603.94
533.643	35212.77
533.844	35282.41
534.045	35204.58
534.246	34706.93
534.447	34942.44
534.648	34977.26
534.849	34964.97
535.05	34647.54
535.251	35130.86
535.451	34780.65
535.652	35124.71
535.853	34743.79
536.054	34844.14
536.255	35290.6
536.456	34696.69
536.657	35053.03
536.857	34625.01
537.058	34835.95
537.259	34733.55
537.46	34584.05
537.66	34510.32
537.861	34379.25
538.062	34213.37
538.263	34295.28
538.463	33951.23
538.664	34463.22
538.865	34563.57
539.065	34829.8
539.266	34381.3
539.466	34872.81
539.667	34395.64
539.868	34846.19
540.068	34424.31
540.269	34379.25
540.469	34074.1
540.67	34309.62
540.87	34434.55
541.071	34194.93
541.271	34108.92
541.472	34004.47
541.672	34295.28
541.873	34051.58
542.073	33357.32
542.274	34291.19
542.474	34176.5
542.675	33705.47
542.875	34135.54
543.075	33951.23
543.276	33584.64
543.476	34065.91
543.676	33707.52
543.877	33924.6
544.077	33908.22
544.277	33730.05
544.478	33607.17
544.678	33918.46
544.878	33777.15
545.078	33740.29
545.279	33811.96
545.479	33711.61
545.679	33754.62
545.879	33551.87
546.079	33740.29
546.28	33693.18
546.48	33521.15
546.68	33730.05
546.88	34053.62
547.08	33512.96
547.28	33197.57
547.48	33412.61
547.68	33617.41
547.88	33297.92
548.081	33863.16
548.281	33936.89
548.481	33351.17
548.681	33889.79
548.881	33633.79
549.081	33447.43
549.28	33521.15
549.48	33781.24
549.68	33691.13
549.88	34080.25
550.08	33521.15
550.28	33824.25
550.48	33621.5
550.68	33762.81
550.88	33736.19
551.08	33328.64
551.279	33449.47
551.479	33191.43
551.679	33265.16
551.879	33349.12
552.079	33619.46
552.278	33527.3
552.478	33531.39
552.678	33881.6
552.878	33531.39
553.077	33756.67
553.277	33455.62
553.477	33543.68
553.676	33723.9
553.876	33734.14
554.076	33537.54
554.275	33672.7
554.475	33242.63
554.674	33472
554.874	33605.12
555.074	33734.14
555.273	33732.09
555.473	33971.71
555.672	33566.21
555.872	33555.97
556.071	33623.55
556.271	33684.99
556.47	33601.02
556.67	33512.96
556.869	33846.78
557.068	33627.65
557.268	33797.63
557.467	33816.06
557.667	33572.35
557.866	33558.02
558.065	33472
558.265	33781.24
558.464	33596.93
558.663	33627.65
558.863	33500.67
559.062	33758.72
559.261	33369.6
559.461	33801.72
559.66	33076.74
559.859	33617.41
560.058	33498.62
560.258	34035.19
560.457	33545.73
560.656	33641.98
560.855	33644.03
561.054	33732.09
561.253	33613.31
561.453	33357.32
561.652	33736.19
561.851	33875.45
562.05	33451.52
562.249	33461.76
562.448	33609.22
562.647	33553.92
562.846	33535.49
563.045	33295.88
563.244	33142.28
563.443	33777.15
563.642	33072.65
563.841	33398.27
564.04	33312.26
564.239	33560.06
564.438	32908.81
564.637	33056.26
564.836	33502.72
565.035	32654.86
565.234	33101.32
565.432	32534.03
565.631	33080.84
565.83	33226.25
566.029	33050.12
566.228	33052.17
566.427	33160.71
566.625	32607.76
566.824	32192.02
567.023	32767.5
567.222	32409.11
567.42	32630.29
567.619	32978.44
567.818	32570.89
568.016	32775.69
568.215	32462.35
568.414	32312.85
568.612	32720.4
568.811	32040.47
569.01	32376.34
569.208	31952.41
569.407	32396.82
569.605	31942.17
569.804	32232.98
570.002	31776.28
570.201	32171.54
570.4	31905.31
570.598	31651.36
570.797	31538.72
570.995	31753.76
571.193	31135.27
571.392	31749.66
571.59	31364.64
571.789	31673.88
571.987	31125.03
572.186	31356.45
572.384	30961.19
572.582	31503.9
572.781	31233.57
572.979	30920.23
573.177	31342.11
573.376	31129.12
573.574	31178.28
573.772	31469.09
573.971	30656.04
574.169	30768.68
574.367	30471.73
574.565	30524.97
574.763	30350.9
574.962	30275.12
575.16	30133.81
575.358	30606.89
575.556	29910.58
575.754	30185.01
575.952	29871.67
576.151	30299.7
576.349	29945.4
576.547	29709.88
576.745	29785.66
576.943	29679.16
577.141	29701.69
577.339	29713.98
577.537	29605.44
577.735	29617.72
577.933	29077.06
578.131	29417.02
578.329	29165.12
578.527	28945.99
578.725	29107.78
578.923	28960.33
579.121	28706.38
579.319	28638.79
579.516	28923.46
579.714	28638.79
579.912	28534.35
580.11	28796.49
580.308	28575.31
580.506	28755.53
580.704	28003.92
580.901	28388.94
581.099	28843.59
581.297	28175.95
581.495	28184.15
581.692	27876.95
581.89	28231.25
582.088	28067.41
582.285	28071.51
582.483	28024.4
582.681	28169.81
582.878	27553.37
583.076	27209.31
583.274	27645.53
583.471	27266.66
583.669	27584.09
583.866	27287.14
584.064	27446.88
584.262	26902.12
584.459	27553.37
584.657	27324
584.854	27237.98
585.052	26650.22
585.249	27094.63
585.447	26994.28
585.644	26674.79
585.841	26836.58
586.039	26994.28
586.236	26383.98
586.434	26818.15
586.631	26431.08
586.828	26693.22
587.026	26519.15
587.223	26371.69
587.42	26130.03
587.618	26232.43
587.815	25831.03
588.012	25665.14
588.21	26025.59
588.407	26189.42
588.604	25767.54
588.801	25970.29
588.999	25728.63
589.196	25601.66
589.393	25626.23
589.59	25349.76
589.787	25435.77
589.984	25292.41
590.182	25327.23
590.379	25566.84
590.576	25292.41
590.773	25349.76
590.97	25017.99
591.167	25056.9
591.364	25116.29
591.561	25071.23
591.758	24878.72
591.955	24985.22
592.152	24782.47
592.349	24721.03
592.546	25007.75
592.743	24868.48
592.94	24401.55
593.137	24669.83
593.334	24712.84
593.531	24381.07
593.727	24526.47
593.924	24387.21
594.121	24495.75
594.318	24424.08
594.515	24123.02
594.712	24688.26
594.908	24147.6
595.105	24426.12
595.302	24178.32
595.499	24161.94
595.696	24129.17
595.892	23789.21
596.089	24127.12
596.286	24170.13
596.482	24004.24
596.679	24256.14
596.876	24141.46
597.072	23905.94
597.269	23758.49
597.466	23963.28
597.662	23867.03
597.859	23516.83
598.055	23838.36
598.252	23623.32
598.448	23840.4
598.645	23508.63
598.841	23445.15
599.038	23500.44
599.234	23533.21
599.431	23484.06
599.627	23482.01
599.824	23525.02
600.02	23580.31
600.217	23561.88
600.413	23545.5
600.609	23336.6
600.806	23686.81
601.002	23467.67
601.198	23494.3
601.395	23346.84
601.591	23240.35
601.787	23363.23
601.984	23467.67
602.18	23504.54
602.376	23371.42
602.572	23574.17
602.769	23488.15
602.965	23303.84
603.161	23244.45
603.357	23076.51
603.553	23242.4
603.75	23256.73
603.946	23277.21
604.142	23232.16
604.338	23090.85
604.534	23291.55
604.73	23189.15
604.926	23205.53
605.122	23152.29
605.318	23232.16
605.514	23152.29
605.71	23377.56
605.906	23129.76
606.102	23244.45
606.298	23226.01
606.494	23240.35
606.69	23598.74
606.886	23332.51
607.082	23191.2
607.278	23414.43
607.474	23178.91
607.67	23533.21
607.866	23029.41
608.062	23574.17
608.257	23226.01
608.453	23348.89
608.649	23529.11
608.845	23246.49
609.041	23545.5
609.236	23404.19
609.432	23221.92
609.628	23287.45
609.824	23226.01
610.019	23156.38
610.215	23287.45
610.411	23625.37
610.606	23244.45
610.802	23404.19
610.998	23697.05
611.193	23430.81
611.389	23432.86
611.584	23144.09
611.78	23352.99
611.976	23381.66
612.171	23721.62
612.367	23545.5
612.562	23205.53
612.758	23563.93
612.953	22892.19
613.149	23582.36
613.344	23135.9
613.539	23785.11
613.735	23643.8
613.93	23422.62
614.126	23180.96
614.321	23568.02
614.517	23197.34
614.712	23453.34
614.907	23375.52
615.103	23504.54
615.298	23277.21
615.493	23742.1
615.688	23430.81
615.884	23721.62
616.079	23228.06
616.274	23709.33
616.47	23482.01
616.665	23551.64
616.86	23590.55
617.055	23391.9
617.25	23439
617.445	23236.25
617.641	23160.48
617.836	23525.02
618.031	23293.6
618.226	23602.84
618.421	23477.91
618.616	23496.35
618.811	22963.87
619.006	23273.12
619.201	22519.46
619.396	23156.38
619.591	22597.29
619.786	23013.02
619.981	22826.66
620.176	22775.46
620.371	22677.16
620.566	22886.05
620.761	22562.47
620.956	22552.23
621.151	21941.94
621.346	22699.69
621.541	22077.1
621.735	22562.47
621.93	21712.56
622.125	21999.28
622.32	21497.53
622.515	21819.06
622.709	21554.87
622.904	21665.46
623.099	21472.95
623.294	21548.73
623.488	21239.48
623.683	21388.99
623.878	21339.83
624.072	21507.77
624.267	21216.96
624.462	20909.76
624.656	20629.19
624.851	20971.2
625.046	20469.45
625.24	20537.03
625.435	20408.01
625.629	20260.55
625.824	20238.03
626.018	20225.74
626.213	19750.61
626.407	20004.56
626.602	19814.1
626.796	19912.4
626.991	20057.81
627.185	19736.27
627.38	19597.01
627.574	19410.65
627.768	19113.69
627.963	19230.43
628.157	18982.62
628.352	19244.76
628.546	18814.69
628.74	18927.33
628.935	18749.15
629.129	18747.11
629.323	18493.16
629.517	18644.71
629.712	18306.79
629.906	18675.43
630.1	18335.46
630.294	18495.21
630.489	18024.17
630.683	18192.11
630.877	17567.48
631.071	17606.39
631.265	17782.51
631.459	17559.28
631.653	17417.97
631.848	17606.39
632.042	17448.69
632.236	17655.54
632.43	17149.69
632.624	17182.46
632.818	17125.11
633.012	16746.24
633.206	16660.23
633.4	16940.8
633.594	16473.86
633.788	16795.39
633.982	16590.59
634.176	16518.92
634.369	16402.18
634.563	16285.45
634.757	16166.67
634.951	16148.23
635.145	16258.82
635.339	16183.05
635.533	15900.43
635.726	15982.35
635.92	15738.64
636.114	15517.46
636.308	15640.34
636.501	15630.1
636.695	15542.03
636.889	15165.21
637.083	15099.67
637.276	15200.02
637.47	15197.98
637.664	14993.18
637.857	14978.84
638.051	14847.77
638.244	14870.3
638.438	14722.85
638.632	14808.86
638.825	14432.04
639.019	14581.54
639.212	14157.61
639.406	14356.26
639.599	14237.48
639.793	14331.69
639.986	14006.06
640.18	13821.74
640.373	13813.55
640.567	13733.68
640.76	13776.69
640.954	13637.42
641.147	13379.38
641.34	13485.87
641.534	13713.2
641.727	13477.68
641.92	13340.47
642.114	13125.43
642.307	13193.01
642.5	13184.82
642.694	12793.66
642.887	12863.29
643.08	13004.6
643.273	12844.86
643.467	12625.73
643.66	12611.39
643.853	12508.99
644.046	12304.2
644.239	12425.03
644.432	12218.18
644.626	12248.9
644.819	12023.62
645.012	12228.42
645.205	12011.34
645.398	11960.14
645.591	11728.72
645.784	11745.1
645.977	11777.87
646.17	11771.72
646.363	11511.63
646.556	11585.36
646.749	11345.75
646.942	11546.45
647.135	11442
647.328	11067.22
647.521	11329.36
647.714	11218.77
647.907	11302.74
648.099	11048.79
648.292	11038.55
648.485	11046.74
648.678	10823.51
648.871	10778.46
649.064	10778.46
649.256	10893.15
649.449	10678.11
649.642	10622.81
649.835	10399.59
650.027	10377.06
650.22	10520.42
650.413	10286.95
650.605	10315.62
650.798	10356.58
650.991	10082.15
651.183	10053.48
651.376	10002.28
651.568	9996.14
651.761	9987.94
651.954	9760.62
652.146	10061.67
652.339	9729.9
652.531	9734
652.724	9754.48
652.916	9533.29
653.109	9633.64
653.301	9656.17
653.494	9639.79
653.686	9195.38
653.879	9518.96
654.071	9480.05
654.263	9402.22
654.456	9215.86
654.648	9303.92
654.84	8947.58
655.033	9092.98
655.225	9047.93
655.417	8992.63
655.61	8882.04
655.802	8914.81
655.994	8781.69
656.186	8796.03
656.379	8884.09
656.571	8736.63
656.763	8613.76
656.955	8523.65
657.148	8454.01
657.34	8587.13
657.532	8537.98
657.724	8193.92
657.916	8251.27
658.108	8515.45
658.3	8378.24
658.492	8271.75
658.684	8073.09
658.876	8073.09
659.068	8120.2
659.26	7974.79
659.452	8136.58
659.644	8028.04
659.836	7888.78
660.028	7974.79
660.22	7712.65
660.412	7899.02
660.604	7751.56
660.796	7720.84
660.988	7718.79
661.18	7645.07
661.372	7616.4
661.563	7554.96
661.755	7485.33
661.947	7460.75
662.139	7356.3
662.331	7325.58
662.522	7325.58
662.714	7190.42
662.906	7100.31
663.097	7229.33
663.289	7014.29
663.481	7067.54
663.673	7268.24
663.864	6862.74
664.056	7069.59
664.247	6950.81
664.439	7057.3
664.631	6901.65
664.822	6901.65
665.014	6903.7
665.205	6684.57
665.397	6735.77
665.588	6670.23
665.78	6571.93
665.971	6627.23
666.163	6651.8
666.354	6555.55
666.546	6588.32
666.737	6559.64
666.929	6514.59
667.12	6449.05
667.311	6494.11
667.503	6246.3
667.694	6440.86
667.885	6195.11
668.077	6197.15
668.268	6211.49
668.459	6166.43
668.651	6072.23
668.842	6123.43
669.033	6145.95
669.224	6096.8
669.416	6152.1
669.607	6072.23
669.798	6133.67
669.989	6088.61
670.18	5910.44
670.371	5908.39
670.563	5785.51
670.754	5861.29
670.945	5693.35
671.136	5869.48
671.327	5916.58
671.518	5887.91
671.709	5883.81
671.9	5730.22
672.091	5752.74
672.282	5719.98
672.473	5689.26
672.664	5652.39
672.855	5658.54
673.046	5498.8
673.237	5701.55
673.428	5468.08
673.619	5597.1
673.809	5445.55
674	5466.03
674.191	5371.82
674.382	5466.03
674.573	5437.36
674.764	5433.26
674.954	5261.23
675.145	5375.92
675.336	5490.6
675.527	5416.88
675.717	5308.34
675.908	5236.66
676.099	5345.2
676.289	5187.5
676.48	5207.98
676.671	5212.08
676.861	5203.89
677.052	5138.35
677.243	5148.59
677.433	5162.93
677.624	5248.94
677.814	5060.53
678.005	5222.32
678.195	5169.07
678.386	4941.75
678.576	5056.43
678.767	4925.36
678.957	4943.8
679.148	4894.65
679.338	4978.61
679.529	5062.58
679.719	4945.84
679.909	5074.87
680.1	4898.74
680.29	4915.12
680.481	4917.17
680.671	5064.63
680.861	5007.28
681.052	4923.32
681.242	4890.55
681.432	4773.82
681.622	4798.39
681.813	4810.68
682.003	4804.53
682.193	4880.31
682.383	4827.06
682.573	4931.51
682.764	4712.38
682.954	4892.6
683.144	4747.19
683.334	4945.84
683.524	4745.14
683.714	4759.48
683.904	4665.27
684.094	4753.34
684.284	4847.54
684.474	4917.17
684.664	4704.18
684.854	4757.43
685.044	4777.91
685.234	4558.78
685.424	4691.9
685.614	4466.62
685.804	4595.64
685.994	4601.79
686.184	4720.57
686.374	4515.77
686.564	4542.39
686.753	4528.06
686.943	4442.04
687.133	4628.41
687.323	4411.32
687.513	4736.95
687.702	4462.52
687.892	4429.76
688.082	4337.6
688.272	4462.52
688.461	4368.32
688.651	4446.14
688.841	4308.93
689.03	4378.56
689.22	4282.3
689.41	4364.22
689.599	4278.21
689.789	4339.65
689.979	4298.69
690.168	4331.45
690.358	4362.17
690.547	4194.24
690.737	4212.67
690.926	4140.99
691.116	4302.78
691.305	4155.33
691.495	4249.54
691.684	4173.76
691.874	4114.37
692.063	4212.67
692.252	4067.27
692.442	4159.42
692.631	4132.8
692.82	4059.07
693.01	4097.99
693.199	3952.58
693.388	3973.06
693.578	3983.3
693.767	3971.01
693.956	3991.49
694.146	3968.96
694.335	4065.22
694.524	3917.76
694.713	3979.2
694.902	3987.4
695.092	3895.24
695.281	3786.69
695.47	3885
695.659	3905.48
695.848	3930.05
696.037	3844.04
696.226	3844.04
696.415	3803.08
696.604	3704.78
696.793	3821.51
696.982	3825.61
697.171	3837.89
697.36	3751.88
697.549	3721.16
697.738	3751.88
697.927	3837.89
698.116	3753.93
698.305	3837.89
698.494	3620.81
698.683	3778.5
698.872	3811.27
699.061	3780.55
699.25	3772.36
699.438	3633.1
699.627	3567.56
699.816	3649.48
700.005	3557.32
700.193	3526.6
700.382	3573.71
700.571	3477.45
700.76	3590.09
700.948	3592.14
701.137	3571.66
701.326	3604.43
701.514	3610.57
701.703	3606.47
701.892	3452.88
702.08	3637.19
702.269	3442.64
702.457	3352.52
702.646	3504.07
702.834	3397.58
703.023	3444.68
703.212	3409.87
703.4	3420.11
703.589	3346.38
703.777	3471.31
703.965	3266.51
704.154	3393.48
704.342	3272.65
704.531	3327.95
704.719	3327.95
704.907	3383.24
705.096	3274.7
705.284	3360.72
705.472	3250.13
705.661	3334.09
705.849	3344.33
706.037	3246.03
706.226	3319.76
706.414	3327.95
706.602	3315.66
706.79	3182.54
706.979	3205.07
707.167	3291.09
707.355	3223.5
707.543	3164.11
707.731	3166.16
707.919	3143.63
708.107	2983.89
708.296	3227.6
708.484	3024.85
708.672	3074
708.86	3092.43
709.048	3131.34
709.236	3071.95
709.424	3180.5
709.612	3168.21
709.8	3024.85
709.988	3057.62
710.176	3033.04
710.364	3155.92
710.551	2887.64
710.739	3074
710.927	3010.51
711.115	3131.34
711.303	3037.14
711.491	3000.27
711.679	2953.17
711.866	3035.09
712.054	2926.55
712.242	2910.16
712.43	2957.27
712.617	2914.26
712.805	2754.52
712.993	2904.02
713.181	2754.52
713.368	2881.49
713.556	2891.73
713.744	2881.49
713.931	2863.06
714.119	2670.55
714.306	2775
714.494	2707.41
714.682	2887.64
714.869	2709.46
715.057	2787.29
715.244	2787.29
715.432	2811.86
715.619	2746.33
715.807	2754.52
715.994	2691.03
716.182	2746.33
716.369	2854.87
716.556	2717.65
716.744	2697.17
716.931	2697.17
717.119	2641.88
717.306	2617.3
717.493	2658.26
717.681	2672.6
717.868	2697.17
718.055	2680.79
718.242	2688.98
718.43	2664.41
718.617	2525.15
718.804	2510.81
718.991	2590.68
719.179	2566.1
719.366	2656.22
719.553	2437.08
719.74	2473.95
719.927	2500.57
720.114	2525.15
720.301	2506.71
720.488	2486.23
720.676	2402.27
720.863	2469.85
721.05	2488.28
721.237	2492.38
721.424	2555.87
721.611	2467.8
721.798	2426.84
721.985	2351.07
722.172	2357.21
722.358	2355.16
722.545	2486.23
722.732	2475.99
722.919	2418.65
723.106	2332.64
723.293	2379.74
723.48	2453.47
723.667	2263.01
723.853	2336.73
724.04	2287.58
724.227	2455.51
724.414	2385.88
724.6	2303.96
724.787	2314.2
724.974	2359.26
725.161	2318.3
725.347	2176.99
725.534	2316.25
725.72	2183.13
725.907	2385.88
726.094	2215.9
726.28	2230.24
726.467	2271.2
726.653	2324.44
726.84	2308.06
727.027	2254.81
727.213	2125.79
727.4	2215.9
727.586	2125.79
727.773	2150.37
727.959	2140.13
728.145	2027.49
728.332	2136.03
728.518	2082.78
728.705	2066.4
728.891	2078.69
729.077	2074.59
729.264	2107.36
729.45	2082.78
729.636	2181.09
729.823	2119.65
730.009	2142.18
730.195	2074.59
730.382	2174.94
730.568	2090.98
730.754	2140.13
730.94	2185.18
731.126	2109.41
731.313	2047.97
731.499	2043.87
731.685	2027.49
731.871	2027.49
732.057	2078.69
732.243	2164.7
732.429	2033.63
732.615	2109.41
732.801	2007.01
732.987	2009.06
733.173	1957.86
733.359	1976.29
733.545	2017.25
733.731	2013.15
733.917	2093.02
734.103	2062.3
734.289	2123.74
734.475	1845.22
734.661	2062.3
734.847	1941.47
735.033	1957.86
735.219	2025.44
735.404	1988.58
735.59	1943.52
735.776	1806.31
735.962	1906.66
736.148	1970.15
736.333	2021.35
736.519	1882.08
736.705	1890.28
736.89	1857.51
737.076	1861.6
737.262	1865.7
737.447	1863.65
737.633	1808.36
737.819	1859.56
738.004	1888.23
738.19	1873.89
738.375	1845.22
738.561	1859.56
738.747	1861.6
738.932	1814.5
739.118	1796.07
739.303	1863.65
739.489	1826.79
739.674	1773.54
739.859	1785.83
740.045	1748.97
740.23	1800.16
740.416	1578.98
740.601	1818.6
740.786	1624.04
740.972	1740.77
741.157	1607.66
741.342	1632.23
741.528	1710.05
741.713	1748.97
741.898	1701.86
742.084	1667.05
742.269	1714.15
742.454	1722.34
742.639	1681.38
742.824	1689.57
743.01	1648.61
743.195	1636.33
743.38	1642.47
743.565	1611.75
743.75	1550.31
743.935	1574.89
744.12	1658.85
744.305	1599.46
744.49	1505.26
744.675	1556.46
744.86	1607.66
745.045	1634.28
745.23	1552.36
745.415	1476.59
745.6	1445.87
745.785	1439.72
745.97	1613.8
746.155	1466.35
746.34	1538.02
746.525	1398.76
746.71	1472.49
746.895	1484.78
747.079	1353.71
747.264	1454.06
747.449	1509.35
747.634	1437.67
747.819	1476.59
748.003	1425.39
748.188	1398.76
748.373	1376.24
748.557	1361.9
748.742	1376.24
748.927	1380.33
749.111	1386.47
749.296	1273.84
749.481	1400.81
749.665	1366
749.85	1314.8
750.034	1312.75
750.219	1331.18
750.404	1329.13
750.588	1357.8
750.773	1331.18
750.957	1304.56
751.141	1353.71
751.326	1265.64
751.51	1255.4
751.695	1177.58
751.879	1339.37
752.064	1284.08
752.248	1173.49
752.432	1214.45
752.617	1208.3
752.801	1259.5
752.985	1193.97
753.17	1290.22
753.354	1214.45
753.538	1193.97
753.722	1116.14
753.907	1110
754.091	1110
754.275	1066.99
754.459	1120.24
754.643	1079.28
754.828	1210.35
755.012	1079.28
755.196	1069.04
755.38	1026.03
755.564	1028.08
755.748	1091.57
755.932	1085.42
756.116	1064.94
756.3	1169.39
756.484	1058.8
756.668	960.5
756.852	937.97
757.036	985.07
757.22	997.36
757.404	985.07
757.588	937.97
757.772	1009.65
757.956	1026.03
758.14	1001.46
758.323	919.54
758.507	997.36
758.691	946.16
758.875	1023.98
759.059	944.11
759.242	880.63
759.426	886.77
759.61	944.11
759.794	917.49
759.977	919.54
760.161	1032.18
760.345	927.73
760.528	897.01
760.712	954.35
760.895	854
761.079	874.48
761.263	921.59
761.446	866.29
761.63	837.62
761.813	772.08
761.997	856.05
762.18	903.15
762.364	839.67
762.547	864.24
762.731	806.9
762.914	870.39
763.098	788.47
763.281	821.24
763.464	815.09
763.648	888.82
763.831	833.52
764.015	837.62
764.198	823.28
764.381	690.17
764.564	845.81
764.748	747.51
764.931	907.25
765.114	714.74
765.297	825.33
765.481	722.93
765.664	804.85
765.847	833.52
766.03	804.85
766.213	800.76
766.397	743.41
766.58	694.26
766.763	800.76
766.946	767.99
767.129	763.89
767.312	716.79
767.495	770.04
767.678	608.25
767.861	702.45
768.044	790.52
768.227	743.41
768.41	710.65
768.593	759.8
768.776	780.28
768.959	733.17
769.142	749.56
769.324	727.03
769.507	788.47
769.69	698.36
769.873	716.79
770.056	731.12
770.239	733.17
770.421	741.36
770.604	716.79
770.787	755.7
770.97	653.3
771.152	649.21
771.335	702.45
771.518	706.55
771.7	673.78
771.883	690.17
772.066	692.21
772.248	608.25
772.431	659.45
772.613	690.17
772.796	626.68
772.978	657.4
773.161	653.3
773.343	684.02
773.526	622.58
773.708	651.25
773.891	600.05
774.073	649.21
774.256	608.25
774.438	700.41
774.621	698.36
774.803	657.4
774.985	632.82
775.168	573.43
775.35	595.96
775.532	546.81
775.715	505.85
775.897	542.71
776.079	583.67
776.261	600.05
776.444	559.1
776.626	624.63
776.808	518.14
776.99	536.57
777.173	559.1
777.355	583.67
777.537	579.58
777.719	561.14
777.901	454.65
778.083	573.43
778.265	489.46
778.447	542.71
778.629	563.19
778.811	538.62
778.993	534.52
779.175	561.14
779.357	495.61
779.539	507.9
779.721	489.46
779.903	493.56
780.085	526.33
780.267	477.18
780.449	538.62
780.631	487.42
780.812	468.98
780.994	468.98
781.176	456.7
781.358	440.31
781.54	428.03
781.721	520.18
781.903	526.33
782.085	415.74
782.267	440.31
782.448	374.78
782.63	444.41
782.812	499.7
782.993	348.15
783.175	497.66
783.357	430.07
783.538	440.31
783.72	409.59
783.901	436.22
784.083	438.27
784.264	425.98
784.446	378.87
784.627	428.03
784.809	411.64
784.99	411.64
785.172	430.07
785.353	364.54
785.535	423.93
785.716	315.39
785.897	321.53
786.079	419.83
786.26	401.4
786.441	413.69
786.623	313.34
786.804	366.59
786.985	415.74
787.167	378.87
787.348	313.34
787.529	315.39
787.71	423.93
787.891	395.26
788.073	344.06
788.254	264.19
788.435	337.91
788.616	342.01
788.797	346.11
788.978	356.35
789.159	288.76
789.34	313.34
789.522	243.71
789.703	348.15
789.884	301.05
790.065	303.1
790.246	329.72
790.427	339.96
790.607	337.91
790.788	331.77
790.969	307.2
791.15	337.91
791.331	276.48
791.512	321.53
791.693	276.48
791.874	301.05
792.054	333.82
792.235	356.35
792.416	313.34
792.597	196.61
792.778	280.57
792.958	299
793.139	270.33
793.32	276.48
793.5	313.34
793.681	329.72
793.862	227.32
794.042	317.44
794.223	182.27
794.404	268.28
794.584	237.56
794.765	231.42
794.945	284.67
795.126	260.09
795.306	307.2
795.487	290.81
795.667	169.98
795.848	296.96
796.028	243.71
796.209	260.09
796.389	262.14
796.57	264.19
796.75	241.66
796.93	313.34
797.111	182.27
797.291	135.17
797.471	225.28
797.652	200.7
797.832	169.98
798.012	307.2
798.192	243.71
798.373	241.66
798.553	292.86
798.733	231.42
798.913	194.56
799.093	155.65
799.274	247.8
799.454	223.23
799.634	219.13
799.814	227.32
799.994	325.63
800.174	215.04
800.354	243.71
800.534	176.13
800.714	251.9
800.894	118.78
801.074	186.37
801.254	198.65
801.434	229.37
801.614	190.46
801.794	169.98
801.974	913.39
802.154	167.93
802.334	239.61
802.514	114.69
802.693	208.89
802.873	167.93
803.053	186.37
803.233	258.04
803.413	153.6
803.592	206.84
803.772	192.51
803.952	141.31
804.131	196.61
804.311	231.42
804.491	186.37
804.67	159.74
804.85	145.41
805.03	126.97
805.209	247.8
805.389	256
805.568	165.89
805.748	116.73
805.928	219.13
806.107	206.84
806.287	184.32
806.466	176.13
806.646	145.41
806.825	256
807.004	155.65
807.184	133.12
807.363	159.74
807.543	198.65
807.722	161.79
807.901	188.41
808.081	184.32
808.26	124.93
808.439	186.37
808.619	77.82
808.798	139.26
808.977	120.83
809.156	247.8
809.336	153.6
809.515	190.46
809.694	122.88
809.873	151.55
810.052	98.3
810.231	215.04
810.411	141.31
810.59	149.5
810.769	190.46
810.948	198.65
811.127	151.55
811.306	141.31
811.485	124.93
811.664	280.57
811.843	131.07
812.022	198.65
812.201	110.59
812.38	124.93
812.559	129.02
812.737	153.6
812.916	139.26
813.095	124.93
813.274	141.31
813.453	161.79
813.632	186.37
813.811	153.6
813.989	79.87
814.168	102.4
814.347	169.98
814.526	124.93
814.704	149.5
814.883	108.54
815.062	92.16
815.24	208.89
815.419	157.69
815.598	143.36
815.776	83.97
815.955	96.25
816.133	63.49
816.312	143.36
816.49	131.07
816.669	79.87
816.847	0
817.026	161.79
817.204	108.54
817.383	184.32
817.561	88.06
817.74	108.54
817.918	120.83
818.097	161.79
818.275	61.44
818.453	174.08
818.632	100.35
818.81	133.12
818.988	124.93
819.167	71.68
819.345	151.55
819.523	83.97
819.701	102.4
819.879	71.68
820.058	86.01
820.236	61.44
820.414	129.02
820.592	126.97
820.77	92.16
820.948	40.96
821.127	43.01
821.305	114.69
821.483	79.87
821.661	141.31
821.839	94.21
822.017	141.31
822.195	81.92
822.373	194.56
822.551	108.54
822.729	69.63
822.907	61.44
823.085	124.93
823.262	165.89
823.44	118.78
823.618	36.86
823.796	77.82
823.974	28.67
824.152	18.43
824.329	192.51
824.507	120.83
824.685	120.83
824.863	4.1
825.04	55.3
825.218	102.4
825.396	159.74
825.574	67.58
825.751	149.5
825.929	151.55
826.107	34.82
826.284	2.05
826.462	75.77
826.639	75.77
826.817	26.62
826.994	94.21
827.172	100.35
827.349	114.69
827.527	67.58
827.704	32.77
827.882	112.64
828.059	110.59
828.237	135.17
828.414	100.35
828.591	18.43
828.769	47.1
828.946	63.49
829.124	192.51
829.301	141.31
829.478	77.82
829.655	116.73
829.833	75.77
830.01	69.63
830.187	129.02
830.364	67.58
830.542	8.19
830.719	100.35
830.896	65.54
831.073	83.97
831.25	59.39
831.427	59.39
831.604	77.82
831.782	129.02
831.959	77.82
832.136	90.11
832.313	59.39
832.49	92.16
832.667	116.73
832.844	71.68
833.021	100.35
833.198	2.05
833.374	139.26
833.551	120.83
833.728	30.72
833.905	22.53
834.082	-2.05
834.259	106.49
834.436	131.07
834.612	-10.24
834.789	63.49
834.966	51.2
835.143	43.01
835.319	6.14
835.496	92.16
835.673	83.97
835.85	83.97
836.026	77.82
836.203	94.21
836.38	43.01
836.556	53.25
836.733	73.73
836.909	149.5
837.086	36.86
837.262	153.6
837.439	63.49
837.616	79.87
837.792	75.77
837.968	69.63
838.145	-69.63
838.321	108.54
838.498	55.3
838.674	59.39
838.851	129.02
839.027	26.62
839.203	14.34
839.38	100.35
839.556	-55.3
839.732	124.93
839.909	75.77
840.085	18.43
840.261	75.77
840.437	88.06
840.614	-20.48
840.79	149.5
840.966	86.01
841.142	67.58
841.318	59.39
841.494	102.4
841.671	22.53
841.847	61.44
842.023	34.82
842.199	135.17
842.375	104.45
842.551	43.01
842.727	26.62
842.903	120.83
843.079	10.24
843.255	43.01
843.431	49.15
843.607	36.86
843.783	45.06
843.959	86.01
844.134	51.2
844.31	45.06
844.486	14.34
844.662	-14.34
844.838	51.2
845.013	51.2
845.189	26.62
845.365	10.24
845.541	126.97
845.716	-26.62
845.892	73.73
846.068	-8.19
846.244	6.14
846.419	12.29
846.595	-38.91
846.77	92.16
846.946	34.82
847.122	75.77
847.297	43.01
847.473	100.35
847.648	10.24
847.824	63.49
847.999	-36.86
848.175	20.48
848.35	69.63
848.526	108.54
848.701	43.01
848.876	26.62
849.052	67.58
849.227	10.24
849.403	2.05
849.578	92.16
849.753	45.06
849.929	75.77
850.104	-47.1
850.279	51.2
850.454	10.24
850.63	120.83
850.805	-10.24
850.98	40.96
851.155	-47.1
851.33	36.86
851.505	59.39
851.681	71.68
851.856	-26.62
852.031	96.25
852.206	22.53
852.381	-8.19
852.556	104.45
852.731	59.39
852.906	63.49
853.081	79.87
853.256	79.87
853.431	18.43
853.606	-71.68
853.781	26.62
853.956	24.58
854.131	12.29
854.305	-16.38
854.48	45.06
854.655	32.77
854.83	-26.62
855.005	83.97
855.18	-4.1
855.354	45.06
855.529	14.34
855.704	-55.3
855.879	2.05
856.053	53.25
856.228	-28.67
856.403	-30.72
856.577	30.72
856.752	20.48
856.926	12.29
857.101	47.1
857.276	-12.29
857.45	-4.1
857.625	34.82
857.799	2.05
857.974	67.58
858.148	-2.05
858.323	20.48
858.497	-47.1
858.672	108.54
858.846	12.29
859.02	36.86
859.195	59.39
859.369	-30.72
859.543	36.86
859.718	36.86
859.892	14.34
860.066	126.97
860.241	12.29
860.415	14.34
860.589	-6.14
860.763	47.1
860.938	20.48
861.112	22.53
861.286	14.34
861.46	51.2
861.634	-63.49
861.808	96.25
861.982	47.1
862.157	22.53
862.331	28.67
862.505	-26.62
862.679	45.06
862.853	38.91
863.027	73.73
863.201	77.82
863.375	-14.34
863.549	65.54
863.722	-18.43
863.896	71.68
864.07	14.34
864.244	63.49
864.418	34.82
864.592	59.39
864.766	-45.06
864.939	51.2
865.113	2.05
865.287	110.59
865.461	4.1
865.634	20.48
865.808	2.05
865.982	34.82
866.156	-20.48
866.329	10.24
866.503	24.58
866.676	10.24
866.85	18.43
867.024	20.48
867.197	51.2
867.371	67.58
867.544	12.29
867.718	34.82
867.891	69.63
868.065	-10.24
868.238	6.14
868.412	51.2
868.585	20.48
868.759	14.34
868.932	10.24
869.105	-63.49
869.279	59.39
869.452	36.86
869.625	16.38
869.799	2.05
869.972	-14.34
870.145	40.96
870.319	-10.24
870.492	26.62
870.665	-14.34
870.838	47.1
871.011	-112.64
871.185	-12.29
871.358	-2.05
871.531	71.68
871.704	-59.39
871.877	30.72
872.05	-14.34
872.223	34.82
872.396	63.49
872.569	12.29
872.742	-30.72
872.915	-10.24
873.088	-14.34
873.261	20.48
873.434	20.48
873.607	67.58
873.78	18.43
873.953	59.39
874.126	-4.1
874.299	-4.1
874.471	-12.29
874.644	4.1
874.817	-14.34
874.99	71.68
875.163	-71.68
875.335	2.05
875.508	4.1
875.681	75.77
875.853	-22.53
876.026	-20.48
876.199	34.82
876.371	36.86
876.544	-30.72
876.717	18.43
876.889	-20.48
877.062	100.35
877.234	-53.25
877.407	24.58
877.579	-18.43
877.752	0
877.924	-8.19
878.097	-12.29
878.269	22.53
878.442	18.43
878.614	-14.34
878.786	61.44
878.959	61.44
879.131	63.49
879.303	-2.05
879.476	-14.34
879.648	55.3
879.82	124.93
879.993	-30.72
880.165	18.43
880.337	10.24
880.509	79.87
880.681	-14.34
880.854	30.72
881.026	51.2
881.198	104.45
881.37	34.82
881.542	18.43
881.714	36.86
881.886	20.48
882.058	-40.96
882.23	10.24
882.402	0
882.574	-30.72
882.746	10.24
882.918	34.82
883.09	-20.48
883.262	-14.34
883.434	-6.14
883.606	-12.29
883.778	-6.14
883.95	90.11
884.122	-14.34
884.293	-4.1
884.465	14.34
884.637	102.4
884.809	-45.06
884.98	-14.34
885.152	18.43
885.324	-12.29
885.496	-22.53
885.667	-22.53
885.839	-14.34
886.011	53.25
886.182	-32.77
886.354	-4.1
886.525	-63.49
886.697	51.2
886.869	-10.24
887.04	2.05
887.212	-4.1
887.383	38.91
887.555	14.34
887.726	47.1
887.897	-18.43
888.069	-30.72
888.24	-14.34
888.412	10.24
888.583	-92.16
888.754	-24.58
888.926	-38.91
889.097	34.82
889.268	18.43
889.44	63.49
889.611	-38.91
889.782	-47.1
889.953	-71.68
890.125	-20.48
890.296	-20.48
890.467	0
890.638	-22.53
890.809	-6.14
890.98	10.24
891.151	-14.34
891.323	38.91
891.494	-28.67
891.665	-55.3
891.836	-47.1
892.007	22.53
892.178	34.82
892.349	24.58
892.52	20.48
892.691	69.63
892.862	26.62
893.032	-10.24
893.203	18.43
893.374	61.44
893.545	69.63
893.716	28.67
893.887	-6.14
894.057	10.24
894.228	18.43
894.399	-24.58
894.57	57.34
894.74	30.72
894.911	2.05
895.082	18.43
895.253	2.05
895.423	-2.05
895.594	43.01
895.764	26.62
895.935	-65.53
896.106	-53.25
896.276	-22.53
896.447	47.1
896.617	-45.06
896.788	-30.72
896.958	28.67
897.129	18.43
897.299	-12.29
897.47	69.63
897.64	104.45
897.81	69.63
897.981	69.63
898.151	-14.34
898.322	96.25
898.492	-12.29
898.662	53.25
898.832	20.48
899.003	-4.1
899.173	14.34
899.343	26.62
899.513	2.05
