Data from USB4F104151__229__14-33-59-039.txt Node

Date: Thu Mar 13 14:33:59 EDT 2025
User: louis
Spectrometer: USB4F10415
Trigger mode: 4
Integration Time (sec): 2.500000E-2
Scans to average: 1
Electric dark correction enabled: true
Nonlinearity correction enabled: false
Boxcar width: 0
XAxis mode: Wavelengths
Number of Pixels in Spectrum: 3648
>>>>>Begin Spectral Data<<<<<
178.204	-102.57
178.424	-102.57
178.644	-102.57
178.864	-178.34
179.084	-159.91
179.304	-43.18
179.524	-24.75
179.744	-61.61
179.964	108.37
180.184	-22.7
180.404	-22.7
180.624	-6.31
180.844	51.03
181.064	3.93
181.283	3.93
181.503	10.07
181.723	3.93
181.943	-75.95
182.163	46.93
182.383	63.32
182.602	81.75
182.822	89.94
183.042	26.45
183.262	28.5
183.482	22.36
183.701	55.12
183.921	-45.23
184.141	46.93
184.361	98.13
184.58	67.41
184.8	40.79
185.02	-16.55
185.239	85.84
185.459	94.04
185.679	116.56
185.898	12.12
186.118	22.36
186.338	30.55
186.557	104.28
186.777	14.17
186.997	59.22
187.216	100.18
187.436	75.6
187.655	51.03
187.875	94.04
188.095	12.12
188.314	-26.79
188.534	59.22
188.753	1.88
188.973	48.98
189.192	91.99
189.412	75.6
189.631	18.26
189.851	18.26
190.07	18.26
190.29	-39.08
190.509	100.18
190.729	36.69
190.948	36.69
191.168	161.62
191.387	67.41
191.607	53.08
191.826	59.22
192.045	28.5
192.265	126.8
192.484	44.88
192.704	42.84
192.923	-4.27
193.142	124.76
193.362	112.47
193.581	34.64
193.8	38.74
194.02	124.76
194.239	-22.7
194.458	67.41
194.678	-2.22
194.897	69.46
195.116	67.41
195.335	104.28
195.555	61.27
195.774	63.32
195.993	85.84
196.212	51.03
196.432	67.41
196.651	26.45
196.87	94.04
197.089	110.42
197.308	34.64
197.528	104.28
197.747	-30.89
197.966	38.74
198.185	91.99
198.404	26.45
198.623	28.5
198.842	96.08
199.062	51.03
199.281	135
199.5	94.04
199.719	5.97
199.938	83.8
200.157	87.89
200.376	26.45
200.595	87.89
200.814	67.41
201.033	30.55
201.252	65.36
201.471	34.64
201.69	100.18
201.909	12.12
202.128	91.99
202.347	96.08
202.566	-18.6
202.785	59.22
203.004	-63.66
203.223	173.91
203.442	67.41
203.661	5.97
203.879	46.93
204.098	51.03
204.317	-28.84
204.536	124.76
204.755	75.6
204.974	75.6
205.193	34.64
205.411	116.56
205.63	-12.46
205.849	85.84
206.068	-14.51
206.287	26.45
206.505	94.04
206.724	-26.79
206.943	-2.22
207.162	46.93
207.381	46.93
207.599	-22.7
207.818	26.45
208.037	10.07
208.255	42.84
208.474	67.41
208.693	112.47
208.911	40.79
209.13	30.55
209.349	34.64
209.567	38.74
209.786	91.99
210.005	100.18
210.223	24.4
210.442	116.56
210.661	46.93
210.879	26.45
211.098	81.75
211.316	10.07
211.535	110.42
211.753	12.12
211.972	118.61
212.191	26.45
212.409	36.69
212.628	65.36
212.846	-34.99
213.065	61.27
213.283	48.98
213.502	10.07
213.72	26.45
213.938	65.36
214.157	102.23
214.375	22.36
214.594	55.12
214.812	108.37
215.031	61.27
215.249	22.36
215.467	34.64
215.686	38.74
215.904	59.22
216.122	69.46
216.341	118.61
216.559	-47.27
216.778	67.41
216.996	26.45
217.214	94.04
217.432	73.56
217.651	-4.27
217.869	67.41
218.087	130.9
218.306	-4.27
218.524	75.6
218.742	85.84
218.96	42.84
219.179	38.74
219.397	96.08
219.615	149.33
219.833	65.36
220.051	16.21
220.27	165.71
220.488	46.93
220.706	61.27
220.924	-18.6
221.142	59.22
221.36	30.55
221.578	77.65
221.796	26.45
222.015	100.18
222.233	61.27
222.451	81.75
222.669	-10.41
222.887	67.41
223.105	8.02
223.323	20.31
223.541	18.26
223.759	26.45
223.977	18.26
224.195	98.13
224.413	67.41
224.631	89.94
224.849	53.08
225.067	96.08
225.285	32.6
225.503	42.84
225.721	-22.7
225.939	-30.89
226.157	28.5
226.375	120.66
226.592	1.88
226.81	91.99
227.028	-22.7
227.246	81.75
227.464	71.51
227.682	67.41
227.9	108.37
228.117	-14.51
228.335	83.8
228.553	18.26
228.771	36.69
228.989	94.04
229.206	65.36
229.424	87.89
229.642	-0.17
229.86	-39.08
230.077	48.98
230.295	30.55
230.513	53.08
230.731	34.64
230.948	118.61
231.166	75.6
231.384	94.04
231.601	26.45
231.819	59.22
232.037	137.04
232.254	42.84
232.472	10.07
232.689	51.03
232.907	22.36
233.125	55.12
233.342	59.22
233.56	34.64
233.777	42.84
233.995	71.51
234.213	132.95
234.43	104.28
234.648	83.8
234.865	55.12
235.083	104.28
235.3	100.18
235.518	137.04
235.735	116.56
235.953	61.27
236.17	34.64
236.388	124.76
236.605	83.8
236.822	83.8
237.04	106.32
237.257	-8.36
237.475	75.6
237.692	112.47
237.909	77.65
238.127	-8.36
238.344	22.36
238.562	28.5
238.779	67.41
238.996	44.88
239.214	28.5
239.431	102.23
239.648	67.41
239.865	53.08
240.083	94.04
240.3	28.5
240.517	46.93
240.735	30.55
240.952	81.75
241.169	59.22
241.386	10.07
241.603	77.65
241.821	89.94
242.038	85.84
242.255	79.7
242.472	-30.89
242.689	124.76
242.907	71.51
243.124	44.88
243.341	1.88
243.558	-39.08
243.775	8.02
243.992	36.69
244.209	77.65
244.426	120.66
244.643	108.37
244.86	46.93
245.078	51.03
245.295	94.04
245.512	-14.51
245.729	10.07
245.946	36.69
246.163	16.21
246.38	110.42
246.597	51.03
246.814	18.26
247.031	83.8
247.248	38.74
247.464	106.32
247.681	30.55
247.898	42.84
248.115	100.18
248.332	12.12
248.549	112.47
248.766	128.85
248.983	55.12
249.2	20.31
249.417	89.94
249.633	53.08
249.85	59.22
250.067	69.46
250.284	5.97
250.501	18.26
250.717	55.12
250.934	53.08
251.151	69.46
251.368	79.7
251.585	132.95
251.801	-10.41
252.018	87.89
252.235	104.28
252.451	42.84
252.668	12.12
252.885	83.8
253.102	38.74
253.318	-2.22
253.535	-6.31
253.752	18.26
253.968	87.89
254.185	28.5
254.401	69.46
254.618	104.28
254.835	1.88
255.051	55.12
255.268	145.24
255.484	38.74
255.701	53.08
255.917	36.69
256.134	63.32
256.351	59.22
256.567	59.22
256.784	61.27
257	-14.51
257.217	67.41
257.433	89.94
257.65	71.51
257.866	83.8
258.082	51.03
258.299	20.31
258.515	57.17
258.732	75.6
258.948	-20.65
259.165	51.03
259.381	-12.46
259.597	57.17
259.814	26.45
260.03	44.88
260.246	118.61
260.463	30.55
260.679	91.99
260.895	51.03
261.112	100.18
261.328	44.88
261.544	71.51
261.761	91.99
261.977	77.65
262.193	26.45
262.409	75.6
262.626	28.5
262.842	26.45
263.058	63.32
263.274	89.94
263.49	20.31
263.707	100.18
263.923	96.08
264.139	38.74
264.355	135
264.571	96.08
264.787	55.12
265.004	104.28
265.22	-12.46
265.436	28.5
265.652	10.07
265.868	53.08
266.084	-53.42
266.3	42.84
266.516	22.36
266.732	89.94
266.948	3.93
267.164	128.85
267.38	73.56
267.596	30.55
267.812	147.28
268.028	114.52
268.244	69.46
268.46	59.22
268.676	57.17
268.892	10.07
269.108	14.17
269.324	71.51
269.54	51.03
269.756	114.52
269.972	14.17
270.188	44.88
270.403	34.64
270.619	67.41
270.835	59.22
271.051	59.22
271.267	-63.66
271.483	28.5
271.698	69.46
271.914	26.45
272.13	5.97
272.346	-12.46
272.562	36.69
272.777	108.37
272.993	26.45
273.209	51.03
273.425	73.56
273.64	18.26
273.856	128.85
274.072	118.61
274.287	26.45
274.503	42.84
274.719	22.36
274.934	75.6
275.15	16.21
275.366	-0.17
275.581	48.98
275.797	132.95
276.012	67.41
276.228	132.95
276.444	122.71
276.659	20.31
276.875	30.55
277.09	100.18
277.306	85.84
277.521	38.74
277.737	75.6
277.952	141.14
278.168	104.28
278.383	61.27
278.599	38.74
278.814	38.74
279.03	51.03
279.245	159.57
279.461	14.17
279.676	55.12
279.892	32.6
280.107	14.17
280.322	14.17
280.538	149.33
280.753	1.88
280.969	85.84
281.184	1.88
281.399	83.8
281.615	34.64
281.83	59.22
282.045	81.75
282.26	26.45
282.476	-14.51
282.691	51.03
282.906	100.18
283.122	42.84
283.337	83.8
283.552	59.22
283.767	59.22
283.983	100.18
284.198	42.84
284.413	87.89
284.628	91.99
284.843	16.21
285.058	124.76
285.274	28.5
285.489	73.56
285.704	79.7
285.919	53.08
286.134	69.46
286.349	126.8
286.564	67.41
286.779	44.88
286.995	38.74
287.21	38.74
287.425	51.03
287.64	16.21
287.855	30.55
288.07	91.99
288.285	106.32
288.5	151.38
288.715	159.57
288.93	40.79
289.145	-14.51
289.36	38.74
289.575	69.46
289.79	116.56
290.004	59.22
290.219	61.27
290.434	77.65
290.649	85.84
290.864	116.56
291.079	5.97
291.294	67.41
291.509	110.42
291.724	-6.31
291.938	46.93
292.153	79.7
292.368	-32.94
292.583	44.88
292.798	200.53
293.012	38.74
293.227	77.65
293.442	83.8
293.657	91.99
293.871	83.8
294.086	61.27
294.301	104.28
294.516	128.85
294.73	112.47
294.945	96.08
295.16	67.41
295.374	28.5
295.589	71.51
295.804	5.97
296.018	120.66
296.233	53.08
296.447	71.51
296.662	48.98
296.877	126.8
297.091	61.27
297.306	55.12
297.52	71.51
297.735	10.07
297.949	1.88
298.164	124.76
298.378	42.84
298.593	83.8
298.807	61.27
299.022	44.88
299.236	108.37
299.451	75.6
299.665	10.07
299.88	67.41
300.094	132.95
300.309	100.18
300.523	110.42
300.737	59.22
300.952	116.56
301.166	59.22
301.381	61.27
301.595	51.03
301.809	38.74
302.024	75.6
302.238	46.93
302.452	137.04
302.667	51.03
302.881	110.42
303.095	22.36
303.309	32.6
303.524	36.69
303.738	34.64
303.952	75.6
304.166	71.51
304.381	-20.65
304.595	53.08
304.809	61.27
305.023	79.7
305.237	1.88
305.452	42.84
305.666	91.99
305.88	132.95
306.094	83.8
306.308	79.7
306.522	104.28
306.736	26.45
306.95	108.37
307.164	75.6
307.379	91.99
307.593	116.56
307.807	124.76
308.021	5.97
308.235	100.18
308.449	51.03
308.663	96.08
308.877	143.19
309.091	79.7
309.305	71.51
309.519	-6.31
309.733	-30.89
309.947	-10.41
310.161	28.5
310.374	98.13
310.588	55.12
310.802	42.84
311.016	110.42
311.23	42.84
311.444	-10.41
311.658	22.36
311.872	124.76
312.085	116.56
312.299	124.76
312.513	118.61
312.727	46.93
312.941	30.55
313.154	18.26
313.368	46.93
313.582	28.5
313.796	108.37
314.009	81.75
314.223	55.12
314.437	110.42
314.651	96.08
314.864	44.88
315.078	48.98
315.292	100.18
315.505	34.64
315.719	130.9
315.933	18.26
316.146	104.28
316.36	36.69
316.573	91.99
316.787	124.76
317.001	100.18
317.214	26.45
317.428	102.23
317.641	-10.41
317.855	110.42
318.068	24.4
318.282	67.41
318.495	83.8
318.709	120.66
318.922	61.27
319.136	116.56
319.349	102.23
319.563	59.22
319.776	75.6
319.99	-12.46
320.203	165.71
320.417	100.18
320.63	100.18
320.843	145.24
321.057	108.37
321.27	102.23
321.483	75.6
321.697	55.12
321.91	34.64
322.124	91.99
322.337	139.09
322.55	-59.56
322.763	108.37
322.977	118.61
323.19	36.69
323.403	-6.31
323.617	36.69
323.83	108.37
324.043	1.88
324.256	96.08
324.469	10.07
324.683	79.7
324.896	149.33
325.109	38.74
325.322	30.55
325.535	116.56
325.748	75.6
325.962	75.6
326.175	42.84
326.388	3.93
326.601	87.89
326.814	10.07
327.027	91.99
327.24	108.37
327.453	38.74
327.666	26.45
327.879	71.51
328.092	122.71
328.305	96.08
328.518	10.07
328.731	36.69
328.944	77.65
329.157	83.8
329.37	79.7
329.583	59.22
329.796	124.76
330.009	53.08
330.222	124.76
330.435	106.32
330.648	69.46
330.861	165.71
331.073	91.99
331.286	94.04
331.499	75.6
331.712	106.32
331.925	67.41
332.138	73.56
332.35	75.6
332.563	96.08
332.776	85.84
332.989	34.64
333.202	67.41
333.414	59.22
333.627	94.04
333.84	22.36
334.053	63.32
334.265	83.8
334.478	126.8
334.691	73.56
334.903	100.18
335.116	59.22
335.329	42.84
335.541	110.42
335.754	151.38
335.966	104.28
336.179	20.31
336.392	5.97
336.604	71.51
336.817	96.08
337.029	75.6
337.242	65.36
337.454	67.41
337.667	10.07
337.88	69.46
338.092	116.56
338.305	26.45
338.517	14.17
338.729	85.84
338.942	44.88
339.154	42.84
339.367	96.08
339.579	75.6
339.792	14.17
340.004	108.37
340.217	-22.7
340.429	69.46
340.641	42.84
340.854	42.84
341.066	57.17
341.278	173.91
341.491	51.03
341.703	53.08
341.915	38.74
342.128	69.46
342.34	59.22
342.552	51.03
342.764	-6.31
342.977	46.93
343.189	55.12
343.401	67.41
343.613	63.32
343.826	120.66
344.038	51.03
344.25	67.41
344.462	83.8
344.674	96.08
344.886	1.88
345.099	85.84
345.311	100.18
345.523	83.8
345.735	51.03
345.947	135
346.159	71.51
346.371	55.12
346.583	81.75
346.795	116.56
347.007	3.93
347.219	85.84
347.431	38.74
347.643	143.19
347.855	42.84
348.067	75.6
348.279	-14.51
348.491	53.08
348.703	83.8
348.915	94.04
349.127	106.32
349.339	141.14
349.551	38.74
349.763	112.47
349.975	126.8
350.187	157.52
350.399	91.99
350.61	126.8
350.822	118.61
351.034	128.85
351.246	77.65
351.458	83.8
351.669	16.21
351.881	96.08
352.093	42.84
352.305	114.52
352.517	77.65
352.728	124.76
352.94	65.36
353.152	100.18
353.363	46.93
353.575	51.03
353.787	141.14
353.999	67.41
354.21	149.33
354.422	22.36
354.633	67.41
354.845	96.08
355.057	79.7
355.268	124.76
355.48	104.28
355.692	28.5
355.903	91.99
356.115	69.46
356.326	26.45
356.538	67.41
356.749	12.12
356.961	171.86
357.172	141.14
357.384	28.5
357.595	91.99
357.807	51.03
358.018	89.94
358.23	46.93
358.441	96.08
358.653	110.42
358.864	59.22
359.075	83.8
359.287	30.55
359.498	124.76
359.709	120.66
359.921	85.84
360.132	83.8
360.344	65.36
360.555	34.64
360.766	108.37
360.977	100.18
361.189	110.42
361.4	77.65
361.611	110.42
361.823	108.37
362.034	173.91
362.245	100.18
362.456	102.23
362.667	96.08
362.879	128.85
363.09	79.7
363.301	94.04
363.512	30.55
363.723	108.37
363.935	51.03
364.146	132.95
364.357	79.7
364.568	38.74
364.779	16.21
364.99	137.04
365.201	-22.7
365.412	85.84
365.623	63.32
365.834	130.9
366.045	61.27
366.256	132.95
366.467	61.27
366.678	69.46
366.889	22.36
367.1	98.13
367.311	190.29
367.522	79.7
367.733	167.76
367.944	75.6
368.155	61.27
368.366	104.28
368.577	110.42
368.788	114.52
368.999	87.89
369.209	1.88
369.42	200.53
369.631	233.3
369.842	91.99
370.053	120.66
370.264	83.8
370.474	-39.08
370.685	110.42
370.896	59.22
371.107	75.6
371.317	120.66
371.528	34.64
371.739	85.84
371.95	83.8
372.16	53.08
372.371	51.03
372.582	42.84
372.792	116.56
373.003	122.71
373.214	75.6
373.424	145.24
373.635	3.93
373.846	83.8
374.056	98.13
374.267	100.18
374.477	83.8
374.688	100.18
374.898	94.04
375.109	141.14
375.319	42.84
375.53	67.41
375.74	110.42
375.951	85.84
376.161	63.32
376.372	116.56
376.582	40.79
376.793	149.33
377.003	-4.27
377.214	1.88
377.424	108.37
377.635	51.03
377.845	116.56
378.055	143.19
378.266	83.8
378.476	159.57
378.686	36.69
378.897	114.52
379.107	108.37
379.317	75.6
379.528	116.56
379.738	110.42
379.948	18.26
380.158	141.14
380.369	59.22
380.579	124.76
380.789	42.84
380.999	135
381.21	28.5
381.42	182.1
381.63	100.18
381.84	139.09
382.05	51.03
382.261	112.47
382.471	143.19
382.681	116.56
382.891	118.61
383.101	159.57
383.311	46.93
383.521	71.51
383.731	81.75
383.941	120.66
384.151	94.04
384.361	116.56
384.571	77.65
384.781	100.18
384.991	171.86
385.201	218.96
385.411	135
385.621	132.95
385.831	77.65
386.041	128.85
386.251	67.41
386.461	69.46
386.671	36.69
386.881	186.19
387.091	114.52
387.301	94.04
387.511	102.23
387.72	149.33
387.93	182.1
388.14	71.51
388.35	171.86
388.56	165.71
388.769	192.34
388.979	161.62
389.189	104.28
389.399	161.62
389.609	94.04
389.818	137.04
390.028	116.56
390.238	132.95
390.447	85.84
390.657	143.19
390.867	124.76
391.076	59.22
391.286	91.99
391.496	67.41
391.705	91.99
391.915	194.39
392.125	110.42
392.334	110.42
392.544	71.51
392.753	190.29
392.963	112.47
393.172	132.95
393.382	104.28
393.591	161.62
393.801	135
394.01	182.1
394.22	69.46
394.429	38.74
394.639	69.46
394.848	141.14
395.058	141.14
395.267	186.19
395.477	184.15
395.686	126.8
395.895	165.71
396.105	208.72
396.314	161.62
396.524	116.56
396.733	75.6
396.942	178
397.152	145.24
397.361	175.95
397.57	165.71
397.78	141.14
397.989	180.05
398.198	223.06
398.407	190.29
398.617	94.04
398.826	157.52
399.035	126.8
399.244	204.63
399.453	173.91
399.663	182.1
399.872	196.43
400.081	108.37
400.29	288.59
400.499	143.19
400.708	151.38
400.917	218.96
401.127	190.29
401.336	167.76
401.545	341.84
401.754	243.54
401.963	214.87
402.172	223.06
402.381	149.33
402.59	165.71
402.799	210.77
403.008	208.72
403.217	257.87
403.426	253.78
403.635	165.71
403.844	212.82
404.053	239.44
404.262	184.15
404.471	321.36
404.68	251.73
404.888	292.69
405.097	221.01
405.306	331.6
405.515	292.69
405.724	237.39
405.933	315.22
406.142	278.35
406.35	315.22
406.559	247.63
406.768	272.21
406.977	372.56
407.185	358.22
407.394	354.13
407.603	300.88
407.812	419.66
408.02	479.05
408.229	292.69
408.438	438.09
408.646	378.7
408.855	390.99
409.064	522.06
409.272	421.71
409.481	468.81
409.69	454.48
409.898	468.81
410.107	487.25
410.315	542.54
410.524	501.58
410.733	634.7
410.941	571.21
411.15	591.69
411.358	608.08
411.567	773.96
411.775	649.04
411.984	706.38
412.192	821.06
412.401	614.22
412.609	765.77
412.818	814.92
413.026	792.39
413.234	806.73
413.443	882.5
413.651	855.88
413.86	927.56
414.068	1005.38
414.276	1136.45
414.485	1015.62
414.693	1075.01
414.901	1150.79
415.11	1144.64
415.318	1148.74
415.526	1238.85
415.734	1316.67
415.943	1363.78
416.151	1380.16
416.359	1363.78
416.567	1404.74
416.776	1515.33
416.984	1492.8
417.192	1513.28
417.4	1595.2
417.608	1617.72
417.817	1730.36
418.025	1656.64
418.233	1980.22
418.441	1986.36
418.649	2010.93
418.857	2111.29
419.065	2152.24
419.273	2074.42
419.481	2213.68
419.689	2352.95
419.897	2520.88
420.105	2461.49
420.313	2574.13
420.521	2766.64
420.729	2658.09
420.937	2729.77
421.145	2950.95
421.353	3059.49
421.561	3020.58
421.769	3176.23
421.977	3430.18
422.185	3270.44
422.393	3630.88
422.601	3714.84
422.809	3682.08
423.017	3878.68
423.224	4077.34
423.432	4030.23
423.64	4136.73
423.848	4394.77
424.056	4396.82
424.263	4644.62
424.471	4728.59
424.679	4800.27
424.887	5056.26
425.094	5125.9
425.302	5207.81
425.51	5369.6
425.718	5547.78
425.925	5766.91
426.133	5910.27
426.341	6090.49
426.548	6344.44
426.756	6553.33
426.964	6463.22
427.171	6792.94
427.379	7112.42
427.586	7204.58
427.794	7548.64
428.001	7618.27
428.209	8154.84
428.417	7800.54
428.624	8603.35
428.832	8365.78
429.039	8599.25
429.247	8408.79
429.454	9141.96
429.662	9903.81
429.869	9541.32
430.076	9891.52
430.284	9547.46
430.491	10008.25
430.699	10610.36
430.906	10507.96
431.114	10770.1
431.321	11189.93
431.528	11341.48
431.736	11937.44
431.943	12658.32
432.15	12412.57
432.358	12390.04
432.565	13207.18
432.772	13078.16
432.979	13635.21
433.187	13921.92
433.394	13837.95
433.601	14855.79
433.808	15109.74
434.016	14906.99
434.223	15357.55
434.43	16438.87
434.637	15947.36
434.844	16926.29
435.052	17307.21
435.259	17165.9
435.466	17569.35
435.673	17299.02
435.88	18419.26
436.087	19250.74
436.294	19205.68
436.501	19260.98
436.708	19299.89
436.915	20033.06
437.122	21011.99
437.329	20829.72
437.537	21437.97
437.743	21714.44
437.95	21571.08
438.157	22719.99
438.364	23467.5
438.571	23399.92
438.778	23926.25
438.985	25552.34
439.192	24614.37
439.399	25451.98
439.606	24700.38
439.813	26744.25
440.02	27747.76
440.227	27143.61
440.433	27047.35
440.64	27729.33
440.847	27803.05
441.054	28286.37
441.261	30569.86
441.467	29883.79
441.674	30391.69
441.881	31604.08
442.088	31425.91
442.294	31139.19
442.501	31915.37
442.708	32339.3
442.914	33641.81
443.121	35192.12
443.328	34305.35
443.534	36752.68
443.741	35831.09
443.948	34925.89
444.154	37817.62
444.361	37672.21
444.568	37590.3
444.774	37696.79
444.981	38006.03
445.187	39154.94
445.394	41008.36
445.6	40580.33
445.807	44178.61
446.013	42446.03
446.22	42855.62
446.426	44686.51
446.633	44903.59
446.839	46521.49
447.046	44815.53
447.252	46447.76
447.459	46943.37
447.665	46953.61
447.871	48737.39
448.078	50709.58
448.284	48266.36
448.491	49744.99
448.697	51645.51
448.903	52374.58
449.11	52597.81
449.316	51641.41
449.522	52790.32
449.728	54211.61
449.935	54483.99
450.141	54328.34
450.347	55450.63
450.553	54004.77
450.76	54246.43
450.966	55671.81
451.172	55432.2
451.378	57021.42
451.584	55770.11
451.791	57228.27
451.997	56757.24
452.203	57891.81
452.409	57881.57
452.615	57390.06
452.821	55604.23
453.027	54389.78
453.233	58100.7
453.44	55409.67
453.646	55802.88
453.852	56278.01
454.058	56943.6
454.264	55606.28
454.47	56531.96
454.676	54832.14
454.882	57175.02
455.088	52536.37
455.294	53169.19
455.5	53908.51
455.705	54328.34
455.911	52497.46
456.117	51330.12
456.323	50746.45
456.529	47928.44
456.735	50445.4
456.941	48774.25
457.147	48313.46
457.352	46693.52
457.558	46462.1
457.764	46556.3
457.97	45581.47
458.176	44397.74
458.381	44678.32
458.587	42347.73
458.793	42228.94
458.999	39775.48
459.204	42661.07
459.41	41782.49
459.616	39243.01
459.821	38911.24
460.027	39146.75
460.233	37987.6
460.438	36429.1
460.644	36855.07
460.85	34915.65
461.055	34379.08
461.261	34366.79
461.466	31970.67
461.672	30774.66
461.878	33037.66
462.083	31212.92
462.289	30492.04
462.494	30135.69
462.7	28683.68
462.905	27860.4
463.111	28800.41
463.316	28939.68
463.522	28560.8
463.727	28409.25
463.932	28284.33
464.138	27590.06
464.343	27932.08
464.549	27561.39
464.754	28165.54
464.959	28065.19
465.165	28007.85
465.37	26570.18
465.575	25908.68
465.781	27004.35
465.986	26895.8
466.191	26072.52
466.397	25855.43
466.602	24337.89
466.807	24954.33
467.012	25361.87
467.218	25138.65
467.423	24765.92
467.628	24796.63
467.833	26113.48
468.038	24942.04
468.244	24292.83
468.449	24669.66
468.654	24460.77
468.859	24020.45
469.064	24286.69
469.269	23307.76
469.474	23363.06
469.679	23979.5
469.885	23012.85
470.09	23533.04
470.295	23244.27
470.5	22709.75
470.705	23148.02
470.91	22386.18
471.115	22191.62
471.32	22650.36
471.525	22427.14
471.73	21839.37
471.935	21628.43
472.139	20846.1
472.344	20925.97
472.549	20997.65
472.754	20889.11
472.959	20479.52
473.164	19922.47
473.369	19893.8
473.574	20551.2
473.778	20381.21
473.983	19990.05
474.188	19828.26
474.393	18794.04
474.598	19140.15
474.802	19043.89
475.007	18759.22
475.212	18949.68
475.417	18306.62
475.621	18026.05
475.826	18179.65
476.031	17944.13
476.235	17497.67
476.44	17704.52
476.645	17423.95
476.849	17440.33
477.054	17192.53
477.259	17081.94
477.463	16938.58
477.668	16488.03
477.872	16746.07
478.077	16481.88
478.282	16229.98
478.486	15947.36
478.691	15851.11
478.895	15754.85
479.1	15601.26
479.304	15717.99
479.509	15464.04
479.713	15543.91
479.918	15206
480.122	14904.95
480.326	15210.09
480.531	15230.57
480.735	15216.24
480.94	14984.82
481.144	15353.45
481.348	14788.21
481.553	14603.89
481.757	14943.86
481.961	14880.37
482.166	14872.18
482.37	14491.26
482.574	14599.8
482.778	14716.53
482.983	14849.65
483.187	14728.82
483.391	14683.77
483.595	14513.78
483.8	14438.01
484.004	14472.82
484.208	14628.47
484.412	14603.89
484.616	14601.85
484.821	14507.64
485.025	14329.47
485.229	14747.25
485.433	14345.85
485.637	14708.34
485.841	14317.18
486.045	14243.45
486.249	14507.64
486.453	14395
486.657	14468.73
486.861	14577.27
487.065	14208.64
487.269	14687.86
487.473	14192.25
487.677	14472.82
487.881	14419.58
488.085	14501.5
488.289	14734.96
488.493	14442.1
488.697	14689.91
488.901	14632.57
489.105	14605.94
489.309	14833.27
489.512	14673.53
489.716	14863.99
489.92	14702.2
490.124	14634.61
490.328	15054.45
490.531	14607.99
490.735	14823.03
490.939	14956.15
491.143	14749.3
491.346	14890.61
491.55	15126.13
491.754	15128.17
491.958	14997.1
492.161	15148.65
492.365	15488.62
492.569	15042.16
492.772	15330.92
492.976	15162.99
493.18	15373.93
493.383	15560.3
493.587	15591.02
493.79	15601.26
493.994	15480.43
494.197	15928.93
494.401	16082.53
494.605	16049.76
494.808	16086.62
495.012	16285.28
495.215	16268.89
495.419	16590.42
495.622	16256.61
495.825	16866.9
496.029	16533.08
496.232	16901.72
496.436	17114.7
496.639	17200.72
496.843	17139.28
497.046	17329.74
497.249	17745.48
497.453	17536.59
497.656	18040.39
497.859	17792.58
498.063	18075.2
498.266	18300.48
498.469	18679.35
498.673	18736.7
498.876	18888.25
499.079	19066.42
499.282	19070.51
499.485	19447.34
499.689	19613.23
499.892	19775.02
500.095	19842.6
500.298	20393.5
500.501	20022.82
500.705	20817.43
500.908	20645.4
501.111	21192.21
501.314	21313.04
501.517	21409.29
501.72	21517.84
501.923	21646.86
502.126	21882.38
502.329	22429.18
502.532	22556.16
502.735	22597.12
502.938	23090.68
503.141	22797.82
503.344	23444.98
503.547	23307.76
503.75	23754.22
503.953	24331.75
504.156	24348.13
504.359	24690.14
504.562	24417.76
504.765	25269.72
504.968	25267.67
505.17	25669.07
505.373	25437.65
505.576	26195.4
505.779	26351.04
505.982	26529.22
506.185	27022.78
506.387	27162.04
506.59	27106.74
506.793	28040.62
506.996	27291.06
507.198	28571.04
507.401	28325.29
507.604	28816.8
507.807	29300.12
508.009	29191.58
508.212	29504.92
508.415	29867.41
508.617	29945.23
508.82	30043.53
509.022	30268.81
509.225	30993.79
509.428	31200.63
509.63	31690.1
509.833	31647.09
510.035	32537.96
510.238	31995.25
510.44	32537.96
510.643	33156.44
510.845	32994.65
511.048	33248.6
511.25	33592.66
511.453	34004.3
511.655	34729.28
511.858	34592.07
512.06	34970.94
512.262	35282.23
512.465	34917.7
512.667	35876.15
512.87	36283.69
513.072	36042.03
513.274	36601.13
513.477	36924.71
513.679	37403.93
513.881	37573.91
514.084	38112.53
514.286	38243.6
514.488	38262.03
514.69	39349.5
514.893	39099.65
515.095	39560.44
515.297	39902.45
515.499	39896.31
515.701	40619.24
515.904	41039.08
516.106	41102.56
516.308	41678.04
516.51	42097.87
516.712	41790.68
516.914	42099.92
517.116	43179.2
517.318	42996.93
517.52	43121.86
517.722	43410.62
517.925	44508.33
518.127	44481.71
518.329	44840.11
518.531	44391.6
518.733	45280.42
518.935	45698.2
519.136	45735.07
519.338	46070.93
519.54	46576.78
519.742	46609.55
519.944	46673.04
520.146	47309.96
520.348	47250.56
520.55	47668.35
520.752	47789.18
520.954	48675.95
521.155	48211.06
521.357	48669.81
521.559	48999.53
521.761	49384.55
521.963	49222.76
522.164	49714.27
522.366	50072.67
522.568	50066.52
522.77	50871.37
522.971	50678.86
523.173	50445.4
523.375	51166.28
523.576	51057.74
523.778	51444.8
523.98	52149.31
524.181	51795.01
524.383	51534.91
524.584	52517.94
524.786	52581.43
524.988	52067.39
525.189	52945.97
525.391	52980.78
525.592	52851.76
525.794	53077.04
525.995	52986.92
526.197	53410.85
526.398	53335.08
526.6	53629.99
526.801	53718.05
527.003	53939.23
527.204	53875.74
527.406	54119.45
527.607	54234.14
527.808	54348.82
528.01	53791.78
528.211	53836.83
528.412	55032.85
528.614	54557.72
528.815	54555.67
529.016	55211.02
529.218	54354.97
529.419	54180.89
529.62	54924.3
529.822	54404.12
530.023	54426.65
530.224	54598.68
530.425	54670.36
530.626	54504.47
530.828	54172.7
531.029	55653.38
531.23	54311.96
531.431	54369.3
531.632	54549.52
531.833	55184.4
532.035	54279.19
532.236	54635.54
532.437	54797.33
532.638	54238.23
532.839	54811.66
533.04	55102.48
533.241	54342.68
533.442	55088.14
533.643	54320.15
533.844	54383.64
534.045	54862.86
534.246	53990.43
534.447	54832.14
534.648	54529.05
534.849	54594.58
535.05	53859.36
535.251	54410.26
535.451	54064.16
535.652	54520.85
535.853	54551.57
536.054	54592.53
536.255	54295.58
536.456	53572.64
536.657	54690.83
536.857	53965.85
537.058	54098.97
537.259	54004.77
537.46	53617.7
537.66	53687.33
537.861	54164.51
538.062	53902.37
538.263	53885.98
538.463	53693.47
538.664	53861.41
538.865	53713.95
539.065	53888.03
539.266	53353.51
539.466	54711.31
539.667	52937.77
539.868	54395.93
540.068	53566.5
540.269	53636.13
540.469	53685.28
540.67	53109.8
540.87	53484.58
541.071	53554.21
541.271	53738.53
541.472	53670.95
541.672	53091.37
541.873	53064.75
542.073	52802.61
542.274	53666.85
542.474	53173.29
542.675	52960.3
542.875	53615.65
543.075	53130.28
543.276	52575.28
543.476	53713.95
543.676	53081.13
543.877	53505.06
544.077	53337.13
544.277	52874.29
544.478	53001.26
544.678	53548.07
544.878	53400.61
545.078	52970.54
545.279	52892.72
545.479	52982.83
545.679	53222.44
545.879	53263.4
546.079	53019.69
546.28	52982.83
546.48	52608.05
546.68	52698.16
546.88	53130.28
547.08	52892.72
547.28	52839.47
547.48	52622.39
547.68	52984.88
547.88	52638.77
548.081	53263.4
548.281	53369.89
548.481	52687.92
548.681	52997.16
548.881	52939.82
549.081	52556.85
549.28	52571.19
549.48	52933.68
549.68	52905.01
549.88	53752.87
550.08	52542.52
550.28	52911.15
550.48	52284.47
550.68	52939.82
550.88	52438.07
551.08	52712.5
551.279	52833.33
551.479	52677.68
551.679	53302.31
551.879	52589.62
552.079	53083.18
552.278	52751.41
552.478	53001.26
552.678	52962.35
552.878	53296.17
553.077	52818.99
553.277	52466.74
553.477	53136.43
553.676	52608.05
553.876	52489.27
554.076	52907.05
554.275	52636.72
554.475	52350.01
554.674	53046.32
554.874	53015.6
555.074	52659.25
555.273	53179.43
555.473	53220.39
555.672	52681.78
555.872	53169.19
556.071	52968.49
556.271	52956.21
556.47	52595.76
556.67	52653.11
556.869	52958.25
557.068	52878.38
557.268	52597.81
557.467	52782.13
557.667	53124.14
557.866	52468.79
558.065	53064.75
558.265	52593.71
558.464	52386.87
558.663	53292.07
558.863	52401.21
559.062	53580.84
559.261	52425.78
559.461	53474.34
559.66	52288.57
559.859	52556.85
560.058	52286.52
560.258	52735.02
560.457	52708.4
560.656	52806.7
560.855	52149.31
561.054	52853.81
561.253	52663.35
561.453	52870.19
561.652	52714.54
561.851	52714.54
562.05	52706.35
562.249	52384.82
562.448	52851.76
562.647	52436.02
562.846	52423.73
563.045	52646.96
563.244	51926.08
563.443	52632.63
563.642	51860.54
563.841	52288.57
564.04	52145.21
564.239	52671.54
564.438	52249.66
564.637	52417.59
564.836	52689.97
565.035	51964.99
565.234	52018.24
565.432	52051
565.631	52069.43
565.83	51870.78
566.029	51502.15
566.228	51461.19
566.427	51936.32
566.625	51481.67
566.824	51305.54
567.023	52098.11
567.222	50814.03
567.42	51731.52
567.619	51579.97
567.818	51500.1
568.016	51106.89
568.215	51776.58
568.414	51330.12
568.612	51618.88
568.811	51176.52
569.01	51248.2
569.208	50486.35
569.407	51274.82
569.605	50709.58
569.804	50996.3
570.002	50132.06
570.201	50973.77
570.4	50185.3
570.598	50101.34
570.797	50314.33
570.995	50306.13
571.193	49839.2
571.392	50402.39
571.59	50011.23
571.789	50371.67
571.987	50117.72
572.186	50164.82
572.384	49362.02
572.582	49970.27
572.781	49294.44
572.979	49189.99
573.177	49462.37
573.376	49560.67
573.574	48688.24
573.772	49290.34
573.971	48682.09
574.169	48721.01
574.367	48639.09
574.565	48936.04
574.763	48458.87
574.962	48358.52
575.16	48245.88
575.358	48227.45
575.556	47772.8
575.754	48309.36
575.952	47582.34
576.151	48225.4
576.349	47438.98
576.547	47355.01
576.745	47588.48
576.943	47277.19
577.141	47629.44
577.339	47142.02
577.537	47060.1
577.735	47058.06
577.933	46646.41
578.131	47197.32
578.329	46324.88
578.527	46562.45
578.725	46683.28
578.923	46621.84
579.121	46423.18
579.319	46230.68
579.516	46701.71
579.714	46097.56
579.912	45780.12
580.11	45784.22
580.308	45941.91
580.506	45507.74
580.704	44813.48
580.901	45261.99
581.099	45673.63
581.297	44698.8
581.495	45317.28
581.692	45419.68
581.89	44780.71
582.088	45132.96
582.285	44809.39
582.483	44942.5
582.681	45038.76
582.878	44424.37
583.076	44258.48
583.274	44860.58
583.471	44252.34
583.669	43916.47
583.866	44139.7
584.064	44186.8
584.262	43683
584.459	43895.99
584.657	43666.62
584.854	43687.1
585.052	42855.62
585.249	43203.78
585.447	43392.19
585.644	43177.15
585.841	43420.86
586.039	43412.67
586.236	42724.55
586.434	42945.73
586.631	42880.2
586.828	42613.96
587.026	42869.96
587.223	42460.37
587.42	42613.96
587.618	42411.21
587.815	41825.5
588.012	42253.52
588.21	41882.84
588.407	42333.39
588.604	42101.97
588.801	41643.23
588.999	41825.5
589.196	41278.69
589.393	41811.16
589.59	41469.15
589.787	41196.77
589.984	41180.38
590.182	40439.02
590.379	41055.46
590.576	40633.58
590.773	40828.13
590.97	40490.22
591.167	40713.45
591.364	40015.09
591.561	40660.2
591.758	40086.77
591.955	40303.85
592.152	40412.4
592.349	40035.57
592.546	40178.93
592.743	39996.66
592.94	39593.21
593.137	39986.42
593.334	40025.33
593.531	39591.16
593.727	39654.65
593.924	39345.4
594.121	38984.96
594.318	39449.85
594.515	38995.2
594.712	39550.2
594.908	39056.64
595.105	39548.15
595.302	38823.17
595.499	39132.42
595.696	38999.3
595.892	38501.64
596.089	39130.37
596.286	38812.93
596.482	38309.13
596.679	38329.61
596.876	38669.58
597.072	38427.91
597.269	38569.22
597.466	38446.35
597.662	38444.3
597.859	38409.48
598.055	38157.58
598.252	37791
598.448	37960.98
598.645	37739.8
598.841	37862.68
599.038	37862.68
599.234	38090
599.431	37809.43
599.627	37352.73
599.824	37690.65
600.02	37723.41
600.217	37635.35
600.413	37625.11
600.609	37197.09
600.806	37543.19
601.002	37584.15
601.198	37526.81
601.395	37557.53
601.591	36717.86
601.787	37311.77
601.984	37453.08
602.18	37516.57
602.376	37373.21
602.572	37324.06
602.769	36879.65
602.965	37051.68
603.161	37444.89
603.357	36906.27
603.553	36566.31
603.75	37002.53
603.946	36861.22
604.142	37004.58
604.338	36654.37
604.534	36871.46
604.73	36666.66
604.926	36814.12
605.122	37174.56
605.318	36695.33
605.514	36461.86
605.71	36453.67
605.906	36810.02
606.102	36511.02
606.298	36478.25
606.494	36154.67
606.69	36799.78
606.886	36781.35
607.082	36312.36
607.278	36764.96
607.474	36447.53
607.67	36752.68
607.866	36312.36
608.062	36709.67
608.257	36367.66
608.453	36545.83
608.649	36549.93
608.845	36060.46
609.041	36756.77
609.236	36693.29
609.432	36574.5
609.628	36601.13
609.824	36332.84
610.019	36312.36
610.215	36291.88
610.411	36879.65
610.606	36273.45
610.802	36347.18
610.998	36582.7
611.193	36687.14
611.389	35972.4
611.584	36762.92
611.78	36283.69
611.976	36617.51
612.171	36715.81
612.367	36502.82
612.562	36515.11
612.758	36140.33
612.953	36568.36
613.149	36691.24
613.344	36402.47
613.539	36879.65
613.735	36371.75
613.93	36664.61
614.126	36238.64
614.321	36726.05
614.517	35927.35
614.712	36525.35
614.907	36259.12
615.103	36650.28
615.298	36216.11
615.493	36709.67
615.688	35708.21
615.884	36787.49
616.079	35849.52
616.274	36576.55
616.47	36126
616.665	36459.82
616.86	35951.92
617.055	36240.68
617.25	35779.89
617.445	35876.15
617.641	35132.73
617.836	35964.21
618.031	35292.47
618.226	35884.34
618.421	35743.03
618.616	36095.28
618.811	35429.69
619.006	36060.46
619.201	34919.74
619.396	35603.77
619.591	34968.9
619.786	35341.63
619.981	34911.55
620.176	35251.52
620.371	34501.96
620.566	34784.58
620.761	34587.97
620.956	34737.48
621.151	34135.37
621.346	34121.04
621.541	33797.46
621.735	34276.68
621.93	33746.26
622.125	34157.9
622.32	33303.9
622.515	33871.18
622.709	33428.82
622.904	33178.97
623.099	33238.36
623.294	33090.91
623.488	32902.5
623.683	33252.7
623.878	32179.56
624.072	32654.69
624.267	32208.23
624.462	32163.18
624.656	31743.34
624.851	31831.41
625.046	31753.58
625.24	31495.54
625.435	31571.32
625.629	31180.15
625.824	30934.4
626.018	30963.07
626.213	30539.14
626.407	30694.78
626.602	30272.9
626.796	30227.85
626.991	30496.13
627.185	30096.78
627.38	29902.22
627.574	29838.73
627.768	29543.83
627.963	29595.03
628.157	29105.56
628.352	29484.44
628.546	28915.1
628.74	29246.87
628.935	28872.09
629.129	28515.75
629.323	28657.06
629.517	28458.4
629.712	27905.45
629.906	28349.86
630.1	27946.41
630.294	28097.96
630.489	27794.86
630.683	28046.76
630.877	27317.68
631.071	27403.7
631.265	27461.04
631.459	26721.73
631.653	26668.48
631.848	26951.1
632.042	26604.99
632.236	26701.25
632.43	26357.19
632.624	26422.72
632.818	26105.29
633.012	25820.62
633.206	25564.62
633.4	26176.97
633.594	25642.45
633.788	25624.01
633.982	25853.39
634.176	25365.97
634.369	24862.17
634.563	24952.28
634.757	24714.72
634.951	24608.22
635.145	24753.63
635.339	24841.69
635.533	24247.78
635.726	24651.23
635.92	24129
636.114	24210.92
636.308	24145.38
636.501	23676.4
636.695	23873
636.889	23426.54
637.083	23348.72
637.276	23506.41
637.47	23309.81
637.664	23229.94
637.857	22865.4
638.051	22703.61
638.244	22517.25
638.438	22816.25
638.632	22785.53
638.825	22480.38
639.019	22126.08
639.212	22246.91
639.406	22115.84
639.599	22277.63
639.793	21837.32
639.986	21784.07
640.18	21648.91
640.373	21503.5
640.567	21136.91
640.76	21233.17
640.954	21036.56
641.147	20973.08
641.34	20719.13
641.534	21055
641.727	20469.28
641.92	20667.93
642.114	20401.69
642.307	20442.65
642.5	20301.34
642.694	19936.81
642.887	19805.74
643.08	20033.06
643.273	19811.88
643.467	19617.32
643.66	19594.79
643.853	19320.37
644.046	19303.98
644.239	19553.83
644.432	19285.55
644.626	18986.55
644.819	18968.12
645.012	19095.09
645.205	18796.09
645.398	18691.64
645.591	18589.24
645.784	18476.6
645.977	18208.32
646.17	18394.68
646.363	18183.74
646.556	17706.57
646.749	18052.67
646.942	18013.76
647.135	17681.99
647.328	17884.74
647.521	17688.14
647.714	17448.52
647.907	17196.62
648.099	17296.97
648.292	17223.25
648.485	17077.84
648.678	17006.16
648.871	16774.74
649.064	16911.96
649.256	16852.56
649.449	16436.83
649.642	16449.11
649.835	16385.63
650.027	16316
650.22	16418.39
650.413	16137.82
650.605	16375.39
650.798	15912.55
650.991	16008.8
651.183	15859.3
651.376	15689.32
651.568	15973.99
651.761	15824.48
651.954	15445.61
652.146	15435.37
652.339	15742.57
652.531	15505
652.724	15296.11
652.916	15009.39
653.109	14988.91
653.301	14820.98
653.494	15066.74
653.686	14726.77
653.879	14761.59
654.071	14714.48
654.263	14378.62
654.456	14435.96
654.648	14327.42
654.84	14290.56
655.033	14345.85
655.225	14282.36
655.417	13960.83
655.61	14075.52
655.802	14308.99
655.994	14157.44
656.186	13852.29
656.379	13555.33
656.571	13745.8
656.763	13545.09
656.955	13543.05
657.148	13672.07
657.34	13543.05
657.532	13266.57
657.724	13182.6
657.916	13360.78
658.108	13063.82
658.3	13020.81
658.492	13022.86
658.684	12922.51
658.876	12906.13
659.068	12691.09
659.26	12732.05
659.452	12650.13
659.644	12646.04
659.836	12471.96
660.028	12504.73
660.22	12293.79
660.412	12322.46
660.604	12281.5
660.796	12111.52
660.988	12009.12
661.18	11947.68
661.372	11730.59
661.563	11855.52
661.755	11830.94
661.947	11863.71
662.139	11701.92
662.331	11777.7
662.522	11437.73
662.714	11445.93
662.906	11431.59
663.097	11411.11
663.289	11282.09
663.481	11206.31
663.673	11251.37
663.864	11081.39
664.056	10956.46
664.247	11249.32
664.439	10815.15
664.631	10847.92
664.822	10819.25
665.014	10780.34
665.205	10614.45
665.397	10620.6
665.588	10663.6
665.78	10612.4
665.971	10548.92
666.163	10368.7
666.354	10188.47
666.546	10151.61
666.737	10133.18
666.929	10110.65
667.12	9932.48
667.311	10172.09
667.503	10071.74
667.694	10004.16
667.885	10127.03
668.077	9856.7
668.268	9815.74
668.459	9807.55
668.651	9711.3
668.842	9533.12
669.033	9520.84
669.224	9610.95
669.416	9719.49
669.607	9594.56
669.798	9447.11
669.989	9524.93
670.18	9379.53
670.371	9332.42
670.563	9268.94
670.754	9096.91
670.945	9111.24
671.136	9197.26
671.327	9156.3
671.518	9144.01
671.709	9049.8
671.9	9156.3
672.091	9043.66
672.282	8742.61
672.473	8849.1
672.664	8877.77
672.855	8996.56
673.046	8859.34
673.237	8539.86
673.428	8681.17
673.619	8701.65
673.809	8601.3
674	8541.91
674.191	8476.37
674.382	8390.36
674.573	8566.48
674.764	8419.03
674.954	8523.48
675.145	8257.24
675.336	8410.84
675.527	8212.18
675.717	8267.48
675.908	8074.97
676.099	8115.93
676.289	8230.62
676.48	7964.38
676.671	8095.45
676.861	8054.49
677.052	7915.23
677.243	8005.34
677.433	7917.28
677.624	8210.14
677.814	7808.73
678.005	7960.28
678.195	7976.67
678.386	7816.93
678.576	7831.26
678.767	7765.73
678.957	7726.82
679.148	7743.2
679.338	7696.1
679.529	7694.05
679.719	7685.86
679.909	7638.75
680.1	7581.41
680.29	7530.21
680.481	7532.26
680.671	7634.66
680.861	7620.32
681.052	7669.47
681.242	7431.91
681.432	7493.35
681.622	7427.81
681.813	7448.29
682.003	7352.04
682.193	7284.45
682.383	7341.8
682.573	7300.84
682.764	7210.73
682.954	7395.04
683.144	7354.09
683.334	7120.62
683.524	7276.26
683.714	7177.96
683.904	7139.05
684.094	7186.15
684.284	7212.78
684.474	7046.89
684.664	6999.79
684.854	7106.28
685.044	7132.9
685.234	6940.4
685.424	7050.99
685.614	7036.65
685.804	6985.45
685.994	6964.97
686.184	6930.16
686.374	6672.11
686.564	6688.5
686.753	6936.3
686.943	6741.74
687.133	6745.84
687.323	6604.53
687.513	6635.25
687.702	6592.24
687.892	6727.41
688.082	6538.99
688.272	6555.38
688.461	6657.78
688.651	6670.06
688.841	6549.23
689.03	6657.78
689.22	6440.69
689.41	6366.96
689.599	6297.33
689.789	6522.61
689.979	6352.63
690.168	6186.74
690.358	6416.12
690.547	6162.17
690.737	6153.98
690.926	6186.74
691.116	6252.28
691.305	6334.2
691.495	6125.3
691.684	6113.02
691.874	6186.74
692.063	6072.06
692.252	5887.74
692.442	6153.98
692.631	5951.23
692.82	5928.7
693.01	5936.89
693.199	5820.16
693.388	5865.21
693.578	5842.68
693.767	5926.65
693.956	5996.28
694.146	5816.06
694.335	5842.68
694.524	5596.93
694.713	5836.54
694.902	5859.07
695.092	5805.82
695.281	5764.86
695.47	5723.9
695.659	5877.5
695.848	5646.08
696.037	5601.02
696.226	5646.08
696.415	5578.5
696.604	5674.75
696.793	5674.75
696.982	5400.32
697.171	5603.07
697.36	5342.98
697.549	5310.21
697.738	5506.82
697.927	5451.52
698.116	5396.23
698.305	5367.56
698.494	5433.09
698.683	5244.68
698.872	5465.86
699.061	5228.29
699.25	5377.8
699.438	5375.75
699.627	5142.28
699.816	5345.03
700.005	5236.49
700.193	5140.23
700.382	5263.11
700.571	5113.61
700.76	5207.81
700.948	5121.8
701.137	5177.09
701.326	5119.75
701.514	4988.68
701.703	5003.02
701.892	4964.11
702.08	5205.77
702.269	5011.21
702.457	4925.19
702.646	5031.69
702.834	5003.02
703.023	4861.71
703.212	4708.11
703.4	4974.35
703.589	4878.09
703.777	4812.56
703.965	4839.18
704.154	4886.28
704.342	4679.44
704.531	4773.64
704.719	4693.77
704.907	4753.16
705.096	4706.06
705.284	4646.67
705.472	4671.25
705.661	4626.19
705.849	4704.01
706.037	4687.63
706.226	4581.14
706.414	4800.27
706.602	4542.22
706.79	4550.42
706.979	4552.46
707.167	4513.55
707.355	4531.98
707.543	4423.44
707.731	4515.6
707.919	4384.53
708.107	4519.7
708.296	4335.38
708.484	4196.12
708.672	4411.15
708.86	4278.04
709.048	4433.68
709.236	4273.94
709.424	4312.85
709.612	4179.73
709.8	4054.81
709.988	4278.04
710.176	4265.75
710.364	4265.75
710.551	4222.74
710.739	4257.56
710.927	4087.57
711.115	4136.73
711.303	4144.92
711.491	4189.97
711.679	4099.86
711.866	4114.2
712.054	4063
712.242	4007.7
712.43	4050.71
712.617	4099.86
712.805	3944.22
712.993	3987.22
713.181	3911.45
713.368	3929.88
713.556	3827.48
713.744	3897.11
713.931	3964.7
714.119	3933.98
714.306	3903.26
714.494	3835.67
714.682	3696.41
714.869	3749.66
715.057	3884.83
715.244	3788.57
715.432	3770.14
715.619	3794.72
715.807	3757.85
715.994	3770.14
716.182	3727.13
716.369	3647.26
716.556	3843.87
716.744	3753.76
716.931	3753.76
717.119	3690.27
717.306	3618.59
717.493	3479.33
717.681	3571.49
717.868	3618.59
718.055	3464.99
718.242	3536.67
718.43	3518.24
718.617	3532.58
718.804	3438.37
718.991	3591.97
719.179	3577.63
719.366	3540.77
719.553	3315.49
719.74	3385.12
719.927	3407.65
720.114	3426.08
720.301	3376.93
720.488	3221.28
720.676	3368.74
720.863	3413.79
721.05	3352.35
721.237	3385.12
721.424	3385.12
721.611	3391.27
721.798	3266.34
721.985	3262.24
722.172	3229.48
722.358	3188.52
722.545	3147.56
722.732	3284.77
722.919	3243.81
723.106	3190.56
723.293	3188.52
723.48	3188.52
723.667	3262.24
723.853	3090.21
724.04	3137.32
724.227	3149.61
724.414	3176.23
724.6	3209
724.787	3045.16
724.974	3170.08
725.161	3049.25
725.347	3036.97
725.534	3108.65
725.72	3043.11
725.907	3057.45
726.094	3049.25
726.28	3041.06
726.467	2967.34
726.653	2942.76
726.84	2953
727.027	3061.54
727.213	3004.2
727.4	2907.94
727.586	2862.89
727.773	2961.19
727.959	2959.14
728.145	3032.87
728.332	2885.42
728.518	2838.31
728.705	2897.71
728.891	2883.37
729.077	2836.27
729.264	2778.92
729.45	2780.97
729.636	2918.18
729.823	2909.99
730.009	2795.31
730.195	2746.16
730.382	2848.55
730.568	2858.79
730.754	2803.5
730.94	2754.35
731.126	2729.77
731.313	2793.26
731.499	2744.11
731.685	2754.35
731.871	2688.81
732.057	2690.86
732.243	2891.56
732.429	2828.07
732.615	2746.16
732.801	2631.47
732.987	2535.21
733.173	2676.52
733.359	2676.52
733.545	2699.05
733.731	2541.36
733.917	2721.58
734.103	2594.61
734.289	2740.01
734.475	2645.8
734.661	2740.01
734.847	2633.52
735.033	2625.33
735.219	2545.45
735.404	2586.41
735.59	2561.84
735.776	2434.86
735.962	2461.49
736.148	2527.02
736.333	2531.12
736.519	2545.45
736.705	2242.36
736.89	2543.41
737.076	2553.65
737.262	2393.9
737.447	2434.86
737.633	2426.67
737.819	2447.15
738.004	2363.19
738.19	2408.24
738.375	2436.91
738.561	2565.93
738.747	2350.9
738.932	2369.33
739.118	2510.64
739.303	2324.27
739.489	2354.99
739.674	2299.7
739.859	2367.28
740.045	2453.3
740.23	2418.48
740.416	2230.07
740.601	2277.17
740.786	2311.99
740.972	2219.83
741.157	2225.97
741.342	2119.48
741.528	2228.02
741.713	2213.68
741.898	2182.96
742.084	2078.52
742.269	2125.62
742.454	2236.21
742.639	2187.06
742.824	2025.27
743.01	2088.76
743.195	2082.61
743.38	2197.3
743.565	2092.85
743.75	2191.16
743.935	2080.57
744.12	2203.44
744.305	2107.19
744.49	2086.71
744.675	2039.61
744.86	1974.07
745.045	2002.74
745.23	2029.37
745.415	1992.5
745.6	2078.52
745.785	1980.22
745.97	2017.08
746.155	2015.03
746.34	2000.69
746.525	1943.35
746.71	1978.17
746.895	1914.68
747.079	1853.24
747.264	1896.25
747.449	1824.57
747.634	1849.15
747.819	1799.99
748.003	1847.1
748.188	1894.2
748.373	1843
748.557	1847.1
748.742	1740.6
748.927	1777.47
749.111	1799.99
749.296	1771.32
749.481	1787.71
749.665	1738.55
749.85	1695.55
750.034	1617.72
750.219	1726.27
750.404	1736.51
750.588	1691.45
750.773	1763.13
750.957	1664.83
751.141	1582.91
751.326	1595.2
751.51	1705.79
751.695	1584.96
751.879	1605.44
752.064	1660.73
752.248	1599.29
752.432	1527.61
752.617	1636.16
752.801	1576.77
752.985	1642.3
753.17	1576.77
753.354	1527.61
753.538	1527.61
753.722	1431.36
753.907	1429.31
754.091	1472.32
754.275	1396.54
754.459	1464.13
754.643	1468.22
754.828	1453.89
755.012	1435.46
755.196	1447.74
755.38	1419.07
755.564	1445.7
755.748	1390.4
755.932	1378.11
756.116	1423.17
756.3	1402.69
756.484	1425.22
756.668	1447.74
756.852	1400.64
757.036	1328.96
757.22	1314.63
757.404	1308.48
757.588	1288
757.772	1341.25
757.956	1331.01
758.14	1296.19
758.323	1275.71
758.507	1251.14
758.691	1222.47
758.875	1208.13
759.059	1251.14
759.242	1228.61
759.426	1238.85
759.61	1304.39
759.794	1232.71
759.977	1298.24
760.161	1345.34
760.345	1255.23
760.528	1156.93
760.712	1175.36
760.895	1201.99
761.079	1173.32
761.263	1271.62
761.446	1171.27
761.63	1197.89
761.813	1058.63
761.997	1156.93
762.18	1148.74
762.364	1140.55
762.547	1087.3
762.731	1075.01
762.914	1099.59
763.098	1001.29
763.281	1087.3
763.464	1148.74
763.648	1058.63
763.831	964.42
764.015	1099.59
764.198	1083.2
764.381	1009.48
764.564	1050.44
764.748	984.9
764.931	1099.59
765.114	1042.25
765.297	1060.68
765.481	970.57
765.664	1025.86
765.847	1011.53
766.03	966.47
766.213	1099.59
766.397	1068.87
766.58	964.42
766.763	1029.96
766.946	954.18
767.129	995.14
767.312	968.52
767.495	1001.29
767.678	984.9
767.861	954.18
768.044	1013.57
768.227	1083.2
768.41	917.32
768.593	976.71
768.776	952.13
768.959	862.02
769.142	968.52
769.324	976.71
769.507	980.81
769.69	827.21
769.873	989
770.056	1062.73
770.239	929.61
770.421	956.23
770.604	943.94
770.787	892.74
770.97	870.22
771.152	880.46
771.335	954.18
771.518	839.5
771.7	939.85
771.883	905.03
772.066	952.13
772.248	853.83
772.431	880.46
772.613	978.76
772.796	812.87
772.978	898.89
773.161	855.88
773.343	847.69
773.526	968.52
773.708	872.26
773.891	776.01
774.073	898.89
774.256	814.92
774.438	894.79
774.621	814.92
774.803	831.3
774.985	816.97
775.168	919.37
775.35	878.41
775.532	780.11
775.715	780.11
775.897	821.06
776.079	747.34
776.261	806.73
776.444	753.48
776.626	753.48
776.808	792.39
776.99	689.99
777.173	802.63
777.355	751.43
777.537	706.38
777.719	808.78
777.901	689.99
778.083	747.34
778.265	657.23
778.447	782.15
778.629	773.96
778.811	765.77
778.993	747.34
779.175	749.39
779.357	735.05
779.539	665.42
779.721	585.55
779.903	708.43
780.085	634.7
780.267	673.61
780.449	679.75
780.631	665.42
780.812	632.65
780.994	667.47
781.176	608.08
781.358	665.42
781.54	675.66
781.721	694.09
781.903	632.65
782.085	632.65
782.267	681.8
782.448	622.41
782.63	575.31
782.812	575.31
782.993	542.54
783.175	548.68
783.357	558.92
783.538	610.12
783.72	599.88
783.901	558.92
784.083	618.32
784.264	587.6
784.446	575.31
784.627	505.68
784.809	517.97
784.99	493.39
785.172	554.83
785.353	673.61
785.535	464.72
785.716	454.48
785.897	481.1
786.079	487.25
786.26	470.86
786.441	517.97
786.623	407.38
786.804	505.68
786.985	483.15
787.167	608.08
787.348	472.91
787.529	477.01
787.71	528.21
787.891	507.73
788.073	479.05
788.254	460.62
788.435	472.91
788.616	493.39
788.797	454.48
788.978	456.53
789.159	444.24
789.34	452.43
789.522	497.49
789.703	468.81
789.884	413.52
790.065	501.58
790.246	468.81
790.427	347.98
790.607	444.24
790.788	448.33
790.969	452.43
791.15	421.71
791.331	384.85
791.512	477.01
791.693	409.42
791.874	481.1
792.054	487.25
792.235	468.81
792.416	372.56
792.597	378.7
792.778	419.66
792.958	464.72
793.139	411.47
793.32	364.37
793.5	374.61
793.681	431.95
793.862	403.28
794.042	380.75
794.223	278.35
794.404	329.55
794.584	378.7
794.765	341.84
794.945	302.93
795.126	460.62
795.306	333.65
795.487	337.74
795.667	272.21
795.848	317.26
796.028	345.94
796.209	378.7
796.389	409.42
796.57	315.22
796.75	321.36
796.93	329.55
797.111	280.4
797.291	274.26
797.471	395.09
797.652	331.6
797.832	309.07
798.012	360.27
798.192	296.78
798.373	288.59
798.553	339.79
798.733	325.46
798.913	331.6
799.093	251.73
799.274	321.36
799.454	315.22
799.634	388.94
799.814	288.59
799.994	272.21
800.174	315.22
800.354	304.98
800.534	235.35
800.714	347.98
800.894	304.98
801.074	280.4
801.254	251.73
801.434	327.5
801.614	347.98
801.794	235.35
801.974	919.37
802.154	264.02
802.334	280.4
802.514	141.14
802.693	272.21
802.873	233.3
803.053	354.13
803.233	225.11
803.413	149.33
803.592	268.11
803.772	290.64
803.952	280.4
804.131	247.63
804.311	255.83
804.491	274.26
804.67	231.25
804.85	231.25
805.03	307.02
805.209	288.59
805.389	239.44
805.568	208.72
805.748	200.53
805.928	313.17
806.107	290.64
806.287	225.11
806.466	272.21
806.646	210.77
806.825	268.11
807.004	165.71
807.184	304.98
807.363	280.4
807.543	227.15
807.722	227.15
807.901	251.73
808.081	200.53
808.26	239.44
808.439	296.78
808.619	223.06
808.798	188.24
808.977	255.83
809.156	280.4
809.336	206.67
809.515	272.21
809.694	157.52
809.873	206.67
810.052	272.21
810.231	218.96
810.411	272.21
810.59	212.82
810.769	210.77
810.948	192.34
811.127	153.43
811.306	182.1
811.485	280.4
811.664	223.06
811.843	159.57
812.022	182.1
812.201	120.66
812.38	206.67
812.559	186.19
812.737	231.25
812.916	192.34
813.095	175.95
813.274	239.44
813.453	192.34
813.632	190.29
813.811	282.45
813.989	83.8
814.168	223.06
814.347	184.15
814.526	194.39
814.704	120.66
814.883	235.35
815.062	182.1
815.24	261.97
815.419	173.91
815.598	186.19
815.776	141.14
815.955	190.29
816.133	87.89
816.312	184.15
816.49	108.37
816.669	175.95
816.847	214.87
817.026	223.06
817.204	137.04
817.383	149.33
817.561	139.09
817.74	126.8
817.918	124.76
818.097	167.76
818.275	120.66
818.453	223.06
818.632	128.85
818.81	135
818.988	159.57
819.167	91.99
819.345	128.85
819.523	190.29
819.701	200.53
819.879	126.8
820.058	85.84
820.236	198.48
820.414	171.86
820.592	157.52
820.77	130.9
820.948	106.32
821.127	157.52
821.305	83.8
821.483	159.57
821.661	227.15
821.839	110.42
822.017	190.29
822.195	130.9
822.373	124.76
822.551	126.8
822.729	147.28
822.907	157.52
823.085	173.91
823.262	141.14
823.44	165.71
823.618	173.91
823.796	192.34
823.974	132.95
824.152	100.18
824.329	145.24
824.507	100.18
824.685	184.15
824.863	143.19
825.04	143.19
825.218	175.95
825.396	153.43
825.574	91.99
825.751	32.6
825.929	153.43
826.107	53.08
826.284	153.43
826.462	132.95
826.639	141.14
826.817	77.65
826.994	126.8
827.172	75.6
827.349	149.33
827.527	108.37
827.704	157.52
827.882	141.14
828.059	132.95
828.237	108.37
828.414	169.81
828.591	63.32
828.769	132.95
828.946	98.13
829.124	227.15
829.301	169.81
829.478	159.57
829.655	132.95
829.833	126.8
830.01	89.94
830.187	73.56
830.364	108.37
830.542	157.52
830.719	141.14
830.896	61.27
831.073	98.13
831.25	114.52
831.427	100.18
831.604	96.08
831.782	79.7
831.959	132.95
832.136	94.04
832.313	96.08
832.49	100.18
832.667	75.6
832.844	149.33
833.021	145.24
833.198	100.18
833.374	102.23
833.551	141.14
833.728	44.88
833.905	190.29
834.082	46.93
834.259	149.33
834.436	120.66
834.612	51.03
834.789	102.23
834.966	59.22
835.143	98.13
835.319	79.7
835.496	157.52
835.673	81.75
835.85	94.04
836.026	100.18
836.203	137.04
836.38	59.22
836.556	55.12
836.733	91.99
836.909	178
837.086	42.84
837.262	77.65
837.439	96.08
837.616	71.51
837.792	122.71
837.968	141.14
838.145	30.55
838.321	104.28
838.498	98.13
838.674	143.19
838.851	61.27
839.027	71.51
839.203	-22.7
839.38	100.18
839.556	116.56
839.732	94.04
839.909	89.94
840.085	120.66
840.261	55.12
840.437	59.22
840.614	77.65
840.79	157.52
840.966	46.93
841.142	110.42
841.318	34.64
841.494	124.76
841.671	128.85
841.847	100.18
842.023	-6.31
842.199	104.28
842.375	81.75
842.551	59.22
842.727	30.55
842.903	161.62
843.079	85.84
843.255	137.04
843.431	26.45
843.607	63.32
843.783	10.07
843.959	108.37
844.134	96.08
844.31	161.62
844.486	53.08
844.662	34.64
844.838	55.12
845.013	28.5
845.189	110.42
845.365	112.47
845.541	36.69
845.716	118.61
845.892	5.97
846.068	38.74
846.244	18.26
846.419	85.84
846.595	34.64
846.77	51.03
846.946	83.8
847.122	63.32
847.297	26.45
847.473	67.41
847.648	18.26
847.824	118.61
847.999	-12.46
848.175	112.47
848.35	-14.51
848.526	110.42
848.701	110.42
848.876	73.56
849.052	18.26
849.227	73.56
849.403	24.4
849.578	89.94
849.753	-0.17
849.929	71.51
850.104	151.38
850.279	128.85
850.454	59.22
850.63	53.08
850.805	46.93
850.98	102.23
851.155	96.08
851.33	77.65
851.505	51.03
851.681	149.33
851.856	22.36
852.031	87.89
852.206	55.12
852.381	-10.41
852.556	116.56
852.731	112.47
852.906	96.08
853.081	141.14
853.256	51.03
853.431	71.51
853.606	59.22
853.781	57.17
853.956	61.27
854.131	145.24
854.305	30.55
854.48	94.04
854.655	81.75
854.83	75.6
855.005	71.51
855.18	67.41
855.354	14.17
855.529	114.52
855.704	75.6
855.879	147.28
856.053	3.93
856.228	112.47
856.403	55.12
856.577	5.97
856.752	87.89
856.926	57.17
857.101	34.64
857.276	51.03
857.45	79.7
857.625	71.51
857.799	67.41
857.974	42.84
858.148	-34.99
858.323	51.03
858.497	26.45
858.672	122.71
858.846	108.37
859.02	55.12
859.195	1.88
859.369	34.64
859.543	12.12
859.718	1.88
859.892	59.22
860.066	38.74
860.241	22.36
860.415	18.26
860.589	53.08
860.763	26.45
860.938	-10.41
861.112	100.18
861.286	34.64
861.46	87.89
861.634	51.03
861.808	65.36
861.982	18.26
862.157	32.6
862.331	18.26
862.505	12.12
862.679	-30.89
862.853	51.03
863.027	26.45
863.201	155.47
863.375	61.27
863.549	87.89
863.722	42.84
863.896	71.51
864.07	16.21
864.244	3.93
864.418	36.69
864.592	71.51
864.766	87.89
864.939	53.08
865.113	-2.22
865.287	87.89
865.461	10.07
865.634	26.45
865.808	44.88
865.982	67.41
866.156	3.93
866.329	42.84
866.503	-6.31
866.676	116.56
866.85	96.08
867.024	22.36
867.197	69.46
867.371	85.84
867.544	12.12
867.718	20.31
867.891	75.6
868.065	-39.08
868.238	36.69
868.412	59.22
868.585	-12.46
868.759	18.26
868.932	38.74
869.105	51.03
869.279	-6.31
869.452	46.93
869.625	104.28
869.799	34.64
869.972	59.22
870.145	-26.79
870.319	30.55
870.492	-20.65
870.665	26.45
870.838	5.97
871.011	-8.36
871.185	-4.27
871.358	-55.47
871.531	57.17
871.704	-37.03
871.877	46.93
872.05	14.17
872.223	-14.51
872.396	-18.6
872.569	-41.13
872.742	-24.75
872.915	59.22
873.088	26.45
873.261	-67.75
873.434	34.64
873.607	-22.7
873.78	53.08
873.953	34.64
874.126	20.31
874.299	12.12
874.471	-8.36
874.644	-6.31
874.817	83.8
874.99	79.7
875.163	22.36
875.335	12.12
875.508	-4.27
875.681	77.65
875.853	75.6
876.026	-2.22
876.199	126.8
876.371	-4.27
876.544	42.84
876.717	83.8
876.889	-6.31
877.062	38.74
877.234	38.74
877.407	-14.51
877.579	26.45
877.752	44.88
877.924	-4.27
878.097	128.85
878.269	18.26
878.442	10.07
878.614	24.4
878.786	5.97
878.959	79.7
879.131	-28.84
879.303	12.12
879.476	36.69
879.648	-4.27
879.82	36.69
879.993	20.31
880.165	-6.31
880.337	34.64
880.509	38.74
880.681	-0.17
880.854	55.12
881.026	44.88
881.198	110.42
881.37	65.36
881.542	-18.6
881.714	44.88
881.886	83.8
882.058	96.08
882.23	51.03
882.402	61.27
882.574	61.27
882.746	59.22
882.918	30.55
883.09	51.03
883.262	46.93
883.434	36.69
883.606	18.26
883.778	-18.6
883.95	42.84
884.122	75.6
884.293	-4.27
884.465	16.21
884.637	59.22
884.809	59.22
884.98	-88.23
885.152	89.94
885.324	98.13
885.496	-2.22
885.667	-10.41
885.839	-6.31
886.011	75.6
886.182	30.55
886.354	63.32
886.525	22.36
886.697	91.99
886.869	-28.84
887.04	-22.7
887.212	1.88
887.383	91.99
887.555	5.97
887.726	-22.7
887.897	12.12
888.069	40.79
888.24	30.55
888.412	-39.08
888.583	36.69
888.754	22.36
888.926	-14.51
889.097	-30.89
889.268	30.55
889.44	63.32
889.611	26.45
889.782	10.07
889.953	24.4
890.125	87.89
890.296	-6.31
890.467	-2.22
890.638	26.45
890.809	42.84
890.98	42.84
891.151	61.27
891.323	85.84
891.494	128.85
891.665	-69.8
891.836	10.07
892.007	10.07
892.178	65.36
892.349	-18.6
892.52	-32.94
892.691	28.5
892.862	77.65
893.032	-20.65
893.203	-4.27
893.374	34.64
893.545	79.7
893.716	-45.23
893.887	20.31
894.057	32.6
894.228	67.41
894.399	14.17
894.57	38.74
894.74	10.07
894.911	22.36
895.082	26.45
895.253	-86.19
895.423	5.97
895.594	40.79
895.764	53.08
895.935	-26.79
896.106	14.17
896.276	83.8
896.447	-53.42
896.617	77.65
896.788	-20.65
896.958	-45.23
897.129	22.36
897.299	-28.84
897.47	34.64
897.64	26.45
897.81	36.69
897.981	42.84
898.151	-67.75
898.322	12.12
898.492	-26.79
898.662	1.88
898.832	-20.65
899.003	55.12
899.173	69.46
899.343	-10.41
899.513	-26.79
