Data from USB4F104151__181__14-32-50-908.txt Node

Date: Thu Mar 13 14:32:50 EDT 2025
User: louis
Spectrometer: USB4F10415
Trigger mode: 4
Integration Time (sec): 2.500000E-2
Scans to average: 1
Electric dark correction enabled: true
Nonlinearity correction enabled: false
Boxcar width: 0
XAxis mode: Wavelengths
Number of Pixels in Spectrum: 3648
>>>>>Begin Spectral Data<<<<<
178.204	-54.61
178.424	-54.61
178.644	-54.61
178.864	-161.11
179.084	-95.57
179.304	74.41
179.524	-1.37
179.744	33.45
179.964	-32.08
180.184	-36.18
180.404	-17.75
180.624	-44.37
180.844	-9.56
181.064	-23.89
181.283	31.4
181.503	43.69
181.723	-17.75
181.943	-68.95
182.163	80.55
182.383	15.02
182.602	55.98
182.822	84.65
183.042	90.79
183.262	90.79
183.482	55.98
183.701	-32.08
183.921	10.92
184.141	-15.7
184.361	31.4
184.58	80.55
184.8	47.79
185.02	-7.51
185.239	45.74
185.459	6.83
185.679	101.03
185.898	15.02
186.118	8.87
186.338	37.55
186.557	-19.8
186.777	23.21
186.997	62.12
187.216	6.83
187.436	33.45
187.655	51.88
187.875	55.98
188.095	-15.7
188.314	37.55
188.534	27.31
188.753	49.83
188.973	76.46
189.192	60.07
189.412	-30.04
189.631	17.07
189.851	-5.46
190.07	62.12
190.29	0.68
190.509	-50.52
190.729	94.89
190.948	31.4
191.168	148.14
191.387	47.79
191.607	-9.56
191.826	49.83
192.045	137.9
192.265	23.21
192.484	10.92
192.704	29.35
192.923	-5.46
193.142	33.45
193.362	6.83
193.581	64.17
193.8	88.75
194.02	47.79
194.239	25.26
194.458	72.36
194.678	39.59
194.897	6.83
195.116	55.98
195.335	80.55
195.555	37.55
195.774	45.74
195.993	-7.51
196.212	66.22
196.432	-1.37
196.651	6.83
196.87	-30.04
197.089	129.7
197.308	23.21
197.528	80.55
197.747	6.83
197.966	-11.61
198.185	96.94
198.404	23.21
198.623	43.69
198.842	60.07
199.062	47.79
199.281	131.75
199.5	66.22
199.719	31.4
199.938	41.64
200.157	-11.61
200.376	10.92
200.595	58.03
200.814	-13.65
201.033	0.68
201.252	129.7
201.471	19.11
201.69	49.83
201.909	49.83
202.128	43.69
202.347	82.6
202.566	-19.8
202.785	35.5
203.004	25.26
203.223	98.99
203.442	31.4
203.661	-48.47
203.879	66.22
204.098	0.68
204.317	-42.32
204.536	15.02
204.755	-34.13
204.974	41.64
205.193	-17.75
205.411	64.17
205.63	107.18
205.849	60.07
206.068	4.78
206.287	29.35
206.505	15.02
206.724	33.45
206.943	47.79
207.162	0.68
207.381	72.36
207.599	29.35
207.818	-15.7
208.037	23.21
208.255	-17.75
208.474	-38.23
208.693	15.02
208.911	80.55
209.13	55.98
209.349	51.88
209.567	-5.46
209.786	80.55
210.005	78.51
210.223	43.69
210.442	6.83
210.661	-5.46
210.879	-7.51
211.098	25.26
211.316	68.27
211.535	43.69
211.753	64.17
211.972	33.45
212.191	15.02
212.409	-32.08
212.628	72.36
212.846	17.07
213.065	64.17
213.283	25.26
213.502	64.17
213.72	68.27
213.938	47.79
214.157	10.92
214.375	-11.61
214.594	41.64
214.812	66.22
215.031	39.59
215.249	10.92
215.467	-15.7
215.686	-38.23
215.904	6.83
216.122	6.83
216.341	164.52
216.559	-1.37
216.778	58.03
216.996	55.98
217.214	64.17
217.432	41.64
217.651	-17.75
217.869	-5.46
218.087	-52.56
218.306	25.26
218.524	23.21
218.742	15.02
218.96	88.75
219.179	35.5
219.397	19.11
219.615	49.83
219.833	66.22
220.051	-71
220.27	8.87
220.488	60.07
220.706	25.26
220.924	17.07
221.142	68.27
221.36	88.75
221.578	15.02
221.796	-11.61
222.015	23.21
222.233	-15.7
222.451	98.99
222.669	-38.23
222.887	53.93
223.105	12.97
223.323	72.36
223.541	-15.7
223.759	41.64
223.977	55.98
224.195	70.31
224.413	115.37
224.631	51.88
224.849	51.88
225.067	111.27
225.285	10.92
225.503	6.83
225.721	-79.19
225.939	0.68
226.157	90.79
226.375	105.13
226.592	25.26
226.81	96.94
227.028	35.5
227.246	17.07
227.464	-13.65
227.682	41.64
227.9	49.83
228.117	51.88
228.335	39.59
228.553	-1.37
228.771	25.26
228.989	92.84
229.206	64.17
229.424	-34.13
229.642	6.83
229.86	76.46
230.077	8.87
230.295	39.59
230.513	41.64
230.731	23.21
230.948	78.51
231.166	125.61
231.384	-21.85
231.601	23.21
231.819	35.5
232.037	10.92
232.254	-42.32
232.472	80.55
232.689	2.73
232.907	68.27
233.125	58.03
233.342	76.46
233.56	76.46
233.777	60.07
233.995	-38.23
234.213	23.21
234.43	-13.65
234.648	10.92
234.865	55.98
235.083	80.55
235.3	51.88
235.518	19.11
235.735	101.03
235.953	-25.94
236.17	-9.56
236.388	-36.18
236.605	-13.65
236.822	92.84
237.04	39.59
237.257	31.4
237.475	15.02
237.692	-34.13
237.909	117.42
238.127	15.02
238.344	55.98
238.562	64.17
238.779	-56.66
238.996	19.11
239.214	35.5
239.431	64.17
239.648	15.02
239.865	47.79
240.083	64.17
240.3	60.07
240.517	10.92
240.735	31.4
240.952	27.31
241.169	31.4
241.386	-3.41
241.603	23.21
241.821	12.97
242.038	148.14
242.255	55.98
242.472	-64.85
242.689	21.16
242.907	76.46
243.124	47.79
243.341	39.59
243.558	-15.7
243.775	47.79
243.992	35.5
244.209	39.59
244.426	17.07
244.643	-38.23
244.86	31.4
245.078	6.83
245.295	23.21
245.512	-32.08
245.729	64.17
245.946	10.92
246.163	-15.7
246.38	47.79
246.597	-13.65
246.814	0.68
247.031	35.5
247.248	19.11
247.464	55.98
247.681	-25.94
247.898	60.07
248.115	15.02
248.332	-73.04
248.549	74.41
248.766	55.98
248.983	-17.75
249.2	66.22
249.417	15.02
249.633	-23.89
249.85	64.17
250.067	-13.65
250.284	-1.37
250.501	19.11
250.717	19.11
250.934	39.59
251.151	23.21
251.368	-30.04
251.585	80.55
251.801	-7.51
252.018	45.74
252.235	25.26
252.451	-15.7
252.668	39.59
252.885	25.26
253.102	10.92
253.318	-34.13
253.535	15.02
253.752	-50.52
253.968	6.83
254.185	19.11
254.401	55.98
254.618	39.59
254.835	47.79
255.051	96.94
255.268	-21.85
255.484	55.98
255.701	51.88
255.917	6.83
256.134	-52.56
256.351	39.59
256.567	51.88
256.784	0.68
257	-21.85
257.217	80.55
257.433	76.46
257.65	23.21
257.866	31.4
258.082	47.79
258.299	-9.56
258.515	39.59
258.732	15.02
258.948	64.17
259.165	39.59
259.381	2.73
259.597	47.79
259.814	10.92
260.03	31.4
260.246	17.07
260.463	10.92
260.679	88.75
260.895	0.68
261.112	66.22
261.328	53.93
261.544	12.97
261.761	127.66
261.977	43.69
262.193	82.6
262.409	49.83
262.626	6.83
262.842	123.56
263.058	-66.9
263.274	80.55
263.49	60.07
263.707	47.79
263.923	47.79
264.139	-46.42
264.355	55.98
264.571	74.41
264.787	121.51
265.004	41.64
265.22	-1.37
265.436	29.35
265.652	-1.37
265.868	72.36
266.084	-42.32
266.3	8.87
266.516	-3.41
266.732	25.26
266.948	2.73
267.164	6.83
267.38	27.31
267.596	121.51
267.812	64.17
268.028	94.89
268.244	-1.37
268.46	39.59
268.676	2.73
268.892	-23.89
269.108	17.07
269.324	15.02
269.54	53.93
269.756	21.16
269.972	-32.08
270.188	-23.89
270.403	-9.56
270.619	6.83
270.835	70.31
271.051	96.94
271.267	39.59
271.483	-56.66
271.698	55.98
271.914	35.5
272.13	55.98
272.346	19.11
272.562	64.17
272.777	84.65
272.993	90.79
273.209	80.55
273.425	33.45
273.64	49.83
273.856	55.98
274.072	27.31
274.287	43.69
274.503	31.4
274.719	113.32
274.934	12.97
275.15	-50.52
275.366	64.17
275.581	23.21
275.797	25.26
276.012	6.83
276.228	-9.56
276.444	-1.37
276.659	6.83
276.875	-15.7
277.09	-21.85
277.306	12.97
277.521	74.41
277.737	92.84
277.952	94.89
278.168	47.79
278.383	31.4
278.599	35.5
278.814	23.21
279.03	6.83
279.245	17.07
279.461	64.17
279.676	117.42
279.892	-5.46
280.107	-30.04
280.322	23.21
280.538	72.36
280.753	35.5
280.969	-13.65
281.184	113.32
281.399	78.51
281.615	58.03
281.83	88.75
282.045	-116.05
282.26	0.68
282.476	33.45
282.691	-42.32
282.906	31.4
283.122	41.64
283.337	-38.23
283.552	43.69
283.767	23.21
283.983	39.59
284.198	19.11
284.413	68.27
284.628	-1.37
284.843	47.79
285.058	23.21
285.274	41.64
285.489	33.45
285.704	55.98
285.919	-3.41
286.134	-5.46
286.349	6.83
286.564	98.99
286.779	31.4
286.995	35.5
287.21	-5.46
287.425	96.94
287.64	-1.37
287.855	39.59
288.07	64.17
288.285	49.83
288.5	47.79
288.715	58.03
288.93	109.23
289.145	-15.7
289.36	58.03
289.575	25.26
289.79	15.02
290.004	62.12
290.219	33.45
290.434	47.79
290.649	-1.37
290.864	-21.85
291.079	-1.37
291.294	35.5
291.509	-32.08
291.724	8.87
291.938	88.75
292.153	43.69
292.368	82.6
292.583	76.46
292.798	92.84
293.012	17.07
293.227	64.17
293.442	-5.46
293.657	127.66
293.871	74.41
294.086	6.83
294.301	76.46
294.516	72.36
294.73	6.83
294.945	-1.37
295.16	-5.46
295.374	47.79
295.589	10.92
295.804	12.97
296.018	35.5
296.233	64.17
296.447	12.97
296.662	31.4
296.877	33.45
297.091	88.75
297.306	55.98
297.52	15.02
297.735	-15.7
297.949	43.69
298.164	-23.89
298.378	72.36
298.593	2.73
298.807	15.02
299.022	33.45
299.236	-1.37
299.451	2.73
299.665	-21.85
299.88	-17.75
300.094	-11.61
300.309	8.87
300.523	27.31
300.737	80.55
300.952	0.68
301.166	43.69
301.381	51.88
301.595	23.21
301.809	53.93
302.024	-66.9
302.238	27.31
302.452	31.4
302.667	70.31
302.881	98.99
303.095	49.83
303.309	105.13
303.524	29.35
303.738	17.07
303.952	12.97
304.166	-42.32
304.381	-19.8
304.595	96.94
304.809	-68.95
305.023	66.22
305.237	-3.41
305.452	96.94
305.666	43.69
305.88	39.59
306.094	27.31
306.308	98.99
306.522	39.59
306.736	88.75
306.95	49.83
307.164	88.75
307.379	35.5
307.593	64.17
307.807	90.79
308.021	12.97
308.235	74.41
308.449	-42.32
308.663	-56.66
308.877	84.65
309.091	-9.56
309.305	-3.41
309.519	-5.46
309.733	74.41
309.947	19.11
310.161	64.17
310.374	-13.65
310.588	74.41
310.802	-17.75
311.016	49.83
311.23	45.74
311.444	41.64
311.658	47.79
311.872	84.65
312.085	123.56
312.299	58.03
312.513	8.87
312.727	23.21
312.941	29.35
313.154	70.31
313.368	58.03
313.582	25.26
313.796	6.83
314.009	0.68
314.223	27.31
314.437	49.83
314.651	55.98
314.864	4.78
315.078	43.69
315.292	39.59
315.505	-5.46
315.719	27.31
315.933	31.4
316.146	8.87
316.36	10.92
316.573	84.65
316.787	55.98
317.001	27.31
317.214	64.17
317.428	-27.99
317.641	21.16
317.855	-5.46
318.068	80.55
318.282	45.74
318.495	101.03
318.709	49.83
318.922	31.4
319.136	162.47
319.349	86.7
319.563	33.45
319.776	23.21
319.99	39.59
320.203	76.46
320.417	6.83
320.63	0.68
320.843	76.46
321.057	-30.04
321.27	17.07
321.483	-23.89
321.697	105.13
321.91	66.22
322.124	-11.61
322.337	72.36
322.55	64.17
322.763	47.79
322.977	-17.75
323.19	10.92
323.403	45.74
323.617	68.27
323.83	51.88
324.043	-3.41
324.256	33.45
324.469	58.03
324.683	105.13
324.896	15.02
325.109	23.21
325.322	4.78
325.535	47.79
325.748	60.07
325.962	92.84
326.175	-36.18
326.388	74.41
326.601	-1.37
326.814	2.73
327.027	27.31
327.24	133.8
327.453	21.16
327.666	88.75
327.879	131.75
328.092	-34.13
328.305	49.83
328.518	55.98
328.731	101.03
328.944	72.36
329.157	39.59
329.37	23.21
329.583	82.6
329.796	58.03
330.009	84.65
330.222	68.27
330.435	137.9
330.648	119.46
330.861	41.64
331.073	105.13
331.286	117.42
331.499	33.45
331.712	2.73
331.925	82.6
332.138	2.73
332.35	47.79
332.563	15.02
332.776	53.93
332.989	-9.56
333.202	39.59
333.414	-3.41
333.627	17.07
333.84	23.21
334.053	43.69
334.265	-1.37
334.478	60.07
334.691	6.83
334.903	76.46
335.116	35.5
335.329	45.74
335.541	58.03
335.754	92.84
335.966	-13.65
336.179	64.17
336.392	60.07
336.604	64.17
336.817	107.18
337.029	62.12
337.242	39.59
337.454	127.66
337.667	31.4
337.88	-15.7
338.092	31.4
338.305	23.21
338.517	60.07
338.729	55.98
338.942	98.99
339.154	-30.04
339.367	31.4
339.579	105.13
339.792	12.97
340.004	51.88
340.217	51.88
340.429	76.46
340.641	25.26
340.854	-11.61
341.066	-30.04
341.278	129.7
341.491	133.8
341.703	23.21
341.915	47.79
342.128	-9.56
342.34	68.27
342.552	113.32
342.764	60.07
342.977	74.41
343.189	41.64
343.401	-42.32
343.613	10.92
343.826	41.64
344.038	-7.51
344.25	-25.94
344.462	10.92
344.674	47.79
344.886	0.68
345.099	47.79
345.311	152.23
345.523	-7.51
345.735	-5.46
345.947	84.65
346.159	29.35
346.371	8.87
346.583	10.92
346.795	115.37
347.007	33.45
347.219	113.32
347.431	58.03
347.643	72.36
347.855	-1.37
348.067	74.41
348.279	-52.56
348.491	15.02
348.703	92.84
348.915	121.51
349.127	4.78
349.339	47.79
349.551	-25.94
349.763	66.22
349.975	6.83
350.187	74.41
350.399	68.27
350.61	51.88
350.822	96.94
351.034	84.65
351.246	-25.94
351.458	47.79
351.669	45.74
351.881	-1.37
352.093	15.02
352.305	-9.56
352.517	58.03
352.728	82.6
352.94	-21.85
353.152	72.36
353.363	33.45
353.575	82.6
353.787	98.99
353.999	96.94
354.21	133.8
354.422	-54.61
354.633	15.02
354.845	72.36
355.057	15.02
355.268	27.31
355.48	88.75
355.692	-27.99
355.903	10.92
356.115	98.99
356.326	-25.94
356.538	55.98
356.749	6.83
356.961	105.13
357.172	-19.8
357.384	15.02
357.595	88.75
357.807	68.27
358.018	60.07
358.23	55.98
358.441	72.36
358.653	141.99
358.864	60.07
359.075	19.11
359.287	82.6
359.498	68.27
359.709	96.94
359.921	49.83
360.132	33.45
360.344	15.02
360.555	-30.04
360.766	68.27
360.977	53.93
361.189	80.55
361.4	47.79
361.611	10.92
361.823	-7.51
362.034	129.7
362.245	-13.65
362.456	90.79
362.667	10.92
362.879	8.87
363.09	31.4
363.301	74.41
363.512	72.36
363.723	-13.65
363.935	23.21
364.146	15.02
364.357	31.4
364.568	60.07
364.779	80.55
364.99	60.07
365.201	37.55
365.412	6.83
365.623	35.5
365.834	94.89
366.045	55.98
366.256	103.08
366.467	47.79
366.678	60.07
366.889	27.31
367.1	96.94
367.311	47.79
367.522	25.26
367.733	105.13
367.944	60.07
368.155	39.59
368.366	-9.56
368.577	51.88
368.788	133.8
368.999	41.64
369.209	58.03
369.42	129.7
369.631	141.99
369.842	15.02
370.053	109.23
370.264	41.64
370.474	-13.65
370.685	90.79
370.896	10.92
371.107	82.6
371.317	98.99
371.528	58.03
371.739	117.42
371.95	84.65
372.16	-34.13
372.371	21.16
372.582	43.69
372.792	88.75
373.003	80.55
373.214	27.31
373.424	-21.85
373.635	-7.51
373.846	98.99
374.056	23.21
374.267	21.16
374.477	60.07
374.688	6.83
374.898	33.45
375.109	109.23
375.319	-21.85
375.53	60.07
375.74	47.79
375.951	84.65
376.161	27.31
376.372	62.12
376.582	-50.52
376.793	80.55
377.003	117.42
377.214	15.02
377.424	43.69
377.635	84.65
377.845	47.79
378.055	148.14
378.266	17.07
378.476	27.31
378.686	76.46
378.897	58.03
379.107	84.65
379.317	25.26
379.528	31.4
379.738	39.59
379.948	4.78
380.158	90.79
380.369	33.45
380.579	68.27
380.789	-23.89
380.999	49.83
381.21	53.93
381.42	94.89
381.63	21.16
381.84	66.22
382.05	55.98
382.261	92.84
382.471	-25.94
382.681	25.26
382.891	64.17
383.101	101.03
383.311	-21.85
383.521	27.31
383.731	-5.46
383.941	74.41
384.151	23.21
384.361	35.5
384.571	105.13
384.781	72.36
384.991	90.79
385.201	31.4
385.411	82.6
385.621	90.79
385.831	55.98
386.041	96.94
386.251	31.4
386.461	23.21
386.671	66.22
386.881	39.59
387.091	66.22
387.301	35.5
387.511	49.83
387.72	43.69
387.93	58.03
388.14	82.6
388.35	60.07
388.56	72.36
388.769	47.79
388.979	94.89
389.189	4.78
389.399	68.27
389.609	74.41
389.818	131.75
390.028	23.21
390.238	39.59
390.447	23.21
390.657	47.79
390.867	10.92
391.076	33.45
391.286	-1.37
391.496	117.42
391.705	31.4
391.915	107.18
392.125	31.4
392.334	121.51
392.544	129.7
392.753	74.41
392.963	55.98
393.172	41.64
393.382	17.07
393.591	131.75
393.801	6.83
394.01	146.09
394.22	51.88
394.429	156.33
394.639	123.56
394.848	131.75
395.058	90.79
395.267	133.8
395.477	101.03
395.686	70.31
395.895	148.14
396.105	107.18
396.314	33.45
396.524	90.79
396.733	88.75
396.942	31.4
397.152	139.94
397.361	113.32
397.57	105.13
397.78	25.26
397.989	105.13
398.198	252.58
398.407	78.51
398.617	115.37
398.826	55.98
399.035	109.23
399.244	141.99
399.453	164.52
399.663	141.99
399.872	205.48
400.081	49.83
400.29	131.75
400.499	72.36
400.708	94.89
400.917	76.46
401.127	158.38
401.336	82.6
401.545	129.7
401.754	178.86
401.963	129.7
402.172	88.75
402.381	129.7
402.59	123.56
402.799	123.56
403.008	137.9
403.217	88.75
403.426	117.42
403.635	55.98
403.844	156.33
404.053	154.28
404.262	119.46
404.471	174.76
404.68	150.18
404.888	162.47
405.097	150.18
405.306	205.48
405.515	162.47
405.724	127.66
405.933	129.7
406.142	180.9
406.35	105.13
406.559	88.75
406.768	137.9
406.977	180.9
407.185	195.24
407.394	244.39
407.603	199.34
407.812	273.06
408.02	291.49
408.229	236.2
408.438	193.19
408.646	191.14
408.855	309.93
409.064	244.39
409.272	219.82
409.481	344.74
409.69	252.58
409.898	256.68
410.107	301.73
410.315	348.84
410.524	291.49
410.733	400.04
410.941	383.65
411.15	303.78
411.358	271.01
411.567	346.79
411.775	416.42
411.984	416.42
412.192	494.24
412.401	410.28
412.609	522.91
412.818	459.43
413.026	535.2
413.234	494.24
413.443	584.35
413.651	441
413.86	572.07
414.068	641.7
414.276	678.56
414.485	615.07
414.693	610.98
414.901	795.29
415.11	682.66
415.318	744.1
415.526	785.05
415.734	832.16
415.943	756.38
416.151	852.64
416.359	830.11
416.567	778.91
416.776	934.56
416.984	989.85
417.192	987.8
417.4	1090.2
417.608	948.89
417.817	1065.63
418.025	1139.35
418.233	1100.44
418.441	1122.97
418.649	1227.42
418.857	1321.62
419.065	1335.96
419.273	1333.91
419.481	1415.83
419.689	1378.97
419.897	1542.8
420.105	1591.95
420.313	1571.47
420.521	1684.11
420.729	1651.35
420.937	1661.59
421.145	1776.27
421.353	1866.38
421.561	2071.18
421.769	2022.03
421.977	2114.19
422.185	2054.8
422.393	2214.54
422.601	2310.79
422.809	2390.66
423.017	2341.51
423.224	2441.86
423.432	2595.46
423.64	2589.32
423.848	2835.07
424.056	2558.6
424.263	2804.35
424.471	2976.38
424.679	2931.33
424.887	3259
425.094	3271.29
425.302	3205.75
425.51	3418.74
425.718	3496.57
425.925	3480.18
426.133	3549.81
426.341	3889.78
426.548	3938.93
426.756	4151.92
426.964	3971.69
427.171	4295.27
427.379	4383.34
427.586	4319.85
427.794	4610.66
428.001	4809.31
428.209	4924
428.417	4889.18
428.624	5243.48
428.832	5298.78
429.039	5280.35
429.247	5216.86
429.454	5669.46
429.662	6101.58
429.869	5610.07
430.076	6203.98
430.284	5923.41
430.491	5954.13
430.699	6425.16
430.906	6584.9
431.114	6699.59
431.321	6820.42
431.528	6818.37
431.736	7412.28
431.943	7684.66
432.15	7422.52
432.358	7619.13
432.565	8002.1
432.772	8010.29
432.979	8405.55
433.187	8557.1
433.394	8675.88
433.601	9333.28
433.808	9159.2
434.016	9232.93
434.223	9484.83
434.43	9927.19
434.637	9875.99
434.844	10680.84
435.052	10500.62
435.259	10473.99
435.466	10828.29
435.673	10605.06
435.88	11145.73
436.087	11973.11
436.294	11674.1
436.501	11606.52
436.708	11778.55
436.915	12233.2
437.122	12700.14
437.329	12980.71
437.537	12863.97
437.743	13205.99
437.95	13242.85
438.157	13941.21
438.364	14498.25
438.571	14193.11
438.778	14422.48
438.985	15847.86
439.192	15043.01
439.399	15595.96
439.606	15348.16
439.813	16394.67
440.02	17152.42
440.227	16538.03
440.433	16529.84
440.64	17170.85
440.847	16984.49
441.054	17535.39
441.261	18479.5
441.467	18325.91
441.674	18712.97
441.881	19282.31
442.088	19202.44
442.294	19208.58
442.501	19540.35
442.708	20109.69
442.914	20666.74
443.121	21549.41
443.328	21113.19
443.534	22610.26
443.741	22239.58
443.948	21600.61
444.154	23394.63
444.361	23034.19
444.568	23193.93
444.774	22931.79
444.981	23699.78
445.187	23851.33
445.394	25049.39
445.6	25035.05
445.807	27156.75
446.013	25899.3
446.22	26423.58
446.426	27584.77
446.633	27814.15
446.839	28709.11
447.046	27201.8
447.252	29016.3
447.459	29090.03
447.665	28700.92
447.871	30183.65
448.078	31578.31
448.284	29841.64
448.491	30677.21
448.697	31785.16
448.903	32237.76
449.11	32415.93
449.316	31836.36
449.522	32829.62
449.728	33491.12
449.935	33869.99
450.141	33820.84
450.347	34613.4
450.553	33562.79
450.76	33921.19
450.966	34900.12
451.172	34666.65
451.378	35549.32
451.584	34476.19
451.791	35702.92
451.997	35553.42
452.203	35768.46
452.409	36167.81
452.615	35723.4
452.821	34386.08
453.027	34044.07
453.233	35578
453.44	34087.07
453.646	34648.22
453.852	34930.84
454.058	35698.83
454.264	34273.44
454.47	35313.81
454.676	34078.88
454.882	35334.29
455.088	32458.94
455.294	32551.1
455.5	33196.21
455.705	33142.96
455.911	32268.48
456.117	31635.66
456.323	31275.21
456.529	29409.51
456.735	30605.53
456.941	29827.3
457.147	29520.1
457.352	28756.21
457.558	28168.44
457.764	28455.16
457.97	27754.76
458.176	27109.64
458.381	26976.53
458.587	25796.9
458.793	26102.04
458.999	24422.71
459.204	26161.44
459.41	25622.82
459.616	23845.18
459.821	23677.25
460.027	23722.3
460.233	23304.52
460.438	22436.18
460.644	21952.86
460.85	21219.69
461.055	21043.56
461.261	20769.13
461.466	19218.82
461.672	18719.12
461.878	19964.28
462.083	18727.31
462.289	18225.56
462.494	18282.9
462.7	17301.92
462.905	16925.1
463.111	17490.34
463.316	17486.24
463.522	17047.97
463.727	17310.11
463.932	17172.9
464.138	16769.45
464.343	16888.23
464.549	16380.34
464.754	16970.15
464.959	16642.48
465.165	16773.55
465.37	15968.69
465.575	15514.05
465.781	16472.5
465.986	16304.56
466.191	15727.03
466.397	15552.96
466.602	14664.14
466.807	15307.2
467.012	15210.95
467.218	15116.74
467.423	14838.22
467.628	15034.82
467.833	15577.53
468.038	15153.6
468.244	14469.58
468.449	15088.07
468.654	14862.79
468.859	14662.09
469.064	14518.73
469.269	14107.09
469.474	14250.45
469.679	14215.63
469.885	13844.95
470.09	14096.85
470.295	13890.01
470.5	13502.94
470.705	13795.8
470.91	13351.39
471.115	13408.73
471.32	13402.59
471.525	13318.62
471.73	13040.1
471.935	12993
472.139	12575.21
472.344	12610.03
472.549	12558.83
472.754	12745.19
472.959	12278.26
473.164	11936.24
473.369	11897.33
473.574	12245.49
473.778	12155.38
473.983	12145.14
474.188	11919.86
474.393	11624.95
474.598	11551.23
474.802	11258.37
475.007	11348.48
475.212	11389.44
475.417	10789.38
475.621	10826.25
475.826	10959.36
476.031	10605.06
476.235	10557.96
476.44	10598.92
476.645	10598.92
476.849	10433.04
477.054	10461.71
477.259	10160.66
477.463	10168.85
477.668	9812.5
477.872	10037.78
478.077	9984.53
478.282	9583.13
478.486	9681.43
478.691	9249.31
478.895	9665.05
479.1	9556.5
479.304	9509.4
479.509	9083.42
479.713	9347.61
479.918	9273.89
480.122	8927.78
480.326	9087.52
480.531	9087.52
480.735	9001.51
480.94	8872.48
481.144	9142.82
481.348	8675.88
481.553	9021.99
481.757	8686.12
481.961	8886.82
482.166	9026.08
482.37	8825.38
482.574	8772.13
482.778	8755.75
482.983	8923.68
483.187	8765.99
483.391	8935.97
483.595	8669.73
483.8	8581.67
484.004	8827.43
484.208	8935.97
484.412	8882.72
484.616	8976.93
484.821	8880.68
485.025	8555.05
485.229	8733.22
485.433	8647.21
485.637	8718.89
485.841	8774.18
486.045	8696.36
486.249	8667.69
486.453	8485.42
486.657	8753.7
486.861	8614.44
487.065	8530.47
487.269	8745.51
487.473	8624.68
487.677	8788.52
487.881	8866.34
488.085	8596.01
488.289	8626.73
488.493	8641.06
488.697	8778.28
488.901	8725.03
489.105	8700.45
489.309	8563.24
489.512	8839.72
489.716	9009.7
489.92	8690.21
490.124	8675.88
490.328	8901.15
490.531	8858.15
490.735	9019.94
490.939	8976.93
491.143	8790.56
491.346	8964.64
491.55	8954.4
491.754	9067.04
491.958	9015.84
492.161	8944.16
492.365	9009.7
492.569	9204.25
492.772	8874.53
492.976	9132.58
493.18	9112.1
493.383	9304.6
493.587	9370.14
493.79	9263.65
493.994	9329.18
494.197	9452.06
494.401	9372.19
494.605	9503.26
494.808	9581.08
495.012	9607.7
495.215	9521.69
495.419	9962
495.622	9603.61
495.825	9710.1
496.029	9957.91
496.232	10287.63
496.436	9943.57
496.639	10273.29
496.843	10041.87
497.046	10465.8
497.249	10465.8
497.453	10469.9
497.656	10732.04
497.859	10813.96
498.063	10869.25
498.266	10926.6
498.469	10992.13
498.673	11119.1
498.876	11135.49
499.079	11293.18
499.282	11192.83
499.485	11776.5
499.689	11508.22
499.892	11704.82
500.095	11647.48
500.298	12005.88
500.501	12024.31
500.705	12229.1
500.908	12485.1
501.111	12392.94
501.314	12499.44
501.517	12691.94
501.72	12913.13
501.923	12747.24
502.126	13238.75
502.329	13171.17
502.532	13320.67
502.735	13222.37
502.938	13887.96
503.141	13861.34
503.344	13787.61
503.547	14129.62
503.75	13892.05
503.953	14322.13
504.156	14461.39
504.359	14569.93
504.562	14758.35
504.765	15010.25
504.968	15006.15
505.17	15305.15
505.373	15122.88
505.576	15333.82
505.779	15477.18
505.982	15559.1
506.185	15937.98
506.387	16007.61
506.59	16196.02
506.793	16519.6
506.996	16320.95
507.198	16714.16
507.401	16724.4
507.604	16986.54
507.807	17269.16
508.009	17455.52
508.212	17684.89
508.415	18002.33
508.617	18194.84
508.82	18366.87
509.022	17992.09
509.225	18477.46
509.428	18684.3
509.63	18815.37
509.833	18733.45
510.035	19329.41
510.238	19382.66
510.44	19394.95
510.643	20054.39
510.845	19900.79
511.048	19900.79
511.25	20191.61
511.453	20107.64
511.655	21072.23
511.858	20762.99
512.06	20885.87
512.262	21021.03
512.465	21059.95
512.667	21379.43
512.87	21471.59
513.072	21606.75
513.274	22149.46
513.477	21973.34
513.679	22237.53
513.881	22679.89
514.084	22790.48
514.286	22540.63
514.488	22720.85
514.69	23605.57
514.893	23939.39
515.095	23777.6
515.297	24015.16
515.499	24187.19
515.701	24062.27
515.904	24586.55
516.106	24680.75
516.308	25020.72
516.51	24987.95
516.712	25598.24
516.914	25514.28
517.116	25874.72
517.318	25839.9
517.52	25954.59
517.722	25841.95
517.925	26542.36
518.127	26790.16
518.329	26456.34
518.531	26566.93
518.733	27232.52
518.935	27664.64
519.136	27052.3
519.338	27889.92
519.54	28059.9
519.742	28387.58
519.944	27861.25
520.146	28666.1
520.348	28766.45
520.55	28877.04
520.752	28748.02
520.954	29249.77
521.155	29167.85
521.357	29391.08
521.559	29913.31
521.761	30232.8
521.963	30001.38
522.164	30337.24
522.366	30140.64
522.568	30427.35
522.77	30429.4
522.971	30996.69
523.173	30529.75
523.375	30714.07
523.576	30957.78
523.778	30873.81
523.98	31576.26
524.181	31412.43
524.383	31357.13
524.584	31688.9
524.786	31887.56
524.988	31477.96
525.189	32055.49
525.391	31887.56
525.592	32022.72
525.794	32506.04
525.995	31914.18
526.197	32297.15
526.398	32288.96
526.6	32280.77
526.801	32514.23
527.003	32319.68
527.204	32415.93
527.406	32524.47
527.607	32725.18
527.808	32645.3
528.01	32219.33
528.211	32805.05
528.412	33302.7
528.614	32731.32
528.815	32551.1
529.016	33353.9
529.218	32942.26
529.419	33282.22
529.62	32682.17
529.822	32770.23
530.023	32624.82
530.224	32577.72
530.425	32860.34
530.626	32696.5
530.828	32653.5
531.029	33351.85
531.23	32553.15
531.431	33079.47
531.632	32987.32
531.833	33210.54
532.035	32823.48
532.236	32719.03
532.437	32964.79
532.638	32807.09
532.839	33034.42
533.04	32929.97
533.241	32544.95
533.442	33360.05
533.643	33175.73
533.844	32405.69
534.045	33009.84
534.246	32557.24
534.447	32508.09
534.648	32469.18
534.849	32612.54
535.05	32413.88
535.251	32647.35
535.451	32352.44
535.652	32565.43
535.853	32354.49
536.054	32757.94
536.255	32663.74
536.456	32325.82
536.657	32821.43
536.857	32387.26
537.058	32299.2
537.259	32426.17
537.46	32460.99
537.66	32067.78
537.861	32358.59
538.062	32118.98
538.263	32270.53
538.463	31815.88
538.664	32112.83
538.865	31979.71
539.065	32401.6
539.266	31660.23
539.466	32379.07
539.667	31850.69
539.868	32542.91
540.068	31838.4
540.269	31912.13
540.469	32092.35
540.67	32088.26
540.87	32123.07
541.071	31815.88
541.271	32020.67
541.472	32131.26
541.672	31760.58
541.873	31660.23
542.073	31631.56
542.274	32086.21
542.474	31795.4
542.675	31523.02
542.875	31975.62
543.075	31699.14
543.276	31441.1
543.476	31504.59
543.676	31654.09
543.877	31791.3
544.077	31600.84
544.277	31656.14
544.478	31733.96
544.678	31475.91
544.878	31752.39
545.078	31713.48
545.279	31224.01
545.479	31150.29
545.679	31819.97
545.879	31457.48
546.079	31791.3
546.28	31736.01
546.48	31377.61
546.68	31588.55
546.88	31510.73
547.08	31492.3
547.28	31451.34
547.48	31412.43
547.68	31279.31
547.88	31404.24
548.081	32069.83
548.281	31592.65
548.481	31635.66
548.681	31959.23
548.881	31422.67
549.081	31299.79
549.28	31054.03
549.48	31672.52
549.68	31441.1
549.88	32194.75
550.08	31281.36
550.28	31693
550.48	31537.35
550.68	31635.66
550.88	31160.53
551.08	31264.97
551.279	31398.09
551.479	31633.61
551.679	32049.35
551.879	31166.67
552.079	31652.04
552.278	31459.53
552.478	31676.62
552.678	31666.38
552.878	31770.82
553.077	31391.95
553.277	31582.41
553.477	31949
553.676	31805.64
553.876	31566.02
554.076	31453.39
554.275	31215.82
554.475	31215.82
554.674	31797.45
554.874	31652.04
555.074	31551.69
555.273	31920.32
555.473	31922.37
555.672	31443.15
555.872	31492.3
556.071	31797.45
556.271	31762.63
556.47	31602.89
556.67	31340.75
556.869	31758.53
557.068	31893.7
557.268	31465.67
557.467	31908.04
557.667	31566.02
557.866	31709.38
558.065	31633.61
558.265	31666.38
558.464	31350.99
558.663	31891.65
558.863	31539.4
559.062	32100.54
559.261	31531.21
559.461	32288.96
559.66	31793.35
559.859	31467.72
560.058	31197.39
560.258	31940.8
560.457	31078.61
560.656	31891.65
560.855	31437
561.054	32063.68
561.253	31365.32
561.453	31758.53
561.652	31621.32
561.851	31897.8
562.05	31424.72
562.249	31531.21
562.448	31674.57
562.647	31445.19
562.846	31754.44
563.045	31572.17
563.244	31232.21
563.443	31879.36
563.642	31246.54
563.841	31574.22
564.04	31586.5
564.239	31588.55
564.438	31207.63
564.637	31557.83
564.836	31432.91
565.035	31015.12
565.234	31594.7
565.432	30996.69
565.631	31162.58
565.83	31629.51
566.029	31170.77
566.228	30767.32
566.427	31185.1
566.625	30961.87
566.824	30775.51
567.023	30810.32
567.222	30425.31
567.42	31090.9
567.619	30587.1
567.818	30824.66
568.016	30783.7
568.215	31043.79
568.414	30505.18
568.612	30685.4
568.811	30341.34
569.01	30460.12
569.208	30318.81
569.407	30791.89
569.605	30464.22
569.804	30615.77
570.002	29872.35
570.201	30232.8
570.4	30187.74
570.598	29708.52
570.797	29927.65
570.995	29892.83
571.193	29802.72
571.392	30247.13
571.59	29602.02
571.789	29987.04
571.987	29640.93
572.186	29339.88
572.384	29565.16
572.582	29569.26
572.781	29462.76
572.979	29208.81
573.177	29438.19
573.376	29620.45
573.574	29133.04
573.772	29380.84
573.971	29090.03
574.169	28856.56
574.367	28983.54
574.565	29012.21
574.763	28625.14
574.962	28963.06
575.16	28629.24
575.358	28733.68
575.556	28147.97
575.754	28831.99
575.952	28373.24
576.151	28848.37
576.349	28000.51
576.547	28016.9
576.745	28041.47
576.943	28262.65
577.141	27779.33
577.339	27810.05
577.537	28066.05
577.735	28031.23
577.933	27797.76
578.131	27705.6
578.329	27799.81
578.527	27234.57
578.725	27728.13
578.923	27615.49
579.121	27216.14
579.319	27232.52
579.516	27408.65
579.714	27074.83
579.912	27408.65
580.11	27429.13
580.308	27152.65
580.506	27111.69
580.704	26597.65
580.901	26831.12
581.099	27263.24
581.297	26523.93
581.495	26540.31
581.692	26673.43
581.89	26237.21
582.088	26720.53
582.285	26351.9
582.483	26452.25
582.681	26208.54
582.878	26536.21
583.076	26005.79
583.274	26091.8
583.471	25762.08
583.669	26372.38
583.866	25876.77
584.064	25774.37
584.262	25495.85
584.459	26198.3
584.657	25829.66
584.854	25835.81
585.052	25323.82
585.249	25727.27
585.447	25598.24
585.644	25295.14
585.841	25428.26
586.039	25454.89
586.236	25043.24
586.434	24963.37
586.631	25213.23
586.828	25196.84
587.026	25086.25
587.223	25006.38
587.42	24727.86
587.618	25268.52
587.815	24891.69
588.012	24621.36
588.21	24621.36
588.407	25024.81
588.604	24711.47
588.801	24430.9
588.999	24230.2
589.196	24400.18
589.393	24168.76
589.59	24047.93
589.787	23966.01
589.984	24281.4
590.182	24181.05
590.379	24152.38
590.576	23818.56
590.773	23888.19
590.97	24000.83
591.167	24068.41
591.364	23390.53
591.561	23882.05
591.758	23599.43
591.955	23513.41
592.152	23685.44
592.349	23769.41
592.546	23765.31
592.743	23613.76
592.94	23249.22
593.137	23687.49
593.334	23384.39
593.531	23419.21
593.727	23441.73
593.924	23535.94
594.121	23365.96
594.318	23251.27
594.515	22901.07
594.712	23243.08
594.908	22903.12
595.105	23083.34
595.302	22946.12
595.499	23114.06
595.696	23030.09
595.892	23052.62
596.089	22956.36
596.286	22464.85
596.482	22651.22
596.679	22808.91
596.876	23093.58
597.072	23017.8
597.269	23169.35
597.466	22679.89
597.662	22391.12
597.859	22810.96
598.055	22581.59
598.252	22587.73
598.448	22511.96
598.645	22550.87
598.841	22258.01
599.038	22446.42
599.234	22452.56
599.431	22327.64
599.627	22272.34
599.824	22430.04
600.02	22344.02
600.217	22356.31
600.413	22372.69
600.609	22149.46
600.806	22016.35
601.002	22655.31
601.198	22028.63
601.395	22165.85
601.591	22376.79
601.787	22282.58
601.984	22376.79
602.18	22514
602.376	22346.07
602.572	22421.84
602.769	22204.76
602.965	22057.31
603.161	22315.35
603.357	21690.72
603.553	21952.86
603.75	22282.58
603.946	22280.53
604.142	22223.19
604.338	21885.28
604.534	22180.18
604.73	21883.23
604.926	22221.14
605.122	22335.83
605.318	22012.25
605.514	21922.14
605.71	22088.03
605.906	22108.51
606.102	22036.83
606.298	22235.48
606.494	22122.84
606.69	22012.25
606.886	22241.62
607.082	21832.03
607.278	21932.38
607.474	21924.19
607.67	22309.21
607.866	21782.88
608.062	22444.37
608.257	22217.05
608.453	22106.46
608.649	22272.34
608.845	21993.82
609.041	22153.56
609.236	22438.23
609.432	22479.19
609.628	22298.97
609.824	22344.02
610.019	22313.3
610.215	22368.6
610.411	22702.42
610.606	22368.6
610.802	22786.38
610.998	22378.84
611.193	22550.87
611.389	22354.26
611.584	22288.73
611.78	22288.73
611.976	22544.72
612.171	22698.32
612.367	22423.89
612.562	22554.96
612.758	22171.99
612.953	22083.93
613.149	22565.2
613.344	22182.23
613.539	22810.96
613.735	22702.42
613.93	22720.85
614.126	22399.32
614.321	22767.95
614.517	22681.94
614.712	22616.4
614.907	22497.62
615.103	22698.32
615.298	22608.21
615.493	22911.31
615.688	22389.08
615.884	22919.5
616.079	22368.6
616.274	22702.42
616.47	22317.4
616.665	22534.48
616.86	22640.98
617.055	22786.38
617.25	22585.68
617.445	22630.74
617.641	21979.48
617.836	22374.74
618.031	22241.62
618.226	22667.6
618.421	22434.13
618.616	22659.41
618.811	22002.01
619.006	22522.19
619.201	22006.11
619.396	22051.16
619.591	22155.61
619.786	22317.4
619.981	21670.24
620.176	22215
620.371	21641.57
620.566	21942.62
620.761	21946.72
620.956	21729.63
621.151	21545.31
621.346	21731.68
621.541	21125.48
621.735	21743.97
621.93	21162.34
622.125	21207.4
622.32	21002.6
622.515	21143.91
622.709	21188.97
622.904	20791.66
623.099	20666.74
623.294	20947.31
623.488	20676.98
623.683	20736.37
623.878	20420.98
624.072	20416.88
624.267	20453.75
624.462	20439.41
624.656	20289.91
624.851	20076.92
625.046	19925.37
625.24	20124.02
625.435	19908.99
625.629	19775.87
625.824	19829.12
626.018	19587.46
626.213	19231.11
626.407	19427.71
626.602	19167.62
626.796	19274.12
626.991	19241.35
627.185	18907.53
627.38	18928.01
627.574	18770.32
627.768	18583.95
627.963	18446.74
628.157	18450.83
628.352	18432.4
628.546	18336.15
628.74	18524.56
628.935	17979.8
629.129	18299.28
629.323	18043.29
629.517	18061.72
629.712	18098.58
629.906	17781.15
630.1	17576.35
630.294	17727.9
630.489	17545.63
630.683	17680.8
630.877	17467.81
631.071	17349.03
631.265	17283.49
631.459	17383.84
631.653	17045.93
631.848	17072.55
632.042	17047.97
632.236	16959.91
632.43	16759.21
632.624	16953.77
632.818	16472.5
633.012	16296.37
633.206	16415.15
633.4	16542.13
633.594	16312.75
633.788	16083.38
633.982	16177.59
634.176	16202.16
634.369	16071.09
634.563	15833.53
634.757	15821.24
634.951	16023.99
635.145	15552.96
635.339	15497.66
635.533	15458.75
635.726	15540.67
635.92	15098.31
636.114	15186.37
636.308	15157.7
636.501	15067.59
636.695	15198.66
636.889	14797.26
637.083	14797.26
637.276	14827.98
637.47	14801.35
637.664	14602.7
637.857	14637.52
638.051	14596.56
638.244	14324.18
638.438	14246.35
638.632	14377.42
638.825	14189.01
639.019	14363.09
639.212	14064.08
639.406	14109.14
639.599	13924.82
639.793	13986.26
639.986	13658.59
640.18	13746.65
640.373	13685.21
640.567	13345.25
640.76	13392.35
640.954	13267.42
641.147	13345.25
641.34	13156.83
641.534	13205.99
641.727	13156.83
641.92	13193.7
642.114	12823.01
642.307	12935.65
642.5	13062.63
642.694	12571.11
642.887	12663.27
643.08	12679.66
643.273	12399.09
643.467	12419.57
643.66	12493.29
643.853	12341.74
644.046	12261.87
644.239	12186.1
644.432	12106.23
644.626	11948.53
644.819	11893.24
645.012	12118.51
645.205	11893.24
645.398	11911.67
645.591	11811.32
645.784	11688.44
645.977	11524.6
646.17	11485.69
646.363	11239.94
646.556	11131.39
646.749	11184.64
646.942	11178.5
647.135	11246.08
647.328	11131.39
647.521	11203.07
647.714	11026.95
647.907	10967.56
648.099	10983.94
648.292	10975.75
648.485	10738.18
648.678	10674.7
648.871	10574.35
649.064	10449.42
649.256	10584.59
649.449	10467.85
649.642	10379.79
649.835	10394.12
650.027	10220.05
650.22	10209.81
650.413	10220.05
650.605	10328.59
650.798	10082.83
650.991	9931.28
651.183	10000.91
651.376	9878.04
651.568	9939.48
651.761	9660.95
651.954	9738.77
652.146	9679.38
652.339	9663
652.531	9398.81
652.724	9679.38
652.916	9394.72
653.109	9224.73
653.301	9470.49
653.494	9529.88
653.686	9300.51
653.879	9300.51
654.071	9144.86
654.263	9040.42
654.456	9122.34
654.648	9241.12
654.84	9097.76
655.033	8886.82
655.225	9005.6
655.417	8858.15
655.61	8972.83
655.802	8821.28
655.994	8651.3
656.186	8854.05
656.379	8641.06
656.571	8667.69
656.763	8505.9
656.955	8391.21
657.148	8561.19
657.34	8444.46
657.532	8256.04
657.724	8452.65
657.916	8260.14
658.108	8337.96
658.3	8278.57
658.492	8206.89
658.684	8032.82
658.876	8190.51
659.068	8075.82
659.26	7825.97
659.452	7914.03
659.644	8028.72
659.836	7709.24
660.028	7805.49
660.22	7735.86
660.412	7707.19
660.604	7649.85
660.796	7676.47
660.988	7531.06
661.18	7518.78
661.372	7512.63
661.563	7416.38
661.755	7199.29
661.947	7277.12
662.139	7389.75
662.331	7350.84
662.522	7144
662.714	7344.7
662.906	7264.83
663.097	7051.84
663.289	6965.82
663.481	6816.32
663.673	6994.5
663.864	6953.54
664.056	6728.26
664.247	6908.48
664.439	6785.6
664.631	6797.89
664.822	6781.51
665.014	6732.36
665.205	6658.63
665.397	6521.42
665.588	6554.18
665.78	6388.3
665.971	6752.84
666.163	6437.45
666.354	6572.61
666.546	6396.49
666.737	6220.36
666.929	6406.73
667.12	6396.49
667.311	6318.67
667.503	6183.5
667.694	6287.95
667.885	6378.06
668.077	6257.23
668.268	6230.6
668.459	6148.68
668.651	6158.92
668.842	6126.16
669.033	5855.83
669.224	6068.81
669.416	5995.09
669.607	5937.74
669.798	5833.3
669.989	5933.65
670.18	5833.3
670.371	5831.25
670.563	5589.59
670.754	5909.07
670.945	5632.6
671.136	5866.07
671.327	5724.76
671.518	5714.52
671.709	5902.93
671.9	5683.8
672.091	5479
672.282	5610.07
672.473	5421.66
672.664	5661.27
672.855	5659.22
673.046	5476.95
673.237	5479
673.428	5515.86
673.619	5489.24
673.809	5599.83
674	5569.11
674.191	5565.01
674.382	5235.29
674.573	5315.16
674.764	5347.93
674.954	5304.92
675.145	5126.75
675.336	5278.3
675.527	5122.65
675.717	5313.11
675.908	5306.97
676.099	5104.22
676.289	5165.66
676.48	5192.28
676.671	5151.32
676.861	5208.67
677.052	5102.17
677.243	4956.77
677.433	5069.41
677.624	5192.28
677.814	5050.97
678.005	5093.98
678.195	5028.45
678.386	4969.05
678.576	4995.68
678.767	4827.74
678.957	4835.94
679.148	5069.41
679.338	5147.23
679.529	4878.94
679.719	4842.08
679.909	5030.49
680.1	4856.42
680.29	4915.81
680.481	4876.9
680.671	4790.88
680.861	4938.34
681.052	4741.73
681.242	4848.22
681.432	4823.65
681.622	4758.11
681.813	4670.05
682.003	4872.8
682.193	4725.35
682.383	4760.16
682.573	4637.28
682.764	4692.58
682.954	4674.15
683.144	4803.17
683.334	4598.37
683.524	4758.11
683.714	4717.15
683.904	4643.43
684.094	4680.29
684.284	4405.86
684.474	4733.54
684.664	4514.41
684.854	4627.04
685.044	4573.8
685.234	4502.12
685.424	4559.46
685.614	4401.77
685.804	4635.24
685.994	4373.1
686.184	4504.17
686.374	4668
686.564	4311.66
686.753	4485.73
686.943	4389.48
687.133	4553.32
687.323	4446.82
687.513	4518.5
687.702	4549.22
687.892	4389.48
688.082	4399.72
688.272	4307.56
688.461	4362.86
688.651	4309.61
688.841	4282.99
689.03	4270.7
689.22	4311.66
689.41	4201.07
689.599	4184.68
689.789	4325.99
689.979	4156.01
690.168	4254.31
690.358	4184.68
690.547	4211.31
690.737	4164.2
690.926	4219.5
691.116	4139.63
691.305	4055.66
691.495	4217.45
691.684	4172.4
691.874	4094.57
692.063	4121.2
692.252	4037.23
692.442	3951.21
692.631	3940.97
692.82	3957.36
693.01	4016.75
693.199	3959.41
693.388	3920.49
693.578	3908.21
693.767	3963.5
693.956	3885.68
694.146	3955.31
694.335	3922.54
694.524	3947.12
694.713	3877.49
694.902	3949.17
695.092	3850.86
695.281	3797.62
695.47	3717.75
695.659	3871.34
695.848	3840.62
696.037	3803.76
696.226	3844.72
696.415	3746.42
696.604	3906.16
696.793	3875.44
696.982	3801.71
697.171	3717.75
697.36	3697.27
697.549	3693.17
697.738	3644.02
697.927	3711.6
698.116	3564.15
698.305	3684.98
698.494	3758.71
698.683	3719.79
698.872	3580.53
699.061	3508.85
699.25	3623.54
699.438	3594.87
699.627	3539.57
699.816	3684.98
700.005	3529.33
700.193	3498.61
700.382	3496.57
700.571	3519.09
700.76	3465.85
700.948	3424.89
701.137	3463.8
701.326	3424.89
701.514	3287.67
701.703	3478.13
701.892	3471.99
702.08	3385.98
702.269	3365.5
702.457	3408.5
702.646	3365.5
702.834	3308.15
703.023	3392.12
703.212	3381.88
703.4	3324.54
703.589	3310.2
703.777	3291.77
703.965	3304.06
704.154	3250.81
704.342	3201.66
704.531	3228.28
704.719	3207.8
704.907	3246.71
705.096	3154.55
705.284	3170.94
705.472	3218.04
705.661	3238.52
705.849	3201.66
706.037	3185.27
706.226	3232.38
706.414	3089.02
706.602	3172.99
706.79	3236.47
706.979	3164.79
707.167	3086.97
707.355	3142.27
707.543	3177.08
707.731	3119.74
707.919	3070.59
708.107	2988.67
708.296	2976.38
708.484	3148.41
708.672	3029.63
708.86	3035.77
709.048	2908.8
709.236	2951.81
709.424	2939.52
709.612	3019.39
709.8	2972.29
709.988	2972.29
710.176	3003
710.364	2960
710.551	2966.14
710.739	2878.08
710.927	2968.19
711.115	2900.61
711.303	2873.98
711.491	2818.69
711.679	2792.06
711.866	2882.17
712.054	2765.44
712.242	2779.78
712.43	2787.97
712.617	2701.95
712.805	2800.26
712.993	2771.58
713.181	2658.95
713.368	2833.02
713.556	2695.81
713.744	2611.84
713.931	2884.22
714.119	2673.28
714.306	2726.53
714.494	2751.1
714.682	2630.27
714.869	2658.95
715.057	2718.34
715.244	2521.73
715.432	2685.57
715.619	2699.91
715.807	2663.04
715.994	2620.03
716.182	2611.84
716.369	2613.89
716.556	2620.03
716.744	2603.65
716.931	2519.68
717.119	2607.75
717.306	2538.12
717.493	2529.92
717.681	2488.96
717.868	2542.21
718.055	2298.5
718.242	2515.59
718.43	2474.63
718.617	2448.01
718.804	2484.87
718.991	2507.4
719.179	2581.12
719.366	2534.02
719.553	2417.29
719.74	2314.89
719.927	2439.81
720.114	2484.87
720.301	2378.37
720.488	2341.51
720.676	2370.18
720.863	2392.71
721.05	2423.43
721.237	2339.46
721.424	2306.7
721.611	2400.9
721.798	2329.22
721.985	2378.37
722.172	2275.98
722.358	2300.55
722.545	2239.11
722.732	2316.94
722.919	2318.98
723.106	2280.07
723.293	2232.97
723.48	2288.26
723.667	2312.84
723.853	2206.35
724.04	2296.46
724.227	2247.3
724.414	2382.47
724.6	2177.67
724.787	2192.01
724.974	2235.02
725.161	2271.88
725.347	2108.04
725.534	2228.87
725.72	2275.98
725.907	2194.06
726.094	2198.15
726.28	2105.99
726.467	2054.8
726.653	2153.1
726.84	2228.87
727.027	2095.75
727.213	2042.51
727.4	2103.95
727.586	2077.32
727.773	2017.93
727.959	2005.64
728.145	2124.43
728.332	2058.89
728.518	2034.32
728.705	2099.85
728.891	2046.6
729.077	1981.07
729.264	1999.5
729.45	2054.8
729.636	2038.41
729.823	1956.49
730.009	2054.8
730.195	2128.52
730.382	1970.83
730.568	2030.22
730.754	1972.88
730.94	2050.7
731.126	2062.99
731.313	2030.22
731.499	1876.62
731.685	1987.21
731.871	1909.39
732.057	1878.67
732.243	1852.05
732.429	1946.25
732.615	2083.47
732.801	1972.88
732.987	1893.01
733.173	1907.34
733.359	1936.01
733.545	1950.35
733.731	1858.19
733.917	1899.15
734.103	1895.05
734.289	1915.53
734.475	1751.7
734.661	1874.57
734.847	1948.3
735.033	1874.57
735.219	1893.01
735.404	1770.13
735.59	1841.81
735.776	1821.33
735.962	1874.57
736.148	1819.28
736.333	1813.13
736.519	1663.63
736.705	1768.08
736.89	1858.19
737.076	1833.61
737.262	1763.98
737.447	1696.4
737.633	1743.5
737.819	1688.21
738.004	1811.09
738.19	1755.79
738.375	1718.93
738.561	1747.6
738.747	1684.11
738.932	1663.63
739.118	1850
739.303	1786.51
739.489	1784.46
739.674	1684.11
739.859	1784.46
740.045	1665.68
740.23	1712.78
740.416	1667.73
740.601	1651.35
740.786	1649.3
740.972	1641.11
741.157	1604.24
741.342	1563.28
741.528	1647.25
741.713	1653.39
741.898	1598.1
742.084	1565.33
742.269	1622.67
742.454	1548.95
742.639	1587.86
742.824	1579.67
743.01	1501.84
743.195	1555.09
743.38	1510.04
743.565	1540.76
743.75	1548.95
743.935	1589.91
744.12	1540.76
744.305	1438.36
744.49	1493.65
744.675	1514.13
744.86	1499.8
745.045	1505.94
745.23	1546.9
745.415	1446.55
745.6	1421.97
745.785	1489.56
745.97	1467.03
746.155	1450.64
746.34	1409.69
746.525	1301.14
746.71	1514.13
746.895	1362.58
747.079	1424.02
747.264	1346.2
747.449	1397.4
747.634	1436.31
747.819	1362.58
748.003	1309.33
748.188	1278.62
748.373	1311.38
748.557	1221.27
748.742	1327.77
748.927	1280.66
749.111	1327.77
749.296	1235.61
749.481	1383.06
749.665	1221.27
749.85	1254.04
750.034	1299.09
750.219	1286.81
750.404	1243.8
750.588	1311.38
750.773	1219.22
750.957	1319.57
751.141	1157.79
751.326	1270.42
751.51	1034.91
751.695	1196.7
751.879	1147.55
752.064	1170.07
752.248	1170.07
752.432	1239.7
752.617	1184.41
752.801	1129.11
752.985	1096.35
753.17	1065.63
753.354	1137.31
753.538	1118.87
753.722	1100.44
753.907	1006.24
754.091	1084.06
754.275	1084.06
754.459	1006.24
754.643	1004.19
754.828	1008.28
755.012	1049.24
755.196	909.98
755.38	948.89
755.564	930.46
755.748	1071.77
755.932	996
756.116	948.89
756.3	961.18
756.484	950.94
756.668	1063.58
756.852	1004.19
757.036	920.22
757.22	940.7
757.404	948.89
757.588	871.07
757.772	1006.24
757.956	948.89
758.14	934.56
758.323	942.75
758.507	909.98
758.691	914.08
758.875	866.97
759.059	948.89
759.242	936.6
759.426	860.83
759.61	846.49
759.794	842.4
759.977	856.73
760.161	924.32
760.345	914.08
760.528	883.36
760.712	887.45
760.895	893.6
761.079	832.16
761.263	789.15
761.446	830.11
761.63	797.34
761.813	817.82
761.997	871.07
762.18	801.44
762.364	787.1
762.547	756.38
762.731	842.4
762.914	750.24
763.098	772.77
763.281	848.54
763.464	801.44
763.648	807.58
763.831	744.1
764.015	793.25
764.198	778.91
764.381	756.38
764.564	746.14
764.748	778.91
764.931	690.85
765.114	758.43
765.297	834.21
765.481	703.14
765.664	795.29
765.847	742.05
766.03	760.48
766.213	744.1
766.397	764.58
766.58	631.46
766.763	668.32
766.946	760.48
767.129	715.42
767.312	670.37
767.495	713.38
767.678	696.99
767.861	809.63
768.044	713.38
768.227	735.9
768.41	723.62
768.593	801.44
768.776	670.37
768.959	703.14
769.142	660.13
769.324	664.22
769.507	707.23
769.69	696.99
769.873	715.42
770.056	692.9
770.239	608.93
770.421	666.27
770.604	633.5
770.787	694.94
770.97	674.46
771.152	572.07
771.335	701.09
771.518	664.22
771.7	703.14
771.883	682.66
772.066	656.03
772.248	563.87
772.431	662.18
772.613	660.13
772.796	604.83
772.978	651.94
773.161	690.85
773.343	621.22
773.526	576.16
773.708	565.92
773.891	656.03
774.073	572.07
774.256	594.59
774.438	664.22
774.621	563.87
774.803	580.26
774.985	547.49
775.168	580.26
775.35	580.26
775.532	604.83
775.715	588.45
775.897	551.59
776.079	557.73
776.261	588.45
776.444	535.2
776.626	600.74
776.808	539.3
776.99	465.57
777.173	592.55
777.355	572.07
777.537	580.26
777.719	443.04
777.901	512.67
778.083	492.2
778.265	484
778.447	606.88
778.629	481.96
778.811	481.96
778.993	479.91
779.175	514.72
779.357	400.04
779.539	408.23
779.721	508.58
779.903	549.54
780.085	535.2
780.267	498.34
780.449	518.82
780.631	408.23
780.812	486.05
780.994	383.65
781.176	408.23
781.358	539.3
781.54	488.1
781.721	475.81
781.903	432.8
782.085	457.38
782.267	512.67
782.448	318.12
782.63	432.8
782.812	445.09
782.993	451.24
783.175	473.76
783.357	387.75
783.538	441
783.72	328.36
783.901	451.24
784.083	391.84
784.264	330.41
784.446	346.79
784.627	397.99
784.809	426.66
784.99	359.08
785.172	383.65
785.353	473.76
785.535	328.36
785.716	385.7
785.897	297.64
786.079	344.74
786.26	389.8
786.441	400.04
786.623	293.54
786.804	352.93
786.985	283.3
787.167	359.08
787.348	277.16
787.529	336.55
787.71	359.08
787.891	379.56
788.073	289.45
788.254	320.17
788.435	346.79
788.616	350.89
788.797	293.54
788.978	322.21
789.159	326.31
789.34	309.93
789.522	330.41
789.703	334.5
789.884	279.21
790.065	330.41
790.246	330.41
790.427	293.54
790.607	252.58
790.788	285.35
790.969	326.31
791.15	305.83
791.331	273.06
791.512	309.93
791.693	228.01
791.874	309.93
792.054	316.07
792.235	326.31
792.416	258.73
792.597	336.55
792.778	258.73
792.958	279.21
793.139	260.77
793.32	252.58
793.5	285.35
793.681	320.17
793.862	170.66
794.042	244.39
794.223	244.39
794.404	223.91
794.584	236.2
794.765	268.97
794.945	246.44
795.126	230.06
795.306	232.1
795.487	287.4
795.667	252.58
795.848	297.64
796.028	199.34
796.209	228.01
796.389	225.96
796.57	178.86
796.75	178.86
796.93	252.58
797.111	211.62
797.291	244.39
797.471	301.73
797.652	182.95
797.832	203.43
798.012	289.45
798.192	225.96
798.373	170.66
798.553	246.44
798.733	209.58
798.913	195.24
799.093	191.14
799.274	199.34
799.454	244.39
799.634	221.86
799.814	246.44
799.994	252.58
800.174	211.62
800.354	158.38
800.534	156.33
800.714	248.49
800.894	203.43
801.074	219.82
801.254	164.52
801.434	244.39
801.614	209.58
801.794	129.7
801.974	830.11
802.154	121.51
802.334	254.63
802.514	160.42
802.693	121.51
802.873	187.05
803.053	244.39
803.233	137.9
803.413	150.18
803.592	137.9
803.772	105.13
803.952	162.47
804.131	197.29
804.311	213.67
804.491	244.39
804.67	80.55
804.85	203.43
805.03	211.62
805.209	166.57
805.389	199.34
805.568	146.09
805.748	92.84
805.928	144.04
806.107	158.38
806.287	311.97
806.466	182.95
806.646	55.98
806.825	129.7
807.004	135.85
807.184	133.8
807.363	150.18
807.543	137.9
807.722	180.9
807.901	238.25
808.081	228.01
808.26	129.7
808.439	154.28
808.619	103.08
808.798	133.8
808.977	121.51
809.156	203.43
809.336	185
809.515	170.66
809.694	154.28
809.873	121.51
810.052	125.61
810.231	178.86
810.411	133.8
810.59	129.7
810.769	115.37
810.948	109.23
811.127	84.65
811.306	117.42
811.485	131.75
811.664	215.72
811.843	113.32
812.022	90.79
812.201	127.66
812.38	105.13
812.559	137.9
812.737	82.6
812.916	41.64
813.095	35.5
813.274	133.8
813.453	164.52
813.632	164.52
813.811	180.9
813.989	23.21
814.168	105.13
814.347	98.99
814.526	123.56
814.704	150.18
814.883	146.09
815.062	94.89
815.24	172.71
815.419	101.03
815.598	105.13
815.776	23.21
815.955	119.46
816.133	115.37
816.312	129.7
816.49	146.09
816.669	123.56
816.847	80.55
817.026	92.84
817.204	82.6
817.383	139.94
817.561	51.88
817.74	115.37
817.918	78.51
818.097	55.98
818.275	94.89
818.453	76.46
818.632	84.65
818.81	105.13
818.988	72.36
819.167	17.07
819.345	64.17
819.523	113.32
819.701	113.32
819.879	84.65
820.058	123.56
820.236	154.28
820.414	101.03
820.592	111.27
820.77	60.07
820.948	82.6
821.127	74.41
821.305	139.94
821.483	70.31
821.661	139.94
821.839	76.46
822.017	125.61
822.195	76.46
822.373	154.28
822.551	-11.61
822.729	158.38
822.907	72.36
823.085	215.72
823.262	146.09
823.44	-7.51
823.618	64.17
823.796	162.47
823.974	47.79
824.152	55.98
824.329	49.83
824.507	107.18
824.685	27.31
824.863	129.7
825.04	80.55
825.218	84.65
825.396	101.03
825.574	115.37
825.751	23.21
825.929	88.75
826.107	51.88
826.284	105.13
826.462	98.99
826.639	23.21
826.817	88.75
826.994	58.03
827.172	90.79
827.349	107.18
827.527	6.83
827.704	-21.85
827.882	84.65
828.059	98.99
828.237	47.79
828.414	107.18
828.591	-21.85
828.769	170.66
828.946	72.36
829.124	49.83
829.301	76.46
829.478	47.79
829.655	129.7
829.833	39.59
830.01	-1.37
830.187	47.79
830.364	41.64
830.542	64.17
830.719	64.17
830.896	141.99
831.073	103.08
831.25	121.51
831.427	35.5
831.604	80.55
831.782	-9.56
831.959	96.94
832.136	-3.41
832.313	55.98
832.49	96.94
832.667	41.64
832.844	39.59
833.021	98.99
833.198	10.92
833.374	115.37
833.551	31.4
833.728	58.03
833.905	105.13
834.082	37.55
834.259	76.46
834.436	80.55
834.612	19.11
834.789	94.89
834.966	58.03
835.143	41.64
835.319	70.31
835.496	68.27
835.673	117.42
835.85	88.75
836.026	10.92
836.203	84.65
836.38	17.07
836.556	80.55
836.733	66.22
836.909	166.57
837.086	43.69
837.262	84.65
837.439	129.7
837.616	62.12
837.792	86.7
837.968	-48.47
838.145	15.02
838.321	64.17
838.498	10.92
838.674	17.07
838.851	55.98
839.027	-1.37
839.203	-52.56
839.38	105.13
839.556	-50.52
839.732	105.13
839.909	55.98
840.085	10.92
840.261	55.98
840.437	101.03
840.614	4.78
840.79	58.03
840.966	107.18
841.142	96.94
841.318	39.59
841.494	58.03
841.671	-25.94
841.847	-15.7
842.023	51.88
842.199	84.65
842.375	98.99
842.551	39.59
842.727	-23.89
842.903	94.89
843.079	-19.8
843.255	29.35
843.431	72.36
843.607	27.31
843.783	-21.85
843.959	105.13
844.134	19.11
844.31	72.36
844.486	12.97
844.662	33.45
844.838	31.4
845.013	72.36
845.189	15.02
845.365	33.45
845.541	64.17
845.716	43.69
845.892	23.21
846.068	51.88
846.244	-32.08
846.419	15.02
846.595	-44.37
846.77	72.36
846.946	74.41
847.122	17.07
847.297	0.68
847.473	76.46
847.648	-11.61
847.824	60.07
847.999	6.83
848.175	45.74
848.35	80.55
848.526	49.83
848.701	76.46
848.876	109.23
849.052	-11.61
849.227	49.83
849.403	66.22
849.578	-13.65
849.753	25.26
849.929	37.55
850.104	-9.56
850.279	68.27
850.454	6.83
850.63	141.99
850.805	27.31
850.98	60.07
851.155	-13.65
851.33	84.65
851.505	-17.75
851.681	131.75
851.856	37.55
852.031	84.65
852.206	23.21
852.381	19.11
852.556	35.5
852.731	117.42
852.906	125.61
853.081	0.68
853.256	80.55
853.431	-30.04
853.606	-21.85
853.781	-25.94
853.956	-66.9
854.131	-9.56
854.305	-9.56
854.48	-1.37
854.655	47.79
854.83	17.07
855.005	68.27
855.18	47.79
855.354	78.51
855.529	27.31
855.704	-23.89
855.879	60.07
856.053	-9.56
856.228	76.46
856.403	-30.04
856.577	64.17
856.752	-17.75
856.926	58.03
857.101	0.68
857.276	39.59
857.45	125.61
857.625	39.59
857.799	-38.23
857.974	43.69
858.148	-17.75
858.323	129.7
858.497	23.21
858.672	35.5
858.846	-9.56
859.02	49.83
859.195	-89.43
859.369	15.02
859.543	2.73
859.718	64.17
859.892	39.59
860.066	39.59
860.241	68.27
860.415	-5.46
860.589	72.36
860.763	19.11
860.938	17.07
861.112	-32.08
861.286	39.59
861.46	-13.65
861.634	8.87
861.808	-13.65
861.982	-56.66
862.157	-42.32
862.331	15.02
862.505	8.87
862.679	-25.94
862.853	-66.9
863.027	39.59
863.201	72.36
863.375	23.21
863.549	27.31
863.722	15.02
863.896	49.83
864.07	58.03
864.244	4.78
864.418	55.98
864.592	17.07
864.766	96.94
864.939	6.83
865.113	-103.76
865.287	33.45
865.461	-38.23
865.634	33.45
865.808	-13.65
865.982	-50.52
866.156	-34.13
866.329	-11.61
866.503	-23.89
866.676	31.4
866.85	31.4
867.024	90.79
867.197	4.78
867.371	17.07
867.544	51.88
867.718	58.03
867.891	72.36
868.065	-42.32
868.238	-13.65
868.412	88.75
868.585	31.4
868.759	-75.09
868.932	8.87
869.105	0.68
869.279	115.37
869.452	-48.47
869.625	31.4
869.799	15.02
869.972	-91.48
870.145	-21.85
870.319	-34.13
870.492	6.83
870.665	31.4
870.838	-30.04
871.011	-71
871.185	23.21
871.358	6.83
871.531	31.4
871.704	-54.61
871.877	35.5
872.05	4.78
872.223	-34.13
872.396	25.26
872.569	10.92
872.742	-62.8
872.915	10.92
873.088	-83.28
873.261	-64.85
873.434	53.93
873.607	-13.65
873.78	72.36
873.953	31.4
874.126	74.41
874.299	-23.89
874.471	-38.23
874.644	-46.42
874.817	-7.51
874.99	-13.65
875.163	-58.71
875.335	-54.61
875.508	-17.75
875.681	58.03
875.853	-73.04
876.026	-25.94
876.199	15.02
876.371	4.78
876.544	-32.08
876.717	33.45
876.889	-13.65
877.062	29.35
877.234	-34.13
877.407	29.35
877.579	-25.94
877.752	27.31
877.924	21.16
878.097	47.79
878.269	-7.51
878.442	19.11
878.614	15.02
878.786	76.46
878.959	23.21
879.131	109.23
879.303	19.11
879.476	41.64
879.648	47.79
879.82	33.45
879.993	-17.75
880.165	6.83
880.337	31.4
880.509	2.73
880.681	-27.99
880.854	-79.19
881.026	21.16
881.198	4.78
881.37	-7.51
881.542	33.45
881.714	35.5
881.886	6.83
882.058	19.11
882.23	23.21
882.402	27.31
882.574	17.07
882.746	15.02
882.918	107.18
883.09	17.07
883.262	64.17
883.434	43.69
883.606	4.78
883.778	-5.46
883.95	107.18
884.122	-25.94
884.293	111.27
884.465	31.4
884.637	31.4
884.809	29.35
884.98	0.68
885.152	-1.37
885.324	47.79
885.496	25.26
885.667	27.31
885.839	90.79
886.011	45.74
886.182	-50.52
886.354	-9.56
886.525	31.4
886.697	-27.99
886.869	-40.28
887.04	-30.04
887.212	15.02
887.383	-15.7
887.555	2.73
887.726	-15.7
887.897	-25.94
888.069	25.26
888.24	-15.7
888.412	-34.13
888.583	-38.23
888.754	58.03
888.926	-64.85
889.097	96.94
889.268	0.68
889.44	17.07
889.611	-1.37
889.782	-38.23
889.953	-75.09
890.125	37.55
890.296	-34.13
890.467	-34.13
890.638	-34.13
890.809	-17.75
890.98	-36.18
891.151	47.79
891.323	17.07
891.494	39.59
891.665	39.59
891.836	-58.71
892.007	-13.65
892.178	-36.18
892.349	-91.48
892.52	-1.37
892.691	-56.66
892.862	0.68
893.032	-23.89
893.203	21.16
893.374	76.46
893.545	35.5
893.716	15.02
893.887	72.36
894.057	-42.32
894.228	29.35
894.399	15.02
894.57	27.31
894.74	33.45
894.911	80.55
895.082	-21.85
895.253	-62.8
895.423	58.03
895.594	66.22
895.764	-1.37
895.935	82.6
896.106	35.5
896.276	-1.37
896.447	58.03
896.617	-17.75
896.788	-40.28
896.958	-5.46
897.129	25.26
897.299	-36.18
897.47	15.02
897.64	8.87
897.81	25.26
897.981	47.79
898.151	6.83
898.322	39.59
898.492	15.02
898.662	23.21
898.832	-50.52
899.003	-30.04
899.173	33.45
899.343	-46.42
899.513	-79.19
