Data from USB4F104151__150__14-31-57-924.txt Node

Date: Thu Mar 13 14:31:57 EDT 2025
User: louis
Spectrometer: USB4F10415
Trigger mode: 4
Integration Time (sec): 2.500000E-2
Scans to average: 1
Electric dark correction enabled: true
Nonlinearity correction enabled: false
Boxcar width: 0
XAxis mode: Wavelengths
Number of Pixels in Spectrum: 3648
>>>>>Begin Spectral Data<<<<<
178.204	-112.98
178.424	-112.98
178.644	-112.98
178.864	-162.13
179.084	-119.12
179.304	34.47
179.524	-29.01
179.744	-43.35
179.964	69.29
180.184	106.15
180.404	1.71
180.624	-37.2
180.844	-18.77
181.064	1.71
181.283	20.14
181.503	-90.45
181.723	-14.68
181.943	-12.63
182.163	67.24
182.383	-4.44
182.602	42.67
182.822	1.71
183.042	46.76
183.262	-39.25
183.482	11.95
183.701	1.71
183.921	9.9
184.141	-0.34
184.361	50.86
184.58	3.75
184.8	-20.82
185.02	-22.87
185.239	36.52
185.459	-31.06
185.679	-29.01
185.898	-12.63
186.118	40.62
186.338	-45.4
186.557	83.63
186.777	-4.44
186.997	5.8
187.216	-37.2
187.436	71.34
187.655	-39.25
187.875	46.76
188.095	-31.06
188.314	40.62
188.534	28.33
188.753	1.71
188.973	50.86
189.192	67.24
189.412	42.67
189.631	20.14
189.851	34.47
190.07	-2.39
190.29	-37.2
190.509	30.38
190.729	-20.82
190.948	20.14
191.168	149.16
191.387	24.23
191.607	20.14
191.826	26.28
192.045	26.28
192.265	9.9
192.484	-12.63
192.704	87.72
192.923	18.09
193.142	69.29
193.362	11.95
193.581	-12.63
193.8	-18.77
194.02	-8.53
194.239	67.24
194.458	-18.77
194.678	13.99
194.897	-55.64
195.116	-31.06
195.335	-2.39
195.555	-12.63
195.774	57
195.993	36.52
196.212	1.71
196.432	-12.63
196.651	-29.01
196.87	-0.34
197.089	91.82
197.308	59.05
197.528	79.53
197.747	-33.11
197.966	20.14
198.185	108.2
198.404	26.28
198.623	-6.49
198.842	59.05
199.062	22.19
199.281	44.71
199.5	22.19
199.719	46.76
199.938	5.8
200.157	89.77
200.376	11.95
200.595	-4.44
200.814	5.8
201.033	-26.96
201.252	-8.53
201.471	26.28
201.69	28.33
201.909	-51.54
202.128	34.47
202.347	-31.06
202.566	1.71
202.785	-4.44
203.004	83.63
203.223	91.82
203.442	75.43
203.661	1.71
203.879	-18.77
204.098	122.54
204.317	1.71
204.536	52.91
204.755	61.1
204.974	81.58
205.193	28.33
205.411	75.43
205.63	5.8
205.849	13.99
206.068	-80.21
206.287	18.09
206.505	59.05
206.724	61.1
206.943	13.99
207.162	22.19
207.381	54.95
207.599	34.47
207.818	1.71
208.037	32.43
208.255	-22.87
208.474	26.28
208.693	7.85
208.911	-14.68
209.13	-26.96
209.349	69.29
209.567	-10.58
209.786	30.38
210.005	24.23
210.223	3.75
210.442	-51.54
210.661	50.86
210.879	-35.16
211.098	18.09
211.316	-8.53
211.535	65.19
211.753	-8.53
211.972	44.71
212.191	-18.77
212.409	38.57
212.628	59.05
212.846	-31.06
213.065	42.67
213.283	118.44
213.502	54.95
213.72	1.71
213.938	50.86
214.157	20.14
214.375	-18.77
214.594	30.38
214.812	3.75
215.031	-22.87
215.249	50.86
215.467	59.05
215.686	36.52
215.904	-6.49
216.122	-10.58
216.341	46.76
216.559	34.47
216.778	42.67
216.996	36.52
217.214	61.1
217.432	79.53
217.651	38.57
217.869	-6.49
218.087	-47.44
218.306	1.71
218.524	50.86
218.742	-55.64
218.96	38.57
219.179	20.14
219.397	44.71
219.615	81.58
219.833	-18.77
220.051	5.8
220.27	44.71
220.488	67.24
220.706	52.91
220.924	-22.87
221.142	28.33
221.36	18.09
221.578	-14.68
221.796	75.43
222.015	57
222.233	48.81
222.451	77.48
222.669	-72.02
222.887	73.39
223.105	-47.44
223.323	-24.92
223.541	32.43
223.759	93.87
223.977	30.38
224.195	61.1
224.413	5.8
224.631	-24.92
224.849	-14.68
225.067	38.57
225.285	11.95
225.503	32.43
225.721	-33.11
225.939	-47.44
226.157	85.67
226.375	124.58
226.592	3.75
226.81	32.43
227.028	26.28
227.246	-4.44
227.464	36.52
227.682	-14.68
227.9	44.71
228.117	91.82
228.335	42.67
228.553	32.43
228.771	42.67
228.989	3.75
229.206	20.14
229.424	63.15
229.642	-14.68
229.86	65.19
230.077	28.33
230.295	97.96
230.513	50.86
230.731	28.33
230.948	81.58
231.166	59.05
231.384	-55.64
231.601	57
231.819	54.95
232.037	-31.06
232.254	-6.49
232.472	59.05
232.689	-10.58
232.907	81.58
233.125	1.71
233.342	-20.82
233.56	22.19
233.777	-6.49
233.995	67.24
234.213	54.95
234.43	40.62
234.648	79.53
234.865	5.8
235.083	22.19
235.3	1.71
235.518	36.52
235.735	57
235.953	59.05
236.17	1.71
236.388	42.67
236.605	-10.58
236.822	116.39
237.04	69.29
237.257	13.99
237.475	44.71
237.692	69.29
237.909	71.34
238.127	34.47
238.344	40.62
238.562	63.15
238.779	-51.54
238.996	-29.01
239.214	-86.36
239.431	75.43
239.648	-31.06
239.865	52.91
240.083	75.43
240.3	-10.58
240.517	32.43
240.735	42.67
240.952	132.78
241.169	42.67
241.386	42.67
241.603	-51.54
241.821	-47.44
242.038	7.85
242.255	-14.68
242.472	-55.64
242.689	3.75
242.907	36.52
243.124	7.85
243.341	-2.39
243.558	-6.49
243.775	28.33
243.992	46.76
244.209	-39.25
244.426	124.58
244.643	50.86
244.86	28.33
245.078	63.15
245.295	-22.87
245.512	83.63
245.729	5.8
245.946	61.1
246.163	1.71
246.38	-31.06
246.597	69.29
246.814	24.23
247.031	11.95
247.248	91.82
247.464	13.99
247.681	50.86
247.898	79.53
248.115	69.29
248.332	11.95
248.549	61.1
248.766	52.91
248.983	54.95
249.2	108.2
249.417	26.28
249.633	-10.58
249.85	9.9
250.067	-4.44
250.284	40.62
250.501	50.86
250.717	69.29
250.934	-22.87
251.151	-20.82
251.368	3.75
251.585	124.58
251.801	46.76
252.018	5.8
252.235	83.63
252.451	-6.49
252.668	-51.54
252.885	-4.44
253.102	69.29
253.318	42.67
253.535	-33.11
253.752	42.67
253.968	38.57
254.185	28.33
254.401	91.82
254.618	1.71
254.835	34.47
255.051	118.44
255.268	9.9
255.484	102.06
255.701	52.91
255.917	-18.77
256.134	30.38
256.351	50.86
256.567	-4.44
256.784	-55.64
257	-39.25
257.217	38.57
257.433	18.09
257.65	34.47
257.866	36.52
258.082	-59.73
258.299	-12.63
258.515	-61.78
258.732	44.71
258.948	-139.6
259.165	13.99
259.381	34.47
259.597	100.01
259.814	61.1
260.03	34.47
260.246	30.38
260.463	18.09
260.679	140.97
260.895	28.33
261.112	50.86
261.328	52.91
261.544	28.33
261.761	120.49
261.977	18.09
262.193	5.8
262.409	18.09
262.626	134.82
262.842	22.19
263.058	-26.96
263.274	75.43
263.49	26.28
263.707	26.28
263.923	36.52
264.139	-55.64
264.355	95.91
264.571	93.87
264.787	-22.87
265.004	22.19
265.22	-26.96
265.436	-31.06
265.652	50.86
265.868	50.86
266.084	-4.44
266.3	-39.25
266.516	83.63
266.732	69.29
266.948	1.71
267.164	-26.96
267.38	89.77
267.596	46.76
267.812	63.15
268.028	59.05
268.244	22.19
268.46	71.34
268.676	11.95
268.892	-37.2
269.108	-49.49
269.324	13.99
269.54	-16.73
269.756	118.44
269.972	-29.01
270.188	1.71
270.403	-6.49
270.619	59.05
270.835	79.53
271.051	-29.01
271.267	-69.97
271.483	1.71
271.698	28.33
271.914	-45.4
272.13	38.57
272.346	-37.2
272.562	5.8
272.777	102.06
272.993	69.29
273.209	26.28
273.425	59.05
273.64	-39.25
273.856	42.67
274.072	-14.68
274.287	-18.77
274.503	69.29
274.719	42.67
274.934	11.95
275.15	-2.39
275.366	73.39
275.581	-55.64
275.797	50.86
276.012	-12.63
276.228	20.14
276.444	34.47
276.659	42.67
276.875	18.09
277.09	28.33
277.306	30.38
277.521	71.34
277.737	85.67
277.952	1.71
278.168	13.99
278.383	28.33
278.599	-39.25
278.814	34.47
279.03	3.75
279.245	34.47
279.461	-2.39
279.676	46.76
279.892	-10.58
280.107	52.91
280.322	26.28
280.538	22.19
280.753	-41.3
280.969	18.09
281.184	-26.96
281.399	59.05
281.615	26.28
281.83	28.33
282.045	-55.64
282.26	65.19
282.476	1.71
282.691	42.67
282.906	9.9
283.122	50.86
283.337	5.8
283.552	61.1
283.767	-67.92
283.983	73.39
284.198	5.8
284.413	59.05
284.628	-82.26
284.843	50.86
285.058	124.58
285.274	67.24
285.489	9.9
285.704	34.47
285.919	-0.34
286.134	1.71
286.349	9.9
286.564	-18.77
286.779	46.76
286.995	26.28
287.21	5.8
287.425	-12.63
287.64	46.76
287.855	18.09
288.07	-78.16
288.285	71.34
288.5	67.24
288.715	28.33
288.93	1.71
289.145	28.33
289.36	67.24
289.575	48.81
289.79	26.28
290.004	26.28
290.219	1.71
290.434	18.09
290.649	26.28
290.864	-22.87
291.079	-6.49
291.294	50.86
291.509	28.33
291.724	44.71
291.938	26.28
292.153	-20.82
292.368	-74.07
292.583	46.76
292.798	34.47
293.012	34.47
293.227	52.91
293.442	26.28
293.657	22.19
293.871	1.71
294.086	93.87
294.301	83.63
294.516	5.8
294.73	100.01
294.945	-14.68
295.16	50.86
295.374	57
295.589	40.62
295.804	-4.44
296.018	34.47
296.233	59.05
296.447	42.67
296.662	-4.44
296.877	114.34
297.091	36.52
297.306	44.71
297.52	-47.44
297.735	59.05
297.949	-35.16
298.164	52.91
298.378	-6.49
298.593	5.8
298.807	-22.87
299.022	22.19
299.236	34.47
299.451	-14.68
299.665	77.48
299.88	-6.49
300.094	69.29
300.309	61.1
300.523	34.47
300.737	-55.64
300.952	-37.2
301.166	106.15
301.381	26.28
301.595	30.38
301.809	-47.44
302.024	83.63
302.238	28.33
302.452	63.15
302.667	-92.5
302.881	46.76
303.095	65.19
303.309	50.86
303.524	1.71
303.738	-14.68
303.952	-47.44
304.166	-47.44
304.381	36.52
304.595	42.67
304.809	-39.25
305.023	69.29
305.237	59.05
305.452	-16.73
305.666	42.67
305.88	11.95
306.094	77.48
306.308	85.67
306.522	-35.16
306.736	50.86
306.95	9.9
307.164	83.63
307.379	3.75
307.593	83.63
307.807	52.91
308.021	75.43
308.235	11.95
308.449	-6.49
308.663	7.85
308.877	100.01
309.091	71.34
309.305	26.28
309.519	91.82
309.733	93.87
309.947	13.99
310.161	67.24
310.374	34.47
310.588	120.49
310.802	13.99
311.016	5.8
311.23	1.71
311.444	-63.83
311.658	-14.68
311.872	61.1
312.085	26.28
312.299	26.28
312.513	18.09
312.727	77.48
312.941	11.95
313.154	13.99
313.368	28.33
313.582	9.9
313.796	28.33
314.009	-6.49
314.223	106.15
314.437	67.24
314.651	65.19
314.864	16.04
315.078	67.24
315.292	-10.58
315.505	-55.64
315.719	36.52
315.933	11.95
316.146	5.8
316.36	-29.01
316.573	40.62
316.787	48.81
317.001	102.06
317.214	-72.02
317.428	69.29
317.641	16.04
317.855	63.15
318.068	69.29
318.282	91.82
318.495	110.25
318.709	1.71
318.922	-29.01
319.136	59.05
319.349	124.58
319.563	-4.44
319.776	-63.83
319.99	-22.87
320.203	75.43
320.417	22.19
320.63	83.63
320.843	79.53
321.057	97.96
321.27	59.05
321.483	26.28
321.697	36.52
321.91	71.34
322.124	46.76
322.337	24.23
322.55	-88.4
322.763	79.53
322.977	67.24
323.19	24.23
323.403	-6.49
323.617	67.24
323.83	42.67
324.043	-16.73
324.256	79.53
324.469	5.8
324.683	50.86
324.896	26.28
325.109	54.95
325.322	-16.73
325.535	83.63
325.748	71.34
325.962	-53.59
326.175	16.04
326.388	34.47
326.601	79.53
326.814	42.67
327.027	71.34
327.24	20.14
327.453	-63.83
327.666	20.14
327.879	83.63
328.092	54.95
328.305	-26.96
328.518	9.9
328.731	-45.4
328.944	38.57
329.157	-10.58
329.37	44.71
329.583	87.72
329.796	108.2
330.009	-55.64
330.222	71.34
330.435	-6.49
330.648	59.05
330.861	50.86
331.073	28.33
331.286	69.29
331.499	50.86
331.712	3.75
331.925	75.43
332.138	93.87
332.35	73.39
332.563	3.75
332.776	100.01
332.989	-59.73
333.202	-8.53
333.414	28.33
333.627	-55.64
333.84	42.67
334.053	-2.39
334.265	-14.68
334.478	26.28
334.691	38.57
334.903	67.24
335.116	57
335.329	50.86
335.541	44.71
335.754	28.33
335.966	-22.87
336.179	67.24
336.392	-26.96
336.604	-31.06
336.817	52.91
337.029	93.87
337.242	-18.77
337.454	108.2
337.667	-33.11
337.88	65.19
338.092	73.39
338.305	30.38
338.517	-0.34
338.729	83.63
338.942	54.95
339.154	3.75
339.367	-55.64
339.579	30.38
339.792	-0.34
340.004	73.39
340.217	77.48
340.429	-2.39
340.641	46.76
340.854	28.33
341.066	22.19
341.278	50.86
341.491	136.87
341.703	91.82
341.915	50.86
342.128	100.01
342.34	59.05
342.552	59.05
342.764	38.57
342.977	30.38
343.189	61.1
343.401	67.24
343.613	-8.53
343.826	46.76
344.038	-20.82
344.25	75.43
344.462	11.95
344.674	34.47
344.886	34.47
345.099	83.63
345.311	104.11
345.523	-47.44
345.735	-51.54
345.947	77.48
346.159	36.52
346.371	108.2
346.583	-39.25
346.795	75.43
347.007	-26.96
347.219	-26.96
347.431	-0.34
347.643	100.01
347.855	-39.25
348.067	-14.68
348.279	38.57
348.491	34.47
348.703	36.52
348.915	79.53
349.127	-72.02
349.339	42.67
349.551	-2.39
349.763	38.57
349.975	-6.49
350.187	104.11
350.399	77.48
350.61	93.87
350.822	18.09
351.034	34.47
351.246	22.19
351.458	30.38
351.669	20.14
351.881	13.99
352.093	13.99
352.305	120.49
352.517	59.05
352.728	83.63
352.94	95.91
353.152	89.77
353.363	34.47
353.575	77.48
353.787	50.86
353.999	18.09
354.21	151.21
354.422	34.47
354.633	59.05
354.845	36.52
355.057	22.19
355.268	108.2
355.48	65.19
355.692	42.67
355.903	-20.82
356.115	-22.87
356.326	22.19
356.538	50.86
356.749	36.52
356.961	-18.77
357.172	28.33
357.384	75.43
357.595	110.25
357.807	18.09
358.018	-18.77
358.23	52.91
358.441	132.78
358.653	100.01
358.864	100.01
359.075	36.52
359.287	34.47
359.498	161.45
359.709	42.67
359.921	63.15
360.132	91.82
360.344	46.76
360.555	42.67
360.766	59.05
360.977	-20.82
361.189	36.52
361.4	52.91
361.611	67.24
361.823	116.39
362.034	61.1
362.245	13.99
362.456	-20.82
362.667	38.57
362.879	13.99
363.09	5.8
363.301	42.67
363.512	91.82
363.723	28.33
363.935	18.09
364.146	22.19
364.357	22.19
364.568	102.06
364.779	-14.68
364.99	26.28
365.201	5.8
365.412	26.28
365.623	-6.49
365.834	69.29
366.045	-6.49
366.256	100.01
366.467	112.3
366.678	34.47
366.889	7.85
367.1	34.47
367.311	67.24
367.522	-37.2
367.733	106.15
367.944	50.86
368.155	13.99
368.366	18.09
368.577	108.2
368.788	46.76
368.999	11.95
369.209	-53.59
369.42	104.11
369.631	134.82
369.842	59.05
370.053	91.82
370.264	132.78
370.474	-33.11
370.685	11.95
370.896	57
371.107	120.49
371.317	44.71
371.528	32.43
371.739	63.15
371.95	59.05
372.16	9.9
372.371	65.19
372.582	-43.35
372.792	87.72
373.003	18.09
373.214	34.47
373.424	102.06
373.635	36.52
373.846	69.29
374.056	-6.49
374.267	177.83
374.477	83.63
374.688	-22.87
374.898	63.15
375.109	85.67
375.319	34.47
375.53	155.3
375.74	85.67
375.951	100.01
376.161	38.57
376.372	67.24
376.582	-31.06
376.793	59.05
377.003	28.33
377.214	143.02
377.424	50.86
377.635	46.76
377.845	-63.83
378.055	83.63
378.266	-14.68
378.476	79.53
378.686	-4.44
378.897	44.71
379.107	54.95
379.317	67.24
379.528	36.52
379.738	108.2
379.948	-20.82
380.158	108.2
380.369	71.34
380.579	108.2
380.789	120.49
380.999	46.76
381.21	75.43
381.42	120.49
381.63	38.57
381.84	93.87
382.05	75.43
382.261	112.3
382.471	75.43
382.681	75.43
382.891	26.28
383.101	-6.49
383.311	50.86
383.521	1.71
383.731	28.33
383.941	104.11
384.151	34.47
384.361	-8.53
384.571	59.05
384.781	-24.92
384.991	104.11
385.201	186.02
385.411	110.25
385.621	67.24
385.831	48.81
386.041	34.47
386.251	42.67
386.461	130.73
386.671	79.53
386.881	85.67
387.091	-10.58
387.301	3.75
387.511	18.09
387.72	118.44
387.93	67.24
388.14	83.63
388.35	52.91
388.56	110.25
388.769	91.82
388.979	97.96
389.189	-4.44
389.399	106.15
389.609	34.47
389.818	50.86
390.028	50.86
390.238	71.34
390.447	20.14
390.657	67.24
390.867	20.14
391.076	9.9
391.286	48.81
391.496	13.99
391.705	30.38
391.915	57
392.125	89.77
392.334	-10.58
392.544	91.82
392.753	36.52
392.963	22.19
393.172	18.09
393.382	63.15
393.591	95.91
393.801	83.63
394.01	79.53
394.22	97.96
394.429	100.01
394.639	63.15
394.848	75.43
395.058	83.63
395.267	140.97
395.477	83.63
395.686	85.67
395.895	126.63
396.105	177.83
396.314	124.58
396.524	69.29
396.733	75.43
396.942	116.39
397.152	165.54
397.361	104.11
397.57	116.39
397.78	79.53
397.989	140.97
398.198	75.43
398.407	77.48
398.617	136.87
398.826	42.67
399.035	140.97
399.244	140.97
399.453	67.24
399.663	65.19
399.872	128.68
400.081	42.67
400.29	140.97
400.499	44.71
400.708	128.68
400.917	132.78
401.127	65.19
401.336	108.2
401.545	188.07
401.754	194.22
401.963	83.63
402.172	95.91
402.381	93.87
402.59	159.4
402.799	116.39
403.008	169.64
403.217	102.06
403.426	151.21
403.635	104.11
403.844	186.02
404.053	192.17
404.262	61.1
404.471	218.79
404.68	167.59
404.888	132.78
405.097	132.78
405.306	134.82
405.515	202.41
405.724	153.26
405.933	149.16
406.142	157.35
406.35	159.4
406.559	198.31
406.768	175.78
406.977	255.65
407.185	224.94
407.394	241.32
407.603	206.5
407.812	304.81
408.02	313
408.229	206.5
408.438	231.08
408.646	181.93
408.855	245.41
409.064	280.23
409.272	241.32
409.481	364.2
409.69	257.7
409.898	272.04
410.107	384.68
410.315	370.34
410.524	370.34
410.733	272.04
410.941	435.88
411.15	401.06
411.358	439.97
411.567	462.5
411.775	456.36
411.984	444.07
412.192	485.03
412.401	497.32
412.609	540.32
412.818	566.95
413.026	538.27
413.234	591.52
413.443	595.62
413.651	511.65
413.86	595.62
414.068	698.02
414.276	655.01
414.485	667.3
414.693	755.36
414.901	749.22
415.11	745.12
415.318	755.36
415.526	796.32
415.734	845.47
415.943	878.24
416.151	1005.21
416.359	972.44
416.567	900.76
416.776	929.44
416.984	1003.16
417.192	1107.61
417.4	1109.66
417.608	1001.12
417.817	1236.63
418.025	1240.73
418.233	1230.49
418.441	1207.96
418.649	1263.26
418.857	1359.51
419.065	1412.76
419.273	1300.12
419.481	1511.06
419.689	1558.16
419.897	1562.26
420.105	1683.09
420.313	1662.61
420.521	1863.31
420.729	1939.09
420.937	1894.03
421.145	1871.5
421.353	1992.33
421.561	2090.63
421.769	2201.23
421.977	2205.32
422.185	2213.51
422.393	2442.89
422.601	2455.17
422.809	2524.8
423.017	2588.29
423.224	2682.5
423.432	2750.08
423.64	2799.23
423.848	2971.26
424.056	2926.21
424.263	3122.81
424.471	3141.24
424.679	3227.26
424.887	3225.21
425.094	3561.08
425.302	3495.54
425.51	3618.42
425.718	3745.39
425.925	3737.2
426.133	3745.39
426.341	3999.34
426.548	4275.82
426.756	4220.52
426.964	4341.35
427.171	4664.93
427.379	4781.67
427.586	4800.1
427.794	4904.54
428.001	5072.48
428.209	5351
428.417	5379.67
428.624	5772.88
428.832	5631.57
429.039	5652.05
429.247	5613.14
429.454	6125.13
429.662	6323.79
429.869	6030.93
430.076	6450.76
430.284	6358.6
430.491	6661.7
430.699	7087.68
430.906	6925.89
431.114	7071.29
431.321	7519.8
431.528	7679.54
431.736	8099.38
431.943	8328.75
432.15	8097.33
432.358	8181.29
432.565	8562.22
432.772	8664.61
432.979	8853.03
433.187	9332.25
433.394	9350.68
433.601	9819.67
433.808	9954.83
434.016	9807.38
434.223	10118.67
434.43	11036.16
434.637	10694.15
434.844	11257.34
435.052	11630.07
435.259	11513.34
435.466	11482.62
435.673	11281.92
435.88	12219.89
436.087	12942.82
436.294	12889.57
436.501	12426.73
436.708	12695.02
436.915	13270.5
437.122	13651.42
437.329	13712.86
437.537	14251.47
437.743	14167.51
437.95	14255.57
438.157	14974.41
438.364	15412.67
438.571	15410.62
438.778	15386.05
438.985	16985.51
439.192	16334.26
439.399	16684.46
439.606	16453.04
439.813	17624.48
440.02	18507.15
440.227	18068.89
440.433	17890.71
440.64	18675.09
440.847	18163.09
441.054	18570.64
441.261	20110.71
441.467	19996.03
441.674	20305.27
441.881	20747.63
442.088	20833.64
442.294	20598.13
442.501	21136.74
442.708	21669.22
442.914	22426.96
443.121	23401.8
443.328	22715.73
443.534	24479.03
443.741	23840.06
443.948	23489.86
444.154	25140.52
444.361	24665.39
444.568	24968.49
444.774	24872.24
444.981	25206.06
445.187	25959.71
445.394	27071.76
445.6	26871.06
445.807	29213.93
446.013	28216.57
446.22	28232.96
446.426	29611.24
446.633	29859.04
446.839	30889.17
447.046	29605.09
447.252	31417.55
447.459	31247.57
447.665	31126.74
447.871	32535.74
448.078	33535.15
448.284	32386.24
448.491	33488.04
448.697	34417.82
448.903	34962.58
449.11	35280.02
449.316	34632.86
449.522	35685.51
449.728	36617.34
449.935	36443.26
450.141	36543.61
450.347	37313.65
450.553	36256.9
450.76	36664.44
450.966	38009.96
451.172	37016.69
451.378	38194.28
451.584	37424.24
451.791	38413.41
451.997	37946.47
452.203	39158.87
452.409	39359.57
452.615	38835.29
452.821	37231.73
453.027	37131.38
453.233	38798.43
453.44	37086.32
453.646	37768.3
453.852	37770.35
454.058	38405.22
454.264	37252.21
454.47	38419.55
454.676	37110.9
454.882	38685.79
455.088	35306.64
455.294	35878.02
455.5	36045.96
455.705	36811.9
455.911	35390.61
456.117	34616.47
456.323	34131.11
456.529	32158.91
456.735	33907.88
456.941	32873.65
457.147	32425.15
457.352	31290.57
457.558	31065.3
457.764	31069.39
457.97	30317.79
458.176	29832.42
458.381	29658.34
458.587	28073.21
458.793	28138.75
458.999	26821.91
459.204	28982.51
459.41	28097.79
459.616	26017.05
459.821	26189.08
460.027	26326.3
460.233	25515.3
460.438	24315.19
460.644	24513.84
460.85	23264.58
461.055	22664.53
461.261	22644.05
461.466	21327.21
461.672	20538.74
461.878	22130.01
462.083	20551.03
462.289	20079.99
462.494	20028.79
462.7	19189.13
462.905	18666.89
463.111	19127.69
463.316	19150.21
463.522	18883.98
463.727	18859.4
463.932	18759.05
464.138	18505.1
464.343	18617.74
464.549	18255.25
464.754	18820.49
464.959	18605.45
465.165	18214.29
465.37	17268.13
465.575	16893.35
465.781	17585.57
465.986	17599.9
466.191	16965.03
466.397	16876.97
466.602	16061.88
466.807	16442.8
467.012	16696.75
467.218	16199.09
467.423	16170.42
467.628	16283.06
467.833	16754.09
468.038	16256.43
468.244	15648.19
468.449	16434.61
468.654	15740.35
468.859	15547.84
469.064	15875.51
469.269	15173.06
469.474	15250.88
469.679	15451.58
469.885	15103.43
470.09	15144.39
470.295	14910.92
470.5	14716.36
470.705	14861.77
470.91	14325.2
471.115	14392.78
471.32	14620.11
471.525	14460.37
471.73	14296.53
471.935	14230.99
472.139	13587.93
472.344	13788.63
472.549	13393.37
472.754	13569.5
472.959	13430.24
473.164	12815.85
473.369	12895.72
473.574	13131.23
473.778	13227.49
473.983	12735.98
474.188	12994.02
474.393	12195.31
474.598	12404.21
474.802	12285.42
475.007	12133.87
475.212	12142.07
475.417	11611.64
475.621	11824.63
475.826	11738.62
476.031	11558.39
476.235	11429.37
476.44	11681.27
476.645	11388.41
476.849	11023.87
477.054	11095.55
477.259	11044.35
477.463	11113.99
477.668	10542.6
477.872	10808.84
478.077	10661.38
478.282	10583.56
478.486	10446.35
478.691	10155.54
478.895	10114.58
479.1	10063.38
479.304	10126.86
479.509	9950.74
479.713	9995.79
479.918	9879.06
480.122	9762.33
480.326	9995.79
480.531	9827.86
480.735	9922.07
480.94	9672.22
481.144	9979.41
481.348	9256.48
481.553	9539.1
481.757	9539.1
481.961	9346.59
482.166	9526.81
482.37	9555.48
482.574	9233.95
482.778	9412.12
482.983	9661.98
483.187	9311.77
483.391	9414.17
483.595	9448.99
483.8	9233.95
484.004	9446.94
484.208	9301.53
484.412	9414.17
484.616	9270.81
484.821	9281.05
485.025	9184.8
485.229	9301.53
485.433	9317.92
485.637	9213.47
485.841	9385.5
486.045	9242.14
486.249	9322.01
486.453	9143.84
486.657	9276.96
486.861	9297.44
487.065	9100.83
487.269	9131.55
487.473	9033.25
487.677	9213.47
487.881	9403.93
488.085	9170.46
488.289	9475.61
488.493	9086.5
488.697	9254.43
488.901	9293.34
489.105	9250.33
489.309	9303.58
489.512	9250.33
489.716	9303.58
489.92	9385.5
490.124	9256.48
490.328	9553.43
490.531	9424.41
490.735	9545.24
490.939	9612.82
491.143	9365.02
491.346	9270.81
491.55	9393.69
491.754	9524.76
491.958	9348.64
492.161	9764.37
492.365	9651.74
492.569	9627.16
492.772	9553.43
492.976	9629.21
493.18	9666.07
493.383	9872.92
493.587	10040.85
493.79	9881.11
493.994	9913.88
494.197	9889.3
494.401	10061.33
494.605	9958.93
494.808	10167.82
495.012	10178.06
495.215	10298.89
495.419	10503.69
495.622	10358.28
495.825	10397.2
496.029	10171.92
496.232	10675.72
496.436	10470.92
496.639	10933.76
496.843	10663.43
497.046	10878.47
497.249	10866.18
497.453	11159.04
497.656	11300.35
497.859	11025.92
498.063	11249.15
498.266	11458.04
498.469	11281.92
498.673	11615.74
498.876	11845.11
499.079	11863.54
499.282	11851.25
499.485	11957.75
499.689	12099.06
499.892	12250.61
500.095	12166.64
500.298	12453.36
500.501	12348.91
500.705	12846.57
500.908	12893.67
501.111	13012.45
501.314	13123.04
501.517	13342.18
501.72	13538.78
501.923	13405.66
502.126	13725.15
502.329	13905.37
502.532	13766.1
502.735	14058.96
502.938	14249.43
503.141	14110.16
503.344	14378.45
503.547	14638.54
503.75	14839.24
503.953	14894.54
504.156	15011.27
504.359	15340.99
504.562	15132.1
504.765	15707.58
504.968	15730.11
505.17	15754.68
505.373	15861.18
505.576	16418.22
505.779	16246.19
505.982	16422.32
506.185	16876.97
506.387	16860.59
506.59	17030.57
506.793	17319.33
506.996	17329.57
507.198	17696.16
507.401	17550.75
507.604	17720.73
507.807	18036.12
508.009	18064.79
508.212	18394.51
508.415	18748.81
508.617	18904.46
508.82	18576.78
509.022	18478.48
509.225	19389.83
509.428	19383.68
509.63	19531.14
509.833	19520.9
510.035	20024.7
510.238	19826.04
510.44	20422
510.643	20282.74
510.845	20700.53
511.048	20454.77
511.25	21138.79
511.453	21192.04
511.655	21757.28
511.858	21595.49
512.06	21814.62
512.262	21665.12
512.465	22203.74
512.667	22359.38
512.87	22662.48
513.072	22457.68
513.274	23098.7
513.477	22926.67
513.679	23358.79
513.881	23332.17
514.084	23706.94
514.286	23782.72
514.488	23995.71
514.69	24737.07
514.893	24646.96
515.095	24741.17
515.297	24745.27
515.499	25036.08
515.701	25120.04
515.904	25558.31
516.106	26084.64
516.308	25961.76
516.51	25972
516.712	26125.6
516.914	26725.65
517.116	26961.17
517.318	27174.16
517.52	26899.73
517.722	27424.01
517.925	27362.57
518.127	27903.23
518.329	28138.75
518.531	27776.26
518.733	28335.35
518.935	28626.17
519.136	28505.34
519.338	29066.48
519.54	28910.83
519.742	29234.41
519.944	28974.32
520.146	29904.1
520.348	29990.11
520.55	29781.22
520.752	29988.07
520.954	30459.1
521.155	30383.32
521.357	30778.58
521.559	30653.65
521.761	31333.58
521.963	31366.35
522.164	31380.68
522.366	31380.68
522.568	31720.65
522.77	31737.03
522.971	32228.54
523.173	32117.95
523.375	32070.85
523.576	32093.38
523.778	32400.57
523.98	32908.47
524.181	32693.43
524.383	32509.11
524.584	32677.05
524.786	33150.13
524.988	32660.66
525.189	33283.25
525.391	33326.25
525.592	33199.28
525.794	33617.07
525.995	33283.25
526.197	33582.25
526.398	33602.73
526.6	33721.51
526.801	33627.31
527.003	33705.13
527.204	33993.89
527.406	34253.98
527.607	34008.23
527.808	34118.82
528.01	33422.51
528.211	34094.24
528.412	34383.01
528.614	34323.61
528.815	34237.6
529.016	34608.28
529.218	33879.21
529.419	34593.95
529.62	34370.72
529.822	33825.96
530.023	34327.71
530.224	34354.33
530.425	34602.14
530.626	33762.47
530.828	33852.58
531.029	34391.2
531.23	34010.28
531.431	34024.61
531.632	33926.31
531.833	34079.91
532.035	34194.59
532.236	34239.65
532.437	34475.16
532.638	33928.36
532.839	34190.5
533.04	34194.59
533.241	33856.68
533.442	34305.18
533.643	33997.99
533.844	33739.94
534.045	34321.57
534.246	33813.67
534.447	34051.24
534.648	33316.01
534.849	33674.41
535.05	33715.37
535.251	33768.62
535.451	33324.21
535.652	33778.86
535.853	33764.52
536.054	33914.02
536.255	34094.24
536.456	33184.94
536.657	33467.56
536.857	33545.39
537.058	33230
537.259	33633.45
537.46	33428.65
537.66	33277.1
537.861	33260.72
538.062	33152.18
538.263	33287.34
538.463	33420.46
538.664	33090.74
538.865	33074.35
539.065	33346.73
539.266	32644.28
539.466	33567.91
539.667	32771.25
539.868	33416.36
540.068	32941.24
540.269	33023.15
540.469	33195.18
540.67	33060.02
540.87	32855.22
541.071	32761.01
541.271	32939.19
541.472	33121.46
541.672	32552.12
541.873	32443.58
542.073	32591.03
542.274	33113.27
542.474	33285.29
542.675	32726.2
542.875	33035.44
543.075	32830.65
543.276	32244.93
543.476	32740.54
543.676	32824.5
543.877	32693.43
544.077	32390.33
544.277	32957.62
544.478	32789.69
544.678	32765.11
544.878	32619.7
545.078	32679.1
545.279	32529.59
545.479	32457.92
545.679	32832.69
545.879	32296.13
546.079	32756.92
546.28	32468.16
546.48	32447.68
546.68	33098.93
546.88	32763.06
547.08	32552.12
547.28	32425.15
547.48	32048.32
547.68	32531.64
547.88	32277.69
548.081	32371.9
548.281	32677.05
548.481	31681.74
548.681	32488.63
548.881	32556.22
549.081	32357.56
549.28	32187.58
549.48	32595.13
549.68	32687.29
549.88	32728.25
550.08	32496.83
550.28	32437.44
550.48	32877.75
550.68	32775.35
550.88	32429.24
551.08	32214.21
551.279	32808.12
551.479	32341.18
551.679	32687.29
551.879	32398.52
552.079	32642.23
552.278	32437.44
552.478	32533.69
552.678	32328.89
552.878	33049.78
553.077	32380.09
553.277	32439.48
553.477	32730.3
553.676	32607.42
553.876	32642.23
554.076	32877.75
554.275	32429.24
554.475	32109.76
554.674	32761.01
554.874	32582.84
555.074	32795.83
555.273	32828.6
555.473	32691.38
555.672	32767.16
555.872	32541.88
556.071	32648.38
556.271	32914.61
556.47	32640.18
556.67	32486.59
556.869	32898.23
557.068	32545.98
557.268	32611.51
557.467	32736.44
557.667	32515.26
557.866	32523.45
558.065	32783.54
558.265	32744.63
558.464	32574.65
558.663	32945.33
558.863	32337.09
559.062	33221.81
559.261	32437.44
559.461	33060.02
559.66	32541.88
559.859	32464.06
560.058	32228.54
560.258	32699.58
560.457	32720.06
560.656	32906.42
560.855	32672.95
561.054	33000.63
561.253	32660.66
561.453	32844.98
561.652	33103.03
561.851	33025.2
562.05	32885.94
562.249	32627.9
562.448	32982.2
562.647	32654.52
562.846	32697.53
563.045	32799.93
563.244	32578.75
563.443	32863.41
563.642	32406.72
563.841	32433.34
564.04	32429.24
564.239	32969.91
564.438	32259.26
564.637	32386.24
564.836	32586.94
565.035	32134.34
565.234	32033.99
565.432	32332.99
565.631	32142.53
565.83	32527.55
566.029	32138.43
566.228	32089.28
566.427	32085.19
566.625	32005.31
566.824	31653.06
567.023	32279.74
567.222	31630.54
567.42	32152.77
567.619	31845.57
567.818	31837.38
568.016	31689.93
568.215	32169.15
568.414	31595.72
568.612	32007.36
568.811	31454.41
569.01	31515.85
569.208	31292.62
569.407	31788.23
569.605	31415.5
569.804	31864
570.002	31364.3
570.201	31538.38
570.4	31245.52
570.598	31075.54
570.797	30870.74
570.995	31204.56
571.193	30801.11
571.392	31046.86
571.59	30500.06
571.789	30852.31
571.987	30606.55
572.186	30692.57
572.384	30244.06
572.582	30964.95
572.781	30764.25
572.979	30115.04
573.177	30225.63
573.376	30631.13
573.574	29813.99
573.772	30209.25
573.971	29897.95
574.169	30086.37
574.367	29766.88
574.565	29967.59
574.763	29795.56
574.962	29662.44
575.16	29426.92
575.358	29627.62
575.556	29238.51
575.754	29625.57
575.952	29117.68
576.151	29332.72
576.349	29005.04
576.547	28914.93
576.745	29351.15
576.943	29019.38
577.141	28894.45
577.339	28939.51
577.537	28900.59
577.735	28796.15
577.933	28626.17
578.131	28663.03
578.329	28280.06
578.527	28239.1
578.725	28337.4
578.923	28591.35
579.121	28144.89
579.319	28167.42
579.516	28194.04
579.714	28087.55
579.912	28044.54
580.11	27647.24
580.308	28032.25
580.506	27862.27
580.704	27639.04
580.901	27983.1
581.099	27907.33
581.297	27364.62
581.495	27151.63
581.692	27671.81
581.89	27059.47
582.088	27294.99
582.285	27043.09
582.483	27266.31
582.681	27337.99
582.878	27075.85
583.076	26694.93
583.274	27163.92
583.471	26791.19
583.669	26815.76
583.866	26649.88
584.064	26758.42
584.262	26377.5
584.459	26766.61
584.657	26504.47
584.854	26653.97
585.052	25978.14
585.249	26264.86
585.447	26451.22
585.644	26119.45
585.841	26178.84
586.039	26090.78
586.236	25845.02
586.434	25750.82
586.631	25980.19
586.828	25826.59
587.026	25822.5
587.223	25769.25
587.42	25662.76
587.618	25503.01
587.815	25361.7
588.012	25240.87
588.21	25345.32
588.407	25713.95
588.604	25584.93
588.801	25136.43
588.999	25470.25
589.196	25146.67
589.393	25269.55
589.59	25171.24
589.787	24802.61
589.984	24929.58
590.182	24583.48
590.379	24857.9
590.576	24669.49
590.773	24810.8
590.97	24622.39
591.167	24878.38
591.364	24360.25
591.561	24769.84
591.758	24261.94
591.955	24237.37
592.152	24683.83
592.349	24642.87
592.546	24323.38
592.743	24243.51
592.94	23741.76
593.137	24206.65
593.334	24384.82
593.531	23987.52
593.727	24165.69
593.924	24157.5
594.121	23973.18
594.318	24083.77
594.515	23438.66
594.712	24073.53
594.908	23741.76
595.105	24055.1
595.302	23823.68
595.499	23874.88
595.696	23926.08
595.892	23592.26
596.089	23647.55
596.286	23883.07
596.482	23819.58
596.679	23704.9
596.876	23598.4
597.072	23438.66
597.269	23541.06
597.466	23565.64
597.662	23172.43
597.859	23569.73
598.055	23518.53
598.252	23250.25
598.448	23473.48
598.645	23414.09
598.841	23131.47
599.038	23801.15
599.234	23397.7
599.431	23201.1
599.627	23385.41
599.824	23612.74
600.02	23266.63
600.217	23450.95
600.413	23358.79
600.609	23190.86
600.806	23221.58
601.002	23401.8
601.198	23276.87
601.395	23354.69
601.591	23166.28
601.787	23188.81
601.984	23461.19
602.18	23659.84
602.376	23561.54
602.572	23172.43
602.769	23526.72
602.965	23065.93
603.161	23174.47
603.357	23375.17
603.553	23264.58
603.75	23244.1
603.946	23307.59
604.142	23604.55
604.338	23065.93
604.534	23498.05
604.73	23348.55
604.926	23407.94
605.122	23369.03
605.318	23270.73
605.514	23432.52
605.71	23278.92
605.906	23528.77
606.102	23280.97
606.298	23749.95
606.494	23532.87
606.69	23668.03
606.886	23414.09
607.082	23661.89
607.278	23950.65
607.474	23379.27
607.67	23844.16
607.866	23315.78
608.062	23768.38
608.257	23817.54
608.453	23622.98
608.649	23629.12
608.845	24003.9
609.041	24042.81
609.236	24046.91
609.432	23721.28
609.628	24038.72
609.824	23850.3
610.019	24012.09
610.215	23917.89
610.411	24255.8
610.606	24014.14
610.802	24149.31
610.998	24175.93
611.193	23985.47
611.389	23733.57
611.584	24120.63
611.78	24051
611.976	24014.14
612.171	24360.25
612.367	24124.73
612.562	24067.39
612.758	24286.52
612.953	24059.2
613.149	24255.8
613.344	24137.02
613.539	24458.55
613.735	24266.04
613.93	24438.07
614.126	24395.06
614.321	24524.08
614.517	24470.84
614.712	24126.78
614.907	24161.59
615.103	24610.1
615.298	24474.93
615.493	24751.41
615.688	24474.93
615.884	25152.81
616.079	24263.99
616.274	24630.58
616.47	24616.24
616.665	24339.77
616.86	24231.22
617.055	24263.99
617.25	24542.52
617.445	24358.2
617.641	24184.12
617.836	24372.53
618.031	24276.28
618.226	24059.2
618.421	24386.87
618.616	24393.01
618.811	23850.3
619.006	24409.4
619.201	24118.59
619.396	24141.11
619.591	23557.44
619.786	24124.73
619.981	23453
620.176	23840.06
620.371	23653.7
620.566	23799.1
620.761	23590.21
620.956	23618.88
621.151	23209.29
621.346	23496
621.541	22818.13
621.735	23199.05
621.93	23233.86
622.125	23211.34
622.32	22838.61
622.515	22785.36
622.709	22682.96
622.904	22881.61
623.099	22447.44
623.294	22355.29
623.488	22308.18
623.683	22631.76
623.878	22066.52
624.072	22193.5
624.267	22087
624.462	22072.67
624.656	21841.25
624.851	21972.32
625.046	21556.58
625.24	21597.54
625.435	21648.74
625.629	21648.74
625.824	21122.41
626.018	21095.78
626.213	20888.94
626.407	21345.64
626.602	20807.02
626.796	20972.91
626.991	20858.22
627.185	20548.98
627.38	20735.34
627.574	20759.92
627.768	20471.15
627.963	20151.67
628.157	20225.4
628.352	20112.76
628.546	19932.54
628.74	20110.71
628.935	19613.06
629.129	19750.27
629.323	19709.31
629.517	19459.46
629.712	19668.35
629.906	19647.87
630.1	19180.93
630.294	19277.19
630.489	19264.9
630.683	19170.69
630.877	18916.75
631.071	18834.83
631.265	18957.71
631.459	18920.84
631.653	18521.49
631.848	18726.28
632.042	18349.46
632.236	18730.38
632.43	17894.81
632.624	18265.49
632.818	17905.05
633.012	17911.19
633.206	17923.48
633.4	17905.05
633.594	17786.27
633.788	17929.63
633.982	17712.54
634.176	17536.42
634.369	17417.63
634.563	17329.57
634.757	17280.42
634.951	17249.7
635.145	17288.61
635.339	16934.31
635.533	16862.63
635.726	16868.78
635.92	16395.7
636.114	16838.06
636.308	16489.9
636.501	16446.9
636.695	16541.1
636.889	16256.43
637.083	16344.5
637.276	16072.12
637.47	15988.15
637.664	15932.86
637.857	15885.75
638.051	15744.44
638.244	15640
638.438	15746.49
638.632	15560.13
638.825	15373.76
639.019	15289.79
639.212	15250.88
639.406	15136.2
639.599	15111.62
639.793	15011.27
639.986	14880.2
640.18	14800.33
640.373	14745.03
640.567	14503.37
640.76	14849.48
640.954	14190.03
641.147	14431.69
641.34	14323.15
641.534	14157.27
641.727	14183.89
641.92	14046.68
642.114	14058.96
642.307	13987.29
642.5	13780.44
642.694	13536.73
642.887	13321.7
643.08	13653.47
643.273	13520.35
643.467	13456.86
643.66	13131.23
643.853	13084.13
644.046	12996.07
644.239	13014.5
644.432	12832.23
644.626	12914.15
644.819	12905.96
645.012	12555.76
645.205	12828.13
645.398	12613.1
645.591	12557.8
645.784	12678.63
645.977	12463.6
646.17	12344.81
646.363	12436.97
646.556	11863.54
646.749	11974.13
646.942	12189.17
647.135	11953.65
647.328	11986.42
647.521	11830.77
647.714	11892.21
647.907	11773.43
648.099	11632.12
648.292	11759.1
648.485	11578.87
648.678	11570.68
648.871	11490.81
649.064	11257.34
649.256	11335.17
649.449	11437.56
649.642	11027.97
649.835	11007.49
650.027	10909.19
650.22	10851.85
650.413	10819.08
650.605	10876.42
650.798	10837.51
650.991	10614.28
651.183	10645
651.376	10479.11
651.568	10399.24
651.761	10446.35
651.954	10432.01
652.146	10382.86
652.339	10307.09
652.531	10364.43
652.724	10188.3
652.916	9981.46
653.109	10051.09
653.301	10100.24
653.494	10073.62
653.686	9850.39
653.879	9903.64
654.071	9795.09
654.263	9586.2
654.456	9578.01
654.648	9825.81
654.84	9475.61
655.033	9541.15
655.225	9559.58
655.417	9465.37
655.61	9283.1
655.802	9375.26
655.994	9420.31
656.186	9317.92
656.379	9182.75
656.571	9082.4
656.763	9039.39
656.955	9137.7
657.148	9192.99
657.34	9166.37
657.532	8664.61
657.724	9000.48
657.916	8889.89
658.108	8695.33
658.3	8447.53
658.492	8726.05
658.684	8586.79
658.876	8533.54
659.068	8564.26
659.26	8439.34
659.452	8443.43
659.644	8484.39
659.836	8166.96
660.028	8363.56
660.22	8242.73
660.412	8353.32
660.604	8222.25
660.796	8050.22
660.988	8111.66
661.18	7996.98
661.372	7894.58
661.563	8005.17
661.755	8027.7
661.947	7874.1
662.139	7704.12
662.331	7818.8
662.522	7573.05
662.714	7630.39
662.906	7689.78
663.097	7568.95
663.289	7489.08
663.481	7564.86
663.673	7497.27
663.864	7294.52
664.056	7376.44
664.247	7286.33
664.439	7204.41
664.631	7300.67
664.822	7292.48
665.014	7321.15
665.205	7077.44
665.397	7155.26
665.588	7147.07
665.78	6819.39
665.971	7026.24
666.163	6909.51
666.354	6901.31
666.546	6919.75
666.737	6925.89
666.929	6782.53
667.12	6829.63
667.311	6825.54
667.503	6587.97
667.694	6827.59
667.885	6493.77
668.077	6659.65
668.268	6565.45
668.459	6610.5
668.651	6680.13
668.842	6526.54
669.033	6331.98
669.224	6575.69
669.416	6518.34
669.607	6260.3
669.798	6317.64
669.989	6270.54
670.18	6315.59
670.371	6395.47
670.563	6180.43
670.754	6202.96
670.945	6207.05
671.136	6196.81
671.327	6067.79
671.518	6008.4
671.709	6172.24
671.9	6137.42
672.091	6262.35
672.282	5953.1
672.473	5963.34
672.664	5959.25
672.855	5912.14
673.046	5961.3
673.237	5981.78
673.428	5928.53
673.619	5779.03
673.809	5869.14
674	5672.53
674.191	5942.86
674.382	5867.09
674.573	5729.88
674.764	5852.75
674.954	5822.03
675.145	5588.57
675.336	5690.96
675.527	5744.21
675.717	5527.13
675.908	5504.6
676.099	5613.14
676.289	5647.96
676.48	5543.51
676.671	5482.07
676.861	5434.97
677.052	5469.78
677.243	5400.15
677.433	5498.45
677.624	5621.33
677.814	5342.81
678.005	5625.43
678.195	5541.46
678.386	5475.93
678.576	5269.08
678.767	5398.1
678.957	5351
679.148	5512.79
679.338	5498.45
679.529	5385.82
679.719	5351
679.909	5353.05
680.1	5203.55
680.29	5377.62
680.481	5213.79
680.671	5277.27
680.861	5424.73
681.052	5334.62
681.242	5219.93
681.432	5097.05
681.622	5168.73
681.813	5183.07
682.003	5236.31
682.193	5135.96
682.383	5115.48
682.573	5086.81
682.764	5035.61
682.954	5191.26
683.144	5424.73
683.334	5189.21
683.524	5301.85
683.714	5170.78
683.904	5160.54
684.094	5150.3
684.284	5213.79
684.474	5285.47
684.664	5277.27
684.854	5277.27
685.044	5213.79
685.234	5115.48
685.424	5047.9
685.614	4998.75
685.804	5125.72
685.994	5041.76
686.184	5027.42
686.374	4998.75
686.564	5113.44
686.753	5004.89
686.943	4937.31
687.133	4941.41
687.323	4849.25
687.513	5015.13
687.702	4820.58
687.892	4871.78
688.082	4716.13
688.272	4791.91
688.461	4933.22
688.651	4828.77
688.841	4806.24
689.03	4796
689.22	4904.54
689.41	4812.39
689.599	4709.99
689.789	4752.99
689.979	4687.46
690.168	4775.52
690.358	4675.17
690.547	4568.68
690.737	4572.77
690.926	4703.84
691.116	4591.2
691.305	4656.74
691.495	4683.36
691.684	4509.29
691.874	4599.4
692.063	4515.43
692.252	4654.69
692.442	4621.92
692.631	4503.14
692.82	4564.58
693.01	4462.18
693.199	4513.38
693.388	4515.43
693.578	4591.2
693.767	4435.56
693.956	4460.13
694.146	4347.5
694.335	4433.51
694.524	4449.89
694.713	4417.13
694.902	4443.75
695.092	4458.09
695.281	4349.54
695.47	4410.98
695.659	4431.46
695.848	4341.35
696.037	4329.06
696.226	4396.65
696.415	4279.91
696.604	4183.66
696.793	4118.12
696.982	4353.64
697.171	4339.3
697.36	4298.35
697.549	4169.32
697.738	4345.45
697.927	4220.52
698.116	4294.25
698.305	4220.52
698.494	4042.35
698.683	4241
698.872	4206.19
699.061	4114.03
699.25	4173.42
699.438	4154.99
699.627	4181.61
699.816	4028.01
700.005	4134.51
700.193	4073.07
700.382	4148.84
700.571	4081.26
700.76	4093.55
700.948	4138.6
701.137	4095.6
701.326	4038.25
701.514	4011.63
701.703	3991.15
701.892	4028.01
702.08	3991.15
702.269	3978.86
702.457	3935.85
702.646	3917.42
702.834	4066.92
703.023	3942
703.212	3915.37
703.4	3835.5
703.589	3954.29
703.777	4044.4
703.965	3876.46
704.154	3929.71
704.342	3884.66
704.531	3868.27
704.719	3892.85
704.907	3829.36
705.096	3616.37
705.284	3749.49
705.472	3751.54
705.661	3853.94
705.849	3753.59
706.037	3663.47
706.226	3640.95
706.414	3677.81
706.602	3696.24
706.79	3800.69
706.979	3575.41
707.167	3712.63
707.355	3655.28
707.543	3626.61
707.731	3839.6
707.919	3442.29
708.107	3561.08
708.296	3559.03
708.484	3563.12
708.672	3583.6
708.86	3669.62
709.048	3430.01
709.236	3466.87
709.424	3542.64
709.612	3565.17
709.8	3419.77
709.988	3425.91
710.176	3411.57
710.364	3444.34
710.551	3511.93
710.739	3503.73
710.927	3346.04
711.115	3532.4
711.303	3462.77
711.491	3266.17
711.679	3436.15
711.866	3366.52
712.054	3405.43
712.242	3366.52
712.43	3440.25
712.617	3307.13
712.805	3360.38
712.993	3280.5
713.181	3169.91
713.368	3204.73
713.556	3294.84
713.744	3298.94
713.931	3190.39
714.119	3212.92
714.306	3202.68
714.494	3180.15
714.682	3233.4
714.869	3372.66
715.057	3329.66
715.244	3303.03
715.432	3288.7
715.619	3081.85
715.807	3284.6
715.994	3157.63
716.182	3239.55
716.369	3176.06
716.556	2954.88
716.744	3157.63
716.931	3004.03
717.119	3090.04
717.306	3055.23
717.493	3090.04
717.681	2905.73
717.868	3122.81
718.055	3100.28
718.242	3071.61
718.43	3133.05
718.617	3026.56
718.804	3024.51
718.991	3026.56
719.179	2983.55
719.366	3088
719.553	3001.98
719.74	2936.45
719.927	2915.97
720.114	2848.38
720.301	2772.61
720.488	2952.83
720.676	2793.09
720.863	2920.06
721.05	2926.21
721.237	2854.53
721.424	2920.06
721.611	2827.9
721.798	2836.1
721.985	2762.37
722.172	2649.73
722.358	2680.45
722.545	2807.42
722.732	2803.33
722.919	2688.64
723.106	2657.92
723.293	2647.68
723.48	2766.46
723.667	2758.27
723.853	2592.39
724.04	2745.98
724.227	2731.65
724.414	2655.87
724.6	2657.92
724.787	2657.92
724.974	2762.37
725.161	2649.73
725.347	2492.04
725.534	2721.41
725.72	2612.87
725.907	2690.69
726.094	2741.89
726.28	2614.91
726.467	2639.49
726.653	2553.48
726.84	2592.39
727.027	2688.64
727.213	2434.69
727.4	2533
727.586	2401.93
727.773	2522.76
727.959	2631.3
728.145	2500.23
728.332	2438.79
728.518	2391.69
728.705	2533
728.891	2549.38
729.077	2487.94
729.264	2453.13
729.45	2592.39
729.636	2512.52
729.823	2473.6
730.009	2524.8
730.195	2436.74
730.382	2586.24
730.568	2317.96
730.754	2451.08
730.94	2369.16
731.126	2342.53
731.313	2418.31
731.499	2381.45
731.685	2381.45
731.871	2313.86
732.057	2410.12
732.243	2520.71
732.429	2215.56
732.615	2385.54
732.801	2324.1
732.987	2287.24
733.173	2289.29
733.359	2225.8
733.545	2320.01
733.731	2281.1
733.917	2225.8
734.103	2317.96
734.289	2270.86
734.475	2252.42
734.661	2266.76
734.847	2215.56
735.033	2295.43
735.219	2285.19
735.404	2301.58
735.59	2143.88
735.776	2244.23
735.962	2188.94
736.148	2199.18
736.333	2225.8
736.519	2217.61
736.705	2182.79
736.89	2188.94
737.076	2162.31
737.262	2082.44
737.447	2170.51
737.633	2098.83
737.819	2211.46
738.004	2133.64
738.19	2068.11
738.375	1961.61
738.561	2168.46
738.747	1965.71
738.932	1986.19
739.118	2158.22
739.303	2016.91
739.489	2037.39
739.674	2045.58
739.859	2031.24
740.045	1947.28
740.23	1932.94
740.416	1922.7
740.601	1937.04
740.786	1984.14
740.972	2025.1
741.157	1887.89
741.342	2008.72
741.528	1920.65
741.713	1877.65
741.898	1851.02
742.084	1961.61
742.269	1951.37
742.454	1918.61
742.639	1937.04
742.824	1955.47
743.01	1822.35
743.195	1988.24
743.38	1805.97
743.565	1828.49
743.75	1877.65
743.935	1730.19
744.12	1865.36
744.305	1656.47
744.49	1752.72
744.675	1797.78
744.86	1736.34
745.045	1808.02
745.23	1785.49
745.415	1713.81
745.6	1848.97
745.785	1635.99
745.97	1738.38
746.155	1767.06
746.34	1656.47
746.525	1838.73
746.71	1726.1
746.895	1730.19
747.079	1742.48
747.264	1756.82
747.449	1664.66
747.634	1681.04
747.819	1705.62
748.003	1609.36
748.188	1674.9
748.373	1689.23
748.557	1691.28
748.742	1590.93
748.927	1656.47
749.111	1588.88
749.296	1582.74
749.481	1492.63
749.665	1478.29
749.85	1545.88
750.034	1562.26
750.219	1552.02
750.404	1468.05
750.588	1468.05
750.773	1357.46
750.957	1500.82
751.141	1420.95
751.326	1468.05
751.51	1455.76
751.695	1412.76
751.879	1312.41
752.064	1439.38
752.248	1371.8
752.432	1506.96
752.617	1455.76
752.801	1517.2
752.985	1336.98
753.17	1347.22
753.354	1298.07
753.538	1312.41
753.722	1259.16
753.907	1244.82
754.091	1259.16
754.275	1238.68
754.459	1222.3
754.643	1328.79
754.828	1214.1
755.012	1246.87
755.196	1296.02
755.38	1234.58
755.564	1189.53
755.748	1207.96
755.932	1240.73
756.116	1283.74
756.3	1140.38
756.484	1205.91
756.668	1136.28
756.852	1167
757.036	1148.57
757.22	1146.52
757.404	1097.37
757.588	1230.49
757.772	1154.71
757.956	1152.67
758.14	1160.86
758.323	1054.36
758.507	1095.32
758.691	1099.42
758.875	1078.94
759.059	1068.7
759.242	1074.84
759.426	1042.07
759.61	1050.27
759.794	1083.03
759.977	1109.66
760.161	1070.75
760.345	1031.83
760.528	1050.27
760.712	1019.55
760.895	968.35
761.079	964.25
761.263	874.14
761.446	947.87
761.63	927.39
761.813	1025.69
761.997	984.73
762.18	982.68
762.364	970.4
762.547	878.24
762.731	964.25
762.914	1005.21
763.098	812.7
763.281	1017.5
763.464	951.96
763.648	954.01
763.831	984.73
764.015	878.24
764.198	1023.64
764.381	931.48
764.564	951.96
764.748	880.29
764.931	911
765.114	915.1
765.297	960.16
765.481	892.57
765.664	849.57
765.847	892.57
766.03	902.81
766.213	837.28
766.397	943.77
766.58	824.99
766.763	880.29
766.946	861.85
767.129	876.19
767.312	870.05
767.495	804.51
767.678	855.71
767.861	927.39
768.044	837.28
768.227	878.24
768.41	841.37
768.593	929.44
768.776	853.66
768.959	880.29
769.142	861.85
769.324	843.42
769.507	784.03
769.69	818.85
769.873	863.9
770.056	904.86
770.239	790.17
770.421	863.9
770.604	706.21
770.787	771.74
770.97	773.79
771.152	710.3
771.335	853.66
771.518	806.56
771.7	804.51
771.883	812.7
772.066	741.02
772.248	820.89
772.431	788.13
772.613	779.93
772.796	839.33
772.978	693.92
773.161	802.46
773.343	720.54
773.526	736.93
773.708	706.21
773.891	689.82
774.073	738.98
774.256	609.95
774.438	722.59
774.621	722.59
774.803	681.63
774.985	661.15
775.168	743.07
775.35	618.15
775.532	685.73
775.715	640.67
775.897	609.95
776.079	652.96
776.261	652.96
776.444	620.19
776.626	712.35
776.808	587.43
776.99	636.58
777.173	673.44
777.355	622.24
777.537	620.19
777.719	665.25
777.901	616.1
778.083	552.61
778.265	560.8
778.447	616.1
778.629	538.27
778.811	532.13
778.993	587.43
779.175	564.9
779.357	550.56
779.539	534.18
779.721	532.13
779.903	624.29
780.085	521.89
780.267	624.29
780.449	517.79
780.631	525.99
780.812	616.1
780.994	548.51
781.176	591.52
781.358	536.23
781.54	515.75
781.721	550.56
781.903	503.46
782.085	495.27
782.267	609.95
782.448	538.27
782.63	513.7
782.812	503.46
782.993	491.17
783.175	480.93
783.357	538.27
783.538	478.88
783.72	464.55
783.901	433.83
784.083	452.26
784.264	480.93
784.446	466.6
784.627	466.6
784.809	439.97
784.99	427.68
785.172	466.6
785.353	435.88
785.535	437.92
785.716	485.03
785.897	478.88
786.079	394.92
786.26	417.44
786.441	323.24
786.623	444.07
786.804	444.07
786.985	452.26
787.167	421.54
787.348	405.16
787.529	423.59
787.71	396.96
787.891	403.11
788.073	333.48
788.254	366.25
788.435	386.72
788.616	407.2
788.797	356.01
788.978	405.16
789.159	388.77
789.34	347.81
789.522	321.19
789.703	329.38
789.884	351.91
790.065	388.77
790.246	464.55
790.427	419.49
790.607	364.2
790.788	370.34
790.969	306.85
791.15	306.85
791.331	278.18
791.512	351.91
791.693	315.05
791.874	274.09
792.054	390.82
792.235	358.05
792.416	304.81
792.597	286.37
792.778	362.15
792.958	304.81
793.139	329.38
793.32	308.9
793.5	259.75
793.681	337.57
793.862	290.47
794.042	337.57
794.223	245.41
794.404	280.23
794.584	194.22
794.765	233.13
794.945	374.44
795.126	304.81
795.306	292.52
795.487	337.57
795.667	329.38
795.848	265.89
796.028	284.33
796.209	280.23
796.389	300.71
796.57	239.27
796.75	276.13
796.93	259.75
797.111	249.51
797.291	284.33
797.471	198.31
797.652	274.09
797.832	202.41
798.012	329.38
798.192	269.99
798.373	282.28
798.553	259.75
798.733	257.7
798.913	261.8
799.093	190.12
799.274	245.41
799.454	296.61
799.634	208.55
799.814	276.13
799.994	247.46
800.174	224.94
800.354	231.08
800.534	243.37
800.714	210.6
800.894	284.33
801.074	157.35
801.254	267.94
801.434	263.85
801.614	202.41
801.794	202.41
801.974	781.98
802.154	231.08
802.334	243.37
802.514	257.7
802.693	200.36
802.873	138.92
803.053	292.52
803.233	177.83
803.413	255.65
803.592	134.82
803.772	190.12
803.952	188.07
804.131	200.36
804.311	255.65
804.491	196.26
804.67	239.27
804.85	157.35
805.03	173.74
805.209	169.64
805.389	110.25
805.568	276.13
805.748	239.27
805.928	183.98
806.107	167.59
806.287	177.83
806.466	204.46
806.646	206.5
806.825	128.68
807.004	186.02
807.184	186.02
807.363	173.74
807.543	122.54
807.722	134.82
807.901	132.78
808.081	153.26
808.26	171.69
808.439	151.21
808.619	145.06
808.798	192.17
808.977	198.31
809.156	102.06
809.336	149.16
809.515	110.25
809.694	169.64
809.873	183.98
810.052	100.01
810.231	165.54
810.411	198.31
810.59	243.37
810.769	181.93
810.948	145.06
811.127	83.63
811.306	165.54
811.485	110.25
811.664	104.11
811.843	210.6
812.022	159.4
812.201	118.44
812.38	108.2
812.559	143.02
812.737	186.02
812.916	44.71
813.095	93.87
813.274	132.78
813.453	108.2
813.632	169.64
813.811	165.54
813.989	75.43
814.168	42.67
814.347	128.68
814.526	77.48
814.704	151.21
814.883	194.22
815.062	93.87
815.24	110.25
815.419	91.82
815.598	136.87
815.776	65.19
815.955	118.44
816.133	120.49
816.312	124.58
816.49	69.29
816.669	132.78
816.847	69.29
817.026	102.06
817.204	124.58
817.383	132.78
817.561	61.1
817.74	57
817.918	155.3
818.097	118.44
818.275	126.63
818.453	85.67
818.632	183.98
818.81	108.2
818.988	42.67
819.167	108.2
819.345	132.78
819.523	110.25
819.701	100.01
819.879	128.68
820.058	91.82
820.236	77.48
820.414	59.05
820.592	83.63
820.77	79.53
820.948	104.11
821.127	108.2
821.305	97.96
821.483	50.86
821.661	190.12
821.839	108.2
822.017	75.43
822.195	108.2
822.373	169.64
822.551	42.67
822.729	163.5
822.907	118.44
823.085	110.25
823.262	83.63
823.44	1.71
823.618	75.43
823.796	87.72
823.974	81.58
824.152	30.38
824.329	42.67
824.507	130.73
824.685	75.43
824.863	11.95
825.04	87.72
825.218	81.58
825.396	83.63
825.574	87.72
825.751	106.15
825.929	122.54
826.107	52.91
826.284	124.58
826.462	46.76
826.639	67.24
826.817	44.71
826.994	38.57
827.172	81.58
827.349	108.2
827.527	57
827.704	118.44
827.882	71.34
828.059	34.47
828.237	46.76
828.414	165.54
828.591	67.24
828.769	91.82
828.946	77.48
829.124	52.91
829.301	153.26
829.478	46.76
829.655	59.05
829.833	116.39
830.01	-53.59
830.187	93.87
830.364	173.74
830.542	61.1
830.719	75.43
830.896	108.2
831.073	52.91
831.25	102.06
831.427	50.86
831.604	54.95
831.782	63.15
831.959	116.39
832.136	71.34
832.313	79.53
832.49	54.95
832.667	69.29
832.844	116.39
833.021	38.57
833.198	26.28
833.374	50.86
833.551	95.91
833.728	46.76
833.905	145.06
834.082	59.05
834.259	18.09
834.436	50.86
834.612	30.38
834.789	173.74
834.966	102.06
835.143	83.63
835.319	11.95
835.496	42.67
835.673	93.87
835.85	122.54
836.026	34.47
836.203	59.05
836.38	95.91
836.556	26.28
836.733	34.47
836.909	28.33
837.086	11.95
837.262	69.29
837.439	-12.63
837.616	26.28
837.792	57
837.968	128.68
838.145	-12.63
838.321	34.47
838.498	-16.73
838.674	69.29
838.851	38.57
839.027	95.91
839.203	77.48
839.38	69.29
839.556	91.82
839.732	34.47
839.909	104.11
840.085	46.76
840.261	1.71
840.437	1.71
840.614	-2.39
840.79	75.43
840.966	63.15
841.142	38.57
841.318	36.52
841.494	38.57
841.671	22.19
841.847	-53.59
842.023	3.75
842.199	-6.49
842.375	87.72
842.551	18.09
842.727	67.24
842.903	75.43
843.079	-22.87
843.255	75.43
843.431	57
843.607	36.52
843.783	65.19
843.959	59.05
844.134	1.71
844.31	59.05
844.486	-22.87
844.662	54.95
844.838	9.9
845.013	20.14
845.189	-12.63
845.365	5.8
845.541	112.3
845.716	34.47
845.892	71.34
846.068	-29.01
846.244	63.15
846.419	34.47
846.595	40.62
846.77	-6.49
846.946	44.71
847.122	54.95
847.297	-10.58
847.473	50.86
847.648	22.19
847.824	95.91
847.999	1.71
848.175	36.52
848.35	75.43
848.526	40.62
848.701	28.33
848.876	-43.35
849.052	18.09
849.227	13.99
849.403	87.72
849.578	20.14
849.753	9.9
849.929	67.24
850.104	-49.49
850.279	-31.06
850.454	-94.55
850.63	50.86
850.805	83.63
850.98	46.76
851.155	75.43
851.33	71.34
851.505	24.23
851.681	89.77
851.856	50.86
852.031	63.15
852.206	38.57
852.381	9.9
852.556	-14.68
852.731	48.81
852.906	-0.34
853.081	54.95
853.256	83.63
853.431	-22.87
853.606	-69.97
853.781	-18.77
853.956	-45.4
854.131	75.43
854.305	-20.82
854.48	11.95
854.655	-61.78
854.83	-0.34
855.005	22.19
855.18	20.14
855.354	13.99
855.529	11.95
855.704	-8.53
855.879	-37.2
856.053	83.63
856.228	-6.49
856.403	-14.68
856.577	42.67
856.752	9.9
856.926	-43.35
857.101	75.43
857.276	-84.31
857.45	36.52
857.625	13.99
857.799	11.95
857.974	-33.11
858.148	13.99
858.323	9.9
858.497	46.76
858.672	-43.35
858.846	-26.96
859.02	52.91
859.195	-57.68
859.369	52.91
859.543	-10.58
859.718	1.71
859.892	-49.49
860.066	22.19
860.241	26.28
860.415	16.04
860.589	7.85
860.763	50.86
860.938	-2.39
861.112	-39.25
861.286	-94.55
861.46	145.06
861.634	-22.87
861.808	32.43
861.982	-2.39
862.157	-26.96
862.331	-6.49
862.505	9.9
862.679	-41.3
862.853	-31.06
863.027	7.85
863.201	46.76
863.375	-69.97
863.549	9.9
863.722	34.47
863.896	-22.87
864.07	-74.07
864.244	-6.49
864.418	-14.68
864.592	-6.49
864.766	-18.77
864.939	34.47
865.113	-39.25
865.287	69.29
865.461	-63.83
865.634	-4.44
865.808	61.1
865.982	-6.49
866.156	-55.64
866.329	-22.87
866.503	34.47
866.676	26.28
866.85	11.95
867.024	9.9
867.197	59.05
867.371	-6.49
867.544	-2.39
867.718	-14.68
867.891	-29.01
868.065	-29.01
868.238	69.29
868.412	81.58
868.585	-20.82
868.759	42.67
868.932	-24.92
869.105	-22.87
869.279	42.67
869.452	-31.06
869.625	34.47
869.799	11.95
869.972	-14.68
870.145	20.14
870.319	38.57
870.492	3.75
870.665	24.23
870.838	-16.73
871.011	-22.87
871.185	-10.58
871.358	22.19
871.531	79.53
871.704	-29.01
871.877	26.28
872.05	-55.64
872.223	24.23
872.396	81.58
872.569	26.28
872.742	-78.16
872.915	3.75
873.088	20.14
873.261	-2.39
873.434	75.43
873.607	-16.73
873.78	42.67
873.953	-78.16
874.126	1.71
874.299	18.09
874.471	-26.96
874.644	-6.49
874.817	36.52
874.99	77.48
875.163	-45.4
875.335	-35.16
875.508	-14.68
875.681	130.73
875.853	79.53
876.026	5.8
876.199	26.28
876.371	28.33
876.544	-12.63
876.717	-31.06
876.889	-45.4
877.062	91.82
877.234	-55.64
877.407	1.71
877.579	-2.39
877.752	-12.63
877.924	-0.34
878.097	-14.68
878.269	5.8
878.442	24.23
878.614	-6.49
878.786	3.75
878.959	69.29
879.131	3.75
879.303	-22.87
879.476	-29.01
879.648	85.67
879.82	42.67
879.993	13.99
880.165	-12.63
880.337	-51.54
880.509	-41.3
880.681	-53.59
880.854	1.71
881.026	3.75
881.198	48.81
881.37	-39.25
881.542	26.28
881.714	28.33
881.886	-63.83
882.058	-20.82
882.23	44.71
882.402	-43.35
882.574	-22.87
882.746	67.24
882.918	30.38
883.09	32.43
883.262	9.9
883.434	28.33
883.606	-43.35
883.778	18.09
883.95	79.53
884.122	1.71
884.293	54.95
884.465	-76.12
884.637	18.09
884.809	34.47
884.98	3.75
885.152	28.33
885.324	42.67
885.496	-31.06
885.667	-20.82
885.839	13.99
886.011	59.05
886.182	13.99
886.354	-35.16
886.525	11.95
886.697	-12.63
886.869	-2.39
887.04	18.09
887.212	93.87
887.383	61.1
887.555	-35.16
887.726	100.01
887.897	-53.59
888.069	-43.35
888.24	59.05
888.412	28.33
888.583	-57.68
888.754	30.38
888.926	-86.36
889.097	42.67
889.268	-72.02
889.44	18.09
889.611	5.8
889.782	50.86
889.953	-45.4
890.125	69.29
890.296	-51.54
890.467	11.95
890.638	9.9
890.809	63.15
890.98	-67.92
891.151	61.1
891.323	44.71
891.494	50.86
891.665	34.47
891.836	34.47
892.007	30.38
892.178	20.14
892.349	9.9
892.52	-63.83
892.691	-39.25
892.862	-90.45
893.032	-51.54
893.203	-55.64
893.374	50.86
893.545	26.28
893.716	-31.06
893.887	3.75
894.057	36.52
894.228	-78.16
894.399	-82.26
894.57	42.67
894.74	50.86
894.911	13.99
895.082	32.43
895.253	-51.54
895.423	-63.83
895.594	-43.35
895.764	-61.78
895.935	9.9
896.106	36.52
896.276	-33.11
896.447	44.71
896.617	-22.87
896.788	-72.02
896.958	-2.39
897.129	-6.49
897.299	-2.39
897.47	65.19
897.64	38.57
897.81	13.99
897.981	-14.68
898.151	-18.77
898.322	26.28
898.492	18.09
898.662	1.71
898.832	-10.58
899.003	63.15
899.173	-2.39
899.343	-14.68
899.513	13.99
