Data from USB4F104151__252__14-34-16-259.txt Node

Date: Thu Mar 13 14:34:16 EDT 2025
User: louis
Spectrometer: USB4F10415
Trigger mode: 4
Integration Time (sec): 2.500000E-2
Scans to average: 1
Electric dark correction enabled: true
Nonlinearity correction enabled: false
Boxcar width: 0
XAxis mode: Wavelengths
Number of Pixels in Spectrum: 3648
>>>>>Begin Spectral Data<<<<<
178.204	-78.68
178.424	-78.68
178.644	-78.68
178.864	-123.73
179.084	-172.88
179.304	23.72
179.524	19.63
179.744	-17.24
179.964	27.82
180.184	-13.14
180.404	-21.33
180.624	15.53
180.844	-2.9
181.064	-4.95
181.283	19.63
181.503	-41.81
181.723	-4.95
181.943	3.24
182.163	29.87
182.383	-29.52
182.602	7.34
182.822	68.78
183.042	23.72
183.262	-11.09
183.482	27.82
183.701	44.2
183.921	23.72
184.141	-68.44
184.361	44.2
184.58	1.19
184.8	70.83
185.02	11.43
185.239	68.78
185.459	11.43
185.679	64.68
185.898	5.29
186.118	68.78
186.338	-37.72
186.557	64.68
186.777	11.43
186.997	52.39
187.216	44.2
187.436	113.83
187.655	74.92
187.875	54.44
188.095	21.67
188.314	38.06
188.534	62.63
188.753	31.91
188.973	54.44
189.192	66.73
189.412	21.67
189.631	-11.09
189.851	40.11
190.07	87.21
190.29	-13.14
190.509	1.19
190.729	21.67
190.948	-13.14
191.168	130.22
191.387	91.31
191.607	-19.29
191.826	62.63
192.045	46.25
192.265	-45.91
192.484	136.36
192.704	17.58
192.923	46.25
193.142	36.01
193.362	11.43
193.581	52.39
193.8	76.97
194.02	138.41
194.239	44.2
194.458	15.53
194.678	27.82
194.897	40.11
195.116	48.3
195.335	76.97
195.555	76.97
195.774	11.43
195.993	21.67
196.212	29.87
196.432	-15.19
196.651	11.43
196.87	54.44
197.089	46.25
197.308	-45.91
197.528	17.58
197.747	-17.24
197.966	9.39
198.185	126.12
198.404	-9.05
198.623	85.16
198.842	126.12
199.062	19.63
199.281	40.11
199.5	15.53
199.719	46.25
199.938	46.25
200.157	56.49
200.376	44.2
200.595	66.73
200.814	3.24
201.033	-25.43
201.252	52.39
201.471	-70.48
201.69	36.01
201.909	95.4
202.128	50.35
202.347	93.35
202.566	44.2
202.785	3.24
203.004	7.34
203.223	101.55
203.442	70.83
203.661	19.63
203.879	27.82
204.098	38.06
204.317	-2.9
204.536	5.29
204.755	7.34
204.974	58.54
205.193	36.01
205.411	117.93
205.63	44.2
205.849	76.97
206.068	5.29
206.287	-13.14
206.505	119.98
206.724	33.96
206.943	36.01
207.162	-4.95
207.381	44.2
207.599	27.82
207.818	117.93
208.037	85.16
208.255	25.77
208.474	68.78
208.693	31.91
208.911	5.29
209.13	-7
209.349	40.11
209.567	27.82
209.786	62.63
210.005	101.55
210.223	15.53
210.442	-70.48
210.661	29.87
210.879	13.48
211.098	5.29
211.316	85.16
211.535	19.63
211.753	60.59
211.972	21.67
212.191	60.59
212.409	68.78
212.628	40.11
212.846	46.25
213.065	-21.33
213.283	38.06
213.502	31.91
213.72	38.06
213.938	60.59
214.157	5.29
214.375	138.41
214.594	-60.24
214.812	42.15
215.031	27.82
215.249	-27.48
215.467	62.63
215.686	76.97
215.904	64.68
216.122	64.68
216.341	93.35
216.559	15.53
216.778	52.39
216.996	54.44
217.214	50.35
217.432	56.49
217.651	11.43
217.869	87.21
218.087	31.91
218.306	3.24
218.524	70.83
218.742	33.96
218.96	36.01
219.179	66.73
219.397	85.16
219.615	72.87
219.833	68.78
220.051	-45.91
220.27	128.17
220.488	138.41
220.706	31.91
220.924	52.39
221.142	48.3
221.36	60.59
221.578	111.78
221.796	-4.95
222.015	62.63
222.233	-29.52
222.451	11.43
222.669	81.07
222.887	130.22
223.105	-15.19
223.323	19.63
223.541	-64.34
223.759	-0.85
223.977	-13.14
224.195	5.29
224.413	-2.9
224.631	40.11
224.849	29.87
225.067	113.83
225.285	11.43
225.503	-4.95
225.721	-33.62
225.939	-2.9
226.157	-25.43
226.375	93.35
226.592	36.01
226.81	11.43
227.028	54.44
227.246	36.01
227.464	21.67
227.682	7.34
227.9	68.78
228.117	56.49
228.335	40.11
228.553	19.63
228.771	27.82
228.989	52.39
229.206	54.44
229.424	-11.09
229.642	-4.95
229.86	-19.29
230.077	111.78
230.295	60.59
230.513	72.87
230.731	52.39
230.948	64.68
231.166	101.55
231.384	-21.33
231.601	117.93
231.819	38.06
232.037	27.82
232.254	7.34
232.472	60.59
232.689	48.3
232.907	36.01
233.125	36.01
233.342	56.49
233.56	-0.85
233.777	11.43
233.995	11.43
234.213	156.84
234.43	52.39
234.648	70.83
234.865	-25.43
235.083	46.25
235.3	33.96
235.518	-0.85
235.735	85.16
235.953	38.06
236.17	-43.86
236.388	-25.43
236.605	46.25
236.822	68.78
237.04	95.4
237.257	-27.48
237.475	48.3
237.692	79.02
237.909	-25.43
238.127	-17.24
238.344	89.26
238.562	29.87
238.779	54.44
238.996	-9.05
239.214	19.63
239.431	64.68
239.648	3.24
239.865	38.06
240.083	83.11
240.3	36.01
240.517	13.48
240.735	-21.33
240.952	64.68
241.169	64.68
241.386	27.82
241.603	-37.72
241.821	-31.57
242.038	15.53
242.255	52.39
242.472	9.39
242.689	46.25
242.907	68.78
243.124	15.53
243.341	27.82
243.558	50.35
243.775	74.92
243.992	-101.2
244.209	5.29
244.426	109.74
244.643	64.68
244.86	1.19
245.078	-0.85
245.295	54.44
245.512	87.21
245.729	-31.57
245.946	7.34
246.163	95.4
246.38	52.39
246.597	68.78
246.814	68.78
247.031	5.29
247.248	60.59
247.464	93.35
247.681	101.55
247.898	68.78
248.115	85.16
248.332	11.43
248.549	50.35
248.766	105.64
248.983	31.91
249.2	87.21
249.417	44.2
249.633	13.48
249.85	54.44
250.067	44.2
250.284	54.44
250.501	1.19
250.717	101.55
250.934	-2.9
251.151	105.64
251.368	44.2
251.585	76.97
251.801	3.24
252.018	7.34
252.235	93.35
252.451	-19.29
252.668	64.68
252.885	36.01
253.102	-2.9
253.318	56.49
253.535	23.72
253.752	79.02
253.968	27.82
254.185	-29.52
254.401	60.59
254.618	19.63
254.835	54.44
255.051	85.16
255.268	21.67
255.484	64.68
255.701	87.21
255.917	103.59
256.134	-52.05
256.351	-23.38
256.567	-29.52
256.784	38.06
257	-37.72
257.217	76.97
257.433	60.59
257.65	52.39
257.866	72.87
258.082	31.91
258.299	-2.9
258.515	27.82
258.732	29.87
258.948	17.58
259.165	11.43
259.381	79.02
259.597	81.07
259.814	36.01
260.03	60.59
260.246	54.44
260.463	95.4
260.679	19.63
260.895	15.53
261.112	56.49
261.328	-2.9
261.544	-2.9
261.761	140.46
261.977	60.59
262.193	-23.38
262.409	44.2
262.626	38.06
262.842	27.82
263.058	40.11
263.274	62.63
263.49	7.34
263.707	21.67
263.923	70.83
264.139	54.44
264.355	17.58
264.571	-41.81
264.787	85.16
265.004	119.98
265.22	-25.43
265.436	36.01
265.652	81.07
265.868	99.5
266.084	-4.95
266.3	-21.33
266.516	-19.29
266.732	11.43
266.948	-43.86
267.164	38.06
267.38	72.87
267.596	58.54
267.812	79.02
268.028	36.01
268.244	36.01
268.46	21.67
268.676	36.01
268.892	60.59
269.108	-35.67
269.324	27.82
269.54	-9.05
269.756	9.39
269.972	3.24
270.188	44.2
270.403	-70.48
270.619	44.2
270.835	97.45
271.051	11.43
271.267	83.11
271.483	13.48
271.698	-2.9
271.914	68.78
272.13	3.24
272.346	54.44
272.562	132.26
272.777	38.06
272.993	29.87
273.209	3.24
273.425	74.92
273.64	19.63
273.856	89.26
274.072	19.63
274.287	-52.05
274.503	27.82
274.719	48.3
274.934	31.91
275.15	-2.9
275.366	-21.33
275.581	-9.05
275.797	44.2
276.012	11.43
276.228	46.25
276.444	-29.52
276.659	36.01
276.875	-2.9
277.09	68.78
277.306	15.53
277.521	36.01
277.737	-25.43
277.952	54.44
278.168	89.26
278.383	52.39
278.599	25.77
278.814	29.87
279.03	44.2
279.245	70.83
279.461	-15.19
279.676	72.87
279.892	3.24
280.107	-50
280.322	11.43
280.538	76.97
280.753	-72.53
280.969	56.49
281.184	44.2
281.399	79.02
281.615	-4.95
281.83	103.59
282.045	-19.29
282.26	-15.19
282.476	-29.52
282.691	122.02
282.906	7.34
283.122	68.78
283.337	-21.33
283.552	72.87
283.767	52.39
283.983	66.73
284.198	38.06
284.413	76.97
284.628	15.53
284.843	117.93
285.058	126.12
285.274	46.25
285.489	23.72
285.704	89.26
285.919	11.43
286.134	11.43
286.349	44.2
286.564	19.63
286.779	101.55
286.995	62.63
287.21	60.59
287.425	70.83
287.64	21.67
287.855	29.87
288.07	-4.95
288.285	122.02
288.5	36.01
288.715	109.74
288.93	68.78
289.145	44.2
289.36	72.87
289.575	17.58
289.79	68.78
290.004	11.43
290.219	17.58
290.434	21.67
290.649	93.35
290.864	93.35
291.079	-68.44
291.294	46.25
291.509	48.3
291.724	46.25
291.938	54.44
292.153	68.78
292.368	29.87
292.583	11.43
292.798	81.07
293.012	13.48
293.227	148.65
293.442	-29.52
293.657	107.69
293.871	64.68
294.086	33.96
294.301	79.02
294.516	136.36
294.73	5.29
294.945	-13.14
295.16	81.07
295.374	21.67
295.589	56.49
295.804	15.53
296.018	-45.91
296.233	107.69
296.447	56.49
296.662	54.44
296.877	126.12
297.091	46.25
297.306	36.01
297.52	40.11
297.735	56.49
297.949	58.54
298.164	81.07
298.378	54.44
298.593	17.58
298.807	36.01
299.022	21.67
299.236	87.21
299.451	105.64
299.665	56.49
299.88	54.44
300.094	5.29
300.309	-43.86
300.523	76.97
300.737	81.07
300.952	-19.29
301.166	44.2
301.381	29.87
301.595	7.34
301.809	-45.91
302.024	44.2
302.238	15.53
302.452	109.74
302.667	52.39
302.881	76.97
303.095	64.68
303.309	44.2
303.524	36.01
303.738	64.68
303.952	23.72
304.166	46.25
304.381	-13.14
304.595	64.68
304.809	3.24
305.023	-19.29
305.237	-35.67
305.452	7.34
305.666	44.2
305.88	60.59
306.094	-62.29
306.308	52.39
306.522	134.31
306.736	36.01
306.95	74.92
307.164	76.97
307.379	-19.29
307.593	89.26
307.807	109.74
308.021	50.35
308.235	52.39
308.449	-35.67
308.663	13.48
308.877	58.54
309.091	48.3
309.305	60.59
309.519	-29.52
309.733	36.01
309.947	68.78
310.161	62.63
310.374	107.69
310.588	3.24
310.802	29.87
311.016	11.43
311.23	15.53
311.444	17.58
311.658	36.01
311.872	60.59
312.085	97.45
312.299	87.21
312.513	122.02
312.727	-23.38
312.941	44.2
313.154	48.3
313.368	60.59
313.582	-19.29
313.796	79.02
314.009	50.35
314.223	9.39
314.437	19.63
314.651	60.59
314.864	46.25
315.078	-15.19
315.292	13.48
315.505	60.59
315.719	76.97
315.933	52.39
316.146	13.48
316.36	9.39
316.573	64.68
316.787	81.07
317.001	38.06
317.214	25.77
317.428	79.02
317.641	42.15
317.855	76.97
318.068	-27.48
318.282	-17.24
318.495	132.26
318.709	40.11
318.922	29.87
319.136	105.64
319.349	70.83
319.563	87.21
319.776	36.01
319.99	-35.67
320.203	117.93
320.417	93.35
320.63	48.3
320.843	126.12
321.057	62.63
321.27	119.98
321.483	27.82
321.697	85.16
321.91	79.02
322.124	101.55
322.337	68.78
322.55	5.29
322.763	44.2
322.977	46.25
323.19	46.25
323.403	60.59
323.617	-4.95
323.83	52.39
324.043	44.2
324.256	52.39
324.469	3.24
324.683	23.72
324.896	76.97
325.109	13.48
325.322	7.34
325.535	70.83
325.748	64.68
325.962	15.53
326.175	5.29
326.388	7.34
326.601	124.07
326.814	111.78
327.027	54.44
327.24	93.35
327.453	-52.05
327.666	-0.85
327.879	27.82
328.092	44.2
328.305	99.5
328.518	-9.05
328.731	19.63
328.944	21.67
329.157	79.02
329.37	25.77
329.583	93.35
329.796	117.93
330.009	-2.9
330.222	56.49
330.435	103.59
330.648	101.55
330.861	-4.95
331.073	66.73
331.286	29.87
331.499	38.06
331.712	58.54
331.925	36.01
332.138	13.48
332.35	93.35
332.563	9.39
332.776	62.63
332.989	-13.14
333.202	144.55
333.414	19.63
333.627	62.63
333.84	46.25
334.053	54.44
334.265	56.49
334.478	7.34
334.691	23.72
334.903	81.07
335.116	-9.05
335.329	29.87
335.541	103.59
335.754	64.68
335.966	-13.14
336.179	117.93
336.392	5.29
336.604	36.01
336.817	93.35
337.029	21.67
337.242	81.07
337.454	97.45
337.667	15.53
337.88	111.78
338.092	58.54
338.305	19.63
338.517	3.24
338.729	64.68
338.942	68.78
339.154	-17.24
339.367	38.06
339.579	40.11
339.792	-45.91
340.004	81.07
340.217	-9.05
340.429	36.01
340.641	-13.14
340.854	-47.96
341.066	-19.29
341.278	79.02
341.491	144.55
341.703	23.72
341.915	85.16
342.128	79.02
342.34	1.19
342.552	19.63
342.764	15.53
342.977	38.06
343.189	64.68
343.401	-13.14
343.613	29.87
343.826	31.91
344.038	-2.9
344.25	27.82
344.462	-21.33
344.674	11.43
344.886	54.44
345.099	103.59
345.311	56.49
345.523	48.3
345.735	-33.62
345.947	95.4
346.159	21.67
346.371	60.59
346.583	48.3
346.795	36.01
347.007	-13.14
347.219	-4.95
347.431	52.39
347.643	79.02
347.855	27.82
348.067	52.39
348.279	50.35
348.491	23.72
348.703	68.78
348.915	54.44
349.127	60.59
349.339	46.25
349.551	33.96
349.763	46.25
349.975	40.11
350.187	101.55
350.399	150.7
350.61	15.53
350.822	-11.09
351.034	109.74
351.246	85.16
351.458	64.68
351.669	101.55
351.881	111.78
352.093	-41.81
352.305	169.13
352.517	-29.52
352.728	126.12
352.94	-86.87
353.152	134.31
353.363	72.87
353.575	79.02
353.787	62.63
353.999	76.97
354.21	97.45
354.422	-9.05
354.633	29.87
354.845	27.82
355.057	72.87
355.268	142.5
355.48	-13.14
355.692	-54.1
355.903	23.72
356.115	27.82
356.326	17.58
356.538	62.63
356.749	119.98
356.961	72.87
357.172	27.82
357.384	79.02
357.595	134.31
357.807	13.48
358.018	60.59
358.23	79.02
358.441	93.35
358.653	33.96
358.864	68.78
359.075	3.24
359.287	27.82
359.498	99.5
359.709	74.92
359.921	101.55
360.132	42.15
360.344	113.83
360.555	44.2
360.766	72.87
360.977	68.78
361.189	72.87
361.4	54.44
361.611	93.35
361.823	72.87
362.034	-29.52
362.245	40.11
362.456	29.87
362.667	19.63
362.879	7.34
363.09	89.26
363.301	60.59
363.512	64.68
363.723	54.44
363.935	-4.95
364.146	97.45
364.357	40.11
364.568	-11.09
364.779	68.78
364.99	144.55
365.201	-25.43
365.412	126.12
365.623	-4.95
365.834	62.63
366.045	46.25
366.256	46.25
366.467	89.26
366.678	44.2
366.889	142.5
367.1	101.55
367.311	140.46
367.522	-13.14
367.733	50.35
367.944	11.43
368.155	-11.09
368.366	113.83
368.577	79.02
368.788	76.97
368.999	15.53
369.209	76.97
369.42	249
369.631	70.83
369.842	46.25
370.053	95.4
370.264	44.2
370.474	44.2
370.685	76.97
370.896	19.63
371.107	85.16
371.317	48.3
371.528	81.07
371.739	72.87
371.95	109.74
372.16	62.63
372.371	13.48
372.582	58.54
372.792	117.93
373.003	54.44
373.214	93.35
373.424	134.31
373.635	46.25
373.846	140.46
374.056	48.3
374.267	70.83
374.477	117.93
374.688	9.39
374.898	60.59
375.109	48.3
375.319	136.36
375.53	113.83
375.74	54.44
375.951	44.2
376.161	76.97
376.372	52.39
376.582	-19.29
376.793	83.11
377.003	38.06
377.214	11.43
377.424	-17.24
377.635	58.54
377.845	70.83
378.055	36.01
378.266	68.78
378.476	62.63
378.686	52.39
378.897	44.2
379.107	158.89
379.317	68.78
379.528	13.48
379.738	60.59
379.948	33.96
380.158	89.26
380.369	-0.85
380.579	68.78
380.789	62.63
380.999	103.59
381.21	66.73
381.42	68.78
381.63	52.39
381.84	105.64
382.05	111.78
382.261	115.88
382.471	29.87
382.681	31.91
382.891	105.64
383.101	111.78
383.311	38.06
383.521	62.63
383.731	105.64
383.941	101.55
384.151	11.43
384.361	5.29
384.571	50.35
384.781	11.43
384.991	105.64
385.201	44.2
385.411	99.5
385.621	122.02
385.831	64.68
386.041	33.96
386.251	23.72
386.461	138.41
386.671	46.25
386.881	44.2
387.091	85.16
387.301	72.87
387.511	11.43
387.72	99.5
387.93	81.07
388.14	52.39
388.35	46.25
388.56	36.01
388.769	128.17
388.979	54.44
389.189	70.83
389.399	48.3
389.609	99.5
389.818	25.77
390.028	152.74
390.238	54.44
390.447	56.49
390.657	46.25
390.867	36.01
391.076	-9.05
391.286	40.11
391.496	76.97
391.705	44.2
391.915	146.6
392.125	171.18
392.334	25.77
392.544	79.02
392.753	3.24
392.963	64.68
393.172	54.44
393.382	-4.95
393.591	128.17
393.801	25.77
394.01	171.18
394.22	89.26
394.429	113.83
394.639	58.54
394.848	109.74
395.058	68.78
395.267	109.74
395.477	119.98
395.686	60.59
395.895	113.83
396.105	117.93
396.314	146.6
396.524	27.82
396.733	11.43
396.942	148.65
397.152	134.31
397.361	93.35
397.57	81.07
397.78	160.94
397.989	81.07
398.198	201.9
398.407	103.59
398.617	27.82
398.826	167.08
399.035	152.74
399.244	130.22
399.453	76.97
399.663	105.64
399.872	189.61
400.081	95.4
400.29	134.31
400.499	64.68
400.708	81.07
400.917	85.16
401.127	128.17
401.336	72.87
401.545	183.46
401.754	169.13
401.963	122.02
402.172	56.49
402.381	87.21
402.59	148.65
402.799	95.4
403.008	117.93
403.217	162.98
403.426	109.74
403.635	109.74
403.844	242.85
404.053	193.7
404.262	109.74
404.471	150.7
404.68	171.18
404.888	111.78
405.097	138.41
405.306	179.37
405.515	195.75
405.724	193.7
405.933	240.81
406.142	144.55
406.35	236.71
406.559	226.47
406.768	212.14
406.977	289.96
407.185	169.13
407.394	306.34
407.603	203.94
407.812	289.96
408.02	253.09
408.229	257.19
408.438	257.19
408.646	199.85
408.855	273.57
409.064	314.53
409.272	246.95
409.481	330.92
409.69	347.3
409.898	390.31
410.107	322.73
410.315	359.59
410.524	375.97
410.733	343.21
410.941	281.77
411.15	474.28
411.358	502.95
411.567	552.1
411.775	421.03
411.984	527.52
412.192	498.85
412.401	513.19
412.609	650.4
412.818	605.35
413.026	539.81
413.234	605.35
413.443	562.34
413.651	535.71
413.86	588.96
414.068	726.18
414.276	748.7
414.485	773.28
414.693	699.55
414.901	781.47
415.11	746.66
415.318	806.05
415.526	806.05
415.734	928.92
415.943	918.68
416.151	920.73
416.359	912.54
416.567	1029.27
416.776	1053.85
416.984	1035.42
417.192	1223.83
417.4	1146.01
417.608	1084.57
417.817	1072.28
418.025	1299.61
418.233	1383.57
418.441	1324.18
418.649	1315.99
418.857	1397.91
419.065	1436.82
419.273	1449.11
419.481	1459.35
419.689	1641.62
419.897	1690.77
420.105	1617.04
420.313	1780.88
420.521	1797.26
420.729	1916.05
420.937	1940.62
421.145	1981.58
421.353	2108.55
421.561	2163.85
421.769	2251.91
421.977	2419.85
422.185	2280.58
422.393	2485.38
422.601	2690.18
422.809	2493.57
423.017	2469
423.224	2641.03
423.432	2706.56
423.64	2763.9
423.848	3019.9
424.056	3083.39
424.263	3185.79
424.471	3271.8
424.679	3333.24
424.887	3431.54
425.094	3521.65
425.302	3632.24
425.51	3718.26
425.718	3878
425.925	3921.01
426.133	3888.24
426.341	4142.19
426.548	4279.4
426.756	4318.31
426.964	4527.21
427.171	4580.45
427.379	4633.7
427.586	4838.5
427.794	5102.68
428.001	5139.55
428.209	5467.22
428.417	5346.39
428.624	5868.63
428.832	5790.8
429.039	5977.17
429.247	5805.14
429.454	6272.07
429.662	6796.35
429.869	6282.31
430.076	6718.53
430.284	6609.99
430.491	6810.69
430.699	7232.57
430.906	7351.35
431.114	7375.93
431.321	7519.29
431.528	7799.86
431.736	8279.08
431.943	8670.25
432.15	8080.43
432.358	8571.94
432.565	9049.12
432.772	8746.02
432.979	9335.84
433.187	9440.28
433.394	9456.67
433.601	10136.59
433.808	10048.53
434.016	10161.17
434.223	10507.27
434.43	11064.32
434.637	10966.02
434.844	11525.11
435.052	11584.51
435.259	11693.05
435.466	11916.28
435.673	11777.01
435.88	12375.02
436.087	13102.05
436.294	12962.79
436.501	12901.35
436.708	12970.98
436.915	13298.66
437.122	14220.24
437.329	14255.06
437.537	14504.91
437.743	14771.15
437.95	14752.71
438.157	15442.88
438.364	15872.95
438.571	15918.01
438.778	15907.77
438.985	17349.54
439.192	16575.41
439.399	17372.07
439.606	16890.79
439.813	18013.08
440.02	19022.73
440.227	18486.16
440.433	18396.05
440.64	18951.05
440.847	18932.62
441.054	19264.39
441.261	20306.8
441.467	20190.07
441.674	20732.78
441.881	21791.58
442.088	21099.37
442.294	20956.01
442.501	21662.56
442.708	22006.62
442.914	23044.94
443.121	23655.23
443.328	23280.46
443.534	24849.2
443.741	24191.8
443.948	23962.43
444.154	25619.24
444.361	25451.3
444.568	25596.71
444.774	25570.08
444.981	26161.95
445.187	26403.61
445.394	27697.92
445.6	27374.34
445.807	29997.79
446.013	29012.72
446.22	29123.31
446.426	30085.86
446.633	30814.93
446.839	31646.41
447.046	30206.69
447.252	31969.99
447.459	32074.43
447.665	32182.98
447.871	33292.97
448.078	34675.35
448.284	33401.52
448.491	33880.74
448.697	35150.48
448.903	36166.27
449.11	35994.25
449.316	35234.45
449.522	36084.36
449.728	36940.41
449.935	37384.82
450.141	37358.19
450.347	38169.19
450.553	36917.88
450.76	37732.97
450.966	38599.26
451.172	38128.23
451.378	39457.36
451.584	38607.45
451.791	39494.22
451.997	39412.31
452.203	39664.21
452.409	40081.99
452.615	39653.97
452.821	38003.3
453.027	37878.38
453.233	40274.5
453.44	37966.44
453.646	38535.77
453.852	38832.73
454.058	39905.87
454.264	37726.83
454.47	39004.76
454.676	38191.72
454.882	39526.99
455.088	35947.14
455.294	36549.24
455.5	37018.23
455.705	37640.81
455.911	35949.19
456.117	35697.29
456.323	34935.45
456.529	33061.55
456.735	34454.17
456.941	33850.02
457.147	33032.88
457.352	32037.57
457.558	32023.23
457.764	31824.58
457.97	31355.6
458.176	30360.28
458.381	30653.14
458.587	29061.87
458.793	29213.42
458.999	27349.77
459.204	29283.05
459.41	28984.05
459.616	26905.36
459.821	26788.63
460.027	26561.3
460.233	25991.97
460.438	24890.16
460.644	24959.79
460.85	23837.5
461.055	23307.08
461.261	23423.81
461.466	21873.5
461.672	20749.17
461.878	22489.94
462.083	20939.63
462.289	20652.91
462.494	20306.8
462.7	19647.36
462.905	18977.67
463.111	19534.72
463.316	19485.57
463.522	19258.24
463.727	18955.15
463.932	19035.02
464.138	19063.69
464.343	18703.25
464.549	18125.72
464.754	19143.56
464.959	18918.28
465.165	18697.1
465.37	17871.77
465.575	17191.84
465.781	17853.34
465.986	18076.57
466.191	17525.66
466.397	17071.01
466.602	15922.1
466.807	16778.15
467.012	16876.46
467.218	16788.39
467.423	16573.36
467.628	16704.43
467.833	17091.49
468.038	16853.93
468.244	16247.73
468.449	16622.51
468.654	16145.33
468.859	15952.82
469.064	15956.92
469.269	15690.68
469.474	15670.2
469.679	15768.51
469.885	15186.88
470.09	15479.74
470.295	15537.09
470.5	15002.57
470.705	15279.04
470.91	14982.09
471.115	14517.2
471.32	14887.88
471.525	14848.97
471.73	14494.67
471.935	14408.65
472.139	13880.28
472.344	14142.42
472.549	13700.06
472.754	13896.66
472.959	13620.19
473.164	12997.6
473.369	13208.55
473.574	13659.1
473.778	13208.55
473.983	13016.04
474.188	13310.94
474.393	12520.43
474.598	12590.06
474.802	12483.56
475.007	12569.58
475.212	12403.69
475.417	11807.73
475.621	11803.64
475.826	12014.58
476.031	11781.11
476.235	11447.29
476.44	11860.98
476.645	11357.18
476.849	11449.34
477.054	11375.61
477.259	11285.5
477.463	11140.1
477.668	11037.7
477.872	11084.8
478.077	10759.17
478.282	10365.96
478.486	10574.86
478.691	10578.95
478.895	10296.33
479.1	10261.52
479.304	10441.74
479.509	10071.06
479.713	10261.52
479.918	10038.29
480.122	9903.12
480.326	9954.32
480.531	10042.39
480.735	9841.68
480.94	9739.29
481.144	10032.15
481.348	9565.21
481.553	9923.6
481.757	9372.7
481.961	9546.78
482.166	9802.77
482.37	9602.07
482.574	9452.57
482.778	9434.14
482.983	9679.89
483.187	9407.52
483.391	9661.46
483.595	9227.29
483.8	9423.9
484.004	9399.32
484.208	9501.72
484.412	9321.5
484.616	9780.25
484.821	9563.16
485.025	9337.88
485.229	9518.11
485.433	9511.96
485.637	9532.44
485.841	9370.65
486.045	9579.54
486.249	9452.57
486.453	9321.5
486.657	9325.6
486.861	9421.85
487.065	9038.88
487.269	9315.36
487.473	9270.3
487.677	9520.15
487.881	9554.97
488.085	9266.21
488.289	9456.67
488.493	9307.16
488.697	9440.28
488.901	9325.6
489.105	9503.77
489.309	9530.39
489.512	9440.28
489.716	9456.67
489.92	9468.95
490.124	9225.25
490.328	9686.04
490.531	9567.26
490.735	9391.13
490.939	9421.85
491.143	9479.19
491.346	9735.19
491.55	9587.74
491.754	9589.78
491.958	9622.55
492.161	9620.5
492.365	9620.5
492.569	9638.94
492.772	9636.89
492.976	9784.34
493.18	9747.48
493.383	9956.37
493.587	9886.74
493.79	10185.74
493.994	9786.39
494.197	10146.83
494.401	10169.36
494.605	10138.64
494.808	10304.53
495.012	10083.34
495.215	10269.71
495.419	10400.78
495.622	10404.88
495.825	10286.09
496.029	10259.47
496.232	10576.91
496.436	10554.38
496.639	10853.38
496.843	10646.54
497.046	10923.01
497.249	11127.81
497.453	11086.85
497.656	11226.11
497.859	11144.19
498.063	11242.5
498.266	11619.32
498.469	11555.83
498.673	11467.77
498.876	11635.71
499.079	11934.71
499.282	11967.48
499.485	12317.68
499.689	12260.34
499.892	12342.25
500.095	12473.32
500.298	12643.31
500.501	12647.4
500.705	13145.06
500.908	13054.95
501.111	13126.63
501.314	13360.09
501.517	13571.04
501.72	13454.3
501.923	13198.31
502.126	13790.17
502.329	14201.81
502.532	13863.9
502.735	14031.83
502.938	14449.61
503.141	14406.61
503.344	14627.79
503.547	14674.89
503.75	14816.2
503.953	14908.36
504.156	15059.91
504.359	15182.79
504.562	15453.12
504.765	15559.61
504.968	15412.16
505.17	15950.78
505.373	16178.1
505.576	16257.97
505.779	16403.38
505.982	16591.79
506.185	16583.6
506.387	16778.15
506.59	17073.06
506.793	17247.14
506.996	17171.36
507.198	17920.92
507.401	17746.84
507.604	17757.08
507.807	18178.97
508.009	18394
508.212	18191.25
508.415	18707.34
508.617	18779.02
508.82	18811.79
509.022	18787.21
509.225	19460.99
509.428	19714.94
509.63	19532.67
509.833	19667.84
510.035	20159.35
510.238	20163.45
510.44	20351.86
510.643	20626.29
510.845	20939.63
511.048	20534.13
511.25	21222.25
511.453	21283.69
511.655	22143.83
511.858	21531.49
512.06	21871.45
512.262	22133.59
512.465	21977.95
512.667	22387.54
512.87	22989.64
513.072	22858.57
513.274	23024.46
513.477	23733.06
513.679	23546.69
513.881	23833.41
514.084	24089.4
514.286	23921.47
514.488	24183.61
514.69	24832.82
514.893	24957.74
515.095	25076.52
515.297	25275.18
515.499	25156.39
515.701	25465.64
515.904	25871.14
516.106	26139.42
516.308	26374.94
516.51	26645.27
516.712	26557.21
516.914	26979.09
517.116	27263.75
517.318	27081.49
517.52	27448.07
517.722	27550.47
517.925	27935.49
518.127	28039.93
518.329	28410.62
518.531	28306.17
518.733	28936.95
518.935	29006.58
519.136	28900.08
519.338	29037.3
519.54	29444.84
519.742	29919.97
519.944	29481.7
520.146	30030.56
520.348	30417.63
520.55	30282.46
520.752	30663.38
520.954	31066.83
521.155	30741.21
521.357	31285.97
521.559	31437.51
521.761	31503.05
521.963	31931.08
522.164	32031.43
522.366	31988.42
522.568	32021.19
522.77	32049.86
522.971	32516.79
523.173	32033.47
523.375	32842.42
523.576	32635.58
523.778	32746.17
523.98	33127.09
524.181	33266.35
524.383	33069.75
524.584	33542.83
524.786	33252.02
524.988	33036.98
525.189	33807.01
525.391	33776.3
525.592	33794.73
525.794	34114.21
525.995	34398.88
526.197	33712.81
526.398	34210.46
526.6	34128.55
526.801	34007.72
527.003	34435.74
527.204	34474.65
527.406	34501.28
527.607	34437.79
527.808	34982.55
528.01	34163.36
528.211	34056.87
528.412	35007.12
528.614	34968.21
528.815	34656.92
529.016	34808.47
529.218	34515.61
529.419	34575
529.62	34806.42
529.822	34681.5
530.023	34781.85
530.224	34601.63
530.425	34697.88
530.626	34448.03
530.828	34335.39
531.029	35287.7
531.23	34609.82
531.431	34445.98
531.632	34607.77
531.833	34470.56
532.035	34347.68
532.236	34263.71
532.437	34558.62
532.638	34075.3
532.839	34040.48
533.04	34642.59
533.241	34077.35
533.442	34472.6
533.643	34470.56
533.844	34226.85
534.045	34192.03
534.246	33643.18
534.447	33854.12
534.648	34175.65
534.849	33819.3
535.05	33751.72
535.251	33903.27
535.451	33757.86
535.652	33784.49
535.853	33759.91
536.054	34243.23
536.255	34316.96
536.456	33184.43
536.657	33651.37
536.857	33567.4
537.058	33460.91
537.259	33522.35
537.46	33471.15
537.66	33456.81
537.861	33333.93
538.062	33106.61
538.263	33131.19
538.463	33163.95
538.664	33274.54
538.865	33301.17
539.065	33370.8
539.266	33051.31
539.466	33206.96
539.667	32436.92
539.868	33473.2
540.068	32946.87
540.269	32936.63
540.469	33045.17
540.67	32635.58
540.87	32817.85
541.071	32740.02
541.271	33012.4
541.472	32768.69
541.672	32522.94
541.873	32617.14
542.073	32191.17
542.274	33008.31
542.474	32469.69
542.675	32713.4
542.875	32731.83
543.075	32590.52
543.276	32090.82
543.476	32664.25
543.676	32377.53
543.877	32795.32
544.077	32527.03
544.277	32361.15
544.478	32576.19
544.678	32402.11
544.878	32443.07
545.078	32387.77
545.279	32426.68
545.479	32385.72
545.679	32420.54
545.879	32637.62
546.079	32481.98
546.28	32314.05
546.48	32170.69
546.68	32465.6
546.88	32447.16
547.08	32404.16
547.28	32395.96
547.48	32135.87
547.68	32682.68
547.88	31967.94
548.081	32400.06
548.281	32608.95
548.481	32268.99
548.681	32387.77
548.881	32486.07
549.081	32377.53
549.28	32463.55
549.48	32420.54
549.68	32238.27
549.88	32826.04
550.08	32361.15
550.28	32297.66
550.48	32197.31
550.68	32264.89
550.88	32383.68
551.08	32539.32
551.279	32598.71
551.479	32230.08
551.679	32694.97
551.879	32412.35
552.079	32817.85
552.278	32465.6
552.478	32711.35
552.678	32709.3
552.878	32447.16
553.077	32619.19
553.277	32373.44
553.477	33348.27
553.676	32709.3
553.876	32846.52
554.076	32783.03
554.275	32410.3
554.475	32590.52
554.674	32955.06
554.874	32717.5
555.074	32783.03
555.273	32920.24
555.473	33016.5
555.672	32996.02
555.872	32903.86
556.071	33092.27
556.271	33122.99
556.47	33149.62
556.67	32477.88
556.869	33022.64
557.068	33053.36
557.268	32832.18
557.467	33178.29
557.667	32950.96
557.866	33188.53
558.065	32940.72
558.265	33256.11
558.464	32932.53
558.663	33325.74
558.863	32725.69
559.062	33591.98
559.261	33327.79
559.461	33454.76
559.66	32953.01
559.859	33075.89
560.058	33172.14
560.258	33446.57
560.457	32793.27
560.656	33127.09
560.855	32793.27
561.054	32998.07
561.253	33075.89
561.453	33309.36
561.652	33071.79
561.851	33176.24
562.05	33270.45
562.249	33303.21
562.448	33340.08
562.647	33329.84
562.846	32889.52
563.045	32942.77
563.244	32475.84
563.443	33096.37
563.642	32815.8
563.841	32838.33
564.04	32580.28
564.239	33131.19
564.438	32449.21
564.637	32604.86
564.836	33135.28
565.035	32613.05
565.234	32588.47
565.432	32717.5
565.631	32821.94
565.83	32668.34
566.029	32494.27
566.228	32592.57
566.427	32379.58
566.625	32400.06
566.824	32090.82
567.023	32127.68
567.222	31951.56
567.42	32225.98
567.619	32113.34
567.818	31931.08
568.016	32000.71
568.215	32187.07
568.414	31754.95
568.612	32352.96
568.811	31933.12
569.01	31759.05
569.208	31267.53
569.407	31824.58
569.605	31410.89
569.804	31486.67
570.002	31304.4
570.201	31310.54
570.4	31054.54
570.598	31374.03
570.797	30618.33
570.995	31343.31
571.193	30780.12
571.392	31400.65
571.59	30626.52
571.789	30923.47
571.987	30595.8
572.186	30767.83
572.384	30575.32
572.582	30724.82
572.781	30663.38
572.979	30153.44
573.177	30325.47
573.376	30515.93
573.574	30036.7
573.772	30286.56
573.971	29973.22
574.169	30032.61
574.367	30067.42
574.565	30169.82
574.763	29328.11
574.962	29786.85
575.16	29407.98
575.358	29749.99
575.556	28992.24
575.754	29666.02
575.952	29002.48
576.151	29147.89
576.349	28816.11
576.547	28570.36
576.745	29029.1
576.943	28816.11
577.141	28920.56
577.339	28625.65
577.537	28295.93
577.735	28197.63
577.933	28261.12
578.131	28683
578.329	28177.15
578.527	28150.53
578.725	27978.5
578.923	28035.84
579.121	27898.62
579.319	27540.23
579.516	27908.86
579.714	28027.65
579.912	27570.95
580.11	27392.78
580.308	27771.65
580.506	27108.11
580.704	27028.24
580.901	27345.67
581.099	27308.81
581.297	26860.3
581.495	27024.14
581.692	27112.2
581.89	26690.32
582.088	27280.14
582.285	26848.02
582.483	26391.32
582.681	26864.4
582.878	26630.93
583.076	26252.06
583.274	26575.64
583.471	25991.97
583.669	26178.33
583.866	26030.88
584.064	26444.57
584.262	25864.99
584.459	26313.5
584.657	25924.38
584.854	26112.8
585.052	25565.99
585.249	25715.49
585.447	25852.7
585.644	25635.62
585.841	25576.23
586.039	25643.81
586.236	25422.63
586.434	25451.3
586.631	25385.77
586.828	25187.11
587.026	25383.72
587.223	25137.96
587.42	25217.83
587.618	25492.26
587.815	25058.09
588.012	24742.71
588.21	24884.01
588.407	25097
588.604	24849.2
588.801	24720.18
588.999	24822.58
589.196	24867.63
589.393	24908.59
589.59	24714.03
589.787	24335.16
589.984	24558.39
590.182	24488.76
590.379	24714.03
590.576	24228.66
590.773	24443.7
590.97	24269.62
591.167	24507.19
591.364	24341.3
591.561	24015.68
591.758	23829.31
591.955	24163.13
592.152	24132.41
592.349	24150.84
592.546	24161.08
592.743	24021.82
592.94	23700.29
593.137	23923.52
593.334	23984.96
593.531	23415.62
593.727	23485.25
593.924	23919.42
594.121	23348.04
594.318	23628.61
594.515	23305.03
594.712	23739.2
594.908	23644.99
595.105	23817.02
595.302	23448.39
595.499	23497.54
595.696	23376.71
595.892	23262.02
596.089	23622.47
596.286	23614.27
596.482	23571.27
596.679	23722.82
596.876	23167.82
597.072	23286.6
597.269	23249.74
597.466	23370.57
597.662	23194.44
597.859	23495.49
598.055	23315.27
598.252	23307.08
598.448	23204.68
598.645	23415.62
598.841	23311.17
599.038	23190.34
599.234	23405.38
599.431	23133
599.627	23190.34
599.824	23358.28
600.02	22977.36
600.217	23470.92
600.413	23214.92
600.609	23270.22
600.806	23307.08
601.002	23442.24
601.198	23145.29
601.395	23315.27
601.591	23270.22
601.787	23075.66
601.984	23311.17
602.18	23685.95
602.376	23079.75
602.572	23540.55
602.769	23337.8
602.965	23405.38
603.161	23253.83
603.357	23339.85
603.553	23450.44
603.75	23503.68
603.946	23399.24
604.142	23458.63
604.338	23302.98
604.534	23237.45
604.73	23440.2
604.926	23579.46
605.122	23671.62
605.318	23444.29
605.514	23266.12
605.71	23550.79
605.906	23624.51
606.102	23548.74
606.298	23468.87
606.494	23630.66
606.69	23739.2
606.886	23681.86
607.082	23409.48
607.278	23700.29
607.474	23575.36
607.67	23925.57
607.866	23767.87
608.062	24105.79
608.257	23925.57
608.453	23726.91
608.649	23964.48
608.845	23741.25
609.041	24058.68
609.236	24097.59
609.432	23950.14
609.628	24087.36
609.824	24212.28
610.019	23857.98
610.215	24247.1
610.411	24236.86
610.606	23980.86
610.802	24576.82
610.998	24277.82
611.193	24089.4
611.389	24247.1
611.584	24275.77
611.78	24415.03
611.976	24226.62
612.171	24628.02
612.367	24460.09
612.562	24070.97
612.758	24292.15
612.953	24417.08
613.149	24611.64
613.344	24355.64
613.539	24841.01
613.735	24722.23
613.93	24511.28
614.126	24699.7
614.321	24929.07
614.517	24716.08
614.712	24173.37
614.907	24228.66
615.103	24294.2
615.298	24550.2
615.493	24806.19
615.688	24509.24
615.884	25137.96
616.079	24435.51
616.274	24660.79
616.47	24564.53
616.665	24625.97
616.86	24691.51
617.055	24435.51
617.25	24300.34
617.445	24920.88
617.641	24294.2
617.836	24679.22
618.031	24308.54
618.226	24722.23
618.421	24341.3
618.616	24734.51
618.811	24156.99
619.006	24519.48
619.201	24077.12
619.396	24484.66
619.591	23907.13
619.786	24326.97
619.981	23927.61
620.176	24105.79
620.371	23874.37
620.566	23944
620.761	23767.87
620.956	23898.94
621.151	23720.77
621.346	23806.78
621.541	23249.74
621.735	23616.32
621.93	23071.56
622.125	23255.88
622.32	22719.31
622.515	23176.01
622.709	22907.73
622.904	22834
623.099	22985.55
623.294	22823.76
623.488	22498.13
623.683	22385.49
623.878	22235.99
624.072	22471.51
624.267	22387.54
624.462	21844.83
624.656	21963.61
624.851	21988.19
625.046	21875.55
625.24	21998.43
625.435	21633.89
625.629	21844.83
625.824	21414.76
626.018	21490.53
626.213	21105.51
626.407	21023.59
626.602	20593.52
626.796	21064.55
626.991	21160.81
627.185	20990.83
627.38	20601.71
627.574	20614
627.768	20171.64
627.963	20259.7
628.157	20218.74
628.352	20505.46
628.546	19815.29
628.74	20126.58
628.935	20061.05
629.129	20165.49
629.323	19725.18
629.517	19684.22
629.712	19823.48
629.906	19348.36
630.1	19446.66
630.294	19481.47
630.489	19094.41
630.683	19248
630.877	18998.15
631.071	19002.25
631.265	18830.22
631.459	18801.55
631.653	18858.89
631.848	18633.61
632.042	18275.22
632.236	18758.54
632.43	18375.57
632.624	18377.62
632.818	18176.92
633.012	18039.7
633.206	18054.04
633.4	18105.24
633.594	17734.56
633.788	18011.03
633.982	17836.95
634.176	17400.74
634.369	17583.01
634.563	17355.68
634.757	17218.47
634.951	17531.81
635.145	17394.59
635.339	17163.17
635.533	16767.91
635.726	17032.1
635.92	16763.82
636.114	16800.68
636.308	16513.97
636.501	16587.69
636.695	16444.34
636.889	16491.44
637.083	16120.76
637.276	16083.89
637.47	16180.15
637.664	16165.81
637.857	15963.06
638.051	15764.41
638.244	15678.4
638.438	15510.46
638.632	15494.08
638.825	15584.19
639.019	15322.05
639.212	15293.38
639.406	15424.45
639.599	15225.79
639.793	15082.44
639.986	14828.49
640.18	15023.05
640.373	14867.4
640.567	14691.27
640.76	14857.16
640.954	14519.25
641.147	14453.71
641.34	14328.78
641.534	14347.22
641.727	14154.71
641.92	14054.36
642.114	14058.45
642.307	13994.97
642.5	13876.18
642.694	13534.17
642.887	13771.74
643.08	13802.46
643.273	13736.92
643.467	13396.96
643.66	13290.46
643.853	13384.67
644.046	12993.51
644.239	13175.78
644.432	13022.18
644.626	13138.91
644.819	13040.61
645.012	12749.8
645.205	12749.8
645.398	12631.02
645.591	12559.34
645.784	12596.2
645.977	12309.49
646.17	12536.81
646.363	12420.08
646.556	12266.48
646.749	12250.1
646.942	12282.86
647.135	12039.15
647.328	12028.92
647.521	11967.48
647.714	11711.48
647.907	11654.14
648.099	11604.99
648.292	11643.9
648.485	11518.97
648.678	11525.11
648.871	11609.08
649.064	11404.28
649.256	11318.27
649.449	11297.79
649.642	11279.36
649.835	11070.47
650.027	11029.51
650.22	11095.04
650.413	10906.63
650.605	10890.24
650.798	10916.87
650.991	10929.16
651.183	11037.7
651.376	10601.48
651.568	10632.2
651.761	10537.99
651.954	10564.62
652.146	10517.51
652.339	10398.73
652.531	10187.79
652.724	10183.7
652.916	10208.27
653.109	10185.74
653.301	10023.95
653.494	10079.25
653.686	9964.56
653.879	10042.39
654.071	10138.64
654.263	9856.02
654.456	9794.58
654.648	9925.65
654.84	9702.42
655.033	9620.5
655.225	9538.59
655.417	9407.52
655.61	9366.56
655.802	9454.62
655.994	9335.84
656.186	9358.36
656.379	9364.51
656.571	9403.42
656.763	9194.53
656.955	9079.84
657.148	9227.29
657.34	9075.74
657.532	8973.35
657.724	8916
657.916	8932.39
658.108	8946.72
658.3	8907.81
658.492	8571.94
658.684	8547.37
658.876	8694.82
659.068	8631.33
659.26	8627.24
659.452	8434.73
659.644	8447.02
659.836	8442.92
660.028	8389.67
660.22	8219.69
660.412	8119.34
660.604	8281.13
660.796	8363.05
660.988	8115.25
661.18	7902.26
661.372	7801.91
661.563	7916.59
661.755	7904.31
661.947	8129.58
662.139	7887.92
662.331	7621.69
662.522	7648.31
662.714	7812.15
662.906	7658.55
663.097	7806
663.289	7515.19
663.481	7568.44
663.673	7672.89
663.864	7437.37
664.056	7545.91
664.247	7236.67
664.439	7490.62
664.631	7273.53
664.822	7396.41
665.014	7187.52
665.205	7228.48
665.397	7044.16
665.588	7173.18
665.78	7171.13
665.971	6878.27
666.163	6954.05
666.354	6974.53
666.546	6964.29
666.737	6974.53
666.929	6949.95
667.12	6816.83
667.311	6792.26
667.503	6716.48
667.694	6630.47
667.885	6751.3
668.077	6739.01
668.268	6573.13
668.459	6507.59
668.651	6435.91
668.842	6351.95
669.033	6294.6
669.224	6515.78
669.416	6470.73
669.607	6306.89
669.798	6351.95
669.989	6384.71
670.18	6290.51
670.371	6157.39
670.563	6306.89
670.754	6196.3
670.945	6253.64
671.136	6165.58
671.327	6132.81
671.518	6112.33
671.709	5962.83
671.9	6167.63
672.091	6122.57
672.282	6009.93
672.473	5999.7
672.664	6108.24
672.855	5966.93
673.046	5815.38
673.237	5991.5
673.428	5958.74
673.619	5846.1
673.809	5827.67
674	5811.28
674.191	5758.03
674.382	5737.56
674.573	5794.9
674.764	5739.6
674.954	5692.5
675.145	5698.64
675.336	5532.76
675.527	5594.2
675.717	5700.69
675.908	5540.95
676.099	5674.07
676.289	5551.19
676.48	5559.38
676.671	5565.53
676.861	5614.68
677.052	5385.3
677.243	5405.78
677.433	5399.64
677.624	5499.99
677.814	5370.97
678.005	5477.46
678.195	5395.54
678.386	5313.63
678.576	5518.42
678.767	5393.5
678.957	5280.86
679.148	5432.41
679.338	5243.99
679.529	5303.39
679.719	5344.35
679.909	5393.5
680.1	5114.97
680.29	5239.9
680.481	5370.97
680.671	5508.18
680.861	5282.91
681.052	5274.71
681.242	5149.79
681.432	5270.62
681.622	5287
681.813	5123.16
682.003	5272.67
682.193	5188.7
682.383	5373.02
682.573	5127.26
682.764	5147.74
682.954	5065.82
683.144	5176.41
683.334	5014.62
683.524	5059.68
683.714	5196.89
683.904	5155.93
684.094	5065.82
684.284	5041.25
684.474	5078.11
684.664	5026.91
684.854	5090.4
685.044	5026.91
685.234	5057.63
685.424	5057.63
685.614	4830.3
685.804	4822.11
685.994	4963.42
686.184	4975.71
686.374	4901.98
686.564	4738.15
686.753	4856.93
686.943	4865.12
687.133	4840.54
687.323	4820.07
687.513	4779.11
687.702	4815.97
687.892	4869.22
688.082	4938.85
688.272	4734.05
688.461	4734.05
688.651	4602.98
688.841	4699.23
689.03	4727.91
689.22	4850.78
689.41	4668.52
689.599	4775.01
689.789	4721.76
689.979	4721.76
690.168	4668.52
690.358	4537.45
690.547	4551.78
690.737	4742.24
690.926	4584.55
691.116	4494.44
691.305	4635.75
691.495	4592.74
691.684	4443.24
691.874	4562.02
692.063	4656.23
692.252	4525.16
692.442	4496.49
692.631	4416.62
692.82	4451.43
693.01	4418.66
693.199	4351.08
693.388	4478.05
693.578	4336.74
693.767	4476.01
693.956	4443.24
694.146	4224.11
694.335	4344.94
694.524	4174.95
694.713	4398.18
694.902	4381.8
695.092	4340.84
695.281	4332.65
695.47	4385.9
695.659	4275.31
695.848	4222.06
696.037	4377.7
696.226	4215.91
696.415	4365.42
696.604	4160.62
696.793	4322.41
696.982	4303.98
697.171	4234.35
697.36	4252.78
697.549	4162.67
697.738	4066.41
697.927	4185.19
698.116	4314.22
698.305	4197.48
698.494	4078.7
698.683	4138.09
698.872	4226.15
699.061	4226.15
699.25	4023.41
699.438	4011.12
699.627	4109.42
699.816	4074.6
700.005	3972.21
700.193	4134
700.382	3988.59
700.571	4082.8
700.76	4050.03
700.948	4070.51
701.137	4025.45
701.326	4060.27
701.514	3943.53
701.703	3910.77
701.892	3935.34
702.08	3939.44
702.269	3988.59
702.457	3839.09
702.646	3746.93
702.834	3806.32
703.023	3982.45
703.212	3847.28
703.4	3828.85
703.589	3832.94
703.777	3800.18
703.965	3800.18
704.154	3798.13
704.342	3767.41
704.531	3910.77
704.719	3773.55
704.907	3742.83
705.096	3677.3
705.284	3800.18
705.472	3675.25
705.661	3751.03
705.849	3722.35
706.037	3662.96
706.226	3652.72
706.414	3603.57
706.602	3648.63
706.79	3763.31
706.979	3546.23
707.167	3615.86
707.355	3591.28
707.543	3677.3
707.731	3626.1
707.919	3660.91
708.107	3615.86
708.296	3591.28
708.484	3566.71
708.672	3599.48
708.86	3452.02
709.048	3505.27
709.236	3630.2
709.424	3513.46
709.612	3452.02
709.8	3626.1
709.988	3366.01
710.176	3425.4
710.364	3550.32
710.551	3525.75
710.739	3316.86
710.927	3370.1
711.115	3409.01
711.303	3361.91
711.491	3470.45
711.679	3374.2
711.866	3470.45
712.054	3273.85
712.242	3404.92
712.43	3368.06
712.617	3376.25
712.805	3339.38
712.993	3275.9
713.181	3382.39
713.368	3298.42
713.556	3337.34
713.744	3177.59
713.931	3361.91
714.119	3247.23
714.306	3398.77
714.494	3247.23
714.682	3241.08
714.869	3173.5
715.057	3247.23
715.244	3083.39
715.432	3361.91
715.619	3079.29
715.807	3083.39
715.994	3161.21
716.182	3114.11
716.369	3024
716.556	3107.96
716.744	3236.99
716.931	3034.24
717.119	3259.51
717.306	3175.55
717.493	3189.88
717.681	3009.66
717.868	2915.45
718.055	2958.46
718.242	3099.77
718.43	2993.28
718.617	3071.1
718.804	2968.7
718.991	2989.18
719.179	3009.66
719.366	2952.32
719.553	3036.28
719.74	2989.18
719.927	2901.12
720.114	2870.4
720.301	2854.02
720.488	2847.87
720.676	2899.07
720.863	2993.28
721.05	2972.8
721.237	2851.97
721.424	2876.54
721.611	2858.11
721.798	2976.89
721.985	2829.44
722.172	2784.38
722.358	2813.06
722.545	2792.58
722.732	2825.34
722.919	2854.02
723.106	2768
723.293	2694.27
723.48	2634.88
723.667	2724.99
723.853	2673.79
724.04	2886.78
724.227	2722.95
724.414	2821.25
724.6	2788.48
724.787	2831.49
724.974	2700.42
725.161	2628.74
725.347	2739.33
725.534	2755.71
725.72	2643.07
725.907	2720.9
726.094	2630.79
726.28	2643.07
726.467	2657.41
726.653	2681.99
726.84	2665.6
727.027	2624.64
727.213	2542.72
727.4	2686.08
727.586	2604.16
727.773	2466.95
727.959	2659.46
728.145	2563.2
728.332	2520.2
728.518	2591.88
728.705	2706.56
728.891	2550.92
729.077	2462.85
729.264	2542.72
729.45	2501.76
729.636	2612.35
729.823	2583.68
730.009	2526.34
730.195	2489.48
730.382	2585.73
730.568	2591.88
730.754	2602.11
730.94	2466.95
731.126	2452.61
731.313	2485.38
731.499	2440.33
731.685	2407.56
731.871	2440.33
732.057	2489.48
732.243	2522.24
732.429	2526.34
732.615	2460.81
732.801	2483.33
732.987	2354.31
733.173	2399.37
733.359	2534.53
733.545	2325.64
733.731	2313.35
733.917	2403.46
734.103	2348.17
734.289	2421.89
734.475	2403.46
734.661	2378.89
734.847	2391.17
735.033	2317.45
735.219	2430.09
735.404	2415.75
735.59	2325.64
735.776	2223.24
735.962	2342.02
736.148	2440.33
736.333	2389.13
736.519	2319.5
736.705	2256.01
736.89	2323.59
737.076	2282.63
737.262	2348.17
737.447	2196.62
737.633	2249.86
737.819	2149.51
738.004	2233.48
738.19	2264.2
738.375	2387.08
738.561	2159.75
738.747	2200.71
738.932	2116.75
739.118	2296.97
739.303	2235.53
739.489	2182.28
739.674	1991.82
739.859	2124.94
740.045	2299.02
740.23	2157.71
740.416	2112.65
740.601	2217.1
740.786	2180.23
740.972	2045.07
741.157	2043.02
741.342	2120.84
741.528	2079.88
741.713	2092.17
741.898	2012.3
742.084	2053.26
742.269	2002.06
742.454	2073.74
742.639	2071.69
742.824	2004.11
743.01	2110.6
743.195	2014.35
743.38	2010.25
743.565	2092.17
743.75	2034.83
743.935	1957
744.12	2002.06
744.305	1961.1
744.49	1957
744.675	1928.33
744.86	1903.76
745.045	1940.62
745.23	1932.43
745.415	1854.61
745.6	1928.33
745.785	1879.18
745.97	1750.16
746.155	1782.93
746.34	1895.57
746.525	1854.61
746.71	1862.8
746.895	1881.23
747.079	1813.65
747.264	1793.17
747.449	1752.21
747.634	1698.96
747.819	1756.3
748.003	1707.15
748.188	1641.62
748.373	1711.25
748.557	1780.88
748.742	1744.02
748.927	1733.78
749.111	1535.12
749.296	1676.43
749.481	1633.43
749.665	1664.15
749.85	1612.95
750.034	1653.91
750.219	1703.06
750.404	1639.57
750.588	1600.66
750.773	1469.59
750.957	1586.32
751.141	1524.88
751.326	1578.13
751.51	1502.36
751.695	1567.89
751.879	1379.48
752.064	1580.18
752.248	1479.83
752.432	1582.23
752.617	1485.97
752.801	1518.74
752.985	1490.07
753.17	1424.53
753.354	1494.16
753.538	1428.63
753.722	1496.21
753.907	1377.43
754.091	1391.77
754.275	1406.1
754.459	1451.16
754.643	1379.48
754.828	1344.66
755.012	1428.63
755.196	1322.13
755.38	1287.32
755.564	1264.79
755.748	1344.66
755.932	1285.27
756.116	1248.41
756.3	1236.12
756.484	1297.56
756.668	1332.37
756.852	1281.18
757.036	1297.56
757.22	1207.45
757.404	1141.91
757.588	1189.02
757.772	1174.68
757.956	1133.72
758.14	1199.26
758.323	1125.53
758.507	1119.39
758.691	1125.53
758.875	1135.77
759.059	1225.88
759.242	1158.3
759.426	1068.19
759.61	1143.96
759.794	1131.67
759.977	1105.05
760.161	1166.49
760.345	1150.11
760.528	1152.15
760.712	1021.08
760.895	1092.76
761.079	1191.06
761.263	1010.84
761.446	1090.71
761.63	1107.1
761.813	1141.91
761.997	937.12
762.18	1019.04
762.364	1103
762.547	990.36
762.731	996.51
762.914	1035.42
763.098	973.98
763.281	1037.47
763.464	953.5
763.648	984.22
763.831	912.54
764.015	916.64
764.198	1012.89
764.381	957.6
764.564	1023.13
764.748	963.74
764.931	1027.23
765.114	953.5
765.297	994.46
765.481	994.46
765.664	945.31
765.847	1027.23
766.03	965.79
766.213	961.69
766.397	924.83
766.58	928.92
766.763	847.01
766.946	892.06
767.129	939.16
767.312	928.92
767.495	851.1
767.678	877.73
767.861	994.46
768.044	978.08
768.227	926.88
768.41	904.35
768.593	900.25
768.776	945.31
768.959	949.4
769.142	875.68
769.324	873.63
769.507	832.67
769.69	961.69
769.873	838.81
770.056	924.83
770.239	826.53
770.421	945.31
770.604	822.43
770.787	830.62
770.97	869.53
771.152	801.95
771.335	914.59
771.518	855.2
771.7	920.73
771.883	879.77
772.066	832.67
772.248	760.99
772.431	810.14
772.613	820.38
772.796	812.19
772.978	814.24
773.161	947.36
773.343	756.9
773.526	670.88
773.708	732.32
773.891	732.32
774.073	781.47
774.256	756.9
774.438	806.05
774.621	748.7
774.803	724.13
774.985	767.13
775.168	711.84
775.35	832.67
775.532	742.56
775.715	728.22
775.897	674.98
776.079	650.4
776.261	709.79
776.444	713.89
776.626	685.22
776.808	658.59
776.99	674.98
777.173	609.44
777.355	650.4
777.537	691.36
777.719	646.3
777.901	631.97
778.083	654.5
778.265	634.02
778.447	670.88
778.629	679.07
778.811	543.91
778.993	584.87
779.175	650.4
779.357	572.58
779.539	642.21
779.721	574.63
779.903	545.95
780.085	613.54
780.267	584.87
780.449	593.06
780.631	607.39
780.812	629.92
780.994	613.54
781.176	548
781.358	531.62
781.54	552.1
781.721	642.21
781.903	519.33
782.085	513.19
782.267	554.15
782.448	488.61
782.63	584.87
782.812	580.77
782.993	611.49
783.175	527.52
783.357	521.38
783.538	595.11
783.72	494.76
783.901	480.42
784.083	535.71
784.264	496.8
784.446	545.95
784.627	453.8
784.809	431.27
784.99	478.37
785.172	490.66
785.353	474.28
785.535	408.74
785.716	453.8
785.897	433.32
786.079	470.18
786.26	533.67
786.441	453.8
786.623	425.12
786.804	449.7
786.985	367.78
787.167	476.32
787.348	429.22
787.529	447.65
787.71	527.52
787.891	421.03
788.073	412.84
788.254	429.22
788.435	556.19
788.616	496.8
788.797	441.51
788.978	472.23
789.159	453.8
789.34	380.07
789.522	484.52
789.703	263.33
789.884	351.4
790.065	414.88
790.246	386.21
790.427	371.88
790.607	355.49
790.788	363.69
790.969	386.21
791.15	392.36
791.331	359.59
791.512	228.52
791.693	322.73
791.874	324.77
792.054	388.26
792.235	425.12
792.416	330.92
792.597	330.92
792.778	421.03
792.958	263.33
793.139	363.69
793.32	322.73
793.5	257.19
793.681	357.54
793.862	416.93
794.042	300.2
794.223	363.69
794.404	273.57
794.584	253.09
794.765	349.35
794.945	292.01
795.126	320.68
795.306	373.92
795.487	337.06
795.667	257.19
795.848	281.77
796.028	306.34
796.209	306.34
796.389	365.73
796.57	298.15
796.75	244.9
796.93	287.91
797.111	246.95
797.291	257.19
797.471	281.77
797.652	257.19
797.832	189.61
798.012	292.01
798.192	218.28
798.373	265.38
798.553	240.81
798.733	158.89
798.913	308.39
799.093	310.44
799.274	289.96
799.454	257.19
799.634	261.29
799.814	287.91
799.994	298.15
800.174	300.2
800.354	195.75
800.534	232.62
800.714	242.85
800.894	199.85
801.074	257.19
801.254	232.62
801.434	269.48
801.614	275.62
801.794	195.75
801.974	1019.04
802.154	242.85
802.334	302.25
802.514	257.19
802.693	193.7
802.873	259.24
803.053	232.62
803.233	289.96
803.413	261.29
803.592	224.42
803.772	257.19
803.952	230.57
804.131	208.04
804.311	269.48
804.491	267.43
804.67	253.09
804.85	171.18
805.03	259.24
805.209	232.62
805.389	171.18
805.568	271.53
805.748	195.75
805.928	234.66
806.107	261.29
806.287	142.5
806.466	177.32
806.646	208.04
806.825	167.08
807.004	175.27
807.184	208.04
807.363	244.9
807.543	167.08
807.722	134.31
807.901	167.08
808.081	193.7
808.26	130.22
808.439	146.6
808.619	124.07
808.798	126.12
808.977	134.31
809.156	240.81
809.336	169.13
809.515	191.66
809.694	197.8
809.873	169.13
810.052	195.75
810.231	197.8
810.411	205.99
810.59	195.75
810.769	216.23
810.948	160.94
811.127	124.07
811.306	210.09
811.485	179.37
811.664	142.5
811.843	175.27
812.022	95.4
812.201	183.46
812.38	44.2
812.559	179.37
812.737	224.42
812.916	128.17
813.095	158.89
813.274	167.08
813.453	111.78
813.632	230.57
813.811	130.22
813.989	126.12
814.168	152.74
814.347	179.37
814.526	148.65
814.704	144.55
814.883	193.7
815.062	85.16
815.24	177.32
815.419	-11.09
815.598	113.83
815.776	101.55
815.955	124.07
816.133	138.41
816.312	175.27
816.49	117.93
816.669	64.68
816.847	142.5
817.026	122.02
817.204	113.83
817.383	138.41
817.561	89.26
817.74	177.32
817.918	148.65
818.097	56.49
818.275	109.74
818.453	191.66
818.632	167.08
818.81	103.59
818.988	105.64
819.167	109.74
819.345	142.5
819.523	64.68
819.701	87.21
819.879	152.74
820.058	101.55
820.236	109.74
820.414	142.5
820.592	165.03
820.77	126.12
820.948	132.26
821.127	115.88
821.305	134.31
821.483	76.97
821.661	128.17
821.839	119.98
822.017	142.5
822.195	79.02
822.373	171.18
822.551	142.5
822.729	152.74
822.907	101.55
823.085	165.03
823.262	167.08
823.44	5.29
823.618	79.02
823.796	144.55
823.974	101.55
824.152	142.5
824.329	68.78
824.507	109.74
824.685	95.4
824.863	167.08
825.04	76.97
825.218	119.98
825.396	99.5
825.574	52.39
825.751	97.45
825.929	76.97
826.107	68.78
826.284	95.4
826.462	105.64
826.639	19.63
826.817	70.83
826.994	68.78
827.172	11.43
827.349	83.11
827.527	23.72
827.704	60.59
827.882	119.98
828.059	126.12
828.237	142.5
828.414	85.16
828.591	38.06
828.769	156.84
828.946	126.12
829.124	177.32
829.301	109.74
829.478	-15.19
829.655	101.55
829.833	79.02
830.01	101.55
830.187	130.22
830.364	79.02
830.542	60.59
830.719	122.02
830.896	119.98
831.073	-7
831.25	142.5
831.427	122.02
831.604	101.55
831.782	46.25
831.959	109.74
832.136	81.07
832.313	46.25
832.49	79.02
832.667	142.5
832.844	46.25
833.021	150.7
833.198	60.59
833.374	58.54
833.551	56.49
833.728	79.02
833.905	122.02
834.082	66.73
834.259	70.83
834.436	130.22
834.612	52.39
834.789	36.01
834.966	97.45
835.143	109.74
835.319	-0.85
835.496	156.84
835.673	119.98
835.85	38.06
836.026	64.68
836.203	70.83
836.38	44.2
836.556	40.11
836.733	99.5
836.909	128.17
837.086	95.4
837.262	17.58
837.439	7.34
837.616	-37.72
837.792	68.78
837.968	-9.05
838.145	-52.05
838.321	99.5
838.498	13.48
838.674	95.4
838.851	58.54
839.027	40.11
839.203	105.64
839.38	122.02
839.556	11.43
839.732	101.55
839.909	29.87
840.085	58.54
840.261	-11.09
840.437	60.59
840.614	56.49
840.79	119.98
840.966	70.83
841.142	81.07
841.318	17.58
841.494	87.21
841.671	95.4
841.847	46.25
842.023	38.06
842.199	42.15
842.375	117.93
842.551	-2.9
842.727	-2.9
842.903	173.22
843.079	-9.05
843.255	95.4
843.431	99.5
843.607	128.17
843.783	9.39
843.959	40.11
844.134	46.25
844.31	85.16
844.486	-17.24
844.662	58.54
844.838	76.97
845.013	134.31
845.189	126.12
845.365	60.59
845.541	142.5
845.716	40.11
845.892	52.39
846.068	3.24
846.244	93.35
846.419	54.44
846.595	40.11
846.77	13.48
846.946	-33.62
847.122	68.78
847.297	31.91
847.473	68.78
847.648	-21.33
847.824	76.97
847.999	-9.05
848.175	50.35
848.35	52.39
848.526	124.07
848.701	117.93
848.876	62.63
849.052	40.11
849.227	3.24
849.403	1.19
849.578	-62.29
849.753	-70.48
849.929	101.55
850.104	3.24
850.279	-68.44
850.454	40.11
850.63	-17.24
850.805	62.63
850.98	81.07
851.155	56.49
851.33	19.63
851.505	-13.14
851.681	146.6
851.856	101.55
852.031	11.43
852.206	52.39
852.381	36.01
852.556	60.59
852.731	44.2
852.906	40.11
853.081	52.39
853.256	60.59
853.431	13.48
853.606	27.82
853.781	52.39
853.956	-31.57
854.131	103.59
854.305	-29.52
854.48	27.82
854.655	-2.9
854.83	68.78
855.005	52.39
855.18	97.45
855.354	-62.29
855.529	126.12
855.704	-9.05
855.879	60.59
856.053	-23.38
856.228	29.87
856.403	-21.33
856.577	15.53
856.752	40.11
856.926	36.01
857.101	56.49
857.276	-41.81
857.45	25.77
857.625	50.35
857.799	29.87
857.974	58.54
858.148	-23.38
858.323	-45.91
858.497	40.11
858.672	3.24
858.846	-7
859.02	52.39
859.195	-21.33
859.369	54.44
859.543	-4.95
859.718	-13.14
859.892	7.34
860.066	-9.05
860.241	23.72
860.415	3.24
860.589	5.29
860.763	-35.67
860.938	-15.19
861.112	3.24
861.286	13.48
861.46	44.2
861.634	15.53
861.808	64.68
861.982	36.01
862.157	31.91
862.331	40.11
862.505	-2.9
862.679	-80.72
862.853	60.59
863.027	-17.24
863.201	64.68
863.375	-13.14
863.549	38.06
863.722	44.2
863.896	72.87
864.07	44.2
864.244	23.72
864.418	36.01
864.592	19.63
864.766	-21.33
864.939	52.39
865.113	-21.33
865.287	27.82
865.461	-11.09
865.634	38.06
865.808	-13.14
865.982	19.63
866.156	-9.05
866.329	-9.05
866.503	11.43
866.676	7.34
866.85	60.59
867.024	9.39
867.197	36.01
867.371	-0.85
867.544	64.68
867.718	19.63
867.891	-25.43
868.065	27.82
868.238	-13.14
868.412	52.39
868.585	44.2
868.759	19.63
868.932	13.48
869.105	-54.1
869.279	60.59
869.452	-25.43
869.625	-45.91
869.799	23.72
869.972	21.67
870.145	-60.24
870.319	23.72
870.492	-27.48
870.665	17.58
870.838	11.43
871.011	-21.33
871.185	15.53
871.358	-27.48
871.531	-35.67
871.704	-13.14
871.877	33.96
872.05	44.2
872.223	68.78
872.396	23.72
872.569	70.83
872.742	-37.72
872.915	38.06
873.088	-54.1
873.261	-9.05
873.434	76.97
873.607	1.19
873.78	101.55
873.953	-21.33
874.126	-13.14
874.299	7.34
874.471	15.53
874.644	-13.14
874.817	48.3
874.99	85.16
875.163	-7
875.335	5.29
875.508	7.34
875.681	15.53
875.853	-27.48
876.026	11.43
876.199	50.35
876.371	13.48
876.544	-11.09
876.717	-13.14
876.889	91.31
877.062	-19.29
877.234	-25.43
877.407	23.72
877.579	64.68
877.752	60.59
877.924	48.3
878.097	-0.85
878.269	-19.29
878.442	119.98
878.614	-9.05
878.786	44.2
878.959	17.58
879.131	36.01
879.303	-41.81
879.476	21.67
879.648	99.5
879.82	79.02
879.993	-41.81
880.165	-4.95
880.337	15.53
880.509	-0.85
880.681	-19.29
880.854	27.82
881.026	44.2
881.198	72.87
881.37	-17.24
881.542	-19.29
881.714	21.67
881.886	-78.68
882.058	-29.52
882.23	19.63
882.402	-0.85
882.574	38.06
882.746	46.25
882.918	83.11
883.09	85.16
883.262	-0.85
883.434	19.63
883.606	-4.95
883.778	-62.29
883.95	5.29
884.122	-33.62
884.293	50.35
884.465	152.74
884.637	-52.05
884.809	3.24
884.98	3.24
885.152	93.35
885.324	13.48
885.496	-54.1
885.667	48.3
885.839	-21.33
886.011	27.82
886.182	-17.24
886.354	58.54
886.525	27.82
886.697	46.25
886.869	-90.96
887.04	25.77
887.212	44.2
887.383	36.01
887.555	-17.24
887.726	15.53
887.897	-31.57
888.069	21.67
888.24	11.43
888.412	19.63
888.583	27.82
888.754	-7
888.926	5.29
889.097	3.24
889.268	15.53
889.44	85.16
889.611	-9.05
889.782	-9.05
889.953	-33.62
890.125	27.82
890.296	-70.48
890.467	-13.14
890.638	-41.81
890.809	-33.62
890.98	7.34
891.151	-4.95
891.323	44.2
891.494	52.39
891.665	-27.48
891.836	-21.33
892.007	21.67
892.178	11.43
892.349	44.2
892.52	-13.14
892.691	-54.1
892.862	27.82
893.032	11.43
893.203	-11.09
893.374	44.2
893.545	44.2
893.716	-21.33
893.887	13.48
894.057	-45.91
894.228	68.78
894.399	17.58
894.57	64.68
894.74	21.67
894.911	13.48
895.082	-2.9
895.253	-27.48
895.423	-33.62
895.594	68.78
895.764	5.29
895.935	-25.43
896.106	-21.33
896.276	-23.38
896.447	15.53
896.617	-29.52
896.788	-27.48
896.958	-29.52
897.129	68.78
897.299	-0.85
897.47	-33.62
897.64	29.87
897.81	-17.24
897.981	-27.48
898.151	-17.24
898.322	122.02
898.492	-0.85
898.662	25.77
898.832	27.82
899.003	3.24
899.173	109.74
899.343	29.87
899.513	11.43
