Data from USB4F104151__300__14-34-58-821.txt Node

Date: Thu Mar 13 14:34:58 EDT 2025
User: louis
Spectrometer: USB4F10415
Trigger mode: 4
Integration Time (sec): 2.500000E-2
Scans to average: 1
Electric dark correction enabled: true
Nonlinearity correction enabled: false
Boxcar width: 0
XAxis mode: Wavelengths
Number of Pixels in Spectrum: 3648
>>>>>Begin Spectral Data<<<<<
178.204	-150.36
178.424	-150.36
178.644	-150.36
178.864	-226.13
179.084	-103.25
179.304	44.2
179.524	-13.14
179.744	23.72
179.964	29.87
180.184	-37.72
180.404	7.34
180.624	33.96
180.844	5.29
181.064	-0.85
181.283	-0.85
181.503	-127.83
181.723	36.01
181.943	-7
182.163	76.97
182.383	-50
182.602	109.74
182.822	54.44
183.042	113.83
183.262	76.97
183.482	60.59
183.701	-4.95
183.921	-4.95
184.141	25.77
184.361	52.39
184.58	-13.14
184.8	76.97
185.02	31.91
185.239	25.77
185.459	29.87
185.679	76.97
185.898	-45.91
186.118	58.54
186.338	23.72
186.557	79.02
186.777	-45.91
186.997	13.48
187.216	-29.52
187.436	52.39
187.655	-62.29
187.875	81.07
188.095	3.24
188.314	85.16
188.534	109.74
188.753	-27.48
188.973	36.01
189.192	68.78
189.412	15.53
189.631	-23.38
189.851	60.59
190.07	122.02
190.29	-13.14
190.509	60.59
190.729	40.11
190.948	68.78
191.168	87.21
191.387	91.31
191.607	-11.09
191.826	42.15
192.045	-31.57
192.265	-4.95
192.484	58.54
192.704	52.39
192.923	-52.05
193.142	152.74
193.362	89.26
193.581	93.35
193.8	5.29
194.02	29.87
194.239	33.96
194.458	-29.52
194.678	38.06
194.897	7.34
195.116	11.43
195.335	64.68
195.555	79.02
195.774	-11.09
195.993	15.53
196.212	60.59
196.432	23.72
196.651	56.49
196.87	-9.05
197.089	81.07
197.308	44.2
197.528	13.48
197.747	-29.52
197.966	7.34
198.185	56.49
198.404	-21.33
198.623	27.82
198.842	60.59
199.062	74.92
199.281	52.39
199.5	-19.29
199.719	109.74
199.938	27.82
200.157	122.02
200.376	25.77
200.595	5.29
200.814	-13.14
201.033	64.68
201.252	60.59
201.471	21.67
201.69	95.4
201.909	119.98
202.128	3.24
202.347	105.64
202.566	-0.85
202.785	-13.14
203.004	-37.72
203.223	38.06
203.442	36.01
203.661	89.26
203.879	23.72
204.098	-25.43
204.317	-21.33
204.536	79.02
204.755	-21.33
204.974	27.82
205.193	56.49
205.411	122.02
205.63	3.24
205.849	76.97
206.068	-0.85
206.287	21.67
206.505	-4.95
206.724	-50
206.943	72.87
207.162	-45.91
207.381	3.24
207.599	19.63
207.818	56.49
208.037	-0.85
208.255	60.59
208.474	21.67
208.693	5.29
208.911	-29.52
209.13	29.87
209.349	-29.52
209.567	19.63
209.786	-4.95
210.005	7.34
210.223	38.06
210.442	-21.33
210.661	70.83
210.879	48.3
211.098	46.25
211.316	44.2
211.535	87.21
211.753	-23.38
211.972	21.67
212.191	-4.95
212.409	3.24
212.628	101.55
212.846	-4.95
213.065	-9.05
213.283	60.59
213.502	-9.05
213.72	48.3
213.938	62.63
214.157	19.63
214.375	31.91
214.594	-70.48
214.812	21.67
215.031	27.82
215.249	-15.19
215.467	36.01
215.686	5.29
215.904	85.16
216.122	7.34
216.341	-0.85
216.559	40.11
216.778	111.78
216.996	52.39
217.214	11.43
217.432	-21.33
217.651	-31.57
217.869	81.07
218.087	107.69
218.306	-27.48
218.524	76.97
218.742	36.01
218.96	-25.43
219.179	-31.57
219.397	38.06
219.615	44.2
219.833	36.01
220.051	-2.9
220.27	126.12
220.488	21.67
220.706	21.67
220.924	-2.9
221.142	27.82
221.36	27.82
221.578	60.59
221.796	54.44
222.015	-2.9
222.233	-13.14
222.451	29.87
222.669	13.48
222.887	95.4
223.105	-0.85
223.323	-29.52
223.541	-21.33
223.759	38.06
223.977	15.53
224.195	76.97
224.413	25.77
224.631	1.19
224.849	3.24
225.067	76.97
225.285	3.24
225.503	-2.9
225.721	11.43
225.939	5.29
226.157	-29.52
226.375	119.98
226.592	-0.85
226.81	-11.09
227.028	36.01
227.246	60.59
227.464	111.78
227.682	76.97
227.9	38.06
228.117	11.43
228.335	101.55
228.553	-4.95
228.771	19.63
228.989	64.68
229.206	85.16
229.424	40.11
229.642	36.01
229.86	-21.33
230.077	111.78
230.295	5.29
230.513	74.92
230.731	101.55
230.948	122.02
231.166	11.43
231.384	70.83
231.601	-13.14
231.819	46.25
232.037	-21.33
232.254	36.01
232.472	15.53
232.689	-37.72
232.907	21.67
233.125	15.53
233.342	11.43
233.56	-0.85
233.777	160.94
233.995	50.35
234.213	52.39
234.43	11.43
234.648	-17.24
234.865	23.72
235.083	13.48
235.3	11.43
235.518	111.78
235.735	3.24
235.953	36.01
236.17	54.44
236.388	38.06
236.605	64.68
236.822	76.97
237.04	93.35
237.257	31.91
237.475	11.43
237.692	85.16
237.909	46.25
238.127	19.63
238.344	21.67
238.562	36.01
238.779	-13.14
238.996	-0.85
239.214	-2.9
239.431	52.39
239.648	42.15
239.865	89.26
240.083	74.92
240.3	36.01
240.517	-31.57
240.735	52.39
240.952	72.87
241.169	70.83
241.386	44.2
241.603	-11.09
241.821	-33.62
242.038	44.2
242.255	109.74
242.472	-0.85
242.689	29.87
242.907	19.63
243.124	-2.9
243.341	44.2
243.558	-17.24
243.775	-21.33
243.992	-19.29
244.209	44.2
244.426	50.35
244.643	54.44
244.86	-21.33
245.078	46.25
245.295	46.25
245.512	19.63
245.729	-37.72
245.946	44.2
246.163	42.15
246.38	3.24
246.597	-15.19
246.814	15.53
247.031	31.91
247.248	46.25
247.464	36.01
247.681	40.11
247.898	68.78
248.115	19.63
248.332	44.2
248.549	85.16
248.766	42.15
248.983	79.02
249.2	52.39
249.417	95.4
249.633	23.72
249.85	27.82
250.067	29.87
250.284	70.83
250.501	76.97
250.717	101.55
250.934	38.06
251.151	-0.85
251.368	-19.29
251.585	11.43
251.801	46.25
252.018	-37.72
252.235	21.67
252.451	44.2
252.668	31.91
252.885	126.12
253.102	50.35
253.318	-21.33
253.535	27.82
253.752	60.59
253.968	44.2
254.185	44.2
254.401	-25.43
254.618	76.97
254.835	-33.62
255.051	119.98
255.268	95.4
255.484	60.59
255.701	13.48
255.917	44.2
256.134	48.3
256.351	-15.19
256.567	-70.48
256.784	68.78
257	44.2
257.217	48.3
257.433	-4.95
257.65	68.78
257.866	99.5
258.082	-2.9
258.299	-93.01
258.515	27.82
258.732	72.87
258.948	-33.62
259.165	7.34
259.381	54.44
259.597	21.67
259.814	19.63
260.03	19.63
260.246	-17.24
260.463	38.06
260.679	103.59
260.895	-62.29
261.112	27.82
261.328	29.87
261.544	-43.86
261.761	132.26
261.977	138.41
262.193	-58.2
262.409	23.72
262.626	56.49
262.842	70.83
263.058	21.67
263.274	5.29
263.49	-45.91
263.707	23.72
263.923	81.07
264.139	44.2
264.355	15.53
264.571	93.35
264.787	117.93
265.004	91.31
265.22	-4.95
265.436	56.49
265.652	29.87
265.868	23.72
266.084	-17.24
266.3	48.3
266.516	21.67
266.732	23.72
266.948	31.91
267.164	54.44
267.38	-11.09
267.596	11.43
267.812	83.11
268.028	48.3
268.244	38.06
268.46	23.72
268.676	74.92
268.892	89.26
269.108	-9.05
269.324	5.29
269.54	-31.57
269.756	56.49
269.972	-43.86
270.188	31.91
270.403	-33.62
270.619	5.29
270.835	52.39
271.051	44.2
271.267	33.96
271.483	3.24
271.698	167.08
271.914	13.48
272.13	19.63
272.346	36.01
272.562	36.01
272.777	105.64
272.993	-9.05
273.209	44.2
273.425	52.39
273.64	27.82
273.856	44.2
274.072	3.24
274.287	46.25
274.503	70.83
274.719	48.3
274.934	13.48
275.15	-21.33
275.366	62.63
275.581	29.87
275.797	-4.95
276.012	5.29
276.228	-9.05
276.444	70.83
276.659	54.44
276.875	-23.38
277.09	3.24
277.306	-21.33
277.521	52.39
277.737	3.24
277.952	76.97
278.168	-19.29
278.383	-17.24
278.599	5.29
278.814	40.11
279.03	-9.05
279.245	136.36
279.461	-25.43
279.676	62.63
279.892	52.39
280.107	-45.91
280.322	27.82
280.538	27.82
280.753	11.43
280.969	5.29
281.184	48.3
281.399	95.4
281.615	68.78
281.83	-23.38
282.045	44.2
282.26	68.78
282.476	46.25
282.691	29.87
282.906	58.54
283.122	117.93
283.337	3.24
283.552	-19.29
283.767	9.39
283.983	-47.96
284.198	48.3
284.413	46.25
284.628	-4.95
284.843	38.06
285.058	52.39
285.274	-13.14
285.489	64.68
285.704	72.87
285.919	1.19
286.134	76.97
286.349	5.29
286.564	29.87
286.779	119.98
286.995	40.11
287.21	-0.85
287.425	64.68
287.64	-45.91
287.855	60.59
288.07	-15.19
288.285	40.11
288.5	93.35
288.715	62.63
288.93	81.07
289.145	79.02
289.36	-11.09
289.575	-37.72
289.79	66.73
290.004	85.16
290.219	117.93
290.434	36.01
290.649	-31.57
290.864	95.4
291.079	56.49
291.294	5.29
291.509	68.78
291.724	33.96
291.938	5.29
292.153	-19.29
292.368	1.19
292.583	36.01
292.798	60.59
293.012	27.82
293.227	111.78
293.442	19.63
293.657	60.59
293.871	29.87
294.086	11.43
294.301	60.59
294.516	85.16
294.73	-0.85
294.945	-17.24
295.16	93.35
295.374	44.2
295.589	72.87
295.804	19.63
296.018	44.2
296.233	56.49
296.447	44.2
296.662	109.74
296.877	85.16
297.091	87.21
297.306	-4.95
297.52	-9.05
297.735	85.16
297.949	25.77
298.164	154.79
298.378	-35.67
298.593	68.78
298.807	3.24
299.022	21.67
299.236	122.02
299.451	1.19
299.665	44.2
299.88	29.87
300.094	-29.52
300.309	113.83
300.523	21.67
300.737	50.35
300.952	21.67
301.166	95.4
301.381	-52.05
301.595	-19.29
301.809	31.91
302.024	36.01
302.238	21.67
302.452	136.36
302.667	3.24
302.881	52.39
303.095	19.63
303.309	58.54
303.524	27.82
303.738	46.25
303.952	-2.9
304.166	48.3
304.381	-25.43
304.595	87.21
304.809	19.63
305.023	36.01
305.237	-29.52
305.452	70.83
305.666	95.4
305.88	50.35
306.094	3.24
306.308	76.97
306.522	-11.09
306.736	72.87
306.95	40.11
307.164	27.82
307.379	68.78
307.593	60.59
307.807	48.3
308.021	87.21
308.235	72.87
308.449	54.44
308.663	7.34
308.877	97.45
309.091	52.39
309.305	54.44
309.519	-7
309.733	38.06
309.947	-2.9
310.161	42.15
310.374	27.82
310.588	56.49
310.802	7.34
311.016	54.44
311.23	101.55
311.444	36.01
311.658	54.44
311.872	101.55
312.085	101.55
312.299	60.59
312.513	29.87
312.727	-27.48
312.941	36.01
313.154	27.82
313.368	48.3
313.582	79.02
313.796	76.97
314.009	11.43
314.223	74.92
314.437	87.21
314.651	36.01
314.864	-4.95
315.078	19.63
315.292	31.91
315.505	17.58
315.719	40.11
315.933	40.11
316.146	64.68
316.36	-17.24
316.573	9.39
316.787	36.01
317.001	68.78
317.214	11.43
317.428	64.68
317.641	76.97
317.855	27.82
318.068	15.53
318.282	76.97
318.495	56.49
318.709	70.83
318.922	-11.09
319.136	103.59
319.349	87.21
319.563	-52.05
319.776	-11.09
319.99	-54.1
320.203	83.11
320.417	42.15
320.63	126.12
320.843	79.02
321.057	-66.39
321.27	85.16
321.483	40.11
321.697	48.3
321.91	79.02
322.124	36.01
322.337	29.87
322.55	38.06
322.763	-21.33
322.977	91.31
323.19	-9.05
323.403	62.63
323.617	-21.33
323.83	68.78
324.043	42.15
324.256	95.4
324.469	44.2
324.683	19.63
324.896	23.72
325.109	128.17
325.322	-21.33
325.535	68.78
325.748	109.74
325.962	19.63
326.175	70.83
326.388	23.72
326.601	72.87
326.814	50.35
327.027	27.82
327.24	95.4
327.453	-11.09
327.666	85.16
327.879	29.87
328.092	60.59
328.305	38.06
328.518	101.55
328.731	-52.05
328.944	-13.14
329.157	87.21
329.37	72.87
329.583	93.35
329.796	76.97
330.009	27.82
330.222	42.15
330.435	66.73
330.648	101.55
330.861	7.34
331.073	11.43
331.286	3.24
331.499	27.82
331.712	54.44
331.925	68.78
332.138	36.01
332.35	74.92
332.563	29.87
332.776	76.97
332.989	-35.67
333.202	85.16
333.414	42.15
333.627	-43.86
333.84	64.68
334.053	62.63
334.265	19.63
334.478	23.72
334.691	52.39
334.903	23.72
335.116	74.92
335.329	44.2
335.541	60.59
335.754	48.3
335.966	44.2
336.179	60.59
336.392	-21.33
336.604	44.2
336.817	15.53
337.029	150.7
337.242	44.2
337.454	44.2
337.667	11.43
337.88	60.59
338.092	95.4
338.305	36.01
338.517	52.39
338.729	-29.52
338.942	64.68
339.154	54.44
339.367	-4.95
339.579	7.34
339.792	-11.09
340.004	56.49
340.217	-17.24
340.429	52.39
340.641	44.2
340.854	107.69
341.066	27.82
341.278	109.74
341.491	54.44
341.703	36.01
341.915	-2.9
342.128	-19.29
342.34	70.83
342.552	66.73
342.764	62.63
342.977	-76.63
343.189	19.63
343.401	-4.95
343.613	21.67
343.826	-13.14
344.038	3.24
344.25	46.25
344.462	7.34
344.674	85.16
344.886	68.78
345.099	126.12
345.311	15.53
345.523	21.67
345.735	44.2
345.947	87.21
346.159	44.2
346.371	38.06
346.583	19.63
346.795	99.5
347.007	-27.48
347.219	93.35
347.431	-17.24
347.643	11.43
347.855	81.07
348.067	60.59
348.279	-37.72
348.491	70.83
348.703	38.06
348.915	52.39
349.127	-7
349.339	85.16
349.551	60.59
349.763	93.35
349.975	7.34
350.187	19.63
350.399	66.73
350.61	81.07
350.822	46.25
351.034	68.78
351.246	-15.19
351.458	44.2
351.669	142.5
351.881	62.63
352.093	-0.85
352.305	70.83
352.517	60.59
352.728	68.78
352.94	58.54
353.152	117.93
353.363	19.63
353.575	-2.9
353.787	128.17
353.999	122.02
354.21	79.02
354.422	97.45
354.633	46.25
354.845	40.11
355.057	79.02
355.268	-4.95
355.48	177.32
355.692	-2.9
355.903	5.29
356.115	11.43
356.326	23.72
356.538	87.21
356.749	64.68
356.961	109.74
357.172	52.39
357.384	48.3
357.595	154.79
357.807	117.93
358.018	-37.72
358.23	11.43
358.441	97.45
358.653	85.16
358.864	87.21
359.075	-21.33
359.287	79.02
359.498	-13.14
359.709	36.01
359.921	44.2
360.132	119.98
360.344	52.39
360.555	3.24
360.766	-4.95
360.977	-9.05
361.189	101.55
361.4	21.67
361.611	21.67
361.823	5.29
362.034	74.92
362.245	11.43
362.456	46.25
362.667	38.06
362.879	72.87
363.09	72.87
363.301	79.02
363.512	29.87
363.723	76.97
363.935	58.54
364.146	36.01
364.357	19.63
364.568	19.63
364.779	56.49
364.99	115.88
365.201	-21.33
365.412	56.49
365.623	74.92
365.834	19.63
366.045	19.63
366.256	76.97
366.467	122.02
366.678	113.83
366.889	-17.24
367.1	36.01
367.311	99.5
367.522	58.54
367.733	56.49
367.944	99.5
368.155	31.91
368.366	52.39
368.577	142.5
368.788	56.49
368.999	44.2
369.209	23.72
369.42	101.55
369.631	144.55
369.842	81.07
370.053	27.82
370.264	79.02
370.474	27.82
370.685	19.63
370.896	27.82
371.107	97.45
371.317	27.82
371.528	83.11
371.739	15.53
371.95	48.3
372.16	54.44
372.371	21.67
372.582	25.77
372.792	31.91
373.003	19.63
373.214	79.02
373.424	76.97
373.635	74.92
373.846	150.7
374.056	105.64
374.267	101.55
374.477	68.78
374.688	-45.91
374.898	-19.29
375.109	95.4
375.319	19.63
375.53	91.31
375.74	93.35
375.951	40.11
376.161	33.96
376.372	119.98
376.582	124.07
376.793	54.44
377.003	-29.52
377.214	23.72
377.424	-2.9
377.635	5.29
377.845	27.82
378.055	93.35
378.266	126.12
378.476	3.24
378.686	99.5
378.897	70.83
379.107	64.68
379.317	81.07
379.528	17.58
379.738	11.43
379.948	-13.14
380.158	31.91
380.369	48.3
380.579	70.83
380.789	19.63
380.999	44.2
381.21	91.31
381.42	93.35
381.63	27.82
381.84	68.78
382.05	40.11
382.261	126.12
382.471	11.43
382.681	117.93
382.891	60.59
383.101	38.06
383.311	23.72
383.521	-0.85
383.731	154.79
383.941	62.63
384.151	72.87
384.361	52.39
384.571	52.39
384.781	68.78
384.991	93.35
385.201	134.31
385.411	25.77
385.621	36.01
385.831	134.31
386.041	29.87
386.251	27.82
386.461	60.59
386.671	27.82
386.881	95.4
387.091	72.87
387.301	60.59
387.511	19.63
387.72	93.35
387.93	76.97
388.14	29.87
388.35	40.11
388.56	109.74
388.769	76.97
388.979	15.53
389.189	27.82
389.399	64.68
389.609	95.4
389.818	119.98
390.028	72.87
390.238	60.59
390.447	93.35
390.657	93.35
390.867	85.16
391.076	36.01
391.286	66.73
391.496	68.78
391.705	87.21
391.915	103.59
392.125	144.55
392.334	99.5
392.544	122.02
392.753	60.59
392.963	-7
393.172	62.63
393.382	52.39
393.591	158.89
393.801	93.35
394.01	87.21
394.22	19.63
394.429	195.75
394.639	79.02
394.848	134.31
395.058	52.39
395.267	70.83
395.477	60.59
395.686	93.35
395.895	187.56
396.105	167.08
396.314	68.78
396.524	68.78
396.733	87.21
396.942	134.31
397.152	160.94
397.361	117.93
397.57	66.73
397.78	152.74
397.989	79.02
398.198	191.66
398.407	85.16
398.617	79.02
398.826	152.74
399.035	79.02
399.244	132.26
399.453	85.16
399.663	175.27
399.872	173.22
400.081	132.26
400.29	177.32
400.499	119.98
400.708	136.36
400.917	93.35
401.127	122.02
401.336	48.3
401.545	122.02
401.754	160.94
401.963	79.02
402.172	85.16
402.381	126.12
402.59	99.5
402.799	189.61
403.008	117.93
403.217	146.6
403.426	158.89
403.635	99.5
403.844	162.98
404.053	81.07
404.262	101.55
404.471	199.85
404.68	175.27
404.888	173.22
405.097	175.27
405.306	249
405.515	201.9
405.724	150.7
405.933	224.42
406.142	179.37
406.35	222.38
406.559	195.75
406.768	191.66
406.977	261.29
407.185	236.71
407.394	216.23
407.603	150.7
407.812	283.81
408.02	275.62
408.229	208.04
408.438	371.88
408.646	261.29
408.855	251.05
409.064	251.05
409.272	289.96
409.481	332.97
409.69	324.77
409.898	324.77
410.107	392.36
410.315	439.46
410.524	367.78
410.733	414.88
410.941	355.49
411.15	453.8
411.358	431.27
411.567	519.33
411.775	468.13
411.984	421.03
412.192	539.81
412.401	511.14
412.609	552.1
412.818	496.8
413.026	625.83
413.234	664.74
413.443	543.91
413.651	564.39
413.86	697.5
414.068	724.13
414.276	689.31
414.485	666.78
414.693	797.85
414.901	830.62
415.11	818.33
415.318	797.85
415.526	879.77
415.734	838.81
415.943	916.64
416.151	914.59
416.359	980.12
416.567	941.21
416.776	1105.05
416.984	1035.42
417.192	1207.45
417.4	1078.43
417.608	1125.53
417.817	1150.11
418.025	1305.75
418.233	1334.42
418.441	1299.61
418.649	1395.86
418.857	1574.03
419.065	1469.59
419.273	1463.44
419.481	1518.74
419.689	1754.26
419.897	1741.97
420.105	1830.03
420.313	1791.12
420.521	1848.46
420.729	1907.85
420.937	1922.19
421.145	2075.79
421.353	2077.83
421.561	2337.93
421.769	2256.01
421.977	2446.47
422.185	2299.02
422.393	2571.4
422.601	2538.63
422.809	2698.37
423.017	2776.19
423.224	2696.32
423.432	2866.3
423.64	2858.11
423.848	3230.84
424.056	3083.39
424.263	3271.8
424.471	3378.3
424.679	3402.87
424.887	3460.21
425.094	3763.31
425.302	3677.3
425.51	3703.92
425.718	3878
425.925	3878
426.133	4142.19
426.341	4344.94
426.548	4543.59
426.756	4602.98
426.964	4519.01
427.171	4783.2
427.379	4992.09
427.586	5041.25
427.794	5129.31
428.001	5516.37
428.209	5770.32
428.417	5340.25
428.624	6009.93
428.832	5925.97
429.039	5807.19
429.247	5930.06
429.454	6509.64
429.662	6956.1
429.869	6403.14
430.076	7033.92
430.284	6622.28
430.491	7144.51
430.699	7396.41
430.906	7582.77
431.114	7504.95
431.321	7830.58
431.528	7885.87
431.736	8371.24
431.943	8614.95
432.15	8526.89
432.358	8608.81
432.565	9255.97
432.772	9186.33
432.979	9628.7
433.187	9628.7
433.394	9886.74
433.601	10284.05
433.808	10355.72
434.016	10429.45
434.223	10640.39
434.43	11324.41
434.637	11361.28
434.844	12110.83
435.052	12119.03
435.259	12166.13
435.466	11965.43
435.673	11979.76
435.88	12774.38
436.087	13511.64
436.294	13614.04
436.501	13286.37
436.708	13272.03
436.915	13695.96
437.122	14224.34
437.329	14420.94
437.537	15113.16
437.743	15141.83
437.95	14914.5
438.157	15856.57
438.364	16317.36
438.571	16307.12
438.778	16587.69
438.985	17460.13
439.192	17308.58
439.399	17689.5
439.606	17507.23
439.813	18561.94
440.02	19471.23
440.227	18949
440.433	18801.55
440.64	19573.63
440.847	19286.92
441.054	19925.88
441.261	21195.62
441.467	20734.83
441.674	21295.97
441.881	22233.94
442.088	21982.04
442.294	21801.82
442.501	22037.34
442.708	23014.22
442.914	23581.51
443.121	24552.24
443.328	23802.69
443.534	25365.29
443.741	25146.15
443.948	24419.13
444.154	26512.15
444.361	26247.96
444.568	26366.74
444.774	26159.9
444.981	26805.01
445.187	27917.06
445.394	28627.7
445.6	28220.16
445.807	31267.53
446.013	29641.45
446.22	29909.73
446.426	31476.43
446.633	31662.79
446.839	32672.44
447.046	31613.64
447.252	33077.94
447.459	33145.52
447.665	33039.03
447.871	34374.3
448.078	35957.38
448.284	34300.58
448.491	35347.09
448.697	36082.31
448.903	37102.2
449.11	37188.21
449.316	36854.39
449.522	37270.13
449.728	38062.69
449.935	38427.23
450.141	38681.18
450.347	39410.26
450.553	37685.87
450.76	38707.8
450.966	40092.23
451.172	39182.93
451.378	40704.57
451.584	39342.67
451.791	40567.36
451.997	40698.43
452.203	41343.54
452.409	41527.86
452.615	41185.85
452.821	38949.46
453.027	39004.76
453.233	41247.29
453.44	39549.52
453.646	39660.11
453.852	40256.07
454.058	40610.37
454.264	38967.9
454.47	40428.1
454.676	38961.75
454.882	40415.81
455.088	36962.93
455.294	37595.76
455.5	38636.13
455.705	38584.93
455.911	37223.03
456.117	36373.12
456.323	35936.9
456.529	33526.44
456.735	35623.56
456.941	34517.66
457.147	33907.37
457.352	32834.23
457.558	32697.02
457.764	32848.57
457.97	32160.45
458.176	31335.12
458.381	31158.99
458.587	30016.22
458.793	29618.92
458.999	28130.05
459.204	30059.23
459.41	29481.7
459.616	27650.82
459.821	27200.27
460.027	27583.24
460.233	26960.66
460.438	25416.49
460.644	25549.6
460.85	24761.14
461.055	24312.63
461.261	24083.26
461.466	22135.64
461.672	21560.16
461.878	23141.19
462.083	21521.25
462.289	21209.96
462.494	21105.51
462.7	19948.41
462.905	19583.87
463.111	19782.52
463.316	20175.73
463.522	19673.98
463.727	19620.74
463.932	19690.37
464.138	19293.06
464.343	19413.89
464.549	19078.02
464.754	19448.71
464.959	19360.64
465.165	19268.48
465.37	18193.3
465.575	18056.09
465.781	18508.69
465.986	18908.04
466.191	18011.03
466.397	17830.81
466.602	16927.66
466.807	17490.85
467.012	17658.78
467.218	17638.3
467.423	17243.04
467.628	17400.74
467.833	17832.86
468.038	17302.43
468.244	16952.23
468.449	17105.83
468.654	16546.73
468.859	16495.53
469.064	16604.08
469.269	15848.38
469.474	15879.1
469.679	16409.52
469.885	15961.02
470.09	16221.11
470.295	15948.73
470.5	15578.04
470.705	15616.96
470.91	15207.36
471.115	15195.07
471.32	15401.92
471.525	15487.93
471.73	14949.32
471.935	15010.76
472.139	14308.3
472.344	14287.82
472.549	14201.81
472.754	14355.41
472.959	13880.28
473.164	13644.76
473.369	13593.56
473.574	13913.05
473.778	13900.76
473.983	13827.03
474.188	13677.53
474.393	13143.01
474.598	12993.51
474.802	12895.21
475.007	13083.62
475.212	12784.62
475.417	12397.55
475.621	12551.15
475.826	12280.82
476.031	12049.39
476.235	11717.62
476.44	12334.06
476.645	12018.68
476.849	11963.38
477.054	11781.11
477.259	11695.1
477.463	11449.34
477.668	11303.93
477.872	11482.11
478.077	11340.8
478.282	10894.34
478.486	11013.12
478.691	10925.06
478.895	10798.09
479.1	10873.86
479.304	10703.88
479.509	10634.25
479.713	10669.06
479.918	10277.9
480.122	10411.02
480.326	10363.92
480.531	10212.37
480.735	10243.09
480.94	10109.97
481.144	10544.14
481.348	9925.65
481.553	10308.62
481.757	9952.27
481.961	9927.7
482.166	10181.65
482.37	10036.24
482.574	9884.69
482.778	9964.56
482.983	10112.02
483.187	9845.78
483.391	10107.92
483.595	9892.88
483.8	9604.12
484.004	9890.84
484.208	9991.19
484.412	9946.13
484.616	9968.66
484.821	9882.64
485.025	9853.97
485.229	10005.52
485.433	9737.24
485.637	9972.75
485.841	9737.24
486.045	9890.84
486.249	9802.77
486.453	9675.8
486.657	9974.8
486.861	9849.88
487.065	9391.13
487.269	9853.97
487.473	9669.66
487.677	9778.2
487.881	9892.88
488.085	9731.09
488.289	9874.45
488.493	9917.46
488.697	9982.99
488.901	9858.07
489.105	9788.44
489.309	9724.95
489.512	9911.32
489.716	9716.76
489.92	9993.23
490.124	10042.39
490.328	10040.34
490.531	9784.34
490.735	10054.67
490.939	10071.06
491.143	9864.21
491.346	10306.57
491.55	10245.13
491.754	10204.17
491.958	10230.8
492.161	9976.85
492.365	10077.2
492.569	10046.48
492.772	10017.81
492.976	10234.89
493.18	10157.07
493.383	10552.33
493.587	10400.78
493.79	10814.47
493.994	10513.42
494.197	10427.4
494.401	10685.45
494.605	10509.32
494.808	10750.98
495.012	10744.84
495.215	10722.31
495.419	10951.68
495.622	10877.96
495.825	11097.09
496.029	10980.36
496.232	11099.14
496.436	11258.88
496.639	11629.56
496.843	11373.57
497.046	11652.09
497.249	11693.05
497.453	11656.18
497.656	11766.78
497.859	11973.62
498.063	11901.94
498.266	12381.17
498.469	12055.54
498.673	12119.03
498.876	12512.24
499.079	12655.59
499.282	12506.09
499.485	12919.78
499.689	12925.93
499.892	13200.35
500.095	13143.01
500.298	13384.67
500.501	13181.92
500.705	13851.61
500.908	13831.13
501.111	14031.83
501.314	14093.27
501.517	14150.61
501.72	14490.57
501.923	14371.79
502.126	14576.59
502.329	14984.13
502.532	14789.58
502.735	14875.59
502.938	15365.06
503.141	15205.31
503.344	15637.44
503.547	15397.82
503.75	15885.24
503.953	16135.09
504.156	16180.15
504.359	16288.69
504.562	16274.35
504.765	16665.52
504.968	16585.65
505.17	16903.08
505.373	17013.67
505.576	17281.95
505.779	17474.46
505.982	17466.27
506.185	18117.53
506.387	17980.31
506.59	18172.82
506.793	18303.89
506.996	18590.61
507.198	18789.26
507.401	18787.21
507.604	18985.86
507.807	19434.37
508.009	19164.04
508.212	19491.71
508.415	19772.28
508.617	19989.37
508.82	20063.1
509.022	20085.62
509.225	20495.22
509.428	20577.14
509.63	20849.52
509.833	20913
510.035	21275.49
510.238	21359.46
510.44	21590.88
510.643	21965.66
510.845	22113.11
511.048	21902.17
511.25	22307.67
511.453	22557.52
511.655	23403.33
511.858	23016.27
512.06	23317.32
512.262	23585.6
512.465	23325.51
512.667	23821.12
512.87	24183.61
513.072	24159.03
513.274	24525.62
513.477	24769.33
513.679	25023.28
513.881	25576.23
514.084	25441.06
514.286	25617.19
514.488	25436.97
514.69	26129.18
514.893	26317.59
515.095	26311.45
515.297	26612.5
515.499	26825.49
515.701	27165.45
515.904	27573
516.106	27327.24
516.308	27882.24
516.51	27939.58
516.712	28254.97
516.914	28457.72
517.116	28617.46
517.318	28891.89
517.52	28891.89
517.722	29209.32
517.925	29432.55
518.127	29709.03
518.329	29926.11
518.531	30243.55
518.733	30358.24
518.935	30800.6
519.136	30907.09
519.338	30919.38
519.54	30722.77
519.742	31474.38
519.944	31519.43
520.146	32033.47
520.348	32109.25
520.55	32234.17
520.752	32039.62
520.954	32815.8
521.155	32555.71
521.357	33014.45
521.559	33065.65
521.761	33499.82
521.963	33501.87
522.164	33671.85
522.366	33721
522.568	33948.32
522.77	34048.68
522.971	34810.52
523.173	34497.18
523.375	34284.19
523.576	34482.84
523.778	34441.89
523.98	35293.84
524.181	35031.7
524.383	35127.95
524.584	35277.46
524.786	35461.77
524.988	35480.21
525.189	35641.99
525.391	35494.54
525.592	35916.42
525.794	35842.7
525.995	36092.55
526.197	35773.06
526.398	35871.37
526.6	36430.46
526.801	36250.24
527.003	36215.43
527.204	36553.34
527.406	36602.49
527.607	36536.96
527.808	36430.46
528.01	36158.08
528.211	36741.75
528.412	36739.71
528.614	36643.45
528.815	36532.86
529.016	36795
529.218	36772.47
529.419	36557.44
529.62	36979.32
529.822	36500.09
530.023	36743.8
530.224	36653.69
530.425	36813.43
530.626	36371.07
530.828	36283.01
531.029	36676.22
531.23	36225.67
531.431	36536.96
531.632	36985.46
531.833	36782.71
532.035	36479.61
532.236	36573.82
532.437	36727.42
532.638	36420.22
532.839	36319.87
533.04	36151.94
533.241	36166.27
533.442	36659.84
533.643	36156.03
533.844	36289.15
534.045	36549.24
534.246	35947.14
534.447	36285.06
534.648	36000.39
534.849	36168.32
535.05	35914.37
535.251	36031.11
535.451	35971.72
535.652	36065.92
535.853	36072.07
536.054	35924.61
536.255	36424.32
536.456	35611.28
536.657	36006.53
536.857	36135.56
537.058	35326.61
537.259	35633.8
537.46	35705.48
537.66	35355.28
537.861	36033.16
538.062	35304.08
538.263	35594.89
538.463	35320.46
538.664	35338.9
538.865	35746.44
539.065	35756.68
539.266	34927.25
539.466	35525.26
539.667	35005.08
539.868	35365.52
540.068	35318.42
540.269	35633.8
540.469	35437.2
540.67	35060.37
540.87	34970.26
541.071	35291.79
541.271	34972.31
541.472	35119.76
541.672	34536.09
541.873	34615.96
542.073	34548.38
542.274	35394.19
542.474	34851.48
542.675	34276
542.875	35261.07
543.075	34775.7
543.276	34153.12
543.476	35168.91
543.676	34728.6
543.877	34982.55
544.077	34534.04
544.277	34384.54
544.478	34798.23
544.678	35052.18
544.878	34947.73
545.078	34765.46
545.279	34546.33
545.479	34439.84
545.679	34587.29
545.879	34894.49
546.079	34505.37
546.28	34663.07
546.48	34263.71
546.68	34452.12
546.88	34812.57
547.08	34757.27
547.28	34445.98
547.48	34335.39
547.68	34515.61
547.88	34106.02
548.081	34769.56
548.281	34587.29
548.481	34331.29
548.681	34808.47
548.881	34851.48
549.081	34771.61
549.28	34726.55
549.48	34826.9
549.68	34773.66
549.88	34947.73
550.08	34364.06
550.28	34656.92
550.48	34390.69
550.68	34794.14
550.88	34380.45
551.08	34527.9
551.279	34697.88
551.479	34628.25
551.679	34658.97
551.879	34474.65
552.079	35011.22
552.278	34550.43
552.478	34546.33
552.678	34820.76
552.878	34939.54
553.077	34871.96
553.277	34521.76
553.477	35056.28
553.676	35240.59
553.876	35013.27
554.076	34593.43
554.275	34833.05
554.475	34615.96
554.674	35043.99
554.874	35060.37
555.074	34878.1
555.273	34802.33
555.473	35658.38
555.672	34966.17
555.872	34921.11
556.071	35076.76
556.271	35246.74
556.47	35201.68
556.67	34765.46
556.869	34843.29
557.068	34878.1
557.268	34894.49
557.467	35463.82
557.667	35232.4
557.866	35119.76
558.065	35213.97
558.265	35027.6
558.464	34970.26
558.663	35394.19
558.863	34751.13
559.062	35240.59
559.261	34779.8
559.461	35445.39
559.66	34720.41
559.859	35017.36
560.058	34945.69
560.258	35205.78
560.457	35015.32
560.656	35435.15
560.855	35005.08
561.054	34904.73
561.253	35213.97
561.453	34824.86
561.652	35072.66
561.851	35306.13
562.05	35093.14
562.249	34984.6
562.448	35433.1
562.647	35453.58
562.846	35009.17
563.045	34986.64
563.244	34855.57
563.443	34970.26
563.642	34734.74
563.841	34839.19
564.04	34618.01
564.239	34980.5
564.438	34796.18
564.637	34808.47
564.836	34902.68
565.035	34321.05
565.234	35062.42
565.432	34437.79
565.631	34663.07
565.83	34685.59
566.029	34417.31
566.228	34284.19
566.427	34454.17
566.625	34486.94
566.824	33897.13
567.023	34552.48
567.222	33718.95
567.42	34431.65
567.619	34278.05
567.818	34071.2
568.016	34222.75
568.215	33942.18
568.414	33567.4
568.612	34575
568.811	33753.77
569.01	33880.74
569.208	33487.53
569.407	33868.45
569.605	33458.86
569.804	33383.09
570.002	33493.68
570.201	33442.48
570.4	33194.67
570.598	33194.67
570.797	32850.61
570.995	33512.11
571.193	32785.08
571.392	33110.71
571.59	32621.24
571.789	32455.36
571.987	32625.34
572.186	32559.8
572.384	32432.83
572.582	32430.78
572.781	32760.5
572.979	31779.53
573.177	32393.92
573.376	32107.2
573.574	31935.17
573.772	32217.79
573.971	32006.85
574.169	31992.51
574.367	31931.08
574.565	31943.36
574.763	31759.05
574.962	31761.09
575.16	31195.85
575.358	31435.47
575.556	30810.84
575.754	31296.21
575.952	31081.17
576.151	31130.32
576.349	30812.88
576.547	30681.81
576.745	30716.63
576.943	30900.95
577.141	30405.34
577.339	30896.85
577.537	30431.96
577.735	30479.07
577.933	30249.69
578.131	30700.25
578.329	30057.18
578.527	30092
578.725	29946.59
578.923	30216.93
579.121	29958.88
579.319	29270.76
579.516	29569.77
579.714	29616.87
579.912	29641.45
580.11	29156.08
580.308	29567.72
580.506	29508.33
580.704	28697.33
580.901	29158.13
581.099	29371.11
581.297	29014.77
581.495	28828.4
581.692	29268.72
581.89	28758.77
582.088	28865.27
582.285	28474.1
582.483	28599.03
582.681	28580.6
582.878	28637.94
583.076	28216.06
583.274	28742.39
583.471	27933.44
583.669	28355.32
583.866	28281.6
584.064	28359.42
584.262	27863.81
584.459	28197.63
584.657	27888.39
584.854	27917.06
585.052	27443.98
585.249	27816.71
585.447	27704.07
585.644	27239.18
585.841	27439.88
586.039	27632.39
586.236	27085.58
586.434	27126.54
586.631	27128.59
586.828	27069.2
587.026	27247.37
587.223	27128.59
587.42	27124.49
587.618	27026.19
587.815	26610.45
588.012	26698.52
588.21	26598.16
588.407	26665.75
588.604	26749.71
588.801	26432.28
588.999	26307.35
589.196	26596.12
589.393	26448.66
589.59	26344.22
589.787	26276.63
589.984	26284.83
590.182	26039.07
590.379	26239.77
590.576	25989.92
590.773	25811.74
590.97	26057.5
591.167	26016.54
591.364	25596.71
591.561	25981.73
591.758	25432.87
591.955	25654.05
592.152	26092.32
592.349	25731.87
592.546	25701.15
592.743	25627.43
592.94	25250.6
593.137	25328.42
593.334	25537.32
593.531	25244.46
593.727	25389.86
593.924	25512.74
594.121	25135.92
594.318	25371.43
594.515	24912.69
594.712	25541.41
594.908	24972.08
595.105	25164.59
595.302	24816.43
595.499	25246.51
595.696	25242.41
595.892	25125.68
596.089	25170.73
596.286	25049.9
596.482	25006.89
596.679	25236.27
596.876	25201.45
597.072	25113.39
597.269	24875.82
597.466	24789.81
597.662	24963.89
597.859	24965.93
598.055	24867.63
598.252	24492.85
598.448	24910.64
598.645	24726.32
598.841	24501.04
599.038	24509.24
599.234	24767.28
599.431	24798
599.627	24544.05
599.824	24906.54
600.02	24681.27
600.217	24662.83
600.413	24744.75
600.609	24693.55
600.806	24484.66
601.002	24582.96
601.198	24636.21
601.395	24468.28
601.591	24623.92
601.787	24601.4
601.984	24740.66
602.18	24886.06
602.376	24558.39
602.572	24521.52
602.769	24533.81
602.965	24531.76
603.161	24881.97
603.357	24724.27
603.553	24613.68
603.75	24720.18
603.946	24642.35
604.142	24757.04
604.338	24621.87
604.534	24945.45
604.73	24902.45
604.926	24697.65
605.122	25117.48
605.318	24609.59
605.514	24861.49
605.71	24752.94
605.906	24933.17
606.102	24793.9
606.298	24892.21
606.494	25107.24
606.69	25045.8
606.886	24902.45
607.082	24759.09
607.278	25008.94
607.474	24664.88
607.67	25105.2
607.866	24687.41
608.062	25383.72
608.257	25107.24
608.453	25144.11
608.649	25422.63
608.845	25082.67
609.041	25047.85
609.236	25068.33
609.432	25195.31
609.628	25359.14
609.824	25445.16
610.019	25254.7
610.215	25340.71
610.411	25670.43
610.606	25289.51
610.802	25637.67
610.998	25402.15
611.193	25475.88
611.389	24886.06
611.584	25488.17
611.78	25377.58
611.976	25699.11
612.171	25508.65
612.367	25692.96
612.562	25477.93
612.758	25156.39
612.953	25176.87
613.149	25961.25
613.344	25309.99
613.539	25926.43
613.735	25916.19
613.93	25727.78
614.126	25609
614.321	26002.21
614.517	25371.43
614.712	25463.59
614.907	25271.08
615.103	25916.19
615.298	25494.31
615.493	26182.43
615.688	25545.51
615.884	25981.73
616.079	25054
616.274	25678.63
616.47	25930.53
616.665	25455.4
616.86	25508.65
617.055	25641.76
617.25	25672.48
617.445	25682.72
617.641	25297.7
617.836	25754.4
618.031	25205.55
618.226	25514.79
618.421	25336.62
618.616	25647.91
618.811	25238.31
619.006	25340.71
619.201	25097
619.396	25518.89
619.591	24777.52
619.786	25318.18
619.981	24752.94
620.176	24746.8
620.371	24728.37
620.566	25051.95
620.761	24804.14
620.956	24679.22
621.151	24451.89
621.346	24785.71
621.541	24144.7
621.735	24410.93
621.93	24199.99
622.125	24202.04
622.32	23835.45
622.515	23950.14
622.709	23685.95
622.904	23728.96
623.099	23696.19
623.294	23638.85
623.488	23374.66
623.683	23233.35
623.878	22823.76
624.072	23278.41
624.267	23333.7
624.462	22991.69
624.656	23042.89
624.851	22948.68
625.046	22608.72
625.24	22690.64
625.435	22403.92
625.629	22510.42
625.824	22211.42
626.018	22281.05
626.213	22010.71
626.407	21998.43
626.602	21908.32
626.796	21822.3
626.991	21789.53
627.185	21615.46
627.38	21713.76
627.574	21486.43
627.768	21160.81
627.963	21234.53
628.157	20913
628.352	21142.38
628.546	20601.71
628.74	20933.48
628.935	20697.97
629.129	20700.01
629.323	20304.76
629.517	20525.94
629.712	20374.39
629.906	20343.67
630.1	19905.4
630.294	20028.28
630.489	20020.09
630.683	20052.86
630.877	19473.28
631.071	19540.86
631.265	19827.58
631.459	19544.96
631.653	19356.55
631.848	19157.89
632.042	18928.52
632.236	19121.03
632.43	18912.14
632.624	18989.96
632.818	18697.1
633.012	18637.71
633.206	18723.72
633.4	18795.4
633.594	18299.8
633.788	18457.49
633.982	18484.11
634.176	18275.22
634.369	18305.94
634.563	18260.88
634.757	17900.44
634.951	18144.15
635.145	17994.65
635.339	18084.76
635.533	17519.52
635.726	17650.59
635.92	17236.9
636.114	17339.3
636.308	17208.23
636.501	17220.52
636.695	17079.21
636.889	16903.08
637.083	16657.32
637.276	16624.56
637.47	16528.3
637.664	16575.41
637.857	16413.62
638.051	16612.27
638.244	16417.71
638.438	16327.6
638.632	15913.91
638.825	15934.39
639.019	16004.02
639.212	15563.71
639.406	15674.3
639.599	15842.23
639.793	15801.27
639.986	15436.74
640.18	15541.18
640.373	15250.37
640.567	15178.69
640.76	15399.87
640.954	14955.46
641.147	14924.74
641.34	14812.1
641.534	14775.24
641.727	14756.81
641.92	14601.16
642.114	14234.58
642.307	14644.17
642.5	14586.83
642.694	14293.97
642.887	14203.86
643.08	14281.68
643.273	14007.25
643.467	13847.51
643.66	14029.78
643.853	13732.83
644.046	13605.85
644.239	13564.89
644.432	13716.44
644.626	13292.51
644.819	13321.18
645.012	13136.87
645.205	13163.49
645.398	13208.55
645.591	13192.16
645.784	12977.12
645.977	12880.87
646.17	12780.52
646.363	12874.73
646.556	12497.9
646.749	12702.7
646.942	12590.06
647.135	12379.12
647.328	12493.8
647.521	12405.74
647.714	12196.85
647.907	11906.04
648.099	12180.46
648.292	12356.59
648.485	12063.73
648.678	12076.02
648.871	11676.66
649.064	11729.91
649.256	11676.66
649.449	11797.49
649.642	11594.75
649.835	11619.32
650.027	11549.69
650.22	11392
650.413	11357.18
650.605	11107.33
650.798	11226.11
650.991	10802.18
651.183	11451.39
651.376	10963.97
651.568	10849.29
651.761	10828.81
651.954	10626.06
652.146	10789.89
652.339	10669.06
652.531	10613.77
652.724	10759.17
652.916	10259.47
653.109	10398.73
653.301	10257.42
653.494	10386.44
653.686	10234.89
653.879	10497.03
654.071	10230.8
654.263	10097.68
654.456	10066.96
654.648	10146.83
654.84	9907.22
655.033	9794.58
655.225	10009.62
655.417	9651.22
655.61	9819.16
655.802	9710.61
655.994	9671.7
656.186	9735.19
656.379	9808.92
656.571	9595.93
656.763	9354.27
656.955	9503.77
657.148	9301.02
657.34	9403.42
657.532	9255.97
657.724	9323.55
657.916	9137.18
658.108	9169.95
658.3	9112.61
658.492	9075.74
658.684	8942.63
658.876	9049.12
659.068	9032.74
659.26	8733.73
659.452	8764.45
659.644	8776.74
659.836	8504.36
660.028	8612.9
660.22	8496.17
660.412	8639.53
660.604	8404.01
660.796	8227.89
660.988	8381.48
661.18	8279.08
661.372	8084.53
661.563	8473.64
661.755	7982.13
661.947	8129.58
662.139	7978.03
662.331	7975.98
662.522	7990.32
662.714	7746.61
662.906	7908.4
663.097	7828.53
663.289	7814.2
663.481	7713.84
663.673	7754.8
663.864	7658.55
664.056	7660.6
664.247	7593.01
664.439	7597.11
664.631	7466.04
664.822	7601.21
665.014	7449.66
665.205	7418.94
665.397	7449.66
665.588	7517.24
665.78	7343.16
665.971	7205.95
666.163	7158.85
666.354	7076.93
666.546	7158.85
666.737	7107.65
666.929	7066.69
667.12	7103.55
667.311	7089.21
667.503	6816.83
667.694	6952
667.885	7048.26
668.077	6894.66
668.268	6829.12
668.459	6982.72
668.651	6712.39
668.842	6847.55
669.033	6802.5
669.224	6700.1
669.416	6745.16
669.607	6526.02
669.798	6454.34
669.989	6706.24
670.18	6478.92
670.371	6501.45
670.563	6433.86
670.754	6405.19
670.945	6323.27
671.136	6372.43
671.327	6331.47
671.518	6353.99
671.709	6329.42
671.9	6308.94
672.091	6239.31
672.282	6274.12
672.473	6122.57
672.664	6200.4
672.855	6132.81
673.046	6360.14
673.237	6177.87
673.428	6091.85
673.619	6263.88
673.809	6065.23
674	6065.23
674.191	6155.34
674.382	5946.45
674.573	5973.07
674.764	6007.89
674.954	5860.43
675.145	5860.43
675.336	6081.61
675.527	5915.73
675.717	5895.25
675.908	5846.1
676.099	5768.27
676.289	5846.1
676.48	5848.15
676.671	5827.67
676.861	5831.76
677.052	5819.47
677.243	5633.11
677.433	5667.92
677.624	5819.47
677.814	5577.81
678.005	5663.83
678.195	5819.47
678.386	5882.96
678.576	5579.86
678.767	5680.21
678.957	5600.34
679.148	5602.39
679.338	5594.2
679.529	5516.37
679.719	5583.96
679.909	5788.75
680.1	5649.49
680.29	5655.64
680.481	5569.62
680.671	5641.3
680.861	5493.85
681.052	5604.44
681.242	5598.29
681.432	5545.05
681.622	5336.15
681.813	5581.91
682.003	5567.57
682.193	5491.8
682.383	5651.54
682.573	5352.54
682.764	5586.01
682.954	5502.04
683.144	5493.85
683.334	5346.39
683.524	5389.4
683.714	5514.33
683.904	5504.09
684.094	5340.25
684.284	5442.65
684.474	5352.54
684.664	5475.42
684.854	5327.96
685.044	5262.43
685.234	5340.25
685.424	5352.54
685.614	5313.63
685.804	5327.96
685.994	5258.33
686.184	5278.81
686.374	5454.94
686.564	5229.66
686.753	5237.85
686.943	5102.68
687.133	5289.05
687.323	5078.11
687.513	5184.6
687.702	5190.75
687.892	5049.44
688.082	5067.87
688.272	5028.96
688.461	4934.75
688.651	5022.81
688.841	4951.14
689.03	5139.55
689.22	5057.63
689.41	5096.54
689.599	5147.74
689.789	5031.01
689.979	4990.05
690.168	4944.99
690.358	4901.98
690.547	4887.65
690.737	4848.74
690.926	4920.42
691.116	4811.87
691.305	4947.04
691.495	4852.83
691.684	4920.42
691.874	4832.35
692.063	4885.6
692.252	4729.95
692.442	4803.68
692.631	4752.48
692.82	4779.11
693.01	4832.35
693.199	4629.6
693.388	4609.12
693.578	4680.8
693.767	4705.38
693.956	4676.71
694.146	4490.34
694.335	4516.97
694.524	4664.42
694.713	4598.88
694.902	4656.23
695.092	4426.86
695.281	4578.4
695.47	4592.74
695.659	4471.91
695.848	4574.31
696.037	4592.74
696.226	4449.38
696.415	4639.84
696.604	4559.97
696.793	4484.2
696.982	4387.94
697.171	4510.82
697.36	4492.39
697.549	4449.38
697.738	4406.38
697.927	4275.31
698.116	4584.55
698.305	4516.97
698.494	4285.55
698.683	4306.02
698.872	4416.62
699.061	4258.92
699.25	4273.26
699.438	4316.26
699.627	4349.03
699.816	4291.69
700.005	4238.44
700.193	4168.81
700.382	4164.72
700.571	4199.53
700.76	4306.02
700.948	4291.69
701.137	4389.99
701.326	4170.86
701.514	4099.18
701.703	4164.72
701.892	4156.52
702.08	4054.12
702.269	4236.39
702.457	4111.47
702.646	4123.76
702.834	4002.93
703.023	4148.33
703.212	4134
703.4	4066.41
703.589	4136.04
703.777	4107.37
703.965	4013.17
704.154	4097.13
704.342	4093.04
704.531	3970.16
704.719	3941.49
704.907	4115.56
705.096	3878
705.284	4023.41
705.472	4019.31
705.661	3929.2
705.849	3855.47
706.037	3931.25
706.226	3943.53
706.414	3918.96
706.602	3820.66
706.79	3818.61
706.979	3923.05
707.167	3871.86
707.355	3771.51
707.543	3775.6
707.731	3857.52
707.919	3791.98
708.107	3701.87
708.296	3775.6
708.484	3701.87
708.672	3665.01
708.86	3773.55
709.048	3728.5
709.236	3595.38
709.424	3816.56
709.612	3798.13
709.8	3609.72
709.988	3609.72
710.176	3730.55
710.364	3738.74
710.551	3572.85
710.739	3628.15
710.927	3691.63
711.115	3591.28
711.303	3570.8
711.491	3632.24
711.679	3445.88
711.866	3609.72
712.054	3546.23
712.242	3521.65
712.43	3552.37
712.617	3572.85
712.805	3585.14
712.993	3425.4
713.181	3431.54
713.368	3411.06
713.556	3476.6
713.744	3456.12
713.931	3488.89
714.119	3583.09
714.306	3468.41
714.494	3501.17
714.682	3337.34
714.869	3222.65
715.057	3454.07
715.244	3300.47
715.432	3335.29
715.619	3421.3
715.807	3353.72
715.994	3255.42
716.182	3179.64
716.369	3382.39
716.556	3351.67
716.744	3306.62
716.931	3294.33
717.119	3312.76
717.306	3265.66
717.493	3239.03
717.681	3198.07
717.868	3288.18
718.055	3210.36
718.242	3263.61
718.43	3298.42
718.617	3165.31
718.804	3218.55
718.991	3083.39
719.179	3210.36
719.366	3255.42
719.553	3128.44
719.74	3146.87
719.927	3200.12
720.114	3193.98
720.301	3083.39
720.488	3013.76
720.676	2976.89
720.863	3148.92
721.05	2931.84
721.237	3124.35
721.424	3079.29
721.611	3028.09
721.798	3021.95
721.985	2942.08
722.172	2985.09
722.358	2894.97
722.545	2985.09
722.732	2954.37
722.919	3019.9
723.106	2847.87
723.293	2839.68
723.48	2944.13
723.667	2804.86
723.853	2983.04
724.04	3028.09
724.227	2933.89
724.414	2948.22
724.6	2862.21
724.787	2894.97
724.974	2964.61
725.161	2815.1
725.347	2854.02
725.534	2780.29
725.72	2854.02
725.907	2798.72
726.094	2776.19
726.28	2776.19
726.467	2782.34
726.653	2784.38
726.84	2897.02
727.027	2847.87
727.213	2755.71
727.4	2856.06
727.586	2839.68
727.773	2684.03
727.959	2727.04
728.145	2708.61
728.332	2790.53
728.518	2622.59
728.705	2655.36
728.891	2804.86
729.077	2684.03
729.264	2727.04
729.45	2731.14
729.636	2684.03
729.823	2751.62
730.009	2659.46
730.195	2706.56
730.382	2749.57
730.568	2638.98
730.754	2608.26
730.94	2522.24
731.126	2583.68
731.313	2700.42
731.499	2624.64
731.685	2518.15
731.871	2768
732.057	2616.45
732.243	2587.78
732.429	2618.5
732.615	2612.35
732.801	2669.7
732.987	2675.84
733.173	2469
733.359	2593.92
733.545	2620.55
733.731	2542.72
733.917	2608.26
734.103	2559.11
734.289	2577.54
734.475	2469
734.661	2555.01
734.847	2552.96
735.033	2505.86
735.219	2487.43
735.404	2466.95
735.59	2485.38
735.776	2501.76
735.962	2444.42
736.148	2479.24
736.333	2444.42
736.519	2493.57
736.705	2382.98
736.89	2299.02
737.076	2436.23
737.262	2333.83
737.447	2428.04
737.633	2374.79
737.819	2440.33
738.004	2446.47
738.19	2411.65
738.375	2411.65
738.561	2475.14
738.747	2346.12
738.932	2335.88
739.118	2337.93
739.303	2370.69
739.489	2296.97
739.674	2274.44
739.859	2161.8
740.045	2296.97
740.23	2346.12
740.416	2272.39
740.601	2239.62
740.786	2219.14
740.972	2077.83
741.157	2256.01
741.342	2249.86
741.528	2163.85
741.713	2200.71
741.898	2223.24
742.084	2217.1
742.269	2143.37
742.454	2040.97
742.639	2182.28
742.824	2143.37
743.01	2198.67
743.195	2145.42
743.38	2043.02
743.565	2077.83
743.75	2149.51
743.935	2122.89
744.12	2143.37
744.305	2043.02
744.49	2059.4
744.675	1985.68
744.86	2102.41
745.045	2122.89
745.23	1957
745.415	1944.72
745.6	2047.12
745.785	1987.72
745.97	1930.38
746.155	1873.04
746.34	1975.44
746.525	1928.33
746.71	1938.57
746.895	1870.99
747.079	1963.15
747.264	1922.19
747.449	1840.27
747.634	1858.7
747.819	1805.46
748.003	1883.28
748.188	1870.99
748.373	1827.98
748.557	1870.99
748.742	1748.11
748.927	1696.91
749.111	1772.69
749.296	1789.07
749.481	1703.06
749.665	1668.24
749.85	1725.58
750.034	1715.34
750.219	1686.67
750.404	1698.96
750.588	1690.77
750.773	1647.76
750.957	1596.56
751.141	1571.99
751.326	1651.86
751.51	1701.01
751.695	1629.33
751.879	1535.12
752.064	1692.82
752.248	1660.05
752.432	1621.14
752.617	1545.36
752.801	1678.48
752.985	1561.75
753.17	1506.45
753.354	1592.47
753.538	1535.12
753.722	1494.16
753.907	1473.68
754.091	1461.4
754.275	1557.65
754.459	1539.22
754.643	1416.34
754.828	1481.88
755.012	1510.55
755.196	1350.81
755.38	1420.44
755.564	1436.82
755.748	1395.86
755.932	1404.05
756.116	1430.68
756.3	1375.38
756.484	1330.33
756.668	1287.32
756.852	1197.21
757.036	1303.7
757.22	1346.71
757.404	1240.22
757.588	1322.13
757.772	1236.12
757.956	1301.65
758.14	1244.31
758.323	1215.64
758.507	1166.49
758.691	1295.51
758.875	1232.02
759.059	1270.94
759.242	1250.46
759.426	1170.58
759.61	1193.11
759.794	1197.21
759.977	1301.65
760.161	1264.79
760.345	1186.97
760.528	1217.69
760.712	1232.02
760.895	1244.31
761.079	1174.68
761.263	1141.91
761.446	1182.87
761.63	1172.63
761.813	1152.15
761.997	1070.23
762.18	1109.15
762.364	1174.68
762.547	1084.57
762.731	1019.04
762.914	1045.66
763.098	1084.57
763.281	945.31
763.464	978.08
763.648	1129.63
763.831	1076.38
764.015	1035.42
764.198	1055.9
764.381	986.27
764.564	1002.65
764.748	1027.23
764.931	986.27
765.114	1041.56
765.297	994.46
765.481	941.21
765.664	945.31
765.847	953.5
766.03	963.74
766.213	965.79
766.397	1023.13
766.58	945.31
766.763	1019.04
766.946	1010.84
767.129	957.6
767.312	961.69
767.495	1019.04
767.678	947.36
767.861	994.46
768.044	863.39
768.227	937.12
768.41	922.78
768.593	918.68
768.776	928.92
768.959	922.78
769.142	898.2
769.324	887.97
769.507	933.02
769.69	988.32
769.873	898.2
770.056	1019.04
770.239	947.36
770.421	933.02
770.604	875.68
770.787	906.4
770.97	826.53
771.152	849.05
771.335	945.31
771.518	890.01
771.7	881.82
771.883	908.44
772.066	869.53
772.248	879.77
772.431	842.91
772.613	857.25
772.796	879.77
772.978	847.01
773.161	908.44
773.343	806.05
773.526	810.14
773.708	752.8
773.891	758.94
774.073	857.25
774.256	859.29
774.438	855.2
774.621	685.22
774.803	734.37
774.985	756.9
775.168	824.48
775.35	826.53
775.532	799.9
775.715	677.02
775.897	715.94
776.079	720.03
776.261	736.42
776.444	767.13
776.626	781.47
776.808	707.74
776.99	707.74
777.173	740.51
777.355	709.79
777.537	738.46
777.719	584.87
777.901	646.3
778.083	693.41
778.265	677.02
778.447	650.4
778.629	613.54
778.811	683.17
778.993	650.4
779.175	642.21
779.357	552.1
779.539	599.2
779.721	601.25
779.903	711.84
780.085	603.3
780.267	576.67
780.449	603.3
780.631	584.87
780.812	634.02
780.994	560.29
781.176	660.64
781.358	593.06
781.54	652.45
781.721	627.87
781.903	601.25
782.085	595.11
782.267	609.44
782.448	539.81
782.63	543.91
782.812	570.53
782.993	535.71
783.175	568.48
783.357	521.38
783.538	570.53
783.72	431.27
783.901	535.71
784.083	554.15
784.264	511.14
784.446	478.37
784.627	425.12
784.809	521.38
784.99	525.47
785.172	498.85
785.353	421.03
785.535	412.84
785.716	496.8
785.897	439.46
786.079	429.22
786.26	412.84
786.441	515.23
786.623	414.88
786.804	388.26
786.985	447.65
787.167	472.23
787.348	431.27
787.529	390.31
787.71	486.56
787.891	461.99
788.073	414.88
788.254	408.74
788.435	455.84
788.616	367.78
788.797	373.92
788.978	437.41
789.159	332.97
789.34	404.64
789.522	427.17
789.703	453.8
789.884	412.84
790.065	382.12
790.246	386.21
790.427	367.78
790.607	513.19
790.788	455.84
790.969	294.05
791.15	316.58
791.331	384.16
791.512	371.88
791.693	425.12
791.874	371.88
792.054	423.08
792.235	382.12
792.416	306.34
792.597	359.59
792.778	414.88
792.958	353.45
793.139	447.65
793.32	337.06
793.5	193.7
793.681	398.5
793.862	365.73
794.042	326.82
794.223	306.34
794.404	330.92
794.584	316.58
794.765	335.01
794.945	314.53
795.126	314.53
795.306	341.16
795.487	408.74
795.667	378.02
795.848	306.34
796.028	339.11
796.209	339.11
796.389	265.38
796.57	273.57
796.75	302.25
796.93	324.77
797.111	236.71
797.291	279.72
797.471	335.01
797.652	326.82
797.832	249
798.012	283.81
798.192	234.66
798.373	191.66
798.553	277.67
798.733	224.42
798.913	273.57
799.093	210.09
799.274	322.73
799.454	289.96
799.634	292.01
799.814	332.97
799.994	302.25
800.174	240.81
800.354	199.85
800.534	169.13
800.714	339.11
800.894	105.64
801.074	216.23
801.254	277.67
801.434	259.24
801.614	228.52
801.794	134.31
801.974	928.92
802.154	273.57
802.334	210.09
802.514	191.66
802.693	265.38
802.873	205.99
803.053	277.67
803.233	306.34
803.413	232.62
803.592	242.85
803.772	249
803.952	265.38
804.131	263.33
804.311	187.56
804.491	218.28
804.67	216.23
804.85	277.67
805.03	203.94
805.209	273.57
805.389	240.81
805.568	208.04
805.748	216.23
805.928	249
806.107	199.85
806.287	167.08
806.466	208.04
806.646	169.13
806.825	240.81
807.004	191.66
807.184	183.46
807.363	240.81
807.543	226.47
807.722	232.62
807.901	222.38
808.081	234.66
808.26	210.09
808.439	158.89
808.619	228.52
808.798	111.78
808.977	216.23
809.156	232.62
809.336	228.52
809.515	240.81
809.694	185.51
809.873	201.9
810.052	199.85
810.231	142.5
810.411	162.98
810.59	224.42
810.769	146.6
810.948	158.89
811.127	103.59
811.306	132.26
811.485	134.31
811.664	208.04
811.843	167.08
812.022	249
812.201	144.55
812.38	214.18
812.559	140.46
812.737	228.52
812.916	144.55
813.095	169.13
813.274	218.28
813.453	162.98
813.632	277.67
813.811	169.13
813.989	115.88
814.168	201.9
814.347	95.4
814.526	167.08
814.704	169.13
814.883	140.46
815.062	101.55
815.24	226.47
815.419	85.16
815.598	146.6
815.776	126.12
815.955	160.94
816.133	130.22
816.312	169.13
816.49	201.9
816.669	7.34
816.847	79.02
817.026	187.56
817.204	169.13
817.383	203.94
817.561	74.92
817.74	117.93
817.918	93.35
818.097	119.98
818.275	169.13
818.453	122.02
818.632	175.27
818.81	113.83
818.988	85.16
819.167	128.17
819.345	134.31
819.523	126.12
819.701	97.45
819.879	117.93
820.058	126.12
820.236	175.27
820.414	95.4
820.592	136.36
820.77	146.6
820.948	124.07
821.127	95.4
821.305	126.12
821.483	83.11
821.661	136.36
821.839	156.84
822.017	97.45
822.195	130.22
822.373	203.94
822.551	72.87
822.729	142.5
822.907	169.13
823.085	117.93
823.262	95.4
823.44	101.55
823.618	117.93
823.796	101.55
823.974	64.68
824.152	103.59
824.329	91.31
824.507	81.07
824.685	58.54
824.863	27.82
825.04	130.22
825.218	72.87
825.396	83.11
825.574	56.49
825.751	160.94
825.929	134.31
826.107	95.4
826.284	70.83
826.462	95.4
826.639	44.2
826.817	107.69
826.994	87.21
827.172	31.91
827.349	107.69
827.527	117.93
827.704	85.16
827.882	126.12
828.059	107.69
828.237	119.98
828.414	193.7
828.591	23.72
828.769	144.55
828.946	95.4
829.124	136.36
829.301	136.36
829.478	64.68
829.655	93.35
829.833	66.73
830.01	79.02
830.187	97.45
830.364	160.94
830.542	81.07
830.719	126.12
830.896	140.46
831.073	85.16
831.25	146.6
831.427	76.97
831.604	66.73
831.782	85.16
831.959	87.21
832.136	3.24
832.313	124.07
832.49	-41.81
832.667	83.11
832.844	31.91
833.021	117.93
833.198	83.11
833.374	54.44
833.551	134.31
833.728	64.68
833.905	23.72
834.082	11.43
834.259	74.92
834.436	122.02
834.612	11.43
834.789	101.55
834.966	56.49
835.143	97.45
835.319	19.63
835.496	150.7
835.673	54.44
835.85	85.16
836.026	87.21
836.203	85.16
836.38	23.72
836.556	128.17
836.733	-27.48
836.909	93.35
837.086	101.55
837.262	-23.38
837.439	56.49
837.616	56.49
837.792	17.58
837.968	68.78
838.145	-54.1
838.321	87.21
838.498	52.39
838.674	134.31
838.851	109.74
839.027	64.68
839.203	81.07
839.38	81.07
839.556	56.49
839.732	48.3
839.909	31.91
840.085	105.64
840.261	93.35
840.437	76.97
840.614	36.01
840.79	105.64
840.966	119.98
841.142	64.68
841.318	31.91
841.494	76.97
841.671	99.5
841.847	-0.85
842.023	48.3
842.199	97.45
842.375	136.36
842.551	21.67
842.727	13.48
842.903	185.51
843.079	76.97
843.255	103.59
843.431	44.2
843.607	-4.95
843.783	-37.72
843.959	93.35
844.134	-7
844.31	52.39
844.486	11.43
844.662	-0.85
844.838	54.44
845.013	87.21
845.189	54.44
845.365	103.59
845.541	11.43
845.716	-33.62
845.892	89.26
846.068	15.53
846.244	-21.33
846.419	56.49
846.595	11.43
846.77	25.77
846.946	76.97
847.122	13.48
847.297	46.25
847.473	76.97
847.648	64.68
847.824	27.82
847.999	36.01
848.175	52.39
848.35	11.43
848.526	117.93
848.701	21.67
848.876	117.93
849.052	119.98
849.227	89.26
849.403	27.82
849.578	50.35
849.753	74.92
849.929	62.63
850.104	-25.43
850.279	52.39
850.454	64.68
850.63	36.01
850.805	60.59
850.98	68.78
851.155	62.63
851.33	85.16
851.505	-17.24
851.681	134.31
851.856	36.01
852.031	15.53
852.206	72.87
852.381	107.69
852.556	33.96
852.731	5.29
852.906	31.91
853.081	-2.9
853.256	76.97
853.431	44.2
853.606	-27.48
853.781	54.44
853.956	62.63
854.131	19.63
854.305	44.2
854.48	-17.24
854.655	68.78
854.83	7.34
855.005	89.26
855.18	-9.05
855.354	-2.9
855.529	79.02
855.704	31.91
855.879	79.02
856.053	19.63
856.228	38.06
856.403	3.24
856.577	62.63
856.752	-19.29
856.926	48.3
857.101	3.24
857.276	1.19
857.45	60.59
857.625	13.48
857.799	36.01
857.974	46.25
858.148	-0.85
858.323	138.41
858.497	9.39
858.672	11.43
858.846	23.72
859.02	70.83
859.195	3.24
859.369	27.82
859.543	-23.38
859.718	40.11
859.892	60.59
860.066	-17.24
860.241	-25.43
860.415	15.53
860.589	19.63
860.763	62.63
860.938	-31.57
861.112	93.35
861.286	-2.9
861.46	103.59
861.634	23.72
861.808	-21.33
861.982	-21.33
862.157	-35.67
862.331	56.49
862.505	27.82
862.679	-21.33
862.853	-27.48
863.027	-29.52
863.201	93.35
863.375	48.3
863.549	29.87
863.722	60.59
863.896	68.78
864.07	-9.05
864.244	48.3
864.418	3.24
864.592	-27.48
864.766	50.35
864.939	-21.33
865.113	-29.52
865.287	46.25
865.461	-82.77
865.634	-52.05
865.808	3.24
865.982	29.87
866.156	-37.72
866.329	7.34
866.503	68.78
866.676	11.43
866.85	50.35
867.024	11.43
867.197	76.97
867.371	7.34
867.544	29.87
867.718	3.24
867.891	7.34
868.065	3.24
868.238	36.01
868.412	33.96
868.585	42.15
868.759	36.01
868.932	19.63
869.105	-68.44
869.279	76.97
869.452	3.24
869.625	31.91
869.799	36.01
869.972	-21.33
870.145	25.77
870.319	9.39
870.492	-11.09
870.665	-27.48
870.838	-31.57
871.011	52.39
871.185	93.35
871.358	-70.48
871.531	36.01
871.704	68.78
871.877	29.87
872.05	21.67
872.223	-45.91
872.396	44.2
872.569	19.63
872.742	15.53
872.915	36.01
873.088	-70.48
873.261	27.82
873.434	54.44
873.607	60.59
873.78	-4.95
873.953	-60.24
874.126	7.34
874.299	36.01
874.471	19.63
874.644	7.34
874.817	-9.05
874.99	136.36
875.163	-13.14
875.335	-25.43
875.508	-13.14
875.681	11.43
875.853	-17.24
876.026	-33.62
876.199	13.48
876.371	3.24
876.544	-43.86
876.717	13.48
876.889	-29.52
877.062	27.82
877.234	-52.05
877.407	-54.1
877.579	76.97
877.752	-82.77
877.924	33.96
878.097	36.01
878.269	-19.29
878.442	15.53
878.614	7.34
878.786	5.29
878.959	54.44
879.131	-4.95
879.303	7.34
879.476	-2.9
879.648	60.59
879.82	5.29
879.993	27.82
880.165	36.01
880.337	-45.91
880.509	68.78
880.681	-41.81
880.854	21.67
881.026	81.07
881.198	60.59
881.37	27.82
881.542	3.24
881.714	3.24
881.886	21.67
882.058	50.35
882.23	-78.68
882.402	58.54
882.574	-13.14
882.746	25.77
882.918	56.49
883.09	31.91
883.262	-4.95
883.434	5.29
883.606	-54.1
883.778	-45.91
883.95	60.59
884.122	-25.43
884.293	56.49
884.465	38.06
884.637	-39.76
884.809	5.29
884.98	33.96
885.152	-27.48
885.324	5.29
885.496	-9.05
885.667	-37.72
885.839	-25.43
886.011	119.98
886.182	-9.05
886.354	-45.91
886.525	11.43
886.697	-4.95
886.869	-29.52
887.04	-7
887.212	27.82
887.383	21.67
887.555	58.54
887.726	-37.72
887.897	11.43
888.069	76.97
888.24	54.44
888.412	72.87
888.583	7.34
888.754	38.06
888.926	-33.62
889.097	15.53
889.268	-54.1
889.44	-17.24
889.611	-27.48
889.782	-62.29
889.953	23.72
890.125	36.01
890.296	-35.67
890.467	-7
890.638	3.24
890.809	-56.15
890.98	-29.52
891.151	-4.95
891.323	117.93
891.494	21.67
891.665	-37.72
891.836	52.39
892.007	68.78
892.178	87.21
892.349	3.24
892.52	-4.95
892.691	-37.72
892.862	66.73
893.032	-113.49
893.203	-37.72
893.374	15.53
893.545	7.34
893.716	-62.29
893.887	66.73
894.057	17.58
894.228	46.25
894.399	-25.43
894.57	-7
894.74	-13.14
894.911	81.07
895.082	27.82
895.253	36.01
895.423	-19.29
895.594	81.07
895.764	-19.29
895.935	-25.43
896.106	13.48
896.276	29.87
896.447	1.19
896.617	-25.43
896.788	11.43
896.958	44.2
897.129	-45.91
897.299	-11.09
897.47	44.2
897.64	25.77
897.81	36.01
897.981	19.63
898.151	27.82
898.322	-21.33
898.492	79.02
898.662	-9.05
898.832	-27.48
899.003	27.82
899.173	68.78
899.343	23.72
899.513	-11.09
