Data from USB4F104151__270__14-34-38-377.txt Node

Date: Thu Mar 13 14:34:38 EDT 2025
User: louis
Spectrometer: USB4F10415
Trigger mode: 4
Integration Time (sec): 2.500000E-2
Scans to average: 1
Electric dark correction enabled: true
Nonlinearity correction enabled: false
Boxcar width: 0
XAxis mode: Wavelengths
Number of Pixels in Spectrum: 3648
>>>>>Begin Spectral Data<<<<<
178.204	-162.13
178.424	-162.13
178.644	-162.13
178.864	-176.47
179.084	-205.14
179.304	3.75
179.524	-55.64
179.744	1.71
179.964	44.71
180.184	54.95
180.404	7.85
180.624	-39.25
180.844	-14.68
181.064	18.09
181.283	-6.49
181.503	-49.49
181.723	34.47
181.943	-43.35
182.163	112.3
182.383	30.38
182.602	28.33
182.822	1.71
183.042	42.67
183.262	-2.39
183.482	3.75
183.701	-69.97
183.921	-22.87
184.141	-123.22
184.361	52.91
184.58	40.62
184.8	-22.87
185.02	36.52
185.239	100.01
185.459	34.47
185.679	18.09
185.898	30.38
186.118	83.63
186.338	-26.96
186.557	59.05
186.777	-22.87
186.997	-24.92
187.216	59.05
187.436	100.01
187.655	120.49
187.875	26.28
188.095	-16.73
188.314	28.33
188.534	79.53
188.753	-47.44
188.973	9.9
189.192	46.76
189.412	-18.77
189.631	34.47
189.851	11.95
190.07	108.2
190.29	-31.06
190.509	11.95
190.729	59.05
190.948	85.67
191.168	155.3
191.387	50.86
191.607	18.09
191.826	-31.06
192.045	-20.82
192.265	-10.58
192.484	1.71
192.704	48.81
192.923	-69.97
193.142	108.2
193.362	100.01
193.581	46.76
193.8	-20.82
194.02	9.9
194.239	-18.77
194.458	36.52
194.678	-6.49
194.897	-8.53
195.116	26.28
195.335	-22.87
195.555	-6.49
195.774	-4.44
195.993	13.99
196.212	26.28
196.432	38.57
196.651	26.28
196.87	32.43
197.089	3.75
197.308	9.9
197.528	-22.87
197.747	-14.68
197.966	-35.16
198.185	83.63
198.404	-80.21
198.623	9.9
198.842	63.15
199.062	-2.39
199.281	-22.87
199.5	13.99
199.719	7.85
199.938	52.91
200.157	9.9
200.376	30.38
200.595	1.71
200.814	38.57
201.033	54.95
201.252	34.47
201.471	9.9
201.69	42.67
201.909	44.71
202.128	-88.4
202.347	28.33
202.566	24.23
202.785	-14.68
203.004	22.19
203.223	132.78
203.442	-14.68
203.661	-45.4
203.879	-37.2
204.098	59.05
204.317	28.33
204.536	36.52
204.755	34.47
204.974	42.67
205.193	-22.87
205.411	38.57
205.63	1.71
205.849	-4.44
206.068	34.47
206.287	57
206.505	83.63
206.724	-18.77
206.943	13.99
207.162	18.09
207.381	18.09
207.599	-8.53
207.818	42.67
208.037	18.09
208.255	32.43
208.474	-20.82
208.693	38.57
208.911	-53.59
209.13	44.71
209.349	18.09
209.567	61.1
209.786	11.95
210.005	30.38
210.223	-37.2
210.442	-47.44
210.661	44.71
210.879	-20.82
211.098	3.75
211.316	59.05
211.535	46.76
211.753	-61.78
211.972	-0.34
212.191	-10.58
212.409	26.28
212.628	61.1
212.846	-47.44
213.065	3.75
213.283	3.75
213.502	-26.96
213.72	-4.44
213.938	50.86
214.157	-31.06
214.375	85.67
214.594	-10.58
214.812	-10.58
215.031	44.71
215.249	30.38
215.467	63.15
215.686	40.62
215.904	59.05
216.122	-31.06
216.341	36.52
216.559	-22.87
216.778	42.67
216.996	59.05
217.214	-12.63
217.432	110.25
217.651	3.75
217.869	42.67
218.087	-53.59
218.306	63.15
218.524	34.47
218.742	-33.11
218.96	1.71
219.179	1.71
219.397	-14.68
219.615	71.34
219.833	36.52
220.051	22.19
220.27	1.71
220.488	71.34
220.706	18.09
220.924	67.24
221.142	38.57
221.36	42.67
221.578	57
221.796	-2.39
222.015	9.9
222.233	26.28
222.451	67.24
222.669	-8.53
222.887	1.71
223.105	-18.77
223.323	42.67
223.541	9.9
223.759	50.86
223.977	-6.49
224.195	52.91
224.413	-31.06
224.631	38.57
224.849	-20.82
225.067	65.19
225.285	18.09
225.503	3.75
225.721	-47.44
225.939	3.75
226.157	38.57
226.375	89.77
226.592	-47.44
226.81	-47.44
227.028	48.81
227.246	36.52
227.464	-55.64
227.682	48.81
227.9	26.28
228.117	30.38
228.335	-12.63
228.553	67.24
228.771	-31.06
228.989	-6.49
229.206	-88.4
229.424	46.76
229.642	-16.73
229.86	34.47
230.077	3.75
230.295	-6.49
230.513	26.28
230.731	59.05
230.948	5.8
231.166	-2.39
231.384	18.09
231.601	-31.06
231.819	48.81
232.037	-16.73
232.254	-41.3
232.472	-2.39
232.689	-53.59
232.907	-31.06
233.125	124.58
233.342	85.67
233.56	-53.59
233.777	54.95
233.995	-14.68
234.213	50.86
234.43	75.43
234.648	-10.58
234.865	50.86
235.083	32.43
235.3	26.28
235.518	-22.87
235.735	75.43
235.953	112.3
236.17	18.09
236.388	9.9
236.605	44.71
236.822	61.1
237.04	91.82
237.257	-12.63
237.475	-67.92
237.692	18.09
237.909	-61.78
238.127	18.09
238.344	18.09
238.562	3.75
238.779	-57.68
238.996	18.09
239.214	57
239.431	-2.39
239.648	1.71
239.865	42.67
240.083	48.81
240.3	-39.25
240.517	-53.59
240.735	57
240.952	44.71
241.169	42.67
241.386	-14.68
241.603	-2.39
241.821	-24.92
242.038	-14.68
242.255	30.38
242.472	40.62
242.689	-20.82
242.907	30.38
243.124	46.76
243.341	26.28
243.558	-29.01
243.775	-14.68
243.992	-96.6
244.209	40.62
244.426	61.1
244.643	28.33
244.86	3.75
245.078	61.1
245.295	73.39
245.512	-20.82
245.729	-6.49
245.946	9.9
246.163	34.47
246.38	20.14
246.597	-2.39
246.814	42.67
247.031	28.33
247.248	13.99
247.464	50.86
247.681	9.9
247.898	50.86
248.115	42.67
248.332	-20.82
248.549	-12.63
248.766	59.05
248.983	87.72
249.2	-14.68
249.417	1.71
249.633	-26.96
249.85	73.39
250.067	38.57
250.284	3.75
250.501	102.06
250.717	71.34
250.934	-51.54
251.151	18.09
251.368	-39.25
251.585	42.67
251.801	44.71
252.018	-43.35
252.235	28.33
252.451	20.14
252.668	20.14
252.885	81.58
253.102	3.75
253.318	36.52
253.535	18.09
253.752	-10.58
253.968	52.91
254.185	5.8
254.401	3.75
254.618	-45.4
254.835	-14.68
255.051	40.62
255.268	89.77
255.484	159.4
255.701	61.1
255.917	71.34
256.134	50.86
256.351	-31.06
256.567	-65.88
256.784	-6.49
257	-37.2
257.217	59.05
257.433	-31.06
257.65	3.75
257.866	-26.96
258.082	75.43
258.299	-6.49
258.515	59.05
258.732	-37.2
258.948	-10.58
259.165	61.1
259.381	28.33
259.597	-6.49
259.814	-22.87
260.03	46.76
260.246	28.33
260.463	73.39
260.679	42.67
260.895	-37.2
261.112	46.76
261.328	5.8
261.544	11.95
261.761	46.76
261.977	-47.44
262.193	59.05
262.409	9.9
262.626	20.14
262.842	16.04
263.058	22.19
263.274	-6.49
263.49	18.09
263.707	9.9
263.923	18.09
264.139	-14.68
264.355	-2.39
264.571	100.01
264.787	28.33
265.004	69.29
265.22	-22.87
265.436	-47.44
265.652	34.47
265.868	-6.49
266.084	7.85
266.3	-6.49
266.516	-6.49
266.732	11.95
266.948	59.05
267.164	-61.78
267.38	71.34
267.596	-2.39
267.812	50.86
268.028	59.05
268.244	-26.96
268.46	26.28
268.676	9.9
268.892	-8.53
269.108	13.99
269.324	50.86
269.54	13.99
269.756	69.29
269.972	-6.49
270.188	59.05
270.403	-33.11
270.619	34.47
270.835	59.05
271.051	-29.01
271.267	13.99
271.483	-39.25
271.698	50.86
271.914	-55.64
272.13	42.67
272.346	-12.63
272.562	42.67
272.777	71.34
272.993	20.14
273.209	28.33
273.425	83.63
273.64	-47.44
273.856	9.9
274.072	-6.49
274.287	-94.55
274.503	24.23
274.719	61.1
274.934	9.9
275.15	1.71
275.366	52.91
275.581	-69.97
275.797	1.71
276.012	-14.68
276.228	-26.96
276.444	69.29
276.659	-2.39
276.875	-6.49
277.09	26.28
277.306	-18.77
277.521	52.91
277.737	63.15
277.952	71.34
278.168	9.9
278.383	18.09
278.599	-6.49
278.814	18.09
279.03	83.63
279.245	34.47
279.461	32.43
279.676	75.43
279.892	-53.59
280.107	-6.49
280.322	69.29
280.538	-0.34
280.753	-6.49
280.969	36.52
281.184	-31.06
281.399	-45.4
281.615	57
281.83	34.47
282.045	-4.44
282.26	54.95
282.476	89.77
282.691	28.33
282.906	-29.01
283.122	20.14
283.337	-14.68
283.552	89.77
283.767	-26.96
283.983	-10.58
284.198	-4.44
284.413	-6.49
284.628	-18.77
284.843	104.11
285.058	61.1
285.274	11.95
285.489	-72.02
285.704	124.58
285.919	11.95
286.134	22.19
286.349	-31.06
286.564	36.52
286.779	48.81
286.995	67.24
287.21	-18.77
287.425	9.9
287.64	48.81
287.855	24.23
288.07	-14.68
288.285	-63.83
288.5	59.05
288.715	-12.63
288.93	20.14
289.145	-35.16
289.36	11.95
289.575	26.28
289.79	42.67
290.004	34.47
290.219	65.19
290.434	-20.82
290.649	7.85
290.864	26.28
291.079	-2.39
291.294	-6.49
291.509	-55.64
291.724	20.14
291.938	52.91
292.153	91.82
292.368	1.71
292.583	83.63
292.798	57
293.012	44.71
293.227	59.05
293.442	36.52
293.657	13.99
293.871	63.15
294.086	30.38
294.301	24.23
294.516	32.43
294.73	61.1
294.945	-29.01
295.16	46.76
295.374	116.39
295.589	-2.39
295.804	-6.49
296.018	-4.44
296.233	102.06
296.447	1.71
296.662	36.52
296.877	67.24
297.091	-10.58
297.306	30.38
297.52	34.47
297.735	-37.2
297.949	1.71
298.164	-6.49
298.378	91.82
298.593	52.91
298.807	-29.01
299.022	75.43
299.236	40.62
299.451	40.62
299.665	20.14
299.88	-24.92
300.094	-49.49
300.309	77.48
300.523	-55.64
300.737	71.34
300.952	-0.34
301.166	18.09
301.381	3.75
301.595	38.57
301.809	34.47
302.024	-31.06
302.238	9.9
302.452	67.24
302.667	-49.49
302.881	71.34
303.095	42.67
303.309	54.95
303.524	34.47
303.738	89.77
303.952	11.95
304.166	42.67
304.381	-72.02
304.595	57
304.809	-14.68
305.023	44.71
305.237	-31.06
305.452	85.67
305.666	9.9
305.88	83.63
306.094	1.71
306.308	75.43
306.522	54.95
306.736	52.91
306.95	52.91
307.164	-4.44
307.379	-22.87
307.593	112.3
307.807	13.99
308.021	20.14
308.235	40.62
308.449	7.85
308.663	7.85
308.877	108.2
309.091	30.38
309.305	16.04
309.519	-6.49
309.733	59.05
309.947	-47.44
310.161	42.67
310.374	50.86
310.588	44.71
310.802	-20.82
311.016	-4.44
311.23	-4.44
311.444	-14.68
311.658	-45.4
311.872	-29.01
312.085	22.19
312.299	54.95
312.513	65.19
312.727	18.09
312.941	24.23
313.154	-14.68
313.368	36.52
313.582	-14.68
313.796	-80.21
314.009	34.47
314.223	3.75
314.437	93.87
314.651	9.9
314.864	-0.34
315.078	-6.49
315.292	18.09
315.505	-84.31
315.719	-14.68
315.933	9.9
316.146	-2.39
316.36	50.86
316.573	26.28
316.787	69.29
317.001	71.34
317.214	26.28
317.428	1.71
317.641	11.95
317.855	34.47
318.068	-0.34
318.282	50.86
318.495	3.75
318.709	50.86
318.922	16.04
319.136	34.47
319.349	126.63
319.563	-8.53
319.776	54.95
319.99	-22.87
320.203	5.8
320.417	46.76
320.63	-14.68
320.843	83.63
321.057	-2.39
321.27	-14.68
321.483	63.15
321.697	75.43
321.91	-31.06
322.124	73.39
322.337	-29.01
322.55	9.9
322.763	36.52
322.977	-22.87
323.19	69.29
323.403	26.28
323.617	28.33
323.83	87.72
324.043	-37.2
324.256	-14.68
324.469	-24.92
324.683	59.05
324.896	-14.68
325.109	46.76
325.322	-10.58
325.535	100.01
325.748	63.15
325.962	-4.44
326.175	11.95
326.388	44.71
326.601	38.57
326.814	-29.01
327.027	67.24
327.24	34.47
327.453	-24.92
327.666	30.38
327.879	38.57
328.092	75.43
328.305	-6.49
328.518	1.71
328.731	-47.44
328.944	-43.35
329.157	28.33
329.37	26.28
329.583	65.19
329.796	-10.58
330.009	-72.02
330.222	-31.06
330.435	9.9
330.648	-2.39
330.861	20.14
331.073	75.43
331.286	1.71
331.499	1.71
331.712	-31.06
331.925	61.1
332.138	-65.88
332.35	9.9
332.563	7.85
332.776	79.53
332.989	-14.68
333.202	-16.73
333.414	-14.68
333.627	50.86
333.84	-4.44
334.053	30.38
334.265	36.52
334.478	-4.44
334.691	24.23
334.903	9.9
335.116	38.57
335.329	-22.87
335.541	-12.63
335.754	116.39
335.966	1.71
336.179	20.14
336.392	5.8
336.604	69.29
336.817	30.38
337.029	-12.63
337.242	57
337.454	-31.06
337.667	44.71
337.88	40.62
338.092	46.76
338.305	38.57
338.517	-76.12
338.729	42.67
338.942	59.05
339.154	-31.06
339.367	-6.49
339.579	18.09
339.792	-2.39
340.004	36.52
340.217	54.95
340.429	65.19
340.641	-0.34
340.854	-31.06
341.066	-51.54
341.278	48.81
341.491	91.82
341.703	-12.63
341.915	-20.82
342.128	67.24
342.34	67.24
342.552	18.09
342.764	-2.39
342.977	-6.49
343.189	-14.68
343.401	1.71
343.613	-47.44
343.826	50.86
344.038	-47.44
344.25	91.82
344.462	-43.35
344.674	20.14
344.886	42.67
345.099	46.76
345.311	36.52
345.523	22.19
345.735	-72.02
345.947	42.67
346.159	-0.34
346.371	5.8
346.583	116.39
346.795	104.11
347.007	42.67
347.219	54.95
347.431	22.19
347.643	73.39
347.855	44.71
348.067	73.39
348.279	18.09
348.491	-29.01
348.703	50.86
348.915	48.81
349.127	50.86
349.339	28.33
349.551	34.47
349.763	32.43
349.975	44.71
350.187	63.15
350.399	13.99
350.61	65.19
350.822	36.52
351.034	34.47
351.246	30.38
351.458	18.09
351.669	34.47
351.881	81.58
352.093	48.81
352.305	-4.44
352.517	59.05
352.728	95.91
352.94	-31.06
353.152	50.86
353.363	-31.06
353.575	11.95
353.787	3.75
353.999	59.05
354.21	95.91
354.422	85.67
354.633	28.33
354.845	5.8
355.057	-78.16
355.268	28.33
355.48	20.14
355.692	22.19
355.903	-18.77
356.115	-6.49
356.326	-108.88
356.538	69.29
356.749	7.85
356.961	65.19
357.172	34.47
357.384	-14.68
357.595	91.82
357.807	-35.16
358.018	-37.2
358.23	44.71
358.441	87.72
358.653	1.71
358.864	54.95
359.075	-115.03
359.287	-10.58
359.498	42.67
359.709	59.05
359.921	-4.44
360.132	1.71
360.344	9.9
360.555	91.82
360.766	9.9
360.977	26.28
361.189	-8.53
361.4	59.05
361.611	75.43
361.823	57
362.034	50.86
362.245	-39.25
362.456	-18.77
362.667	13.99
362.879	-4.44
363.09	-41.3
363.301	38.57
363.512	9.9
363.723	22.19
363.935	79.53
364.146	77.48
364.357	11.95
364.568	26.28
364.779	-45.4
364.99	85.67
365.201	-14.68
365.412	22.19
365.623	-53.59
365.834	69.29
366.045	89.77
366.256	136.87
366.467	85.67
366.678	18.09
366.889	57
367.1	-51.54
367.311	69.29
367.522	-6.49
367.733	-31.06
367.944	-22.87
368.155	136.87
368.366	61.1
368.577	59.05
368.788	30.38
368.999	-10.58
369.209	116.39
369.42	46.76
369.631	75.43
369.842	-20.82
370.053	63.15
370.264	9.9
370.474	18.09
370.685	46.76
370.896	46.76
371.107	71.34
371.317	34.47
371.528	13.99
371.739	-22.87
371.95	69.29
372.16	42.67
372.371	-88.4
372.582	-29.01
372.792	50.86
373.003	42.67
373.214	91.82
373.424	42.67
373.635	34.47
373.846	42.67
374.056	26.28
374.267	67.24
374.477	50.86
374.688	9.9
374.898	9.9
375.109	-0.34
375.319	59.05
375.53	42.67
375.74	26.28
375.951	-51.54
376.161	52.91
376.372	108.2
376.582	26.28
376.793	7.85
377.003	1.71
377.214	13.99
377.424	100.01
377.635	44.71
377.845	-14.68
378.055	95.91
378.266	-69.97
378.476	61.1
378.686	67.24
378.897	69.29
379.107	61.1
379.317	52.91
379.528	79.53
379.738	-14.68
379.948	36.52
380.158	44.71
380.369	61.1
380.579	69.29
380.789	-26.96
380.999	28.33
381.21	30.38
381.42	112.3
381.63	11.95
381.84	-14.68
382.05	-10.58
382.261	44.71
382.471	61.1
382.681	20.14
382.891	63.15
383.101	108.2
383.311	-6.49
383.521	-6.49
383.731	36.52
383.941	44.71
384.151	50.86
384.361	50.86
384.571	77.48
384.781	75.43
384.991	11.95
385.201	61.1
385.411	5.8
385.621	54.95
385.831	40.62
386.041	67.24
386.251	30.38
386.461	79.53
386.671	3.75
386.881	42.67
387.091	34.47
387.301	46.76
387.511	100.01
387.72	46.76
387.93	63.15
388.14	-90.45
388.35	-6.49
388.56	132.78
388.769	34.47
388.979	75.43
389.189	-45.4
389.399	-14.68
389.609	93.87
389.818	13.99
390.028	63.15
390.238	50.86
390.447	44.71
390.657	77.48
390.867	28.33
391.076	-43.35
391.286	11.95
391.496	13.99
391.705	30.38
391.915	63.15
392.125	95.91
392.334	28.33
392.544	42.67
392.753	22.19
392.963	3.75
393.172	32.43
393.382	18.09
393.591	110.25
393.801	38.57
394.01	126.63
394.22	13.99
394.429	42.67
394.639	59.05
394.848	63.15
395.058	75.43
395.267	42.67
395.477	77.48
395.686	120.49
395.895	120.49
396.105	108.2
396.314	116.39
396.524	52.91
396.733	-18.77
396.942	73.39
397.152	24.23
397.361	161.45
397.57	46.76
397.78	-2.39
397.989	108.2
398.198	124.58
398.407	13.99
398.617	67.24
398.826	65.19
399.035	116.39
399.244	91.82
399.453	77.48
399.663	102.06
399.872	46.76
400.081	38.57
400.29	73.39
400.499	28.33
400.708	104.11
400.917	26.28
401.127	59.05
401.336	54.95
401.545	151.21
401.754	140.97
401.963	140.97
402.172	-14.68
402.381	20.14
402.59	79.53
402.799	67.24
403.008	118.44
403.217	130.73
403.426	229.03
403.635	28.33
403.844	122.54
404.053	110.25
404.262	102.06
404.471	173.74
404.68	116.39
404.888	63.15
405.097	151.21
405.306	77.48
405.515	110.25
405.724	100.01
405.933	175.78
406.142	102.06
406.35	190.12
406.559	97.96
406.768	151.21
406.977	218.79
407.185	175.78
407.394	190.12
407.603	149.16
407.812	159.4
408.02	198.31
408.229	263.85
408.438	210.6
408.646	173.74
408.855	239.27
409.064	251.56
409.272	190.12
409.481	241.32
409.69	269.99
409.898	206.5
410.107	272.04
410.315	274.09
410.524	370.34
410.733	364.2
410.941	272.04
411.15	300.71
411.358	366.25
411.567	368.29
411.775	325.29
411.984	423.59
412.192	390.82
412.401	423.59
412.609	448.16
412.818	476.84
413.026	517.79
413.234	530.08
413.443	429.73
413.651	511.65
413.86	454.31
414.068	589.47
414.276	534.18
414.485	616.1
414.693	673.44
414.901	665.25
415.11	546.47
415.318	675.49
415.526	679.58
415.734	763.55
415.943	751.26
416.151	882.33
416.359	763.55
416.567	812.7
416.776	878.24
416.984	870.05
417.192	896.67
417.4	843.42
417.608	1025.69
417.817	980.64
418.025	1050.27
418.233	1175.19
418.441	1009.31
418.649	1050.27
418.857	1222.3
419.065	1210.01
419.273	1189.53
419.481	1222.3
419.689	1253.02
419.897	1322.65
420.105	1439.38
420.313	1427.09
420.521	1486.48
420.729	1552.02
420.937	1568.4
421.145	1607.31
421.353	1681.04
421.561	1736.34
421.769	1881.74
421.977	1910.41
422.185	1959.56
422.393	1951.37
422.601	2158.22
422.809	2123.4
423.017	2107.02
423.224	2199.18
423.432	2285.19
423.64	2324.1
423.848	2639.49
424.056	2492.04
424.263	2692.74
424.471	2614.91
424.679	2762.37
424.887	2852.48
425.094	2926.21
425.302	2942.59
425.51	3198.59
425.718	3237.5
425.925	3055.23
426.133	3311.22
426.341	3384.95
426.548	3575.41
426.756	3712.63
426.964	3690.1
427.171	3960.43
427.379	3853.94
427.586	3993.2
427.794	4044.4
428.001	4433.51
428.209	4554.34
428.417	4558.44
428.624	4720.23
428.832	4779.62
429.039	4873.82
429.247	4679.27
429.454	5181.02
429.662	5480.02
429.869	5252.7
430.076	5455.45
430.284	5310.04
430.491	5523.03
430.699	5924.43
430.906	5953.1
431.114	6071.89
431.321	6164.04
431.528	6374.99
431.736	6659.65
431.943	6975.04
432.15	6745.67
432.358	6901.31
432.565	7290.43
432.772	7153.21
432.979	7583.29
433.187	7792.18
433.394	7808.56
433.601	8316.46
433.808	8457.77
434.016	8275.5
434.223	8635.94
434.43	9109.02
434.637	9037.34
434.844	9561.62
435.052	9612.82
435.259	9520.67
435.466	9651.74
435.673	9563.67
435.88	10059.28
436.087	10608.14
436.294	10716.68
436.501	10493.45
436.708	10649.1
436.915	11056.64
437.122	11615.74
437.329	11533.82
437.537	11902.45
437.743	12207.6
437.95	11814.39
438.157	12545.52
438.364	13096.42
438.571	13049.32
438.778	13116.9
438.985	13997.53
439.192	13821.4
439.399	13919.7
439.606	13694.43
439.813	14462.41
440.02	15470.01
440.227	15263.17
440.433	14884.3
440.64	15545.79
440.847	15330.75
441.054	15771.07
441.261	17081.77
441.467	16563.63
441.674	16975.27
441.881	17532.32
442.088	17368.48
442.294	17280.42
442.501	17751.45
442.708	17976.73
442.914	18797.96
443.121	19508.61
443.328	18804.11
443.534	20360.56
443.741	19930.49
443.948	19449.22
444.154	21116.26
444.361	20974.95
444.568	21063.02
444.774	20759.92
444.981	21081.45
445.187	21814.62
445.394	22558.03
445.6	22527.31
445.807	24290.62
446.013	23469.38
446.22	24079.68
446.426	24896.81
446.633	25056.56
446.839	26015.01
447.046	25011.5
447.252	26440.98
447.459	26363.16
447.665	26283.29
447.871	27653.38
448.078	28505.34
448.284	26983.69
448.491	28015.87
448.697	28734.71
448.903	29490.41
449.11	29676.77
449.316	29015.28
449.522	29691.11
449.728	30170.33
449.935	31012.05
450.141	30862.55
450.347	31528.14
450.553	30311.64
450.76	31069.39
450.966	31960.26
451.172	31538.38
451.378	32152.77
451.584	31517.9
451.791	32416.96
451.997	32144.58
452.203	32732.34
452.409	32658.62
452.615	32750.77
452.821	31302.86
453.027	30946.51
453.233	32883.89
453.44	31497.42
453.646	31800.52
453.852	31679.69
454.058	32193.73
454.264	31401.16
454.47	31800.52
454.676	31327.44
454.882	32294.08
455.088	29684.97
455.294	29695.21
455.5	30268.64
455.705	30657.75
455.911	29269.23
456.117	28923.12
456.323	28439.8
456.529	26742.03
456.735	28114.17
456.941	27157.77
457.147	26901.78
457.352	25871.65
457.558	25595.17
457.764	25855.26
457.97	25330.98
458.176	24900.91
458.381	24476.98
458.587	23375.17
458.793	23250.25
458.999	22646.1
459.204	23803.2
459.41	23049.55
459.616	21646.69
459.821	21525.86
460.027	21792.09
460.233	21050.73
460.438	19987.83
460.644	20098.42
460.85	19197.32
461.055	18953.61
461.261	19068.3
461.466	17386.91
461.672	16897.45
461.878	18267.54
462.083	16962.98
462.289	16598.45
462.494	16457.14
462.7	15758.78
462.905	15187.39
463.111	15787.45
463.316	15701.44
463.522	15693.24
463.727	15427.01
463.932	15748.54
464.138	15101.38
464.343	15373.76
464.549	14616.01
464.754	15470.01
464.959	15230.4
465.165	14915.02
465.37	14288.34
465.575	13567.45
465.781	14708.17
465.986	14489.04
466.191	14263.76
466.397	13831.64
466.602	13067.75
466.807	13622.75
467.012	13506.01
467.218	13194.72
467.423	13256.16
467.628	13598.17
467.833	13696.47
468.038	13260.26
468.244	13151.71
468.449	13624.79
468.654	13077.99
468.859	12887.53
469.064	12998.12
469.269	12508.65
469.474	12477.93
469.679	12733.93
469.885	12570.09
470.09	12643.82
470.295	12402.16
470.5	12215.79
470.705	12107.25
470.91	11742.71
471.115	11791.86
471.32	11982.32
471.525	11781.62
471.73	11662.84
471.935	11447.8
472.139	11105.79
472.344	11290.11
472.549	11183.62
472.754	11138.56
472.959	10991.11
473.164	10542.6
473.369	10483.21
473.574	10847.75
473.778	10661.38
473.983	10597.9
474.188	10489.35
474.393	10057.23
474.598	10024.47
474.802	10006.03
475.007	9877.01
475.212	9950.74
475.417	9461.27
475.621	9541.15
475.826	9715.22
476.031	9346.59
476.235	9459.23
476.44	9281.05
476.645	9043.49
476.849	9487.9
477.054	9147.94
477.259	8850.98
477.463	8898.08
477.668	8699.43
477.872	8779.3
478.077	8734.25
478.282	8537.64
478.486	8490.54
478.691	8269.36
478.895	8304.17
479.1	8240.68
479.304	8275.5
479.509	7999.02
479.713	8242.73
479.918	8001.07
480.122	7843.38
480.326	8066.61
480.531	7898.67
480.735	7890.48
480.94	7818.8
481.144	8246.83
481.348	7728.69
481.553	7820.85
481.757	7558.71
481.961	7736.88
482.166	7642.68
482.37	7669.3
482.574	7736.88
482.778	7652.92
482.983	7855.67
483.187	7468.6
483.391	7654.97
483.595	7575.1
483.8	7433.79
484.004	7599.67
484.208	7849.52
484.412	7761.46
484.616	7718.45
484.821	7714.36
485.025	7358.01
485.229	7515.7
485.433	7427.64
485.637	7433.79
485.841	7628.34
486.045	7480.89
486.249	7747.12
486.453	7472.7
486.657	7695.93
486.861	7427.64
487.065	7417.4
487.269	7441.98
487.473	7405.11
487.677	7663.16
487.881	7550.52
488.085	7460.41
488.289	7546.42
488.493	7376.44
488.697	7585.33
488.901	7628.34
489.105	7749.17
489.309	7466.55
489.512	7616.05
489.716	7652.92
489.92	7562.81
490.124	7394.87
490.328	7726.64
490.531	7769.65
490.735	7751.22
490.939	7710.26
491.143	7398.97
491.346	7548.47
491.55	7605.81
491.754	7482.94
491.958	7710.26
492.161	7730.74
492.365	7571
492.569	7605.81
492.772	7605.81
492.976	7953.97
493.18	7804.47
493.383	7745.08
493.587	7892.53
493.79	8062.51
493.994	7818.8
494.197	7820.85
494.401	7984.69
494.605	8046.13
494.808	8189.49
495.012	7970.35
495.215	8226.35
495.419	8310.32
495.622	8214.06
495.825	8220.21
496.029	8425
496.232	8386.09
496.436	8308.27
496.639	8498.73
496.843	8574.5
497.046	8760.87
497.249	8848.93
497.453	8588.84
497.656	9016.87
497.859	8959.52
498.063	8996.39
498.266	9305.63
498.469	9244.19
498.673	9219.61
498.876	9352.73
499.079	9590.3
499.282	9504.28
499.485	9844.24
499.689	9719.32
499.892	9926.16
500.095	9770.52
500.298	9938.45
500.501	10028.56
500.705	10350.09
500.908	10317.33
501.111	10339.85
501.314	10495.5
501.517	10593.8
501.72	10817.03
501.923	10647.05
502.126	10790.41
502.329	11105.79
502.532	11085.31
502.735	11161.09
502.938	11562.49
503.141	11535.87
503.344	11556.35
503.547	11535.87
503.75	11580.92
503.953	12008.95
504.156	12054
504.359	12137.97
504.562	12230.13
504.765	12240.37
504.968	12467.69
505.17	12598.76
505.373	12584.43
505.576	12838.37
505.779	13227.49
505.982	12914.15
506.185	13272.54
506.387	13422.05
506.59	13325.79
506.793	13751.77
506.996	13817.3
507.198	14091.73
507.401	13938.13
507.604	14212.56
507.807	14540.24
508.009	14394.83
508.212	14685.64
508.415	14812.62
508.617	14826.95
508.82	14964.17
509.022	14986.69
509.225	15340.99
509.428	15484.35
509.63	15588.8
509.833	15560.13
510.035	15773.11
510.238	15994.29
510.44	16043.45
510.643	16369.07
510.845	16524.72
511.048	16385.46
511.25	16799.15
511.453	16989.61
511.655	17429.92
511.858	17221.03
512.06	17141.16
512.262	17649.05
512.465	17415.58
512.667	17808.79
512.87	18173.33
513.072	18105.75
513.274	18290.07
513.477	18517.39
513.679	18773.39
513.881	18679.18
514.084	19033.48
514.286	19246.47
514.488	19291.52
514.69	19948.92
514.893	19758.46
515.095	19809.66
515.297	20036.98
515.499	20153.72
515.701	20381.04
515.904	20440.43
516.106	20784.49
516.308	20809.07
516.51	21292.39
516.712	21036.39
516.914	21460.32
517.116	21562.72
517.318	21896.54
517.52	21464.42
517.722	22123.87
517.925	22418.77
518.127	22517.08
518.329	22369.62
518.531	22304.09
518.733	22830.41
518.935	23016.78
519.136	23010.64
519.338	23293.26
519.54	23477.57
519.742	23551.3
519.944	23727.42
520.146	24214.84
520.348	24087.87
520.55	24304.95
520.752	24384.82
520.954	24544.56
521.155	24247.61
521.357	24712.5
521.559	24950.06
521.761	25222.44
521.963	25161
522.164	25142.57
522.366	25251.11
522.568	25546.02
522.77	25468.2
522.971	26064.16
523.173	25814.3
523.375	25808.16
523.576	26090.78
523.778	26031.39
523.98	26580.25
524.181	26375.45
524.383	26264.86
524.584	26567.96
524.786	26809.62
524.988	26453.27
525.189	26924.3
525.391	26987.79
525.592	27051.28
525.794	26752.27
525.995	27067.66
526.197	26840.34
526.398	27088.14
526.6	27260.17
526.801	27198.73
527.003	26993.93
527.204	27149.58
527.406	27512.07
527.607	27192.59
527.808	27227.4
528.01	27139.34
528.211	27567.37
528.412	27604.23
528.614	27555.08
528.815	27415.82
529.016	27559.17
529.218	27006.22
529.419	27120.91
529.62	27649.28
529.822	27153.68
530.023	27239.69
530.224	27448.58
530.425	27075.85
530.626	26920.21
530.828	27032.85
531.029	27819.27
531.23	27299.08
531.431	27229.45
531.632	27051.28
531.833	27194.64
532.035	27133.2
532.236	27022.61
532.437	26813.71
532.638	26885.39
532.839	26893.58
533.04	27133.2
533.241	26551.57
533.442	27006.22
533.643	26846.48
533.844	26858.77
534.045	26930.45
534.246	26385.69
534.447	26420.5
534.648	26684.69
534.849	26725.65
535.05	26563.86
535.251	26600.72
535.451	26187.04
535.652	26424.6
535.853	26475.8
536.054	26381.59
536.255	26283.29
536.456	26000.67
536.657	26268.95
536.857	25951.52
537.058	25963.81
537.259	26051.87
537.46	26295.58
537.66	25939.23
537.861	26144.03
538.062	26006.81
538.263	25949.47
538.463	25756.96
538.664	25834.78
538.865	25775.39
539.065	25734.43
539.266	25865.5
539.466	25750.82
539.667	25439.53
539.868	25883.94
540.068	25634.08
540.269	25756.96
540.469	25695.52
540.67	25613.6
540.87	25593.12
541.071	25724.19
541.271	25425.19
541.472	25470.25
541.672	25421.09
541.873	25324.84
542.073	25353.51
542.274	25627.94
542.474	25429.29
542.675	25302.31
542.875	25593.12
543.075	25462.05
543.276	24823.09
543.476	25316.65
543.676	25242.92
543.877	25412.9
544.077	25050.41
544.277	25535.78
544.478	25214.25
544.678	25384.23
544.878	25437.48
545.078	25400.62
545.279	25007.41
545.479	25021.74
545.679	25371.94
545.879	25326.89
546.079	25472.29
546.28	24849.71
546.48	24722.74
546.68	25034.03
546.88	25044.27
547.08	25148.71
547.28	25021.74
547.48	25115.95
547.68	25230.63
547.88	24710.45
548.081	25376.04
548.281	25048.36
548.481	25132.33
548.681	25511.21
548.881	24757.55
549.081	25173.29
549.28	25136.43
549.48	25480.49
549.68	25060.65
549.88	25492.77
550.08	25113.9
550.28	25437.48
550.48	25603.36
550.68	25294.12
550.88	24966.45
551.08	25492.77
551.279	25228.59
551.479	25044.27
551.679	25355.56
551.879	25505.06
552.079	25277.74
552.278	25330.98
552.478	25335.08
552.678	25419.05
552.878	25353.51
553.077	25439.53
553.277	25204.01
553.477	25865.5
553.676	25703.71
553.876	25623.84
554.076	25613.6
554.275	25773.35
554.475	25437.48
554.674	25928.99
554.874	25752.87
555.074	25586.98
555.273	26060.06
555.473	25732.39
555.672	25562.4
555.872	25611.56
556.071	26060.06
556.271	25716
556.47	25685.28
556.67	25554.21
556.869	25711.91
557.068	25670.95
557.268	25771.3
557.467	25822.5
557.667	26055.97
557.866	25666.85
558.065	26293.53
558.265	25750.82
558.464	25752.87
558.663	26180.89
558.863	25857.31
559.062	26246.43
559.261	25945.37
559.461	26154.27
559.66	25783.59
559.859	26131.74
560.058	25783.59
560.258	26000.67
560.457	26058.01
560.656	26217.75
560.855	26131.74
561.054	26293.53
561.253	26041.63
561.453	26000.67
561.652	26166.56
561.851	26453.27
562.05	25972
562.249	26033.44
562.448	26101.02
562.647	26289.43
562.846	25935.13
563.045	26168.6
563.244	25896.22
563.443	26111.26
563.642	25779.49
563.841	26125.6
564.04	25660.71
564.239	25926.94
564.438	25685.28
564.637	25840.93
564.836	26025.25
565.035	25576.74
565.234	26023.2
565.432	25697.57
565.631	25730.34
565.83	25902.37
566.029	25613.6
566.228	25658.66
566.427	25791.78
566.625	25560.36
566.824	25181.48
567.023	25693.47
567.222	25341.22
567.42	25439.53
567.619	25357.61
567.818	25337.13
568.016	25136.43
568.215	25236.78
568.414	25228.59
568.612	25316.65
568.811	25433.38
569.01	24841.52
569.208	24771.89
569.407	25113.9
569.605	24743.22
569.804	24704.31
570.002	24440.12
570.201	24859.95
570.4	24540.47
570.598	24509.75
570.797	24485.17
570.995	24603.96
571.193	24202.55
571.392	24583.48
571.59	24210.75
571.789	24487.22
571.987	24186.17
572.186	24171.83
572.384	23897.41
572.582	24046.91
572.781	24214.84
572.979	23786.82
573.177	23807.3
573.376	23895.36
573.574	23891.26
573.772	23618.88
573.971	23586.11
574.169	23455.04
574.367	23164.23
574.565	23600.45
574.763	23342.41
574.962	22994.25
575.16	22854.99
575.358	22824.27
575.556	22752.59
575.754	23223.62
575.952	22779.22
576.151	23000.4
576.349	22506.84
576.547	22707.54
576.745	22570.32
576.943	22635.86
577.141	22566.23
577.339	22390.1
577.537	22109.53
577.735	22025.56
577.933	22072.67
578.131	22105.43
578.329	21939.55
578.527	21812.57
578.725	21777.76
578.923	21931.36
579.121	21529.95
579.319	21777.76
579.516	22000.99
579.714	21736.8
579.912	22064.47
580.11	21413.22
580.308	21392.74
580.506	21599.59
580.704	20901.23
580.901	21233
581.099	21359.97
581.297	21302.63
581.495	21210.47
581.692	21196.14
581.89	20909.42
582.088	21282.15
582.285	20907.37
582.483	20706.67
582.681	20878.7
582.878	20825.45
583.076	20518.26
583.274	20757.87
583.471	20452.72
583.669	20606.32
583.866	20327.8
584.064	20675.95
584.262	20159.86
584.459	20401.52
584.657	20510.07
584.854	20503.92
585.052	20092.28
585.249	20036.98
585.447	19893.63
585.644	19697.02
585.841	19867
586.039	19989.88
586.236	19590.53
586.434	19895.68
586.631	19713.41
586.828	19475.84
587.026	19760.51
587.223	19807.61
587.42	19711.36
587.618	19484.03
587.815	19373.44
588.012	19123.59
588.21	19328.39
588.407	19590.53
588.604	19414.4
588.801	19269
588.999	19338.63
589.196	19185.03
589.393	19092.87
589.59	19121.54
589.787	19213.7
589.984	19201.41
590.182	18812.3
590.379	19047.82
590.576	18931.08
590.773	19203.46
590.97	18896.27
591.167	19113.35
591.364	18705.81
591.561	19105.16
591.758	18998.66
591.955	18580.88
592.152	19053.96
592.349	18478.48
592.546	18834.83
592.743	18765.2
592.94	18560.4
593.137	18748.81
593.334	18826.64
593.531	18507.15
593.727	18531.73
593.924	18728.33
594.121	18236.82
594.318	18632.08
594.515	18281.88
594.712	18462.1
594.908	18339.22
595.105	18660.75
595.302	18371.99
595.499	18501.01
595.696	18527.63
595.892	18546.06
596.089	18599.31
596.286	18744.72
596.482	18408.85
596.679	18527.63
596.876	18537.87
597.072	18439.57
597.269	18507.15
597.466	18662.8
597.662	18515.34
597.859	18427.28
598.055	18468.24
598.252	18269.59
598.448	18408.85
598.645	18513.3
598.841	18331.03
599.038	18711.95
599.234	18361.75
599.431	18562.45
599.627	18478.48
599.824	18621.84
600.02	18703.76
600.217	18541.97
600.413	18820.49
600.609	18548.11
600.806	18439.57
601.002	18828.68
601.198	18767.24
601.395	18433.43
601.591	18642.32
601.787	18736.52
601.984	18742.67
602.18	18912.65
602.376	18775.44
602.572	18974.09
602.769	19037.58
602.965	18861.45
603.161	18998.66
603.357	19084.68
603.553	18949.51
603.75	19084.68
603.946	18959.75
604.142	19107.21
604.338	19092.87
604.534	19008.9
604.73	19101.06
604.926	19410.31
605.122	19432.83
605.318	19027.34
605.514	19205.51
605.71	19258.76
605.906	19524.99
606.102	19387.78
606.298	19563.9
606.494	19709.31
606.69	19613.06
606.886	19727.74
607.082	19400.07
607.278	19715.45
607.474	19557.76
607.67	19893.63
607.866	19465.6
608.062	20245.88
608.257	19754.37
608.453	19836.28
608.649	20221.3
608.845	19967.35
609.041	20125.05
609.236	20348.28
609.432	20284.79
609.628	20481.39
609.824	20252.02
610.019	20397.43
610.215	20118.9
610.411	20358.52
610.606	20528.5
610.802	20655.47
610.998	20706.67
611.193	20311.41
611.389	20596.08
611.584	20456.82
611.78	20532.59
611.976	20802.93
612.171	20839.79
612.367	20811.12
612.562	20825.45
612.758	20596.08
612.953	20620.66
613.149	21007.72
613.344	20465.01
613.539	21173.61
613.735	20772.21
613.93	20772.21
614.126	21050.73
614.321	21058.92
614.517	20878.7
614.712	20888.94
614.907	20813.17
615.103	21097.83
615.298	21022.06
615.493	21269.86
615.688	20700.53
615.884	21216.61
616.079	20952.43
616.274	21132.65
616.47	20880.75
616.665	20981.1
616.86	21106.02
617.055	20884.84
617.25	21149.03
617.445	21431.65
617.641	20620.66
617.836	21149.03
618.031	20841.84
618.226	20966.76
618.421	20964.71
618.616	21146.98
618.811	20721.01
619.006	21144.94
619.201	20673.9
619.396	20755.82
619.591	20524.4
619.786	20669.81
619.981	20481.39
620.176	20721.01
620.371	20309.36
620.566	20415.86
620.761	20596.08
620.956	20587.89
621.151	20061.56
621.346	20362.61
621.541	19924.35
621.735	20284.79
621.93	19948.92
622.125	19938.68
622.32	19631.49
622.515	20315.51
622.709	19664.25
622.904	19684.73
623.099	19588.48
623.294	19406.21
623.488	19359.11
623.683	19445.12
623.878	19189.13
624.072	19273.09
624.267	19137.93
624.462	19000.71
624.656	18965.9
624.851	19113.35
625.046	18703.76
625.24	18587.02
625.435	18705.81
625.629	18468.24
625.824	18494.86
626.018	18312.6
626.213	18040.22
626.407	18511.25
626.602	18083.22
626.796	18056.6
626.991	18214.29
627.185	17802.65
627.38	17933.72
627.574	17857.95
627.768	17816.99
627.963	17388.96
628.157	17192.36
628.352	17593.76
628.546	17165.73
628.74	17223.08
628.935	17290.66
629.129	17298.85
629.323	17024.42
629.517	17012.14
629.712	16833.96
629.906	17049
630.1	16944.55
630.294	16655.79
630.489	16491.95
630.683	16526.77
630.877	16453.04
631.071	16291.25
631.265	16303.54
631.459	16141.75
631.653	16147.89
631.848	16068.02
632.042	16002.49
632.236	16192.95
632.43	15789.5
632.624	15936.95
632.818	15809.98
633.012	15945.14
633.206	15648.19
633.4	15265.22
633.594	15353.28
633.788	15310.27
633.982	15195.59
634.176	15238.59
634.369	14867.91
634.563	14921.16
634.757	15046.09
634.951	14829
635.145	14910.92
635.339	14898.63
635.533	14460.37
635.726	14792.14
635.92	14632.4
636.114	14288.34
636.308	14513.61
636.501	14343.63
636.695	14198.23
636.889	14026.2
637.083	13942.23
637.276	13743.58
637.47	13669.85
637.664	13774.3
637.857	13501.92
638.051	13833.69
638.244	13534.68
638.438	13506.01
638.632	13387.23
638.825	13295.07
639.019	13030.88
639.212	13184.48
639.406	13059.56
639.599	12885.48
639.793	13034.98
639.986	12824.04
640.18	12852.71
640.373	12613.1
640.567	12492.27
640.76	12439.02
640.954	12455.4
641.147	12232.18
641.34	12168.69
641.534	12232.18
641.727	12299.76
641.92	12115.44
642.114	12092.91
642.307	11955.7
642.5	12062.19
642.694	11701.75
642.887	11679.22
643.08	11816.44
643.273	11445.76
643.467	11560.44
643.66	11392.51
643.853	11384.32
644.046	11070.98
644.239	11390.46
644.432	10966.53
644.626	11027.97
644.819	10833.41
645.012	10841.61
645.205	11023.87
645.398	11003.39
645.591	10776.07
645.784	10827.27
645.977	10626.57
646.17	10632.71
646.363	10415.63
646.556	10165.78
646.749	10245.65
646.942	10642.95
647.135	10233.36
647.328	10034.71
647.521	10233.36
647.714	9973.27
647.907	9977.36
648.099	9877.01
648.292	9963.03
648.485	9733.65
648.678	9829.91
648.871	9733.65
649.064	9594.39
649.256	9647.64
649.449	9422.36
649.642	9442.84
649.835	9465.37
650.027	9340.44
650.22	9348.64
650.413	9385.5
650.605	9352.73
650.798	8971.81
650.991	9156.13
651.183	9176.61
651.376	9170.46
651.568	8898.08
651.761	8848.93
651.954	9080.35
652.146	8801.83
652.339	8709.67
652.531	8681
652.724	8607.27
652.916	8490.54
653.109	8580.65
653.301	8504.87
653.494	8619.56
653.686	8453.67
653.879	8472.11
654.071	8345.13
654.263	8242.73
654.456	8310.32
654.648	8281.64
654.84	7976.5
655.033	8070.7
655.225	8107.57
655.417	8029.74
655.61	8001.07
655.802	7847.47
655.994	7798.32
656.186	7947.83
656.379	7781.94
656.571	7812.66
656.763	7646.77
656.955	7587.38
657.148	7704.12
657.34	7671.35
657.532	7538.23
657.724	7595.57
657.916	7425.59
658.108	7466.55
658.3	7335.48
658.492	7392.83
658.684	7179.84
658.876	7128.64
659.068	7099.97
659.26	7091.77
659.452	7276.09
659.644	7351.87
659.836	7087.68
660.028	7059.01
660.22	6762.05
660.412	7024.19
660.604	6753.86
660.796	6790.72
660.988	6874.69
661.18	6725.19
661.372	6704.71
661.563	6729.28
661.755	6573.64
661.947	6719.04
662.139	6413.9
662.331	6405.7
662.522	6334.03
662.714	6501.96
662.906	6395.47
663.097	6403.66
663.289	6327.88
663.481	6180.43
663.673	6348.36
663.864	6225.48
664.056	6205
664.247	6051.41
664.439	6022.73
664.631	6067.79
664.822	6067.79
665.014	6022.73
665.205	5998.16
665.397	6075.98
665.588	5891.66
665.78	5877.33
665.971	5764.69
666.163	6055.5
666.354	5801.55
666.546	5711.44
666.737	5674.58
666.929	5797.46
667.12	5690.96
667.311	5766.74
667.503	5631.57
667.694	5566.04
667.885	5637.72
668.077	5629.52
668.268	5426.78
668.459	5371.48
668.651	5353.05
668.842	5453.4
669.033	5443.16
669.224	5375.58
669.416	5387.86
669.607	5342.81
669.798	5396.06
669.989	5396.06
670.18	5307.99
670.371	5293.66
670.563	5301.85
670.754	5357.14
670.945	5170.78
671.136	5277.27
671.327	5228.12
671.518	5127.77
671.709	5088.86
671.9	5181.02
672.091	5201.5
672.282	5097.05
672.473	5138.01
672.664	5113.44
672.855	4972.13
673.046	4896.35
673.237	5113.44
673.428	5039.71
673.619	4998.75
673.809	4828.77
674	4943.46
674.191	4834.91
674.382	4796
674.573	4867.68
674.764	4974.17
674.954	4875.87
675.145	4839.01
675.336	4798.05
675.527	4961.89
675.717	4695.65
675.908	4650.6
676.099	4703.84
676.289	4871.78
676.48	4540.01
676.671	4714.08
676.861	4752.99
677.052	4722.27
677.243	4689.51
677.433	4664.93
677.624	4615.78
677.814	4558.44
678.005	4675.17
678.195	4566.63
678.386	4675.17
678.576	4605.54
678.767	4587.11
678.957	4527.72
679.148	4585.06
679.338	4679.27
679.529	4746.85
679.719	4712.03
679.909	4640.36
680.1	4638.31
680.29	4531.81
680.481	4486.76
680.671	4472.42
680.861	4542.05
681.052	4621.92
681.242	4453.99
681.432	4724.32
681.622	4503.14
681.813	4531.81
682.003	4519.53
682.193	4523.62
682.383	4550.25
682.573	4613.73
682.764	4632.16
682.954	4443.75
683.144	4525.67
683.334	4646.5
683.524	4589.16
683.714	4437.61
683.904	4564.58
684.094	4453.99
684.284	4609.64
684.474	4460.13
684.664	4466.28
684.854	4404.84
685.044	4433.51
685.234	4388.46
685.424	4476.52
685.614	4388.46
685.804	4392.55
685.994	4394.6
686.184	4353.64
686.374	4370.02
686.564	4370.02
686.753	4384.36
686.943	4376.17
687.133	4417.13
687.323	4499.05
687.513	4173.42
687.702	4388.46
687.892	4343.4
688.082	4331.11
688.272	4433.51
688.461	4445.8
688.651	4327.02
688.841	4298.35
689.03	4357.74
689.22	4257.39
689.41	4355.69
689.599	4177.51
689.789	4179.56
689.979	4120.17
690.168	4228.71
690.358	4157.04
690.547	4261.48
690.737	4222.57
690.926	4171.37
691.116	4093.55
691.305	4187.75
691.495	4132.46
691.684	4173.42
691.874	4048.49
692.063	4052.59
692.252	4036.21
692.442	4191.85
692.631	4060.78
692.82	4126.32
693.01	4066.92
693.199	3942
693.388	3976.81
693.578	3993.2
693.767	4048.49
693.956	3974.77
694.146	3892.85
694.335	3874.42
694.524	4114.03
694.713	3942
694.902	3898.99
695.092	3933.81
695.281	4122.22
695.47	3952.24
695.659	3901.04
695.848	3987.05
696.037	3974.77
696.226	3917.42
696.415	3907.18
696.604	3954.29
696.793	3944.05
696.982	3952.24
697.171	4136.56
697.36	3901.04
697.549	3995.25
697.738	3812.98
697.927	3724.91
698.116	3714.67
698.305	3812.98
698.494	3878.51
698.683	3860.08
698.872	3821.17
699.061	3665.52
699.25	3628.66
699.438	3901.04
699.627	3782.26
699.816	3909.23
700.005	3688.05
700.193	3649.14
700.382	3679.86
700.571	3731.06
700.76	3720.82
700.948	3788.4
701.137	3737.2
701.326	3821.17
701.514	3577.46
701.703	3634.8
701.892	3556.98
702.08	3704.43
702.269	3716.72
702.457	3573.36
702.646	3587.7
702.834	3505.78
703.023	3683.95
703.212	3704.43
703.4	3626.61
703.589	3581.56
703.777	3606.13
703.965	3518.07
704.154	3516.02
704.342	3532.4
704.531	3581.56
704.719	3526.26
704.907	3671.67
705.096	3544.69
705.284	3331.7
705.472	3532.4
705.661	3509.88
705.849	3657.33
706.037	3462.77
706.226	3466.87
706.414	3436.15
706.602	3380.86
706.79	3532.4
706.979	3427.96
707.167	3434.1
707.355	3384.95
707.543	3444.34
707.731	3427.96
707.919	3395.19
708.107	3274.36
708.296	3411.57
708.484	3204.73
708.672	3311.22
708.86	3325.56
709.048	3442.29
709.236	3274.36
709.424	3372.66
709.612	3393.14
709.8	3231.35
709.988	3225.21
710.176	3241.59
710.364	3268.22
710.551	3427.96
710.739	3122.81
710.927	3180.15
711.115	3217.02
711.303	3311.22
711.491	3116.67
711.679	3272.31
711.866	3167.87
712.054	3108.48
712.242	3116.67
712.43	3122.81
712.617	3075.71
712.805	3090.04
712.993	3167.87
713.181	3051.13
713.368	3030.65
713.556	3141.24
713.744	2956.93
713.931	3149.43
714.119	3196.54
714.306	3036.8
714.494	3092.09
714.682	3016.32
714.869	2848.38
715.057	3049.08
715.244	2991.74
715.432	2975.36
715.619	3014.27
715.807	2948.73
715.994	2856.58
716.182	2922.11
716.369	2885.25
716.556	3034.75
716.744	2932.35
716.931	2913.92
717.119	2920.06
717.306	2952.83
717.493	2868.86
717.681	2856.58
717.868	2838.14
718.055	2852.48
718.242	2911.87
718.43	3057.28
718.617	2877.05
718.804	2823.81
718.991	2870.91
719.179	2854.53
719.366	2772.61
719.553	2819.71
719.74	2823.81
719.927	2786.94
720.114	2852.48
720.301	2745.98
720.488	2633.35
720.676	2655.87
720.863	2733.7
721.05	2745.98
721.237	2649.73
721.424	2707.07
721.611	2745.98
721.798	2610.82
721.985	2709.12
722.172	2512.52
722.358	2729.6
722.545	2674.31
722.732	2653.83
722.919	2793.09
723.106	2602.63
723.293	2616.96
723.48	2535.04
723.667	2608.77
723.853	2651.78
724.04	2594.44
724.227	2543.24
724.414	2561.67
724.6	2598.53
724.787	2504.32
724.974	2627.2
725.161	2614.91
725.347	2469.51
725.534	2535.04
725.72	2455.17
725.907	2524.8
726.094	2545.28
726.28	2393.73
726.467	2436.74
726.653	2520.71
726.84	2553.48
727.027	2582.15
727.213	2363.01
727.4	2602.63
727.586	2502.28
727.773	2424.45
727.959	2526.85
728.145	2551.43
728.332	2436.74
728.518	2457.22
728.705	2430.6
728.891	2369.16
729.077	2430.6
729.264	2348.68
729.45	2346.63
729.636	2449.03
729.823	2360.97
730.009	2395.78
730.195	2418.31
730.382	2453.13
730.568	2461.32
730.754	2367.11
730.94	2377.35
731.126	2309.77
731.313	2283.14
731.499	2416.26
731.685	2369.16
731.871	2287.24
732.057	2254.47
732.243	2436.74
732.429	2301.58
732.615	2281.1
732.801	2307.72
732.987	2279.05
733.173	2307.72
733.359	2229.9
733.545	2287.24
733.731	2205.32
733.917	2322.06
734.103	2291.34
734.289	2199.18
734.475	2217.61
734.661	2123.4
734.847	2328.2
735.033	2223.75
735.219	2137.74
735.404	2131.59
735.59	2172.55
735.776	2213.51
735.962	2121.35
736.148	2150.03
736.333	2258.57
736.519	2223.75
736.705	2156.17
736.89	2184.84
737.076	2027.15
737.262	1980.04
737.447	2119.31
737.633	2061.96
737.819	2074.25
738.004	2107.02
738.19	1971.85
738.375	2107.02
738.561	2184.84
738.747	2043.53
738.932	2127.5
739.118	2156.17
739.303	2000.52
739.489	2010.76
739.674	2008.72
739.859	2090.63
740.045	1910.41
740.23	2004.62
740.416	1918.61
740.601	2043.53
740.786	2039.44
740.972	1922.7
741.157	1959.56
741.342	1953.42
741.528	1943.18
741.713	1943.18
741.898	2006.67
742.084	1861.26
742.269	1863.31
742.454	1918.61
742.639	1961.61
742.824	1803.92
743.01	1771.15
743.195	1795.73
743.38	1789.58
743.565	1871.5
743.75	1967.76
743.935	1750.67
744.12	1773.2
744.305	1787.54
744.49	1740.43
744.675	1783.44
744.86	1738.38
745.045	1797.78
745.23	1797.78
745.415	1705.62
745.6	1818.25
745.785	1724.05
745.97	1902.22
746.155	1691.28
746.34	1656.47
746.525	1746.58
746.71	1707.66
746.895	1607.31
747.079	1611.41
747.264	1582.74
747.449	1822.35
747.634	1697.42
747.819	1705.62
748.003	1644.18
748.188	1533.59
748.373	1642.13
748.557	1509.01
748.742	1590.93
748.927	1640.08
749.111	1566.35
749.296	1693.33
749.481	1574.55
749.665	1412.76
749.85	1486.48
750.034	1574.55
750.219	1447.57
750.404	1529.49
750.588	1541.78
750.773	1382.04
750.957	1547.92
751.141	1410.71
751.326	1486.48
751.51	1332.89
751.695	1353.37
751.879	1466
752.064	1453.72
752.248	1369.75
752.432	1373.85
752.617	1345.17
752.801	1298.07
752.985	1310.36
753.17	1377.94
753.354	1322.65
753.538	1388.18
753.722	1336.98
753.907	1253.02
754.091	1304.21
754.275	1279.64
754.459	1287.83
754.643	1226.39
754.828	1257.11
755.012	1181.34
755.196	1240.73
755.38	1173.14
755.564	1109.66
755.748	1156.76
755.932	1121.95
756.116	1158.81
756.3	1238.68
756.484	1189.53
756.668	1226.39
756.852	1144.47
757.036	1040.03
757.22	1109.66
757.404	1142.43
757.588	994.97
757.772	1207.96
757.956	1060.51
758.14	1246.87
758.323	1011.36
758.507	1078.94
758.691	1025.69
758.875	1050.27
759.059	1105.56
759.242	1035.93
759.426	999.07
759.61	980.64
759.794	935.58
759.977	1060.51
760.161	1156.76
760.345	1076.89
760.528	1060.51
760.712	1003.16
760.895	968.35
761.079	964.25
761.263	911
761.446	929.44
761.63	919.2
761.813	1066.65
761.997	886.43
762.18	988.83
762.364	978.59
762.547	812.7
762.731	874.14
762.914	982.68
763.098	960.16
763.281	937.63
763.464	921.24
763.648	890.53
763.831	857.76
764.015	923.29
764.198	859.81
764.381	931.48
764.564	941.72
764.748	886.43
764.931	849.57
765.114	911
765.297	863.9
765.481	939.68
765.664	874.14
765.847	845.47
766.03	896.67
766.213	951.96
766.397	824.99
766.58	757.41
766.763	865.95
766.946	804.51
767.129	931.48
767.312	720.54
767.495	755.36
767.678	851.61
767.861	829.09
768.044	861.85
768.227	894.62
768.41	822.94
768.593	812.7
768.776	874.14
768.959	804.51
769.142	792.22
769.324	824.99
769.507	822.94
769.69	794.27
769.873	747.17
770.056	829.09
770.239	747.17
770.421	857.76
770.604	851.61
770.787	820.89
770.97	773.79
771.152	689.82
771.335	743.07
771.518	818.85
771.7	759.46
771.883	693.92
772.066	673.44
772.248	743.07
772.431	765.6
772.613	734.88
772.796	796.32
772.978	741.02
773.161	704.16
773.343	708.26
773.526	650.91
773.708	657.06
773.891	671.39
774.073	730.78
774.256	589.47
774.438	771.74
774.621	685.73
774.803	728.74
774.985	714.4
775.168	640.67
775.35	689.82
775.532	691.87
775.715	548.51
775.897	652.96
776.079	683.68
776.261	587.43
776.444	700.06
776.626	640.67
776.808	595.62
776.99	560.8
777.173	655.01
777.355	536.23
777.537	583.33
777.719	618.15
777.901	534.18
778.083	603.81
778.265	593.57
778.447	575.14
778.629	575.14
778.811	511.65
778.993	585.38
779.175	542.37
779.357	568.99
779.539	513.7
779.721	605.86
779.903	485.03
780.085	460.45
780.267	517.79
780.449	532.13
780.631	558.75
780.812	560.8
780.994	503.46
781.176	458.4
781.358	464.55
781.54	511.65
781.721	489.12
781.903	546.47
782.085	384.68
782.267	558.75
782.448	493.22
782.63	521.89
782.812	435.88
782.993	446.12
783.175	478.88
783.357	476.84
783.538	437.92
783.72	403.11
783.901	372.39
784.083	517.79
784.264	493.22
784.446	423.59
784.627	495.27
784.809	439.97
784.99	372.39
785.172	403.11
785.353	444.07
785.535	439.97
785.716	386.72
785.897	386.72
786.079	427.68
786.26	405.16
786.441	378.53
786.623	362.15
786.804	382.63
786.985	476.84
787.167	411.3
787.348	345.77
787.529	388.77
787.71	325.29
787.891	362.15
788.073	345.77
788.254	329.38
788.435	388.77
788.616	419.49
788.797	407.2
788.978	415.4
789.159	341.67
789.34	411.3
789.522	327.33
789.703	349.86
789.884	353.96
790.065	292.52
790.246	353.96
790.427	319.14
790.607	390.82
790.788	390.82
790.969	298.66
791.15	409.25
791.331	323.24
791.512	378.53
791.693	321.19
791.874	349.86
792.054	347.81
792.235	374.44
792.416	263.85
792.597	235.18
792.778	288.42
792.958	353.96
793.139	349.86
793.32	364.2
793.5	294.57
793.681	313
793.862	251.56
794.042	255.65
794.223	274.09
794.404	259.75
794.584	183.98
794.765	259.75
794.945	304.81
795.126	263.85
795.306	308.9
795.487	306.85
795.667	245.41
795.848	208.55
796.028	231.08
796.209	226.98
796.389	194.22
796.57	222.89
796.75	165.54
796.93	255.65
797.111	208.55
797.291	323.24
797.471	272.04
797.652	208.55
797.832	216.74
798.012	239.27
798.192	194.22
798.373	204.46
798.553	192.17
798.733	231.08
798.913	87.72
799.093	257.7
799.274	138.92
799.454	208.55
799.634	292.52
799.814	284.33
799.994	284.33
800.174	192.17
800.354	235.18
800.534	263.85
800.714	267.94
800.894	222.89
801.074	116.39
801.254	151.21
801.434	169.64
801.614	216.74
801.794	177.83
801.974	878.24
802.154	173.74
802.334	140.97
802.514	153.26
802.693	239.27
802.873	169.64
803.053	167.59
803.233	212.65
803.413	208.55
803.592	186.02
803.772	140.97
803.952	198.31
804.131	173.74
804.311	200.36
804.491	183.98
804.67	233.13
804.85	91.82
805.03	216.74
805.209	165.54
805.389	140.97
805.568	67.24
805.748	143.02
805.928	183.98
806.107	132.78
806.287	202.41
806.466	192.17
806.646	259.75
806.825	118.44
807.004	157.35
807.184	108.2
807.363	224.94
807.543	247.46
807.722	120.49
807.901	224.94
808.081	181.93
808.26	67.24
808.439	183.98
808.619	241.32
808.798	214.7
808.977	224.94
809.156	190.12
809.336	132.78
809.515	198.31
809.694	198.31
809.873	181.93
810.052	206.5
810.231	171.69
810.411	136.87
810.59	149.16
810.769	181.93
810.948	83.63
811.127	157.35
811.306	116.39
811.485	169.64
811.664	128.68
811.843	140.97
812.022	138.92
812.201	134.82
812.38	206.5
812.559	112.3
812.737	83.63
812.916	67.24
813.095	190.12
813.274	104.11
813.453	157.35
813.632	155.3
813.811	196.26
813.989	75.43
814.168	120.49
814.347	145.06
814.526	120.49
814.704	124.58
814.883	140.97
815.062	120.49
815.24	192.17
815.419	91.82
815.598	132.78
815.776	75.43
815.955	140.97
816.133	71.34
816.312	110.25
816.49	132.78
816.669	124.58
816.847	149.16
817.026	169.64
817.204	87.72
817.383	112.3
817.561	67.24
817.74	54.95
817.918	75.43
818.097	79.53
818.275	9.9
818.453	173.74
818.632	81.58
818.81	63.15
818.988	71.34
819.167	77.48
819.345	91.82
819.523	116.39
819.701	118.44
819.879	116.39
820.058	110.25
820.236	11.95
820.414	124.58
820.592	100.01
820.77	61.1
820.948	44.71
821.127	36.52
821.305	165.54
821.483	57
821.661	126.63
821.839	52.91
822.017	87.72
822.195	116.39
822.373	157.35
822.551	67.24
822.729	128.68
822.907	81.58
823.085	143.02
823.262	97.96
823.44	18.09
823.618	36.52
823.796	116.39
823.974	26.28
824.152	100.01
824.329	83.63
824.507	65.19
824.685	149.16
824.863	54.95
825.04	18.09
825.218	110.25
825.396	52.91
825.574	153.26
825.751	44.71
825.929	77.48
826.107	36.52
826.284	95.91
826.462	54.95
826.639	50.86
826.817	11.95
826.994	126.63
827.172	34.47
827.349	89.77
827.527	26.28
827.704	93.87
827.882	67.24
828.059	93.87
828.237	75.43
828.414	50.86
828.591	44.71
828.769	108.2
828.946	9.9
829.124	83.63
829.301	112.3
829.478	48.81
829.655	77.48
829.833	83.63
830.01	1.71
830.187	71.34
830.364	52.91
830.542	36.52
830.719	104.11
830.896	140.97
831.073	106.15
831.25	132.78
831.427	24.23
831.604	63.15
831.782	11.95
831.959	69.29
832.136	34.47
832.313	67.24
832.49	44.71
832.667	52.91
832.844	3.75
833.021	104.11
833.198	75.43
833.374	71.34
833.551	11.95
833.728	36.52
833.905	26.28
834.082	1.71
834.259	18.09
834.436	38.57
834.612	52.91
834.789	28.33
834.966	18.09
835.143	-22.87
835.319	-45.4
835.496	118.44
835.673	75.43
835.85	18.09
836.026	89.77
836.203	9.9
836.38	50.86
836.556	28.33
836.733	50.86
836.909	36.52
837.086	-12.63
837.262	1.71
837.439	-47.44
837.616	65.19
837.792	69.29
837.968	52.91
838.145	34.47
838.321	59.05
838.498	89.77
838.674	50.86
838.851	91.82
839.027	13.99
839.203	91.82
839.38	83.63
839.556	9.9
839.732	77.48
839.909	24.23
840.085	46.76
840.261	1.71
840.437	22.19
840.614	71.34
840.79	71.34
840.966	81.58
841.142	28.33
841.318	52.91
841.494	59.05
841.671	67.24
841.847	-6.49
842.023	20.14
842.199	28.33
842.375	108.2
842.551	18.09
842.727	18.09
842.903	91.82
843.079	46.76
843.255	50.86
843.431	28.33
843.607	95.91
843.783	26.28
843.959	-29.01
844.134	-14.68
844.31	59.05
844.486	-20.82
844.662	22.19
844.838	-22.87
845.013	77.48
845.189	30.38
845.365	7.85
845.541	52.91
845.716	42.67
845.892	118.44
846.068	-12.63
846.244	-6.49
846.419	9.9
846.595	42.67
846.77	36.52
846.946	81.58
847.122	61.1
847.297	24.23
847.473	149.16
847.648	38.57
847.824	50.86
847.999	18.09
848.175	7.85
848.35	59.05
848.526	52.91
848.701	77.48
848.876	30.38
849.052	42.67
849.227	-14.68
849.403	-53.59
849.578	9.9
849.753	13.99
849.929	9.9
850.104	36.52
850.279	-22.87
850.454	9.9
850.63	95.91
850.805	-4.44
850.98	1.71
851.155	-47.44
851.33	120.49
851.505	46.76
851.681	-0.34
851.856	38.57
852.031	-4.44
852.206	50.86
852.381	-29.01
852.556	-55.64
852.731	61.1
852.906	13.99
853.081	40.62
853.256	77.48
853.431	22.19
853.606	1.71
853.781	-29.01
853.956	-35.16
854.131	40.62
854.305	-4.44
854.48	26.28
854.655	11.95
854.83	91.82
855.005	-63.83
855.18	46.76
855.354	42.67
855.529	50.86
855.704	-6.49
855.879	75.43
856.053	11.95
856.228	-10.58
856.403	-43.35
856.577	-6.49
856.752	-117.08
856.926	-22.87
857.101	18.09
857.276	-88.4
857.45	-37.2
857.625	13.99
857.799	3.75
857.974	34.47
858.148	5.8
858.323	20.14
858.497	-39.25
858.672	26.28
858.846	-20.82
859.02	34.47
859.195	13.99
859.369	-12.63
859.543	-16.73
859.718	-14.68
859.892	34.47
860.066	34.47
860.241	-0.34
860.415	-26.96
860.589	-10.58
860.763	79.53
860.938	-26.96
861.112	95.91
861.286	-16.73
861.46	83.63
861.634	-22.87
861.808	63.15
861.982	42.67
862.157	-37.2
862.331	46.76
862.505	-67.92
862.679	-90.45
862.853	-49.49
863.027	-10.58
863.201	106.15
863.375	-69.97
863.549	32.43
863.722	-35.16
863.896	22.19
864.07	3.75
864.244	-12.63
864.418	46.76
864.592	89.77
864.766	-6.49
864.939	-6.49
865.113	-6.49
865.287	42.67
865.461	-2.39
865.634	-12.63
865.808	-14.68
865.982	26.28
866.156	-10.58
866.329	16.04
866.503	-4.44
866.676	9.9
866.85	-37.2
867.024	-8.53
867.197	11.95
867.371	93.87
867.544	34.47
867.718	-61.78
867.891	46.76
868.065	-14.68
868.238	42.67
868.412	36.52
868.585	-53.59
868.759	5.8
868.932	-72.02
869.105	-26.96
869.279	-14.68
869.452	-35.16
869.625	9.9
869.799	24.23
869.972	-43.35
870.145	-29.01
870.319	28.33
870.492	-45.4
870.665	-51.54
870.838	-33.11
871.011	-10.58
871.185	9.9
871.358	3.75
871.531	52.91
871.704	-43.35
871.877	13.99
872.05	-55.64
872.223	-35.16
872.396	11.95
872.569	-39.25
872.742	-78.16
872.915	50.86
873.088	-26.96
873.261	5.8
873.434	-4.44
873.607	50.86
873.78	30.38
873.953	-69.97
874.126	-39.25
874.299	22.19
874.471	22.19
874.644	44.71
874.817	13.99
874.99	75.43
875.163	5.8
875.335	77.48
875.508	5.8
875.681	18.09
875.853	-14.68
876.026	-78.16
876.199	-14.68
876.371	34.47
876.544	-20.82
876.717	18.09
876.889	40.62
877.062	-22.87
877.234	-80.21
877.407	26.28
877.579	-4.44
877.752	-4.44
877.924	16.04
878.097	-4.44
878.269	18.09
878.442	20.14
878.614	-22.87
878.786	-37.2
878.959	-22.87
879.131	-61.78
879.303	-39.25
879.476	-37.2
879.648	22.19
879.82	3.75
879.993	-22.87
880.165	-24.92
880.337	-35.16
880.509	54.95
880.681	-41.3
880.854	-6.49
881.026	28.33
881.198	65.19
881.37	-31.06
881.542	18.09
881.714	-39.25
881.886	1.71
882.058	-55.64
882.23	-20.82
882.402	-8.53
882.574	7.85
882.746	-10.58
882.918	34.47
883.09	18.09
883.262	9.9
883.434	26.28
883.606	-10.58
883.778	-14.68
883.95	-2.39
884.122	-12.63
884.293	65.19
884.465	-35.16
884.637	34.47
884.809	-26.96
884.98	-88.4
885.152	-10.58
885.324	28.33
885.496	-35.16
885.667	18.09
885.839	9.9
886.011	75.43
886.182	22.19
886.354	100.01
886.525	-82.26
886.697	-2.39
886.869	1.71
887.04	11.95
887.212	-20.82
887.383	112.3
887.555	18.09
887.726	9.9
887.897	-2.39
888.069	-35.16
888.24	59.05
888.412	26.28
888.583	5.8
888.754	-31.06
888.926	-35.16
889.097	44.71
889.268	-76.12
889.44	-4.44
889.611	-84.31
889.782	-14.68
889.953	-72.02
890.125	44.71
890.296	46.76
890.467	-20.82
890.638	-12.63
890.809	26.28
890.98	-47.44
891.151	9.9
891.323	42.67
891.494	13.99
891.665	34.47
891.836	-6.49
892.007	-6.49
892.178	24.23
892.349	9.9
892.52	1.71
892.691	26.28
892.862	-78.16
893.032	-108.88
893.203	26.28
893.374	-10.58
893.545	44.71
893.716	-88.4
893.887	46.76
894.057	-31.06
894.228	-18.77
894.399	-59.73
894.57	-18.77
894.74	-39.25
894.911	1.71
895.082	-35.16
895.253	50.86
895.423	-4.44
895.594	-20.82
895.764	-12.63
895.935	-51.54
896.106	52.91
896.276	-31.06
896.447	20.14
896.617	-6.49
896.788	-53.59
896.958	-10.58
897.129	-94.55
897.299	-110.93
897.47	59.05
897.64	59.05
897.81	65.19
897.981	-49.49
898.151	-47.44
898.322	5.8
898.492	5.8
898.662	63.15
898.832	-67.92
899.003	-43.35
899.173	-4.44
899.343	28.33
899.513	-57.68
