Data from USB4F104151__314__14-35-06-619.txt Node

Date: Thu Mar 13 14:35:06 EDT 2025
User: louis
Spectrometer: USB4F10415
Trigger mode: 4
Integration Time (sec): 2.500000E-2
Scans to average: 1
Electric dark correction enabled: true
Nonlinearity correction enabled: false
Boxcar width: 0
XAxis mode: Wavelengths
Number of Pixels in Spectrum: 3648
>>>>>Begin Spectral Data<<<<<
178.204	-131.75
178.424	-131.75
178.644	-131.75
178.864	-88.75
179.084	-74.41
179.304	-39.59
179.524	-55.98
179.744	9.56
179.964	-15.02
180.184	-45.74
180.404	21.85
180.624	34.13
180.844	27.99
181.064	56.66
181.283	17.75
181.503	-10.92
181.723	-0.68
181.943	-111.27
182.163	118.1
182.383	60.76
182.602	50.52
182.822	58.71
183.042	36.18
183.262	-27.31
183.482	19.8
183.701	66.9
183.921	54.61
184.141	17.75
184.361	32.08
184.58	62.8
184.8	9.56
185.02	34.13
185.239	58.71
185.459	32.08
185.679	25.94
185.898	40.28
186.118	36.18
186.338	107.86
186.557	73.04
186.777	19.8
186.997	79.19
187.216	103.76
187.436	60.76
187.655	40.28
187.875	120.15
188.095	17.75
188.314	91.48
188.534	81.24
188.753	85.33
188.973	52.56
189.192	30.04
189.412	30.04
189.631	148.82
189.851	77.14
190.07	95.57
190.29	62.8
190.509	34.13
190.729	15.7
190.948	52.56
191.168	222.55
191.387	30.04
191.607	21.85
191.826	36.18
192.045	27.99
192.265	48.47
192.484	9.56
192.704	9.56
192.923	27.99
193.142	157.01
193.362	99.67
193.581	140.63
193.8	-31.4
194.02	132.44
194.239	13.65
194.458	54.61
194.678	68.95
194.897	13.65
195.116	50.52
195.335	77.14
195.555	50.52
195.774	-4.78
195.993	66.9
196.212	30.04
196.432	1.37
196.651	30.04
196.87	77.14
197.089	111.96
197.308	75.09
197.528	77.14
197.747	-12.97
197.966	54.61
198.185	99.67
198.404	-17.07
198.623	-21.16
198.842	25.94
199.062	34.13
199.281	21.85
199.5	32.08
199.719	50.52
199.938	42.32
200.157	52.56
200.376	58.71
200.595	54.61
200.814	50.52
201.033	56.66
201.252	157.01
201.471	17.75
201.69	93.52
201.909	13.65
202.128	97.62
202.347	46.42
202.566	36.18
202.785	3.41
203.004	13.65
203.223	91.48
203.442	1.37
203.661	66.9
203.879	-15.02
204.098	83.28
204.317	9.56
204.536	66.9
204.755	60.76
204.974	52.56
205.193	44.37
205.411	75.09
205.63	34.13
205.849	46.42
206.068	58.71
206.287	9.56
206.505	54.61
206.724	124.24
206.943	56.66
207.162	87.38
207.381	68.95
207.599	-2.73
207.818	-19.11
208.037	62.8
208.255	36.18
208.474	17.75
208.693	87.38
208.911	25.94
209.13	91.48
209.349	46.42
209.567	25.94
209.786	157.01
210.005	68.95
210.223	68.95
210.442	-10.92
210.661	60.76
210.879	77.14
211.098	19.8
211.316	120.15
211.535	44.37
211.753	30.04
211.972	58.71
212.191	68.95
212.409	68.95
212.628	142.68
212.846	13.65
213.065	48.47
213.283	50.52
213.502	93.52
213.72	75.09
213.938	38.23
214.157	21.85
214.375	50.52
214.594	-55.98
214.812	19.8
215.031	66.9
215.249	46.42
215.467	42.32
215.686	107.86
215.904	27.99
216.122	-17.07
216.341	109.91
216.559	62.8
216.778	3.41
216.996	42.32
217.214	15.7
217.432	42.32
217.651	85.33
217.869	48.47
218.087	54.61
218.306	7.51
218.524	19.8
218.742	38.23
218.96	85.33
219.179	44.37
219.397	71
219.615	103.76
219.833	36.18
220.051	11.61
220.27	42.32
220.488	9.56
220.706	58.71
220.924	134.48
221.142	-21.16
221.36	97.62
221.578	64.85
221.796	44.37
222.015	83.28
222.233	-47.79
222.451	60.76
222.669	1.37
222.887	1.37
223.105	15.7
223.323	-55.98
223.541	19.8
223.759	105.81
223.977	50.52
224.195	48.47
224.413	-10.92
224.631	30.04
224.849	46.42
225.067	89.43
225.285	60.76
225.503	48.47
225.721	-35.5
225.939	7.51
226.157	-10.92
226.375	83.28
226.592	50.52
226.81	116.05
227.028	75.09
227.246	62.8
227.464	25.94
227.682	71
227.9	95.57
228.117	-29.35
228.335	66.9
228.553	9.56
228.771	91.48
228.989	64.85
229.206	89.43
229.424	-10.92
229.642	34.13
229.86	-23.21
230.077	30.04
230.295	58.71
230.513	87.38
230.731	77.14
230.948	134.48
231.166	128.34
231.384	30.04
231.601	103.76
231.819	126.29
232.037	-31.4
232.254	42.32
232.472	134.48
232.689	-45.74
232.907	46.42
233.125	9.56
233.342	36.18
233.56	-4.78
233.777	17.75
233.995	1.37
234.213	91.48
234.43	87.38
234.648	1.37
234.865	68.95
235.083	93.52
235.3	58.71
235.518	40.28
235.735	116.05
235.953	99.67
236.17	120.15
236.388	85.33
236.605	15.7
236.822	107.86
237.04	52.56
237.257	36.18
237.475	30.04
237.692	38.23
237.909	52.56
238.127	17.75
238.344	132.44
238.562	75.09
238.779	11.61
238.996	62.8
239.214	95.57
239.431	17.75
239.648	40.28
239.865	58.71
240.083	52.56
240.3	34.13
240.517	44.37
240.735	13.65
240.952	93.52
241.169	111.96
241.386	52.56
241.603	9.56
241.821	13.65
242.038	91.48
242.255	44.37
242.472	-43.69
242.689	-19.11
242.907	25.94
243.124	87.38
243.341	25.94
243.558	-23.21
243.775	36.18
243.992	-96.94
244.209	17.75
244.426	75.09
244.643	30.04
244.86	79.19
245.078	-15.02
245.295	13.65
245.512	140.63
245.729	79.19
245.946	103.76
246.163	62.8
246.38	83.28
246.597	101.72
246.814	46.42
247.031	46.42
247.248	60.76
247.464	21.85
247.681	34.13
247.898	-6.83
248.115	13.65
248.332	-35.5
248.549	116.05
248.766	34.13
248.983	105.81
249.2	3.41
249.417	75.09
249.633	-64.17
249.85	140.63
250.067	-31.4
250.284	25.94
250.501	95.57
250.717	95.57
250.934	17.75
251.151	17.75
251.368	-2.73
251.585	52.56
251.801	75.09
252.018	-6.83
252.235	79.19
252.451	1.37
252.668	-6.83
252.885	-6.83
253.102	85.33
253.318	9.56
253.535	23.89
253.752	30.04
253.968	36.18
254.185	1.37
254.401	-10.92
254.618	34.13
254.835	17.75
255.051	85.33
255.268	95.57
255.484	87.38
255.701	34.13
255.917	91.48
256.134	-23.21
256.351	25.94
256.567	-21.16
256.784	19.8
257	32.08
257.217	75.09
257.433	-29.35
257.65	-4.78
257.866	122.2
258.082	-45.74
258.299	-19.11
258.515	25.94
258.732	25.94
258.948	-21.16
259.165	34.13
259.381	-0.68
259.597	7.51
259.814	25.94
260.03	30.04
260.246	79.19
260.463	54.61
260.679	9.56
260.895	44.37
261.112	175.44
261.328	52.56
261.544	17.75
261.761	132.44
261.977	75.09
262.193	-12.97
262.409	52.56
262.626	17.75
262.842	27.99
263.058	34.13
263.274	25.94
263.49	73.04
263.707	54.61
263.923	30.04
264.139	-15.02
264.355	58.71
264.571	83.28
264.787	99.67
265.004	122.2
265.22	-4.78
265.436	-12.97
265.652	42.32
265.868	-15.02
266.084	34.13
266.3	48.47
266.516	52.56
266.732	91.48
266.948	62.8
267.164	34.13
267.38	83.28
267.596	107.86
267.812	97.62
268.028	91.48
268.244	36.18
268.46	101.72
268.676	73.04
268.892	105.81
269.108	21.85
269.324	103.76
269.54	-19.11
269.756	36.18
269.972	-27.31
270.188	91.48
270.403	87.38
270.619	38.23
270.835	83.28
271.051	3.41
271.267	66.9
271.483	-4.78
271.698	34.13
271.914	75.09
272.13	30.04
272.346	83.28
272.562	101.72
272.777	52.56
272.993	107.86
273.209	38.23
273.425	66.9
273.64	36.18
273.856	130.39
274.072	52.56
274.287	48.47
274.503	36.18
274.719	95.57
274.934	32.08
275.15	-51.88
275.366	54.61
275.581	36.18
275.797	128.34
276.012	30.04
276.228	27.99
276.444	25.94
276.659	99.67
276.875	60.76
277.09	54.61
277.306	30.04
277.521	36.18
277.737	17.75
277.952	116.05
278.168	34.13
278.383	-10.92
278.599	-15.02
278.814	34.13
279.03	97.62
279.245	42.32
279.461	64.85
279.676	79.19
279.892	11.61
280.107	71
280.322	79.19
280.538	66.9
280.753	11.61
280.969	44.37
281.184	54.61
281.399	111.96
281.615	83.28
281.83	83.28
282.045	58.71
282.26	25.94
282.476	17.75
282.691	85.33
282.906	99.67
283.122	50.52
283.337	-19.11
283.552	25.94
283.767	60.76
283.983	66.9
284.198	58.71
284.413	116.05
284.628	-12.97
284.843	87.38
285.058	71
285.274	83.28
285.489	50.52
285.704	1.37
285.919	58.71
286.134	19.8
286.349	66.9
286.564	93.52
286.779	87.38
286.995	83.28
287.21	15.7
287.425	77.14
287.64	9.56
287.855	44.37
288.07	-47.79
288.285	124.24
288.5	56.66
288.715	36.18
288.93	62.8
289.145	81.24
289.36	83.28
289.575	68.95
289.79	75.09
290.004	21.85
290.219	30.04
290.434	91.48
290.649	36.18
290.864	66.9
291.079	-10.92
291.294	152.92
291.509	58.71
291.724	42.32
291.938	60.76
292.153	85.33
292.368	89.43
292.583	85.33
292.798	34.13
293.012	-27.31
293.227	52.56
293.442	66.9
293.657	62.8
293.871	36.18
294.086	93.52
294.301	75.09
294.516	73.04
294.73	-10.92
294.945	58.71
295.16	58.71
295.374	17.75
295.589	130.39
295.804	60.76
296.018	36.18
296.233	46.42
296.447	11.61
296.662	32.08
296.877	124.24
297.091	75.09
297.306	58.71
297.52	27.99
297.735	27.99
297.949	54.61
298.164	25.94
298.378	58.71
298.593	-15.02
298.807	66.9
299.022	36.18
299.236	138.58
299.451	83.28
299.665	32.08
299.88	11.61
300.094	58.71
300.309	95.57
300.523	87.38
300.737	103.76
300.952	-60.07
301.166	83.28
301.381	-23.21
301.595	17.75
301.809	1.37
302.024	30.04
302.238	30.04
302.452	62.8
302.667	19.8
302.881	132.44
303.095	105.81
303.309	58.71
303.524	89.43
303.738	-23.21
303.952	-92.84
304.166	83.28
304.381	-12.97
304.595	75.09
304.809	-12.97
305.023	58.71
305.237	79.19
305.452	-4.78
305.666	25.94
305.88	107.86
306.094	64.85
306.308	148.82
306.522	71
306.736	71
306.95	-15.02
307.164	56.66
307.379	50.52
307.593	95.57
307.807	25.94
308.021	109.91
308.235	71
308.449	19.8
308.663	17.75
308.877	99.67
309.091	23.89
309.305	95.57
309.519	-27.31
309.733	85.33
309.947	-4.78
310.161	42.32
310.374	30.04
310.588	-31.4
310.802	44.37
311.016	30.04
311.23	101.72
311.444	-31.4
311.658	50.52
311.872	136.53
312.085	75.09
312.299	103.76
312.513	68.95
312.727	60.76
312.941	-76.46
313.154	54.61
313.368	83.28
313.582	91.48
313.796	114
314.009	9.56
314.223	85.33
314.437	34.13
314.651	85.33
314.864	3.41
315.078	50.52
315.292	1.37
315.505	27.99
315.719	62.8
315.933	1.37
316.146	34.13
316.36	91.48
316.573	103.76
316.787	1.37
317.001	103.76
317.214	36.18
317.428	77.14
317.641	15.7
317.855	58.71
318.068	1.37
318.282	124.24
318.495	75.09
318.709	116.05
318.922	-53.93
319.136	140.63
319.349	58.71
319.563	75.09
319.776	75.09
319.99	-31.4
320.203	38.23
320.417	27.99
320.63	128.34
320.843	116.05
321.057	40.28
321.27	79.19
321.483	83.28
321.697	-8.87
321.91	85.33
322.124	11.61
322.337	42.32
322.55	-45.74
322.763	56.66
322.977	87.38
323.19	9.56
323.403	101.72
323.617	148.82
323.83	50.52
324.043	19.8
324.256	34.13
324.469	83.28
324.683	103.76
324.896	3.41
325.109	21.85
325.322	25.94
325.535	120.15
325.748	91.48
325.962	89.43
326.175	34.13
326.388	-45.74
326.601	75.09
326.814	44.37
327.027	71
327.24	152.92
327.453	-29.35
327.666	34.13
327.879	107.86
328.092	46.42
328.305	36.18
328.518	40.28
328.731	107.86
328.944	30.04
329.157	36.18
329.37	38.23
329.583	93.52
329.796	83.28
330.009	-0.68
330.222	167.25
330.435	75.09
330.648	66.9
330.861	52.56
331.073	50.52
331.286	93.52
331.499	52.56
331.712	25.94
331.925	-4.78
332.138	77.14
332.35	58.71
332.563	66.9
332.776	50.52
332.989	34.13
333.202	44.37
333.414	17.75
333.627	44.37
333.84	-2.73
334.053	140.63
334.265	83.28
334.478	1.37
334.691	114
334.903	54.61
335.116	46.42
335.329	50.52
335.541	79.19
335.754	161.11
335.966	91.48
336.179	7.51
336.392	50.52
336.604	-21.16
336.817	13.65
337.029	85.33
337.242	34.13
337.454	89.43
337.667	68.95
337.88	73.04
338.092	75.09
338.305	54.61
338.517	1.37
338.729	107.86
338.942	68.95
339.154	23.89
339.367	-15.02
339.579	85.33
339.792	-19.11
340.004	134.48
340.217	77.14
340.429	34.13
340.641	38.23
340.854	-21.16
341.066	118.1
341.278	116.05
341.491	-2.73
341.703	-4.78
341.915	42.32
342.128	42.32
342.34	25.94
342.552	48.47
342.764	58.71
342.977	58.71
343.189	38.23
343.401	73.04
343.613	66.9
343.826	75.09
344.038	17.75
344.25	99.67
344.462	-6.83
344.674	83.28
344.886	27.99
345.099	95.57
345.311	97.62
345.523	66.9
345.735	17.75
345.947	50.52
346.159	85.33
346.371	97.62
346.583	87.38
346.795	140.63
347.007	120.15
347.219	101.72
347.431	116.05
347.643	71
347.855	52.56
348.067	36.18
348.279	-29.35
348.491	81.24
348.703	144.72
348.915	79.19
349.127	25.94
349.339	95.57
349.551	9.56
349.763	99.67
349.975	36.18
350.187	118.1
350.399	87.38
350.61	17.75
350.822	101.72
351.034	42.32
351.246	56.66
351.458	50.52
351.669	66.9
351.881	103.76
352.093	109.91
352.305	23.89
352.517	38.23
352.728	157.01
352.94	42.32
353.152	103.76
353.363	130.39
353.575	116.05
353.787	11.61
353.999	1.37
354.21	116.05
354.422	68.95
354.633	19.8
354.845	140.63
355.057	54.61
355.268	75.09
355.48	89.43
355.692	13.65
355.903	60.76
356.115	52.56
356.326	54.61
356.538	75.09
356.749	118.1
356.961	62.8
357.172	50.52
357.384	34.13
357.595	177.49
357.807	87.38
358.018	17.75
358.23	97.62
358.441	124.24
358.653	101.72
358.864	48.47
359.075	71
359.287	17.75
359.498	132.44
359.709	50.52
359.921	114
360.132	75.09
360.344	132.44
360.555	11.61
360.766	130.39
360.977	79.19
361.189	30.04
361.4	15.7
361.611	85.33
361.823	107.86
362.034	34.13
362.245	-0.68
362.456	46.42
362.667	58.71
362.879	75.09
363.09	83.28
363.301	58.71
363.512	83.28
363.723	62.8
363.935	30.04
364.146	30.04
364.357	58.71
364.568	83.28
364.779	40.28
364.99	87.38
365.201	91.48
365.412	44.37
365.623	-31.4
365.834	91.48
366.045	75.09
366.256	99.67
366.467	58.71
366.678	132.44
366.889	58.71
367.1	71
367.311	111.96
367.522	34.13
367.733	68.95
367.944	79.19
368.155	99.67
368.366	204.11
368.577	17.75
368.788	60.76
368.999	30.04
369.209	19.8
369.42	107.86
369.631	116.05
369.842	66.9
370.053	56.66
370.264	148.82
370.474	32.08
370.685	66.9
370.896	42.32
371.107	91.48
371.317	142.68
371.528	19.8
371.739	64.85
371.95	140.63
372.16	91.48
372.371	25.94
372.582	-29.35
372.792	103.76
373.003	103.76
373.214	138.58
373.424	107.86
373.635	13.65
373.846	17.75
374.056	177.49
374.267	75.09
374.477	114
374.688	27.99
374.898	75.09
375.109	27.99
375.319	107.86
375.53	95.57
375.74	77.14
375.951	89.43
376.161	126.29
376.372	101.72
376.582	44.37
376.793	81.24
377.003	128.34
377.214	60.76
377.424	134.48
377.635	79.19
377.845	42.32
378.055	95.57
378.266	87.38
378.476	11.61
378.686	50.52
378.897	71
379.107	42.32
379.317	71
379.528	66.9
379.738	58.71
379.948	58.71
380.158	75.09
380.369	126.29
380.579	85.33
380.789	42.32
380.999	157.01
381.21	169.3
381.42	62.8
381.63	5.46
381.84	79.19
382.05	83.28
382.261	50.52
382.471	118.1
382.681	89.43
382.891	148.82
383.101	66.9
383.311	101.72
383.521	105.81
383.731	107.86
383.941	68.95
384.151	93.52
384.361	165.2
384.571	99.67
384.781	73.04
384.991	109.91
385.201	134.48
385.411	52.56
385.621	58.71
385.831	85.33
386.041	140.63
386.251	109.91
386.461	75.09
386.671	52.56
386.881	25.94
387.091	165.2
387.301	91.48
387.511	46.42
387.72	107.86
387.93	17.75
388.14	17.75
388.35	120.15
388.56	95.57
388.769	163.15
388.979	107.86
389.189	7.51
389.399	17.75
389.609	161.11
389.818	66.9
390.028	118.1
390.238	95.57
390.447	48.47
390.657	42.32
390.867	50.52
391.076	38.23
391.286	111.96
391.496	142.68
391.705	77.14
391.915	132.44
392.125	134.48
392.334	56.66
392.544	42.32
392.753	103.76
392.963	163.15
393.172	68.95
393.382	25.94
393.591	173.39
393.801	85.33
394.01	118.1
394.22	50.52
394.429	68.95
394.639	163.15
394.848	116.05
395.058	116.05
395.267	130.39
395.477	91.48
395.686	152.92
395.895	222.55
396.105	193.87
396.314	105.81
396.524	87.38
396.733	52.56
396.942	214.35
397.152	132.44
397.361	85.33
397.57	148.82
397.78	146.77
397.989	105.81
398.198	175.44
398.407	101.72
398.617	83.28
398.826	130.39
399.035	120.15
399.244	214.35
399.453	54.61
399.663	107.86
399.872	163.15
400.081	46.42
400.29	183.63
400.499	97.62
400.708	175.44
400.917	140.63
401.127	93.52
401.336	175.44
401.545	206.16
401.754	165.2
401.963	222.55
402.172	109.91
402.381	99.67
402.59	157.01
402.799	116.05
403.008	189.78
403.217	216.4
403.426	191.83
403.635	144.72
403.844	116.05
404.053	167.25
404.262	189.78
404.471	247.12
404.68	263.51
404.888	195.92
405.097	197.97
405.306	179.54
405.515	152.92
405.724	163.15
405.933	204.11
406.142	257.36
406.35	189.78
406.559	175.44
406.768	116.05
406.977	337.23
407.185	259.41
407.394	197.97
407.603	193.87
407.812	177.49
408.02	316.75
408.229	316.75
408.438	300.37
408.646	304.46
408.855	347.47
409.064	359.76
409.272	255.31
409.481	476.49
409.69	208.21
409.898	423.25
410.107	439.63
410.315	365.9
410.524	464.21
410.733	437.58
410.941	396.62
411.15	554.32
411.358	501.07
411.567	533.84
411.775	443.73
411.984	591.18
412.192	636.24
412.401	582.99
412.609	593.23
412.818	628.04
413.026	648.52
413.234	599.37
413.443	615.76
413.651	738.63
413.86	697.67
414.068	808.27
414.276	834.89
414.485	748.87
414.693	812.36
414.901	929.1
415.11	896.33
415.318	902.47
415.526	931.14
415.734	978.25
415.943	1074.5
416.151	1099.08
416.359	1035.59
416.567	1115.46
416.776	1264.96
416.984	1232.19
417.192	1164.61
417.4	1326.4
417.608	1307.97
417.817	1242.43
418.025	1371.46
418.233	1582.4
418.441	1475.9
418.649	1606.97
418.857	1606.97
419.065	1652.03
419.273	1672.51
419.481	1824.06
419.689	1817.91
419.897	1903.93
420.105	1920.31
420.313	2016.57
420.521	2051.38
420.729	2192.69
420.937	2180.4
421.145	2252.08
421.353	2307.38
421.561	2452.78
421.769	2577.71
421.977	2622.77
422.185	2573.61
422.393	2772.27
422.601	2936.1
422.809	2962.73
423.017	2936.1
423.224	3091.75
423.432	3171.62
423.64	3233.06
423.848	3466.53
424.056	3525.92
424.263	3591.45
424.471	3697.95
424.679	3712.28
424.887	3966.23
425.094	3990.81
425.302	4033.82
425.51	4173.08
425.718	4261.14
425.925	4250.9
426.133	4482.32
426.341	4646.16
426.548	4865.29
426.756	4867.34
426.964	5135.62
427.171	5305.6
427.379	5500.16
427.586	5483.78
427.794	5758.21
428.001	5954.81
428.209	6229.24
428.417	6235.38
428.624	6493.43
428.832	6538.48
429.039	6436.08
429.247	6288.63
429.454	7167.21
429.662	7568.61
429.869	7138.54
430.076	7689.44
430.284	7333.09
430.491	7873.76
430.699	8295.64
430.906	8223.96
431.114	8309.97
431.321	8479.96
431.528	8611.03
431.736	9401.54
431.943	9626.82
432.15	9333.96
432.358	9635.01
432.565	10132.67
432.772	10003.64
432.979	10519.73
433.187	10626.23
433.394	10749.11
433.601	11338.92
433.808	11578.53
434.016	11273.39
434.223	11783.33
434.43	12643.48
434.637	12489.88
434.844	13020.3
435.052	13280.39
435.259	13057.17
435.466	13454.47
435.673	13276.3
435.88	13948.03
436.087	14877.81
436.294	14826.61
436.501	14554.23
436.708	14664.82
436.915	15416.43
437.122	15987.81
437.329	15889.51
437.537	16475.23
437.743	16475.23
437.95	16364.64
438.157	17648.71
438.364	17990.72
438.571	18015.3
438.778	18183.23
438.985	19663.91
439.192	18873.4
439.399	19317.81
439.606	19285.04
439.813	20227.1
440.02	21347.34
440.227	20919.32
440.433	20696.09
440.64	21595.15
440.847	21179.41
441.054	21988.36
441.261	23510
441.467	22873.08
441.674	23598.06
441.881	24318.95
442.088	23974.89
442.294	23899.11
442.501	24429.54
442.708	25121.75
442.914	25912.27
443.121	27165.62
443.328	26467.27
443.534	27943.85
443.741	27622.32
443.948	26860.48
444.154	29051.8
444.361	28752.8
444.568	29014.94
444.774	28728.22
444.981	29332.37
445.187	29930.38
445.394	31323
445.6	30907.26
445.807	33956.69
446.013	32820.06
446.22	33278.81
446.426	34530.12
446.633	34558.79
446.839	35998.51
447.046	34151.24
447.252	36330.28
447.459	36229.93
447.665	36227.88
447.871	37663.51
448.078	39056.13
448.284	37395.23
448.491	38587.14
448.697	39637.75
448.903	40575.72
449.11	40596.2
449.316	40086.26
449.522	40530.67
449.728	41708.25
449.935	42488.53
450.141	42431.18
450.347	43135.68
450.553	41945.81
450.76	42230.48
450.966	43688.63
451.172	43322.05
451.378	44094.13
451.584	43244.23
451.791	44640.94
451.997	44421.81
452.203	45083.3
452.409	45134.5
452.615	44886.7
452.821	42857.16
453.027	42988.23
453.233	44901.03
453.44	43053.76
453.646	43403.97
453.852	43762.36
454.058	44690.09
454.264	43371.2
454.47	44073.65
454.676	42857.16
454.882	44341.94
455.088	40825.57
455.294	40985.32
455.5	41902.81
455.705	42261.2
455.911	40753.9
456.117	39801.59
456.323	39174.91
456.529	37317.4
456.735	39142.14
456.941	37716.76
457.147	37462.81
457.352	36059.95
457.558	35676.98
457.764	35949.36
457.97	35197.76
458.176	34698.05
458.381	34349.9
458.587	32631.65
458.793	32691.04
458.999	31075.2
459.204	33299.29
459.41	32263.02
459.616	30448.52
459.821	29901.71
460.027	30188.42
460.233	29432.72
460.438	28195.75
460.644	28267.43
460.85	26817.47
461.055	26676.16
461.261	26653.63
461.466	24392.67
461.672	23462.9
461.878	25353.17
462.083	23753.71
462.289	23012.34
462.494	22887.42
462.7	22033.41
462.905	21492.75
463.111	21830.66
463.316	22275.07
463.522	21881.86
463.727	21748.75
463.932	21474.32
464.138	21388.3
464.343	21595.15
464.549	20794.39
464.754	21566.48
464.959	21623.82
465.165	20937.75
465.37	20171.81
465.575	19811.37
465.781	20532.25
465.986	20685.85
466.191	19831.85
466.397	19645.48
466.602	18500.67
466.807	19082.29
467.012	19432.49
467.218	19248.18
467.423	18838.58
467.628	18940.98
467.833	19770.41
468.038	18934.84
468.244	18801.72
468.449	19098.67
468.654	18443.32
468.859	18402.36
469.064	18265.15
469.269	17495.11
469.474	17542.22
469.679	18224.19
469.885	17491.02
470.09	17656.9
470.295	17720.39
470.5	17245.26
470.705	17329.23
470.91	16933.97
471.115	16878.68
471.32	16886.87
471.525	16927.83
471.73	16280.67
471.935	16542.81
472.139	15694.95
472.344	16393.31
472.549	15625.32
472.754	15570.02
472.959	15408.23
473.164	14945.39
473.369	15180.91
473.574	15496.3
473.778	15215.73
473.983	15058.03
474.188	14918.77
474.393	14433.4
474.598	14697.59
474.802	14355.58
475.007	14357.63
475.212	14126.21
475.417	13890.69
475.621	13599.88
475.826	13616.26
476.031	13520.01
476.235	13319.31
476.44	13243.53
476.645	12979.34
476.849	13083.79
477.054	12989.58
477.259	12741.78
477.463	13028.49
477.668	12487.83
477.872	12700.82
478.077	12493.97
478.282	12225.69
478.486	12199.07
478.691	12151.96
478.895	12010.65
479.1	11881.63
479.304	12070.05
479.509	11388.07
479.713	11752.61
479.918	11494.57
480.122	11228.33
480.326	11496.61
480.531	11529.38
480.735	11441.32
480.94	11441.32
481.144	11398.31
481.348	11076.78
481.553	11279.53
481.757	10636.47
481.961	11318.44
482.166	11275.43
482.37	11037.87
482.574	10896.56
482.778	11046.06
482.983	11052.2
483.187	11117.74
483.391	11123.88
483.595	10929.33
483.8	10636.47
484.004	10943.66
484.208	11117.74
484.412	10939.57
484.616	11089.07
484.821	10992.81
485.025	10781.87
485.229	11076.78
485.433	10861.74
485.637	10945.71
485.841	10867.89
486.045	10814.64
486.249	10828.98
486.453	10806.45
486.657	10806.45
486.861	10884.27
487.065	10552.5
487.269	10765.49
487.473	10726.58
487.677	10898.61
487.881	10937.52
488.085	10818.74
488.289	10908.85
488.493	10757.3
488.697	10847.41
488.901	10785.97
489.105	11087.02
489.309	10972.33
489.512	10994.86
489.716	11007.15
489.92	10851.5
490.124	10839.22
490.328	11095.21
490.531	10941.61
490.735	10994.86
490.939	11105.45
491.143	11123.88
491.346	11121.84
491.55	11347.11
491.754	11191.47
491.958	11377.83
492.161	11183.27
492.365	11502.76
492.569	11388.07
492.772	11173.03
492.976	11482.28
493.18	11422.89
493.383	11730.08
493.587	11494.57
493.79	11496.61
493.994	11654.31
494.197	11662.5
494.401	11863.2
494.605	11787.43
494.808	12188.83
495.012	11859.1
495.215	12346.52
495.419	12209.31
495.622	12149.92
495.825	12317.85
496.029	12225.69
496.232	12571.8
496.436	12285.08
496.639	12586.13
496.843	12702.87
497.046	13028.49
497.249	12952.72
497.453	13046.93
497.656	13331.59
497.859	13253.77
498.063	13446.28
498.266	13593.73
498.469	13536.39
498.673	13634.69
498.876	13948.03
499.079	14271.61
499.282	14095.49
499.485	14374.01
499.689	14218.36
499.892	14812.28
500.095	14597.24
500.298	14853.23
500.501	14785.65
500.705	15504.49
500.908	15371.37
501.111	15596.65
501.314	15692.9
501.517	15367.27
501.72	15885.41
501.923	15840.36
502.126	16335.96
502.329	16434.27
502.532	16518.23
502.735	16667.73
502.938	17056.85
503.141	16903.25
503.344	17306.7
503.547	17263.69
503.75	17411.15
503.953	17654.86
504.156	17984.58
504.359	17955.91
504.562	18123.84
504.765	18416.7
504.968	18500.67
505.17	18752.57
505.373	18727.99
505.576	19334.19
505.779	19524.65
505.982	19360.81
506.185	19778.6
506.387	20061.22
506.59	20184.1
506.793	20329.5
506.996	20335.65
507.198	20831.26
507.401	20722.71
507.604	21326.86
507.807	21382.16
508.009	21675.02
508.212	21720.07
508.415	22176.77
508.617	22191.11
508.82	22594.56
509.022	22262.79
509.225	22658.04
509.428	22731.77
509.63	23299.06
509.833	23184.37
510.035	23876.58
510.238	23618.54
510.44	23946.22
510.643	24409.06
510.845	24671.2
511.048	24314.85
511.25	24777.69
511.453	24916.95
511.655	25799.63
511.858	25678.8
512.06	25732.04
512.262	25832.4
512.465	25908.17
512.667	26461.12
512.87	26954.68
513.072	26876.86
513.274	27347.89
513.477	27392.95
513.679	27857.84
513.881	27845.55
514.084	28441.51
514.286	28384.16
514.488	28560.29
514.69	29399.96
514.893	28896.16
515.095	29512.59
515.297	29762.45
515.499	29543.31
515.701	30102.41
515.904	30743.42
516.106	30557.06
516.308	30716.8
516.51	30958.46
516.712	31402.87
516.914	31615.86
517.116	32035.69
517.318	31921.01
517.52	32336.74
517.722	32189.29
517.925	32723.81
518.127	32998.24
518.329	33276.76
518.531	32953.18
518.733	33774.42
518.935	33919.82
519.136	34106.19
519.338	34327.37
519.54	34513.73
519.742	34808.64
519.944	34990.91
520.146	35068.73
520.348	35433.27
520.55	35564.34
520.752	35396.41
520.954	36105.01
521.155	35951.41
521.357	36471.59
521.559	36782.88
521.761	37108.51
521.963	37131.04
522.164	37202.72
522.366	37305.12
522.568	37352.22
522.77	37282.59
522.971	38081.3
523.173	38159.12
523.375	38214.41
523.576	38284.05
523.778	38165.26
523.98	38916.87
524.181	39115.52
524.383	38578.95
524.584	38880
524.786	39146.24
524.988	39011.07
525.189	39635.7
525.391	39510.78
525.592	39484.15
525.794	39725.82
525.995	39760.63
526.197	39412.48
526.398	39936.76
526.6	39844.6
526.801	40086.26
527.003	39990
527.204	40235.76
527.406	40278.77
527.607	40305.39
527.808	40647.4
528.01	39940.85
528.211	40073.97
528.412	40776.42
528.614	40792.81
528.815	40614.63
529.016	40721.13
529.218	40256.24
529.419	40643.31
529.62	40585.96
529.822	40680.17
530.023	40237.81
530.224	40868.58
530.425	41042.66
530.626	40301.29
530.828	40256.24
531.029	41140.96
531.23	40483.56
531.431	40676.07
531.632	40465.13
531.833	40596.2
532.035	40657.64
532.236	40766.18
532.437	40833.77
532.638	40516.33
532.839	40663.78
533.04	40624.87
533.241	40202.99
533.442	40975.08
533.643	40712.94
533.844	40518.38
534.045	40592.11
534.246	40348.4
534.447	40475.37
534.648	40114.93
534.849	40465.13
535.05	39932.66
535.251	39981.81
535.451	40123.12
535.652	40332.01
535.853	40039.15
536.054	39979.76
536.255	40235.76
536.456	39478.01
536.657	40375.02
536.857	39863.03
537.058	39918.32
537.259	40055.54
537.46	39713.53
537.66	39617.27
537.861	39879.41
538.062	39688.95
538.263	39469.82
538.463	39445.24
538.664	39561.98
538.865	39770.87
539.065	39822.07
539.266	39330.56
539.466	39670.52
539.667	38798.09
539.868	39447.29
540.068	39168.77
540.269	38961.92
540.469	39338.75
540.67	39443.2
540.87	39514.87
541.071	39142.14
541.271	39191.3
541.472	39281.41
541.672	38980.35
541.873	38810.37
542.073	38998.79
542.274	39285.5
542.474	39097.09
542.675	38548.23
542.875	39158.53
543.075	38570.76
543.276	38519.56
543.476	39473.92
543.676	38564.62
543.877	38951.68
544.077	38724.36
544.277	38658.82
544.478	38748.93
544.678	38529.8
544.878	38566.66
545.078	38464.27
545.279	38374.16
545.479	38372.11
545.679	38843.14
545.879	38476.55
546.079	38462.22
546.28	38443.79
546.48	38134.54
546.68	38769.41
546.88	38775.56
547.08	38753.03
547.28	38318.86
547.48	38267.66
547.68	38832.9
547.88	38478.6
548.081	38884.1
548.281	38353.68
548.481	38331.15
548.681	38798.09
548.881	38808.33
549.081	38449.93
549.28	38615.82
549.48	38970.11
549.68	38515.47
549.88	39166.72
550.08	38331.15
550.28	38882.05
550.48	38654.73
550.68	38624.01
550.88	38533.9
551.08	38601.48
551.279	38654.73
551.479	38103.82
551.679	38621.96
551.879	38378.25
552.079	38687.5
552.278	38679.3
552.478	38857.48
552.678	38710.02
552.878	39070.47
553.077	38624.01
553.277	38349.58
553.477	39181.06
553.676	38550.28
553.876	38894.34
554.076	38650.63
554.275	38327.05
554.475	38316.81
554.674	39049.99
554.874	38894.34
555.074	38761.22
555.273	38966.02
555.473	39058.18
555.672	38546.19
555.872	38796.04
556.071	39037.7
556.271	39179.01
556.47	38761.22
556.67	38511.37
556.869	38818.57
557.068	39021.31
557.268	38728.45
557.467	39060.23
557.667	38933.25
557.866	38906.63
558.065	39299.84
558.265	38845.19
558.464	38892.29
558.663	39078.66
558.863	38388.49
559.062	39445.24
559.261	38656.78
559.461	39068.42
559.66	38628.1
559.859	38972.16
560.058	38650.63
560.258	38902.53
560.457	38574.86
560.656	39070.47
560.855	38898.44
561.054	38902.53
561.253	38540.04
561.453	38929.16
561.652	39281.41
561.851	39033.6
562.05	38820.61
562.249	38499.08
562.448	38896.39
562.647	38439.69
562.846	38466.31
563.045	38476.55
563.244	38316.81
563.443	38824.71
563.642	38228.75
563.841	38474.51
564.04	38114.06
564.239	38779.65
564.438	38159.12
564.637	38699.78
564.836	38497.03
565.035	37911.31
565.234	38634.25
565.432	37905.17
565.631	38001.43
565.83	38318.86
566.029	38105.87
566.228	38015.76
566.427	37872.4
566.625	37890.84
566.824	37671.7
567.023	38079.25
567.222	37206.81
567.42	37831.44
567.619	37604.12
567.818	37485.34
568.016	37378.84
568.215	37620.5
568.414	37335.84
568.612	37843.73
568.811	37434.14
569.01	37401.37
569.208	36918.05
569.407	37370.65
569.605	36846.37
569.804	37145.37
570.002	36936.48
570.201	36795.17
570.4	36760.36
570.598	36555.56
570.797	36496.17
570.995	37067.55
571.193	36279.08
571.392	36182.83
571.59	36049.71
571.789	36213.55
571.987	36272.94
572.186	36047.66
572.384	36248.36
572.582	36141.87
572.781	36123.44
572.979	35613.49
573.177	35969.84
573.376	35953.46
573.574	35359.55
573.772	35576.63
573.971	35357.5
574.169	35468.09
574.367	35003.2
574.565	34802.5
574.763	35173.18
574.962	34880.32
575.16	34550.6
575.358	34521.93
575.556	34612.04
575.754	35085.12
575.952	34298.7
576.151	34200.4
576.349	33975.12
576.547	34343.75
576.745	34489.16
576.943	34235.21
577.141	34349.9
577.339	34116.43
577.537	33657.68
577.735	33942.35
577.933	33837.9
578.131	33674.07
578.329	33725.27
578.527	33182.56
578.725	33366.87
578.923	33674.07
579.121	33287
579.319	33096.54
579.516	33178.46
579.714	32996.19
579.912	33178.46
580.11	32858.98
580.308	32820.06
580.506	32760.67
580.704	32349.03
580.901	32553.83
581.099	32557.92
581.297	32252.78
581.495	32240.49
581.692	32381.8
581.89	31904.62
582.088	32324.46
582.285	31794.03
582.483	31908.72
582.681	32015.21
582.878	31955.82
583.076	31478.65
583.274	31495.03
583.471	31177.59
583.669	31415.16
583.866	31413.11
584.064	31224.7
584.262	31232.89
584.459	31267.7
584.657	30817.15
584.854	31273.85
585.052	30915.45
585.249	30755.71
585.447	31214.46
585.644	30643.07
585.841	30575.49
586.039	30909.31
586.236	30389.13
586.434	30405.51
586.631	30194.57
586.828	30237.58
587.026	30481.28
587.223	30430.08
587.42	29969.29
587.618	29965.2
587.815	29975.44
588.012	29850.51
588.21	29918.09
588.407	29918.09
588.604	29690.77
588.801	29420.44
588.999	29531.03
589.196	29453.2
589.393	29356.95
589.59	29447.06
589.787	29074.33
589.984	29090.71
590.182	29209.5
590.379	29375.38
590.576	28945.31
590.773	29504.4
590.97	28806.05
591.167	28998.55
591.364	28636.06
591.561	28976.03
591.758	28750.75
591.955	28900.25
592.152	28922.78
592.349	28513.19
592.546	28548
592.743	28476.32
592.94	28240.81
593.137	28521.38
593.334	28558.24
593.531	27913.13
593.727	28357.54
593.924	28144.55
594.121	27753.39
594.318	28160.94
594.515	28101.54
594.712	28216.23
594.908	28001.19
595.105	28230.57
595.302	27689.9
595.499	27952.04
595.696	27710.38
595.892	27614.13
596.089	28036.01
596.286	27755.44
596.482	27687.85
596.679	27550.64
596.876	27657.14
597.072	27497.39
597.269	27954.09
597.466	27372.47
597.662	27229.11
597.859	27554.74
598.055	27620.27
598.252	27358.13
598.448	27433.91
598.645	27794.35
598.841	27431.86
599.038	27405.24
599.234	27528.11
599.431	27399.09
599.627	27413.43
599.824	27440.05
600.02	27106.23
600.217	27345.84
600.413	27300.79
600.609	26958.78
600.806	27259.83
601.002	27524.02
601.198	27020.22
601.395	26999.74
601.591	26999.74
601.787	27274.17
601.984	27311.03
602.18	27302.84
602.376	27020.22
602.572	27081.66
602.769	27102.14
602.965	27194.29
603.161	27091.9
603.357	26829.76
603.553	27243.45
603.75	27098.04
603.946	27171.77
604.142	27194.29
604.338	26870.72
604.534	27040.7
604.73	27159.48
604.926	27128.76
605.122	27345.84
605.318	27120.57
605.514	27005.88
605.71	26930.11
605.906	26960.83
606.102	27026.36
606.298	27147.19
606.494	27210.68
606.69	27339.7
606.886	27179.96
607.082	26887.1
607.278	27544.5
607.474	26921.91
607.67	27358.13
607.866	26764.22
608.062	27368.37
608.257	27122.62
608.453	27427.76
608.649	27419.57
608.845	27173.81
609.041	27106.23
609.236	27306.93
609.432	27089.85
609.628	27503.54
609.824	27182.01
610.019	27409.33
610.215	27499.44
610.411	27274.17
610.606	27382.71
610.802	27870.12
610.998	27382.71
611.193	27419.57
611.389	27343.8
611.584	27513.78
611.78	27345.84
611.976	27440.05
612.171	27323.32
612.367	27628.46
612.562	27343.8
612.758	27251.64
612.953	27257.78
613.149	27456.43
613.344	27288.5
613.539	27868.08
613.735	27737.01
613.93	27636.66
614.126	27351.99
614.321	28027.82
614.517	27239.35
614.712	27673.52
614.907	27487.15
615.103	27759.53
615.298	27360.18
615.493	27880.36
615.688	27327.41
615.884	27947.95
616.079	27573.17
616.274	27804.59
616.47	27579.31
616.665	27675.57
616.86	27370.42
617.055	27399.09
617.25	27313.08
617.445	27749.29
617.641	27229.11
617.836	27759.53
618.031	26784.7
618.226	27536.31
618.421	27030.46
618.616	27294.64
618.811	27089.85
619.006	27534.26
619.201	26954.68
619.396	27052.98
619.591	26629.05
619.786	26710.97
619.981	26381.25
620.176	26715.07
620.371	26389.44
620.566	26553.28
620.761	26467.27
620.956	26512.32
621.151	26112.97
621.346	26424.26
621.541	25832.4
621.735	26334.15
621.93	25785.29
622.125	25789.39
622.32	25582.54
622.515	25666.51
622.709	25455.57
622.904	25355.22
623.099	25134.04
623.294	25170.9
623.488	24902.62
623.683	24853.47
623.878	24574.94
624.072	24792.03
624.267	24527.84
624.462	24425.44
624.656	24277.99
624.851	24423.39
625.046	24194.02
625.24	24345.57
625.435	24038.37
625.629	23950.31
625.824	23839.72
626.018	23790.57
626.213	23245.81
626.407	23548.91
626.602	23364.59
626.796	23329.78
626.991	23053.3
627.185	23063.54
627.38	22973.43
627.574	22983.67
627.768	22682.62
627.963	22365.18
628.157	22373.38
628.352	22518.78
628.546	21931.01
628.74	22342.66
628.935	21914.63
629.129	22152.2
629.323	21697.55
629.517	21998.6
629.712	21564.43
629.906	21527.56
630.1	21437.45
630.294	21613.58
630.489	21255.18
630.683	21357.58
630.877	20986.9
631.071	21003.28
631.265	20876.31
631.459	20737.05
631.653	20933.65
631.848	20263.97
632.042	20503.58
632.236	20431.9
632.43	20481.05
632.624	20268.06
632.818	19960.87
633.012	19633.19
633.206	19829.8
633.4	20061.22
633.594	19555.37
633.788	19536.94
633.982	19762.22
634.176	19696.68
634.369	19242.03
634.563	19078.19
634.757	19090.48
634.951	19207.22
635.145	18885.69
635.339	18838.58
635.533	18811.96
635.726	18324.54
635.92	18412.6
636.114	18377.79
636.308	18373.69
636.501	18154.56
636.695	18097.22
636.889	18121.79
637.083	17941.57
637.276	17828.93
637.47	17593.42
637.664	17599.56
637.857	17665.1
638.051	17611.85
638.244	17220.69
638.438	17153.1
638.632	17329.23
638.825	16917.59
639.019	16956.5
639.212	16544.86
639.406	17017.94
639.599	16938.07
639.793	16675.93
639.986	16417.88
640.18	16458.84
640.373	16462.94
640.567	16243.81
640.76	15850.6
640.954	16102.5
641.147	15840.36
641.34	15934.56
641.534	15979.62
641.727	15608.94
641.92	15606.89
642.114	15363.18
642.307	15367.27
642.5	15436.91
642.694	15311.98
642.887	15053.94
643.08	15289.45
643.273	14896.24
643.467	14945.39
643.66	14826.61
643.853	14734.45
644.046	14460.02
644.239	14656.63
644.432	14539.9
644.626	14404.73
644.819	14390.39
645.012	14259.32
645.205	14179.45
645.398	14091.39
645.591	13929.6
645.784	14048.38
645.977	13767.81
646.17	13827.2
646.363	13579.4
646.556	13579.4
646.749	13696.13
646.942	13477
647.135	13380.75
647.328	13345.93
647.521	13159.56
647.714	13114.51
647.907	13071.5
648.099	12940.43
648.292	12901.52
648.485	12850.32
648.678	12584.09
648.871	12641.43
649.064	12543.13
649.256	12612.76
649.449	12309.66
649.642	12315.8
649.835	12350.62
650.027	12170.4
650.22	12395.67
650.413	12108.96
650.605	12033.18
650.798	12035.23
650.991	11986.08
651.183	11928.74
651.376	11777.19
651.568	11687.07
651.761	11777.19
651.954	11746.47
652.146	11781.28
652.339	11625.64
652.531	11261.1
652.724	11340.97
652.916	11168.94
653.109	11224.23
653.301	11033.77
653.494	11105.45
653.686	11127.98
653.879	11189.42
654.071	10937.52
654.263	10910.89
654.456	10990.77
654.648	10921.13
654.84	10810.54
655.033	10646.71
655.225	10702
655.417	10521.78
655.61	10607.8
655.802	10685.62
655.994	10380.47
656.186	10308.79
656.379	10456.25
656.571	10257.59
656.763	10366.14
656.955	10249.4
657.148	10087.61
657.34	10134.71
657.532	9874.62
657.724	9987.26
657.916	9950.4
658.108	9852.09
658.3	9899.2
658.492	9735.36
658.684	9678.02
658.876	9749.7
659.068	9487.56
659.26	9336.01
659.452	9512.13
659.644	9430.21
659.836	9252.04
660.028	9391.3
660.22	9022.67
660.412	9075.91
660.604	8944.84
660.796	9028.81
660.988	9063.63
661.18	8975.56
661.372	8817.87
661.563	8719.57
661.755	8660.18
661.947	8756.43
662.139	8750.29
662.331	8473.81
662.522	8447.19
662.714	8506.58
662.906	8426.71
663.097	8369.37
663.289	8252.63
663.481	8326.36
663.673	8500.44
663.864	8250.58
664.056	8316.12
664.247	8064.22
664.439	8226.01
664.631	8228.06
664.822	7918.81
665.014	7943.39
665.205	8072.41
665.397	8027.35
665.588	8004.83
665.78	7853.28
665.971	7947.48
666.163	7754.98
666.354	7738.59
666.546	7769.31
666.737	7646.43
666.929	7605.47
667.12	7587.04
667.311	7341.29
667.503	7589.09
667.694	7609.57
667.885	7392.48
668.077	7546.08
668.268	7255.27
668.459	7259.37
668.651	7343.33
668.842	7251.17
669.033	7113.96
669.224	7353.57
669.416	7242.98
669.607	7161.06
669.798	6907.12
669.989	7161.06
670.18	7013.61
670.371	6935.79
670.563	7015.66
670.754	6894.83
670.945	6923.5
671.136	6952.17
671.327	6847.72
671.518	6931.69
671.709	6792.43
671.9	6948.08
672.091	6847.72
672.282	6585.58
672.473	6710.51
672.664	6669.55
672.855	6735.09
673.046	6513.91
673.237	6604.02
673.428	6573.3
673.619	6800.62
673.809	6526.19
674	6456.56
674.191	6481.14
674.382	6391.03
674.573	6493.43
674.764	6376.69
674.954	6329.59
675.145	6276.34
675.336	6270.2
675.527	6415.6
675.717	6214.9
675.908	6386.93
676.099	6169.85
676.289	6184.18
676.48	6313.2
676.671	6161.66
676.861	6194.42
677.052	6182.14
677.243	6112.5
677.433	6137.08
677.624	6120.7
677.814	6153.46
678.005	6171.9
678.195	6257.91
678.386	6333.68
678.576	5926.14
678.767	6149.37
678.957	5999.87
679.148	6003.96
679.338	6116.6
679.529	6141.18
679.719	6046.97
679.909	6116.6
680.1	6137.08
680.29	6057.21
680.481	5917.95
680.671	5967.1
680.861	5887.23
681.052	5938.43
681.242	5817.6
681.432	5983.48
681.622	5850.36
681.813	5739.77
682.003	5963
682.193	5793.02
682.383	5901.56
682.573	5924.09
682.764	5795.07
682.954	5965.05
683.144	5784.83
683.334	5833.98
683.524	5770.49
683.714	5915.9
683.904	5891.32
684.094	5790.97
684.284	5836.03
684.474	5897.47
684.664	5760.25
684.854	5752.06
685.044	5694.72
685.234	5596.42
685.424	5664
685.614	5707.01
685.804	5596.42
685.994	5629.18
686.184	5557.5
686.374	5668.09
686.564	5606.66
686.753	5610.75
686.943	5543.17
687.133	5569.79
687.323	5539.07
687.513	5655.81
687.702	5235.97
687.892	5522.69
688.082	5473.54
688.272	5573.89
688.461	5391.62
688.651	5379.33
688.841	5395.72
689.03	5436.67
689.22	5301.51
689.41	5395.72
689.599	5393.67
689.789	5326.08
689.979	5272.84
690.168	5321.99
690.358	5113.1
690.547	5301.51
690.737	5254.41
690.926	5287.17
691.116	5113.1
691.305	5260.55
691.495	5268.74
691.684	5186.82
691.874	5186.82
692.063	5223.69
692.252	5125.38
692.442	5131.53
692.631	4957.45
692.82	5072.14
693.01	4916.49
693.199	5072.14
693.388	4959.5
693.578	4912.39
693.767	4941.07
693.956	5027.08
694.146	4988.17
694.335	4994.31
694.524	4836.62
694.713	5008.65
694.902	4961.55
695.092	4803.85
695.281	4838.67
695.47	4719.89
695.659	4916.49
695.848	4941.07
696.037	4660.49
696.226	4797.71
696.415	4769.04
696.604	4850.96
696.793	4707.6
696.982	4771.08
697.171	4779.28
697.36	4558.1
697.549	4748.56
697.738	4578.58
697.927	4640.01
698.116	4584.72
698.305	4494.61
698.494	4527.38
698.683	4543.76
698.872	4592.91
699.061	4615.44
699.25	4490.51
699.438	4711.69
699.627	4470.03
699.816	4650.25
700.005	4334.87
700.193	4605.2
700.382	4586.77
700.571	4363.54
700.76	4445.46
700.948	4500.75
701.137	4408.59
701.326	4478.23
701.514	4508.94
701.703	4513.04
701.892	4500.75
702.08	4480.27
702.269	4506.9
702.457	4429.07
702.646	4257.04
702.834	4273.43
703.023	4277.52
703.212	4230.42
703.4	4289.81
703.589	4310.29
703.777	4367.63
703.965	4285.72
704.154	4150.55
704.342	4175.13
704.531	4310.29
704.719	3990.81
704.907	4085.02
705.096	4117.78
705.284	4269.33
705.472	4156.69
705.661	4173.08
705.849	4115.73
706.037	4095.25
706.226	4080.92
706.414	4085.02
706.602	4097.3
706.79	4140.31
706.979	4054.3
707.167	4027.67
707.355	3861.79
707.543	4003.1
707.731	4097.3
707.919	3988.76
708.107	4048.15
708.296	3953.95
708.484	3966.23
708.672	3892.51
708.86	3935.51
709.048	4015.38
709.236	3915.03
709.424	4042.01
709.612	3888.41
709.8	3906.84
709.988	3738.91
710.176	3880.22
710.364	3900.7
710.551	3843.35
710.739	3775.77
710.927	3861.79
711.115	3732.76
711.303	3761.44
711.491	3761.44
711.679	3706.14
711.866	3738.91
712.054	3654.94
712.242	3702.04
712.43	3843.35
712.617	3589.41
712.805	3810.59
712.993	3659.04
713.181	3642.65
713.368	3759.39
713.556	3646.75
713.744	3527.97
713.931	3691.81
714.119	3679.52
714.306	3507.49
714.494	3581.21
714.682	3589.41
714.869	3523.87
715.057	3618.08
715.244	3515.68
715.432	3654.94
715.619	3507.49
715.807	3620.13
715.994	3611.93
716.182	3433.76
716.369	3491.1
716.556	3499.3
716.744	3413.28
716.931	3521.82
717.119	3517.73
717.306	3503.39
717.493	3454.24
717.681	3446.05
717.868	3536.16
718.055	3362.08
718.242	3409.19
718.43	3452.19
718.617	3327.27
718.804	3409.19
718.991	3327.27
719.179	3278.12
719.366	3441.95
719.553	3452.19
719.74	3271.97
719.927	3228.96
720.114	3253.54
720.301	3288.36
720.488	3206.44
720.676	3120.42
720.863	3339.55
721.05	3241.25
721.237	3179.81
721.424	3290.4
721.611	3157.29
721.798	3065.13
721.985	3269.92
722.172	3192.1
722.358	3122.47
722.545	3253.54
722.732	3048.74
722.919	3122.47
723.106	3101.99
723.293	3116.33
723.48	3104.04
723.667	3112.23
723.853	3222.82
724.04	3083.56
724.227	3048.74
724.414	3159.33
724.6	3116.33
724.787	3048.74
724.974	3179.81
725.161	3022.12
725.347	2946.34
725.534	2952.49
725.72	3005.74
725.907	3151.14
726.094	3106.09
726.28	2884.91
726.467	3015.98
726.653	3005.74
726.84	3015.98
727.027	3034.41
727.213	2884.91
727.4	3040.55
727.586	2917.67
727.773	2919.72
727.959	3089.7
728.145	3065.13
728.332	2860.33
728.518	2927.91
728.705	2934.06
728.891	2952.49
729.077	2811.18
729.264	2958.63
729.45	2985.26
729.636	2911.53
729.823	2884.91
730.009	2864.43
730.195	2639.15
730.382	2743.6
730.568	2819.37
730.754	2827.56
730.94	2721.07
731.126	2825.51
731.313	2876.71
731.499	2768.17
731.685	2737.45
731.871	2729.26
732.057	2829.61
732.243	2778.41
732.429	2710.83
732.615	2731.31
732.801	2743.6
732.987	2719.02
733.173	2788.65
733.359	2753.84
733.545	2755.88
733.731	2782.51
733.917	2753.84
734.103	2729.26
734.289	2714.92
734.475	2624.81
734.661	2759.98
734.847	2630.96
735.033	2721.07
735.219	2737.45
735.404	2663.72
735.59	2481.46
735.776	2573.61
735.962	2671.92
736.148	2671.92
736.333	2630.96
736.519	2624.81
736.705	2577.71
736.89	2569.52
737.076	2684.2
737.262	2606.38
737.447	2573.61
737.633	2596.14
737.819	2512.18
738.004	2536.75
738.19	2542.89
738.375	2465.07
738.561	2616.62
738.747	2581.81
738.932	2495.79
739.118	2510.13
739.303	2508.08
739.489	2405.68
739.674	2544.94
739.859	2428.21
740.045	2348.34
740.23	2454.83
740.416	2311.47
740.601	2405.68
740.786	2413.87
740.972	2428.21
741.157	2420.02
741.342	2348.34
741.528	2387.25
741.713	2491.7
741.898	2434.35
742.084	2276.66
742.269	2436.4
742.454	2319.67
742.639	2239.8
742.824	2311.47
743.01	2307.38
743.195	2280.75
743.38	2190.64
743.565	2305.33
743.75	2258.23
743.935	2254.13
744.12	2299.19
744.305	2157.88
744.49	2241.84
744.675	2213.17
744.86	2192.69
745.045	2102.58
745.23	2262.32
745.415	2149.68
745.6	2282.8
745.785	2149.68
745.97	2098.49
746.155	2229.56
746.34	2106.68
746.525	1983.8
746.71	2080.05
746.895	1996.09
747.079	2139.44
747.264	2043.19
747.449	2164.02
747.634	2098.49
747.819	2106.68
748.003	2026.81
748.188	1967.42
748.373	2032.95
748.557	1991.99
748.742	1951.03
748.927	1928.5
749.111	1877.3
749.296	1996.09
749.481	1877.3
749.665	1910.07
749.85	1883.45
750.034	1871.16
750.219	1910.07
750.404	1893.69
750.588	1854.78
750.773	1811.77
750.957	1819.96
751.141	1799.48
751.326	1836.35
751.51	1635.64
751.695	1754.43
751.879	1748.28
752.064	1740.09
752.248	1770.81
752.432	1670.46
752.617	1715.52
752.801	1729.85
752.985	1703.23
753.17	1641.79
753.354	1641.79
753.538	1639.74
753.722	1656.12
753.907	1510.72
754.091	1643.84
754.275	1643.84
754.459	1549.63
754.643	1611.07
754.828	1627.45
755.012	1590.59
755.196	1606.97
755.38	1488.19
755.564	1500.48
755.748	1520.96
755.932	1473.85
756.116	1445.18
756.3	1436.99
756.484	1520.96
756.668	1551.68
756.852	1463.62
757.036	1412.42
757.22	1451.33
757.404	1359.17
757.588	1434.94
757.772	1393.98
757.956	1445.18
758.14	1332.55
758.323	1330.5
758.507	1387.84
758.691	1353.02
758.875	1441.09
759.059	1338.69
759.242	1379.65
759.426	1254.72
759.61	1230.15
759.794	1264.96
759.977	1291.59
760.161	1398.08
760.345	1346.88
760.528	1338.69
760.712	1246.53
760.895	1246.53
761.079	1338.69
761.263	1246.53
761.446	1279.3
761.63	1189.19
761.813	1203.52
761.997	1197.38
762.18	1166.66
762.364	1289.54
762.547	1166.66
762.731	1191.24
762.914	1236.29
763.098	1062.21
763.281	1162.56
763.464	1117.51
763.648	1103.17
763.831	1236.29
764.015	1092.93
764.198	1140.04
764.381	1066.31
764.564	1115.46
764.748	1183.04
764.931	1131.84
765.114	1150.28
765.297	1181
765.481	1017.16
765.664	1000.77
765.847	1058.12
766.03	1125.7
766.213	980.29
766.397	1088.84
766.58	1074.5
766.763	1113.41
766.946	1090.88
767.129	1041.73
767.312	1148.23
767.495	1068.36
767.678	982.34
767.861	972.1
768.044	988.49
768.227	984.39
768.41	929.1
768.593	996.68
768.776	1051.97
768.959	1002.82
769.142	1027.4
769.324	963.91
769.507	1027.4
769.69	986.44
769.873	1049.93
770.056	1023.3
770.239	1017.16
770.421	976.2
770.604	1019.21
770.787	959.81
770.97	857.42
771.152	918.86
771.335	978.25
771.518	998.73
771.7	941.38
771.883	1002.82
772.066	939.34
772.248	994.63
772.431	951.62
772.613	951.62
772.796	886.09
772.978	947.53
773.161	855.37
773.343	879.94
773.526	853.32
773.708	931.14
773.891	890.18
774.073	806.22
774.256	830.79
774.438	820.55
774.621	830.79
774.803	877.9
774.985	834.89
775.168	800.07
775.35	789.83
775.532	953.67
775.715	795.98
775.897	789.83
776.079	738.63
776.261	779.59
776.444	740.68
776.626	775.5
776.808	798.03
776.99	714.06
777.173	804.17
777.355	773.45
777.537	736.59
777.719	779.59
777.901	763.21
778.083	781.64
778.265	693.58
778.447	730.44
778.629	734.54
778.811	746.83
778.993	681.29
779.175	757.07
779.357	722.25
779.539	607.56
779.721	724.3
779.903	738.63
780.085	642.38
780.267	664.91
780.449	755.02
780.631	689.48
780.812	730.44
780.994	521.55
781.176	642.38
781.358	609.61
781.54	609.61
781.721	689.48
781.903	683.34
782.085	591.18
782.267	656.72
782.448	607.56
782.63	599.37
782.812	634.19
782.993	546.13
783.175	560.46
783.357	636.24
783.538	611.66
783.72	566.6
783.901	511.31
784.083	607.56
784.264	550.22
784.446	435.53
784.627	527.69
784.809	593.23
784.99	593.23
785.172	595.28
785.353	576.84
785.535	550.22
785.716	517.45
785.897	531.79
786.079	501.07
786.26	558.41
786.441	519.5
786.623	464.21
786.804	558.41
786.985	525.65
787.167	509.26
787.348	484.69
787.529	462.16
787.71	566.6
787.891	486.73
788.073	449.87
788.254	456.01
788.435	458.06
788.616	468.3
788.797	494.93
788.978	433.49
789.159	484.69
789.34	367.95
789.522	378.19
789.703	503.12
789.884	429.39
790.065	394.58
790.246	413.01
790.427	429.39
790.607	378.19
790.788	427.34
790.969	363.86
791.15	378.19
791.331	447.82
791.512	394.58
791.693	374.1
791.874	312.66
792.054	527.69
792.235	472.4
792.416	306.51
792.597	341.33
792.778	396.62
792.958	408.91
793.139	361.81
793.32	413.01
793.5	390.48
793.681	490.83
793.862	394.58
794.042	384.34
794.223	427.34
794.404	413.01
794.584	306.51
794.765	423.25
794.945	306.51
795.126	322.9
795.306	382.29
795.487	304.46
795.667	347.47
795.848	320.85
796.028	324.94
796.209	341.33
796.389	288.08
796.57	279.89
796.75	320.85
796.93	353.62
797.111	271.7
797.291	243.03
797.471	408.91
797.652	337.23
797.832	247.12
798.012	296.27
798.192	296.27
798.373	240.98
798.553	255.31
798.733	249.17
798.913	271.7
799.093	300.37
799.274	331.09
799.454	306.51
799.634	296.27
799.814	359.76
799.994	292.18
800.174	353.62
800.354	247.12
800.534	296.27
800.714	320.85
800.894	222.55
801.074	279.89
801.254	222.55
801.434	320.85
801.614	206.16
801.794	216.4
801.974	1158.47
802.154	249.17
802.334	337.23
802.514	263.51
802.693	259.41
802.873	259.41
803.053	259.41
803.233	296.27
803.413	355.66
803.592	243.03
803.772	273.75
803.952	238.93
804.131	326.99
804.311	216.4
804.491	247.12
804.67	157.01
804.85	212.31
805.03	261.46
805.209	222.55
805.389	181.59
805.568	228.69
805.748	240.98
805.928	208.21
806.107	300.37
806.287	251.22
806.466	214.35
806.646	226.64
806.825	234.83
807.004	181.59
807.184	173.39
807.363	251.22
807.543	195.92
807.722	134.48
807.901	255.31
808.081	283.99
808.26	146.77
808.439	240.98
808.619	255.31
808.798	218.45
808.977	126.29
809.156	251.22
809.336	226.64
809.515	214.35
809.694	161.11
809.873	210.26
810.052	206.16
810.231	251.22
810.411	218.45
810.59	228.69
810.769	130.39
810.948	200.02
811.127	140.63
811.306	157.01
811.485	189.78
811.664	234.83
811.843	200.02
812.022	222.55
812.201	181.59
812.38	216.4
812.559	42.32
812.737	189.78
812.916	167.25
813.095	183.63
813.274	234.83
813.453	152.92
813.632	189.78
813.811	212.31
813.989	202.07
814.168	161.11
814.347	71
814.526	191.83
814.704	224.59
814.883	218.45
815.062	146.77
815.24	144.72
815.419	189.78
815.598	148.82
815.776	165.2
815.955	54.61
816.133	163.15
816.312	214.35
816.49	177.49
816.669	222.55
816.847	163.15
817.026	208.21
817.204	79.19
817.383	99.67
817.561	103.76
817.74	197.97
817.918	134.48
818.097	165.2
818.275	107.86
818.453	181.59
818.632	169.3
818.81	197.97
818.988	136.53
819.167	142.68
819.345	157.01
819.523	189.78
819.701	161.11
819.879	152.92
820.058	140.63
820.236	191.83
820.414	134.48
820.592	126.29
820.77	214.35
820.948	101.72
821.127	107.86
821.305	140.63
821.483	140.63
821.661	167.25
821.839	101.72
822.017	161.11
822.195	197.97
822.373	75.09
822.551	109.91
822.729	152.92
822.907	91.48
823.085	189.78
823.262	126.29
823.44	140.63
823.618	107.86
823.796	124.24
823.974	142.68
824.152	107.86
824.329	95.57
824.507	93.52
824.685	222.55
824.863	148.82
825.04	89.43
825.218	157.01
825.396	60.76
825.574	148.82
825.751	116.05
825.929	83.28
826.107	77.14
826.284	130.39
826.462	107.86
826.639	87.38
826.817	101.72
826.994	111.96
827.172	87.38
827.349	157.01
827.527	124.24
827.704	165.2
827.882	173.39
828.059	167.25
828.237	91.48
828.414	189.78
828.591	66.9
828.769	36.18
828.946	107.86
829.124	132.44
829.301	136.53
829.478	109.91
829.655	116.05
829.833	87.38
830.01	75.09
830.187	193.87
830.364	134.48
830.542	191.83
830.719	140.63
830.896	163.15
831.073	140.63
831.25	167.25
831.427	173.39
831.604	154.96
831.782	40.28
831.959	99.67
832.136	95.57
832.313	132.44
832.49	17.75
832.667	75.09
832.844	93.52
833.021	140.63
833.198	62.8
833.374	66.9
833.551	64.85
833.728	120.15
833.905	62.8
834.082	85.33
834.259	101.72
834.436	79.19
834.612	87.38
834.789	97.62
834.966	60.76
835.143	99.67
835.319	-4.78
835.496	120.15
835.673	75.09
835.85	109.91
836.026	75.09
836.203	91.48
836.38	36.18
836.556	-0.68
836.733	83.28
836.909	128.34
837.086	109.91
837.262	46.42
837.439	66.9
837.616	60.76
837.792	132.44
837.968	34.13
838.145	25.94
838.321	142.68
838.498	68.95
838.674	107.86
838.851	-0.68
839.027	136.53
839.203	50.52
839.38	83.28
839.556	36.18
839.732	62.8
839.909	46.42
840.085	111.96
840.261	68.95
840.437	58.71
840.614	66.9
840.79	87.38
840.966	132.44
841.142	46.42
841.318	34.13
841.494	54.61
841.671	132.44
841.847	25.94
842.023	17.75
842.199	60.76
842.375	77.14
842.551	75.09
842.727	38.23
842.903	173.39
843.079	42.32
843.255	66.9
843.431	68.95
843.607	167.25
843.783	25.94
843.959	157.01
844.134	68.95
844.31	111.96
844.486	23.89
844.662	66.9
844.838	91.48
845.013	120.15
845.189	128.34
845.365	75.09
845.541	103.76
845.716	23.89
845.892	36.18
846.068	48.47
846.244	95.57
846.419	109.91
846.595	-12.97
846.77	58.71
846.946	91.48
847.122	17.75
847.297	87.38
847.473	50.52
847.648	60.76
847.824	36.18
847.999	62.8
848.175	21.85
848.35	83.28
848.526	89.43
848.701	99.67
848.876	85.33
849.052	144.72
849.227	111.96
849.403	79.19
849.578	42.32
849.753	107.86
849.929	68.95
850.104	50.52
850.279	17.75
850.454	93.52
850.63	60.76
850.805	107.86
850.98	50.52
851.155	13.65
851.33	60.76
851.505	-25.26
851.681	169.3
851.856	-0.68
852.031	77.14
852.206	34.13
852.381	58.71
852.556	68.95
852.731	83.28
852.906	46.42
853.081	32.08
853.256	105.81
853.431	19.8
853.606	85.33
853.781	34.13
853.956	-43.69
854.131	91.48
854.305	134.48
854.48	19.8
854.655	73.04
854.83	50.52
855.005	7.51
855.18	97.62
855.354	9.56
855.529	95.57
855.704	54.61
855.879	9.56
856.053	13.65
856.228	9.56
856.403	54.61
856.577	83.28
856.752	19.8
856.926	21.85
857.101	83.28
857.276	25.94
857.45	-15.02
857.625	52.56
857.799	30.04
857.974	58.71
858.148	-12.97
858.323	81.24
858.497	60.76
858.672	21.85
858.846	17.75
859.02	83.28
859.195	-37.55
859.369	75.09
859.543	107.86
859.718	60.76
859.892	-8.87
860.066	52.56
860.241	5.46
860.415	44.37
860.589	52.56
860.763	-35.5
860.938	54.61
861.112	54.61
861.286	13.65
861.46	17.75
861.634	-23.21
861.808	99.67
861.982	48.47
862.157	15.7
862.331	60.76
862.505	60.76
862.679	83.28
862.853	-64.17
863.027	7.51
863.201	128.34
863.375	23.89
863.549	83.28
863.722	46.42
863.896	124.24
864.07	25.94
864.244	58.71
864.418	30.04
864.592	42.32
864.766	44.37
864.939	21.85
865.113	1.37
865.287	50.52
865.461	64.85
865.634	-19.11
865.808	111.96
865.982	46.42
866.156	66.9
866.329	36.18
866.503	95.57
866.676	34.13
866.85	77.14
867.024	-10.92
867.197	34.13
867.371	161.11
867.544	73.04
867.718	-60.07
867.891	75.09
868.065	42.32
868.238	30.04
868.412	58.71
868.585	-10.92
868.759	11.61
868.932	-10.92
869.105	34.13
869.279	77.14
869.452	11.61
869.625	-23.21
869.799	58.71
869.972	-4.78
870.145	34.13
870.319	34.13
870.492	19.8
870.665	9.56
870.838	-2.73
871.011	-29.35
871.185	25.94
871.358	-45.74
871.531	42.32
871.704	-19.11
871.877	36.18
872.05	11.61
872.223	-55.98
872.396	64.85
872.569	42.32
872.742	27.99
872.915	15.7
873.088	-15.02
873.261	-27.31
873.434	109.91
873.607	52.56
873.78	46.42
873.953	38.23
874.126	11.61
874.299	77.14
874.471	15.7
874.644	13.65
874.817	30.04
874.99	81.24
875.163	-15.02
875.335	79.19
875.508	87.38
875.681	73.04
875.853	-45.74
876.026	83.28
876.199	27.99
876.371	1.37
876.544	19.8
876.717	17.75
876.889	-39.59
877.062	95.57
877.234	25.94
877.407	1.37
877.579	62.8
877.752	101.72
877.924	68.95
878.097	42.32
878.269	11.61
878.442	13.65
878.614	38.23
878.786	50.52
878.959	32.08
879.131	17.75
879.303	46.42
879.476	11.61
879.648	62.8
879.82	11.61
879.993	11.61
880.165	34.13
880.337	38.23
880.509	79.19
880.681	-27.31
880.854	-27.31
881.026	9.56
881.198	9.56
881.37	-62.12
881.542	44.37
881.714	19.8
881.886	1.37
882.058	38.23
882.23	50.52
882.402	75.09
882.574	54.61
882.746	79.19
882.918	58.71
883.09	48.47
883.262	-96.94
883.434	25.94
883.606	-21.16
883.778	60.76
883.95	-6.83
884.122	-19.11
884.293	30.04
884.465	-0.68
884.637	124.24
884.809	-23.21
884.98	60.76
885.152	95.57
885.324	75.09
885.496	-64.17
885.667	-15.02
885.839	15.7
886.011	50.52
886.182	25.94
886.354	85.33
886.525	42.32
886.697	54.61
886.869	-12.97
887.04	25.94
887.212	34.13
887.383	50.52
887.555	58.71
887.726	42.32
887.897	-8.87
888.069	75.09
888.24	50.52
888.412	50.52
888.583	-72.36
888.754	54.61
888.926	-21.16
889.097	-10.92
889.268	13.65
889.44	-27.31
889.611	-6.83
889.782	-23.21
889.953	-23.21
890.125	107.86
890.296	25.94
890.467	68.95
890.638	21.85
890.809	1.37
890.98	50.52
891.151	-72.36
891.323	44.37
891.494	-4.78
891.665	-4.78
891.836	46.42
892.007	-2.73
892.178	-4.78
892.349	1.37
892.52	-41.64
892.691	30.04
892.862	1.37
893.032	-43.69
893.203	60.76
893.374	-23.21
893.545	36.18
893.716	-33.45
893.887	30.04
894.057	-17.07
894.228	75.09
894.399	-35.5
894.57	-10.92
894.74	38.23
894.911	124.24
895.082	-39.59
895.253	42.32
895.423	5.46
895.594	9.56
895.764	58.71
895.935	17.75
896.106	-10.92
896.276	-45.74
896.447	36.18
896.617	13.65
896.788	-6.83
896.958	-31.4
897.129	-39.59
897.299	-29.35
897.47	132.44
897.64	52.56
897.81	9.56
897.981	75.09
898.151	-35.5
898.322	64.85
898.492	-4.78
898.662	48.47
898.832	32.08
899.003	87.38
899.173	42.32
899.343	-43.69
899.513	3.41
