Data from USB4F104151__138__14-31-46-851.txt Node

Date: Thu Mar 13 14:31:46 EDT 2025
User: louis
Spectrometer: USB4F10415
Trigger mode: 4
Integration Time (sec): 2.500000E-2
Scans to average: 1
Electric dark correction enabled: true
Nonlinearity correction enabled: false
Boxcar width: 0
XAxis mode: Wavelengths
Number of Pixels in Spectrum: 3648
>>>>>Begin Spectral Data<<<<<
178.204	-102.91
178.424	-102.91
178.644	-102.91
178.864	-125.44
179.084	-107.01
179.304	17.92
179.524	-35.33
179.744	-76.29
179.964	54.78
180.184	-18.94
180.404	101.89
180.624	3.58
180.844	-29.18
181.064	-61.95
181.283	11.78
181.503	52.74
181.723	-20.99
181.943	-35.33
182.163	103.93
182.383	11.78
182.602	118.27
182.822	52.74
183.042	-12.8
183.262	9.73
183.482	5.63
183.701	19.97
183.921	30.21
184.141	30.21
184.361	17.92
184.58	5.63
184.8	69.12
185.02	-16.9
185.239	89.6
185.459	48.64
185.679	79.36
185.898	-12.8
186.118	120.32
186.338	-23.04
186.557	19.97
186.777	-51.71
186.997	28.16
187.216	38.4
187.436	192
187.655	11.78
187.875	110.08
188.095	95.74
188.314	69.12
188.534	36.35
188.753	-18.94
188.973	28.16
189.192	167.42
189.412	71.17
189.631	26.11
189.851	11.78
190.07	81.41
190.29	22.02
190.509	32.26
190.729	22.02
190.948	26.11
191.168	146.94
191.387	93.69
191.607	28.16
191.826	7.68
192.045	50.69
192.265	60.93
192.484	-2.56
192.704	-4.61
192.923	48.64
193.142	97.79
193.362	52.74
193.581	38.4
193.8	19.97
194.02	44.54
194.239	36.35
194.458	-10.75
194.678	19.97
194.897	28.16
195.116	60.93
195.335	36.35
195.555	54.78
195.774	112.13
195.993	60.93
196.212	19.97
196.432	30.21
196.651	24.06
196.87	52.74
197.089	3.58
197.308	30.21
197.528	77.31
197.747	17.92
197.966	69.12
198.185	-23.04
198.404	48.64
198.623	62.98
198.842	60.93
199.062	-12.8
199.281	89.6
199.5	28.16
199.719	62.98
199.938	159.23
200.157	77.31
200.376	87.55
200.595	28.16
200.814	75.26
201.033	52.74
201.252	52.74
201.471	-8.7
201.69	-0.51
201.909	13.82
202.128	-29.18
202.347	22.02
202.566	77.31
202.785	3.58
203.004	19.97
203.223	101.89
203.442	-8.7
203.661	-0.51
203.879	69.12
204.098	93.69
204.317	69.12
204.536	-4.61
204.755	32.26
204.974	-33.28
205.193	89.6
205.411	177.66
205.63	81.41
205.849	62.98
206.068	99.84
206.287	46.59
206.505	-20.99
206.724	5.63
206.943	-37.38
207.162	11.78
207.381	62.98
207.599	-2.56
207.818	28.16
208.037	28.16
208.255	19.97
208.474	32.26
208.693	79.36
208.911	-33.28
209.13	93.69
209.349	34.3
209.567	-35.33
209.786	56.83
210.005	87.55
210.223	69.12
210.442	-4.61
210.661	38.4
210.879	26.11
211.098	3.58
211.316	40.45
211.535	110.08
211.753	19.97
211.972	85.5
212.191	24.06
212.409	-10.75
212.628	30.21
212.846	9.73
213.065	28.16
213.283	60.93
213.502	22.02
213.72	56.83
213.938	56.83
214.157	58.88
214.375	79.36
214.594	44.54
214.812	5.63
215.031	54.78
215.249	87.55
215.467	69.12
215.686	38.4
215.904	101.89
216.122	28.16
216.341	30.21
216.559	93.69
216.778	116.22
216.996	85.5
217.214	19.97
217.432	-2.56
217.651	-20.99
217.869	38.4
218.087	69.12
218.306	19.97
218.524	46.59
218.742	67.07
218.96	48.64
219.179	28.16
219.397	22.02
219.615	120.32
219.833	-27.14
220.051	-0.51
220.27	101.89
220.488	91.65
220.706	44.54
220.924	-4.61
221.142	69.12
221.36	-41.47
221.578	93.69
221.796	28.16
222.015	32.26
222.233	54.78
222.451	128.51
222.669	15.87
222.887	89.6
223.105	28.16
223.323	46.59
223.541	-16.9
223.759	81.41
223.977	28.16
224.195	62.98
224.413	52.74
224.631	95.74
224.849	-4.61
225.067	101.89
225.285	-4.61
225.503	62.98
225.721	-47.62
225.939	79.36
226.157	-47.62
226.375	126.46
226.592	7.68
226.81	56.83
227.028	73.21
227.246	120.32
227.464	79.36
227.682	44.54
227.9	40.45
228.117	44.54
228.335	50.69
228.553	69.12
228.771	7.68
228.989	69.12
229.206	36.35
229.424	52.74
229.642	87.55
229.86	36.35
230.077	52.74
230.295	85.5
230.513	83.45
230.731	81.41
230.948	87.55
231.166	126.46
231.384	-16.9
231.601	73.21
231.819	187.9
232.037	95.74
232.254	52.74
232.472	48.64
232.689	-12.8
232.907	89.6
233.125	42.5
233.342	22.02
233.56	24.06
233.777	13.82
233.995	5.63
234.213	71.17
234.43	73.21
234.648	60.93
234.865	38.4
235.083	110.08
235.3	-8.7
235.518	-61.95
235.735	95.74
235.953	-37.38
236.17	13.82
236.388	11.78
236.605	-4.61
236.822	87.55
237.04	19.97
237.257	85.5
237.475	52.74
237.692	120.32
237.909	69.12
238.127	-2.56
238.344	-6.66
238.562	89.6
238.779	-12.8
238.996	28.16
239.214	28.16
239.431	48.64
239.648	3.58
239.865	71.17
240.083	36.35
240.3	17.92
240.517	30.21
240.735	46.59
240.952	65.02
241.169	54.78
241.386	52.74
241.603	-20.99
241.821	-68.09
242.038	44.54
242.255	19.97
242.472	36.35
242.689	77.31
242.907	44.54
243.124	89.6
243.341	52.74
243.558	-12.8
243.775	-41.47
243.992	-10.75
244.209	62.98
244.426	71.17
244.643	71.17
244.86	30.21
245.078	44.54
245.295	112.13
245.512	42.5
245.729	34.3
245.946	7.68
246.163	3.58
246.38	85.5
246.597	56.83
246.814	142.85
247.031	-2.56
247.248	22.02
247.464	36.35
247.681	36.35
247.898	67.07
248.115	42.5
248.332	71.17
248.549	91.65
248.766	89.6
248.983	118.27
249.2	13.82
249.417	60.93
249.633	5.63
249.85	44.54
250.067	60.93
250.284	85.5
250.501	60.93
250.717	28.16
250.934	28.16
251.151	40.45
251.368	48.64
251.585	46.59
251.801	71.17
252.018	85.5
252.235	91.65
252.451	69.12
252.668	3.58
252.885	44.54
253.102	62.98
253.318	-8.7
253.535	11.78
253.752	19.97
253.968	69.12
254.185	67.07
254.401	-37.38
254.618	69.12
254.835	1.54
255.051	110.08
255.268	77.31
255.484	89.6
255.701	50.69
255.917	22.02
256.134	-53.76
256.351	3.58
256.567	22.02
256.784	11.78
257	52.74
257.217	46.59
257.433	36.35
257.65	11.78
257.866	116.22
258.082	28.16
258.299	-2.56
258.515	79.36
258.732	42.5
258.948	-41.47
259.165	11.78
259.381	40.45
259.597	69.12
259.814	19.97
260.03	79.36
260.246	24.06
260.463	75.26
260.679	-10.75
260.895	3.58
261.112	-45.57
261.328	69.12
261.544	40.45
261.761	87.55
261.977	9.73
262.193	-2.56
262.409	95.74
262.626	22.02
262.842	30.21
263.058	3.58
263.274	44.54
263.49	52.74
263.707	48.64
263.923	60.93
264.139	15.87
264.355	-23.04
264.571	110.08
264.787	93.69
265.004	138.75
265.22	5.63
265.436	-16.9
265.652	-6.66
265.868	38.4
266.084	81.41
266.3	1.54
266.516	1.54
266.732	79.36
266.948	-12.8
267.164	73.21
267.38	-16.9
267.596	85.5
267.812	38.4
268.028	-4.61
268.244	-0.51
268.46	30.21
268.676	5.63
268.892	19.97
269.108	-66.05
269.324	17.92
269.54	-4.61
269.756	93.69
269.972	-4.61
270.188	36.35
270.403	-12.8
270.619	40.45
270.835	-18.94
271.051	105.98
271.267	28.16
271.483	42.5
271.698	44.54
271.914	48.64
272.13	-4.61
272.346	50.69
272.562	9.73
272.777	157.18
272.993	22.02
273.209	-35.33
273.425	30.21
273.64	32.26
273.856	101.89
274.072	52.74
274.287	7.68
274.503	-2.56
274.719	91.65
274.934	83.45
275.15	-18.94
275.366	-20.99
275.581	46.59
275.797	-4.61
276.012	19.97
276.228	15.87
276.444	19.97
276.659	110.08
276.875	-4.61
277.09	69.12
277.306	-29.18
277.521	85.5
277.737	-8.7
277.952	38.4
278.168	19.97
278.383	5.63
278.599	13.82
278.814	67.07
279.03	54.78
279.245	83.45
279.461	38.4
279.676	128.51
279.892	58.88
280.107	38.4
280.322	79.36
280.538	69.12
280.753	-45.57
280.969	101.89
281.184	69.12
281.399	-4.61
281.615	36.35
281.83	44.54
282.045	-12.8
282.26	87.55
282.476	28.16
282.691	97.79
282.906	54.78
283.122	69.12
283.337	-6.66
283.552	44.54
283.767	-61.95
283.983	140.8
284.198	28.16
284.413	54.78
284.628	-10.75
284.843	36.35
285.058	85.5
285.274	65.02
285.489	30.21
285.704	73.21
285.919	-31.23
286.134	38.4
286.349	71.17
286.564	7.68
286.779	60.93
286.995	54.78
287.21	11.78
287.425	-2.56
287.64	28.16
287.855	69.12
288.07	22.02
288.285	101.89
288.5	48.64
288.715	132.61
288.93	-47.62
289.145	52.74
289.36	24.06
289.575	62.98
289.79	69.12
290.004	28.16
290.219	77.31
290.434	69.12
290.649	38.4
290.864	77.31
291.079	38.4
291.294	128.51
291.509	54.78
291.724	30.21
291.938	9.73
292.153	87.55
292.368	-2.56
292.583	79.36
292.798	77.31
293.012	42.5
293.227	-43.52
293.442	69.12
293.657	67.07
293.871	19.97
294.086	69.12
294.301	69.12
294.516	112.13
294.73	56.83
294.945	36.35
295.16	91.65
295.374	62.98
295.589	-20.99
295.804	48.64
296.018	60.93
296.233	-2.56
296.447	71.17
296.662	-4.61
296.877	60.93
297.091	52.74
297.306	-29.18
297.52	-14.85
297.735	83.45
297.949	36.35
298.164	24.06
298.378	85.5
298.593	11.78
298.807	-33.28
299.022	7.68
299.236	97.79
299.451	15.87
299.665	19.97
299.88	22.02
300.094	-4.61
300.309	83.45
300.523	79.36
300.737	32.26
300.952	60.93
301.166	69.12
301.381	7.68
301.595	32.26
301.809	30.21
302.024	71.17
302.238	24.06
302.452	79.36
302.667	60.93
302.881	52.74
303.095	77.31
303.309	-2.56
303.524	19.97
303.738	77.31
303.952	19.97
304.166	128.51
304.381	-88.57
304.595	110.08
304.809	44.54
305.023	73.21
305.237	91.65
305.452	11.78
305.666	151.04
305.88	126.46
306.094	114.17
306.308	52.74
306.522	126.46
306.736	-6.66
306.95	54.78
307.164	62.98
307.379	5.63
307.593	122.37
307.807	118.27
308.021	120.32
308.235	36.35
308.449	3.58
308.663	38.4
308.877	134.65
309.091	-14.85
309.305	69.12
309.519	-0.51
309.733	110.08
309.947	-37.38
310.161	130.56
310.374	52.74
310.588	103.93
310.802	19.97
311.016	77.31
311.23	89.6
311.444	19.97
311.658	60.93
311.872	77.31
312.085	67.07
312.299	52.74
312.513	89.6
312.727	130.56
312.941	46.59
313.154	52.74
313.368	-0.51
313.582	-4.61
313.796	103.93
314.009	-4.61
314.223	95.74
314.437	65.02
314.651	60.93
314.864	11.78
315.078	-12.8
315.292	36.35
315.505	19.97
315.719	44.54
315.933	11.78
316.146	19.97
316.36	13.82
316.573	52.74
316.787	11.78
317.001	-16.9
317.214	52.74
317.428	52.74
317.641	-6.66
317.855	30.21
318.068	-14.85
318.282	15.87
318.495	28.16
318.709	48.64
318.922	62.98
319.136	132.61
319.349	54.78
319.563	30.21
319.776	79.36
319.99	24.06
320.203	30.21
320.417	11.78
320.63	56.83
320.843	157.18
321.057	19.97
321.27	85.5
321.483	-8.7
321.697	112.13
321.91	89.6
322.124	15.87
322.337	13.82
322.55	36.35
322.763	105.98
322.977	81.41
323.19	48.64
323.403	46.59
323.617	-4.61
323.83	62.98
324.043	40.45
324.256	69.12
324.469	-51.71
324.683	134.65
324.896	32.26
325.109	26.11
325.322	-10.75
325.535	126.46
325.748	62.98
325.962	93.69
326.175	62.98
326.388	40.45
326.601	116.22
326.814	40.45
327.027	65.02
327.24	130.56
327.453	22.02
327.666	69.12
327.879	110.08
328.092	95.74
328.305	62.98
328.518	36.35
328.731	44.54
328.944	-23.04
329.157	36.35
329.37	11.78
329.583	105.98
329.796	171.52
330.009	19.97
330.222	52.74
330.435	38.4
330.648	89.6
330.861	-37.38
331.073	11.78
331.286	79.36
331.499	48.64
331.712	13.82
331.925	101.89
332.138	7.68
332.35	60.93
332.563	-51.71
332.776	3.58
332.989	30.21
333.202	77.31
333.414	42.5
333.627	3.58
333.84	114.17
334.053	62.98
334.265	1.54
334.478	85.5
334.691	112.13
334.903	73.21
335.116	-10.75
335.329	15.87
335.541	77.31
335.754	71.17
335.966	44.54
336.179	38.4
336.392	77.31
336.604	118.27
336.817	89.6
337.029	30.21
337.242	71.17
337.454	-0.51
337.667	38.4
337.88	110.08
338.092	138.75
338.305	75.26
338.517	-2.56
338.729	128.51
338.942	69.12
339.154	-29.18
339.367	-10.75
339.579	52.74
339.792	36.35
340.004	81.41
340.217	34.3
340.429	11.78
340.641	15.87
340.854	13.82
341.066	56.83
341.278	52.74
341.491	103.93
341.703	85.5
341.915	69.12
342.128	38.4
342.34	97.79
342.552	-29.18
342.764	62.98
342.977	65.02
343.189	42.5
343.401	54.78
343.613	46.59
343.826	60.93
344.038	7.68
344.25	28.16
344.462	-43.52
344.674	136.7
344.886	-25.09
345.099	60.93
345.311	87.55
345.523	28.16
345.735	-27.14
345.947	138.75
346.159	17.92
346.371	93.69
346.583	30.21
346.795	171.52
347.007	32.26
347.219	22.02
347.431	38.4
347.643	93.69
347.855	32.26
348.067	101.89
348.279	85.5
348.491	15.87
348.703	32.26
348.915	93.69
349.127	28.16
349.339	38.4
349.551	-45.57
349.763	28.16
349.975	101.89
350.187	56.83
350.399	87.55
350.61	-4.61
350.822	-8.7
351.034	17.92
351.246	48.64
351.458	99.84
351.669	11.78
351.881	97.79
352.093	79.36
352.305	83.45
352.517	62.98
352.728	69.12
352.94	75.26
353.152	7.68
353.363	108.03
353.575	85.5
353.787	44.54
353.999	30.21
354.21	112.13
354.422	44.54
354.633	1.54
354.845	24.06
355.057	13.82
355.268	44.54
355.48	38.4
355.692	38.4
355.903	28.16
356.115	40.45
356.326	54.78
356.538	110.08
356.749	110.08
356.961	73.21
357.172	71.17
357.384	-0.51
357.595	110.08
357.807	13.82
358.018	32.26
358.23	105.98
358.441	130.56
358.653	97.79
358.864	54.78
359.075	60.93
359.287	24.06
359.498	155.13
359.709	79.36
359.921	36.35
360.132	46.59
360.344	52.74
360.555	15.87
360.766	112.13
360.977	46.59
361.189	126.46
361.4	36.35
361.611	69.12
361.823	28.16
362.034	28.16
362.245	7.68
362.456	60.93
362.667	38.4
362.879	73.21
363.09	13.82
363.301	144.89
363.512	30.21
363.723	40.45
363.935	3.58
364.146	79.36
364.357	36.35
364.568	126.46
364.779	52.74
364.99	103.93
365.201	48.64
365.412	126.46
365.623	42.5
365.834	36.35
366.045	79.36
366.256	30.21
366.467	15.87
366.678	9.73
366.889	85.5
367.1	75.26
367.311	11.78
367.522	54.78
367.733	124.41
367.944	118.27
368.155	28.16
368.366	118.27
368.577	65.02
368.788	77.31
368.999	-10.75
369.209	11.78
369.42	185.85
369.631	130.56
369.842	93.69
370.053	3.58
370.264	79.36
370.474	81.41
370.685	73.21
370.896	93.69
371.107	128.51
371.317	38.4
371.528	69.12
371.739	85.5
371.95	52.74
372.16	69.12
372.371	30.21
372.582	126.46
372.792	126.46
373.003	60.93
373.214	36.35
373.424	87.55
373.635	116.22
373.846	56.83
374.056	7.68
374.267	99.84
374.477	118.27
374.688	54.78
374.898	48.64
375.109	105.98
375.319	67.07
375.53	62.98
375.74	48.64
375.951	-2.56
376.161	67.07
376.372	65.02
376.582	30.21
376.793	69.12
377.003	44.54
377.214	85.5
377.424	46.59
377.635	71.17
377.845	-29.18
378.055	71.17
378.266	44.54
378.476	36.35
378.686	65.02
378.897	114.17
379.107	79.36
379.317	85.5
379.528	60.93
379.738	77.31
379.948	19.97
380.158	13.82
380.369	30.21
380.579	118.27
380.789	36.35
380.999	87.55
381.21	-12.8
381.42	99.84
381.63	13.82
381.84	97.79
382.05	11.78
382.261	79.36
382.471	67.07
382.681	120.32
382.891	11.78
383.101	40.45
383.311	32.26
383.521	122.37
383.731	69.12
383.941	87.55
384.151	144.89
384.361	101.89
384.571	9.73
384.781	79.36
384.991	183.81
385.201	116.22
385.411	65.02
385.621	108.03
385.831	71.17
386.041	118.27
386.251	48.64
386.461	208.38
386.671	36.35
386.881	48.64
387.091	62.98
387.301	52.74
387.511	69.12
387.72	81.41
387.93	30.21
388.14	-4.61
388.35	89.6
388.56	153.09
388.769	159.23
388.979	44.54
389.189	93.69
389.399	19.97
389.609	120.32
389.818	144.89
390.028	105.98
390.238	85.5
390.447	91.65
390.657	56.83
390.867	71.17
391.076	44.54
391.286	87.55
391.496	32.26
391.705	65.02
391.915	62.98
392.125	52.74
392.334	69.12
392.544	77.31
392.753	110.08
392.963	50.69
393.172	69.12
393.382	44.54
393.591	112.13
393.801	79.36
394.01	151.04
394.22	81.41
394.429	101.89
394.639	11.78
394.848	71.17
395.058	79.36
395.267	144.89
395.477	130.56
395.686	87.55
395.895	151.04
396.105	120.32
396.314	120.32
396.524	85.5
396.733	77.31
396.942	134.65
397.152	38.4
397.361	124.41
397.57	89.6
397.78	97.79
397.989	192
398.198	116.22
398.407	161.28
398.617	65.02
398.826	136.7
399.035	173.57
399.244	132.61
399.453	93.69
399.663	146.94
399.872	103.93
400.081	67.07
400.29	128.51
400.499	46.59
400.708	151.04
400.917	58.88
401.127	112.13
401.336	151.04
401.545	196.09
401.754	151.04
401.963	167.42
402.172	140.8
402.381	126.46
402.59	159.23
402.799	153.09
403.008	148.99
403.217	136.7
403.426	204.28
403.635	118.27
403.844	165.37
404.053	192
404.262	161.28
404.471	245.24
404.68	130.56
404.888	192
405.097	130.56
405.306	163.33
405.515	112.13
405.724	136.7
405.933	282.11
406.142	239.1
406.35	253.44
406.559	169.47
406.768	253.44
406.977	183.81
407.185	206.33
407.394	286.2
407.603	273.92
407.812	153.09
408.02	259.58
408.229	259.58
408.438	282.11
408.646	255.48
408.855	310.78
409.064	384.51
409.272	341.5
409.481	361.98
409.69	327.16
409.898	341.5
410.107	419.32
410.315	400.89
410.524	316.92
410.733	390.65
410.941	392.7
411.15	380.41
411.358	431.61
411.567	513.53
411.775	437.75
411.984	458.23
412.192	437.75
412.401	507.38
412.609	507.38
412.818	585.21
413.026	527.86
413.234	534.01
413.443	609.78
413.651	568.82
413.86	658.93
414.068	628.21
414.276	792.05
414.485	718.33
414.693	716.28
414.901	841.2
415.11	925.17
415.318	773.62
415.526	861.68
415.734	912.88
415.943	912.88
416.151	970.23
416.359	919.03
416.567	914.93
416.776	1009.14
416.984	1150.45
417.192	1015.28
417.4	1080.82
417.608	1181.17
417.817	1146.35
418.025	1220.08
418.233	1365.48
418.441	1363.44
418.649	1379.82
418.857	1431.02
419.065	1570.28
419.273	1488.36
419.481	1586.66
419.689	1617.38
419.897	1715.69
420.105	1668.58
420.313	1791.46
420.521	1883.62
420.729	1752.55
420.937	1824.23
421.145	1983.97
421.353	2209.25
421.561	2096.61
421.769	2141.66
421.977	2381.28
422.185	2225.63
422.393	2346.46
422.601	2596.31
422.809	2596.31
423.017	2663.9
423.224	2672.09
423.432	2727.38
423.64	2694.61
423.848	3165.65
424.056	3075.54
424.263	3337.68
424.471	3239.37
424.679	3304.91
424.887	3632.58
425.094	3632.58
425.302	3440.08
425.51	3806.66
425.718	3939.78
425.925	3806.66
426.133	4124.1
426.341	4132.29
426.548	4396.48
426.756	4388.29
426.964	4591.03
427.171	4648.38
427.379	4906.42
427.586	5041.59
427.794	5113.27
428.001	5221.81
428.209	5586.35
428.417	5494.19
428.624	5803.43
428.832	5903.78
429.039	5715.37
429.247	5721.51
429.454	6366.62
429.662	6772.12
429.869	6264.22
430.076	6772.12
430.284	6720.92
430.491	6892.95
430.699	7124.37
430.906	7249.3
431.114	7263.63
431.321	7613.84
431.528	7898.5
431.736	8349.06
431.943	8623.48
432.15	8226.18
432.358	8426.88
432.565	8899.96
432.772	8893.82
432.979	9440.62
433.187	9416.05
433.394	9590.13
433.601	10220.9
433.808	10270.05
434.016	10239.33
434.223	10427.74
434.43	11060.57
434.637	10925.4
434.844	11613.52
435.052	11875.66
435.259	11750.73
435.466	11824.46
435.673	11742.54
435.88	12315.97
436.087	13108.54
436.294	13092.15
436.501	12870.97
436.708	13051.19
436.915	13544.75
437.122	13993.26
437.329	13927.72
437.537	14619.94
437.743	14621.98
437.95	14701.86
438.157	15193.37
438.364	15887.63
438.571	15811.85
438.778	15850.77
438.985	17136.89
439.192	16749.82
439.399	17233.15
439.606	16938.24
439.813	17894.64
440.02	18662.63
440.227	18435.3
440.433	18199.79
440.64	18822.37
440.847	18638.05
441.054	19252.44
441.261	20645.06
441.467	19952.85
441.674	20686.02
441.881	21451.96
442.088	21445.82
442.294	21327.03
442.501	21615.8
442.708	22103.21
442.914	23004.32
443.121	24200.33
443.328	23022.75
443.534	24870.02
443.741	24233.1
443.948	24085.65
444.154	25668.73
444.361	25343.1
444.568	25875.57
444.774	25767.03
444.981	25943.16
445.187	26881.13
445.394	27927.64
445.6	27497.56
445.807	30096.44
446.013	28775.5
446.22	29226.05
446.426	30438.45
446.633	30463.02
446.839	31722.52
447.046	30491.69
447.252	32273.43
447.459	32197.65
447.665	32107.54
447.871	33348.61
448.078	34663.41
448.284	32998.41
448.491	34413.55
448.697	35140.58
448.903	35662.82
449.11	35941.34
449.316	35761.12
449.522	35986.39
449.728	37063.63
449.935	37407.69
450.141	37612.48
450.347	38192.06
450.553	36942.8
450.76	37331.91
450.966	38413.24
451.172	37931.97
451.378	39197.61
451.584	38052.8
451.791	39437.22
451.997	38898.61
452.203	39625.64
452.409	40018.85
452.615	39304.1
452.821	38017.98
453.027	37802.94
453.233	39775.14
453.44	37872.57
453.646	38288.31
453.852	38505.4
454.058	39236.52
454.264	37807.04
454.47	38740.91
454.676	37893.05
454.882	38974.38
455.088	35533.79
455.294	36076.51
455.5	36946.89
455.705	36834.25
455.911	35945.44
456.117	35179.5
456.323	34477.04
456.529	32764.94
456.735	34165.75
456.941	33244.16
457.147	33061.9
457.352	31607.84
457.558	31032.36
457.764	31177.76
457.97	30475.31
458.176	29955.13
458.381	30399.54
458.587	28470.35
458.793	28609.61
458.999	27346.01
459.204	28886.09
459.41	28339.28
459.616	26205.3
459.821	26193.01
460.027	26205.3
460.233	25773.17
460.438	24411.28
460.644	24546.44
460.85	23526.55
461.055	23043.23
461.261	23106.72
461.466	21306.55
461.672	20679.88
461.878	22287.53
462.083	20630.73
462.289	19915.98
462.494	20022.48
462.7	19176.67
462.905	18539.75
463.111	18906.34
463.316	19500.25
463.522	18937.06
463.727	19088.6
463.932	18816.22
464.138	18275.56
464.343	18724.07
464.549	17865.97
464.754	18650.34
464.959	18474.21
465.165	18250.99
465.37	17560.82
465.575	17304.82
465.781	17595.64
465.986	17825.01
466.191	17411.32
466.397	16706.82
466.602	15963.4
466.807	16536.84
467.012	16618.75
467.218	16428.29
467.423	16336.13
467.628	16274.7
467.833	17093.88
468.038	16424.2
468.244	15959.31
468.449	16413.96
468.654	16127.24
468.859	15852.81
469.064	15676.69
469.269	15213.85
469.474	15219.99
469.679	15469.84
469.885	15066.39
470.09	15074.59
470.295	15015.19
470.5	14605.6
470.705	15082.78
470.91	14286.12
471.115	14581.03
471.32	14529.83
471.525	14365.99
471.73	14179.62
471.935	13987.11
472.139	13634.86
472.344	13624.62
472.549	13610.29
472.754	13544.75
472.959	13114.68
473.164	12852.54
473.369	12672.32
473.574	13290.81
473.778	13219.13
473.983	12840.25
474.188	12959.03
474.393	12522.82
474.598	12428.61
474.802	12119.37
475.007	12213.57
475.212	12215.62
475.417	11791.69
475.621	11687.25
475.826	11892.04
476.031	11707.73
476.235	11111.77
476.44	11640.14
476.645	11275.6
476.849	11337.04
477.054	11007.32
477.259	10882.39
477.463	11058.52
477.668	10675.55
477.872	10947.93
478.077	10640.73
478.282	10362.21
478.486	10169.7
478.691	10300.77
478.895	10263.91
479.1	10208.61
479.304	10235.24
479.509	10014.06
479.713	10102.12
479.918	9610.61
480.122	9880.94
480.326	9776.49
480.531	9737.58
480.735	9710.96
480.94	9571.69
481.144	9899.37
481.348	9467.25
481.553	9450.86
481.757	9395.57
481.961	9510.25
482.166	9491.82
482.37	9457.01
482.574	9215.35
482.778	9262.45
482.983	9428.34
483.187	9530.73
483.391	9424.24
483.595	9248.11
483.8	9401.71
484.004	9631.09
484.208	9426.29
484.412	9500.02
484.616	9342.32
484.821	9393.52
485.025	9127.28
485.229	9254.26
485.433	9256.31
485.637	9291.12
485.841	9160.05
486.045	9350.51
486.249	9360.75
486.453	9168.24
486.657	9319.79
486.861	9411.95
487.065	9272.69
487.269	9147.76
487.473	9115
487.677	9407.86
487.881	9278.83
488.085	9264.5
488.289	9287.03
488.493	9164.15
488.697	9418.1
488.901	9082.23
489.105	9160.05
489.309	9227.64
489.512	9436.53
489.716	9368.95
489.92	9436.53
490.124	9205.11
490.328	9366.9
490.531	9272.69
490.735	9368.95
490.939	9280.88
491.143	9313.65
491.346	9143.67
491.55	9446.77
491.754	9557.36
491.958	9377.14
492.161	9616.75
492.365	9651.56
492.569	9534.83
492.772	9424.24
492.976	9526.64
493.18	9698.67
493.383	9823.59
493.587	9688.43
493.79	9893.23
493.994	9670
494.197	9823.59
494.401	9948.52
494.605	9878.89
494.808	9923.94
495.012	10083.69
495.215	9962.86
495.419	10399.07
495.622	10296.67
495.825	10184.04
496.029	10341.73
496.232	10532.19
496.436	10562.91
496.639	10665.31
496.843	10612.06
497.046	10851.67
497.249	11076.95
497.453	10958.17
497.656	11023.7
497.859	11025.75
498.063	11093.33
498.266	11345.23
498.469	11236.69
498.673	11449.68
498.876	11685.2
499.079	11685.2
499.282	11754.83
499.485	11945.29
499.689	12066.12
499.892	12266.82
500.095	12270.92
500.298	12537.15
500.501	12221.77
500.705	12651.84
500.908	12610.88
501.111	12932.41
501.314	12944.7
501.517	13245.75
501.72	13094.2
501.923	13374.77
502.126	13438.26
502.329	13600.05
502.532	13851.95
502.735	13876.52
502.938	14200.1
503.141	14032.17
503.344	14503.2
503.547	14314.79
503.75	14495.01
503.953	14499.11
504.156	14802.21
504.359	15011.1
504.562	15256.86
504.765	15136.03
504.968	15457.56
505.17	15682.83
505.373	15510.8
505.576	16053.52
505.779	15861.01
505.982	15973.64
506.185	16381.19
506.387	16575.75
506.59	16573.7
506.793	16819.46
506.996	16868.61
507.198	17278.2
507.401	17102.08
507.604	17435.89
507.807	17497.33
508.009	17802.48
508.212	17966.32
508.415	18328.81
508.617	18265.32
508.82	18402.54
509.022	18119.92
509.225	18957.53
509.428	18906.34
509.63	19270.87
509.833	19102.94
510.035	19731.67
510.238	19449.05
510.44	19907.79
510.643	20047.05
510.845	19973.33
511.048	19981.52
511.25	20384.97
511.453	20679.88
511.655	21572.79
511.858	20989.12
512.06	21296.32
512.262	21540.02
512.465	21525.69
512.667	21843.12
512.87	22039.73
513.072	22148.27
513.274	22736.04
513.477	22459.56
513.679	22985.89
513.881	22922.4
514.084	23295.13
514.286	23528.6
514.488	23624.86
514.69	24085.65
514.893	24337.55
515.095	24226.96
515.297	24388.75
515.499	24609.93
515.701	24933.51
515.904	25042.05
516.106	25283.71
516.308	25549.95
516.51	26115.19
516.712	25558.14
516.914	25967.73
517.116	26584.17
517.318	26373.23
517.52	26774.63
517.722	26426.48
517.925	27110.5
518.127	27706.46
518.329	27855.96
518.531	27161.7
518.733	27925.59
518.935	28034.13
519.136	28294.22
519.338	28642.38
519.54	28286.03
519.742	28873.8
519.944	28957.77
520.146	29559.87
520.348	29416.51
520.55	29600.83
520.752	29365.31
520.954	30213.17
521.155	29922.36
521.357	30178.36
521.559	30383.15
521.761	30956.58
521.963	30530.61
522.164	30551.09
522.366	30708.78
522.568	31026.21
522.77	31130.66
522.971	31298.59
523.173	31175.72
523.375	31237.16
523.576	31147.04
523.778	31622.17
523.98	32076.82
524.181	31618.08
524.383	32226.32
524.584	32302.1
524.786	32162.84
524.988	31912.99
525.189	32396.31
525.391	32580.62
525.592	32494.61
525.794	32644.11
525.995	32717.84
526.197	32709.64
526.398	33043.46
526.6	32904.2
526.801	32783.37
527.003	32994.31
527.204	32992.26
527.406	33295.36
527.607	32988.17
527.808	33014.79
528.01	32613.39
528.211	32902.15
528.412	33440.77
528.614	33397.76
528.815	33274.88
529.016	33553.41
529.218	33039.37
529.419	33225.73
529.62	33057.8
529.822	33213.45
530.023	33059.85
530.224	33137.67
530.425	33162.25
530.626	32842.76
530.828	32883.72
531.029	33477.63
531.23	32662.54
531.431	32990.22
531.632	32971.78
531.833	33000.46
532.035	32652.3
532.236	33068.04
532.437	33123.33
532.638	32672.78
532.839	33018.89
533.04	32996.36
533.241	32447.5
533.442	33016.84
533.643	32500.75
533.844	32576.53
534.045	32750.6
534.246	31990.81
534.447	32490.51
534.648	32373.78
534.849	32537.62
535.05	32060.44
535.251	32103.45
535.451	32234.52
535.652	32316.43
535.853	32402.45
536.054	32144.41
536.255	32599.05
536.456	31980.57
536.657	32644.11
536.857	32050.2
537.058	31896.6
537.259	31999
537.46	32341.01
537.66	32173.08
537.861	31949.85
538.062	31521.82
538.263	32058.39
538.463	31835.16
538.664	31890.46
538.865	31898.65
539.065	32091.16
539.266	31568.93
539.466	31730.72
539.667	31425.57
539.868	32109.59
540.068	31575.07
540.269	31433.76
540.469	31343.65
540.67	31671.32
540.87	31743
541.071	31781.92
541.271	31474.72
541.472	31337.51
541.672	31257.64
541.873	31177.76
542.073	31013.93
542.274	31200.29
542.474	31198.24
542.675	31185.96
542.875	31470.62
543.075	30929.96
543.276	30733.36
543.476	31472.67
543.676	31151.14
543.877	31321.12
544.077	31099.94
544.277	31249.44
544.478	31126.57
544.678	31296.55
544.878	30989.35
545.078	31044.65
545.279	30643.24
545.479	30825.51
545.679	31179.81
545.879	31081.51
546.079	30739.5
546.28	31099.94
546.48	30985.26
546.68	30985.26
546.88	31001.64
547.08	31007.78
547.28	30688.3
547.48	30741.55
547.68	31185.96
547.88	30622.76
548.081	30983.21
548.281	30917.67
548.481	31153.19
548.681	31284.26
548.881	30940.2
549.081	30852.14
549.28	30659.63
549.48	31243.3
549.68	30999.59
549.88	31693.85
550.08	30860.33
550.28	30954.54
550.48	30997.54
550.68	31300.64
550.88	31001.64
551.08	31048.74
551.279	31079.46
551.479	31054.89
551.679	30737.45
551.879	30948.39
552.079	31269.92
552.278	30876.71
552.478	31198.24
552.678	31151.14
552.878	31370.27
553.077	30993.45
553.277	31169.57
553.477	31654.94
553.676	31085.61
553.876	31382.56
554.076	31249.44
554.275	31089.7
554.475	30737.45
554.674	31294.5
554.874	31351.84
555.074	31339.55
555.273	31290.4
555.473	31642.65
555.672	31106.09
555.872	31298.59
556.071	31540.25
556.271	31638.56
556.47	31618.08
556.67	31249.44
556.869	31274.02
557.068	31345.7
557.268	31482.91
557.467	31478.82
557.667	31480.86
557.866	31024.17
558.065	31276.07
558.265	31400.99
558.464	31157.28
558.663	31525.92
558.863	31224.87
559.062	31751.2
559.261	31001.64
559.461	32097.3
559.66	31046.69
559.859	31497.25
560.058	31345.7
560.258	31722.52
560.457	31157.28
560.656	31532.06
560.855	31431.71
561.054	31269.92
561.253	31579.17
561.453	31573.02
561.652	31609.89
561.851	31339.55
562.05	31269.92
562.249	31444
562.448	31370.27
562.647	31196.2
562.846	31413.28
563.045	31362.08
563.244	31370.27
563.443	31525.92
563.642	31132.71
563.841	31335.46
564.04	31564.83
564.239	31568.93
564.438	30936.1
564.637	31038.5
564.836	31259.68
565.035	31003.69
565.234	31169.57
565.432	31282.21
565.631	30968.87
565.83	31335.46
566.029	31097.89
566.228	30764.07
566.427	30882.86
566.625	30964.78
566.824	30592.05
567.023	31116.33
567.222	30409.78
567.42	30880.81
567.619	30374.96
567.818	30741.55
568.016	30411.82
568.215	30819.37
568.414	30716.97
568.612	30553.13
568.811	30233.65
569.01	30893.1
569.208	30061.62
569.407	30174.26
569.605	29791.29
569.804	29840.44
570.002	29715.51
570.201	29740.09
570.4	29613.12
570.598	29709.37
570.797	29348.93
570.995	29776.95
571.193	29363.26
571.392	29885.5
571.59	29590.59
571.789	29586.49
571.987	29312.06
572.186	29287.49
572.384	29129.8
572.582	29566.01
572.781	29170.75
572.979	28818.5
573.177	29172.8
573.376	28996.68
573.574	28636.24
573.772	28896.33
573.971	28652.62
574.169	28286.03
574.367	28208.21
574.565	28578.89
574.763	28456.01
574.962	28161.11
575.16	28044.37
575.358	28218.45
575.556	28099.67
575.754	28382.29
575.952	27599.96
576.151	28005.46
576.349	27563.1
576.547	27530.33
576.745	27530.33
576.943	27780.18
577.141	27409.5
577.339	27323.49
577.537	27278.43
577.735	27221.09
577.933	27307.1
578.131	27128.93
578.329	26958.95
578.527	26879.08
578.725	27161.7
578.923	26672.23
579.121	26725.48
579.319	26768.49
579.516	26801.26
579.714	26651.75
579.912	26092.66
580.11	26633.32
580.308	26209.39
580.506	26295.41
580.704	25642.1
580.901	26063.99
581.099	26344.56
581.297	25853.05
581.495	25709.69
581.692	26150
581.89	25814.13
582.088	25760.89
582.285	25439.36
582.483	25635.96
582.681	25175.17
582.878	25601.15
583.076	25203.84
583.274	25670.78
583.471	25078.91
583.669	25408.64
583.866	25216.13
584.064	25447.55
584.262	24945.8
584.459	24943.75
584.657	25119.87
584.854	25306.24
585.052	24618.12
585.249	25019.52
585.447	25222.27
585.644	24646.79
585.841	24720.52
586.039	24720.52
586.236	24423.56
586.434	24718.47
586.631	24099.98
586.828	24278.16
587.026	24054.93
587.223	24278.16
587.42	24147.09
587.618	24106.13
587.815	23745.69
588.012	23930
588.21	23960.72
588.407	24272.01
588.604	23788.69
588.801	23794.84
588.999	23766.17
589.196	23721.11
589.393	23784.6
589.59	23334.04
589.787	23846.04
589.984	23377.05
590.182	23481.5
590.379	23448.73
590.576	23319.71
590.773	23366.81
590.97	23196.83
591.167	23522.46
591.364	23131.3
591.561	23256.22
591.758	22848.68
591.955	23082.14
592.152	23219.36
592.349	23315.61
592.546	23217.31
592.743	23055.52
592.94	22459.56
593.137	23104.67
593.334	23002.27
593.531	22574.25
593.727	22602.92
593.924	22594.73
594.121	22795.43
594.318	22777
594.515	22557.86
594.712	22860.96
594.908	22946.98
595.105	22770.85
595.302	22553.77
595.499	22576.3
595.696	22719.65
595.892	22412.46
596.089	22852.77
596.286	22965.41
596.482	22164.65
596.679	22623.4
596.876	22480.04
597.072	22805.67
597.269	22506.66
597.466	22504.62
597.662	22561.96
597.859	22627.49
598.055	22703.27
598.252	22260.91
598.448	22768.8
598.645	22619.3
598.841	22211.76
599.038	22502.57
599.234	22697.13
599.431	22076.59
599.627	22234.28
599.824	22498.47
600.02	22103.21
600.217	22324.4
600.413	22385.83
600.609	22275.24
600.806	22320.3
601.002	22523.05
601.198	22275.24
601.395	22367.4
601.591	22557.86
601.787	22625.45
601.984	22498.47
602.18	22926.5
602.376	22490.28
602.572	22348.97
602.769	22684.84
602.965	22564.01
603.161	22781.09
603.357	22650.02
603.553	22914.21
603.75	22795.43
603.946	22744.23
604.142	22662.31
604.338	22654.12
604.534	23102.62
604.73	22801.57
604.926	22512.81
605.122	23092.38
605.318	22908.07
605.514	23028.9
605.71	22822.05
605.906	23121.06
606.102	22996.13
606.298	23121.06
606.494	23411.87
606.69	23270.56
606.886	23205.02
607.082	22981.79
607.278	23653.53
607.474	23182.49
607.67	23559.32
607.866	23274.65
608.062	23444.63
608.257	23631
608.453	23428.25
608.649	23620.76
608.845	23563.42
609.041	23577.75
609.236	23809.17
609.432	23954.58
609.628	23526.55
609.824	23782.55
610.019	23536.79
610.215	23690.39
610.411	23954.58
610.606	23690.39
610.802	23788.69
610.998	24052.88
611.193	24114.32
611.389	23938.19
611.584	23987.35
611.78	23911.57
611.976	24196.24
612.171	24106.13
612.367	24378.51
612.562	24022.16
612.758	24138.9
612.953	24226.96
613.149	24591.5
613.344	24136.85
613.539	24663.18
613.735	24456.33
613.93	24593.54
614.126	24487.05
614.321	24671.37
614.517	24675.46
614.712	24247.44
614.907	24110.22
615.103	24534.15
615.298	24652.94
615.493	24550.54
615.688	24452.23
615.884	24587.4
616.079	24437.9
616.274	24667.27
616.47	24532.11
616.665	24368.27
616.86	24624.26
617.055	24732.81
617.25	24294.54
617.445	24630.41
617.641	24261.77
617.836	24528.01
618.031	24347.79
618.226	24857.73
618.421	24384.65
618.616	24468.62
618.811	24431.76
619.006	24601.74
619.201	23942.29
619.396	24173.71
619.591	23958.67
619.786	24276.11
619.981	24173.71
620.176	24095.89
620.371	23661.72
620.566	23911.57
620.761	23893.14
620.956	23749.78
621.151	23682.2
621.346	23624.86
621.541	23360.67
621.735	23395.48
621.93	23512.22
622.125	23530.65
622.32	22981.79
622.515	23010.46
622.709	22891.68
622.904	22946.98
623.099	22736.04
623.294	22928.55
623.488	22578.34
623.683	22731.94
623.878	22277.29
624.072	22367.4
624.267	22277.29
624.462	22297.77
624.656	22207.66
624.851	22033.58
625.046	22205.61
625.24	22043.82
625.435	21601.46
625.629	21705.91
625.824	21515.45
626.018	21501.11
626.213	21021.89
626.407	21351.61
626.602	21062.85
626.796	21284.03
626.991	21032.13
627.185	21079.23
627.38	20847.81
627.574	20778.18
627.768	20573.38
627.963	20393.16
628.157	20597.96
628.352	20417.74
628.546	20182.22
628.74	20311.24
628.935	19842.26
629.129	20004.05
629.323	19432.66
629.517	19866.83
629.712	19791.06
629.906	19711.19
630.1	19502.29
630.294	19719.38
630.489	19262.68
630.683	19455.19
630.877	19141.85
631.071	18978.01
631.265	19184.86
631.459	18984.16
631.653	18971.87
631.848	18902.24
632.042	18470.12
632.236	18560.23
632.43	18324.71
632.624	18523.37
632.818	18236.65
633.012	18304.23
633.206	17997.04
633.4	18117.87
633.594	17761.52
633.788	17659.12
633.982	17937.65
634.176	17685.75
634.369	17601.78
634.563	17587.44
634.757	17411.32
634.951	17390.84
635.145	17609.97
635.339	17431.8
635.533	16977.15
635.726	16968.96
635.92	16809.22
636.114	16768.26
636.308	16643.33
636.501	16608.51
636.695	16604.42
636.889	16373
637.083	16332.04
637.276	16313.61
637.47	16188.68
637.664	16092.43
637.857	16117
638.051	16061.71
638.244	15768.85
638.438	15826.19
638.632	15578.39
638.825	15478.04
639.019	15404.31
639.212	15459.6
639.406	15320.34
639.599	15226.14
639.793	14931.23
639.986	15088.92
640.18	15011.1
640.373	15023.39
640.567	14775.58
640.76	14589.22
640.954	14572.83
641.147	14372.13
641.34	14327.08
641.534	14564.64
641.727	14454.05
641.92	14126.38
642.114	14232.87
642.307	13987.11
642.5	13892.91
642.694	13679.92
642.887	13675.82
643.08	13905.2
643.273	13636.91
643.467	13618.48
643.66	13268.28
643.853	13405.49
644.046	13274.42
644.239	13038.91
644.432	13131.06
644.626	12922.17
644.819	12954.94
645.012	12928.31
645.205	12713.28
645.398	12676.41
645.591	12680.51
645.784	12707.13
645.977	12401.99
646.17	12348.74
646.363	12326.21
646.556	12199.24
646.749	12373.32
646.942	12299.59
647.135	11892.04
647.328	12037.45
647.521	11883.85
647.714	11666.77
647.907	11799.88
648.099	11601.23
648.292	11820.36
648.485	11742.54
648.678	11431.25
648.871	11521.36
649.064	11187.54
649.256	11296.08
649.449	11201.88
649.642	11021.66
649.835	11226.45
650.027	11177.3
650.22	10726.75
650.413	10841.43
650.605	10884.44
650.798	10796.38
650.991	10644.83
651.183	10630.49
651.376	10495.33
651.568	10534.24
651.761	10437.98
651.954	10286.44
652.146	10245.48
652.339	10388.83
652.531	10268
652.724	10157.41
652.916	9813.35
653.109	10012.01
653.301	10048.87
653.494	10079.59
653.686	9899.37
653.879	10005.86
654.071	9839.98
654.263	9606.51
654.456	9698.67
654.648	9680.24
654.84	9530.73
655.033	9540.97
655.225	9522.54
655.417	9473.39
655.61	9483.63
655.802	9461.1
655.994	9403.76
656.186	9244.02
656.379	9293.17
656.571	9178.48
656.763	9112.95
656.955	9090.42
657.148	9076.09
657.34	9014.65
657.532	8895.86
657.724	8883.58
657.916	8779.13
658.108	8709.5
658.3	8668.54
658.492	8746.36
658.684	8650.11
658.876	8643.96
659.068	8723.83
659.26	8564.09
659.452	8508.8
659.644	8666.49
659.836	8277.38
660.028	8449.41
660.22	8181.12
660.412	8254.85
660.604	8209.79
660.796	8162.69
660.988	8105.35
661.18	7906.7
661.372	8064.39
661.563	8031.62
661.755	7820.68
661.947	8007.05
662.139	7900.55
662.331	7777.67
662.522	7601.55
662.714	7634.32
662.906	7665.04
663.097	7683.47
663.289	7290.26
663.481	7558.54
663.673	7413.13
663.864	7284.11
664.056	7507.34
664.247	7167.38
664.439	7286.16
664.631	7196.05
664.822	7114.13
665.014	7077.27
665.205	7130.52
665.397	7089.56
665.588	6999.45
665.78	6919.57
665.971	6952.34
666.163	6819.22
666.354	6960.53
666.546	6753.69
666.737	6802.84
666.929	6821.27
667.12	6722.97
667.311	6647.19
667.503	6651.29
667.694	6655.39
667.885	6606.24
668.077	6665.63
668.268	6376.86
668.459	6473.12
668.651	6436.25
668.842	6350.24
669.033	6270.37
669.224	6380.96
669.416	6415.77
669.607	6348.19
669.798	6358.43
669.989	6360.48
670.18	6294.94
670.371	5983.65
670.563	6170.02
670.754	6278.56
670.945	6155.68
671.136	6145.44
671.327	6186.4
671.518	6135.2
671.709	5985.7
671.9	6069.67
672.091	6059.43
672.282	5934.5
672.473	6016.42
672.664	5938.6
672.855	6010.28
673.046	5971.36
673.237	5879.21
673.428	5911.97
673.619	5662.12
673.809	5688.75
674	5705.13
674.191	5797.29
674.382	5662.12
674.573	5840.29
674.764	5733.8
674.954	5664.17
675.145	5483.95
675.336	5594.54
675.527	5522.86
675.717	5553.58
675.908	5557.68
676.099	5559.72
676.289	5295.54
676.48	5549.48
676.671	5492.14
676.861	5584.3
677.052	5479.85
677.243	5473.71
677.433	5348.78
677.624	5467.56
677.814	5502.38
678.005	5494.19
678.195	5430.7
678.386	5332.4
678.576	5324.21
678.767	5375.41
678.957	5318.06
679.148	5377.45
679.338	5299.63
679.529	5180.85
679.719	5262.77
679.909	5295.54
680.1	5256.62
680.29	5256.62
680.481	5219.76
680.671	5186.99
680.861	5234.1
681.052	5350.83
681.242	5361.07
681.432	5238.19
681.622	5178.8
681.813	5318.06
682.003	5332.4
682.193	5174.71
682.383	5248.43
682.573	5244.34
682.764	5246.38
682.954	5266.86
683.144	5313.97
683.334	5270.96
683.524	5215.66
683.714	5160.37
683.904	5088.69
684.094	5262.77
684.284	5105.07
684.474	5283.25
684.664	5123.51
684.854	5025.2
685.044	5209.52
685.234	5107.12
685.424	5092.79
685.614	5107.12
685.804	5248.43
685.994	5184.94
686.184	4980.15
686.374	5219.76
686.564	4922.8
686.753	5248.43
686.943	4959.67
687.133	4990.39
687.323	5156.27
687.513	4836.79
687.702	5025.2
687.892	4904.37
688.082	5004.72
688.272	4896.18
688.461	4902.33
688.651	5008.82
688.841	4853.17
689.03	4906.42
689.22	5094.83
689.41	5004.72
689.599	5029.3
689.789	4861.37
689.979	4810.17
690.168	4947.38
690.358	4767.16
690.547	4787.64
690.737	4849.08
690.926	4820.41
691.116	4666.81
691.305	4750.78
691.495	4775.35
691.684	4502.97
691.874	4799.93
692.063	4588.99
692.252	4701.62
692.442	4709.82
692.631	4623.8
692.82	4629.95
693.01	4644.28
693.199	4658.62
693.388	4619.71
693.578	4693.43
693.767	4804.02
693.956	4492.73
694.146	4470.2
694.335	4509.12
694.524	4511.16
694.713	4642.23
694.902	4500.92
695.092	4560.31
695.281	4382.14
695.47	4502.97
695.659	4511.16
695.848	4593.08
696.037	4494.78
696.226	4500.92
696.415	4398.52
696.604	4533.69
696.793	4466.11
696.982	4443.58
697.171	4462.01
697.36	4378.05
697.549	4324.8
697.738	4318.65
697.927	4341.18
698.116	4398.52
698.305	4371.9
698.494	4296.13
698.683	4165.06
698.872	4339.13
699.061	4361.66
699.25	4273.6
699.438	4167.1
699.627	4203.97
699.816	4232.64
700.005	4099.52
700.193	4091.33
700.382	4271.55
700.571	4214.21
700.76	4222.4
700.948	4175.3
701.137	4152.77
701.326	4079.04
701.514	4156.86
701.703	4169.15
701.892	4046.27
702.08	4177.34
702.269	4013.51
702.457	3931.59
702.646	4255.17
702.834	3943.88
703.023	3997.12
703.212	4038.08
703.4	3972.55
703.589	4019.65
703.777	3976.64
703.965	3966.4
704.154	3943.88
704.342	3945.92
704.531	3855.81
704.719	3866.05
704.907	3972.55
705.096	3964.36
705.284	3980.74
705.472	3855.81
705.661	3745.22
705.849	4009.41
706.037	3821
706.226	3896.77
706.414	3825.09
706.602	3751.37
706.79	3673.54
706.979	3706.31
707.167	3771.85
707.355	3669.45
707.543	3698.12
707.731	3634.63
707.919	3640.78
708.107	3732.94
708.296	3827.14
708.484	3689.93
708.672	3628.49
708.86	3634.63
709.048	3755.46
709.236	3608.01
709.424	3665.35
709.612	3679.69
709.8	3675.59
709.988	3579.34
710.176	3530.19
710.364	3673.54
710.551	3464.65
710.739	3501.51
710.927	3507.66
711.115	3452.36
711.303	3515.85
711.491	3575.24
711.679	3446.22
711.866	3423.69
712.054	3526.09
712.242	3403.21
712.43	3536.33
712.617	3235.28
712.805	3354.06
712.993	3321.29
713.181	3374.54
713.368	3493.32
713.556	3288.53
713.744	3202.51
713.931	3423.69
714.119	3349.96
714.306	3284.43
714.494	3255.76
714.682	3354.06
714.869	3153.36
715.057	3222.99
715.244	3190.22
715.432	3274.19
715.619	3208.66
715.807	3110.35
715.994	3372.49
716.182	3231.18
716.369	3266
716.556	3214.8
716.744	3120.59
716.931	3182.03
717.119	3161.55
717.306	3061.2
717.493	3198.42
717.681	3044.82
717.868	3128.78
718.055	3085.78
718.242	3055.06
718.43	3149.26
718.617	3077.59
718.804	3136.98
718.991	3053.01
719.179	3096.02
719.366	2954.71
719.553	2926.04
719.74	3028.43
719.927	3120.59
720.114	2893.27
720.301	2934.23
720.488	2862.55
720.676	2880.98
720.863	2979.28
721.05	2932.18
721.237	2913.75
721.424	2856.4
721.611	2788.82
721.798	2745.81
721.985	2747.86
722.172	2792.92
722.358	2788.82
722.545	2837.97
722.732	2756.05
722.919	2723.29
723.106	2825.68
723.293	2690.52
723.48	2813.4
723.667	2708.95
723.853	2743.77
724.04	2780.63
724.227	2641.37
724.414	2672.09
724.6	2778.58
724.787	2592.22
724.974	2684.38
725.161	2541.02
725.347	2534.87
725.534	2530.78
725.72	2733.53
725.907	2596.31
726.094	2690.52
726.28	2661.85
726.467	2588.12
726.653	2612.7
726.84	2690.52
727.027	2581.98
727.213	2504.15
727.4	2534.87
727.586	2551.26
727.773	2508.25
727.959	2522.59
728.145	2592.22
728.332	2586.07
728.518	2446.81
728.705	2424.28
728.891	2543.07
729.077	2510.3
729.264	2360.8
729.45	2471.39
729.636	2508.25
729.823	2420.19
730.009	2356.7
730.195	2452.95
730.382	2373.08
730.568	2383.32
730.754	2379.23
730.94	2297.31
731.126	2530.78
731.313	2420.19
731.499	2338.27
731.685	2422.24
731.871	2297.31
732.057	2391.52
732.243	2356.7
732.429	2354.65
732.615	2342.36
732.801	2321.88
732.987	2301.4
733.173	2373.08
733.359	2323.93
733.545	2321.88
733.731	2258.4
733.917	2268.64
734.103	2287.07
734.289	2371.04
734.475	2194.91
734.661	2452.95
734.847	2276.83
735.033	2285.02
735.219	2190.81
735.404	2215.39
735.59	2174.43
735.776	2338.27
735.962	2293.21
736.148	2246.11
736.333	2250.21
736.519	2239.97
736.705	2119.14
736.89	2160.1
737.076	2221.53
737.262	2160.1
737.447	2145.76
737.633	2035.17
737.819	2100.7
738.004	2184.67
738.19	2158.05
738.375	1967.59
738.561	2059.74
738.747	1961.44
738.932	2117.09
739.118	2123.23
739.303	2110.94
739.489	2047.46
739.674	2059.74
739.859	2043.36
740.045	2072.03
740.23	2076.13
740.416	1932.77
740.601	1969.63
740.786	2010.59
740.972	1893.86
741.157	1994.21
741.342	1838.56
741.528	1883.62
741.713	2092.51
741.898	1945.06
742.084	1953.25
742.269	1994.21
742.454	1883.62
742.639	1895.91
742.824	1883.62
743.01	1975.78
743.195	1887.72
743.38	1838.56
743.565	1961.44
743.75	1969.63
743.935	1723.88
744.12	1871.33
744.305	1789.41
744.49	1740.26
744.675	1789.41
744.86	1732.07
745.045	1822.18
745.23	1760.74
745.415	1756.65
745.6	1760.74
745.785	1682.92
745.97	1834.47
746.155	1785.32
746.34	1691.11
746.525	1695.21
746.71	1725.93
746.895	1592.81
747.079	1633.77
747.264	1551.85
747.449	1793.51
747.634	1652.2
747.819	1584.62
748.003	1754.6
748.188	1637.86
748.373	1560.04
748.557	1570.28
748.742	1578.47
748.927	1601
749.111	1510.89
749.296	1492.46
749.481	1545.7
749.665	1625.58
749.85	1422.83
750.034	1527.27
750.219	1461.74
750.404	1445.35
750.588	1478.12
750.773	1465.83
750.957	1379.82
751.141	1455.59
751.326	1377.77
751.51	1476.07
751.695	1404.39
751.879	1398.25
752.064	1431.02
752.248	1385.96
752.432	1408.49
752.617	1363.44
752.801	1455.59
752.985	1414.63
753.17	1435.11
753.354	1340.91
753.538	1371.63
753.722	1211.89
753.907	1289.71
754.091	1312.24
754.275	1308.14
754.459	1338.86
754.643	1263.08
754.828	1215.98
755.012	1232.37
755.196	1195.5
755.38	1314.28
755.564	1117.68
755.748	1218.03
755.932	1144.3
756.116	1230.32
756.3	1170.93
756.484	1152.49
756.668	1166.83
756.852	1134.06
757.036	1109.49
757.22	1089.01
757.404	1232.37
757.588	1066.48
757.772	1048.05
757.956	1103.34
758.14	1138.16
758.323	1103.34
758.507	1101.3
758.691	998.9
758.875	1076.72
759.059	1091.06
759.242	1076.72
759.426	1103.34
759.61	1009.14
759.794	1009.14
759.977	1027.57
760.161	1121.77
760.345	1072.62
760.528	1027.57
760.712	1070.58
760.895	1025.52
761.079	1074.67
761.263	1029.62
761.446	945.65
761.63	943.6
761.813	1052.14
761.997	953.84
762.18	947.7
762.364	986.61
762.547	923.12
762.731	929.27
762.914	937.46
763.098	912.88
763.281	978.42
763.464	951.79
763.648	1013.23
763.831	876.02
764.015	847.35
764.198	957.94
764.381	857.59
764.564	947.7
764.748	908.79
764.931	896.5
765.114	822.77
765.297	937.46
765.481	927.22
765.664	900.59
765.847	816.63
766.03	900.59
766.213	962.03
766.397	898.55
766.58	833.01
766.763	904.69
766.946	861.68
767.129	847.35
767.312	828.92
767.495	826.87
767.678	816.63
767.861	865.78
768.044	867.83
768.227	816.63
768.41	843.25
768.593	835.06
768.776	810.48
768.959	765.43
769.142	882.16
769.324	787.96
769.507	886.26
769.69	810.48
769.873	847.35
770.056	929.27
770.239	839.16
770.421	800.24
770.604	790
770.787	847.35
770.97	816.63
771.152	765.43
771.335	804.34
771.518	835.06
771.7	667.13
771.883	794.1
772.066	765.43
772.248	773.62
772.431	810.48
772.613	765.43
772.796	724.47
772.978	718.33
773.161	751.09
773.343	724.47
773.526	736.76
773.708	644.6
773.891	757.24
774.073	708.09
774.256	693.75
774.438	773.62
774.621	640.5
774.803	708.09
774.985	708.09
775.168	710.13
775.35	642.55
775.532	751.09
775.715	677.37
775.897	710.13
776.079	695.8
776.261	712.18
776.444	634.36
776.626	732.66
776.808	626.17
776.99	660.98
777.173	572.92
777.355	568.82
777.537	613.88
777.719	644.6
777.901	675.32
778.083	675.32
778.265	560.63
778.447	529.91
778.629	466.42
778.811	663.03
778.993	568.82
779.175	572.92
779.357	593.4
779.539	521.72
779.721	548.34
779.903	595.45
780.085	491
780.267	544.25
780.449	593.4
780.631	601.59
780.812	634.36
780.994	515.58
781.176	589.3
781.358	456.19
781.54	607.73
781.721	548.34
781.903	556.54
782.085	589.3
782.267	550.39
782.448	415.23
782.63	523.77
782.812	439.8
782.993	579.06
783.175	597.49
783.357	478.71
783.538	462.33
783.72	374.27
783.901	437.75
784.083	538.1
784.264	505.34
784.446	423.42
784.627	441.85
784.809	450.04
784.99	380.41
785.172	462.33
785.353	437.75
785.535	357.88
785.716	429.56
785.897	425.47
786.079	529.91
786.26	337.4
786.441	374.27
786.623	388.6
786.804	445.95
786.985	445.95
787.167	407.03
787.348	400.89
787.529	366.07
787.71	398.84
787.891	409.08
788.073	355.83
788.254	388.6
788.435	466.42
788.616	318.97
788.797	359.93
788.978	300.54
789.159	374.27
789.34	331.26
789.522	325.12
789.703	331.26
789.884	302.59
790.065	314.88
790.246	439.8
790.427	314.88
790.607	355.83
790.788	372.22
790.969	306.68
791.15	267.77
791.331	290.3
791.512	331.26
791.693	294.4
791.874	261.63
792.054	388.6
792.235	290.3
792.416	327.16
792.597	249.34
792.778	261.63
792.958	355.83
793.139	282.11
793.32	347.64
793.5	269.82
793.681	331.26
793.862	355.83
794.042	210.43
794.223	298.49
794.404	267.77
794.584	306.68
794.765	335.35
794.945	259.58
795.126	318.97
795.306	251.39
795.487	210.43
795.667	284.16
795.848	271.87
796.028	308.73
796.209	232.96
796.389	245.24
796.57	292.35
796.75	235
796.93	257.53
797.111	224.76
797.291	282.11
797.471	376.31
797.652	282.11
797.832	239.1
798.012	308.73
798.192	175.61
798.373	112.13
798.553	267.77
798.733	273.92
798.913	251.39
799.093	224.76
799.274	284.16
799.454	323.07
799.634	308.73
799.814	257.53
799.994	226.81
800.174	255.48
800.354	224.76
800.534	175.61
800.714	232.96
800.894	314.88
801.074	157.18
801.254	216.57
801.434	265.72
801.614	216.57
801.794	228.86
801.974	863.73
802.154	216.57
802.334	192
802.514	306.68
802.693	212.48
802.873	267.77
803.053	183.81
803.233	218.62
803.413	265.72
803.592	179.71
803.772	161.28
803.952	224.76
804.131	159.23
804.311	278.01
804.491	155.13
804.67	110.08
804.85	124.41
805.03	216.57
805.209	255.48
805.389	245.24
805.568	251.39
805.748	185.85
805.928	159.23
806.107	200.19
806.287	257.53
806.466	151.04
806.646	183.81
806.825	218.62
807.004	200.19
807.184	241.15
807.363	194.05
807.543	208.38
807.722	101.89
807.901	187.9
808.081	155.13
808.26	136.7
808.439	241.15
808.619	118.27
808.798	177.66
808.977	169.47
809.156	167.42
809.336	253.44
809.515	192
809.694	122.37
809.873	60.93
810.052	194.05
810.231	232.96
810.411	128.51
810.59	175.61
810.769	228.86
810.948	112.13
811.127	212.48
811.306	103.93
811.485	177.66
811.664	216.57
811.843	210.43
812.022	81.41
812.201	130.56
812.38	142.85
812.559	118.27
812.737	126.46
812.916	181.76
813.095	148.99
813.274	187.9
813.453	126.46
813.632	169.47
813.811	185.85
813.989	101.89
814.168	146.94
814.347	171.52
814.526	196.09
814.704	140.8
814.883	93.69
815.062	126.46
815.24	138.75
815.419	97.79
815.598	159.23
815.776	93.69
815.955	134.65
816.133	81.41
816.312	155.13
816.49	110.08
816.669	124.41
816.847	134.65
817.026	138.75
817.204	89.6
817.383	167.42
817.561	126.46
817.74	151.04
817.918	155.13
818.097	112.13
818.275	155.13
818.453	155.13
818.632	110.08
818.81	97.79
818.988	187.9
819.167	179.71
819.345	128.51
819.523	159.23
819.701	142.85
819.879	95.74
820.058	114.17
820.236	142.85
820.414	36.35
820.592	110.08
820.77	126.46
820.948	54.78
821.127	112.13
821.305	128.51
821.483	138.75
821.661	126.46
821.839	167.42
822.017	118.27
822.195	79.36
822.373	171.52
822.551	62.98
822.729	97.79
822.907	153.09
823.085	138.75
823.262	124.41
823.44	73.21
823.618	60.93
823.796	142.85
823.974	85.5
824.152	85.5
824.329	126.46
824.507	65.02
824.685	187.9
824.863	110.08
825.04	130.56
825.218	189.95
825.396	79.36
825.574	36.35
825.751	71.17
825.929	93.69
826.107	44.54
826.284	103.93
826.462	95.74
826.639	36.35
826.817	44.54
826.994	85.5
827.172	9.73
827.349	163.33
827.527	71.17
827.704	97.79
827.882	87.55
828.059	101.89
828.237	34.3
828.414	163.33
828.591	103.93
828.769	69.12
828.946	97.79
829.124	153.09
829.301	89.6
829.478	65.02
829.655	101.89
829.833	73.21
830.01	77.31
830.187	110.08
830.364	91.65
830.542	95.74
830.719	146.94
830.896	144.89
831.073	108.03
831.25	42.5
831.427	95.74
831.604	130.56
831.782	38.4
831.959	79.36
832.136	101.89
832.313	69.12
832.49	24.06
832.667	79.36
832.844	44.54
833.021	77.31
833.198	124.41
833.374	97.79
833.551	46.59
833.728	22.02
833.905	134.65
834.082	28.16
834.259	54.78
834.436	85.5
834.612	24.06
834.789	77.31
834.966	89.6
835.143	46.59
835.319	-68.09
835.496	71.17
835.673	36.35
835.85	73.21
836.026	3.58
836.203	60.93
836.38	52.74
836.556	44.54
836.733	52.74
836.909	118.27
837.086	-4.61
837.262	54.78
837.439	73.21
837.616	114.17
837.792	-2.56
837.968	99.84
838.145	-10.75
838.321	108.03
838.498	44.54
838.674	130.56
838.851	13.82
839.027	36.35
839.203	99.84
839.38	62.98
839.556	79.36
839.732	101.89
839.909	-25.09
840.085	101.89
840.261	46.59
840.437	52.74
840.614	93.69
840.79	105.98
840.966	65.02
841.142	79.36
841.318	87.55
841.494	93.69
841.671	11.78
841.847	-45.57
842.023	62.98
842.199	75.26
842.375	95.74
842.551	-27.14
842.727	52.74
842.903	151.04
843.079	-12.8
843.255	85.5
843.431	56.83
843.607	118.27
843.783	-70.14
843.959	60.93
844.134	89.6
844.31	40.45
844.486	67.07
844.662	-41.47
844.838	22.02
845.013	136.7
845.189	69.12
845.365	52.74
845.541	48.64
845.716	-4.61
845.892	134.65
846.068	36.35
846.244	-0.51
846.419	-2.56
846.595	62.98
846.77	52.74
846.946	60.93
847.122	62.98
847.297	56.83
847.473	56.83
847.648	-2.56
847.824	101.89
847.999	19.97
848.175	44.54
848.35	95.74
848.526	69.12
848.701	77.31
848.876	79.36
849.052	32.26
849.227	81.41
849.403	32.26
849.578	11.78
849.753	19.97
849.929	3.58
850.104	1.54
850.279	77.31
850.454	95.74
850.63	87.55
850.805	83.45
850.98	75.26
851.155	48.64
851.33	56.83
851.505	52.74
851.681	110.08
851.856	46.59
852.031	24.06
852.206	36.35
852.381	-6.66
852.556	44.54
852.731	3.58
852.906	-25.09
853.081	54.78
853.256	65.02
853.431	19.97
853.606	26.11
853.781	-64
853.956	13.82
854.131	62.98
854.305	3.58
854.48	7.68
854.655	60.93
854.83	-20.99
855.005	13.82
855.18	73.21
855.354	24.06
855.529	65.02
855.704	-10.75
855.879	77.31
856.053	24.06
856.228	-6.66
856.403	28.16
856.577	24.06
856.752	-4.61
856.926	-4.61
857.101	34.3
857.276	-10.75
857.45	44.54
857.625	56.83
857.799	38.4
857.974	36.35
858.148	-33.28
858.323	79.36
858.497	-16.9
858.672	15.87
858.846	17.92
859.02	52.74
859.195	52.74
859.369	-27.14
859.543	11.78
859.718	42.5
859.892	89.6
860.066	-2.56
860.241	-25.09
860.415	-4.61
860.589	48.64
860.763	-2.56
860.938	30.21
861.112	54.78
861.286	48.64
861.46	24.06
861.634	26.11
861.808	52.74
861.982	17.92
862.157	-45.57
862.331	-14.85
862.505	52.74
862.679	-45.57
862.853	46.59
863.027	50.69
863.201	120.32
863.375	46.59
863.549	46.59
863.722	85.5
863.896	13.82
864.07	28.16
864.244	48.64
864.418	3.58
864.592	71.17
864.766	5.63
864.939	52.74
865.113	-18.94
865.287	87.55
865.461	-45.57
865.634	19.97
865.808	-29.18
865.982	11.78
866.156	3.58
866.329	52.74
866.503	32.26
866.676	71.17
866.85	38.4
867.024	28.16
867.197	24.06
867.371	95.74
867.544	-45.57
867.718	40.45
867.891	77.31
868.065	40.45
868.238	-16.9
868.412	32.26
868.585	28.16
868.759	28.16
868.932	11.78
869.105	-20.99
869.279	46.59
869.452	15.87
869.625	30.21
869.799	-2.56
869.972	60.93
870.145	-8.7
870.319	65.02
870.492	28.16
870.665	60.93
870.838	73.21
871.011	-45.57
871.185	65.02
871.358	-0.51
871.531	116.22
871.704	44.54
871.877	32.26
872.05	38.4
872.223	-25.09
872.396	13.82
872.569	-37.38
872.742	-53.76
872.915	65.02
873.088	26.11
873.261	-16.9
873.434	13.82
873.607	54.78
873.78	144.89
873.953	-12.8
874.126	77.31
874.299	5.63
874.471	36.35
874.644	46.59
874.817	77.31
874.99	44.54
875.163	22.02
875.335	65.02
875.508	-10.75
875.681	126.46
875.853	-12.8
876.026	58.88
876.199	52.74
876.371	15.87
876.544	46.59
876.717	-12.8
876.889	60.93
877.062	-12.8
877.234	34.3
877.407	-20.99
877.579	30.21
877.752	17.92
877.924	32.26
878.097	-39.42
878.269	-4.61
878.442	-70.14
878.614	19.97
878.786	26.11
878.959	34.3
879.131	36.35
879.303	5.63
879.476	42.5
879.648	56.83
879.82	56.83
879.993	79.36
880.165	19.97
880.337	-10.75
880.509	15.87
880.681	-31.23
880.854	-57.86
881.026	67.07
881.198	85.5
881.37	-29.18
881.542	5.63
881.714	65.02
881.886	77.31
882.058	-18.94
882.23	101.89
882.402	22.02
882.574	62.98
882.746	-20.99
882.918	77.31
883.09	46.59
883.262	-4.61
883.434	22.02
883.606	-0.51
883.778	52.74
883.95	89.6
884.122	-4.61
884.293	-18.94
884.465	17.92
884.637	3.58
884.809	-10.75
884.98	34.3
885.152	-12.8
885.324	30.21
885.496	-25.09
885.667	-25.09
885.839	46.59
886.011	36.35
886.182	22.02
886.354	56.83
886.525	28.16
886.697	52.74
886.869	11.78
887.04	-4.61
887.212	85.5
887.383	71.17
887.555	7.68
887.726	13.82
887.897	52.74
888.069	5.63
888.24	52.74
888.412	13.82
888.583	40.45
888.754	28.16
888.926	54.78
889.097	54.78
889.268	5.63
889.44	5.63
889.611	-8.7
889.782	-12.8
889.953	-4.61
890.125	36.35
890.296	15.87
890.467	15.87
890.638	5.63
890.809	52.74
890.98	-37.38
891.151	44.54
891.323	58.88
891.494	36.35
891.665	-20.99
891.836	19.97
892.007	-29.18
892.178	3.58
892.349	-12.8
892.52	-2.56
892.691	54.78
892.862	-29.18
893.032	-2.56
893.203	52.74
893.374	44.54
893.545	93.69
893.716	-16.9
893.887	36.35
894.057	30.21
894.228	11.78
894.399	11.78
894.57	52.74
894.74	-27.14
894.911	54.78
895.082	-6.66
895.253	-74.24
895.423	-61.95
895.594	-23.04
895.764	-23.04
895.935	-37.38
896.106	-14.85
896.276	36.35
896.447	-2.56
896.617	36.35
896.788	-25.09
896.958	19.97
897.129	-16.9
897.299	19.97
897.47	46.59
897.64	28.16
897.81	-16.9
897.981	36.35
898.151	28.16
898.322	-4.61
898.492	-64
898.662	-45.57
898.832	34.3
899.003	32.26
899.173	28.16
899.343	-2.56
899.513	-12.8
