Data from USB4F104151__175__14-32-43-510.txt Node

Date: Thu Mar 13 14:32:43 EDT 2025
User: louis
Spectrometer: USB4F10415
Trigger mode: 4
Integration Time (sec): 2.500000E-2
Scans to average: 1
Electric dark correction enabled: true
Nonlinearity correction enabled: false
Boxcar width: 0
XAxis mode: Wavelengths
Number of Pixels in Spectrum: 3648
>>>>>Begin Spectral Data<<<<<
178.204	-143.53
178.424	-143.53
178.644	-143.53
178.864	-170.15
179.084	-84.14
179.304	-43.18
179.524	36.69
179.744	-22.7
179.964	28.5
180.184	57.17
180.404	-4.27
180.624	40.79
180.844	-4.27
181.064	-43.18
181.283	-2.22
181.503	-18.6
181.723	-24.75
181.943	-65.71
182.163	110.42
182.383	-12.46
182.602	-2.22
182.822	42.84
183.042	20.31
183.262	-43.18
183.482	36.69
183.701	-32.94
183.921	22.36
184.141	20.31
184.361	-8.36
184.58	16.21
184.8	85.84
185.02	-41.13
185.239	12.12
185.459	8.02
185.679	3.93
185.898	22.36
186.118	38.74
186.338	1.88
186.557	28.5
186.777	-47.27
186.997	18.26
187.216	-12.46
187.436	83.8
187.655	-16.55
187.875	77.65
188.095	-30.89
188.314	-2.22
188.534	3.93
188.753	-26.79
188.973	55.12
189.192	69.46
189.412	40.79
189.631	-2.22
189.851	32.6
190.07	87.89
190.29	16.21
190.509	-2.22
190.729	24.4
190.948	135
191.168	143.19
191.387	96.08
191.607	102.23
191.826	-2.22
192.045	8.02
192.265	53.08
192.484	44.88
192.704	3.93
192.923	-32.94
193.142	75.6
193.362	28.5
193.581	-20.65
193.8	122.71
194.02	12.12
194.239	69.46
194.458	-20.65
194.678	5.97
194.897	5.97
195.116	91.99
195.335	-18.6
195.555	36.69
195.774	51.03
195.993	40.79
196.212	22.36
196.432	20.31
196.651	-12.46
196.87	-108.71
197.089	59.22
197.308	-10.41
197.528	14.17
197.747	-24.75
197.966	46.93
198.185	46.93
198.404	-22.7
198.623	69.46
198.842	-8.36
199.062	71.51
199.281	73.56
199.5	36.69
199.719	55.12
199.938	22.36
200.157	-4.27
200.376	20.31
200.595	96.08
200.814	-12.46
201.033	38.74
201.252	53.08
201.471	-18.6
201.69	-18.6
201.909	28.5
202.128	-26.79
202.347	16.21
202.566	20.31
202.785	-22.7
203.004	-4.27
203.223	77.65
203.442	65.36
203.661	16.21
203.879	24.4
204.098	63.32
204.317	-2.22
204.536	135
204.755	-24.75
204.974	87.89
205.193	18.26
205.411	89.94
205.63	81.75
205.849	69.46
206.068	42.84
206.287	12.12
206.505	73.56
206.724	-12.46
206.943	24.4
207.162	-4.27
207.381	8.02
207.599	61.27
207.818	-37.03
208.037	-4.27
208.255	-4.27
208.474	3.93
208.693	57.17
208.911	24.4
209.13	63.32
209.349	-6.31
209.567	61.27
209.786	87.89
210.005	57.17
210.223	3.93
210.442	20.31
210.661	5.97
210.879	-12.46
211.098	-10.41
211.316	53.08
211.535	110.42
211.753	28.5
211.972	20.31
212.191	30.55
212.409	-53.42
212.628	69.46
212.846	85.84
213.065	53.08
213.283	63.32
213.502	-0.17
213.72	65.36
213.938	94.04
214.157	69.46
214.375	28.5
214.594	-41.13
214.812	110.42
215.031	32.6
215.249	-12.46
215.467	-4.27
215.686	-57.51
215.904	38.74
216.122	32.6
216.341	102.23
216.559	32.6
216.778	42.84
216.996	3.93
217.214	20.31
217.432	10.07
217.651	18.26
217.869	14.17
218.087	36.69
218.306	77.65
218.524	-0.17
218.742	-4.27
218.96	40.79
219.179	48.98
219.397	-0.17
219.615	116.56
219.833	81.75
220.051	-2.22
220.27	128.85
220.488	38.74
220.706	61.27
220.924	77.65
221.142	38.74
221.36	40.79
221.578	-18.6
221.796	40.79
222.015	22.36
222.233	63.32
222.451	96.08
222.669	-24.75
222.887	22.36
223.105	-41.13
223.323	69.46
223.541	12.12
223.759	53.08
223.977	-41.13
224.195	77.65
224.413	30.55
224.631	53.08
224.849	-26.79
225.067	147.28
225.285	-16.55
225.503	-24.75
225.721	-30.89
225.939	65.36
226.157	51.03
226.375	89.94
226.592	10.07
226.81	12.12
227.028	12.12
227.246	63.32
227.464	-39.08
227.682	44.88
227.9	28.5
228.117	14.17
228.335	79.7
228.553	8.02
228.771	22.36
228.989	96.08
229.206	53.08
229.424	-22.7
229.642	-16.55
229.86	22.36
230.077	38.74
230.295	46.93
230.513	32.6
230.731	114.52
230.948	30.55
231.166	61.27
231.384	22.36
231.601	-4.27
231.819	-28.84
232.037	-37.03
232.254	-37.03
232.472	3.93
232.689	38.74
232.907	36.69
233.125	-28.84
233.342	38.74
233.56	-4.27
233.777	-65.71
233.995	81.75
234.213	53.08
234.43	55.12
234.648	36.69
234.865	3.93
235.083	67.41
235.3	3.93
235.518	30.55
235.735	69.46
235.953	57.17
236.17	24.4
236.388	79.7
236.605	-4.27
236.822	38.74
237.04	-26.79
237.257	16.21
237.475	-4.27
237.692	-45.23
237.909	-10.41
238.127	77.65
238.344	-4.27
238.562	28.5
238.779	-55.47
238.996	-0.17
239.214	-47.27
239.431	77.65
239.648	-12.46
239.865	24.4
240.083	81.75
240.3	32.6
240.517	20.31
240.735	5.97
240.952	12.12
241.169	8.02
241.386	28.5
241.603	12.12
241.821	26.45
242.038	110.42
242.255	57.17
242.472	5.97
242.689	-26.79
242.907	16.21
243.124	12.12
243.341	14.17
243.558	16.21
243.775	-10.41
243.992	1.88
244.209	-10.41
244.426	128.85
244.643	-2.22
244.86	12.12
245.078	-47.27
245.295	28.5
245.512	51.03
245.729	-102.57
245.946	73.56
246.163	-69.8
246.38	-12.46
246.597	20.31
246.814	24.4
247.031	22.36
247.248	46.93
247.464	91.99
247.681	28.5
247.898	-6.31
248.115	79.7
248.332	-77.99
248.549	-12.46
248.766	89.94
248.983	63.32
249.2	51.03
249.417	73.56
249.633	-18.6
249.85	8.02
250.067	-34.99
250.284	85.84
250.501	-12.46
250.717	32.6
250.934	30.55
251.151	3.93
251.368	-2.22
251.585	28.5
251.801	-20.65
252.018	69.46
252.235	81.75
252.451	12.12
252.668	5.97
252.885	106.32
253.102	51.03
253.318	20.31
253.535	36.69
253.752	16.21
253.968	55.12
254.185	-28.84
254.401	28.5
254.618	79.7
254.835	-84.14
255.051	79.7
255.268	-4.27
255.484	63.32
255.701	24.4
255.917	59.22
256.134	8.02
256.351	69.46
256.567	-57.51
256.784	-26.79
257	20.31
257.217	3.93
257.433	14.17
257.65	63.32
257.866	-28.84
258.082	-18.6
258.299	55.12
258.515	85.84
258.732	3.93
258.948	-26.79
259.165	14.17
259.381	-12.46
259.597	69.46
259.814	48.98
260.03	14.17
260.246	69.46
260.463	44.88
260.679	69.46
260.895	3.93
261.112	48.98
261.328	-8.36
261.544	-12.46
261.761	34.64
261.977	34.64
262.193	3.93
262.409	-16.55
262.626	48.98
262.842	-18.6
263.058	20.31
263.274	61.27
263.49	106.32
263.707	8.02
263.923	118.61
264.139	1.88
264.355	24.4
264.571	40.79
264.787	55.12
265.004	102.23
265.22	22.36
265.436	-86.19
265.652	-32.94
265.868	-10.41
266.084	24.4
266.3	38.74
266.516	40.79
266.732	5.97
266.948	-16.55
267.164	-10.41
267.38	108.37
267.596	57.17
267.812	126.8
268.028	-2.22
268.244	44.88
268.46	28.5
268.676	-51.37
268.892	38.74
269.108	14.17
269.324	53.08
269.54	-57.51
269.756	-37.03
269.972	42.84
270.188	24.4
270.403	-69.8
270.619	69.46
270.835	-57.51
271.051	12.12
271.267	3.93
271.483	-18.6
271.698	81.75
271.914	87.89
272.13	18.26
272.346	44.88
272.562	20.31
272.777	-24.75
272.993	-67.75
273.209	-100.52
273.425	24.4
273.64	-51.37
273.856	36.69
274.072	77.65
274.287	-16.55
274.503	24.4
274.719	-14.51
274.934	16.21
275.15	-22.7
275.366	-2.22
275.581	-37.03
275.797	73.56
276.012	-53.42
276.228	20.31
276.444	-4.27
276.659	98.13
276.875	36.69
277.09	20.31
277.306	-24.75
277.521	55.12
277.737	-16.55
277.952	77.65
278.168	63.32
278.383	12.12
278.599	-20.65
278.814	94.04
279.03	-49.32
279.245	16.21
279.461	22.36
279.676	46.93
279.892	-28.84
280.107	-34.99
280.322	3.93
280.538	51.03
280.753	-10.41
280.969	112.47
281.184	-61.61
281.399	55.12
281.615	-26.79
281.83	61.27
282.045	8.02
282.26	22.36
282.476	26.45
282.691	-12.46
282.906	-12.46
283.122	53.08
283.337	-30.89
283.552	3.93
283.767	10.07
283.983	96.08
284.198	20.31
284.413	12.12
284.628	-37.03
284.843	40.79
285.058	24.4
285.274	36.69
285.489	61.27
285.704	91.99
285.919	-4.27
286.134	-12.46
286.349	3.93
286.564	-18.6
286.779	44.88
286.995	-16.55
287.21	-26.79
287.425	40.79
287.64	-32.94
287.855	24.4
288.07	-61.61
288.285	126.8
288.5	36.69
288.715	77.65
288.93	-12.46
289.145	-43.18
289.36	16.21
289.575	28.5
289.79	3.93
290.004	3.93
290.219	77.65
290.434	-12.46
290.649	-53.42
290.864	-37.03
291.079	8.02
291.294	85.84
291.509	48.98
291.724	-10.41
291.938	-12.46
292.153	22.36
292.368	85.84
292.583	30.55
292.798	30.55
293.012	30.55
293.227	36.69
293.442	-4.27
293.657	65.36
293.871	130.9
294.086	55.12
294.301	89.94
294.516	44.88
294.73	38.74
294.945	36.69
295.16	22.36
295.374	28.5
295.589	10.07
295.804	-0.17
296.018	32.6
296.233	69.46
296.447	65.36
296.662	28.5
296.877	38.74
297.091	77.65
297.306	46.93
297.52	44.88
297.735	91.99
297.949	8.02
298.164	16.21
298.378	3.93
298.593	38.74
298.807	59.22
299.022	28.5
299.236	28.5
299.451	-2.22
299.665	22.36
299.88	-16.55
300.094	28.5
300.309	77.65
300.523	3.93
300.737	32.6
300.952	-28.84
301.166	30.55
301.381	-8.36
301.595	12.12
301.809	-20.65
302.024	98.13
302.238	-8.36
302.452	65.36
302.667	3.93
302.881	94.04
303.095	-12.46
303.309	81.75
303.524	40.79
303.738	5.97
303.952	5.97
304.166	77.65
304.381	22.36
304.595	-12.46
304.809	-0.17
305.023	48.98
305.237	1.88
305.452	53.08
305.666	102.23
305.88	20.31
306.094	55.12
306.308	-37.03
306.522	55.12
306.736	48.98
306.95	-6.31
307.164	24.4
307.379	-61.61
307.593	65.36
307.807	44.88
308.021	89.94
308.235	3.93
308.449	32.6
308.663	12.12
308.877	87.89
309.091	38.74
309.305	53.08
309.519	12.12
309.733	30.55
309.947	-14.51
310.161	14.17
310.374	-20.65
310.588	30.55
310.802	-6.31
311.016	8.02
311.23	40.79
311.444	-10.41
311.658	3.93
311.872	48.98
312.085	40.79
312.299	151.38
312.513	40.79
312.727	63.32
312.941	-0.17
313.154	-49.32
313.368	126.8
313.582	-24.75
313.796	69.46
314.009	-41.13
314.223	22.36
314.437	-6.31
314.651	34.64
314.864	-10.41
315.078	8.02
315.292	-30.89
315.505	87.89
315.719	81.75
315.933	12.12
316.146	28.5
316.36	-37.03
316.573	-6.31
316.787	12.12
317.001	22.36
317.214	16.21
317.428	-45.23
317.641	3.93
317.855	-28.84
318.068	8.02
318.282	48.98
318.495	20.31
318.709	94.04
318.922	16.21
319.136	28.5
319.349	30.55
319.563	12.12
319.776	18.26
319.99	20.31
320.203	26.45
320.417	-12.46
320.63	8.02
320.843	132.95
321.057	16.21
321.27	-12.46
321.483	10.07
321.697	110.42
321.91	16.21
322.124	12.12
322.337	32.6
322.55	38.74
322.763	40.79
322.977	16.21
323.19	20.31
323.403	69.46
323.617	89.94
323.83	83.8
324.043	-4.27
324.256	46.93
324.469	-4.27
324.683	-18.6
324.896	61.27
325.109	-0.17
325.322	10.07
325.535	-41.13
325.748	61.27
325.962	24.4
326.175	-4.27
326.388	-20.65
326.601	71.51
326.814	-47.27
327.027	-18.6
327.24	102.23
327.453	-45.23
327.666	40.79
327.879	3.93
328.092	28.5
328.305	14.17
328.518	16.21
328.731	-12.46
328.944	-4.27
329.157	-32.94
329.37	-4.27
329.583	83.8
329.796	57.17
330.009	5.97
330.222	22.36
330.435	44.88
330.648	28.5
330.861	12.12
331.073	94.04
331.286	20.31
331.499	38.74
331.712	42.84
331.925	8.02
332.138	38.74
332.35	38.74
332.563	24.4
332.776	77.65
332.989	-77.99
333.202	8.02
333.414	16.21
333.627	5.97
333.84	38.74
334.053	-2.22
334.265	34.64
334.478	55.12
334.691	-61.61
334.903	89.94
335.116	5.97
335.329	61.27
335.541	12.12
335.754	100.18
335.966	-90.28
336.179	-32.94
336.392	77.65
336.604	32.6
336.817	85.84
337.029	12.12
337.242	89.94
337.454	26.45
337.667	32.6
337.88	87.89
338.092	-45.23
338.305	106.32
338.517	94.04
338.729	147.28
338.942	85.84
339.154	8.02
339.367	-0.17
339.579	75.6
339.792	61.27
340.004	53.08
340.217	-4.27
340.429	12.12
340.641	-12.46
340.854	-12.46
341.066	-24.75
341.278	96.08
341.491	124.76
341.703	-59.56
341.915	22.36
342.128	73.56
342.34	20.31
342.552	-59.56
342.764	22.36
342.977	5.97
343.189	69.46
343.401	55.12
343.613	20.31
343.826	28.5
344.038	22.36
344.25	-59.56
344.462	-26.79
344.674	71.51
344.886	-37.03
345.099	-26.79
345.311	-10.41
345.523	55.12
345.735	26.45
345.947	3.93
346.159	-2.22
346.371	69.46
346.583	94.04
346.795	-4.27
347.007	34.64
347.219	77.65
347.431	55.12
347.643	151.38
347.855	-28.84
348.067	79.7
348.279	-24.75
348.491	61.27
348.703	34.64
348.915	3.93
349.127	53.08
349.339	38.74
349.551	8.02
349.763	61.27
349.975	57.17
350.187	-2.22
350.399	106.32
350.61	61.27
350.822	28.5
351.034	71.51
351.246	57.17
351.458	5.97
351.669	106.32
351.881	57.17
352.093	24.4
352.305	61.27
352.517	108.37
352.728	137.04
352.94	44.88
353.152	81.75
353.363	18.26
353.575	112.47
353.787	42.84
353.999	79.7
354.21	36.69
354.422	3.93
354.633	65.36
354.845	12.12
355.057	-18.6
355.268	-8.36
355.48	34.64
355.692	38.74
355.903	61.27
356.115	-2.22
356.326	-55.47
356.538	77.65
356.749	59.22
356.961	110.42
357.172	20.31
357.384	38.74
357.595	96.08
357.807	8.02
358.018	14.17
358.23	-6.31
358.441	38.74
358.653	77.65
358.864	87.89
359.075	-47.27
359.287	-26.79
359.498	108.37
359.709	-28.84
359.921	69.46
360.132	108.37
360.344	1.88
360.555	44.88
360.766	102.23
360.977	3.93
361.189	79.7
361.4	36.69
361.611	69.46
361.823	24.4
362.034	18.26
362.245	14.17
362.456	-12.46
362.667	-39.08
362.879	61.27
363.09	38.74
363.301	38.74
363.512	44.88
363.723	-18.6
363.935	55.12
364.146	32.6
364.357	36.69
364.568	108.37
364.779	3.93
364.99	61.27
365.201	14.17
365.412	69.46
365.623	-61.61
365.834	12.12
366.045	67.41
366.256	96.08
366.467	46.93
366.678	77.65
366.889	20.31
367.1	44.88
367.311	135
367.522	36.69
367.733	102.23
367.944	73.56
368.155	22.36
368.366	20.31
368.577	132.95
368.788	53.08
368.999	20.31
369.209	51.03
369.42	98.13
369.631	61.27
369.842	5.97
370.053	28.5
370.264	32.6
370.474	98.13
370.685	22.36
370.896	38.74
371.107	53.08
371.317	98.13
371.528	-8.36
371.739	77.65
371.95	44.88
372.16	46.93
372.371	77.65
372.582	8.02
372.792	36.69
373.003	57.17
373.214	20.31
373.424	94.04
373.635	-18.6
373.846	30.55
374.056	-16.55
374.267	79.7
374.477	100.18
374.688	14.17
374.898	8.02
375.109	22.36
375.319	44.88
375.53	108.37
375.74	61.27
375.951	-61.61
376.161	67.41
376.372	34.64
376.582	42.84
376.793	85.84
377.003	-26.79
377.214	-4.27
377.424	32.6
377.635	104.28
377.845	20.31
378.055	63.32
378.266	42.84
378.476	36.69
378.686	40.79
378.897	67.41
379.107	87.89
379.317	-10.41
379.528	5.97
379.738	83.8
379.948	-45.23
380.158	81.75
380.369	61.27
380.579	110.42
380.789	55.12
380.999	24.4
381.21	59.22
381.42	87.89
381.63	18.26
381.84	-10.41
382.05	14.17
382.261	65.36
382.471	3.93
382.681	20.31
382.891	89.94
383.101	36.69
383.311	-18.6
383.521	-34.99
383.731	73.56
383.941	36.69
384.151	-22.7
384.361	57.17
384.571	69.46
384.781	-49.32
384.991	106.32
385.201	40.79
385.411	79.7
385.621	94.04
385.831	44.88
386.041	61.27
386.251	-4.27
386.461	98.13
386.671	-45.23
386.881	69.46
387.091	-47.27
387.301	75.6
387.511	89.94
387.72	46.93
387.93	28.5
388.14	61.27
388.35	30.55
388.56	40.79
388.769	28.5
388.979	61.27
389.189	22.36
389.399	46.93
389.609	128.85
389.818	77.65
390.028	89.94
390.238	-12.46
390.447	28.5
390.657	14.17
390.867	24.4
391.076	-20.65
391.286	130.9
391.496	44.88
391.705	85.84
391.915	120.66
392.125	44.88
392.334	20.31
392.544	98.13
392.753	96.08
392.963	87.89
393.172	71.51
393.382	3.93
393.591	147.28
393.801	91.99
394.01	110.42
394.22	124.76
394.429	30.55
394.639	65.36
394.848	110.42
395.058	53.08
395.267	-10.41
395.477	118.61
395.686	102.23
395.895	46.93
396.105	128.85
396.314	55.12
396.524	69.46
396.733	110.42
396.942	155.47
397.152	40.79
397.361	124.76
397.57	28.5
397.78	61.27
397.989	77.65
398.198	102.23
398.407	22.36
398.617	53.08
398.826	126.8
399.035	57.17
399.244	151.38
399.453	81.75
399.663	48.98
399.872	94.04
400.081	-4.27
400.29	94.04
400.499	48.98
400.708	122.71
400.917	28.5
401.127	71.51
401.336	38.74
401.545	196.43
401.754	110.42
401.963	110.42
402.172	89.94
402.381	65.36
402.59	61.27
402.799	40.79
403.008	91.99
403.217	112.47
403.426	104.28
403.635	67.41
403.844	94.04
404.053	32.6
404.262	55.12
404.471	130.9
404.68	102.23
404.888	102.23
405.097	94.04
405.306	83.8
405.515	122.71
405.724	98.13
405.933	153.43
406.142	182.1
406.35	200.53
406.559	67.41
406.768	122.71
406.977	118.61
407.185	184.15
407.394	233.3
407.603	104.28
407.812	126.8
408.02	126.8
408.229	200.53
408.438	102.23
408.646	96.08
408.855	186.19
409.064	198.48
409.272	202.58
409.481	135
409.69	225.11
409.898	192.34
410.107	216.91
410.315	159.57
410.524	261.97
410.733	323.41
410.941	182.1
411.15	282.45
411.358	239.44
411.567	294.74
411.775	241.49
411.984	257.87
412.192	323.41
412.401	343.89
412.609	358.22
412.818	358.22
413.026	313.17
413.234	384.85
413.443	304.98
413.651	376.66
413.86	372.56
414.068	499.53
414.276	442.19
414.485	472.91
414.693	495.44
414.901	528.21
415.11	493.39
415.318	532.3
415.526	491.34
415.734	663.37
415.943	536.4
416.151	620.36
416.359	577.36
416.567	630.6
416.776	675.66
416.984	638.8
417.192	704.33
417.4	626.51
417.608	677.71
417.817	749.39
418.025	667.47
418.233	827.21
418.441	798.54
418.649	841.54
418.857	964.42
419.065	995.14
419.273	902.98
419.481	1046.34
419.689	937.8
419.897	1036.1
420.105	1038.15
420.313	1187.65
420.521	1244.99
420.729	1292.1
420.937	1232.71
421.145	1204.03
421.353	1347.39
421.561	1367.87
421.769	1390.4
421.977	1457.98
422.185	1423.17
422.393	1554.24
422.601	1611.58
422.809	1625.92
423.017	1630.01
423.224	1777.47
423.432	1822.52
423.64	1775.42
423.848	1888.06
424.056	1924.92
424.263	2027.32
424.471	2142
424.679	2101.05
424.887	2209.59
425.094	2301.75
425.302	2289.46
425.51	2289.46
425.718	2455.34
425.925	2402.1
426.133	2531.12
426.341	2744.11
426.548	2828.07
426.756	2766.64
426.964	2791.21
427.171	2887.47
427.379	3127.08
427.586	3088.17
427.794	3139.37
428.001	3270.44
428.209	3518.24
428.417	3276.58
428.624	3626.78
428.832	3653.41
429.039	3661.6
429.247	3585.82
429.454	4042.52
429.662	4372.24
429.869	3927.83
430.076	4185.88
430.284	4108.05
430.491	4362
430.699	4450.07
430.906	4687.63
431.114	4618
431.321	4906.76
431.528	4882.19
431.736	5146.37
431.943	5267.2
432.15	5136.13
432.358	5281.54
432.565	5598.98
432.772	5515.01
432.979	5895.93
433.187	5910.27
433.394	6027
433.601	6553.33
433.808	6393.59
434.016	6467.31
434.223	6733.55
434.43	7034.6
434.637	6772.46
434.844	7474.92
435.052	7319.27
435.259	7376.61
435.466	7280.36
435.673	7298.79
435.88	7626.46
436.087	8429.27
436.294	8314.58
436.501	8099.55
436.708	8138.46
436.915	8568.53
437.122	8804.05
437.329	8750.8
437.537	9131.72
437.743	9252.55
437.95	9275.08
438.157	9729.73
438.364	10012.35
438.571	10186.43
438.778	9916.09
438.985	10940.08
439.192	10653.36
439.399	10870.45
439.606	10677.94
439.813	11148.97
440.02	11873.95
440.227	11378.34
440.433	11607.72
440.64	11933.34
440.847	11919.01
441.054	12160.67
441.261	12924.56
441.467	12613.27
441.674	13117.07
441.881	13616.77
442.088	13389.45
442.294	13325.96
442.501	13553.29
442.708	14077.57
442.914	14251.64
443.121	14820.98
443.328	14575.22
443.534	15597.16
443.741	15031.92
443.948	14972.53
444.154	16307.8
444.361	16029.28
444.568	16291.42
444.774	15996.51
444.981	16350.81
445.187	16762.45
445.394	17415.76
445.6	17256.01
445.807	18771.51
446.013	17931.84
446.22	18558.52
446.426	19334.7
446.633	19142.19
446.839	20053.54
447.046	18789.94
447.252	20004.39
447.459	20291.1
447.665	20121.12
447.871	21171.73
448.078	22050.31
448.284	20913.69
448.491	21507.6
448.697	22402.56
448.903	22478.33
449.11	22474.24
449.316	22623.74
449.522	22898.17
449.728	23604.72
449.935	23459.31
450.141	23676.4
450.347	23920.1
450.553	23430.64
450.76	23514.61
450.966	24421.86
451.172	24327.65
451.378	24573.41
451.584	24061.41
451.791	24839.64
451.997	25042.39
452.203	24837.59
452.409	25212.37
452.615	24606.17
452.821	24069.61
453.027	23645.68
453.233	25167.32
453.44	23952.87
453.646	23979.5
453.852	24325.6
454.058	24780.25
454.264	23956.97
454.47	24573.41
454.676	23713.26
454.882	24827.35
455.088	22445.57
455.294	22978.04
455.5	23242.23
455.705	23258.61
455.911	22330.88
456.117	21782.02
456.323	21964.29
456.529	20700.7
456.735	21417.49
456.941	20930.07
457.147	20637.21
457.352	20024.87
457.558	19697.19
457.764	19672.62
457.97	19312.17
458.176	18730.55
458.381	18714.17
458.587	18015.81
458.793	18038.34
458.999	16801.36
459.204	18150.98
459.41	17565.26
459.616	16526.94
459.821	16543.32
460.027	16393.82
460.233	15844.96
460.438	15304.3
460.644	15570.54
460.85	14847.6
461.055	14470.78
461.261	14507.64
461.466	13354.63
461.672	13037.2
461.878	13854.34
462.083	13063.82
462.289	12621.46
462.494	12721.81
462.7	12013.21
462.905	11802.27
463.111	12166.81
463.316	12250.78
463.522	11671.2
463.727	12078.75
463.932	12054.17
464.138	11914.91
464.343	11882.14
464.549	11529.89
464.754	11777.7
464.959	11638.44
465.165	11656.87
465.37	11302.57
465.575	10770.1
465.781	11628.2
465.986	11167.4
466.191	10997.42
466.397	10860.21
466.602	10286.78
466.807	10604.21
467.012	10573.49
467.218	10348.22
467.423	10428.09
467.628	10448.57
467.833	10696.37
468.038	10581.68
468.244	10194.62
468.449	10548.92
468.654	10161.85
468.859	9989.82
469.064	10200.76
469.269	9959.1
469.474	9932.48
469.679	10106.56
469.885	9744.06
470.09	9875.13
470.295	9866.94
470.5	9277.13
470.705	9588.42
470.91	9350.85
471.115	9572.04
471.32	9467.59
471.525	9223.88
471.73	9170.63
471.935	9012.94
472.139	8943.31
472.344	9023.18
472.549	8713.94
472.754	8773.33
472.959	8781.52
473.164	8369.88
473.369	8306.39
473.574	8584.91
473.778	8359.64
473.983	8292.05
474.188	8302.29
474.393	7980.76
474.598	8081.11
474.802	8029.91
475.007	7935.71
475.212	7730.91
475.417	7507.68
475.621	7626.46
475.826	7763.68
476.031	7519.97
476.235	7347.94
476.44	7519.97
476.645	7280.36
476.849	7532.26
477.054	7280.36
477.259	6993.64
477.463	7245.54
477.668	7038.7
477.872	7040.75
478.077	6856.43
478.282	6614.77
478.486	6696.69
478.691	6682.35
478.895	6567.67
479.1	6444.79
479.304	6545.14
479.509	6500.08
479.713	6553.33
479.918	6369.01
480.122	6270.71
480.326	6586.1
480.531	6270.71
480.735	6344.44
480.94	6323.96
481.144	6401.78
481.348	6205.17
481.553	6338.29
481.757	6012.67
481.961	6115.06
482.166	6237.94
482.37	6201.08
482.574	6139.64
482.778	6235.89
482.983	6248.18
483.187	6223.61
483.391	6164.22
483.595	6045.43
483.8	6117.11
484.004	6205.17
484.208	6256.37
484.412	6063.86
484.616	6311.67
484.821	6131.45
485.025	6168.31
485.229	6141.69
485.433	6084.34
485.637	6082.3
485.841	6125.3
486.045	6067.96
486.249	6342.39
486.453	6123.26
486.657	6176.5
486.861	6180.6
487.065	5947.13
487.269	6192.89
487.473	6094.58
487.677	6209.27
487.881	6395.64
488.085	6049.53
488.289	6180.6
488.493	5990.14
488.697	6211.32
488.901	6063.86
489.105	6108.92
489.309	6108.92
489.512	6199.03
489.716	6164.22
489.92	6262.52
490.124	6184.69
490.328	6338.29
490.531	6225.65
490.735	6196.98
490.939	6231.8
491.143	6135.54
491.346	6233.85
491.55	6397.68
491.754	6280.95
491.958	6328.05
492.161	6270.71
492.365	6317.81
492.569	6262.52
492.772	6311.67
492.976	6278.9
493.18	6379.25
493.383	6536.95
493.587	6354.68
493.79	6670.06
493.994	6598.38
494.197	6590.19
494.401	6645.49
494.605	6692.59
494.808	6737.65
495.012	6852.33
495.215	6815.47
495.419	6991.59
495.622	6729.45
495.825	6936.3
496.029	7016.17
496.232	7089.9
496.436	7057.13
496.639	7261.93
496.843	7337.7
497.046	7255.78
497.249	7491.3
497.453	7474.92
497.656	7433.96
497.859	7390.95
498.063	7724.77
498.266	7728.86
498.469	7704.29
498.673	7792.35
498.876	7900.89
499.079	7808.73
499.282	7882.46
499.485	8146.65
499.689	8240.86
499.892	8025.82
500.095	8242.9
500.298	8515.28
500.501	8400.6
500.705	8556.24
500.908	8785.62
501.111	8738.51
501.314	8836.81
501.517	8904.4
501.72	9162.44
501.923	9176.78
502.126	9246.41
502.329	9363.14
502.532	9473.73
502.735	9549.51
502.938	9674.43
503.141	9782.98
503.344	9868.99
503.547	10055.36
503.75	10032.83
503.953	10157.75
504.156	10065.6
504.359	10190.52
504.562	10256.06
504.765	10512.05
504.968	10653.36
505.17	10616.5
505.373	10712.75
505.576	11003.57
505.779	10989.23
505.982	11155.12
506.185	11065
506.387	11325.1
506.59	11415.21
506.793	11738.79
506.996	11482.79
507.198	11921.06
507.401	12039.84
507.604	11816.61
507.807	12373.66
508.009	12371.61
508.212	12463.77
508.415	12607.12
508.617	12557.97
508.82	12615.32
509.022	12721.81
509.225	13149.84
509.428	13317.77
509.63	13317.77
509.833	13270.67
510.035	13563.53
510.238	13561.48
510.44	13692.55
510.643	14007.94
510.845	13975.17
511.048	13958.78
511.25	14308.99
511.453	14220.92
511.655	14978.67
511.858	14618.23
512.06	14642.81
512.262	14712.44
512.465	14954.1
512.667	15285.87
512.87	14950
513.072	15175.28
513.274	15599.21
513.477	15677.03
513.679	15777.38
513.881	15797.86
514.084	16342.62
514.286	16338.52
514.488	16279.13
514.69	17016.4
514.893	16774.74
515.095	16678.49
515.297	16860.76
515.499	17284.69
515.701	16903.76
515.904	17372.75
516.106	17407.56
516.308	17882.69
516.51	17905.22
516.712	17872.45
516.914	17882.69
517.116	18202.18
517.318	18302.53
517.52	18490.94
517.722	18642.49
517.925	18640.44
518.127	18705.98
518.329	18771.51
518.531	18974.26
518.733	19224.11
518.935	19588.65
519.136	19482.16
519.338	19811.88
519.54	19635.75
519.742	19836.45
519.944	19879.46
520.146	19844.65
520.348	20221.47
520.55	20655.64
520.752	20383.26
520.954	20829.72
521.155	20774.42
521.357	21018.13
521.559	21313.04
521.761	21327.38
521.963	21190.16
522.164	21173.78
522.366	21200.4
522.568	21624.33
522.77	21802.5
522.971	21925.38
523.173	22197.76
523.375	22001.16
523.576	21784.07
523.778	22050.31
523.98	22208
524.181	22150.66
524.383	22390.27
524.584	22486.53
524.786	22580.73
524.988	22558.21
525.189	22547.97
525.391	22668.8
525.592	23014.9
525.794	22908.41
525.995	22732.28
526.197	22922.74
526.398	23080.44
526.6	23062.01
526.801	23160.31
527.003	22988.28
527.204	23170.55
527.406	23414.26
527.607	23217.65
527.808	23494.13
528.01	22783.48
528.211	23004.66
528.412	23481.84
528.614	23051.77
528.815	23182.84
529.016	23371.25
529.218	23459.31
529.419	23332.34
529.62	23397.87
529.822	23465.46
530.023	23221.75
530.224	23350.77
530.425	23358.96
530.626	23289.33
530.828	23252.47
531.029	23641.58
531.23	23379.44
531.431	23283.19
531.632	23438.83
531.833	23299.57
532.035	23197.17
532.236	23334.39
532.437	23199.22
532.638	23160.31
532.839	23422.45
533.04	23344.63
533.241	23213.56
533.442	23369.2
533.643	23164.4
533.844	23350.77
534.045	22932.98
534.246	22867.45
534.447	23297.52
534.648	23092.72
534.849	22883.83
535.05	22939.13
535.251	22816.25
535.451	23008.76
535.652	22918.65
535.853	22967.8
536.054	23254.51
536.255	23125.49
536.456	22984.18
536.657	23137.78
536.857	23014.9
537.058	22289.92
537.259	22752.76
537.46	22679.04
537.66	22513.15
537.861	22812.15
538.062	22961.65
538.263	22576.64
538.463	22756.86
538.664	22867.45
538.865	22623.74
539.065	22470.14
539.266	22629.88
539.466	22910.46
539.667	22406.66
539.868	22521.34
540.068	22310.4
540.269	22615.55
540.469	22246.91
540.67	22597.12
540.87	22230.53
541.071	22547.97
541.271	22523.39
541.472	22181.38
541.672	22410.75
541.873	22390.27
542.073	22208
542.274	22455.81
542.474	22539.77
542.675	22146.56
542.875	22324.74
543.075	22289.92
543.276	22087.17
543.476	22500.86
543.676	21913.09
543.877	22365.7
544.077	22570.49
544.277	22003.21
544.478	21954.05
544.678	22199.81
544.878	22394.37
545.078	21851.66
545.279	22027.78
545.479	21917.19
545.679	22210.05
545.879	21876.23
546.079	22214.15
546.28	21945.86
546.48	22066.69
546.68	22523.39
546.88	22320.64
547.08	22224.39
547.28	22296.07
547.48	22042.12
547.68	22167.04
547.88	22031.88
548.081	22083.08
548.281	22220.29
548.481	22183.43
548.681	22017.54
548.881	21913.09
549.081	22001.16
549.28	22115.84
549.48	22093.32
549.68	22218.24
549.88	22181.38
550.08	21872.14
550.28	22083.08
550.48	22027.78
550.68	22347.26
550.88	21990.92
551.08	22152.71
551.279	21988.87
551.479	21794.31
551.679	22294.02
551.879	22103.56
552.079	22056.45
552.278	22418.94
552.478	22433.28
552.678	22259.2
552.878	22418.94
553.077	21982.73
553.277	22111.75
553.477	22455.81
553.676	22179.33
553.876	22466.05
554.076	22277.63
554.275	22351.36
554.475	22011.4
554.674	22031.88
554.874	22240.77
555.074	22218.24
555.273	22511.1
555.473	22246.91
555.672	22283.78
555.872	22154.76
556.071	22416.9
556.271	22502.91
556.47	22289.92
556.67	22027.78
556.869	22357.5
557.068	22695.42
557.268	22189.57
557.467	22265.35
557.667	22593.02
557.866	22646.27
558.065	22334.98
558.265	22312.45
558.464	22414.85
558.663	22435.33
558.863	22113.8
559.062	22867.45
559.261	22345.22
559.461	22547.97
559.66	22259.2
559.859	22189.57
560.058	21954.05
560.258	22306.3
560.457	22103.56
560.656	22175.23
560.855	22109.7
561.054	22701.56
561.253	22482.43
561.453	22461.95
561.652	22363.65
561.851	22257.15
562.05	22572.54
562.249	22173.19
562.448	22457.85
562.647	22113.8
562.846	22531.58
563.045	22130.18
563.244	22033.93
563.443	22347.26
563.642	22064.64
563.841	22162.95
564.04	22031.88
564.239	22193.67
564.438	22007.3
564.637	22095.36
564.836	22058.5
565.035	22005.25
565.234	22347.26
565.432	22062.6
565.631	22177.28
565.83	22126.08
566.029	22212.1
566.228	21749.26
566.427	21808.65
566.625	21708.3
566.824	21822.98
567.023	21995.01
567.222	21442.06
567.42	21749.26
567.619	21788.17
567.818	21741.07
568.016	21437.97
568.215	21978.63
568.414	21345.81
568.612	21689.87
568.811	21464.59
569.01	21339.66
569.208	21487.12
569.407	21505.55
569.605	21190.16
569.804	21618.19
570.002	21048.85
570.201	21276.18
570.4	21175.83
570.598	21321.23
570.797	21005.84
570.995	21327.38
571.193	20954.65
571.392	21046.8
571.59	20672.03
571.789	20950.55
571.987	21188.11
572.186	20844.06
572.384	20649.5
572.582	21161.49
572.781	20700.7
572.979	20622.87
573.177	20672.03
573.376	20723.23
573.574	20530.72
573.772	20575.77
573.971	20346.4
574.169	20354.59
574.367	20405.79
574.565	20573.72
574.763	20031.01
574.962	20164.13
575.16	20043.3
575.358	20153.89
575.556	19713.58
575.754	20422.17
575.952	19793.45
576.151	19996.2
576.349	19740.2
576.547	19760.68
576.745	19592.75
576.943	19439.15
577.141	19738.15
577.339	19543.6
577.537	19582.51
577.735	19412.53
577.933	19357.23
578.131	19525.16
578.329	19465.77
578.527	18918.96
578.725	19332.65
578.923	19328.56
579.121	19220.02
579.319	19152.43
579.516	18951.73
579.714	19158.58
579.912	18724.41
580.11	19170.86
580.308	18988.6
580.506	18894.39
580.704	18593.34
580.901	18835
581.099	18955.83
581.297	18470.46
581.495	18622.01
581.692	18671.16
581.89	18355.77
582.088	18497.08
582.285	18275.9
582.483	18466.36
582.681	18458.17
582.878	18110.02
583.076	18361.92
583.274	18472.51
583.471	18005.57
583.669	18208.32
583.866	18062.91
584.064	18067.01
584.262	17911.36
584.459	18222.66
584.657	17653.32
584.854	17806.92
585.052	17466.95
585.249	17684.04
585.447	17436.24
585.644	17593.93
585.841	17632.84
586.039	18132.54
586.236	17624.65
586.434	17661.51
586.631	17188.43
586.828	17509.96
587.026	17411.66
587.223	17235.53
587.42	17204.81
587.618	17380.94
587.815	17034.83
588.012	17354.32
588.21	17059.41
588.407	17319.5
588.604	17061.46
588.801	17028.69
588.999	17208.91
589.196	16946.77
589.393	17002.07
589.59	16750.17
589.787	16879.19
589.984	17075.79
590.182	16592.47
590.379	16805.46
590.576	16576.09
590.773	16688.73
590.97	16801.36
591.167	16688.73
591.364	16762.45
591.561	16735.83
591.758	16412.25
591.955	16580.18
592.152	16617.05
592.349	16285.28
592.546	16399.96
592.743	16328.28
592.94	16189.02
593.137	16326.24
593.334	16330.33
593.531	16281.18
593.727	16340.57
593.924	16256.61
594.121	16002.66
594.318	16283.23
594.515	16084.58
594.712	16311.9
594.908	16281.18
595.105	16125.54
595.302	16060
595.499	16260.7
595.696	16098.91
595.892	16082.53
596.089	15986.27
596.286	16023.14
596.482	15865.44
596.679	15871.59
596.876	15935.07
597.072	15912.55
597.269	15879.78
597.466	15572.58
597.662	15713.89
597.859	15773.28
598.055	15797.86
598.252	15816.29
598.448	15654.5
598.645	15797.86
598.841	15560.3
599.038	15892.07
599.234	15693.41
599.431	15478.38
599.627	15455.85
599.824	16000.61
600.02	15597.16
600.217	15480.43
600.413	15572.58
600.609	15502.95
600.806	15652.45
601.002	15705.7
601.198	15486.57
601.395	15554.15
601.591	15707.75
601.787	15478.38
601.984	15359.59
602.18	15701.61
602.376	15734.37
602.572	15644.26
602.769	15531.62
602.965	15355.5
603.161	15572.58
603.357	15662.69
603.553	15609.45
603.75	15652.45
603.946	15484.52
604.142	15646.31
604.338	15425.13
604.534	15650.41
604.73	15308.4
604.926	15556.2
605.122	15666.79
605.318	15367.79
605.514	15341.16
605.71	15548.01
605.906	15351.4
606.102	15572.58
606.298	15519.34
606.494	15476.33
606.69	15386.22
606.886	15543.91
607.082	15593.06
607.278	15482.47
607.474	15474.28
607.67	15535.72
607.866	15750.76
608.062	15838.82
608.257	15523.43
608.453	15541.86
608.649	15824.48
608.845	15818.34
609.041	15580.78
609.236	15855.2
609.432	15738.47
609.628	15713.89
609.824	15728.23
610.019	15631.97
610.215	15816.29
610.411	15816.29
610.606	15605.35
610.802	15705.7
610.998	15785.57
611.193	15756.9
611.389	15595.11
611.584	15822.44
611.78	15707.75
611.976	15857.25
612.171	15838.82
612.367	15656.55
612.562	15849.06
612.758	15685.22
612.953	15545.96
613.149	15945.31
613.344	15683.17
613.539	15625.83
613.735	15769.19
613.93	15834.72
614.126	15885.92
614.321	15830.63
614.517	16008.8
614.712	15883.87
614.907	15855.2
615.103	15828.58
615.298	15761
615.493	15994.47
615.688	15634.02
615.884	15801.96
616.079	15820.39
616.274	15740.52
616.47	15746.66
616.665	15808.1
616.86	15627.88
617.055	15779.43
617.25	15638.12
617.445	15584.87
617.641	15498.86
617.836	15998.56
618.031	15539.82
618.226	15695.46
618.421	15308.4
618.616	15599.21
618.811	15466.09
619.006	15548.01
619.201	15543.91
619.396	15361.64
619.591	15457.9
619.786	15234.67
619.981	15289.96
620.176	15251.05
620.371	15138.41
620.566	15156.85
620.761	15036.02
620.956	15324.78
621.151	14874.23
621.346	15009.39
621.541	14990.96
621.735	14970.48
621.93	14665.33
622.125	15109.74
622.32	14534.26
622.515	14757.49
622.709	14550.65
622.904	14638.71
623.099	14405.24
623.294	14431.87
623.488	14376.57
623.683	14245.5
623.878	14323.32
624.072	14278.27
624.267	14364.28
624.462	13979.26
624.656	14077.57
624.851	13940.35
625.046	13805.19
625.24	14096
625.435	13721.22
625.629	13799.04
625.824	13555.33
626.018	13573.77
626.213	13143.69
626.407	13602.44
626.602	13385.35
626.796	13389.45
626.991	13293.19
627.185	13153.93
627.38	13160.08
627.574	13137.55
627.768	13035.15
627.963	13029.01
628.157	12834.45
628.352	12795.54
628.546	12654.23
628.74	12656.28
628.935	12416.66
629.129	12834.45
629.323	12390.04
629.517	12586.65
629.712	12506.77
629.906	12113.56
630.1	12179.1
630.294	12134.04
630.489	12181.15
630.683	12099.23
630.877	12095.13
631.071	12029.6
631.265	12058.27
631.459	11775.65
631.653	12035.74
631.848	11857.57
632.042	11669.16
632.236	11497.13
632.43	11560.61
632.624	11669.16
632.818	11554.47
633.012	11519.65
633.206	11445.93
633.4	11206.31
633.594	11108.01
633.788	11304.62
633.982	11144.88
634.176	11247.27
634.369	11046.57
634.563	10895.02
634.757	10784.43
634.951	11128.49
635.145	11054.76
635.339	10802.86
635.533	10747.57
635.726	10651.31
635.92	10589.88
636.114	10528.44
636.308	10352.31
636.501	10358.46
636.695	10428.09
636.889	10213.05
637.083	10348.22
637.276	10211
637.47	10047.16
637.664	9981.63
637.857	10028.73
638.051	10002.11
638.244	9924.29
638.438	9973.44
638.632	9836.22
638.825	9776.83
639.019	9707.2
639.212	9559.75
639.406	9490.12
639.599	9488.07
639.793	9688.77
639.986	9516.74
640.18	9297.61
640.373	9361.09
640.567	9363.14
640.76	9168.59
640.954	9383.62
641.147	9227.98
641.34	9103.05
641.534	9279.18
641.727	9037.52
641.92	8933.07
642.114	8748.75
642.307	8892.11
642.5	8802
642.694	8646.35
642.887	8505.04
643.08	8828.62
643.273	8675.02
643.467	8589.01
643.66	8384.21
643.853	8433.36
644.046	8451.8
644.239	8148.7
644.432	8212.18
644.626	8220.38
644.819	8195.8
645.012	8208.09
645.205	8263.38
645.398	8160.98
645.591	8017.63
645.784	7909.08
645.977	7771.87
646.17	7827.17
646.363	7782.11
646.556	7673.57
646.749	7679.71
646.942	7886.56
647.135	7753.44
647.328	7597.79
647.521	7651.04
647.714	7345.89
647.907	7433.96
648.099	7384.8
648.292	7386.85
648.485	7331.56
648.678	7335.65
648.871	7237.35
649.064	7311.08
649.256	7157.48
649.449	7214.82
649.642	7200.49
649.835	7036.65
650.027	6885.1
650.22	7012.07
650.413	6784.75
650.605	6942.44
650.798	6858.48
650.991	6790.89
651.183	6815.47
651.376	6778.61
651.568	6823.66
651.761	6704.88
651.954	6768.37
652.146	6614.77
652.339	6774.51
652.531	6622.96
652.724	6391.54
652.916	6502.13
653.109	6491.89
653.301	6432.5
653.494	6541.04
653.686	6237.94
653.879	6356.72
654.071	6295.29
654.263	6303.48
654.456	6248.18
654.648	6266.61
654.84	6221.56
655.033	6106.87
655.225	5957.37
655.417	5779.2
655.61	5992.19
655.802	6057.72
655.994	5943.03
656.186	5852.92
656.379	5926.65
656.571	5877.5
656.763	5830.4
656.955	5705.47
657.148	5762.81
657.34	5627.65
657.532	5601.02
657.724	5566.21
657.916	5527.3
658.108	5721.85
658.3	5648.13
658.492	5650.18
658.684	5377.8
658.876	5431.04
659.068	5398.27
659.26	5428.99
659.452	5349.12
659.644	5297.92
659.836	5289.73
660.028	5504.77
660.22	5230.34
660.412	5211.91
660.604	5218.05
660.796	5168.9
660.988	5164.81
661.18	5183.24
661.372	5181.19
661.563	5080.84
661.755	5048.07
661.947	5068.55
662.139	4955.91
662.331	5000.97
662.522	4845.32
662.714	4880.14
662.906	4962.06
663.097	4861.71
663.289	4706.06
663.481	4738.83
663.673	4716.3
663.864	4828.94
664.056	4730.64
664.247	4620.05
664.439	4558.61
664.631	4626.19
664.822	4531.98
665.014	4464.4
665.205	4497.17
665.397	4419.35
665.588	4658.96
665.78	4505.36
665.971	4505.36
666.163	4405.01
666.354	4462.35
666.546	4386.58
666.737	4364.05
666.929	4327.19
667.12	4423.44
667.311	4151.06
667.503	4173.59
667.694	4296.47
667.885	4275.99
668.077	4220.69
668.268	4214.55
668.459	4058.9
668.651	4091.67
668.842	4126.49
669.033	4003.61
669.224	4167.45
669.416	4179.73
669.607	3837.72
669.798	3893.02
669.989	3936.03
670.18	3952.41
670.371	3903.26
670.563	3878.68
670.754	3940.12
670.945	3878.68
671.136	3878.68
671.327	3942.17
671.518	3878.68
671.709	3751.71
671.9	3854.11
672.091	3673.89
672.282	3739.42
672.473	3647.26
672.664	3716.89
672.855	3614.49
673.046	3747.61
673.237	3745.56
673.428	3731.23
673.619	3718.94
673.809	3634.97
674	3850.01
674.191	3594.01
674.382	3628.83
674.573	3534.62
674.764	3583.77
674.954	3579.68
675.145	3403.55
675.336	3510.05
675.527	3481.38
675.717	3346.21
675.908	3438.37
676.099	3417.89
676.289	3477.28
676.48	3370.79
676.671	3387.17
676.861	3397.41
677.052	3311.39
677.243	3462.94
677.433	3211.04
677.624	3397.41
677.814	3231.52
678.005	3229.48
678.195	3352.35
678.386	3346.21
678.576	3141.41
678.767	3206.95
678.957	3247.91
679.148	3252
679.338	3284.77
679.529	3141.41
679.719	3172.13
679.909	3290.92
680.1	3256.1
680.29	3215.14
680.481	3186.47
680.671	3174.18
680.861	3118.89
681.052	3092.26
681.242	3047.21
681.432	3192.61
681.622	3186.47
681.813	3241.76
682.003	3137.32
682.193	3198.76
682.383	3268.39
682.573	2987.82
682.764	3088.17
682.954	3055.4
683.144	3067.69
683.334	2938.66
683.524	3059.49
683.714	2830.12
683.904	3092.26
684.094	2928.42
684.284	2957.1
684.474	3133.22
684.664	3151.65
684.854	3065.64
685.044	2936.62
685.234	2895.66
685.424	3034.92
685.614	2909.99
685.804	2862.89
685.994	3004.2
686.184	2758.44
686.374	2948.9
686.564	2862.89
686.753	2869.03
686.943	2928.42
687.133	2918.18
687.323	2881.32
687.513	3043.11
687.702	2760.49
687.892	2766.64
688.082	2815.79
688.272	2903.85
688.461	2768.68
688.651	2760.49
688.841	2813.74
689.03	2875.18
689.22	2670.38
689.41	2666.28
689.599	2658.09
689.789	2641.71
689.979	2854.7
690.168	2735.92
690.358	2709.29
690.547	2592.56
690.737	2785.07
690.926	2674.48
691.116	2737.96
691.305	2764.59
691.495	2674.48
691.684	2713.39
691.874	2707.24
692.063	2600.75
692.252	2656.04
692.442	2627.37
692.631	2567.98
692.82	2643.76
693.01	2649.9
693.199	2623.28
693.388	2625.33
693.578	2561.84
693.767	2625.33
693.956	2545.45
694.146	2606.89
694.335	2547.5
694.524	2576.17
694.713	2459.44
694.902	2461.49
695.092	2541.36
695.281	2520.88
695.47	2504.5
695.659	2502.45
695.848	2457.39
696.037	2518.83
696.226	2486.06
696.415	2510.64
696.604	2486.06
696.793	2527.02
696.982	2529.07
697.171	2387.76
697.36	2398
697.549	2432.82
697.738	2434.86
697.927	2324.27
698.116	2494.26
698.305	2342.71
698.494	2463.54
698.683	2334.51
698.872	2504.5
699.061	2447.15
699.25	2346.8
699.438	2537.26
699.627	2346.8
699.816	2365.23
700.005	2242.36
700.193	2305.84
700.382	2402.1
700.571	2232.12
700.76	2447.15
700.948	2352.95
701.137	2398
701.326	2273.07
701.514	2408.24
701.703	2305.84
701.892	2283.31
702.08	2342.71
702.269	2217.78
702.457	2215.73
702.646	2268.98
702.834	2215.73
703.023	2174.77
703.212	2266.93
703.4	2307.89
703.589	2236.21
703.777	2260.79
703.965	2070.33
704.154	2248.5
704.342	2158.39
704.531	2144.05
704.719	2152.24
704.907	2195.25
705.096	2101.05
705.284	2207.54
705.472	2101.05
705.661	2154.29
705.849	2076.47
706.037	2193.2
706.226	2043.7
706.414	2103.09
706.602	2041.65
706.79	2123.57
706.979	2015.03
707.167	2068.28
707.355	2010.93
707.543	2015.03
707.731	2121.52
707.919	1949.5
708.107	2076.47
708.296	1922.87
708.484	1976.12
708.672	1994.55
708.86	2074.42
709.048	1961.78
709.236	1898.3
709.424	1998.65
709.612	2111.29
709.8	1953.59
709.988	1916.73
710.176	1986.36
710.364	1937.21
710.551	1986.36
710.739	1896.25
710.927	1937.21
711.115	1916.73
711.303	1855.29
711.491	1896.25
711.679	1886.01
711.866	1976.12
712.054	1955.64
712.242	1847.1
712.43	1916.73
712.617	1883.96
712.805	1752.89
712.993	1824.57
713.181	1873.72
713.368	1902.39
713.556	1863.48
713.744	1732.41
713.931	1838.91
714.119	1873.72
714.306	1838.91
714.494	1881.91
714.682	1777.47
714.869	1693.5
715.057	1826.62
715.244	1773.37
715.432	1791.8
715.619	1836.86
715.807	1707.84
715.994	1863.48
716.182	1728.31
716.369	1734.46
716.556	1675.07
716.744	1722.17
716.931	1642.3
717.119	1666.88
717.306	1738.55
717.493	1736.51
717.681	1685.31
717.868	1802.04
718.055	1879.86
718.242	1699.64
718.43	1578.81
718.617	1677.12
718.804	1609.53
718.991	1617.72
719.179	1593.15
719.366	1642.3
719.553	1666.88
719.74	1687.36
719.927	1687.36
720.114	1597.24
720.301	1681.21
720.488	1511.23
720.676	1589.05
720.863	1605.44
721.05	1636.16
721.237	1523.52
721.424	1560.38
721.611	1601.34
721.798	1486.65
721.985	1527.61
722.172	1478.46
722.358	1513.28
722.545	1568.57
722.732	1476.41
722.919	1623.87
723.106	1423.17
723.293	1474.37
723.48	1472.32
723.667	1486.65
723.853	1523.52
724.04	1564.48
724.227	1447.74
724.414	1513.28
724.6	1535.81
724.787	1519.42
724.974	1550.14
725.161	1421.12
725.347	1396.54
725.534	1431.36
725.72	1419.07
725.907	1464.13
726.094	1404.74
726.28	1429.31
726.467	1414.98
726.653	1431.36
726.84	1427.26
727.027	1392.45
727.213	1384.26
727.4	1392.45
727.586	1437.5
727.773	1412.93
727.959	1369.92
728.145	1457.98
728.332	1304.39
728.518	1331.01
728.705	1328.96
728.891	1380.16
729.077	1333.06
729.264	1269.57
729.45	1290.05
729.636	1445.7
729.823	1314.63
730.009	1380.16
730.195	1421.12
730.382	1242.95
730.568	1181.51
730.754	1349.44
730.94	1216.32
731.126	1314.63
731.313	1339.2
731.499	1312.58
731.685	1355.58
731.871	1316.67
732.057	1369.92
732.243	1331.01
732.429	1343.3
732.615	1296.19
732.801	1253.19
732.987	1134.4
733.173	1199.94
733.359	1249.09
733.545	1224.51
733.731	1120.07
733.917	1265.47
734.103	1351.49
734.289	1154.88
734.475	1187.65
734.661	1228.61
734.847	1154.88
735.033	1324.87
735.219	1199.94
735.404	1234.75
735.59	1218.37
735.776	1126.21
735.962	1183.56
736.148	1208.13
736.333	1238.85
736.519	1130.31
736.705	1148.74
736.89	1253.19
737.076	1138.5
737.262	1142.6
737.447	1175.36
737.633	1142.6
737.819	1195.84
738.004	1144.64
738.19	1126.21
738.375	1042.25
738.561	1144.64
738.747	1150.79
738.932	1048.39
739.118	1097.54
739.303	1204.03
739.489	1054.53
739.674	1111.88
739.859	1087.3
740.045	1134.4
740.23	1072.96
740.416	968.52
740.601	1021.77
740.786	1011.53
740.972	1032.01
741.157	1093.44
741.342	1038.15
741.528	1064.77
741.713	935.75
741.898	1007.43
742.084	1070.92
742.269	1056.58
742.454	1052.49
742.639	1044.29
742.824	1089.35
743.01	941.89
743.195	1029.96
743.38	931.66
743.565	958.28
743.75	927.56
743.935	1003.33
744.12	1048.39
744.305	978.76
744.49	864.07
744.675	896.84
744.86	929.61
745.045	972.61
745.23	1052.49
745.415	941.89
745.6	915.27
745.785	974.66
745.97	968.52
746.155	927.56
746.34	941.89
746.525	890.7
746.71	923.46
746.895	882.5
747.079	829.26
747.264	857.93
747.449	945.99
747.634	962.37
747.819	915.27
748.003	814.92
748.188	802.63
748.373	841.54
748.557	907.08
748.742	759.63
748.927	816.97
749.111	782.15
749.296	872.26
749.481	808.78
749.665	843.59
749.85	741.19
750.034	831.3
750.219	790.35
750.404	749.39
750.588	769.87
750.773	782.15
750.957	857.93
751.141	735.05
751.326	790.35
751.51	683.85
751.695	819.02
751.879	671.56
752.064	743.24
752.248	743.24
752.432	790.35
752.617	718.67
752.801	745.29
752.985	728.91
753.17	741.19
753.354	745.29
753.538	769.87
753.722	659.28
753.907	653.13
754.091	685.9
754.275	724.81
754.459	708.43
754.643	669.52
754.828	661.32
755.012	714.57
755.196	636.75
755.38	669.52
755.564	687.95
755.748	659.28
755.932	712.52
756.116	620.36
756.3	681.8
756.484	538.45
756.668	720.71
756.852	614.22
757.036	649.04
757.22	636.75
757.404	599.88
757.588	569.16
757.772	642.89
757.956	579.4
758.14	626.51
758.323	536.4
758.507	603.98
758.691	620.36
758.875	591.69
759.059	546.64
759.242	556.88
759.426	636.75
759.61	620.36
759.794	569.16
759.977	675.66
760.161	620.36
760.345	638.8
760.528	642.89
760.712	511.82
760.895	626.51
761.079	511.82
761.263	620.36
761.446	532.3
761.63	601.93
761.813	479.05
761.997	456.53
762.18	462.67
762.364	470.86
762.547	472.91
762.731	528.21
762.914	528.21
763.098	442.19
763.281	493.39
763.464	503.63
763.648	493.39
763.831	536.4
764.015	427.85
764.198	438.09
764.381	440.14
764.564	487.25
764.748	462.67
764.931	528.21
765.114	485.2
765.297	524.11
765.481	540.49
765.664	528.21
765.847	423.76
766.03	548.68
766.213	446.29
766.397	481.1
766.58	472.91
766.763	552.78
766.946	511.82
767.129	429.9
767.312	491.34
767.495	456.53
767.678	528.21
767.861	479.05
768.044	454.48
768.227	393.04
768.41	489.29
768.593	563.02
768.776	331.6
768.959	409.42
769.142	569.16
769.324	446.29
769.507	448.33
769.69	358.22
769.873	495.44
770.056	511.82
770.239	524.11
770.421	487.25
770.604	515.92
770.787	429.9
770.97	425.81
771.152	390.99
771.335	442.19
771.518	347.98
771.7	382.8
771.883	515.92
772.066	458.57
772.248	393.04
772.431	407.38
772.613	397.14
772.796	352.08
772.978	401.23
773.161	462.67
773.343	411.47
773.526	372.56
773.708	366.42
773.891	356.18
774.073	327.5
774.256	382.8
774.438	429.9
774.621	388.94
774.803	411.47
774.985	378.7
775.168	376.66
775.35	401.23
775.532	378.7
775.715	364.37
775.897	393.04
776.079	366.42
776.261	331.6
776.444	407.38
776.626	298.83
776.808	323.41
776.99	356.18
777.173	384.85
777.355	372.56
777.537	339.79
777.719	378.7
777.901	245.59
778.083	350.03
778.265	315.22
778.447	319.31
778.629	251.73
778.811	382.8
778.993	384.85
779.175	358.22
779.357	413.52
779.539	261.97
779.721	298.83
779.903	266.07
780.085	212.82
780.267	405.33
780.449	327.5
780.631	274.26
780.812	333.65
780.994	239.44
781.176	325.46
781.358	309.07
781.54	227.15
781.721	333.65
781.903	343.89
782.085	298.83
782.267	405.33
782.448	274.26
782.63	315.22
782.812	347.98
782.993	259.92
783.175	278.35
783.357	302.93
783.538	296.78
783.72	196.43
783.901	225.11
784.083	311.12
784.264	288.59
784.446	241.49
784.627	284.5
784.809	237.39
784.99	257.87
785.172	253.78
785.353	231.25
785.535	218.96
785.716	247.63
785.897	194.39
786.079	270.16
786.26	296.78
786.441	276.31
786.623	196.43
786.804	276.31
786.985	159.57
787.167	276.31
787.348	227.15
787.529	212.82
787.71	290.64
787.891	249.68
788.073	212.82
788.254	126.8
788.435	237.39
788.616	223.06
788.797	243.54
788.978	249.68
789.159	192.34
789.34	290.64
789.522	257.87
789.703	157.52
789.884	257.87
790.065	229.2
790.246	257.87
790.427	218.96
790.607	259.92
790.788	294.74
790.969	118.61
791.15	169.81
791.331	229.2
791.512	216.91
791.693	163.67
791.874	135
792.054	208.72
792.235	216.91
792.416	139.09
792.597	229.2
792.778	192.34
792.958	180.05
793.139	178
793.32	151.38
793.5	194.39
793.681	204.63
793.862	239.44
794.042	143.19
794.223	102.23
794.404	141.14
794.584	96.08
794.765	184.15
794.945	159.57
795.126	200.53
795.306	192.34
795.487	159.57
795.667	106.32
795.848	135
796.028	159.57
796.209	169.81
796.389	184.15
796.57	159.57
796.75	94.04
796.93	196.43
797.111	155.47
797.291	110.42
797.471	208.72
797.652	167.76
797.832	171.86
798.012	155.47
798.192	145.24
798.373	118.61
798.553	223.06
798.733	135
798.913	114.52
799.093	161.62
799.274	161.62
799.454	135
799.634	94.04
799.814	165.71
799.994	77.65
800.174	85.84
800.354	89.94
800.534	73.56
800.714	139.09
800.894	157.52
801.074	59.22
801.254	3.93
801.434	155.47
801.614	159.57
801.794	89.94
801.974	718.67
802.154	24.4
802.334	135
802.514	167.76
802.693	114.52
802.873	159.57
803.053	132.95
803.233	87.89
803.413	98.13
803.592	155.47
803.772	89.94
803.952	194.39
804.131	77.65
804.311	114.52
804.491	143.19
804.67	110.42
804.85	16.21
805.03	114.52
805.209	77.65
805.389	81.75
805.568	122.71
805.748	163.67
805.928	118.61
806.107	124.76
806.287	126.8
806.466	167.76
806.646	96.08
806.825	46.93
807.004	110.42
807.184	175.95
807.363	91.99
807.543	106.32
807.722	79.7
807.901	98.13
808.081	102.23
808.26	94.04
808.439	57.17
808.619	94.04
808.798	141.14
808.977	106.32
809.156	114.52
809.336	128.85
809.515	114.52
809.694	120.66
809.873	61.27
810.052	145.24
810.231	169.81
810.411	85.84
810.59	122.71
810.769	135
810.948	100.18
811.127	104.28
811.306	61.27
811.485	32.6
811.664	67.41
811.843	102.23
812.022	85.84
812.201	55.12
812.38	126.8
812.559	96.08
812.737	53.08
812.916	61.27
813.095	46.93
813.274	73.56
813.453	22.36
813.632	85.84
813.811	85.84
813.989	71.51
814.168	44.88
814.347	-6.31
814.526	106.32
814.704	130.9
814.883	65.36
815.062	77.65
815.24	85.84
815.419	69.46
815.598	36.69
815.776	30.55
815.955	120.66
816.133	-20.65
816.312	53.08
816.49	94.04
816.669	71.51
816.847	87.89
817.026	87.89
817.204	1.88
817.383	69.46
817.561	102.23
817.74	44.88
817.918	94.04
818.097	20.31
818.275	126.8
818.453	91.99
818.632	151.38
818.81	48.98
818.988	-20.65
819.167	-0.17
819.345	36.69
819.523	28.5
819.701	132.95
819.879	139.09
820.058	12.12
820.236	-37.03
820.414	85.84
820.592	53.08
820.77	118.61
820.948	3.93
821.127	-28.84
821.305	61.27
821.483	8.02
821.661	87.89
821.839	75.6
822.017	22.36
822.195	77.65
822.373	69.46
822.551	28.5
822.729	57.17
822.907	28.5
823.085	143.19
823.262	53.08
823.44	18.26
823.618	94.04
823.796	16.21
823.974	69.46
824.152	44.88
824.329	81.75
824.507	126.8
824.685	132.95
824.863	10.07
825.04	8.02
825.218	55.12
825.396	73.56
825.574	38.74
825.751	10.07
825.929	61.27
826.107	73.56
826.284	83.8
826.462	118.61
826.639	-18.6
826.817	28.5
826.994	71.51
827.172	-28.84
827.349	96.08
827.527	53.08
827.704	55.12
827.882	53.08
828.059	18.26
828.237	48.98
828.414	32.6
828.591	5.97
828.769	-32.94
828.946	-2.22
829.124	91.99
829.301	71.51
829.478	61.27
829.655	24.4
829.833	-14.51
830.01	-12.46
830.187	55.12
830.364	48.98
830.542	48.98
830.719	12.12
830.896	36.69
831.073	96.08
831.25	98.13
831.427	-41.13
831.604	1.88
831.782	51.03
831.959	34.64
832.136	40.79
832.313	30.55
832.49	18.26
832.667	61.27
832.844	42.84
833.021	137.04
833.198	73.56
833.374	-8.36
833.551	10.07
833.728	36.69
833.905	44.88
834.082	-45.23
834.259	61.27
834.436	65.36
834.612	-12.46
834.789	83.8
834.966	53.08
835.143	91.99
835.319	40.79
835.496	79.7
835.673	151.38
835.85	65.36
836.026	28.5
836.203	96.08
836.38	36.69
836.556	26.45
836.733	8.02
836.909	128.85
837.086	22.36
837.262	36.69
837.439	55.12
837.616	53.08
837.792	-12.46
837.968	-12.46
838.145	44.88
838.321	38.74
838.498	89.94
838.674	104.28
838.851	30.55
839.027	48.98
839.203	-28.84
839.38	81.75
839.556	67.41
839.732	51.03
839.909	3.93
840.085	73.56
840.261	28.5
840.437	20.31
840.614	-41.13
840.79	48.98
840.966	44.88
841.142	16.21
841.318	-26.79
841.494	20.31
841.671	24.4
841.847	32.6
842.023	-41.13
842.199	155.47
842.375	102.23
842.551	-16.55
842.727	57.17
842.903	89.94
843.079	5.97
843.255	122.71
843.431	34.64
843.607	71.51
843.783	-53.42
843.959	114.52
844.134	61.27
844.31	53.08
844.486	53.08
844.662	12.12
844.838	-4.27
845.013	3.93
845.189	8.02
845.365	100.18
845.541	1.88
845.716	85.84
845.892	44.88
846.068	20.31
846.244	20.31
846.419	5.97
846.595	-28.84
846.77	-28.84
846.946	14.17
847.122	24.4
847.297	-12.46
847.473	71.51
847.648	-34.99
847.824	1.88
847.999	-75.95
848.175	-26.79
848.35	61.27
848.526	116.56
848.701	1.88
848.876	63.32
849.052	12.12
849.227	36.69
849.403	-53.42
849.578	53.08
849.753	69.46
849.929	28.5
850.104	-94.38
850.279	69.46
850.454	55.12
850.63	57.17
850.805	-20.65
850.98	57.17
851.155	-53.42
851.33	48.98
851.505	-0.17
851.681	57.17
851.856	-8.36
852.031	22.36
852.206	-28.84
852.381	-32.94
852.556	46.93
852.731	-26.79
852.906	63.32
853.081	20.31
853.256	-28.84
853.431	-0.17
853.606	65.36
853.781	-18.6
853.956	-22.7
854.131	-4.27
854.305	-37.03
854.48	-8.36
854.655	-28.84
854.83	106.32
855.005	36.69
855.18	12.12
855.354	46.93
855.529	20.31
855.704	30.55
855.879	36.69
856.053	28.5
856.228	55.12
856.403	-4.27
856.577	30.55
856.752	-73.9
856.926	22.36
857.101	-2.22
857.276	-61.61
857.45	46.93
857.625	14.17
857.799	-43.18
857.974	24.4
858.148	3.93
858.323	3.93
858.497	-57.51
858.672	-65.71
858.846	-4.27
859.02	53.08
859.195	1.88
859.369	28.5
859.543	22.36
859.718	-34.99
859.892	85.84
860.066	44.88
860.241	-73.9
860.415	-14.51
860.589	-28.84
860.763	-8.36
860.938	53.08
861.112	28.5
861.286	-53.42
861.46	79.7
861.634	-10.41
861.808	77.65
861.982	-4.27
862.157	-67.75
862.331	36.69
862.505	-26.79
862.679	-77.99
862.853	-45.23
863.027	26.45
863.201	61.27
863.375	-12.46
863.549	44.88
863.722	-37.03
863.896	-18.6
864.07	-12.46
864.244	3.93
864.418	48.98
864.592	-12.46
864.766	16.21
864.939	-24.75
865.113	65.36
865.287	71.51
865.461	40.79
865.634	24.4
865.808	-30.89
865.982	-8.36
866.156	3.93
866.329	102.23
866.503	-41.13
866.676	1.88
866.85	-18.6
867.024	40.79
867.197	96.08
867.371	118.61
867.544	-32.94
867.718	-4.27
867.891	-0.17
868.065	-12.46
868.238	53.08
868.412	34.64
868.585	-47.27
868.759	-4.27
868.932	104.28
869.105	22.36
869.279	-32.94
869.452	46.93
869.625	28.5
869.799	-10.41
869.972	-12.46
870.145	-43.18
870.319	-26.79
870.492	-18.6
870.665	5.97
870.838	-47.27
871.011	-28.84
871.185	-2.22
871.358	20.31
871.531	55.12
871.704	-45.23
871.877	53.08
872.05	-34.99
872.223	16.21
872.396	30.55
872.569	3.93
872.742	12.12
872.915	16.21
873.088	-37.03
873.261	-12.46
873.434	28.5
873.607	32.6
873.78	94.04
873.953	-112.81
874.126	18.26
874.299	14.17
874.471	-41.13
874.644	-20.65
874.817	-28.84
874.99	14.17
875.163	3.93
875.335	67.41
875.508	30.55
875.681	73.56
875.853	-57.51
876.026	14.17
876.199	-12.46
876.371	-12.46
876.544	10.07
876.717	-18.6
876.889	24.4
877.062	24.4
877.234	3.93
877.407	-41.13
877.579	44.88
877.752	-4.27
877.924	46.93
878.097	8.02
878.269	-41.13
878.442	-4.27
878.614	-37.03
878.786	44.88
878.959	71.51
879.131	28.5
879.303	-47.27
879.476	-61.61
879.648	-65.71
879.82	-6.31
879.993	-4.27
880.165	55.12
880.337	-90.28
880.509	-18.6
880.681	-34.99
880.854	-65.71
881.026	-20.65
881.198	53.08
881.37	5.97
881.542	-4.27
881.714	24.4
881.886	-37.03
882.058	-28.84
882.23	-0.17
882.402	10.07
882.574	-34.99
882.746	8.02
882.918	24.4
883.09	-6.31
883.262	-24.75
883.434	16.21
883.606	-86.19
883.778	10.07
883.95	48.98
884.122	5.97
884.293	-8.36
884.465	-24.75
884.637	53.08
884.809	-4.27
884.98	36.69
885.152	-45.23
885.324	96.08
885.496	-71.85
885.667	-32.94
885.839	40.79
886.011	40.79
886.182	8.02
886.354	53.08
886.525	-6.31
886.697	65.36
886.869	16.21
887.04	5.97
887.212	137.04
887.383	89.94
887.555	-45.23
887.726	22.36
887.897	-61.61
888.069	-12.46
888.24	-92.33
888.412	-61.61
888.583	-53.42
888.754	-12.46
888.926	-51.37
889.097	-86.19
889.268	20.31
889.44	-18.6
889.611	-61.61
889.782	44.88
889.953	-32.94
890.125	20.31
890.296	-100.52
890.467	8.02
890.638	20.31
890.809	-18.6
890.98	-77.99
891.151	-24.75
891.323	16.21
891.494	14.17
891.665	46.93
891.836	-37.03
892.007	20.31
892.178	-24.75
892.349	-71.85
892.52	3.93
892.691	-26.79
892.862	-22.7
893.032	-22.7
893.203	20.31
893.374	8.02
893.545	98.13
893.716	14.17
893.887	12.12
894.057	-4.27
894.228	-71.85
894.399	8.02
894.57	36.69
894.74	-32.94
894.911	44.88
895.082	-28.84
895.253	5.97
895.423	20.31
895.594	8.02
895.764	-34.99
895.935	63.32
896.106	-12.46
896.276	-43.18
896.447	-51.37
896.617	-61.61
896.788	5.97
896.958	-28.84
897.129	-16.55
897.299	16.21
897.47	-12.46
897.64	46.93
897.81	1.88
897.981	38.74
898.151	-28.84
898.322	-32.94
898.492	46.93
898.662	-37.03
898.832	-65.71
899.003	53.08
899.173	-12.46
899.343	12.12
899.513	-2.22
