Data from USB4F104151__115__14-31-12-911.txt Node

Date: Thu Mar 13 14:31:12 EDT 2025
User: louis
Spectrometer: USB4F10415
Trigger mode: 4
Integration Time (sec): 2.500000E-2
Scans to average: 1
Electric dark correction enabled: true
Nonlinearity correction enabled: false
Boxcar width: 0
XAxis mode: Wavelengths
Number of Pixels in Spectrum: 3648
>>>>>Begin Spectral Data<<<<<
178.204	-108.71
178.424	-108.71
178.644	-108.71
178.864	-127.14
179.084	-100.52
179.304	30.55
179.524	-2.22
179.744	-14.51
179.964	75.6
180.184	-43.18
180.404	12.12
180.624	22.36
180.844	-59.56
181.064	8.02
181.283	-22.7
181.503	-6.31
181.723	-0.17
181.943	-14.51
182.163	161.62
182.383	5.97
182.602	63.32
182.822	71.51
183.042	51.03
183.262	-2.22
183.482	48.98
183.701	-24.75
183.921	-8.36
184.141	14.17
184.361	14.17
184.58	53.08
184.8	57.17
185.02	57.17
185.239	91.99
185.459	91.99
185.679	87.89
185.898	-8.36
186.118	48.98
186.338	34.64
186.557	81.75
186.777	-14.51
186.997	96.08
187.216	55.12
187.436	100.18
187.655	63.32
187.875	108.37
188.095	73.56
188.314	48.98
188.534	32.6
188.753	-18.6
188.973	120.66
189.192	55.12
189.412	30.55
189.631	1.88
189.851	8.02
190.07	71.51
190.29	-2.22
190.509	55.12
190.729	-0.17
190.948	91.99
191.168	157.52
191.387	100.18
191.607	-34.99
191.826	30.55
192.045	104.28
192.265	-12.46
192.484	36.69
192.704	75.6
192.923	-34.99
193.142	128.85
193.362	8.02
193.581	26.45
193.8	-2.22
194.02	77.65
194.239	61.27
194.458	73.56
194.678	1.88
194.897	16.21
195.116	59.22
195.335	75.6
195.555	81.75
195.774	46.93
195.993	46.93
196.212	38.74
196.432	71.51
196.651	87.89
196.87	71.51
197.089	89.94
197.308	94.04
197.528	96.08
197.747	71.51
197.966	-6.31
198.185	30.55
198.404	55.12
198.623	30.55
198.842	53.08
199.062	79.7
199.281	65.36
199.5	14.17
199.719	55.12
199.938	-12.46
200.157	30.55
200.376	104.28
200.595	46.93
200.814	51.03
201.033	38.74
201.252	171.86
201.471	-2.22
201.69	63.32
201.909	30.55
202.128	59.22
202.347	108.37
202.566	55.12
202.785	-47.27
203.004	-26.79
203.223	188.24
203.442	55.12
203.661	91.99
203.879	71.51
204.098	38.74
204.317	51.03
204.536	63.32
204.755	79.7
204.974	71.51
205.193	14.17
205.411	165.71
205.63	59.22
205.849	40.79
206.068	89.94
206.287	36.69
206.505	34.64
206.724	30.55
206.943	38.74
207.162	71.51
207.381	67.41
207.599	-2.22
207.818	36.69
208.037	22.36
208.255	55.12
208.474	83.8
208.693	79.7
208.911	55.12
209.13	26.45
209.349	83.8
209.567	116.56
209.786	46.93
210.005	16.21
210.223	73.56
210.442	-22.7
210.661	46.93
210.879	-10.41
211.098	102.23
211.316	57.17
211.535	79.7
211.753	38.74
211.972	48.98
212.191	-10.41
212.409	69.46
212.628	12.12
212.846	46.93
213.065	-8.36
213.283	145.24
213.502	46.93
213.72	57.17
213.938	34.64
214.157	55.12
214.375	98.13
214.594	-18.6
214.812	63.32
215.031	69.46
215.249	46.93
215.467	63.32
215.686	112.47
215.904	79.7
216.122	67.41
216.341	63.32
216.559	38.74
216.778	65.36
216.996	5.97
217.214	10.07
217.432	14.17
217.651	8.02
217.869	71.51
218.087	-4.27
218.306	-14.51
218.524	91.99
218.742	22.36
218.96	30.55
219.179	104.28
219.397	22.36
219.615	137.04
219.833	71.51
220.051	16.21
220.27	73.56
220.488	55.12
220.706	79.7
220.924	34.64
221.142	83.8
221.36	12.12
221.578	30.55
221.796	89.94
222.015	-10.41
222.233	8.02
222.451	141.14
222.669	20.31
222.887	24.4
223.105	46.93
223.323	48.98
223.541	-8.36
223.759	77.65
223.977	44.88
224.195	165.71
224.413	71.51
224.631	30.55
224.849	-10.41
225.067	85.84
225.285	91.99
225.503	-16.55
225.721	48.98
225.939	48.98
226.157	79.7
226.375	178
226.592	-2.22
226.81	-2.22
227.028	46.93
227.246	55.12
227.464	30.55
227.682	67.41
227.9	91.99
228.117	81.75
228.335	98.13
228.553	8.02
228.771	106.32
228.989	81.75
229.206	63.32
229.424	51.03
229.642	-14.51
229.86	87.89
230.077	46.93
230.295	8.02
230.513	83.8
230.731	14.17
230.948	120.66
231.166	71.51
231.384	38.74
231.601	40.79
231.819	145.24
232.037	71.51
232.254	-6.31
232.472	51.03
232.689	-18.6
232.907	94.04
233.125	65.36
233.342	-34.99
233.56	16.21
233.777	32.6
233.995	12.12
234.213	57.17
234.43	14.17
234.648	22.36
234.865	40.79
235.083	98.13
235.3	63.32
235.518	1.88
235.735	112.47
235.953	91.99
236.17	91.99
236.388	38.74
236.605	89.94
236.822	104.28
237.04	94.04
237.257	75.6
237.475	1.88
237.692	40.79
237.909	55.12
238.127	-32.94
238.344	59.22
238.562	38.74
238.779	16.21
238.996	16.21
239.214	30.55
239.431	79.7
239.648	87.89
239.865	26.45
240.083	16.21
240.3	67.41
240.517	79.7
240.735	14.17
240.952	124.76
241.169	34.64
241.386	51.03
241.603	5.97
241.821	22.36
242.038	16.21
242.255	139.09
242.472	-41.13
242.689	77.65
242.907	73.56
243.124	-2.22
243.341	116.56
243.558	22.36
243.775	-34.99
243.992	63.32
244.209	89.94
244.426	75.6
244.643	44.88
244.86	8.02
245.078	30.55
245.295	5.97
245.512	32.6
245.729	89.94
245.946	85.84
246.163	79.7
246.38	46.93
246.597	38.74
246.814	5.97
247.031	63.32
247.248	55.12
247.464	73.56
247.681	-41.13
247.898	1.88
248.115	14.17
248.332	-43.18
248.549	100.18
248.766	94.04
248.983	81.75
249.2	-0.17
249.417	-51.37
249.633	55.12
249.85	114.52
250.067	-51.37
250.284	96.08
250.501	67.41
250.717	100.18
250.934	42.84
251.151	48.98
251.368	104.28
251.585	30.55
251.801	-45.23
252.018	-39.08
252.235	30.55
252.451	22.36
252.668	-2.22
252.885	55.12
253.102	22.36
253.318	30.55
253.535	34.64
253.752	46.93
253.968	75.6
254.185	14.17
254.401	8.02
254.618	8.02
254.835	59.22
255.051	143.19
255.268	96.08
255.484	5.97
255.701	36.69
255.917	81.75
256.134	-0.17
256.351	91.99
256.567	-24.75
256.784	55.12
257	14.17
257.217	46.93
257.433	151.38
257.65	51.03
257.866	14.17
258.082	-6.31
258.299	38.74
258.515	63.32
258.732	53.08
258.948	55.12
259.165	-14.51
259.381	69.46
259.597	83.8
259.814	46.93
260.03	5.97
260.246	22.36
260.463	81.75
260.679	108.37
260.895	46.93
261.112	46.93
261.328	67.41
261.544	10.07
261.761	120.66
261.977	22.36
262.193	-18.6
262.409	112.47
262.626	48.98
262.842	63.32
263.058	-37.03
263.274	55.12
263.49	61.27
263.707	100.18
263.923	91.99
264.139	87.89
264.355	108.37
264.571	145.24
264.787	53.08
265.004	106.32
265.22	34.64
265.436	87.89
265.652	63.32
265.868	48.98
266.084	79.7
266.3	16.21
266.516	83.8
266.732	96.08
266.948	46.93
267.164	61.27
267.38	71.51
267.596	42.84
267.812	71.51
268.028	120.66
268.244	51.03
268.46	81.75
268.676	-12.46
268.892	57.17
269.108	30.55
269.324	63.32
269.54	26.45
269.756	73.56
269.972	14.17
270.188	87.89
270.403	38.74
270.619	46.93
270.835	65.36
271.051	51.03
271.267	46.93
271.483	65.36
271.698	87.89
271.914	73.56
272.13	100.18
272.346	5.97
272.562	40.79
272.777	145.24
272.993	-0.17
273.209	75.6
273.425	48.98
273.64	79.7
273.856	38.74
274.072	8.02
274.287	75.6
274.503	106.32
274.719	71.51
274.934	59.22
275.15	51.03
275.366	-45.23
275.581	30.55
275.797	71.51
276.012	55.12
276.228	53.08
276.444	24.4
276.659	51.03
276.875	61.27
277.09	104.28
277.306	14.17
277.521	57.17
277.737	10.07
277.952	79.7
278.168	59.22
278.383	87.89
278.599	61.27
278.814	114.52
279.03	79.7
279.245	87.89
279.461	16.21
279.676	67.41
279.892	-10.41
280.107	96.08
280.322	-8.36
280.538	102.23
280.753	75.6
280.969	145.24
281.184	73.56
281.399	91.99
281.615	137.04
281.83	14.17
282.045	-26.79
282.26	40.79
282.476	48.98
282.691	61.27
282.906	71.51
283.122	46.93
283.337	53.08
283.552	112.47
283.767	-24.75
283.983	98.13
284.198	40.79
284.413	48.98
284.628	57.17
284.843	48.98
285.058	106.32
285.274	38.74
285.489	63.32
285.704	59.22
285.919	-2.22
286.134	65.36
286.349	79.7
286.564	30.55
286.779	77.65
286.995	24.4
287.21	-43.18
287.425	71.51
287.64	32.6
287.855	55.12
288.07	24.4
288.285	122.71
288.5	16.21
288.715	137.04
288.93	63.32
289.145	104.28
289.36	63.32
289.575	75.6
289.79	69.46
290.004	32.6
290.219	26.45
290.434	81.75
290.649	63.32
290.864	30.55
291.079	-2.22
291.294	-53.42
291.509	22.36
291.724	48.98
291.938	1.88
292.153	46.93
292.368	30.55
292.583	128.85
292.798	124.76
293.012	57.17
293.227	61.27
293.442	104.28
293.657	122.71
293.871	114.52
294.086	34.64
294.301	122.71
294.516	30.55
294.73	73.56
294.945	22.36
295.16	44.88
295.374	59.22
295.589	85.84
295.804	38.74
296.018	16.21
296.233	100.18
296.447	112.47
296.662	-59.56
296.877	120.66
297.091	139.09
297.306	75.6
297.52	-12.46
297.735	75.6
297.949	30.55
298.164	71.51
298.378	46.93
298.593	-16.55
298.807	48.98
299.022	34.64
299.236	83.8
299.451	69.46
299.665	94.04
299.88	71.51
300.094	-10.41
300.309	69.46
300.523	63.32
300.737	73.56
300.952	91.99
301.166	32.6
301.381	22.36
301.595	98.13
301.809	42.84
302.024	55.12
302.238	-12.46
302.452	55.12
302.667	30.55
302.881	118.61
303.095	110.42
303.309	75.6
303.524	59.22
303.738	104.28
303.952	-0.17
304.166	40.79
304.381	87.89
304.595	24.4
304.809	14.17
305.023	26.45
305.237	55.12
305.452	55.12
305.666	51.03
305.88	112.47
306.094	63.32
306.308	112.47
306.522	83.8
306.736	40.79
306.95	112.47
307.164	32.6
307.379	38.74
307.593	175.95
307.807	71.51
308.021	128.85
308.235	87.89
308.449	22.36
308.663	30.55
308.877	120.66
309.091	20.31
309.305	87.89
309.519	-10.41
309.733	81.75
309.947	24.4
310.161	89.94
310.374	118.61
310.588	91.99
310.802	38.74
311.016	28.5
311.23	55.12
311.444	-2.22
311.658	24.4
311.872	141.14
312.085	38.74
312.299	83.8
312.513	178
312.727	24.4
312.941	8.02
313.154	71.51
313.368	83.8
313.582	69.46
313.796	34.64
314.009	55.12
314.223	91.99
314.437	100.18
314.651	83.8
314.864	10.07
315.078	-43.18
315.292	1.88
315.505	96.08
315.719	94.04
315.933	57.17
316.146	38.74
316.36	-26.79
316.573	48.98
316.787	73.56
317.001	59.22
317.214	57.17
317.428	48.98
317.641	63.32
317.855	-2.22
318.068	71.51
318.282	96.08
318.495	122.71
318.709	12.12
318.922	30.55
319.136	83.8
319.349	108.37
319.563	16.21
319.776	106.32
319.99	1.88
320.203	48.98
320.417	96.08
320.63	14.17
320.843	130.9
321.057	112.47
321.27	65.36
321.483	96.08
321.697	120.66
321.91	-6.31
322.124	151.38
322.337	-2.22
322.55	38.74
322.763	89.94
322.977	124.76
323.19	-14.51
323.403	3.93
323.617	75.6
323.83	61.27
324.043	38.74
324.256	42.84
324.469	57.17
324.683	100.18
324.896	1.88
325.109	73.56
325.322	-63.66
325.535	104.28
325.748	46.93
325.962	63.32
326.175	22.36
326.388	155.47
326.601	73.56
326.814	46.93
327.027	22.36
327.24	96.08
327.453	51.03
327.666	79.7
327.879	81.75
328.092	55.12
328.305	61.27
328.518	108.37
328.731	34.64
328.944	63.32
329.157	120.66
329.37	-24.75
329.583	96.08
329.796	89.94
330.009	69.46
330.222	26.45
330.435	55.12
330.648	98.13
330.861	30.55
331.073	104.28
331.286	147.28
331.499	55.12
331.712	22.36
331.925	30.55
332.138	71.51
332.35	100.18
332.563	67.41
332.776	71.51
332.989	26.45
333.202	87.89
333.414	22.36
333.627	63.32
333.84	106.32
334.053	28.5
334.265	65.36
334.478	53.08
334.691	5.97
334.903	116.56
335.116	100.18
335.329	110.42
335.541	16.21
335.754	89.94
335.966	10.07
336.179	-16.55
336.392	55.12
336.604	34.64
336.817	96.08
337.029	-10.41
337.242	108.37
337.454	96.08
337.667	30.55
337.88	91.99
338.092	122.71
338.305	112.47
338.517	18.26
338.729	155.47
338.942	106.32
339.154	75.6
339.367	-30.89
339.579	30.55
339.792	55.12
340.004	98.13
340.217	28.5
340.429	81.75
340.641	34.64
340.854	106.32
341.066	104.28
341.278	63.32
341.491	161.62
341.703	96.08
341.915	40.79
342.128	32.6
342.34	42.84
342.552	-10.41
342.764	81.75
342.977	100.18
343.189	100.18
343.401	79.7
343.613	40.79
343.826	-37.03
344.038	79.7
344.25	34.64
344.462	-2.22
344.674	122.71
344.886	53.08
345.099	96.08
345.311	48.98
345.523	18.26
345.735	42.84
345.947	139.09
346.159	69.46
346.371	-0.17
346.583	18.26
346.795	206.67
347.007	-26.79
347.219	128.85
347.431	51.03
347.643	106.32
347.855	42.84
348.067	106.32
348.279	59.22
348.491	55.12
348.703	51.03
348.915	100.18
349.127	53.08
349.339	63.32
349.551	5.97
349.763	79.7
349.975	1.88
350.187	67.41
350.399	104.28
350.61	46.93
350.822	-18.6
351.034	48.98
351.246	79.7
351.458	130.9
351.669	73.56
351.881	91.99
352.093	32.6
352.305	100.18
352.517	53.08
352.728	75.6
352.94	71.51
353.152	46.93
353.363	32.6
353.575	106.32
353.787	141.14
353.999	79.7
354.21	106.32
354.422	34.64
354.633	16.21
354.845	79.7
355.057	79.7
355.268	91.99
355.48	87.89
355.692	20.31
355.903	89.94
356.115	75.6
356.326	40.79
356.538	75.6
356.749	-10.41
356.961	96.08
357.172	18.26
357.384	79.7
357.595	110.42
357.807	55.12
358.018	-16.55
358.23	65.36
358.441	124.76
358.653	5.97
358.864	46.93
359.075	32.6
359.287	67.41
359.498	155.47
359.709	55.12
359.921	38.74
360.132	116.56
360.344	55.12
360.555	87.89
360.766	-2.22
360.977	96.08
361.189	73.56
361.4	71.51
361.611	34.64
361.823	94.04
362.034	87.89
362.245	63.32
362.456	63.32
362.667	112.47
362.879	48.98
363.09	147.28
363.301	77.65
363.512	73.56
363.723	-73.9
363.935	96.08
364.146	169.81
364.357	20.31
364.568	79.7
364.779	38.74
364.99	102.23
365.201	30.55
365.412	106.32
365.623	-16.55
365.834	96.08
366.045	46.93
366.256	55.12
366.467	128.85
366.678	83.8
366.889	-16.55
367.1	122.71
367.311	79.7
367.522	32.6
367.733	71.51
367.944	87.89
368.155	61.27
368.366	34.64
368.577	59.22
368.788	5.97
368.999	59.22
369.209	112.47
369.42	83.8
369.631	139.09
369.842	71.51
370.053	63.32
370.264	102.23
370.474	81.75
370.685	104.28
370.896	65.36
371.107	102.23
371.317	114.52
371.528	34.64
371.739	114.52
371.95	32.6
372.16	81.75
372.371	79.7
372.582	81.75
372.792	81.75
373.003	73.56
373.214	137.04
373.424	65.36
373.635	77.65
373.846	81.75
374.056	65.36
374.267	120.66
374.477	30.55
374.688	67.41
374.898	98.13
375.109	153.43
375.319	38.74
375.53	124.76
375.74	91.99
375.951	55.12
376.161	55.12
376.372	75.6
376.582	87.89
376.793	63.32
377.003	87.89
377.214	73.56
377.424	57.17
377.635	3.93
377.845	130.9
378.055	96.08
378.266	55.12
378.476	69.46
378.686	63.32
378.897	65.36
379.107	118.61
379.317	46.93
379.528	48.98
379.738	75.6
379.948	-4.27
380.158	57.17
380.369	79.7
380.579	202.58
380.789	63.32
380.999	55.12
381.21	130.9
381.42	178
381.63	40.79
381.84	128.85
382.05	59.22
382.261	167.76
382.471	59.22
382.681	106.32
382.891	157.52
383.101	91.99
383.311	-20.65
383.521	73.56
383.731	104.28
383.941	30.55
384.151	96.08
384.361	38.74
384.571	22.36
384.781	153.43
384.991	120.66
385.201	157.52
385.411	163.67
385.621	71.51
385.831	55.12
386.041	75.6
386.251	65.36
386.461	89.94
386.671	38.74
386.881	96.08
387.091	73.56
387.301	104.28
387.511	122.71
387.72	163.67
387.93	81.75
388.14	24.4
388.35	116.56
388.56	110.42
388.769	96.08
388.979	163.67
389.189	63.32
389.399	145.24
389.609	161.62
389.818	96.08
390.028	91.99
390.238	75.6
390.447	114.52
390.657	120.66
390.867	30.55
391.076	22.36
391.286	173.91
391.496	98.13
391.705	169.81
391.915	141.14
392.125	85.84
392.334	132.95
392.544	149.33
392.753	120.66
392.963	51.03
393.172	135
393.382	108.37
393.591	194.39
393.801	59.22
394.01	163.67
394.22	120.66
394.429	42.84
394.639	-10.41
394.848	42.84
395.058	108.37
395.267	137.04
395.477	128.85
395.686	59.22
395.895	231.25
396.105	237.39
396.314	186.19
396.524	63.32
396.733	116.56
396.942	130.9
397.152	143.19
397.361	153.43
397.57	112.47
397.78	208.72
397.989	180.05
398.198	196.43
398.407	139.09
398.617	118.61
398.826	112.47
399.035	102.23
399.244	186.19
399.453	186.19
399.663	73.56
399.872	100.18
400.081	153.43
400.29	139.09
400.499	137.04
400.708	221.01
400.917	155.47
401.127	120.66
401.336	137.04
401.545	153.43
401.754	108.37
401.963	153.43
402.172	182.1
402.381	100.18
402.59	171.86
402.799	145.24
403.008	157.52
403.217	153.43
403.426	155.47
403.635	108.37
403.844	280.4
404.053	161.62
404.262	155.47
404.471	253.78
404.68	210.77
404.888	175.95
405.097	194.39
405.306	239.44
405.515	235.35
405.724	266.07
405.933	292.69
406.142	300.88
406.35	245.59
406.559	245.59
406.768	290.64
406.977	294.74
407.185	311.12
407.394	319.31
407.603	280.4
407.812	384.85
408.02	270.16
408.229	268.11
408.438	350.03
408.646	407.38
408.855	393.04
409.064	399.18
409.272	366.42
409.481	448.33
409.69	415.57
409.898	489.29
410.107	460.62
410.315	474.96
410.524	415.57
410.733	477.01
410.941	429.9
411.15	464.72
411.358	497.49
411.567	532.3
411.775	575.31
411.984	626.51
412.192	632.65
412.401	610.12
412.609	655.18
412.818	706.38
413.026	687.95
413.234	714.57
413.443	798.54
413.651	800.59
413.86	800.59
414.068	902.98
414.276	905.03
414.485	792.39
414.693	862.02
414.901	972.61
415.11	933.7
415.318	1021.77
415.526	1003.33
415.734	974.66
415.943	1083.2
416.151	1165.12
416.359	1218.37
416.567	1140.55
416.776	1197.89
416.984	1333.06
417.192	1376.06
417.4	1367.87
417.608	1455.94
417.817	1541.95
418.025	1597.24
418.233	1632.06
418.441	1591.1
418.649	1668.92
418.857	1806.14
419.065	1873.72
419.273	1851.19
419.481	1943.35
419.689	2015.03
419.897	2068.28
420.105	2189.11
420.313	2211.64
420.521	2277.17
420.729	2348.85
420.937	2258.74
421.145	2340.66
421.353	2371.38
421.561	2686.76
421.769	2705.2
421.977	2889.51
422.185	2750.25
422.393	3036.97
422.601	3237.67
422.809	3088.17
423.017	3358.5
423.224	3209
423.432	3538.72
423.64	3540.77
423.848	3790.62
424.056	3587.87
424.263	4017.94
424.471	3923.74
424.679	4052.76
424.887	4261.65
425.094	4310.8
425.302	4456.21
425.51	4652.81
425.718	4593.42
425.925	4810.51
426.133	5089.03
426.341	5271.3
426.548	5609.22
426.756	5523.2
426.964	5713.66
427.171	5986.04
427.379	5820.16
427.586	6151.93
427.794	6274.81
428.001	6500.08
428.209	6686.45
428.417	6747.89
428.624	7329.51
428.832	7237.35
429.039	7120.62
429.247	7108.33
429.454	7980.76
429.662	8406.74
429.869	7948
430.076	8507.09
430.284	8089.31
430.491	8445.65
430.699	9094.86
430.906	9090.76
431.114	9041.61
431.321	9260.74
431.528	9674.43
431.736	10110.65
431.943	10763.95
432.15	10403.51
432.358	10526.39
432.565	11019.95
432.772	11081.39
432.979	11687.59
433.187	11613.86
433.394	11843.23
433.601	12412.57
433.808	12635.8
434.016	12457.62
434.223	12820.11
434.43	13827.71
434.637	13807.23
434.844	14399.1
435.052	14536.31
435.259	14800.5
435.466	14861.94
435.673	14704.24
435.88	15472.23
436.087	16320.09
436.294	16318.04
436.501	16025.18
436.708	16512.6
436.915	16991.83
437.122	17772.1
437.329	17806.92
437.537	18011.71
437.743	18310.72
437.95	18077.25
438.157	19201.58
438.364	19824.17
438.571	19727.91
438.778	19797.54
438.985	21691.91
439.192	20764.18
439.399	21620.24
439.606	21188.11
439.813	22394.37
440.02	23807.47
440.227	23248.37
440.433	23182.84
440.64	23510.51
440.847	23637.48
441.054	24227.3
441.261	25927.11
441.467	25306.58
441.674	25861.58
441.881	26852.8
442.088	26576.32
442.294	26207.69
442.501	27010.49
442.708	27549.1
442.914	28700.06
443.121	29828.49
443.328	28822.94
443.534	31327.61
443.741	30279.05
443.948	29789.58
444.154	32146.79
444.361	31939.95
444.568	31790.45
444.774	31743.34
444.981	32372.07
445.187	33080.67
445.394	35056.96
445.6	33951.06
445.807	37446.94
446.013	35616.05
446.22	36635.94
446.426	37952.79
446.633	38137.1
446.839	39875.83
447.046	37872.92
447.252	39781.62
447.459	40303.85
447.665	39707.9
447.871	41362.65
448.078	43306.18
448.284	41364.7
448.491	42513.61
448.697	44027.06
448.903	44752.04
449.11	44577.97
449.316	44385.46
449.522	45112.48
449.728	46279.83
449.935	46470.29
450.141	46662.8
450.347	47213.7
450.553	45673.63
450.76	46687.37
450.966	47848.57
451.172	47406.21
451.378	48876.65
451.584	47645.82
451.791	48710.77
451.997	48499.83
452.203	49491.04
452.409	49572.96
452.615	49372.26
452.821	46918.79
453.027	47340.67
453.233	49409.12
453.44	46988.42
453.646	47787.13
453.852	48024.7
454.058	49101.93
454.264	47524.99
454.47	48829.55
454.676	47510.66
454.882	49028.2
455.088	45169.83
455.294	45585.57
455.5	46163.09
455.705	46417.04
455.911	44352.69
456.117	43885.75
456.323	43564.22
456.529	41282.78
456.735	43164.87
456.941	41958.61
457.147	40926.44
457.352	40000.75
457.558	39595.26
457.764	39697.66
457.97	39054.59
458.176	37680.41
458.381	37704.98
458.587	36193.58
458.793	36291.88
458.999	34518.34
459.204	36662.57
459.41	35900.72
459.616	33490.26
459.821	33760.59
460.027	33545.56
460.233	32374.12
460.438	31118.71
460.644	31655.28
460.85	29945.23
461.055	29068.7
461.261	29414.8
461.466	27043.26
461.672	26148.29
461.878	28370.34
462.083	26320.32
462.289	26088.9
462.494	25734.6
462.7	24649.18
462.905	24053.22
463.111	24630.75
463.316	24729.05
463.522	24090.09
463.727	24239.59
463.932	23985.64
464.138	23653.87
464.343	23748.07
464.549	23160.31
464.754	23850.47
464.959	23803.37
465.165	23750.12
465.37	22420.99
465.575	22228.48
465.781	22709.75
465.986	22699.51
466.191	21976.58
466.397	21747.21
466.602	20420.13
466.807	21503.5
467.012	21671.43
467.218	21372.43
467.423	21149.2
467.628	21110.29
467.833	21972.49
468.038	21046.8
468.244	20706.84
468.449	21388.81
468.654	20610.59
468.859	20510.24
469.064	20469.28
469.269	19826.21
469.474	20055.59
469.679	20137.51
469.885	19676.71
470.09	19785.26
470.295	19455.53
470.5	19099.19
470.705	19523.12
470.91	18998.84
471.115	18837.05
471.32	19002.93
471.525	18841.14
471.73	18423.36
471.935	18468.41
472.139	17665.61
472.344	18034.24
472.549	17716.81
472.754	17600.07
472.959	17530.44
473.164	17014.35
473.369	16807.51
473.574	17382.99
473.778	17102.42
473.983	16934.48
474.188	16922.2
474.393	16186.97
474.598	16336.48
474.802	16234.08
475.007	16127.58
475.212	15824.48
475.417	15396.46
475.621	15332.97
475.826	15617.64
476.031	14954.1
476.235	14874.23
476.44	15195.76
476.645	14636.66
476.849	14972.53
477.054	14499.45
477.259	14395
477.463	14358.14
477.668	14155.39
477.872	14163.58
478.077	13889.15
478.282	13610.63
478.486	13602.44
478.691	13481.61
478.895	13452.94
479.1	13297.29
479.304	13360.78
479.509	12924.56
479.713	13141.64
479.918	12856.98
480.122	12701.33
480.326	12801.68
480.531	13024.91
480.735	12551.83
480.94	12713.62
481.144	13043.34
481.348	12447.38
481.553	12777.11
481.757	12136.09
481.961	12367.51
482.166	12590.74
482.37	12568.21
482.574	12424.86
482.778	12510.87
482.983	12408.47
483.187	12478.1
483.391	12691.09
483.595	12132
483.8	12195.48
484.004	12252.83
484.208	12349.08
484.412	12379.8
484.616	12332.7
484.821	12320.41
485.025	12291.74
485.229	12385.94
485.433	12181.15
485.637	12297.88
485.841	12144.28
486.045	12078.75
486.249	12195.48
486.453	12375.7
486.657	12379.8
486.861	12379.8
487.065	11896.48
487.269	12269.21
487.473	12070.56
487.677	12310.17
487.881	12437.14
488.085	12287.64
488.289	12459.67
488.493	12215.96
488.697	12459.67
488.901	12580.5
489.105	12365.46
489.309	12322.46
489.512	12551.83
489.716	12383.9
489.92	12258.97
490.124	12281.5
490.328	12732.05
490.531	12394.14
490.735	12406.42
490.939	12508.82
491.143	12600.98
491.346	12525.21
491.55	12693.14
491.754	12914.32
491.958	12883.6
492.161	12672.66
492.365	12850.83
492.569	12865.17
492.772	12730
492.976	13024.91
493.18	12994.19
493.383	13194.89
493.587	13229.71
493.79	13565.57
493.994	13112.97
494.197	13330.06
494.401	13434.5
494.605	13547.14
494.808	13409.93
495.012	13614.73
495.215	13719.17
495.419	13799.04
495.622	13639.3
495.825	14089.85
496.029	13850.24
496.232	14272.12
496.436	14319.23
496.639	14481.02
496.843	14257.79
497.046	14769.78
497.249	14960.24
497.453	14866.03
497.656	14923.38
497.859	15017.58
498.063	15132.27
498.266	15597.16
498.469	15500.9
498.673	15615.59
498.876	15976.03
499.079	15816.29
499.282	16004.71
499.485	16377.44
499.689	16442.97
499.892	16658.01
500.095	16735.83
500.298	17258.06
500.501	16975.44
500.705	17364.56
500.908	17602.12
501.111	17604.17
501.314	17864.26
501.517	18085.44
501.72	18306.62
501.923	18144.83
502.126	18601.53
502.329	18495.04
502.532	19146.29
502.735	18921.01
502.938	19371.57
503.141	19529.26
503.344	19953.19
503.547	19727.91
503.75	20053.54
503.953	20467.23
504.156	20674.07
504.359	20657.69
504.562	20760.09
504.765	21011.99
504.968	21747.21
505.17	21775.88
505.373	21423.63
505.576	22015.49
505.779	22261.25
505.982	22314.5
506.185	22873.59
506.387	22900.22
506.59	23047.67
506.793	23279.09
506.996	23494.13
507.198	24212.96
507.401	23913.96
507.604	24280.55
507.807	24638.94
508.009	24663.52
508.212	24929.75
508.415	25185.75
508.617	25355.73
508.82	25548.24
509.022	25789.9
509.225	26246.6
509.428	26410.43
509.63	26609.09
509.833	26559.94
510.035	27424.18
510.238	26990.01
510.44	27594.16
510.643	27973.03
510.845	27864.49
511.048	28380.58
511.25	28536.23
511.453	28855.71
511.655	30025.1
511.858	29351.32
512.06	29418.9
512.262	29973.9
512.465	29859.21
512.667	30131.59
512.87	30643.59
513.072	30807.42
513.274	31171.96
513.477	31767.92
513.679	31831.41
513.881	31935.85
514.084	32609.64
514.286	32302.44
514.488	32691.55
514.69	33228.12
514.893	33613.14
515.095	33678.68
515.297	33955.15
515.499	34194.76
515.701	34309.45
515.904	34983.23
516.106	34653.51
516.308	35323.19
516.51	35403.07
516.712	35671.35
516.914	36058.42
517.116	36539.69
517.318	36445.48
517.52	37029.15
517.722	37041.44
517.925	37389.59
518.127	37907.73
518.329	38046.99
518.531	37584.15
518.733	38573.32
518.935	38597.9
519.136	38601.99
519.338	39640.31
519.54	39521.53
519.742	39656.7
519.944	40023.28
520.146	40051.95
520.348	40412.4
520.55	40580.33
520.752	40729.83
520.954	41247.97
521.155	41020.64
521.357	41970.9
521.559	41841.88
521.761	42290.38
521.963	41993.43
522.164	42310.86
522.366	42513.61
522.568	42667.21
522.77	42986.69
522.971	43390.14
523.173	43064.52
523.375	43517.12
523.576	43623.61
523.778	43420.86
523.98	44256.43
524.181	44387.5
524.383	43902.14
524.584	45012.13
524.786	44721.32
524.988	44385.46
525.189	44917.93
525.391	45077.67
525.592	45202.6
525.794	45384.86
525.995	45409.44
526.197	44919.98
526.398	45460.64
526.6	45558.94
526.801	45759.64
527.003	45784.22
527.204	46005.4
527.406	46126.23
527.607	46304.4
527.808	46570.64
528.01	45907.1
528.211	46216.34
528.412	46920.84
528.614	46443.66
528.815	46607.5
529.016	47031.43
529.218	46404.75
529.419	46785.68
529.62	46568.59
529.822	46451.86
530.023	46435.47
530.224	46410.9
530.425	46466.19
530.626	46300.31
530.828	46105.75
531.029	46785.68
531.23	46179.48
531.431	46349.46
531.632	46681.23
531.833	46662.8
532.035	46851.21
532.236	46847.11
532.437	46826.63
532.638	46613.65
532.839	47139.97
533.04	47404.16
533.241	46478.48
533.442	46941.32
533.643	46640.27
533.844	46214.29
534.045	46828.68
534.246	46206.1
534.447	46754.96
534.648	46032.02
534.849	46734.48
535.05	46316.69
535.251	46394.51
535.451	45857.95
535.652	46716.04
535.853	45706.4
536.054	46308.5
536.255	46603.41
536.456	45814.94
536.657	46523.54
536.857	45894.81
537.058	45950.1
537.259	46328.98
537.46	45794.46
537.66	45673.63
537.861	46206.1
538.062	45909.14
538.263	46054.55
538.463	45911.19
538.664	45870.23
538.865	46363.79
539.065	46072.98
539.266	45499.55
539.466	45657.24
539.667	45677.72
539.868	46140.57
540.068	45722.78
540.269	45354.15
540.469	46343.31
540.67	45200.55
540.87	45687.96
541.071	45483.17
541.271	45896.86
541.472	45335.71
541.672	45335.71
541.873	45089.96
542.073	45223.08
542.274	46148.76
542.474	45550.75
542.675	45157.54
542.875	45950.1
543.075	45966.49
543.276	45227.17
543.476	45270.18
543.676	45044.9
543.877	45436.06
544.077	45507.74
544.277	45427.87
544.478	45364.39
544.678	45411.49
544.878	45470.88
545.078	44942.5
545.279	45065.38
545.479	45104.29
545.679	45194.4
545.879	45063.33
546.079	45345.95
546.28	45282.47
546.48	44958.89
546.68	45395.1
546.88	45335.71
547.08	45386.91
547.28	45092.01
547.48	44682.41
547.68	45122.72
547.88	44889.26
548.081	45081.77
548.281	45175.97
548.481	45028.52
548.681	45632.67
548.881	44821.67
549.081	44846.25
549.28	44864.68
549.48	45245.6
549.68	45116.58
549.88	45872.28
550.08	44922.02
550.28	45147.3
550.48	44672.17
550.68	45253.79
550.88	44919.98
551.08	44825.77
551.279	45196.45
551.479	44975.27
551.679	45120.68
551.879	44915.88
552.079	45546.65
552.278	45167.78
552.478	44922.02
552.678	45296.8
552.878	44905.64
553.077	44901.54
553.277	44813.48
553.477	45630.62
553.676	44930.22
553.876	45102.25
554.076	45040.81
554.275	44696.75
554.475	44559.53
554.674	45151.4
554.874	45141.16
555.074	44885.16
555.273	45288.61
555.473	45360.29
555.672	45198.5
555.872	45427.87
556.071	45354.15
556.271	45163.68
556.47	45151.4
556.67	44799.15
556.869	44854.44
557.068	45143.2
557.268	45051.05
557.467	45196.45
557.667	45165.73
557.866	45051.05
558.065	45286.56
558.265	45337.76
558.464	44719.27
558.663	45677.72
558.863	44684.46
559.062	45452.45
559.261	44833.96
559.461	45724.83
559.66	44584.11
559.859	45020.33
560.058	44422.32
560.258	45085.86
560.457	44526.77
560.656	44895.4
560.855	45034.66
561.054	45280.42
561.253	44729.51
561.453	45137.06
561.652	44795.05
561.851	44899.5
562.05	44952.74
562.249	44532.91
562.448	44913.83
562.647	44911.78
562.846	44971.18
563.045	44698.8
563.244	44113.08
563.443	44897.45
563.642	44440.75
563.841	44549.29
564.04	44414.13
564.239	44915.88
564.438	44301.49
564.637	44575.92
564.836	44754.09
565.035	44172.47
565.234	44735.66
565.432	44240.05
565.631	44233.91
565.83	44516.53
566.029	43984.05
566.228	44000.44
566.427	44068.02
566.625	44022.97
566.824	43904.18
567.023	44051.64
567.222	43474.11
567.42	44065.97
567.619	43885.75
567.818	43949.24
568.016	43431.1
568.215	43797.69
568.414	43533.5
568.612	43957.43
568.811	43252.93
569.01	43115.72
569.208	42861.77
569.407	43222.21
569.605	42937.54
569.804	43257.03
570.002	42941.64
570.201	43369.66
570.4	42798.28
570.598	42626.25
570.797	42605.77
570.995	42636.49
571.193	42001.62
571.392	42896.58
571.59	42202.32
571.789	42362.06
571.987	42124.5
572.186	42310.86
572.384	41878.74
572.582	42362.06
572.781	42169.55
572.979	41495.77
573.177	41839.83
573.376	42116.31
573.574	41264.35
573.772	41624.79
573.971	41725.14
574.169	41176.29
574.367	41503.96
574.565	41614.55
574.763	40924.39
574.962	41028.84
575.16	40670.44
575.358	41032.93
575.556	40357.1
575.754	41170.15
575.952	40361.2
576.151	41047.27
576.349	40234.22
576.547	40414.44
576.745	40498.41
576.943	40273.13
577.141	40340.72
577.339	40219.89
577.537	39927.03
577.735	39693.56
577.933	39791.86
578.131	39722.23
578.329	39386.36
578.527	39464.19
578.725	39292.16
578.923	39464.19
579.121	39070.98
579.319	39259.39
579.516	39111.94
579.714	38972.67
579.912	39183.62
580.11	38984.96
580.308	38980.87
580.506	38491.4
580.704	38116.62
580.901	38495.5
581.099	38817.03
581.297	38026.51
581.495	38276.37
581.692	38358.28
581.89	37647.64
582.088	38200.59
582.285	37725.46
582.483	37827.86
582.681	37831.96
582.878	37606.68
583.076	37268.76
583.274	38180.11
583.471	37188.89
583.669	37469.47
583.866	37240.09
584.064	37336.35
584.262	36705.57
584.459	37289.24
584.657	37014.82
584.854	36816.16
585.052	36486.44
585.249	37072.16
585.447	37152.03
585.644	36582.7
585.841	36658.47
586.039	36760.87
586.236	35878.19
586.434	36140.33
586.631	36169.01
586.828	36232.49
587.026	36218.16
587.223	36001.07
587.42	35669.3
587.618	35970.35
587.815	35941.68
588.012	35370.3
588.21	35437.88
588.407	35491.13
588.604	35206.46
588.801	34934.08
588.999	35149.12
589.196	34891.07
589.393	34927.94
589.59	35042.62
589.787	34710.85
589.984	34837.83
590.182	34172.24
590.379	34891.07
590.576	34348.36
590.773	34698.56
590.97	34162
591.167	34340.17
591.364	33949.01
591.561	34391.37
591.758	33951.06
591.955	34028.88
592.152	34180.43
592.349	33482.07
592.546	34211.15
592.743	33764.69
592.94	33424.73
593.137	33635.67
593.334	33887.57
593.531	33207.64
593.727	33865.04
593.924	33553.75
594.121	32974.17
594.318	33475.93
594.515	33236.31
594.712	33078.62
594.908	33334.62
595.105	33021.28
595.302	32826.72
595.499	32787.81
595.696	32611.68
595.892	32609.64
596.089	32888.16
596.286	32904.54
596.482	32703.84
596.679	32382.31
596.876	32687.46
597.072	32634.21
597.269	32650.6
597.466	32222.57
597.662	32099.69
597.859	32114.03
598.055	32357.74
598.252	31890.8
598.448	32552.29
598.645	32054.64
598.841	31892.85
599.038	31812.98
599.234	31540.6
599.431	31337.85
599.627	31778.16
599.824	32171.37
600.02	31823.22
600.217	31853.94
600.413	31772.02
600.609	31548.79
600.806	31530.36
601.002	31360.37
601.198	31403.38
601.395	31370.61
601.591	31380.85
601.787	31624.56
601.984	31337.85
602.18	31569.27
602.376	31538.55
602.572	31247.74
602.769	31387
602.965	30942.59
603.161	31577.46
603.357	31194.49
603.553	31290.74
603.75	30897.53
603.946	30823.81
604.142	31155.58
604.338	30674.31
604.534	31038.84
604.73	30817.66
604.926	30844.29
605.122	31163.77
605.318	30842.24
605.514	30682.5
605.71	30584.19
605.906	30801.28
606.102	30627.2
606.298	30659.97
606.494	30926.21
606.69	30834.05
606.886	30715.26
607.082	30449.03
607.278	30934.4
607.474	30356.87
607.67	30969.21
607.866	30084.49
608.062	31133.05
608.257	30604.67
608.453	30915.97
608.649	30819.71
608.845	30823.81
609.041	30588.29
609.236	31057.28
609.432	30580.1
609.628	30997.88
609.824	30942.59
610.019	30758.27
610.215	31108.47
610.411	30637.44
610.606	30666.11
610.802	30915.97
610.998	30719.36
611.193	30848.38
611.389	30768.51
611.584	30676.35
611.78	30631.3
611.976	30811.52
612.171	30793.09
612.367	30733.7
612.562	30557.57
612.758	30647.68
612.953	30383.49
613.149	30911.87
613.344	30659.97
613.539	31001.98
613.735	30670.21
613.93	30875.01
614.126	30788.99
614.321	30788.99
614.517	31188.35
614.712	30567.81
614.907	30674.31
615.103	30688.64
615.298	30557.57
615.493	31290.74
615.688	30365.06
615.884	31075.71
616.079	30094.73
616.274	30565.76
616.47	30508.42
616.665	30440.84
616.86	30522.76
617.055	30512.52
617.25	30277
617.445	31116.67
617.641	30244.23
617.836	30541.19
618.031	30207.37
618.226	30535.04
618.421	30035.34
618.616	30334.34
618.811	29605.27
619.006	30451.08
619.201	29486.48
619.396	29992.33
619.591	29670.8
619.786	30166.41
619.981	29605.27
620.176	29656.46
620.371	29240.73
620.566	29232.54
620.761	29136.28
620.956	29470.1
621.151	28851.61
621.346	28894.62
621.541	28618.14
621.735	28917.15
621.93	28470.69
622.125	28904.86
622.32	28108.2
622.515	28351.91
622.709	28423.59
622.904	27831.72
623.099	28163.5
623.294	28007.85
623.488	27766.19
623.683	28030.38
623.878	27479.47
624.072	27454.9
624.267	27338.16
624.462	27188.66
624.656	27059.64
624.851	26944.95
625.046	26844.6
625.24	26760.64
625.435	26701.25
625.629	26688.96
625.824	26185.16
626.018	26236.36
626.213	25843.15
626.407	26088.9
626.602	25765.32
626.796	25918.92
626.991	25601.49
627.185	25671.12
627.38	25064.92
627.574	24944.09
627.768	24853.98
627.963	24825.31
628.157	24657.37
628.352	25028.06
628.546	24325.6
628.74	24720.86
628.935	24227.3
629.129	24483.3
629.323	23946.73
629.517	23946.73
629.712	23971.3
629.906	23770.6
630.1	23500.27
630.294	23827.95
630.489	23231.99
630.683	23729.64
630.877	23156.21
631.071	23322.1
631.265	23279.09
631.459	22871.54
631.653	22918.65
631.848	23004.66
632.042	22351.36
632.236	22541.82
632.43	22406.66
632.624	22412.8
632.818	22013.45
633.012	21831.18
633.206	21833.22
633.4	21761.55
633.594	21569.04
633.788	21534.22
633.982	21626.38
634.176	21392.91
634.369	21298.7
634.563	21333.52
634.757	20915.73
634.951	21216.79
635.145	21075.48
635.339	21186.07
635.533	20590.11
635.726	20899.35
635.92	20405.79
636.114	20485.66
636.308	20317.73
636.501	20317.73
636.695	20299.3
636.889	20258.34
637.083	19762.73
637.276	19768.87
637.47	19648.04
637.664	19512.88
637.857	19406.38
638.051	19232.3
638.244	18890.29
638.438	18949.68
638.632	19095.09
638.825	18957.88
639.019	18767.41
639.212	18507.32
639.406	18554.43
639.599	18558.52
639.793	18607.67
639.986	18089.54
640.18	18386.49
640.373	18220.61
640.567	17866.31
640.76	17743.43
640.954	17405.52
641.147	17716.81
641.34	17456.71
641.534	17817.16
641.727	17612.36
641.92	17360.46
642.114	17069.65
642.307	17155.66
642.5	16938.58
642.694	17040.98
642.887	16277.08
643.08	16787.03
643.273	16721.49
643.467	16639.58
643.66	16582.23
643.853	16121.44
644.046	16211.55
644.239	16293.47
644.432	16086.62
644.626	16084.58
644.819	15892.07
645.012	15941.22
645.205	16100.96
645.398	15750.76
645.591	15658.6
645.784	15490.66
645.977	15257.2
646.17	15257.2
646.363	15375.98
646.556	14863.99
646.749	15066.74
646.942	15226.48
647.135	14976.62
647.328	14843.51
647.521	14788.21
647.714	14607.99
647.907	14925.43
648.099	14558.84
648.292	14399.1
648.485	14343.8
648.678	14063.23
648.871	14374.52
649.064	14237.31
649.256	14280.32
649.449	13907.59
649.642	14075.52
649.835	13663.88
650.027	13764.23
650.22	13391.5
650.413	13629.06
650.605	13432.46
650.798	13491.85
650.991	13373.07
651.183	13170.32
651.376	13131.4
651.568	13428.36
651.761	13110.93
651.954	13227.66
652.146	12719.76
652.339	13049.49
652.531	12695.19
652.724	12699.28
652.916	12392.09
653.109	12787.35
653.301	12414.62
653.494	12555.93
653.686	12220.06
653.879	12492.44
654.071	12230.3
654.263	12420.76
654.456	12197.53
654.648	12199.58
654.84	11845.28
655.033	11935.39
655.225	11959.97
655.417	11792.03
655.61	11617.96
655.802	11876
655.994	11624.1
656.186	11484.84
656.379	11466.41
656.571	11542.18
656.763	11296.42
656.955	11159.21
657.148	11364.01
657.34	11175.59
657.532	11081.39
657.724	11105.96
657.916	11081.39
658.108	11089.58
658.3	10925.74
658.492	10960.56
658.684	10911.41
658.876	10774.19
659.068	10747.57
659.26	10743.47
659.452	10489.53
659.644	10358.46
659.836	10467
660.028	10395.32
660.22	10434.23
660.412	10354.36
660.604	10131.13
660.796	10149.56
660.988	10032.83
661.18	10319.54
661.372	9963.2
661.563	10278.58
661.755	10124.99
661.947	9885.37
662.139	9934.53
662.331	9809.6
662.522	9656
662.714	9705.15
662.906	9598.66
663.097	9492.16
663.289	9782.98
663.481	9436.87
663.673	9402.05
663.864	9336.52
664.056	9350.85
664.247	9238.22
664.439	8986.32
664.631	9133.77
664.822	9002.7
665.014	9340.61
665.205	9021.13
665.397	9158.35
665.588	8926.93
665.78	8910.54
665.971	8900.3
666.163	8650.45
666.354	8842.96
666.546	8789.71
666.737	8552.15
666.929	8732.37
667.12	8715.98
667.311	8503
667.503	8421.08
667.694	8509.14
667.885	8353.49
668.077	8492.76
668.268	8134.36
668.459	8451.8
668.651	8369.88
668.842	8201.94
669.033	8394.45
669.224	8124.12
669.416	8259.29
669.607	8144.6
669.798	8079.07
669.989	8240.86
670.18	8074.97
670.371	8050.39
670.563	7884.51
670.754	7890.65
670.945	7952.09
671.136	8156.89
671.327	7780.06
671.518	7759.58
671.709	7745.25
671.9	7737.06
672.091	7739.1
672.282	7575.27
672.473	7468.77
672.664	7497.44
672.855	7505.63
673.046	7706.34
673.237	7532.26
673.428	7562.98
673.619	7550.69
673.809	7526.11
674	7306.98
674.191	7311.08
674.382	7423.72
674.573	7272.17
674.764	7407.33
674.954	7337.7
675.145	7306.98
675.336	7163.62
675.527	7055.08
675.717	7216.87
675.908	7079.66
676.099	7077.61
676.289	7194.34
676.48	7110.38
676.671	7089.9
676.861	6989.55
677.052	6985.45
677.243	6954.73
677.433	7206.63
677.624	7067.37
677.814	6934.25
678.005	6971.11
678.195	6852.33
678.386	6762.22
678.576	6721.26
678.767	6975.21
678.957	6819.57
679.148	6827.76
679.338	6715.12
679.529	6764.27
679.719	6846.19
679.909	6821.61
680.1	6612.72
680.29	6829.81
680.481	6629.1
680.671	6838
680.861	6682.35
681.052	6534.9
681.242	6633.2
681.432	6772.46
681.622	6495.99
681.813	6397.68
682.003	6551.28
682.193	6625.01
682.383	6625.01
682.573	6627.06
682.764	6442.74
682.954	6633.2
683.144	6680.3
683.334	6373.11
683.524	6473.46
683.714	6551.28
683.904	6366.96
684.094	6526.71
684.284	6444.79
684.474	6569.71
684.664	6305.53
684.854	6377.2
685.044	6266.61
685.234	6258.42
685.424	6213.37
685.614	6254.33
685.804	6428.4
685.994	6307.57
686.184	6403.83
686.374	6192.89
686.564	6139.64
686.753	6299.38
686.943	6037.24
687.133	6010.62
687.323	6002.43
687.513	5983.99
687.702	6182.65
687.892	5986.04
688.082	5973.75
688.272	6035.19
688.461	5940.99
688.651	6110.97
688.841	5930.75
689.03	5820.16
689.22	5805.82
689.41	5883.64
689.599	5797.63
689.789	5920.51
689.979	5762.81
690.168	5740.29
690.358	5832.44
690.547	5666.56
690.737	5807.87
690.926	5701.37
691.116	5568.26
691.305	5666.56
691.495	5707.52
691.684	5601.02
691.874	5740.29
692.063	5541.63
692.252	5580.54
692.442	5531.39
692.631	5545.73
692.82	5406.47
693.01	5531.39
693.199	5439.23
693.388	5355.27
693.578	5330.69
693.767	5441.28
693.956	5461.76
694.146	5283.59
694.335	5326.6
694.524	5256.97
694.713	5269.25
694.902	5226.25
695.092	5404.42
695.281	5263.11
695.47	5209.86
695.659	5375.75
695.848	5177.09
696.037	5086.98
696.226	5109.51
696.415	5218.05
696.604	5183.24
696.793	5242.63
696.982	5142.28
697.171	5003.02
697.36	5259.01
697.549	4937.48
697.738	4925.19
697.927	5011.21
698.116	4970.25
698.305	5013.26
698.494	4892.43
698.683	5097.22
698.872	4960.01
699.061	4939.53
699.25	4710.16
699.438	4697.87
699.627	4880.14
699.816	5037.83
700.005	4775.69
700.193	4779.79
700.382	4886.28
700.571	4921.1
700.76	4863.76
700.948	4556.56
701.137	4687.63
701.326	4878.09
701.514	4663.05
701.703	4718.35
701.892	4785.93
702.08	4726.54
702.269	4710.16
702.457	4517.65
702.646	4626.19
702.834	4652.81
703.023	4671.25
703.212	4570.9
703.4	4495.12
703.589	4482.83
703.777	4521.74
703.965	4386.58
704.154	4650.77
704.342	4476.69
704.531	4384.53
704.719	4429.59
704.907	4464.4
705.096	4445.97
705.284	4460.31
705.472	4386.58
705.661	4402.96
705.849	4394.77
706.037	4341.52
706.226	4372.24
706.414	4308.76
706.602	4226.84
706.79	4249.36
706.979	4200.21
707.167	4327.19
707.355	4224.79
707.543	4210.45
707.731	4149.01
707.919	4306.71
708.107	4339.48
708.296	4237.08
708.484	4196.12
708.672	4169.49
708.86	4122.39
709.048	3987.22
709.236	4110.1
709.424	4144.92
709.612	4069.14
709.8	4194.07
709.988	4069.14
710.176	3872.54
710.364	4167.45
710.551	4056.86
710.739	3950.36
710.927	3962.65
711.115	4069.14
711.303	3989.27
711.491	3866.39
711.679	3956.5
711.866	3909.4
712.054	4024.09
712.242	3831.58
712.43	3946.27
712.617	3815.2
712.805	3870.49
712.993	3946.27
713.181	3809.05
713.368	3778.33
713.556	3929.88
713.744	3696.41
713.931	3905.31
714.119	3677.98
714.306	3776.28
714.494	3727.13
714.682	3764
714.869	3706.65
715.057	3694.36
715.244	3620.64
715.432	3634.97
715.619	3540.77
715.807	3733.28
715.994	3675.93
716.182	3600.16
716.369	3600.16
716.556	3659.55
716.744	3657.5
716.931	3505.95
717.119	3643.17
717.306	3548.96
717.493	3432.22
717.681	3395.36
717.868	3464.99
718.055	3604.25
718.242	3389.22
718.43	3432.22
718.617	3520.29
718.804	3503.9
718.991	3577.63
719.179	3374.88
719.366	3464.99
719.553	3421.99
719.74	3209
719.927	3284.77
720.114	3516.19
720.301	3233.57
720.488	3364.64
720.676	3338.02
720.863	3372.83
721.05	3387.17
721.237	3372.83
721.424	3266.34
721.611	3295.01
721.798	3317.54
721.985	3344.16
722.172	3295.01
722.358	3249.96
722.545	3147.56
722.732	3235.62
722.919	3368.74
723.106	3172.13
723.293	3036.97
723.48	3192.61
723.667	3161.89
723.853	3196.71
724.04	3122.98
724.227	3139.37
724.414	3118.89
724.6	3077.93
724.787	3168.04
724.974	3168.04
725.161	3145.51
725.347	3110.69
725.534	3077.93
725.72	3102.5
725.907	2953
726.094	3170.08
726.28	2971.43
726.467	2963.24
726.653	3018.54
726.84	3030.82
727.027	3014.44
727.213	2965.29
727.4	2991.91
727.586	3094.31
727.773	2979.62
727.959	3045.16
728.145	2942.76
728.332	2873.13
728.518	2930.47
728.705	3014.44
728.891	3004.2
729.077	2918.18
729.264	2858.79
729.45	2879.27
729.636	2934.57
729.823	2940.71
730.009	2897.71
730.195	2850.6
730.382	2905.9
730.568	2881.32
730.754	2826.03
730.94	2875.18
731.126	2797.35
731.313	2903.85
731.499	2764.59
731.685	2789.16
731.871	2762.54
732.057	2815.79
732.243	2862.89
732.429	2711.34
732.615	2729.77
732.801	2791.21
732.987	2735.92
733.173	2807.59
733.359	2686.76
733.545	2703.15
733.731	2654
733.917	2785.07
734.103	2746.16
734.289	2785.07
734.475	2680.62
734.661	2668.33
734.847	2656.04
735.033	2729.77
735.219	2520.88
735.404	2590.51
735.59	2686.76
735.776	2670.38
735.962	2711.34
736.148	2664.24
736.333	2639.66
736.519	2578.22
736.705	2510.64
736.89	2570.03
737.076	2531.12
737.262	2570.03
737.447	2424.62
737.633	2537.26
737.819	2516.78
738.004	2438.96
738.19	2465.58
738.375	2447.15
738.561	2524.97
738.747	2463.54
738.932	2500.4
739.118	2457.39
739.303	2467.63
739.489	2529.07
739.674	2545.45
739.859	2467.63
740.045	2412.34
740.23	2324.27
740.416	2283.31
740.601	2465.58
740.786	2285.36
740.972	2389.81
741.157	2465.58
741.342	2361.14
741.528	2385.71
741.713	2367.28
741.898	2299.7
742.084	2266.93
742.269	2287.41
742.454	2201.4
742.639	2326.32
742.824	2299.7
743.01	2291.51
743.195	2367.28
743.38	2361.14
743.565	2256.69
743.75	2238.26
743.935	2326.32
744.12	2240.31
744.305	2223.92
744.49	2160.44
744.675	2203.44
744.86	2072.37
745.045	2127.67
745.23	2072.37
745.415	2101.05
745.6	2211.64
745.785	2117.43
745.97	2289.46
746.155	2078.52
746.34	1992.5
746.525	2080.57
746.71	2070.33
746.895	2045.75
747.079	2033.46
747.264	2045.75
747.449	2037.56
747.634	1955.64
747.819	2119.48
748.003	1906.49
748.188	2010.93
748.373	2033.46
748.557	1883.96
748.742	1861.43
748.927	1974.07
749.111	1924.92
749.296	1902.39
749.481	1771.32
749.665	1943.35
749.85	1890.1
750.034	1865.53
750.219	1851.19
750.404	1804.09
750.588	1799.99
750.773	1808.19
750.957	1828.67
751.141	1718.08
751.326	1820.47
751.51	1668.92
751.695	1638.2
751.879	1646.4
752.064	1652.54
752.248	1771.32
752.432	1605.44
752.617	1701.69
752.801	1668.92
752.985	1603.39
753.17	1701.69
753.354	1656.64
753.538	1644.35
753.722	1472.32
753.907	1537.85
754.091	1492.8
754.275	1578.81
754.459	1558.33
754.643	1546.05
754.828	1496.89
755.012	1605.44
755.196	1546.05
755.38	1494.85
755.564	1472.32
755.748	1423.17
755.932	1507.13
756.116	1548.09
756.3	1488.7
756.484	1384.26
756.668	1406.78
756.852	1390.4
757.036	1460.03
757.22	1390.4
757.404	1365.82
757.588	1349.44
757.772	1374.02
757.956	1382.21
758.14	1349.44
758.323	1300.29
758.507	1333.06
758.691	1322.82
758.875	1288
759.059	1320.77
759.242	1294.15
759.426	1343.3
759.61	1363.78
759.794	1326.91
759.977	1279.81
760.161	1380.16
760.345	1156.93
760.528	1232.71
760.712	1218.37
760.895	1197.89
761.079	1154.88
761.263	1189.7
761.446	1218.37
761.63	1173.32
761.813	1224.51
761.997	1185.6
762.18	1161.03
762.364	1210.18
762.547	1087.3
762.731	1130.31
762.914	1111.88
763.098	1142.6
763.281	1201.99
763.464	1052.49
763.648	1214.27
763.831	1109.83
764.015	1161.03
764.198	1177.41
764.381	1226.56
764.564	1175.36
764.748	1169.22
764.931	1021.77
765.114	1087.3
765.297	1111.88
765.481	1089.35
765.664	1077.06
765.847	989
766.03	1040.2
766.213	972.61
766.397	1070.92
766.58	1009.48
766.763	1062.73
766.946	997.19
767.129	982.85
767.312	1029.96
767.495	956.23
767.678	948.04
767.861	1070.92
768.044	1025.86
768.227	1017.67
768.41	1001.29
768.593	1095.49
768.776	1077.06
768.959	1079.11
769.142	1013.57
769.324	993.09
769.507	1089.35
769.69	968.52
769.873	993.09
770.056	1046.34
770.239	993.09
770.421	1070.92
770.604	1007.43
770.787	997.19
770.97	989
771.152	902.98
771.335	911.18
771.518	939.85
771.7	997.19
771.883	1056.58
772.066	927.56
772.248	921.42
772.431	968.52
772.613	935.75
772.796	907.08
772.978	948.04
773.161	1015.62
773.343	859.98
773.526	950.09
773.708	829.26
773.891	833.35
774.073	857.93
774.256	898.89
774.438	931.66
774.621	859.98
774.803	890.7
774.985	769.87
775.168	753.48
775.35	859.98
775.532	870.22
775.715	845.64
775.897	771.91
776.079	747.34
776.261	741.19
776.444	733
776.626	780.11
776.808	786.25
776.99	718.67
777.173	808.78
777.355	737.1
777.537	759.63
777.719	751.43
777.901	747.34
778.083	728.91
778.265	698.19
778.447	780.11
778.629	704.33
778.811	642.89
778.993	728.91
779.175	796.49
779.357	616.27
779.539	694.09
779.721	673.61
779.903	685.9
780.085	593.74
780.267	739.15
780.449	720.71
780.631	759.63
780.812	706.38
780.994	642.89
781.176	771.91
781.358	603.98
781.54	618.32
781.721	628.56
781.903	591.69
782.085	628.56
782.267	593.74
782.448	579.4
782.63	618.32
782.812	622.41
782.993	583.5
783.175	624.46
783.357	595.79
783.538	589.64
783.72	491.34
783.901	687.95
784.083	565.07
784.264	624.46
784.446	423.76
784.627	530.25
784.809	601.93
784.99	460.62
785.172	546.64
785.353	540.49
785.535	573.26
785.716	477.01
785.897	464.72
786.079	548.68
786.26	524.11
786.441	532.3
786.623	481.1
786.804	517.97
786.985	505.68
787.167	524.11
787.348	483.15
787.529	579.4
787.71	546.64
787.891	513.87
788.073	454.48
788.254	390.99
788.435	485.2
788.616	444.24
788.797	460.62
788.978	481.1
789.159	517.97
789.34	472.91
789.522	409.42
789.703	458.57
789.884	456.53
790.065	464.72
790.246	425.81
790.427	411.47
790.607	364.37
790.788	440.14
790.969	446.29
791.15	429.9
791.331	395.09
791.512	325.46
791.693	423.76
791.874	464.72
792.054	507.73
792.235	444.24
792.416	436.05
792.597	409.42
792.778	417.61
792.958	425.81
793.139	358.22
793.32	370.51
793.5	319.31
793.681	425.81
793.862	458.57
794.042	294.74
794.223	374.61
794.404	378.7
794.584	311.12
794.765	317.26
794.945	350.03
795.126	360.27
795.306	390.99
795.487	339.79
795.667	251.73
795.848	354.13
796.028	341.84
796.209	264.02
796.389	366.42
796.57	362.32
796.75	188.24
796.93	325.46
797.111	350.03
797.291	284.5
797.471	419.66
797.652	227.15
797.832	276.31
798.012	341.84
798.192	313.17
798.373	317.26
798.553	415.57
798.733	319.31
798.913	307.02
799.093	366.42
799.274	288.59
799.454	409.42
799.634	311.12
799.814	325.46
799.994	325.46
800.174	323.41
800.354	300.88
800.534	169.81
800.714	284.5
800.894	239.44
801.074	235.35
801.254	307.02
801.434	347.98
801.614	284.5
801.794	309.07
801.974	843.59
802.154	206.67
802.334	241.49
802.514	227.15
802.693	311.12
802.873	259.92
803.053	276.31
803.233	321.36
803.413	264.02
803.592	223.06
803.772	302.93
803.952	249.68
804.131	153.43
804.311	284.5
804.491	204.63
804.67	231.25
804.85	237.39
805.03	218.96
805.209	284.5
805.389	212.82
805.568	243.54
805.748	245.59
805.928	253.78
806.107	188.24
806.287	294.74
806.466	268.11
806.646	141.14
806.825	214.87
807.004	175.95
807.184	241.49
807.363	286.54
807.543	311.12
807.722	161.62
807.901	173.91
808.081	264.02
808.26	245.59
808.439	175.95
808.619	221.01
808.798	145.24
808.977	350.03
809.156	245.59
809.336	259.92
809.515	288.59
809.694	157.52
809.873	178
810.052	223.06
810.231	300.88
810.411	210.77
810.59	206.67
810.769	259.92
810.948	186.19
811.127	186.19
811.306	159.57
811.485	159.57
811.664	202.58
811.843	196.43
812.022	178
812.201	251.73
812.38	319.31
812.559	106.32
812.737	321.36
812.916	100.18
813.095	221.01
813.274	247.63
813.453	210.77
813.632	190.29
813.811	180.05
813.989	124.76
814.168	153.43
814.347	132.95
814.526	198.48
814.704	171.86
814.883	284.5
815.062	169.81
815.24	227.15
815.419	132.95
815.598	173.91
815.776	139.09
815.955	235.35
816.133	96.08
816.312	221.01
816.49	98.13
816.669	155.47
816.847	89.94
817.026	190.29
817.204	161.62
817.383	147.28
817.561	79.7
817.74	218.96
817.918	204.63
818.097	141.14
818.275	96.08
818.453	98.13
818.632	147.28
818.81	196.43
818.988	173.91
819.167	151.38
819.345	186.19
819.523	218.96
819.701	106.32
819.879	223.06
820.058	196.43
820.236	108.37
820.414	114.52
820.592	137.04
820.77	159.57
820.948	210.77
821.127	190.29
821.305	157.52
821.483	141.14
821.661	110.42
821.839	165.71
822.017	165.71
822.195	91.99
822.373	188.24
822.551	96.08
822.729	145.24
822.907	124.76
823.085	161.62
823.262	169.81
823.44	59.22
823.618	137.04
823.796	124.76
823.974	57.17
824.152	22.36
824.329	112.47
824.507	163.67
824.685	169.81
824.863	55.12
825.04	194.39
825.218	130.9
825.396	71.51
825.574	124.76
825.751	137.04
825.929	96.08
826.107	104.28
826.284	132.95
826.462	44.88
826.639	51.03
826.817	108.37
826.994	42.84
827.172	51.03
827.349	161.62
827.527	182.1
827.704	188.24
827.882	155.47
828.059	202.58
828.237	59.22
828.414	161.62
828.591	48.98
828.769	108.37
828.946	89.94
829.124	157.52
829.301	124.76
829.478	98.13
829.655	87.89
829.833	112.47
830.01	57.17
830.187	65.36
830.364	143.19
830.542	116.56
830.719	83.8
830.896	137.04
831.073	182.1
831.25	108.37
831.427	112.47
831.604	98.13
831.782	108.37
831.959	163.67
832.136	36.69
832.313	102.23
832.49	69.46
832.667	65.36
832.844	104.28
833.021	169.81
833.198	130.9
833.374	83.8
833.551	124.76
833.728	71.51
833.905	85.84
834.082	22.36
834.259	124.76
834.436	118.61
834.612	40.79
834.789	112.47
834.966	65.36
835.143	112.47
835.319	53.08
835.496	57.17
835.673	30.55
835.85	96.08
836.026	139.09
836.203	120.66
836.38	63.32
836.556	59.22
836.733	63.32
836.909	65.36
837.086	5.97
837.262	57.17
837.439	79.7
837.616	67.41
837.792	34.64
837.968	53.08
838.145	-14.51
838.321	38.74
838.498	85.84
838.674	73.56
838.851	-6.31
839.027	75.6
839.203	8.02
839.38	163.67
839.556	106.32
839.732	79.7
839.909	81.75
840.085	116.56
840.261	65.36
840.437	38.74
840.614	34.64
840.79	96.08
840.966	96.08
841.142	48.98
841.318	18.26
841.494	63.32
841.671	132.95
841.847	46.93
842.023	59.22
842.199	104.28
842.375	112.47
842.551	40.79
842.727	51.03
842.903	85.84
843.079	67.41
843.255	122.71
843.431	14.17
843.607	55.12
843.783	38.74
843.959	169.81
844.134	87.89
844.31	83.8
844.486	-0.17
844.662	5.97
844.838	96.08
845.013	63.32
845.189	124.76
845.365	57.17
845.541	114.52
845.716	118.61
845.892	137.04
846.068	106.32
846.244	75.6
846.419	48.98
846.595	57.17
846.77	87.89
846.946	22.36
847.122	100.18
847.297	67.41
847.473	147.28
847.648	59.22
847.824	73.56
847.999	1.88
848.175	-8.36
848.35	124.76
848.526	104.28
848.701	141.14
848.876	155.47
849.052	169.81
849.227	3.93
849.403	104.28
849.578	159.57
849.753	89.94
849.929	65.36
850.104	32.6
850.279	34.64
850.454	81.75
850.63	51.03
850.805	-12.46
850.98	75.6
851.155	65.36
851.33	34.64
851.505	36.69
851.681	73.56
851.856	65.36
852.031	96.08
852.206	73.56
852.381	42.84
852.556	65.36
852.731	79.7
852.906	30.55
853.081	14.17
853.256	75.6
853.431	91.99
853.606	32.6
853.781	22.36
853.956	8.02
854.131	48.98
854.305	59.22
854.48	46.93
854.655	46.93
854.83	75.6
855.005	-32.94
855.18	-8.36
855.354	59.22
855.529	137.04
855.704	5.97
855.879	40.79
856.053	10.07
856.228	-2.22
856.403	51.03
856.577	67.41
856.752	-12.46
856.926	63.32
857.101	132.95
857.276	63.32
857.45	40.79
857.625	-4.27
857.799	55.12
857.974	57.17
858.148	-16.55
858.323	63.32
858.497	26.45
858.672	18.26
858.846	3.93
859.02	53.08
859.195	-22.7
859.369	46.93
859.543	85.84
859.718	10.07
859.892	71.51
860.066	55.12
860.241	40.79
860.415	57.17
860.589	38.74
860.763	42.84
860.938	63.32
861.112	63.32
861.286	-63.66
861.46	55.12
861.634	-43.18
861.808	38.74
861.982	59.22
862.157	20.31
862.331	32.6
862.505	-43.18
862.679	5.97
862.853	36.69
863.027	-16.55
863.201	67.41
863.375	46.93
863.549	57.17
863.722	40.79
863.896	63.32
864.07	96.08
864.244	-22.7
864.418	73.56
864.592	85.84
864.766	51.03
864.939	59.22
865.113	-34.99
865.287	89.94
865.461	71.51
865.634	30.55
865.808	-14.51
865.982	38.74
866.156	40.79
866.329	10.07
866.503	18.26
866.676	77.65
866.85	-2.22
867.024	-24.75
867.197	71.51
867.371	65.36
867.544	-41.13
867.718	22.36
867.891	79.7
868.065	-18.6
868.238	30.55
868.412	94.04
868.585	8.02
868.759	-10.41
868.932	71.51
869.105	46.93
869.279	63.32
869.452	22.36
869.625	46.93
869.799	-22.7
869.972	3.93
870.145	24.4
870.319	102.23
870.492	63.32
870.665	46.93
870.838	-10.41
871.011	-41.13
871.185	-6.31
871.358	53.08
871.531	8.02
871.704	69.46
871.877	30.55
872.05	-22.7
872.223	-16.55
872.396	67.41
872.569	75.6
872.742	-26.79
872.915	28.5
873.088	-0.17
873.261	-2.22
873.434	14.17
873.607	30.55
873.78	28.5
873.953	61.27
874.126	28.5
874.299	14.17
874.471	38.74
874.644	71.51
874.817	81.75
874.99	77.65
875.163	-75.95
875.335	42.84
875.508	38.74
875.681	65.36
875.853	5.97
876.026	14.17
876.199	65.36
876.371	69.46
876.544	-14.51
876.717	-14.51
876.889	32.6
877.062	48.98
877.234	96.08
877.407	22.36
877.579	85.84
877.752	-24.75
877.924	-10.41
878.097	-12.46
878.269	24.4
878.442	71.51
878.614	104.28
878.786	-30.89
878.959	65.36
879.131	28.5
879.303	5.97
879.476	-16.55
879.648	38.74
879.82	48.98
879.993	-10.41
880.165	67.41
880.337	-90.28
880.509	-55.47
880.681	26.45
880.854	-55.47
881.026	75.6
881.198	81.75
881.37	30.55
881.542	42.84
881.714	-47.27
881.886	-43.18
882.058	22.36
882.23	3.93
882.402	26.45
882.574	30.55
882.746	42.84
882.918	32.6
883.09	63.32
883.262	-34.99
883.434	89.94
883.606	-20.65
883.778	38.74
883.95	22.36
884.122	-10.41
884.293	18.26
884.465	46.93
884.637	32.6
884.809	-22.7
884.98	-18.6
885.152	40.79
885.324	77.65
885.496	-20.65
885.667	-16.55
885.839	20.31
886.011	-6.31
886.182	28.5
886.354	40.79
886.525	8.02
886.697	26.45
886.869	20.31
887.04	-34.99
887.212	14.17
887.383	124.76
887.555	5.97
887.726	71.51
887.897	79.7
888.069	48.98
888.24	73.56
888.412	8.02
888.583	-18.6
888.754	34.64
888.926	77.65
889.097	5.97
889.268	-59.56
889.44	53.08
889.611	-16.55
889.782	-82.09
889.953	-32.94
890.125	14.17
890.296	-10.41
890.467	10.07
890.638	-4.27
890.809	51.03
890.98	-53.42
891.151	22.36
891.323	100.18
891.494	5.97
891.665	26.45
891.836	38.74
892.007	32.6
892.178	38.74
892.349	26.45
892.52	26.45
892.691	-84.14
892.862	-10.41
893.032	-8.36
893.203	-51.37
893.374	5.97
893.545	40.79
893.716	-12.46
893.887	122.71
894.057	-20.65
894.228	18.26
894.399	28.5
894.57	65.36
894.74	30.55
894.911	46.93
895.082	-43.18
895.253	53.08
895.423	30.55
895.594	69.46
895.764	14.17
895.935	-108.71
896.106	14.17
896.276	-16.55
896.447	83.8
896.617	-18.6
896.788	-59.56
896.958	26.45
897.129	-67.75
897.299	18.26
897.47	44.88
897.64	26.45
897.81	-43.18
897.981	14.17
898.151	-30.89
898.322	3.93
898.492	106.32
898.662	-65.71
898.832	5.97
899.003	-18.6
899.173	96.08
899.343	5.97
899.513	-28.84
