Data from USB4F104151__48__14-29-57-808.txt Node

Date: Thu Mar 13 14:29:57 EDT 2025
User: louis
Spectrometer: USB4F10415
Trigger mode: 4
Integration Time (sec): 2.500000E-2
Scans to average: 1
Electric dark correction enabled: true
Nonlinearity correction enabled: false
Boxcar width: 0
XAxis mode: Wavelengths
Number of Pixels in Spectrum: 3648
>>>>>Begin Spectral Data<<<<<
178.204	-150.87
178.424	-150.87
178.644	-150.87
178.864	-175.44
179.084	-105.81
179.304	-77.14
179.524	-5.46
179.744	-17.75
179.964	25.26
180.184	8.87
180.404	33.45
180.624	27.31
180.844	-15.7
181.064	-15.7
181.283	-25.94
181.503	-23.89
181.723	86.7
181.943	27.31
182.163	53.93
182.383	-36.18
182.602	53.93
182.822	58.03
183.042	76.46
183.262	-27.99
183.482	-1.37
183.701	41.64
183.921	0.68
184.141	8.87
184.361	-36.18
184.58	53.93
184.8	17.07
185.02	25.26
185.239	33.45
185.459	96.94
185.679	90.79
185.898	-71
186.118	29.35
186.338	-64.85
186.557	58.03
186.777	-23.89
186.997	-9.56
187.216	45.74
187.436	107.18
187.655	12.97
187.875	8.87
188.095	-71
188.314	76.46
188.534	82.6
188.753	45.74
188.973	25.26
189.192	58.03
189.412	96.94
189.631	51.88
189.851	82.6
190.07	33.45
190.29	25.26
190.509	41.64
190.729	43.69
190.948	53.93
191.168	180.9
191.387	103.08
191.607	-9.56
191.826	84.65
192.045	78.51
192.265	10.92
192.484	2.73
192.704	-62.8
192.923	0.68
193.142	49.83
193.362	66.22
193.581	33.45
193.8	49.83
194.02	0.68
194.239	-7.51
194.458	25.26
194.678	58.03
194.897	64.17
195.116	33.45
195.335	43.69
195.555	33.45
195.774	-23.89
195.993	21.16
196.212	60.07
196.432	33.45
196.651	-30.04
196.87	29.35
197.089	49.83
197.308	53.93
197.528	53.93
197.747	25.26
197.966	33.45
198.185	101.03
198.404	25.26
198.623	21.16
198.842	25.26
199.062	131.75
199.281	84.65
199.5	68.27
199.719	94.89
199.938	51.88
200.157	21.16
200.376	139.94
200.595	35.5
200.814	139.94
201.033	60.07
201.252	105.13
201.471	23.21
201.69	72.36
201.909	58.03
202.128	111.27
202.347	-7.51
202.566	33.45
202.785	-21.84
203.004	84.65
203.223	51.88
203.442	-17.75
203.661	37.55
203.879	66.22
204.098	123.56
204.317	-11.61
204.536	148.14
204.755	62.12
204.974	84.65
205.193	33.45
205.411	129.7
205.63	-38.23
205.849	10.92
206.068	21.16
206.287	15.02
206.505	62.12
206.724	19.11
206.943	-25.94
207.162	35.5
207.381	41.64
207.599	82.6
207.818	49.83
208.037	58.03
208.255	-25.94
208.474	10.92
208.693	-21.84
208.911	8.87
209.13	66.22
209.349	8.87
209.567	66.22
209.786	45.74
210.005	66.22
210.223	-25.94
210.442	25.26
210.661	74.41
210.879	49.83
211.098	25.26
211.316	25.26
211.535	74.41
211.753	37.55
211.972	45.74
212.191	-15.7
212.409	53.93
212.628	60.07
212.846	80.55
213.065	33.45
213.283	78.51
213.502	23.21
213.72	29.35
213.938	101.03
214.157	51.88
214.375	33.45
214.594	8.87
214.812	94.89
215.031	29.35
215.249	-7.51
215.467	49.83
215.686	88.75
215.904	41.64
216.122	8.87
216.341	35.5
216.559	66.22
216.778	53.93
216.996	17.07
217.214	12.97
217.432	84.65
217.651	29.35
217.869	62.12
218.087	43.69
218.306	35.5
218.524	49.83
218.742	41.64
218.96	62.12
219.179	-48.47
219.397	92.84
219.615	139.94
219.833	4.78
220.051	-7.51
220.27	53.93
220.488	107.18
220.706	0.68
220.924	-30.04
221.142	41.64
221.36	60.07
221.578	60.07
221.796	37.55
222.015	41.64
222.233	68.27
222.451	107.18
222.669	4.78
222.887	45.74
223.105	29.35
223.323	58.03
223.541	45.74
223.759	-5.46
223.977	29.35
224.195	72.36
224.413	90.79
224.631	53.93
224.849	0.68
225.067	187.05
225.285	-7.51
225.503	43.69
225.721	12.97
225.939	88.75
226.157	96.94
226.375	107.18
226.592	49.83
226.81	33.45
227.028	74.41
227.246	98.99
227.464	39.59
227.682	41.64
227.9	21.16
228.117	76.46
228.335	25.26
228.553	62.12
228.771	66.22
228.989	49.83
229.206	37.55
229.424	41.64
229.642	76.46
229.86	-30.04
230.077	78.51
230.295	80.55
230.513	58.03
230.731	43.69
230.948	58.03
231.166	74.41
231.384	29.35
231.601	60.07
231.819	66.22
232.037	-48.47
232.254	-38.23
232.472	29.35
232.689	68.27
232.907	17.07
233.125	117.42
233.342	27.31
233.56	31.4
233.777	21.16
233.995	21.16
234.213	158.38
234.43	49.83
234.648	55.98
234.865	62.12
235.083	-15.7
235.3	78.51
235.518	2.73
235.735	84.65
235.953	92.84
236.17	66.22
236.388	45.74
236.605	66.22
236.822	101.03
237.04	53.93
237.257	82.6
237.475	-64.85
237.692	101.03
237.909	8.87
238.127	10.92
238.344	-32.08
238.562	10.92
238.779	27.31
238.996	64.17
239.214	49.83
239.431	76.46
239.648	31.4
239.865	58.03
240.083	43.69
240.3	-46.42
240.517	17.07
240.735	2.73
240.952	70.31
241.169	82.6
241.386	37.55
241.603	-15.7
241.821	23.21
242.038	66.22
242.255	45.74
242.472	-46.42
242.689	58.03
242.907	74.41
243.124	-9.56
243.341	74.41
243.558	21.16
243.775	8.87
243.992	-3.41
244.209	49.83
244.426	53.93
244.643	64.17
244.86	-27.99
245.078	43.69
245.295	76.46
245.512	76.46
245.729	53.93
245.946	31.4
246.163	82.6
246.38	58.03
246.597	74.41
246.814	33.45
247.031	27.31
247.248	8.87
247.464	12.97
247.681	-36.18
247.898	53.93
248.115	-23.89
248.332	12.97
248.549	-11.61
248.766	68.27
248.983	90.79
249.2	-11.61
249.417	39.59
249.633	29.35
249.85	-7.51
250.067	0.68
250.284	49.83
250.501	76.46
250.717	51.88
250.934	-32.08
251.151	49.83
251.368	-15.7
251.585	62.12
251.801	37.55
252.018	19.11
252.235	82.6
252.451	23.21
252.668	33.45
252.885	21.16
253.102	23.21
253.318	17.07
253.535	41.64
253.752	33.45
253.968	62.12
254.185	-23.89
254.401	76.46
254.618	33.45
254.835	-11.61
255.051	127.66
255.268	51.88
255.484	6.83
255.701	27.31
255.917	33.45
256.134	60.07
256.351	103.08
256.567	21.16
256.784	62.12
257	8.87
257.217	78.51
257.433	68.27
257.65	19.11
257.866	35.5
258.082	-19.8
258.299	49.83
258.515	43.69
258.732	60.07
258.948	0.68
259.165	12.97
259.381	-5.46
259.597	25.26
259.814	92.84
260.03	45.74
260.246	25.26
260.463	107.18
260.679	74.41
260.895	90.79
261.112	51.88
261.328	-5.46
261.544	49.83
261.761	80.55
261.977	35.5
262.193	17.07
262.409	21.16
262.626	78.51
262.842	62.12
263.058	-11.61
263.274	66.22
263.49	53.93
263.707	98.99
263.923	2.73
264.139	4.78
264.355	10.92
264.571	66.22
264.787	76.46
265.004	90.79
265.22	8.87
265.436	109.23
265.652	74.41
265.868	29.35
266.084	-48.47
266.3	19.11
266.516	29.35
266.732	74.41
266.948	-7.51
267.164	115.37
267.38	90.79
267.596	19.11
267.812	107.18
268.028	92.84
268.244	49.83
268.46	68.27
268.676	8.87
268.892	29.35
269.108	23.21
269.324	25.26
269.54	23.21
269.756	53.93
269.972	49.83
270.188	27.31
270.403	-48.47
270.619	0.68
270.835	21.16
271.051	-23.89
271.267	15.02
271.483	51.88
271.698	139.94
271.914	31.4
272.13	66.22
272.346	66.22
272.562	-46.42
272.777	21.16
272.993	60.07
273.209	17.07
273.425	121.51
273.64	23.21
273.856	-3.41
274.072	25.26
274.287	33.45
274.503	8.87
274.719	58.03
274.934	21.16
275.15	17.07
275.366	58.03
275.581	74.41
275.797	-60.76
276.012	33.45
276.228	-7.51
276.444	49.83
276.659	98.99
276.875	27.31
277.09	19.11
277.306	35.5
277.521	29.35
277.737	-1.37
277.952	37.55
278.168	62.12
278.383	0.68
278.599	41.64
278.814	60.07
279.03	41.64
279.245	92.84
279.461	49.83
279.676	49.83
279.892	-48.47
280.107	27.31
280.322	23.21
280.538	37.55
280.753	45.74
280.969	119.46
281.184	70.31
281.399	133.8
281.615	107.18
281.83	101.03
282.045	33.45
282.26	0.68
282.476	8.87
282.691	74.41
282.906	41.64
283.122	115.37
283.337	70.31
283.552	72.36
283.767	-7.51
283.983	25.26
284.198	31.4
284.413	74.41
284.628	8.87
284.843	113.32
285.058	74.41
285.274	74.41
285.489	51.88
285.704	68.27
285.919	-21.84
286.134	103.08
286.349	47.79
286.564	58.03
286.779	53.93
286.995	45.74
287.21	-11.61
287.425	33.45
287.64	127.66
287.855	21.16
288.07	19.11
288.285	-9.56
288.5	29.35
288.715	23.21
288.93	27.31
289.145	6.83
289.36	60.07
289.575	-1.37
289.79	4.78
290.004	4.78
290.219	72.36
290.434	33.45
290.649	2.73
290.864	25.26
291.079	6.83
291.294	35.5
291.509	12.97
291.724	21.16
291.938	-7.51
292.153	113.32
292.368	41.64
292.583	107.18
292.798	25.26
293.012	133.8
293.227	4.78
293.442	0.68
293.657	-62.8
293.871	76.46
294.086	8.87
294.301	113.32
294.516	58.03
294.73	-17.75
294.945	66.22
295.16	17.07
295.374	76.46
295.589	70.31
295.804	41.64
296.018	27.31
296.233	66.22
296.447	-36.18
296.662	-13.65
296.877	74.41
297.091	66.22
297.306	43.69
297.52	107.18
297.735	98.99
297.949	2.73
298.164	82.6
298.378	25.26
298.593	35.5
298.807	-56.66
299.022	29.35
299.236	2.73
299.451	8.87
299.665	47.79
299.88	21.16
300.094	103.08
300.309	76.46
300.523	107.18
300.737	-1.37
300.952	33.45
301.166	74.41
301.381	35.5
301.595	68.27
301.809	25.26
302.024	58.03
302.238	45.74
302.452	115.37
302.667	10.92
302.881	51.88
303.095	41.64
303.309	25.26
303.524	58.03
303.738	17.07
303.952	21.16
304.166	74.41
304.381	-48.47
304.595	53.93
304.809	6.83
305.023	84.65
305.237	49.83
305.452	58.03
305.666	41.64
305.88	117.42
306.094	80.55
306.308	0.68
306.522	101.03
306.736	51.88
306.95	92.84
307.164	49.83
307.379	-15.7
307.593	103.08
307.807	60.07
308.021	80.55
308.235	15.02
308.449	-32.08
308.663	53.93
308.877	101.03
309.091	35.5
309.305	58.03
309.519	-46.42
309.733	117.42
309.947	12.97
310.161	90.79
310.374	10.92
310.588	74.41
310.802	-27.99
311.016	19.11
311.23	111.27
311.444	53.93
311.658	35.5
311.872	49.83
312.085	37.55
312.299	2.73
312.513	37.55
312.727	72.36
312.941	25.26
313.154	94.89
313.368	8.87
313.582	55.98
313.796	15.02
314.009	17.07
314.223	82.6
314.437	4.78
314.651	49.83
314.864	17.07
315.078	-36.18
315.292	-56.66
315.505	0.68
315.719	74.41
315.933	111.27
316.146	72.36
316.36	8.87
316.573	45.74
316.787	29.35
317.001	127.66
317.214	-56.66
317.428	127.66
317.641	-25.94
317.855	12.97
318.068	66.22
318.282	12.97
318.495	45.74
318.709	31.4
318.922	33.45
319.136	107.18
319.349	47.79
319.563	33.45
319.776	37.55
319.99	-40.28
320.203	62.12
320.417	35.5
320.63	-5.46
320.843	94.89
321.057	78.51
321.27	27.31
321.483	27.31
321.697	37.55
321.91	-19.8
322.124	66.22
322.337	8.87
322.55	-11.61
322.763	-19.8
322.977	37.55
323.19	17.07
323.403	66.22
323.617	-64.85
323.83	88.75
324.043	12.97
324.256	68.27
324.469	-32.08
324.683	47.79
324.896	19.11
325.109	49.83
325.322	-15.7
325.535	25.26
325.748	90.79
325.962	41.64
326.175	19.11
326.388	45.74
326.601	23.21
326.814	-50.52
327.027	49.83
327.24	-7.51
327.453	2.73
327.666	55.98
327.879	33.45
328.092	43.69
328.305	43.69
328.518	-32.08
328.731	12.97
328.944	103.08
329.157	45.74
329.37	43.69
329.583	74.41
329.796	131.75
330.009	0.68
330.222	19.11
330.435	74.41
330.648	66.22
330.861	-44.37
331.073	66.22
331.286	88.75
331.499	2.73
331.712	-15.7
331.925	47.79
332.138	66.22
332.35	0.68
332.563	35.5
332.776	66.22
332.989	17.07
333.202	123.56
333.414	84.65
333.627	72.36
333.84	0.68
334.053	58.03
334.265	21.16
334.478	33.45
334.691	-15.7
334.903	125.61
335.116	25.26
335.329	62.12
335.541	70.31
335.754	37.55
335.966	4.78
336.179	2.73
336.392	90.79
336.604	17.07
336.817	101.03
337.029	55.98
337.242	41.64
337.454	27.31
337.667	74.41
337.88	74.41
338.092	17.07
338.305	70.31
338.517	35.5
338.729	35.5
338.942	170.66
339.154	-9.56
339.367	8.87
339.579	70.31
339.792	2.73
340.004	33.45
340.217	33.45
340.429	-23.89
340.641	21.16
340.854	37.55
341.066	41.64
341.278	176.81
341.491	119.46
341.703	51.88
341.915	51.88
342.128	72.36
342.34	17.07
342.552	62.12
342.764	76.46
342.977	-56.66
343.189	25.26
343.401	15.02
343.613	-21.84
343.826	66.22
344.038	41.64
344.25	64.17
344.462	60.07
344.674	-21.84
344.886	0.68
345.099	-1.37
345.311	51.88
345.523	88.75
345.735	66.22
345.947	117.42
346.159	35.5
346.371	86.7
346.583	10.92
346.795	144.04
347.007	29.35
347.219	123.56
347.431	17.07
347.643	53.93
347.855	35.5
348.067	80.55
348.279	51.88
348.491	8.87
348.703	164.52
348.915	49.83
349.127	8.87
349.339	82.6
349.551	49.83
349.763	12.97
349.975	53.93
350.187	82.6
350.399	29.35
350.61	98.99
350.822	60.07
351.034	84.65
351.246	62.12
351.458	25.26
351.669	-27.99
351.881	135.85
352.093	70.31
352.305	90.79
352.517	80.55
352.728	123.56
352.94	41.64
353.152	19.11
353.363	15.02
353.575	78.51
353.787	33.45
353.999	60.07
354.21	182.95
354.422	25.26
354.633	31.4
354.845	21.16
355.057	43.69
355.268	107.18
355.48	125.61
355.692	4.78
355.903	19.11
356.115	0.68
356.326	49.83
356.538	-11.61
356.749	33.45
356.961	70.31
357.172	78.51
357.384	119.46
357.595	127.66
357.807	31.4
358.018	12.97
358.23	35.5
358.441	94.89
358.653	72.36
358.864	60.07
359.075	2.73
359.287	17.07
359.498	15.02
359.709	105.13
359.921	25.26
360.132	135.85
360.344	74.41
360.555	49.83
360.766	72.36
360.977	33.45
361.189	86.7
361.4	90.79
361.611	49.83
361.823	33.45
362.034	10.92
362.245	-48.47
362.456	60.07
362.667	43.69
362.879	74.41
363.09	10.92
363.301	4.78
363.512	0.68
363.723	58.03
363.935	17.07
364.146	123.56
364.357	23.21
364.568	139.94
364.779	66.22
364.99	78.51
365.201	-44.37
365.412	84.65
365.623	2.73
365.834	25.26
366.045	0.68
366.256	37.55
366.467	43.69
366.678	82.6
366.889	33.45
367.1	70.31
367.311	94.89
367.522	74.41
367.733	98.99
367.944	107.18
368.155	43.69
368.366	76.46
368.577	8.87
368.788	41.64
368.999	-32.08
369.209	-7.51
369.42	74.41
369.631	41.64
369.842	62.12
370.053	109.23
370.264	66.22
370.474	-23.89
370.685	60.07
370.896	27.31
371.107	146.09
371.317	0.68
371.528	74.41
371.739	68.27
371.95	35.5
372.16	51.88
372.371	0.68
372.582	60.07
372.792	-7.51
373.003	27.31
373.214	43.69
373.424	76.46
373.635	29.35
373.846	180.9
374.056	53.93
374.267	90.79
374.477	37.55
374.688	-40.28
374.898	27.31
375.109	25.26
375.319	107.18
375.53	123.56
375.74	158.38
375.951	8.87
376.161	45.74
376.372	113.32
376.582	-7.51
376.793	47.79
377.003	101.03
377.214	58.03
377.424	21.16
377.635	-7.51
377.845	80.55
378.055	111.27
378.266	-40.28
378.476	98.99
378.686	49.83
378.897	43.69
379.107	76.46
379.317	103.08
379.528	68.27
379.738	76.46
379.948	4.78
380.158	78.51
380.369	-15.7
380.579	60.07
380.789	76.46
380.999	84.65
381.21	66.22
381.42	101.03
381.63	58.03
381.84	107.18
382.05	70.31
382.261	127.66
382.471	76.46
382.681	74.41
382.891	90.79
383.101	43.69
383.311	66.22
383.521	74.41
383.731	58.03
383.941	33.45
384.151	53.93
384.361	98.99
384.571	49.83
384.781	125.61
384.991	53.93
385.201	176.81
385.411	90.79
385.621	129.7
385.831	19.11
386.041	-40.28
386.251	35.5
386.461	94.89
386.671	82.6
386.881	123.56
387.091	35.5
387.301	58.03
387.511	72.36
387.72	43.69
387.93	66.22
388.14	-19.8
388.35	74.41
388.56	98.99
388.769	86.7
388.979	123.56
389.189	41.64
389.399	19.11
389.609	94.89
389.818	37.55
390.028	27.31
390.238	144.04
390.447	25.26
390.657	92.84
390.867	98.99
391.076	76.46
391.286	41.64
391.496	92.84
391.705	139.94
391.915	117.42
392.125	94.89
392.334	62.12
392.544	107.18
392.753	-17.75
392.963	43.69
393.172	72.36
393.382	62.12
393.591	133.8
393.801	103.08
394.01	88.75
394.22	55.98
394.429	51.88
394.639	74.41
394.848	111.27
395.058	98.99
395.267	49.83
395.477	113.32
395.686	64.17
395.895	139.94
396.105	160.42
396.314	123.56
396.524	148.14
396.733	98.99
396.942	131.75
397.152	113.32
397.361	141.99
397.57	64.17
397.78	148.14
397.989	180.9
398.198	156.33
398.407	98.99
398.617	51.88
398.826	115.37
399.035	141.99
399.244	90.79
399.453	92.84
399.663	127.66
399.872	131.75
400.081	62.12
400.29	139.94
400.499	66.22
400.708	148.14
400.917	86.7
401.127	123.56
401.336	92.84
401.545	197.29
401.754	131.75
401.963	123.56
402.172	86.7
402.381	129.7
402.59	178.86
402.799	115.37
403.008	131.75
403.217	164.52
403.426	170.66
403.635	82.6
403.844	150.18
404.053	119.46
404.262	117.42
404.471	197.29
404.68	146.09
404.888	135.85
405.097	123.56
405.306	125.61
405.515	260.77
405.724	213.67
405.933	240.3
406.142	205.48
406.35	195.24
406.559	248.49
406.768	164.52
406.977	180.9
407.185	221.86
407.394	185
407.603	156.33
407.812	205.48
408.02	264.87
408.229	324.26
408.438	283.3
408.646	205.48
408.855	256.68
409.064	262.82
409.272	287.4
409.481	344.74
409.69	373.41
409.898	338.6
410.107	273.06
410.315	361.13
410.524	352.93
410.733	262.82
410.941	311.97
411.15	428.71
411.358	443.04
411.567	418.47
411.775	395.94
411.984	467.62
412.192	500.39
412.401	533.15
412.609	500.39
412.818	567.97
413.026	436.9
413.234	516.77
413.443	567.97
413.651	594.59
413.86	563.87
414.068	643.74
414.276	717.47
414.485	631.46
414.693	762.53
414.901	756.38
415.11	772.77
415.318	660.13
415.526	840.35
415.734	879.26
415.943	869.02
416.151	909.98
416.359	877.21
416.567	979.61
416.776	1067.67
416.984	1049.24
417.192	1049.24
417.4	1112.73
417.608	1108.63
417.817	1133.21
418.025	1143.45
418.233	1245.85
418.441	1196.7
418.649	1305.24
418.857	1317.53
419.065	1436.31
419.273	1428.12
419.481	1385.11
419.689	1608.34
419.897	1606.29
420.105	1749.65
420.313	1680.02
420.521	1776.27
420.729	1761.94
420.937	1776.27
421.145	1946.25
421.353	2046.6
421.561	2130.57
421.769	2065.04
421.977	2239.11
422.185	2169.48
422.393	2310.79
422.601	2429.57
422.809	2433.67
423.017	2521.73
423.224	2509.44
423.432	2732.67
423.64	2767.49
423.848	2935.42
424.056	2900.61
424.263	3123.84
424.471	3129.98
424.679	3349.11
424.887	3332.73
425.094	3531.38
425.302	3437.17
425.51	3598.96
425.718	3715.7
425.925	3633.78
426.133	3928.69
426.341	4010.61
426.548	4121.2
426.756	4129.39
426.964	4295.27
427.171	4444.77
427.379	4729.44
427.586	4747.87
427.794	4921.95
428.001	5108.32
428.209	5319.26
428.417	5220.95
428.624	5579.35
428.832	5562.97
429.039	5409.37
429.247	5565.01
429.454	6021.71
429.662	6494.79
429.869	6148.68
430.076	6410.82
430.284	6201.93
430.491	6654.53
430.699	7070.27
430.906	7021.12
431.114	7094.85
431.321	7297.6
431.528	7475.77
431.736	7866.93
431.943	8184.37
432.15	8106.54
432.358	8008.24
432.565	8503.85
432.772	8567.34
432.979	8833.57
433.187	9009.7
433.394	9208.35
433.601	9669.14
433.808	9818.64
434.016	9628.18
434.223	10045.97
434.43	10633.74
434.637	10340.88
434.844	11096.58
435.052	11481.6
435.259	11190.78
435.466	11493.88
435.673	11178.5
435.88	12020.21
436.087	12495.34
436.294	12601.83
436.501	12231.15
436.708	12542.44
436.915	12767.72
437.122	13472.22
437.329	13359.58
437.537	13943.25
437.743	14279.12
437.95	14051.8
438.157	14805.45
438.364	14979.53
438.571	15098.31
438.778	15325.63
438.985	16593.33
439.192	16335.28
439.399	16716.2
439.606	16300.47
439.813	17187.24
440.02	18135.45
440.227	17463.71
440.433	17826.2
440.64	18053.53
440.847	17680.8
441.054	18575.76
441.261	19790.2
441.467	19562.88
441.674	19982.71
441.881	20451.7
442.088	20314.48
442.294	20068.73
442.501	20906.35
442.708	21182.82
442.914	21799.26
443.121	22954.32
443.328	22163.8
443.534	24023.36
443.741	23167.31
443.948	22964.56
444.154	24623.41
444.361	24564.02
444.568	24449.33
444.774	24525.11
444.981	24967.47
445.187	25743.65
445.394	26796.31
445.6	26239.26
445.807	28930.29
446.013	27406.6
446.22	28061.95
446.426	29016.3
446.633	29429.99
446.839	30372.06
447.046	29128.94
447.252	30767.32
447.459	30539.99
447.665	30419.16
447.871	32243.9
448.078	33499.31
448.284	31699.14
448.491	32538.81
448.697	33933.48
448.903	34152.61
449.11	34685.08
449.316	34097.31
449.522	34650.27
449.728	35690.63
449.935	35727.5
450.141	35682.44
450.347	36485.25
450.553	35125.39
450.76	35678.35
450.966	37007.48
451.172	36552.83
451.378	37513.33
451.584	37054.58
451.791	37693.55
451.997	37757.03
452.203	38340.71
452.409	38123.62
452.615	37726.31
452.821	36667.52
453.027	36014.21
453.233	38305.89
453.44	36556.92
453.646	36827.26
453.852	36868.22
454.058	37697.64
454.264	36247.68
454.47	37216.37
454.676	36030.6
454.882	38039.65
455.088	33996.96
455.294	35000.47
455.5	35023
455.705	36014.21
455.911	33853.61
456.117	33626.28
456.323	33374.38
456.529	31105.23
456.735	32536.76
456.941	31725.77
457.147	31500.49
457.352	30351.58
457.558	30163.17
457.764	30443.74
457.97	29681.89
458.176	29004.02
458.381	28586.23
458.587	27465.99
458.793	27382.02
458.999	25938.21
459.204	27920.64
459.41	27171.08
459.616	25076.01
459.821	25456.93
460.027	25170.22
460.233	24437.05
460.438	23486.79
460.644	23761.22
460.85	22509.91
461.055	22067.55
461.261	22120.79
461.466	20322.68
461.672	19829.12
461.878	21008.75
462.083	19857.79
462.289	19437.95
462.494	19321.22
462.7	18555.28
462.905	17981.85
463.111	18606.48
463.316	18608.53
463.522	18151.83
463.727	18188.69
463.932	18235.8
464.138	17920.41
464.343	18037.14
464.549	17502.62
464.754	18098.58
464.959	17977.75
465.165	17850.78
465.37	16908.71
465.575	16269.75
465.781	17338.79
465.986	16994.73
466.191	16656.81
466.397	16075.19
466.602	15364.54
466.807	15919.54
467.012	16015.8
467.218	16026.04
467.423	15688.12
467.628	15808.95
467.833	16640.43
468.038	15708.6
468.244	15249.86
468.449	15864.25
468.654	15364.54
468.859	15516.09
469.064	15327.68
469.269	14830.02
469.474	14799.3
469.679	15067.59
469.885	14780.87
470.09	14850.5
470.295	14535.12
470.5	14490.06
470.705	14326.22
470.91	14037.46
471.115	13859.29
471.32	14297.55
471.525	14033.36
471.73	13799.9
471.935	13681.11
472.139	13089.25
472.344	13181.41
472.549	13271.52
472.754	13083.11
472.959	12669.42
473.164	12710.38
473.369	12272.11
473.574	12896.74
473.778	12655.08
473.983	12569.07
474.188	12263.92
474.393	12007.92
474.598	11831.8
474.802	11837.94
475.007	11997.68
475.212	11889.14
475.417	11373.05
475.621	11317.76
475.826	11553.27
476.031	11264.51
476.235	10865.16
476.44	11176.45
476.645	11053.57
476.849	10920.45
477.054	10813.96
477.259	10729.99
477.463	10621.45
477.668	10435.08
477.872	10543.63
478.077	10299.92
478.282	10050.07
478.486	10140.18
478.691	9921.04
478.895	9937.43
479.1	9867.8
479.304	10066.45
479.509	9558.55
479.713	9718.29
479.918	9519.64
480.122	9159.2
480.326	9380.38
480.531	9396.76
480.735	9413.15
480.94	9167.39
481.144	9466.39
481.348	9144.86
481.553	9290.27
481.757	9216.54
481.961	9384.48
482.166	9275.93
482.37	9292.32
482.574	9116.19
482.778	8989.22
482.983	9179.68
483.187	8913.44
483.391	9142.82
483.595	8978.98
483.8	9021.99
484.004	9126.43
484.208	9136.67
484.412	9073.18
484.616	8972.83
484.821	9132.58
485.025	8735.27
485.229	8919.59
485.433	8882.72
485.637	9093.66
485.841	8864.29
486.045	8962.59
486.249	8970.79
486.453	8983.07
486.657	8890.91
486.861	9118.24
487.065	8833.57
487.269	8753.7
487.473	8733.22
487.677	8991.27
487.881	8950.31
488.085	8729.13
488.289	9118.24
488.493	8778.28
488.697	8884.77
488.901	8995.36
489.105	8849.96
489.309	8868.39
489.512	9179.68
489.716	8907.3
489.92	9052.7
490.124	9054.75
490.328	9165.34
490.531	8950.31
490.735	9151.01
490.939	9163.29
491.143	9060.9
491.346	8847.91
491.55	9175.58
491.754	9183.77
491.958	9220.64
492.161	9234.97
492.365	9169.44
492.569	9357.85
492.772	9206.3
492.976	9384.48
493.18	9304.6
493.383	9456.15
493.587	9427.48
493.79	9552.41
493.994	9331.23
494.197	9445.91
494.401	9611.8
494.605	9622.04
494.808	9845.27
495.012	9855.51
495.215	9789.97
495.419	9888.28
495.622	9767.45
495.825	9978.39
496.029	10166.8
496.232	10166.8
496.436	10240.53
496.639	10422.8
496.843	10404.36
497.046	10510.86
497.249	10656.26
497.453	10664.46
497.656	10725.9
497.859	10854.92
498.063	11012.61
498.266	11035.14
498.469	11043.33
498.673	11272.7
498.876	11516.41
499.079	11446.78
499.282	11586.04
499.485	11698.68
499.689	11811.32
499.892	11850.23
500.095	11717.11
500.298	12218.86
500.501	12198.38
500.705	12519.92
500.908	12427.76
501.111	12544.49
501.314	12605.93
501.517	12804.58
501.72	12902.89
501.923	12802.54
502.126	13087.2
502.329	13484.51
502.532	13283.81
502.735	13566.43
502.938	13775.32
503.141	13953.49
503.344	14223.83
503.547	14068.18
503.75	14027.22
503.953	14442.96
504.156	14625.23
504.359	14778.83
504.562	14770.63
504.765	14963.14
504.968	15083.97
505.17	15225.28
505.373	15233.47
505.576	15618.49
505.779	15557.05
505.982	15688.12
506.185	16189.88
506.387	16136.63
506.59	16409.01
506.793	16757.16
506.996	16449.97
507.198	16931.24
507.401	16849.32
507.604	17205.67
507.807	17545.63
508.009	17529.25
508.212	17277.35
508.415	17723.8
508.617	18102.68
508.82	18196.88
509.022	18350.48
509.225	18534.8
509.428	18712.97
509.63	18831.76
509.833	18921.87
510.035	19624.32
510.238	19059.08
510.44	19646.85
510.643	19898.75
510.845	20011.39
511.048	19990.91
511.25	20251
511.453	20328.82
511.655	21152.1
511.858	20771.18
512.06	20826.48
512.262	20980.07
512.465	20973.93
512.667	21494.11
512.87	21836.13
513.072	21844.32
513.274	21985.63
513.477	22370.65
513.679	22509.91
513.881	22804.81
514.084	23066.95
514.286	22919.5
514.488	23249.22
514.69	23656.77
514.893	23650.63
515.095	23648.58
515.297	24205.63
515.499	24234.3
515.701	24375.61
515.904	24879.41
516.106	24731.95
516.308	25512.23
516.51	25475.37
516.712	25532.71
516.914	25624.87
517.116	26136.86
517.318	26079.52
517.52	26233.11
517.722	26181.92
517.925	26718.48
518.127	26984.72
518.329	27085.07
518.531	26921.23
518.733	27388.17
518.935	27554.05
519.136	27678.98
519.338	28166.4
519.54	28029.18
519.742	28215.55
519.944	28272.89
520.146	28821.75
520.348	29034.74
520.55	29100.27
520.752	29016.3
520.954	29667.56
521.155	29255.92
521.357	29733.09
521.559	29993.18
521.761	30245.09
521.963	30269.66
522.164	30351.58
522.366	30507.23
522.568	30587.1
522.77	30765.27
522.971	31142.1
523.173	30884.05
523.375	30912.72
523.576	30906.58
523.778	30922.96
523.98	31422.67
524.181	31445.19
524.383	31654.09
524.584	32049.35
524.786	31873.22
524.988	31654.09
525.189	32180.42
525.391	32002.24
525.592	32088.26
525.794	32284.86
525.995	32168.13
526.197	32100.54
526.398	32528.57
526.6	32731.32
526.801	32706.74
527.003	32702.65
527.204	32665.78
527.406	32886.96
527.607	32807.09
527.808	33061.04
528.01	32133.31
528.211	32831.67
528.412	33284.27
528.614	32837.81
528.815	33112.24
529.016	33038.51
529.218	32893.11
529.419	33056.95
529.62	32454.84
529.822	32876.72
530.023	32952.5
530.224	32645.3
530.425	32901.3
530.626	32518.33
530.828	32317.63
531.029	33366.19
531.23	32639.16
531.431	32413.88
531.632	33190.06
531.833	32594.11
532.035	32547
532.236	32663.74
532.437	32893.11
532.638	32473.28
532.839	32649.4
533.04	32647.35
533.241	32485.56
533.442	32528.57
533.643	32852.15
533.844	32536.76
534.045	32694.46
534.246	32090.3
534.447	32667.83
534.648	32405.69
534.849	32360.64
535.05	32141.5
535.251	32127.17
535.451	32008.39
535.652	32086.21
535.853	32358.59
536.054	32161.98
536.255	32143.55
536.456	31973.57
536.657	32037.06
536.857	31987.91
537.058	31842.5
537.259	32143.55
537.46	32010.43
537.66	31760.58
537.861	31641.8
538.062	31729.86
538.263	31772.87
538.463	31463.63
538.664	31697.09
538.865	31824.07
539.065	31967.43
539.266	31154.38
539.466	31649.99
539.667	31197.39
539.868	31854.79
540.068	31264.97
540.269	31209.68
540.469	31396.04
540.67	31320.27
540.87	31115.47
541.071	31301.84
541.271	31295.69
541.472	31361.23
541.672	31246.54
541.873	30867.67
542.073	30554.33
542.274	31500.49
542.474	31015.12
542.675	30931.15
542.875	31316.17
543.075	30771.41
543.276	30773.46
543.476	31037.65
543.676	30961.87
543.877	31203.53
544.077	31107.28
544.277	31131.86
544.478	30773.46
544.678	31264.97
544.878	30832.85
545.078	30998.74
545.279	30984.4
545.479	30798.04
545.679	30867.67
545.879	30853.33
546.079	30642.39
546.28	30894.29
546.48	30394.59
546.68	30818.52
546.88	30927.06
547.08	30685.4
547.28	30507.23
547.48	30542.04
547.68	30777.56
547.88	30675.16
548.081	30697.69
548.281	30775.51
548.481	30300.38
548.681	30777.56
548.881	30992.59
549.081	30773.46
549.28	30499.03
549.48	30767.32
549.68	30816.47
549.88	30861.52
550.08	30542.04
550.28	31111.38
550.48	30402.78
550.68	31019.22
550.88	30603.48
551.08	30771.41
551.279	31185.1
551.479	30599.38
551.679	31193.29
551.879	30906.58
552.079	30906.58
552.278	30578.9
552.478	30994.64
552.678	30644.44
552.878	30732.5
553.077	30709.97
553.277	30757.08
553.477	31072.46
553.676	30738.65
553.876	30927.06
554.076	30863.57
554.275	30933.2
554.475	30918.87
554.674	30740.69
554.874	30859.48
555.074	30564.57
555.273	30785.75
555.473	31285.45
555.672	30904.53
555.872	30871.76
556.071	31054.03
556.271	31211.73
556.47	31144.14
556.67	30658.77
556.869	30877.91
557.068	31250.64
557.268	30660.82
557.467	31142.1
557.667	31097.04
557.866	31041.74
558.065	31174.86
558.265	31062.22
558.464	30888.15
558.663	31443.15
558.863	30830.8
559.062	31480.01
559.261	30677.21
559.461	31045.84
559.66	30585.05
559.859	30925.01
560.058	30859.48
560.258	31191.25
560.457	30638.3
560.656	31557.83
560.855	30802.13
561.054	31305.93
561.253	30937.3
561.453	30742.74
561.652	31342.8
561.851	31054.03
562.05	31193.29
562.249	31195.34
562.448	31207.63
562.647	30736.6
562.846	30814.42
563.045	30757.08
563.244	30511.32
563.443	31133.9
563.642	30550.23
563.841	31021.27
564.04	30648.53
564.239	30920.91
564.438	30662.87
564.637	30732.5
564.836	30765.27
565.035	30410.97
565.234	30496.99
565.432	30634.2
565.631	30572.76
565.83	30742.74
566.029	30619.86
566.228	30392.54
566.427	30013.66
566.625	30216.41
566.824	30023.9
567.023	30327
567.222	29794.53
567.42	30021.86
567.619	30232.8
567.818	30044.38
568.016	29907.17
568.215	30435.55
568.414	29944.03
568.612	29937.89
568.811	29939.94
569.01	29798.63
569.208	29343.98
569.407	29880.55
569.605	29456.62
569.804	30111.97
570.002	29413.61
570.201	29241.58
570.4	29532.39
570.598	29296.88
570.797	29247.72
570.995	29176.05
571.193	28659.96
571.392	29186.29
571.59	28731.64
571.789	28756.21
571.987	28920.05
572.186	28969.2
572.384	28590.33
572.582	28870.9
572.781	28748.02
572.979	28207.36
573.177	28922.1
573.376	28414.2
573.574	28346.62
573.772	28535.03
573.971	28043.52
574.169	27707.65
574.367	27922.69
574.565	28197.12
574.763	27875.59
574.962	27773.19
575.16	27693.32
575.358	27928.83
575.556	27414.79
575.754	28002.56
575.952	27394.31
576.151	27691.27
576.349	27265.29
576.547	27314.44
576.745	27228.43
576.943	27330.83
577.141	26982.67
577.339	26855.7
577.537	26900.75
577.735	26886.42
577.933	26636.56
578.131	26970.38
578.329	26405.14
578.527	26511.64
578.725	26534.17
578.923	26321.18
579.121	26448.15
579.319	26423.58
579.516	26513.69
579.714	26251.55
579.912	26298.65
580.11	26175.77
580.308	26104.09
580.506	25973.02
580.704	25649.44
580.901	25800.99
581.099	25977.12
581.297	25573.67
581.495	25575.72
581.692	25188.65
581.89	25463.08
582.088	25844
582.285	25088.3
582.483	25471.27
582.681	25491.75
582.878	25317.67
583.076	24752.43
583.274	25219.37
583.471	24936.75
583.669	25121.07
583.866	24932.65
584.064	25116.97
584.262	24422.71
584.459	24965.42
584.657	24609.08
584.854	24662.32
585.052	24357.17
585.249	24762.67
585.447	24506.68
585.644	24273.21
585.841	24353.08
586.039	24369.46
586.236	24109.37
586.434	23857.47
586.631	23947.58
586.828	24060.22
587.026	24000.83
587.223	24111.42
587.42	24142.14
587.618	24150.33
587.815	23701.83
588.012	23748.93
588.21	23525.7
588.407	23920.96
588.604	23785.79
588.801	23566.66
588.999	23316.81
589.196	23505.22
589.393	23398.73
589.59	23341.38
589.787	23093.58
589.984	23198.02
590.182	23134.54
590.379	23062.86
590.576	22815.05
590.773	22913.36
590.97	23087.43
591.167	23281.99
591.364	22905.17
591.561	22702.42
591.758	22696.27
591.955	22806.86
592.152	23097.67
592.349	22407.51
592.546	22978.89
592.743	22561.11
592.94	22180.18
593.137	22438.23
593.334	22505.81
593.531	22329.69
593.727	22497.62
593.924	22503.76
594.121	22294.87
594.318	22770
594.515	21838.17
594.712	22348.12
594.908	21987.68
595.105	22182.23
595.302	21838.17
595.499	22165.85
595.696	22333.78
595.892	22014.3
596.089	22135.13
596.286	22147.42
596.482	21741.92
596.679	21694.82
596.876	22049.11
597.072	21926.24
597.269	22022.49
597.466	21832.03
597.662	21541.22
597.859	21694.82
598.055	21807.45
598.252	21952.86
598.448	21844.32
598.645	21725.54
598.841	21696.86
599.038	21768.54
599.234	22055.26
599.431	21573.99
599.627	21789.02
599.824	21991.77
600.02	21475.68
600.217	21916
600.413	21889.37
600.609	21649.76
600.806	21758.3
601.002	21977.44
601.198	21549.41
601.395	21520.74
601.591	21655.9
601.787	21700.96
601.984	21721.44
602.18	21797.21
602.376	21643.62
602.572	21791.07
602.769	21756.25
602.965	21537.12
603.161	21643.62
603.357	21725.54
603.553	21496.16
603.75	21848.41
603.946	21594.47
604.142	22124.89
604.338	21623.14
604.534	21801.31
604.73	21756.25
604.926	21553.51
605.122	22065.5
605.318	22006.11
605.514	21832.03
605.71	21807.45
605.906	22016.35
606.102	22042.97
606.298	22180.18
606.494	21897.56
606.69	22176.09
606.886	22395.22
607.082	21842.27
607.278	22315.35
607.474	21639.52
607.67	22221.14
607.866	21727.58
608.062	22339.93
608.257	22276.44
608.453	22237.53
608.649	22294.87
608.845	22065.5
609.041	22331.73
609.236	22487.38
609.432	22399.32
609.628	22473.04
609.824	22630.74
610.019	22419.8
610.215	22438.23
610.411	22876.49
610.606	22493.52
610.802	22614.35
610.998	22380.89
611.193	22702.42
611.389	22141.27
611.584	22692.18
611.78	22458.71
611.976	22487.38
612.171	22880.59
612.367	22438.23
612.562	22692.18
612.758	22344.02
612.953	22159.7
613.149	23046.47
613.344	22755.66
613.539	23122.25
613.735	23013.71
613.93	22888.78
614.126	22856.01
614.321	23120.2
614.517	23095.63
614.712	22853.97
614.907	22735.18
615.103	23200.07
615.298	23069
615.493	23126.35
615.688	22833.49
615.884	23193.93
616.079	22612.31
616.274	23095.63
616.47	23120.2
616.665	23202.12
616.86	22937.93
617.055	22876.49
617.25	22978.89
617.445	23073.1
617.641	22530.39
617.836	22880.59
618.031	22759.76
618.226	22890.83
618.421	22628.69
618.616	22739.28
618.811	22524.24
619.006	23034.19
619.201	22434.13
619.396	22602.07
619.591	22184.28
619.786	22565.2
619.981	22171.99
620.176	22272.34
620.371	22356.31
620.566	22225.24
620.761	22145.37
620.956	22307.16
621.151	21889.37
621.346	22073.69
621.541	21782.88
621.735	21924.19
621.93	21428.58
622.125	21610.85
622.32	21428.58
622.515	21621.09
622.709	21365.09
622.904	21162.34
623.099	20992.36
623.294	21258.6
623.488	20978.03
623.683	20906.35
623.878	20808.05
624.072	20830.57
624.267	20844.91
624.462	20748.65
624.656	20480.37
624.851	20461.94
625.046	20267.38
625.24	20242.81
625.435	20201.85
625.629	20183.41
625.824	20117.88
626.018	20011.39
626.213	19581.31
626.407	19757.44
626.602	19431.81
626.796	19437.95
626.991	19597.7
627.185	19329.41
627.38	19276.16
627.574	19073.42
627.768	19255.68
627.963	18923.91
628.157	18792.84
628.352	18727.31
628.546	18610.57
628.74	18860.43
628.935	18485.65
629.129	18686.35
629.323	18317.72
629.517	18403.73
629.712	17985.94
629.906	18358.67
630.1	17852.83
630.294	18137.49
630.489	17922.46
630.683	18020.76
630.877	17613.21
631.071	17545.63
631.265	17267.11
631.459	17359.27
631.653	17469.86
631.848	17457.57
632.042	17177
632.236	17140.13
632.43	17113.51
632.624	17187.24
632.818	17154.47
633.012	16861.61
633.206	16595.37
633.4	16691.63
633.594	16382.38
633.788	16517.55
633.982	16474.54
634.176	16382.38
634.369	16085.43
634.563	16155.06
634.757	16046.52
634.951	16009.65
635.145	15763.9
635.339	15876.54
635.533	15886.78
635.726	15626.68
635.92	15294.91
636.114	15454.65
636.308	15368.64
636.501	15342.02
636.695	15206.85
636.889	15305.15
637.083	15106.5
637.276	14995.91
637.47	14911.94
637.664	14795.21
637.857	14823.88
638.051	14619.08
638.244	14717.39
638.438	14469.58
638.632	14549.45
638.825	14539.21
639.019	14082.52
639.212	14135.76
639.406	14266.83
639.599	14111.19
639.793	13763.03
639.986	13677.02
640.18	13693.4
640.373	13816.28
640.567	13545.95
640.76	13582.81
640.954	13603.29
641.147	13302.24
641.34	13533.66
641.534	13210.08
641.727	13167.07
641.92	13044.2
642.114	12878.31
642.307	12798.44
642.5	12939.75
642.694	12683.75
642.887	12667.37
643.08	12825.06
643.273	12386.8
643.467	12351.98
643.66	12413.42
643.853	12233.2
644.046	12222.96
644.239	12268.02
644.432	12083.7
644.626	12014.07
644.819	11962.87
645.012	11891.19
645.205	11993.59
645.398	11749.88
645.591	11635.19
645.784	11549.18
645.977	11346.43
646.17	11465.21
646.363	11325.95
646.556	11207.17
646.749	11096.58
646.942	11321.85
647.135	11125.25
647.328	11084.29
647.521	10797.57
647.714	10830.34
647.907	10734.09
648.099	10949.12
648.292	10838.53
648.485	10764.81
648.678	10502.67
648.871	10785.29
649.064	10527.24
649.256	10502.67
649.449	10396.17
649.642	10183.18
649.835	10166.8
650.027	10203.66
650.22	10224.14
650.413	10023.44
650.605	10127.89
650.798	10019.35
650.991	9929.24
651.183	10011.15
651.376	9789.97
651.568	9980.43
651.761	9570.84
651.954	9593.37
652.146	9495.07
652.339	9691.67
652.531	9548.31
652.724	9554.46
652.916	9298.46
653.109	9320.99
653.301	9124.38
653.494	9302.56
653.686	9234.97
653.879	9101.86
654.071	9282.08
654.263	9011.75
654.456	9165.34
654.648	9130.53
654.84	8749.61
655.033	8839.72
655.225	8690.21
655.417	8925.73
655.61	8659.49
655.802	8589.86
655.994	8673.83
656.186	8520.23
656.379	8598.06
656.571	8479.27
656.763	8309.29
656.955	8278.57
657.148	8372.78
657.34	8335.92
657.532	8266.28
657.724	8340.01
657.916	8405.55
658.108	8026.67
658.3	8161.84
658.492	8186.41
658.684	7832.12
658.876	8049.2
659.068	8049.2
659.26	7782.96
659.452	7946.8
659.644	7758.39
659.836	7549.5
660.028	7807.54
660.22	7551.54
660.412	7639.61
660.604	7621.17
660.796	7705.14
660.988	7457.34
661.18	7508.54
661.372	7250.49
661.563	7371.32
661.755	7356.99
661.947	7152.19
662.139	7447.1
662.331	7225.92
662.522	7180.86
662.714	7266.88
662.906	6918.72
663.097	7072.32
663.289	7021.12
663.481	6947.39
663.673	6931.01
663.864	6931.01
664.056	6691.4
664.247	6990.4
664.439	6834.75
664.631	6746.69
664.822	6701.64
665.014	6783.56
665.205	6799.94
665.397	6560.33
665.588	6627.91
665.78	6617.67
665.971	6484.55
666.163	6513.22
666.354	6533.7
666.546	6406.73
666.737	6275.66
666.929	6376.01
667.12	6210.12
667.311	6351.43
667.503	6257.23
667.694	6189.64
667.885	6226.51
668.077	6242.89
668.268	5968.46
668.459	6128.21
668.651	6034
668.842	5993.04
669.033	6083.15
669.224	5986.9
669.416	6120.01
669.607	5954.13
669.798	5974.61
669.989	6048.33
670.18	5778
670.371	5976.66
670.563	5866.07
670.754	5798.48
670.945	5741.14
671.136	5845.59
671.327	5788.24
671.518	5845.59
671.709	5702.23
671.9	5804.63
672.091	5677.65
672.282	5597.78
672.473	5450.33
672.664	5644.88
672.855	5724.76
673.046	5558.87
673.237	5513.81
673.428	5538.39
673.619	5390.94
673.809	5497.43
674	5358.17
674.191	5427.8
674.382	5464.66
674.573	5329.5
674.764	5458.52
674.954	5450.33
675.145	5464.66
675.336	5319.26
675.527	5177.95
675.717	5212.76
675.908	5145.18
676.099	5352.02
676.289	5259.87
676.48	5206.62
676.671	5253.72
676.861	5241.43
677.052	5216.86
677.243	5233.24
677.433	5126.75
677.624	5220.95
677.814	5018.21
678.005	5161.56
678.195	5100.12
678.386	5136.99
678.576	5087.84
678.767	5061.21
678.957	5077.6
679.148	5161.56
679.338	5186.14
679.529	5016.16
679.719	5081.69
679.909	5272.15
680.1	5102.17
680.29	5089.89
680.481	5026.4
680.671	5292.63
680.861	5022.3
681.052	4948.58
681.242	4928.1
681.432	4997.73
681.622	5036.64
681.813	4940.38
682.003	4924
682.193	4891.23
682.383	5104.22
682.573	4946.53
682.764	5014.11
682.954	4846.18
683.144	4924
683.334	4833.89
683.524	4817.51
683.714	4768.35
683.904	4844.13
684.094	4932.19
684.284	4772.45
684.474	5055.07
684.664	4938.34
684.854	4768.35
685.044	4850.27
685.234	4895.33
685.424	4745.83
685.614	4774.5
685.804	4848.22
685.994	4792.93
686.184	4860.51
686.374	4665.96
686.564	4770.4
686.753	4809.31
686.943	4747.87
687.133	4735.59
687.323	4696.68
687.513	4647.52
687.702	4520.55
687.892	4612.71
688.082	4668
688.272	4719.2
688.461	4657.76
688.651	4676.2
688.841	4625
689.03	4659.81
689.22	4547.17
689.41	4751.97
689.599	4694.63
689.789	4438.63
689.979	4573.8
690.168	4524.65
690.358	4553.32
690.547	4555.37
690.737	4563.56
690.926	4438.63
691.116	4319.85
691.305	4409.96
691.495	4401.77
691.684	4356.71
691.874	4481.64
692.063	4311.66
692.252	4457.06
692.442	4305.51
692.631	4153.96
692.82	4299.37
693.01	4180.59
693.199	4354.66
693.388	4158.06
693.578	4235.88
693.767	4295.27
693.956	4125.29
694.146	4264.55
694.335	4178.54
694.524	4205.16
694.713	4256.36
694.902	4244.07
695.092	4252.27
695.281	4287.08
695.47	4260.46
695.659	4182.63
695.848	4080.24
696.037	4166.25
696.226	4254.31
696.415	4379.24
696.604	4237.93
696.793	4063.85
696.982	4084.33
697.171	4174.44
697.36	4070
697.549	4137.58
697.738	3981.93
697.927	3998.32
698.116	4022.89
698.305	4026.99
698.494	4104.81
698.683	4051.56
698.872	4055.66
699.061	3979.89
699.25	3910.26
699.438	3936.88
699.627	3943.02
699.816	3891.82
700.005	3936.88
700.193	3717.75
700.382	3994.22
700.571	3981.93
700.76	3957.36
700.948	3875.44
701.137	4018.8
701.326	3957.36
701.514	3844.72
701.703	3820.14
701.892	3773.04
702.08	3834.48
702.269	3887.73
702.457	3807.86
702.646	3875.44
702.834	3803.76
703.023	3725.94
703.212	3750.51
703.4	3811.95
703.589	3678.83
703.777	3877.49
703.965	3656.31
704.154	3736.18
704.342	3768.95
704.531	3842.67
704.719	3654.26
704.907	3744.37
705.096	3607.16
705.284	3693.17
705.472	3727.99
705.661	3584.63
705.849	3596.92
706.037	3723.89
706.226	3490.42
706.414	3578.48
706.602	3512.95
706.79	3553.91
706.979	3527.28
707.167	3641.97
707.355	3641.97
707.543	3623.54
707.731	3474.04
707.919	3617.4
708.107	3506.81
708.296	3367.54
708.484	3498.61
708.672	3433.08
708.86	3500.66
709.048	3414.65
709.236	3320.44
709.424	3414.65
709.612	3404.41
709.8	3285.62
709.988	3361.4
710.176	3476.09
710.364	3424.89
710.551	3322.49
710.739	3334.78
710.927	3367.54
711.115	3400.31
711.303	3484.28
711.491	3392.12
711.679	3244.67
711.866	3357.3
712.054	3166.84
712.242	3232.38
712.43	3326.58
712.617	3228.28
712.805	3320.44
712.993	3191.42
713.181	3226.23
713.368	3295.86
713.556	3154.55
713.744	3144.31
713.931	3150.46
714.119	3134.07
714.306	3080.83
714.494	3248.76
714.682	3138.17
714.869	3115.64
715.057	3066.49
715.244	3050.11
715.432	3148.41
715.619	3039.87
715.807	3144.31
715.994	3162.75
716.182	3091.07
716.369	3097.21
716.556	3211.9
716.744	2968.19
716.931	3003
717.119	3078.78
717.306	3060.35
717.493	3043.96
717.681	3009.15
717.868	3007.1
718.055	2935.42
718.242	3019.39
718.43	2966.14
718.617	2974.33
718.804	2951.81
718.991	2861.7
719.179	2869.89
719.366	3009.15
719.553	2896.51
719.74	2906.75
719.927	2900.61
720.114	2732.67
720.301	2744.96
720.488	2804.35
720.676	2896.51
720.863	2755.2
721.05	2863.74
721.237	2896.51
721.424	2736.77
721.611	2884.22
721.798	2738.82
721.985	2820.74
722.172	2753.15
722.358	2777.73
722.545	2812.54
722.732	2753.15
722.919	2826.88
723.106	2671.23
723.293	2656.9
723.48	2581.12
723.667	2695.81
723.853	2697.86
724.04	2728.58
724.227	2499.2
724.414	2744.96
724.6	2591.36
724.787	2720.39
724.974	2615.94
725.161	2601.6
725.347	2681.47
725.534	2656.9
725.72	2656.9
725.907	2638.47
726.094	2562.69
726.28	2486.92
726.467	2550.4
726.653	2574.98
726.84	2622.08
727.027	2630.27
727.213	2462.34
727.4	2548.36
727.586	2531.97
727.773	2548.36
727.959	2507.4
728.145	2466.44
728.332	2491.01
728.518	2482.82
728.705	2519.68
728.891	2394.76
729.077	2409.09
729.264	2501.25
729.45	2443.91
729.636	2570.88
729.823	2441.86
730.009	2476.68
730.195	2417.29
730.382	2364.04
730.568	2474.63
730.754	2474.63
730.94	2306.7
731.126	2507.4
731.313	2405
731.499	2407.05
731.685	2433.67
731.871	2394.76
732.057	2458.25
732.243	2392.71
732.429	2275.98
732.615	2482.82
732.801	2409.09
732.987	2349.7
733.173	2296.46
733.359	2187.91
733.545	2423.43
733.731	2179.72
733.917	2398.85
734.103	2345.61
734.289	2351.75
734.475	2224.78
734.661	2364.04
734.847	2286.22
735.033	2321.03
735.219	2302.6
735.404	2224.78
735.59	2222.73
735.776	2171.53
735.962	2296.46
736.148	2196.11
736.333	2187.91
736.519	2110.09
736.705	2187.91
736.89	2204.3
737.076	2171.53
737.262	2091.66
737.447	2241.16
737.633	2149
737.819	2196.11
738.004	2167.43
738.19	2222.73
738.375	2220.68
738.561	2208.39
738.747	1993.36
738.932	2077.32
739.118	2077.32
739.303	2114.19
739.489	2175.63
739.674	2056.84
739.859	1960.59
740.045	2114.19
740.23	1987.21
740.416	2069.13
740.601	2007.69
740.786	2026.12
740.972	2032.27
741.157	1979.02
741.342	1929.87
741.528	2019.98
741.713	2007.69
741.898	2024.08
742.084	2007.69
742.269	1968.78
742.454	1966.73
742.639	2026.12
742.824	2056.84
743.01	2003.6
743.195	2024.08
743.38	1942.16
743.565	1882.77
743.75	1983.12
743.935	1890.96
744.12	1925.77
744.305	1884.81
744.49	1868.43
744.675	1919.63
744.86	1901.2
745.045	1770.13
745.23	1888.91
745.415	1774.22
745.6	1827.47
745.785	1755.79
745.97	1956.49
746.155	1815.18
746.34	1753.74
746.525	1747.6
746.71	1819.28
746.895	1729.17
747.079	1680.02
747.264	1680.02
747.449	1737.36
747.634	1624.72
747.819	1704.59
748.003	1632.91
748.188	1548.95
748.373	1745.55
748.557	1622.67
748.742	1639.06
748.927	1661.59
749.111	1571.47
749.296	1542.8
749.481	1641.11
749.665	1577.62
749.85	1602.19
750.034	1559.19
750.219	1421.97
750.404	1540.76
750.588	1643.15
750.773	1467.03
750.957	1557.14
751.141	1471.12
751.326	1491.6
751.51	1499.8
751.695	1395.35
751.879	1444.5
752.064	1518.23
752.248	1454.74
752.432	1401.49
752.617	1475.22
752.801	1434.26
752.985	1434.26
753.17	1368.73
753.354	1495.7
753.538	1327.77
753.722	1305.24
753.907	1344.15
754.091	1354.39
754.275	1241.75
754.459	1241.75
754.643	1297.05
754.828	1354.39
755.012	1211.03
755.196	1202.84
755.38	1286.81
755.564	1309.33
755.748	1282.71
755.932	1208.98
756.116	1299.09
756.3	1237.66
756.484	1190.55
756.668	1264.28
756.852	1073.82
757.036	1213.08
757.22	1233.56
757.404	1161.88
757.588	1118.87
757.772	1131.16
757.956	1200.79
758.14	1090.2
758.323	1122.97
758.507	1102.49
758.691	1108.63
758.875	1163.93
759.059	1092.25
759.242	1110.68
759.426	1057.43
759.61	1012.38
759.794	1127.07
759.977	1065.63
760.161	1098.39
760.345	1092.25
760.528	1061.53
760.712	1059.48
760.895	1000.09
761.079	1110.68
761.263	932.51
761.446	1047.19
761.63	1010.33
761.813	1020.57
761.997	996
762.18	1012.38
762.364	1065.63
762.547	950.94
762.731	1118.87
762.914	948.89
763.098	987.8
763.281	957.08
763.464	944.8
763.648	944.8
763.831	924.32
764.015	901.79
764.198	909.98
764.381	914.08
764.564	950.94
764.748	963.23
764.931	938.65
765.114	887.45
765.297	1057.43
765.481	969.37
765.664	850.59
765.847	914.08
766.03	871.07
766.213	854.69
766.397	846.49
766.58	848.54
766.763	936.6
766.946	780.96
767.129	893.6
767.312	869.02
767.495	885.41
767.678	854.69
767.861	934.56
768.044	787.1
768.227	850.59
768.41	805.53
768.593	912.03
768.776	881.31
768.959	918.17
769.142	885.41
769.324	909.98
769.507	819.87
769.69	819.87
769.873	895.65
770.056	967.32
770.239	864.93
770.421	854.69
770.604	877.21
770.787	846.49
770.97	850.59
771.152	776.86
771.335	690.85
771.518	803.49
771.7	813.73
771.883	783.01
772.066	711.33
772.248	772.77
772.431	803.49
772.613	766.62
772.796	731.81
772.978	793.25
773.161	815.77
773.343	754.34
773.526	651.94
773.708	692.9
773.891	740
774.073	789.15
774.256	707.23
774.438	729.76
774.621	778.91
774.803	610.98
774.985	719.52
775.168	674.46
775.35	729.76
775.532	701.09
775.715	692.9
775.897	680.61
776.079	647.84
776.261	680.61
776.444	641.7
776.626	623.27
776.808	752.29
776.99	586.4
777.173	688.8
777.355	631.46
777.537	623.27
777.719	639.65
777.901	639.65
778.083	674.46
778.265	600.74
778.447	715.42
778.629	561.83
778.811	641.7
778.993	602.79
779.175	639.65
779.357	578.21
779.539	619.17
779.721	520.87
779.903	559.78
780.085	557.73
780.267	559.78
780.449	596.64
780.631	590.5
780.812	541.35
780.994	576.16
781.176	484
781.358	453.28
781.54	518.82
781.721	549.54
781.903	617.12
782.085	434.85
782.267	506.53
782.448	524.96
782.63	531.11
782.812	494.24
782.993	488.1
783.175	582.31
783.357	477.86
783.538	436.9
783.72	459.43
783.901	443.04
784.083	479.91
784.264	492.2
784.446	420.52
784.627	377.51
784.809	508.58
784.99	467.62
785.172	453.28
785.353	412.32
785.535	438.95
785.716	434.85
785.897	459.43
786.079	451.24
786.26	422.56
786.441	410.28
786.623	484
786.804	402.08
786.985	475.81
787.167	436.9
787.348	418.47
787.529	447.14
787.71	477.86
787.891	408.23
788.073	332.45
788.254	377.51
788.435	434.85
788.616	422.56
788.797	463.52
788.978	373.41
789.159	332.45
789.34	402.08
789.522	361.13
789.703	322.21
789.884	361.13
790.065	393.89
790.246	393.89
790.427	307.88
790.607	418.47
790.788	420.52
790.969	289.45
791.15	367.27
791.331	291.49
791.512	328.36
791.693	268.97
791.874	406.18
792.054	389.8
792.235	330.41
792.416	256.68
792.597	352.93
792.778	316.07
792.958	242.34
793.139	234.15
793.32	369.32
793.5	314.02
793.681	352.93
793.862	338.6
794.042	221.86
794.223	275.11
794.404	254.63
794.584	244.39
794.765	228.01
794.945	289.45
795.126	340.65
795.306	354.98
795.487	279.21
795.667	264.87
795.848	297.64
796.028	316.07
796.209	275.11
796.389	271.01
796.57	182.95
796.75	291.49
796.93	311.97
797.111	199.34
797.291	258.73
797.471	230.06
797.652	322.21
797.832	219.82
798.012	262.82
798.192	252.58
798.373	234.15
798.553	268.97
798.733	295.59
798.913	156.33
799.093	232.1
799.274	238.25
799.454	344.74
799.634	283.3
799.814	254.63
799.994	238.25
800.174	217.77
800.354	246.44
800.534	287.4
800.714	287.4
800.894	189.1
801.074	262.82
801.254	240.3
801.434	311.97
801.614	219.82
801.794	160.42
801.974	821.92
802.154	178.86
802.334	318.12
802.514	182.95
802.693	129.7
802.873	133.8
803.053	258.73
803.233	254.63
803.413	254.63
803.592	182.95
803.772	279.21
803.952	207.53
804.131	240.3
804.311	248.49
804.491	207.53
804.67	168.62
804.85	189.1
805.03	277.16
805.209	279.21
805.389	209.58
805.568	172.71
805.748	182.95
805.928	185
806.107	193.19
806.287	205.48
806.466	205.48
806.646	209.58
806.825	185
807.004	246.44
807.184	191.14
807.363	195.24
807.543	182.95
807.722	156.33
807.901	205.48
808.081	164.52
808.26	180.9
808.439	166.57
808.619	189.1
808.798	92.84
808.977	144.04
809.156	205.48
809.336	193.19
809.515	164.52
809.694	185
809.873	215.72
810.052	168.62
810.231	180.9
810.411	141.99
810.59	172.71
810.769	156.33
810.948	191.14
811.127	98.99
811.306	232.1
811.485	170.66
811.664	295.59
811.843	107.18
812.022	139.94
812.201	180.9
812.38	191.14
812.559	76.46
812.737	168.62
812.916	119.46
813.095	246.44
813.274	107.18
813.453	148.14
813.632	180.9
813.811	174.76
813.989	119.46
814.168	111.27
814.347	152.23
814.526	125.61
814.704	189.1
814.883	127.66
815.062	174.76
815.24	133.8
815.419	21.16
815.598	123.56
815.776	174.76
815.955	146.09
816.133	101.03
816.312	98.99
816.49	146.09
816.669	146.09
816.847	62.12
817.026	160.42
817.204	129.7
817.383	156.33
817.561	117.42
817.74	123.56
817.918	70.31
818.097	10.92
818.275	148.14
818.453	156.33
818.632	144.04
818.81	74.41
818.988	37.55
819.167	121.51
819.345	172.71
819.523	107.18
819.701	131.75
819.879	180.9
820.058	168.62
820.236	162.47
820.414	98.99
820.592	68.27
820.77	49.83
820.948	150.18
821.127	72.36
821.305	148.14
821.483	176.81
821.661	123.56
821.839	133.8
822.017	62.12
822.195	88.75
822.373	90.79
822.551	109.23
822.729	98.99
822.907	115.37
823.085	119.46
823.262	113.32
823.44	109.23
823.618	86.7
823.796	94.89
823.974	115.37
824.152	82.6
824.329	109.23
824.507	115.37
824.685	144.04
824.863	-32.08
825.04	146.09
825.218	70.31
825.396	78.51
825.574	49.83
825.751	90.79
825.929	123.56
826.107	31.4
826.284	103.08
826.462	82.6
826.639	51.88
826.817	-5.46
826.994	148.14
827.172	41.64
827.349	158.38
827.527	139.94
827.704	76.46
827.882	152.23
828.059	90.79
828.237	80.55
828.414	123.56
828.591	115.37
828.769	127.66
828.946	86.7
829.124	92.84
829.301	101.03
829.478	70.31
829.655	96.94
829.833	84.65
830.01	82.6
830.187	139.94
830.364	82.6
830.542	98.99
830.719	154.28
830.896	90.79
831.073	121.51
831.25	53.93
831.427	76.46
831.604	45.74
831.782	49.83
831.959	90.79
832.136	64.17
832.313	107.18
832.49	133.8
832.667	107.18
832.844	41.64
833.021	119.46
833.198	82.6
833.374	66.22
833.551	58.03
833.728	37.55
833.905	74.41
834.082	90.79
834.259	35.5
834.436	101.03
834.612	-40.28
834.789	92.84
834.966	15.02
835.143	58.03
835.319	55.98
835.496	58.03
835.673	98.99
835.85	62.12
836.026	125.61
836.203	47.79
836.38	60.07
836.556	43.69
836.733	12.97
836.909	107.18
837.086	10.92
837.262	33.45
837.439	41.64
837.616	82.6
837.792	49.83
837.968	41.64
838.145	21.16
838.321	27.31
838.498	111.27
838.674	58.03
838.851	103.08
839.027	47.79
839.203	123.56
839.38	141.99
839.556	35.5
839.732	82.6
839.909	0.68
840.085	115.37
840.261	58.03
840.437	60.07
840.614	2.73
840.79	109.23
840.966	49.83
841.142	47.79
841.318	43.69
841.494	101.03
841.671	92.84
841.847	49.83
842.023	33.45
842.199	74.41
842.375	92.84
842.551	27.31
842.727	41.64
842.903	80.55
843.079	58.03
843.255	12.97
843.431	58.03
843.607	98.99
843.783	-25.94
843.959	19.11
844.134	49.83
844.31	98.99
844.486	33.45
844.662	49.83
844.838	8.87
845.013	131.75
845.189	82.6
845.365	152.23
845.541	35.5
845.716	74.41
845.892	90.79
846.068	17.07
846.244	37.55
846.419	66.22
846.595	-30.04
846.77	-56.66
846.946	53.93
847.122	60.07
847.297	15.02
847.473	201.38
847.648	17.07
847.824	113.32
847.999	-64.85
848.175	17.07
848.35	37.55
848.526	82.6
848.701	60.07
848.876	90.79
849.052	43.69
849.227	98.99
849.403	78.51
849.578	47.79
849.753	80.55
849.929	51.88
850.104	-11.61
850.279	19.11
850.454	27.31
850.63	33.45
850.805	53.93
850.98	23.21
851.155	-27.99
851.33	76.46
851.505	39.59
851.681	29.35
851.856	0.68
852.031	0.68
852.206	74.41
852.381	-3.41
852.556	19.11
852.731	53.93
852.906	88.75
853.081	15.02
853.256	78.51
853.431	76.46
853.606	-9.56
853.781	-79.19
853.956	-48.47
854.131	66.22
854.305	8.87
854.48	-13.65
854.655	101.03
854.83	92.84
855.005	25.26
855.18	58.03
855.354	37.55
855.529	58.03
855.704	35.5
855.879	88.75
856.053	-7.51
856.228	-40.28
856.403	35.5
856.577	29.35
856.752	25.26
856.926	58.03
857.101	2.73
857.276	12.97
857.45	53.93
857.625	49.83
857.799	-64.85
857.974	64.17
858.148	8.87
858.323	6.83
858.497	-34.13
858.672	53.93
858.846	-3.41
859.02	-7.51
859.195	-23.89
859.369	-54.61
859.543	51.88
859.718	66.22
859.892	-50.52
860.066	76.46
860.241	98.99
860.415	29.35
860.589	10.92
860.763	58.03
860.938	-1.37
861.112	86.7
861.286	-15.7
861.46	53.93
861.634	-9.56
861.808	101.03
861.982	-23.89
862.157	-40.28
862.331	21.16
862.505	10.92
862.679	17.07
862.853	2.73
863.027	60.07
863.201	43.69
863.375	0.68
863.549	43.69
863.722	2.73
863.896	19.11
864.07	6.83
864.244	39.59
864.418	-15.7
864.592	92.84
864.766	19.11
864.939	58.03
865.113	66.22
865.287	109.23
865.461	49.83
865.634	51.88
865.808	29.35
865.982	15.02
866.156	-107.86
866.329	17.07
866.503	39.59
866.676	35.5
866.85	29.35
867.024	-30.04
867.197	86.7
867.371	25.26
867.544	21.16
867.718	12.97
867.891	-46.42
868.065	12.97
868.238	53.93
868.412	49.83
868.585	8.87
868.759	-30.04
868.932	-42.32
869.105	-32.08
869.279	55.98
869.452	15.02
869.625	-48.47
869.799	-3.41
869.972	-1.37
870.145	53.93
870.319	33.45
870.492	8.87
870.665	66.22
870.838	29.35
871.011	-95.57
871.185	-15.7
871.358	-25.94
871.531	133.8
871.704	-52.56
871.877	70.31
872.05	-13.65
872.223	31.4
872.396	62.12
872.569	92.84
872.742	-81.24
872.915	21.16
873.088	49.83
873.261	-73.04
873.434	33.45
873.607	70.31
873.78	2.73
873.953	-23.89
874.126	-71
874.299	51.88
874.471	45.74
874.644	-7.51
874.817	33.45
874.99	72.36
875.163	74.41
875.335	70.31
875.508	29.35
875.681	82.6
875.853	-5.46
876.026	-46.42
876.199	68.27
876.371	29.35
876.544	0.68
876.717	41.64
876.889	-32.08
877.062	8.87
877.234	58.03
877.407	8.87
877.579	23.21
877.752	58.03
877.924	45.74
878.097	25.26
878.269	66.22
878.442	19.11
878.614	66.22
878.786	17.07
878.959	-32.08
879.131	-3.41
879.303	-54.61
879.476	76.46
879.648	35.5
879.82	-13.65
879.993	37.55
880.165	-1.37
880.337	10.92
880.509	94.89
880.681	-97.62
880.854	53.93
881.026	49.83
881.198	119.46
881.37	27.31
881.542	-5.46
881.714	2.73
881.886	25.26
882.058	-30.04
882.23	21.16
882.402	70.31
882.574	25.26
882.746	27.31
882.918	49.83
883.09	23.21
883.262	66.22
883.434	15.02
883.606	-40.28
883.778	92.84
883.95	33.45
884.122	29.35
884.293	37.55
884.465	-23.89
884.637	60.07
884.809	98.99
884.98	2.73
885.152	-1.37
885.324	98.99
885.496	17.07
885.667	74.41
885.839	58.03
886.011	-7.51
886.182	8.87
886.354	82.6
886.525	-40.28
886.697	74.41
886.869	-62.8
887.04	-38.23
887.212	31.4
887.383	0.68
887.555	37.55
887.726	37.55
887.897	53.93
888.069	19.11
888.24	27.31
888.412	-77.14
888.583	19.11
888.754	-56.66
888.926	-27.99
889.097	-27.99
889.268	-46.42
889.44	-40.28
889.611	-40.28
889.782	12.97
889.953	17.07
890.125	47.79
890.296	-50.52
890.467	49.83
890.638	-5.46
890.809	41.64
890.98	-38.23
891.151	45.74
891.323	53.93
891.494	86.7
891.665	-38.23
891.836	-5.46
892.007	0.68
892.178	-56.66
892.349	33.45
892.52	0.68
892.691	37.55
892.862	19.11
893.032	-52.56
893.203	-46.42
893.374	17.07
893.545	98.99
893.716	70.31
893.887	51.88
894.057	-56.66
894.228	-44.37
894.399	25.26
894.57	29.35
894.74	45.74
894.911	72.36
895.082	23.21
895.253	-7.51
895.423	17.07
895.594	-15.7
895.764	17.07
895.935	17.07
896.106	10.92
896.276	43.69
896.447	2.73
896.617	-71
896.788	19.11
896.958	12.97
897.129	6.83
897.299	-54.61
897.47	160.42
897.64	92.84
897.81	25.26
897.981	19.11
898.151	-58.71
898.322	53.93
898.492	86.7
898.662	-15.7
898.832	70.31
899.003	51.88
899.173	51.88
899.343	-66.9
899.513	-48.47
