Data from USB4F104151__299__14-34-56-847.txt Node

Date: Thu Mar 13 14:34:56 EDT 2025
User: louis
Spectrometer: USB4F10415
Trigger mode: 4
Integration Time (sec): 2.500000E-2
Scans to average: 1
Electric dark correction enabled: true
Nonlinearity correction enabled: false
Boxcar width: 0
XAxis mode: Wavelengths
Number of Pixels in Spectrum: 3648
>>>>>Begin Spectral Data<<<<<
178.204	-82.43
178.424	-82.43
178.644	-82.43
178.864	-170.49
179.084	-119.29
179.304	-8.7
179.524	40.45
179.744	-20.99
179.964	95.74
180.184	-59.9
180.404	36.35
180.624	19.97
180.844	-18.94
181.064	-55.81
181.283	-4.61
181.503	-41.47
181.723	17.92
181.943	-29.18
182.163	93.69
182.383	48.64
182.602	44.54
182.822	22.02
183.042	48.64
183.262	85.5
183.482	-12.8
183.701	3.58
183.921	58.88
184.141	-12.8
184.361	69.12
184.58	77.31
184.8	95.74
185.02	15.87
185.239	-18.94
185.459	112.13
185.679	-4.61
185.898	-82.43
186.118	22.02
186.338	69.12
186.557	83.45
186.777	22.02
186.997	19.97
187.216	5.63
187.436	134.65
187.655	69.12
187.875	38.4
188.095	93.69
188.314	151.04
188.534	77.31
188.753	-18.94
188.973	69.12
189.192	134.65
189.412	-10.75
189.631	60.93
189.851	54.78
190.07	22.02
190.29	-4.61
190.509	-2.56
190.729	28.16
190.948	19.97
191.168	126.46
191.387	77.31
191.607	56.83
191.826	101.89
192.045	3.58
192.265	58.88
192.484	30.21
192.704	62.98
192.923	-76.29
193.142	126.46
193.362	44.54
193.581	52.74
193.8	22.02
194.02	52.74
194.239	122.37
194.458	77.31
194.678	105.98
194.897	93.69
195.116	52.74
195.335	65.02
195.555	110.08
195.774	52.74
195.993	32.26
196.212	52.74
196.432	28.16
196.651	11.78
196.87	130.56
197.089	159.23
197.308	-16.9
197.528	73.21
197.747	28.16
197.966	22.02
198.185	24.06
198.404	83.45
198.623	85.5
198.842	112.13
199.062	110.08
199.281	42.5
199.5	81.41
199.719	79.36
199.938	36.35
200.157	142.85
200.376	56.83
200.595	-25.09
200.814	48.64
201.033	19.97
201.252	69.12
201.471	71.17
201.69	93.69
201.909	54.78
202.128	28.16
202.347	54.78
202.566	-4.61
202.785	11.78
203.004	36.35
203.223	140.8
203.442	7.68
203.661	7.68
203.879	95.74
204.098	60.93
204.317	28.16
204.536	126.46
204.755	48.64
204.974	101.89
205.193	48.64
205.411	148.99
205.63	77.31
205.849	36.35
206.068	-12.8
206.287	3.58
206.505	110.08
206.724	-20.99
206.943	-12.8
207.162	48.64
207.381	19.97
207.599	-20.99
207.818	36.35
208.037	65.02
208.255	-8.7
208.474	60.93
208.693	97.79
208.911	52.74
209.13	46.59
209.349	85.5
209.567	56.83
209.786	89.6
210.005	36.35
210.223	42.5
210.442	-70.14
210.661	116.22
210.879	26.11
211.098	-10.75
211.316	15.87
211.535	138.75
211.753	42.5
211.972	110.08
212.191	32.26
212.409	-29.18
212.628	85.5
212.846	46.59
213.065	79.36
213.283	69.12
213.502	11.78
213.72	77.31
213.938	62.98
214.157	-20.99
214.375	132.61
214.594	36.35
214.812	62.98
215.031	-2.56
215.249	22.02
215.467	38.4
215.686	101.89
215.904	26.11
216.122	-10.75
216.341	56.83
216.559	-20.99
216.778	48.64
216.996	114.17
217.214	28.16
217.432	-25.09
217.651	50.69
217.869	-29.18
218.087	122.37
218.306	3.58
218.524	110.08
218.742	13.82
218.96	93.69
219.179	-25.09
219.397	24.06
219.615	34.3
219.833	32.26
220.051	-37.38
220.27	110.08
220.488	46.59
220.706	-18.94
220.924	3.58
221.142	52.74
221.36	71.17
221.578	114.17
221.796	56.83
222.015	24.06
222.233	-12.8
222.451	77.31
222.669	54.78
222.887	60.93
223.105	-2.56
223.323	-20.99
223.541	24.06
223.759	30.21
223.977	60.93
224.195	69.12
224.413	60.93
224.631	81.41
224.849	-10.75
225.067	97.79
225.285	73.21
225.503	-4.61
225.721	19.97
225.939	28.16
226.157	36.35
226.375	36.35
226.592	19.97
226.81	22.02
227.028	93.69
227.246	89.6
227.464	-18.94
227.682	19.97
227.9	28.16
228.117	101.89
228.335	60.93
228.553	85.5
228.771	42.5
228.989	60.93
229.206	54.78
229.424	62.98
229.642	-4.61
229.86	5.63
230.077	79.36
230.295	69.12
230.513	95.74
230.731	56.83
230.948	38.4
231.166	48.64
231.384	40.45
231.601	-18.94
231.819	75.26
232.037	-12.8
232.254	24.06
232.472	79.36
232.689	-12.8
232.907	60.93
233.125	24.06
233.342	75.26
233.56	17.92
233.777	22.02
233.995	19.97
234.213	79.36
234.43	36.35
234.648	101.89
234.865	42.5
235.083	-4.61
235.3	48.64
235.518	44.54
235.735	26.11
235.953	44.54
236.17	13.82
236.388	-25.09
236.605	69.12
236.822	30.21
237.04	54.78
237.257	22.02
237.475	-29.18
237.692	36.35
237.909	24.06
238.127	65.02
238.344	46.59
238.562	19.97
238.779	54.78
238.996	44.54
239.214	60.93
239.431	60.93
239.648	-35.33
239.865	81.41
240.083	118.27
240.3	44.54
240.517	40.45
240.735	44.54
240.952	124.41
241.169	67.07
241.386	28.16
241.603	60.93
241.821	-10.75
242.038	56.83
242.255	30.21
242.472	-92.67
242.689	85.5
242.907	65.02
243.124	3.58
243.341	-20.99
243.558	-25.09
243.775	-31.23
243.992	-49.66
244.209	118.27
244.426	95.74
244.643	87.55
244.86	-25.09
245.078	79.36
245.295	19.97
245.512	32.26
245.729	54.78
245.946	69.12
246.163	101.89
246.38	40.45
246.597	38.4
246.814	65.02
247.031	60.93
247.248	69.12
247.464	69.12
247.681	60.93
247.898	19.97
248.115	56.83
248.332	69.12
248.549	11.78
248.766	114.17
248.983	52.74
249.2	46.59
249.417	-4.61
249.633	5.63
249.85	3.58
250.067	19.97
250.284	44.54
250.501	28.16
250.717	48.64
250.934	7.68
251.151	60.93
251.368	77.31
251.585	62.98
251.801	22.02
252.018	11.78
252.235	54.78
252.451	3.58
252.668	36.35
252.885	65.02
253.102	30.21
253.318	77.31
253.535	5.63
253.752	19.97
253.968	9.73
254.185	3.58
254.401	77.31
254.618	46.59
254.835	40.45
255.051	112.13
255.268	87.55
255.484	34.3
255.701	38.4
255.917	38.4
256.134	-33.28
256.351	65.02
256.567	-8.7
256.784	52.74
257	-37.38
257.217	108.03
257.433	62.98
257.65	40.45
257.866	93.69
258.082	-33.28
258.299	71.17
258.515	58.88
258.732	-20.99
258.948	24.06
259.165	30.21
259.381	28.16
259.597	22.02
259.814	36.35
260.03	-49.66
260.246	69.12
260.463	36.35
260.679	52.74
260.895	28.16
261.112	60.93
261.328	13.82
261.544	77.31
261.761	130.56
261.977	77.31
262.193	-4.61
262.409	87.55
262.626	101.89
262.842	38.4
263.058	-10.75
263.274	46.59
263.49	48.64
263.707	87.55
263.923	32.26
264.139	-4.61
264.355	19.97
264.571	103.93
264.787	42.5
265.004	46.59
265.22	13.82
265.436	46.59
265.652	60.93
265.868	138.75
266.084	28.16
266.3	62.98
266.516	-41.47
266.732	56.83
266.948	65.02
267.164	67.07
267.38	62.98
267.596	52.74
267.812	120.32
268.028	126.46
268.244	-2.56
268.46	36.35
268.676	85.5
268.892	60.93
269.108	17.92
269.324	-29.18
269.54	3.58
269.756	77.31
269.972	-0.51
270.188	52.74
270.403	9.73
270.619	85.5
270.835	118.27
271.051	62.98
271.267	17.92
271.483	36.35
271.698	77.31
271.914	11.78
272.13	95.74
272.346	38.4
272.562	-8.7
272.777	114.17
272.993	30.21
273.209	40.45
273.425	69.12
273.64	36.35
273.856	40.45
274.072	13.82
274.287	62.98
274.503	136.7
274.719	69.12
274.934	56.83
275.15	7.68
275.366	52.74
275.581	11.78
275.797	48.64
276.012	36.35
276.228	-16.9
276.444	69.12
276.659	-0.51
276.875	-45.57
277.09	85.5
277.306	85.5
277.521	142.85
277.737	-53.76
277.952	69.12
278.168	75.26
278.383	79.36
278.599	17.92
278.814	38.4
279.03	11.78
279.245	179.71
279.461	15.87
279.676	101.89
279.892	3.58
280.107	87.55
280.322	17.92
280.538	60.93
280.753	93.69
280.969	44.54
281.184	22.02
281.399	56.83
281.615	13.82
281.83	-18.94
282.045	-10.75
282.26	58.88
282.476	3.58
282.691	42.5
282.906	46.59
283.122	15.87
283.337	-23.04
283.552	146.94
283.767	36.35
283.983	93.69
284.198	26.11
284.413	36.35
284.628	28.16
284.843	11.78
285.058	110.08
285.274	36.35
285.489	-12.8
285.704	118.27
285.919	-35.33
286.134	22.02
286.349	77.31
286.564	44.54
286.779	65.02
286.995	128.51
287.21	40.45
287.425	83.45
287.64	46.59
287.855	3.58
288.07	62.98
288.285	28.16
288.5	28.16
288.715	105.98
288.93	36.35
289.145	19.97
289.36	144.89
289.575	28.16
289.79	93.69
290.004	19.97
290.219	69.12
290.434	40.45
290.649	-25.09
290.864	13.82
291.079	22.02
291.294	36.35
291.509	85.5
291.724	36.35
291.938	36.35
292.153	93.69
292.368	73.21
292.583	7.68
292.798	77.31
293.012	56.83
293.227	28.16
293.442	38.4
293.657	19.97
293.871	89.6
294.086	60.93
294.301	50.69
294.516	62.98
294.73	85.5
294.945	19.97
295.16	105.98
295.374	81.41
295.589	142.85
295.804	19.97
296.018	60.93
296.233	52.74
296.447	-18.94
296.662	54.78
296.877	24.06
297.091	52.74
297.306	65.02
297.52	69.12
297.735	114.17
297.949	-2.56
298.164	71.17
298.378	30.21
298.593	-6.66
298.807	118.27
299.022	52.74
299.236	60.93
299.451	79.36
299.665	75.26
299.88	116.22
300.094	36.35
300.309	30.21
300.523	60.93
300.737	-20.99
300.952	28.16
301.166	159.23
301.381	32.26
301.595	60.93
301.809	93.69
302.024	44.54
302.238	91.65
302.452	73.21
302.667	85.5
302.881	54.78
303.095	69.12
303.309	105.98
303.524	28.16
303.738	1.54
303.952	-0.51
304.166	79.36
304.381	-27.14
304.595	54.78
304.809	24.06
305.023	50.69
305.237	-20.99
305.452	62.98
305.666	71.17
305.88	7.68
306.094	77.31
306.308	69.12
306.522	44.54
306.736	32.26
306.95	60.93
307.164	91.65
307.379	26.11
307.593	60.93
307.807	60.93
308.021	-0.51
308.235	69.12
308.449	60.93
308.663	7.68
308.877	91.65
309.091	69.12
309.305	105.98
309.519	-37.38
309.733	112.13
309.947	36.35
310.161	103.93
310.374	138.75
310.588	97.79
310.802	-18.94
311.016	7.68
311.23	54.78
311.444	-8.7
311.658	40.45
311.872	69.12
312.085	54.78
312.299	54.78
312.513	52.74
312.727	36.35
312.941	-57.86
313.154	44.54
313.368	38.4
313.582	69.12
313.796	52.74
314.009	5.63
314.223	114.17
314.437	173.57
314.651	9.73
314.864	62.98
315.078	-20.99
315.292	19.97
315.505	69.12
315.719	42.5
315.933	28.16
316.146	-18.94
316.36	-10.75
316.573	103.93
316.787	44.54
317.001	46.59
317.214	36.35
317.428	81.41
317.641	-23.04
317.855	40.45
318.068	69.12
318.282	73.21
318.495	108.03
318.709	58.88
318.922	24.06
319.136	134.65
319.349	69.12
319.563	65.02
319.776	71.17
319.99	40.45
320.203	79.36
320.417	136.7
320.63	101.89
320.843	79.36
321.057	85.5
321.27	65.02
321.483	46.59
321.697	142.85
321.91	44.54
322.124	95.74
322.337	73.21
322.55	77.31
322.763	69.12
322.977	48.64
323.19	7.68
323.403	60.93
323.617	83.45
323.83	89.6
324.043	3.58
324.256	28.16
324.469	40.45
324.683	69.12
324.896	28.16
325.109	77.31
325.322	42.5
325.535	38.4
325.748	130.56
325.962	95.74
326.175	40.45
326.388	44.54
326.601	69.12
326.814	19.97
327.027	85.5
327.24	93.69
327.453	-70.14
327.666	60.93
327.879	105.98
328.092	110.08
328.305	71.17
328.518	11.78
328.731	46.59
328.944	-29.18
329.157	44.54
329.37	28.16
329.583	105.98
329.796	101.89
330.009	15.87
330.222	7.68
330.435	62.98
330.648	93.69
330.861	19.97
331.073	15.87
331.286	130.56
331.499	95.74
331.712	48.64
331.925	81.41
332.138	36.35
332.35	58.88
332.563	7.68
332.776	28.16
332.989	-4.61
333.202	93.69
333.414	44.54
333.627	36.35
333.84	22.02
334.053	48.64
334.265	79.36
334.478	71.17
334.691	60.93
334.903	46.59
335.116	54.78
335.329	93.69
335.541	167.42
335.754	155.13
335.966	-29.18
336.179	85.5
336.392	-12.8
336.604	65.02
336.817	87.55
337.029	105.98
337.242	93.69
337.454	13.82
337.667	28.16
337.88	103.93
338.092	99.84
338.305	81.41
338.517	-12.8
338.729	32.26
338.942	60.93
339.154	3.58
339.367	77.31
339.579	-0.51
339.792	71.17
340.004	44.54
340.217	54.78
340.429	71.17
340.641	48.64
340.854	19.97
341.066	40.45
341.278	95.74
341.491	67.07
341.703	7.68
341.915	67.07
342.128	155.13
342.34	36.35
342.552	22.02
342.764	40.45
342.977	5.63
343.189	32.26
343.401	112.13
343.613	-29.18
343.826	73.21
344.038	50.69
344.25	46.59
344.462	60.93
344.674	3.58
344.886	56.83
345.099	69.12
345.311	22.02
345.523	136.7
345.735	19.97
345.947	126.46
346.159	103.93
346.371	36.35
346.583	28.16
346.795	142.85
347.007	36.35
347.219	134.65
347.431	73.21
347.643	73.21
347.855	101.89
348.067	89.6
348.279	85.5
348.491	128.51
348.703	42.5
348.915	48.64
349.127	-33.28
349.339	101.89
349.551	17.92
349.763	77.31
349.975	69.12
350.187	101.89
350.399	95.74
350.61	60.93
350.822	48.64
351.034	110.08
351.246	52.74
351.458	60.93
351.669	60.93
351.881	69.12
352.093	112.13
352.305	36.35
352.517	11.78
352.728	42.5
352.94	-2.56
353.152	134.65
353.363	81.41
353.575	136.7
353.787	28.16
353.999	69.12
354.21	81.41
354.422	24.06
354.633	-16.9
354.845	65.02
355.057	103.93
355.268	56.83
355.48	142.85
355.692	-2.56
355.903	67.07
356.115	112.13
356.326	-37.38
356.538	134.65
356.749	28.16
356.961	-12.8
357.172	110.08
357.384	85.5
357.595	114.17
357.807	85.5
358.018	58.88
358.23	28.16
358.441	101.89
358.653	60.93
358.864	13.82
359.075	19.97
359.287	5.63
359.498	161.28
359.709	79.36
359.921	44.54
360.132	60.93
360.344	110.08
360.555	50.69
360.766	87.55
360.977	65.02
361.189	93.69
361.4	97.79
361.611	77.31
361.823	83.45
362.034	62.98
362.245	73.21
362.456	-4.61
362.667	163.33
362.879	52.74
363.09	3.58
363.301	-27.14
363.512	77.31
363.723	40.45
363.935	-4.61
364.146	81.41
364.357	44.54
364.568	-4.61
364.779	42.5
364.99	171.52
365.201	19.97
365.412	97.79
365.623	120.32
365.834	79.36
366.045	97.79
366.256	81.41
366.467	54.78
366.678	-18.94
366.889	93.69
367.1	56.83
367.311	81.41
367.522	60.93
367.733	101.89
367.944	69.12
368.155	83.45
368.366	112.13
368.577	62.98
368.788	93.69
368.999	13.82
369.209	62.98
369.42	167.42
369.631	200.19
369.842	85.5
370.053	153.09
370.264	91.65
370.474	81.41
370.685	93.69
370.896	81.41
371.107	52.74
371.317	118.27
371.528	73.21
371.739	28.16
371.95	81.41
372.16	89.6
372.371	11.78
372.582	91.65
372.792	7.68
373.003	52.74
373.214	22.02
373.424	110.08
373.635	28.16
373.846	167.42
374.056	69.12
374.267	71.17
374.477	118.27
374.688	83.45
374.898	128.51
375.109	95.74
375.319	85.5
375.53	83.45
375.74	11.78
375.951	126.46
376.161	134.65
376.372	40.45
376.582	46.59
376.793	69.12
377.003	60.93
377.214	44.54
377.424	-2.56
377.635	5.63
377.845	69.12
378.055	105.98
378.266	-12.8
378.476	3.58
378.686	40.45
378.897	110.08
379.107	69.12
379.317	34.3
379.528	110.08
379.738	112.13
379.948	44.54
380.158	110.08
380.369	56.83
380.579	200.19
380.789	101.89
380.999	118.27
381.21	116.22
381.42	151.04
381.63	56.83
381.84	136.7
382.05	87.55
382.261	79.36
382.471	95.74
382.681	24.06
382.891	157.18
383.101	87.55
383.311	11.78
383.521	36.35
383.731	9.73
383.941	167.42
384.151	46.59
384.361	95.74
384.571	-2.56
384.781	91.65
384.991	142.85
385.201	110.08
385.411	36.35
385.621	110.08
385.831	22.02
386.041	28.16
386.251	54.78
386.461	134.65
386.671	48.64
386.881	85.5
387.091	48.64
387.301	101.89
387.511	36.35
387.72	38.4
387.93	110.08
388.14	-12.8
388.35	134.65
388.56	110.08
388.769	153.09
388.979	77.31
389.189	40.45
389.399	52.74
389.609	77.31
389.818	134.65
390.028	46.59
390.238	112.13
390.447	85.5
390.657	110.08
390.867	159.23
391.076	85.5
391.286	116.22
391.496	126.46
391.705	44.54
391.915	52.74
392.125	108.03
392.334	110.08
392.544	142.85
392.753	130.56
392.963	85.5
393.172	62.98
393.382	91.65
393.591	153.09
393.801	101.89
394.01	183.81
394.22	142.85
394.429	146.94
394.639	87.55
394.848	177.66
395.058	118.27
395.267	-4.61
395.477	126.46
395.686	138.75
395.895	167.42
396.105	185.85
396.314	89.6
396.524	128.51
396.733	120.32
396.942	202.24
397.152	126.46
397.361	185.85
397.57	26.11
397.78	187.9
397.989	243.2
398.198	171.52
398.407	126.46
398.617	222.72
398.826	128.51
399.035	282.11
399.244	167.42
399.453	122.37
399.663	167.42
399.872	136.7
400.081	118.27
400.29	140.8
400.499	97.79
400.708	173.57
400.917	122.37
401.127	159.23
401.336	226.81
401.545	212.48
401.754	146.94
401.963	183.81
402.172	159.23
402.381	161.28
402.59	101.89
402.799	159.23
403.008	161.28
403.217	169.47
403.426	169.47
403.635	169.47
403.844	200.19
404.053	177.66
404.262	167.42
404.471	230.91
404.68	146.94
404.888	273.92
405.097	212.48
405.306	222.72
405.515	241.15
405.724	220.67
405.933	292.35
406.142	249.34
406.35	249.34
406.559	192
406.768	216.57
406.977	325.12
407.185	249.34
407.394	255.48
407.603	235
407.812	294.4
408.02	359.93
408.229	339.45
408.438	316.92
408.646	331.26
408.855	355.83
409.064	331.26
409.272	327.16
409.481	374.27
409.69	298.49
409.898	355.83
410.107	456.19
410.315	456.19
410.524	470.52
410.733	425.47
410.941	415.23
411.15	505.34
411.358	460.28
411.567	540.15
411.775	507.38
411.984	552.44
412.192	681.46
412.401	527.86
412.609	667.13
412.818	671.22
413.026	693.75
413.234	687.61
413.443	718.33
413.651	728.56
413.86	828.92
414.068	882.16
414.276	792.05
414.485	761.33
414.693	921.07
414.901	1078.77
415.11	902.64
415.318	941.55
415.526	970.23
415.734	1099.25
415.943	1062.38
416.151	1117.68
416.359	1152.49
416.567	1119.73
416.776	1310.19
416.984	1404.39
417.192	1324.52
417.4	1338.86
417.608	1420.78
417.817	1347.05
418.025	1666.53
418.233	1611.24
418.441	1574.38
418.649	1668.58
418.857	1748.45
419.065	1795.56
419.273	1842.66
419.481	1879.52
419.689	1940.96
419.897	2180.57
420.105	2045.41
420.313	2147.81
420.521	2156
420.729	2264.54
420.937	2348.51
421.145	2448.86
421.353	2573.78
421.561	2661.85
421.769	2635.22
421.977	2809.3
422.185	2676.18
422.393	3034.58
422.601	3251.66
422.809	3016.15
423.017	3263.95
423.224	3313.1
423.432	3431.88
423.64	3366.35
423.848	3757.51
424.056	3528.14
424.263	3829.19
424.471	3831.24
424.679	4087.23
424.887	4005.31
425.094	4203.97
425.302	4410.81
425.51	4423.1
425.718	4615.61
425.925	4683.19
426.133	4937.14
426.341	5041.59
426.548	5371.31
426.756	5467.56
426.964	5295.54
427.171	5805.48
427.379	5823.91
427.586	6063.52
427.794	6063.52
428.001	6522.27
428.209	6782.36
428.417	6573.47
428.624	7089.56
428.832	7001.49
429.039	6999.45
429.247	7060.88
429.454	7673.23
429.662	8201.6
429.869	7536.01
430.076	8111.49
430.284	7937.41
430.491	8226.18
430.699	8605.05
430.906	8664.44
431.114	8922.49
431.321	9244.02
431.528	9489.78
431.736	10042.73
431.943	10433.89
432.15	10055.01
432.358	10112.36
432.565	10624.35
432.772	10558.81
432.979	11017.56
433.187	11357.52
433.394	11464.02
433.601	12225.86
433.808	12571.97
434.016	12318.02
434.223	12705.09
434.43	13405.49
434.637	13401.4
434.844	14038.31
435.052	14355.75
435.259	14382.37
435.466	14284.07
435.673	14380.32
435.88	15224.09
436.087	15863.05
436.294	15947.02
436.501	15820.05
436.708	15920.4
436.915	16264.46
437.122	17128.7
437.329	17239.29
437.537	17564.92
437.743	17849.58
437.95	17468.66
438.157	18689.25
438.364	19281.11
438.571	19350.74
438.778	19274.97
438.985	21042.37
439.192	20436.17
439.399	20884.67
439.606	20229.32
439.813	21787.83
440.02	22903.97
440.227	22398.12
440.433	22357.16
440.64	23057.57
440.847	22895.78
441.054	23569.56
441.261	24843.4
441.467	24573.07
441.674	25279.61
441.881	25822.33
442.088	25920.63
442.294	25799.8
442.501	26242.16
442.708	27231.33
442.914	27712.6
443.121	29025.35
443.328	28095.57
443.534	30131.25
443.741	29398.08
443.948	28838.98
444.154	31331.36
444.361	30909.48
444.568	31030.31
444.774	31061.03
444.981	31593.5
445.187	32261.14
445.394	33526.78
445.6	33135.62
445.807	35959.77
446.013	34853.87
446.22	35185.64
446.426	36887.5
446.633	37397.45
446.839	38400.95
447.046	36840.4
447.252	38704.05
447.459	38863.79
447.665	38841.26
447.871	40745.87
448.078	41771.91
448.284	40180.63
448.491	40924.05
448.697	42529.66
448.903	42910.58
449.11	43246.44
449.316	42965.87
449.522	44268.38
449.728	44698.45
449.935	44835.67
450.141	45318.99
450.347	46007.11
450.553	44536.66
450.76	45253.45
450.966	46676.79
451.172	45984.58
451.378	47735.59
451.584	46467.9
451.791	47362.86
451.997	47725.35
452.203	48251.68
452.409	48194.34
452.615	47665.96
452.821	46355.26
453.027	45325.13
453.233	48102.18
453.44	45884.23
453.646	46775.09
453.852	46664.5
454.058	47711.02
454.264	46058.31
454.47	46983.99
454.676	45908.8
454.882	47276.85
455.088	43635.56
455.294	43914.08
455.5	44464.99
455.705	44850
455.911	43348.84
456.117	42374.01
456.323	41730.95
456.529	39730.08
456.735	41325.45
456.941	40575.89
457.147	39879.58
457.352	38777.78
457.558	38187.96
457.764	38589.36
457.97	37387.21
458.176	36862.93
458.381	36819.92
458.587	34995.18
458.793	34694.13
458.999	33264.64
459.204	34862.06
459.41	34407.41
459.616	32433.17
459.821	31853.59
460.027	31804.44
460.233	31648.8
460.438	29594.68
460.644	30149.68
460.85	28841.03
461.055	28251.22
461.261	28343.38
461.466	26074.23
461.672	25601.15
461.878	27038.82
462.083	25224.32
462.289	24996.99
462.494	24822.92
462.7	23743.64
462.905	22920.35
463.111	23874.71
463.316	23864.47
463.522	23295.13
463.727	23248.03
463.932	23116.96
464.138	22914.21
464.343	22891.68
464.549	22359.21
464.754	23280.8
464.959	23047.33
465.165	22729.89
465.37	21558.46
465.575	21308.6
465.781	21955.76
465.986	21984.43
466.191	21191.87
466.397	20645.06
466.602	19909.84
466.807	20718.79
467.012	20688.07
467.218	20563.14
467.423	19848.4
467.628	20643.01
467.833	21259.45
468.038	20274.38
468.244	19764.43
468.449	20413.64
468.654	19944.66
468.859	19776.72
469.064	19776.72
469.269	19041.5
469.474	19211.48
469.679	19623.12
469.885	18916.58
470.09	18971.87
470.295	18746.59
470.5	18455.78
470.705	18648.29
470.91	18234.6
471.115	17986.8
471.32	18238.7
471.525	18048.24
471.73	17808.62
471.935	17509.62
472.139	17128.7
472.344	17116.41
472.549	16983.29
472.754	17030.4
472.959	16702.72
473.164	16151.82
473.369	16037.13
473.574	16530.69
473.778	16413.96
473.983	16076.04
474.188	16073.99
474.393	15383.83
474.598	15396.12
474.802	15473.94
475.007	15183.13
475.212	15156.5
475.417	14734.62
475.621	14667.04
475.826	14642.46
476.031	14427.43
476.235	14388.52
476.44	14126.38
476.645	14023.98
476.849	14200.1
477.054	14015.79
477.259	13610.29
477.463	13765.93
477.668	13331.76
477.872	13659.44
478.077	13477.17
478.282	13169.98
478.486	12930.36
478.691	12873.02
478.895	12879.16
479.1	12803.39
479.304	12844.35
479.509	12412.23
479.713	12653.89
479.918	12299.59
480.122	12068.17
480.326	12318.02
480.531	12307.78
480.735	12289.35
480.94	11955.53
481.144	12533.06
481.348	11709.77
481.553	12012.87
481.757	11713.87
481.961	11867.47
482.166	12053.83
482.37	12098.89
482.574	11586.9
482.778	11808.08
482.983	12100.94
483.187	11644.24
483.391	11863.37
483.595	11865.42
483.8	11550.03
484.004	11810.12
484.208	11926.86
484.412	11683.15
484.616	11771.21
484.821	11818.32
485.025	11445.59
485.229	11980.11
485.433	11570.51
485.637	11799.88
485.841	11539.79
486.045	11693.39
486.249	11791.69
486.453	11623.76
486.657	11808.08
486.861	11693.39
487.065	11566.42
487.269	11937.1
487.473	11685.2
487.677	11539.79
487.881	11849.04
488.085	11797.84
488.289	11726.16
488.493	11615.57
488.697	12000.58
488.901	11752.78
489.105	11636.05
489.309	11849.04
489.512	11638.09
489.716	11726.16
489.92	11851.08
490.124	11709.77
490.328	11973.96
490.531	11797.84
490.735	11828.56
490.939	11996.49
491.143	11775.31
491.346	12029.26
491.55	11930.95
491.754	12182.85
491.958	12096.84
492.161	12186.95
492.365	12168.52
492.569	12135.75
492.772	12027.21
492.976	12186.95
493.18	12404.03
493.383	12389.7
493.587	12619.07
493.79	12672.32
493.994	12545.34
494.197	12594.5
494.401	12791.1
494.605	12731.71
494.808	12934.46
495.012	12817.72
495.215	13210.93
495.419	13245.75
495.622	12811.58
495.825	13299
496.029	13083.96
496.232	13528.37
496.436	13401.4
496.639	13747.5
496.843	13655.34
497.046	13894.96
497.249	14212.39
497.453	13901.1
497.656	14054.7
497.859	14298.41
498.063	14482.72
498.266	14495.01
498.469	14865.69
498.673	14851.36
498.876	15035.67
499.079	14941.47
499.282	14892.32
499.485	15609.11
499.689	15480.08
499.892	15791.38
500.095	15750.42
500.298	15951.12
500.501	16004.36
500.705	16504.07
500.908	16553.22
501.111	16594.18
501.314	16678.15
501.517	16925.95
501.72	17362.17
501.923	16923.9
502.126	17480.95
502.329	17902.83
502.532	17741.04
502.735	17616.12
502.938	18195.69
503.141	18345.19
503.344	18736.35
503.547	18562.28
503.75	18926.82
503.953	19387.61
504.156	19334.36
504.359	19668.18
504.562	19594.45
504.765	19819.73
504.968	20155.6
505.17	20487.37
505.373	20055.25
505.576	20772.04
505.779	20686.02
505.982	21136.57
506.185	21447.86
506.387	21615.8
506.59	21771.44
506.793	21970.1
506.996	22025.39
507.198	22783.14
507.401	22461.61
507.604	22678.69
507.807	23198.88
508.009	23319.71
508.212	23149.73
508.415	23645.34
508.617	23991.44
508.82	23829.65
509.022	23749.78
509.225	24458.38
509.428	24626.31
509.63	24687.75
509.833	24999.04
510.035	25451.64
510.238	25574.52
510.44	25797.75
510.643	26158.19
510.845	26557.55
511.048	26178.67
511.25	26733.67
511.453	27075.68
511.655	28003.41
511.858	27489.37
512.06	28093.52
512.262	27944.02
512.465	27960.41
512.667	28673.1
512.87	28466.25
513.072	28687.43
513.274	29404.22
513.477	29641.79
513.679	29715.51
513.881	30202.93
514.084	30286.9
514.286	30204.98
514.488	30884.9
514.69	31312.93
514.893	31466.53
515.095	31286.31
515.297	31878.17
515.499	31769.63
515.701	32386.07
515.904	32648.21
516.106	32576.53
516.308	33137.67
516.51	33223.69
516.712	33278.98
516.914	33743.87
517.116	34251.77
517.318	34409.46
517.52	34518
517.722	34593.78
517.925	34827.24
518.127	35427.3
518.329	35857.37
518.531	35445.73
518.733	35898.33
518.935	36617.17
519.136	36295.64
519.338	36871.12
519.54	37039.05
519.742	37362.63
519.944	37118.92
520.146	37823.42
520.348	38187.96
520.55	38173.63
520.752	38093.75
520.954	38677.43
521.155	38648.75
521.357	38779.82
521.559	38951.85
521.761	39986.08
521.963	39703.46
522.164	39586.72
522.366	40094.62
522.568	40254.36
522.77	40364.95
522.971	40536.98
523.173	40584.08
523.375	40706.96
523.576	40825.75
523.778	41036.69
523.98	41333.64
524.181	41522.05
524.383	41517.96
524.584	41919.36
524.786	42072.96
524.988	41763.71
525.189	42066.81
525.391	42279.8
525.592	42554.23
525.794	42664.82
525.995	42830.71
526.197	42877.81
526.398	42460.02
526.6	43086.7
526.801	43113.33
527.003	42828.66
527.204	42761.08
527.406	43006.83
527.607	42986.35
527.808	43488.1
528.01	42664.82
528.211	42969.97
528.412	43705.19
528.614	43389.8
528.815	43633.51
529.016	43627.37
529.218	43582.31
529.419	43494.25
529.62	43606.89
529.822	43342.7
530.023	43674.47
530.224	43598.69
530.425	43240.3
530.626	43293.55
530.828	43350.89
531.029	44139.36
531.23	43680.61
531.431	43729.76
531.632	43563.88
531.833	43840.36
532.035	43830.12
532.236	43344.75
532.437	43645.8
532.638	43621.22
532.839	43531.11
533.04	43533.16
533.241	43240.3
533.442	43615.08
533.643	43572.07
533.844	43232.11
534.045	43162.48
534.246	42589.05
534.447	43555.69
534.648	43125.61
534.849	43201.39
535.05	42939.25
535.251	42853.23
535.451	42716.02
535.652	42380.15
535.853	42896.24
536.054	43012.98
536.255	43060.08
536.456	42480.5
536.657	43271.02
536.857	42666.87
537.058	42371.96
537.259	43195.24
537.46	42793.84
537.66	42888.05
537.861	42689.4
538.062	42736.5
538.263	42435.45
538.463	42316.67
538.664	42287.99
538.865	42269.56
539.065	42425.21
539.266	42034.05
539.466	42298.23
539.667	42220.41
539.868	42673.01
540.068	42404.73
540.269	42255.23
540.469	42460.02
540.67	42152.83
540.87	42197.88
541.071	41786.24
541.271	41827.2
541.472	42505.08
541.672	42156.92
541.873	42101.63
542.073	41700.23
542.274	42423.16
542.474	41941.89
542.675	42068.86
542.875	42034.05
543.075	41902.98
543.276	41352.07
543.476	41900.93
543.676	41675.65
543.877	42287.99
544.077	41929.6
544.277	41565.06
544.478	41870.21
544.678	41915.26
544.878	41954.18
545.078	41804.67
545.279	41763.71
545.479	41378.7
545.679	41972.61
545.879	41726.85
546.079	41735.04
546.28	41493.38
546.48	41157.52
546.68	41950.08
546.88	41698.18
547.08	41706.37
547.28	41468.81
547.48	41180.04
547.68	41814.91
547.88	41165.71
548.081	41565.06
548.281	41597.83
548.481	41661.32
548.681	41720.71
548.881	41737.09
549.081	41597.83
549.28	41141.13
549.48	41735.04
549.68	41524.1
549.88	42081.15
550.08	41460.62
550.28	41694.08
550.48	41450.38
550.68	41673.6
550.88	41634.69
551.08	41819.01
551.279	42261.37
551.479	41487.24
551.679	41706.37
551.879	41724.8
552.079	41788.29
552.278	41825.15
552.478	42038.14
552.678	41345.93
552.878	41776
553.077	41411.46
553.277	41595.78
553.477	42099.58
553.676	41704.32
553.876	41976.7
554.076	41520.01
554.275	41704.32
554.475	41427.85
554.674	42046.33
554.874	42208.12
555.074	41919.36
555.273	41657.22
555.473	42103.68
555.672	41970.56
555.872	41823.11
556.071	42091.39
556.271	42019.71
556.47	41700.23
556.67	41522.05
556.869	41849.73
557.068	41984.9
557.268	41626.5
557.467	42326.91
557.667	41636.74
557.866	41962.37
558.065	41943.94
558.265	42038.14
558.464	41470.86
558.663	42259.32
558.863	41526.15
559.062	41991.04
559.261	41599.88
559.461	42623.86
559.66	41679.75
559.859	41806.72
560.058	41538.44
560.258	41733
560.457	41550.73
560.656	41878.4
560.855	41722.76
561.054	42410.87
561.253	41819.01
561.453	41538.44
561.652	41917.31
561.851	41870.21
562.05	41565.06
562.249	41372.55
562.448	42042.24
562.647	41616.26
562.846	41907.07
563.045	41669.51
563.244	41493.38
563.443	41933.7
563.642	41153.42
563.841	41481.1
564.04	41264.01
564.239	41784.19
564.438	41354.12
564.637	41096.08
564.836	41612.17
565.035	41087.89
565.234	41190.28
565.432	41087.89
565.631	40903.57
565.83	41444.23
566.029	40969.1
566.228	40795.03
566.427	40729.49
566.625	40934.29
566.824	40735.63
567.023	41016.21
567.222	40065.95
567.42	41089.93
567.619	40534.93
567.818	40674.2
568.016	40704.91
568.215	41079.69
568.414	40491.93
568.612	40715.15
568.811	40199.07
569.01	40309.66
569.208	39822.24
569.407	40276.89
569.605	39695.27
569.804	40237.98
570.002	39730.08
570.201	40047.52
570.4	39906.21
570.598	39789.47
570.797	39674.79
570.995	39830.43
571.193	39154.6
571.392	39613.35
571.59	39134.12
571.789	39250.86
571.987	38747.06
572.186	39414.69
572.384	38642.61
572.582	38826.93
572.781	39037.87
572.979	38353.85
573.177	38501.3
573.376	38472.63
573.574	38804.4
573.772	38460.34
573.971	38157.24
574.169	38085.56
574.367	37669.83
574.565	38415.29
574.763	37995.45
574.962	37868.48
575.16	37362.63
575.358	37843.9
575.556	37278.66
575.754	37794.75
575.952	37055.43
576.151	37538.76
576.349	36750.29
576.547	36930.51
576.745	37282.76
576.943	37082.06
577.141	36981.71
577.339	37045.19
577.537	37004.24
577.735	36658.13
577.933	36709.33
578.131	36586.45
578.329	36506.58
578.527	36400.08
578.725	36240.34
578.923	36305.88
579.121	36113.37
579.319	35929.05
579.516	36144.09
579.714	35830.75
579.912	35750.88
580.11	35824.61
580.308	35574.75
580.506	35568.61
580.704	35197.93
580.901	35197.93
581.099	35453.92
581.297	35025.9
581.495	34962.41
581.692	35593.18
581.89	34741.23
582.088	34468.85
582.285	34778.09
582.483	35068.9
582.681	34851.82
582.878	34511.86
583.076	34313.2
583.274	34477.04
583.471	34069.5
583.669	34378.74
583.866	33885.18
584.064	34438.13
584.262	33782.78
584.459	34175.99
584.657	33809.4
584.854	33774.59
585.052	33453.06
585.249	33833.98
585.447	33547.26
585.644	33082.38
585.841	33457.15
586.039	33666.05
586.236	33088.52
586.434	33254.4
586.631	33266.69
586.828	33178.63
587.026	33070.09
587.223	32871.43
587.42	32658.45
587.618	32758.8
587.815	32404.5
588.012	32384.02
588.21	32515.09
588.407	32773.13
588.604	32291.86
588.801	32128.02
588.999	32171.03
589.196	31906.84
589.393	32144.41
589.59	32089.11
589.787	32087.06
589.984	31788.06
590.182	31679.52
590.379	31820.83
590.576	31337.51
590.773	31505.44
590.97	31321.12
591.167	31597.6
591.364	30882.86
591.561	31462.43
591.758	31040.55
591.955	31099.94
592.152	31648.8
592.349	30860.33
592.546	31304.74
592.743	31188
592.94	30753.83
593.137	30702.64
593.334	30942.25
593.531	30821.42
593.727	30678.06
593.924	30704.68
594.121	30329.91
594.318	30897.19
594.515	29936.7
594.712	30837.8
594.908	30094.39
595.105	30184.5
595.302	30073.91
595.499	30458.93
595.696	29926.46
595.892	30008.37
596.089	30051.38
596.286	30215.22
596.482	29918.26
596.679	30061.62
596.876	30260.27
597.072	29793.34
597.269	29948.98
597.466	29762.62
597.662	29834.3
597.859	29723.71
598.055	29924.41
598.252	29643.84
598.448	29752.38
598.645	29934.65
598.841	29428.8
599.038	29541.44
599.234	29838.39
599.431	29447.23
599.627	29639.74
599.824	29461.57
600.02	29252.67
600.217	29652.03
600.413	29615.16
600.609	29346.88
600.806	29441.09
601.002	29267.01
601.198	29168.71
601.395	29381.7
601.591	29322.3
601.787	29434.94
601.984	29234.24
602.18	29215.81
602.376	29092.93
602.572	29148.23
602.769	29424.7
602.965	29037.64
603.161	29383.74
603.357	29051.97
603.553	29224
603.75	29484.09
603.946	29033.54
604.142	29422.66
604.338	29334.59
604.534	29627.45
604.73	29013.06
604.926	29228.1
605.122	29576.25
605.318	29088.84
605.514	29092.93
605.71	29039.68
605.906	29078.6
606.102	29525.05
606.298	29512.77
606.494	29363.26
606.69	29387.84
606.886	29338.69
607.082	29127.75
607.278	29328.45
607.474	29039.68
607.67	29856.82
607.866	29054.02
608.062	29705.27
608.257	29529.15
608.453	29623.36
608.649	29668.41
608.845	29647.93
609.041	29379.65
609.236	29715.51
609.432	29740.09
609.628	29518.91
609.824	29500.48
610.019	29631.55
610.215	29584.44
610.411	29936.7
610.606	29668.41
610.802	29682.75
610.998	30041.14
611.193	30043.19
611.389	29725.75
611.584	29873.21
611.78	29330.5
611.976	29920.31
612.171	29742.14
612.367	29461.57
612.562	29938.74
612.758	29592.64
612.953	29695.03
613.149	30030.9
613.344	29748.28
613.539	30215.22
613.735	29815.87
613.93	29887.54
614.126	29463.61
614.321	30098.48
614.517	30125.11
614.712	29776.95
614.907	29688.89
615.103	29924.41
615.298	30041.14
615.493	30188.6
615.688	29543.49
615.884	30368.82
616.079	29500.48
616.274	30372.91
616.47	30311.47
616.665	29910.07
616.86	29690.94
617.055	29793.34
617.25	29742.14
617.445	30024.76
617.641	29396.03
617.836	30067.77
618.031	29350.98
618.226	29865.02
618.421	29535.29
618.616	29869.11
618.811	29148.23
619.006	29631.55
619.201	28886.09
619.396	29570.11
619.591	28994.63
619.786	29205.57
619.981	28707.91
620.176	29514.81
620.371	28460.11
620.566	28761.16
620.761	28808.26
620.956	28953.67
621.151	28150.87
621.346	28687.43
621.541	28181.59
621.735	28720.2
621.93	28036.18
622.125	27915.35
622.32	27884.63
622.515	27890.77
622.709	27587.68
622.904	27804.76
623.099	27505.76
623.294	27661.4
623.488	27200.61
623.683	27135.07
623.878	26954.85
624.072	27118.69
624.267	27012.2
624.462	26745.96
624.656	26584.17
624.851	26453.1
625.046	26680.42
625.24	26260.59
625.435	26125.43
625.629	25891.96
625.824	26063.99
626.018	26012.79
626.213	25263.23
626.407	25541.75
626.602	25539.71
626.796	25457.79
626.991	25265.28
627.185	25166.98
627.38	24810.63
627.574	24904.84
627.768	24788.1
627.963	24685.7
628.157	24743.05
628.352	24417.42
628.546	24104.08
628.74	24493.19
628.935	23975.06
629.129	24065.17
629.323	23606.42
629.517	23647.38
629.712	23622.81
629.906	23743.64
630.1	22930.59
630.294	23305.37
630.489	23088.29
630.683	23295.13
630.877	22815.91
631.071	22713.51
631.265	22908.07
631.459	22787.24
631.653	22627.49
631.848	22088.88
632.042	22312.11
632.236	22371.5
632.43	22160.56
632.624	22045.87
632.818	21712.05
633.012	21748.92
633.206	21849.27
633.4	21910.71
633.594	21574.84
633.788	21347.51
633.982	21204.16
634.176	21181.63
634.369	20849.86
634.563	20769.99
634.757	21001.41
634.951	20915.39
635.145	20821.19
635.339	20729.03
635.533	20309.19
635.726	20559.05
635.92	20026.57
636.114	20229.32
636.308	20118.73
636.501	20165.84
636.695	19807.44
636.889	19334.36
637.083	19664.08
637.276	19295.45
637.47	19238.11
637.664	19139.8
637.857	19242.2
638.051	19201.24
638.244	19084.51
638.438	18885.86
638.632	18803.94
638.825	18646.24
639.019	18662.63
639.212	18486.5
639.406	18420.97
639.599	18164.97
639.793	18349.29
639.986	18117.87
640.18	18011.37
640.373	17884.4
640.567	17782
640.76	17947.89
640.954	17523.96
641.147	17673.46
641.34	17046.78
641.534	17272.06
641.727	17181.95
641.92	17126.65
642.114	17005.82
642.307	17177.85
642.5	16815.36
642.694	16510.21
642.887	16583.94
643.08	16891.13
643.273	16461.06
643.467	16428.29
643.66	16194.82
643.853	16026.89
644.046	16026.89
644.239	16035.08
644.432	15688.98
644.626	15889.68
644.819	15799.57
645.012	15537.43
645.205	15512.85
645.398	15469.84
645.591	15201.56
645.784	15256.86
645.977	15299.86
646.17	15209.75
646.363	14992.67
646.556	14687.52
646.749	14736.67
646.942	14845.21
647.135	14777.63
647.328	14529.83
647.521	14470.44
647.714	14370.08
647.907	14431.52
648.099	14136.62
648.292	14191.91
648.485	13999.4
648.678	13876.52
648.871	13784.37
649.064	13755.69
649.256	13931.82
649.449	13841.71
649.642	13602.1
649.835	13460.79
650.027	13737.26
650.22	13329.72
650.413	13366.58
650.605	13299
650.798	13346.1
650.991	13069.62
651.183	13122.87
651.376	12989.75
651.568	12981.56
651.761	12922.17
651.954	12905.79
652.146	12674.37
652.339	12678.46
652.531	12475.71
652.724	12561.73
652.916	12354.88
653.109	12354.88
653.301	12526.91
653.494	12354.88
653.686	12031.3
653.879	12268.87
654.071	12186.95
654.263	12021.06
654.456	12279.11
654.648	11679.05
654.84	11703.63
655.033	11801.93
655.225	11599.18
655.417	11521.36
655.61	11523.41
655.802	11378
655.994	11572.56
656.186	11406.67
656.379	11244.88
656.571	11185.49
656.763	11199.83
656.955	11060.57
657.148	11169.11
657.34	11122.01
657.532	10747.23
657.724	11021.66
657.916	10861.91
658.108	10847.58
658.3	10702.17
658.492	10736.99
658.684	10577.25
658.876	10722.65
659.068	10321.25
659.26	10630.49
659.452	10532.19
659.644	10257.76
659.836	10145.13
660.028	10147.17
660.22	9854.31
660.412	10044.77
660.604	9891.18
660.796	9901.42
660.988	9792.87
661.18	9973.1
661.372	9620.85
661.563	9631.09
661.755	9747.82
661.947	9543.02
662.139	9465.2
662.331	9301.36
662.522	9510.25
662.714	9403.76
662.906	9432.43
663.097	9424.24
663.289	9149.81
663.481	9244.02
663.673	9274.74
663.864	9190.77
664.056	9137.52
664.247	8922.49
664.439	8846.71
664.631	8908.15
664.822	8967.54
665.014	8926.58
665.205	8721.79
665.397	8580.48
665.588	8689.02
665.78	8451.46
665.971	8486.27
666.163	8662.4
666.354	8377.73
666.546	8197.51
666.737	8416.64
666.929	8455.55
667.12	8416.64
667.311	8342.91
667.503	8119.68
667.694	8326.53
667.885	8062.34
668.077	8164.74
668.268	7978.37
668.459	8088.96
668.651	8078.72
668.842	7935.37
669.033	7943.56
669.224	7892.36
669.416	7959.94
669.607	7900.55
669.798	7728.52
669.989	7902.6
670.18	7730.57
670.371	7763.34
670.563	7630.22
670.754	7708.04
670.945	7720.33
671.136	7447.95
671.327	7603.6
671.518	7671.18
671.709	7392.66
671.9	7435.66
672.091	7202.19
672.282	7294.35
672.473	7198.1
672.664	7200.15
672.855	7138.71
673.046	7384.46
673.237	7224.72
673.428	7146.9
673.619	7163.28
673.809	7163.28
674	7056.79
674.191	7026.07
674.382	6966.68
674.573	6954.39
674.764	7089.56
674.954	7093.65
675.145	6802.84
675.336	6991.25
675.527	7024.02
675.717	6901.14
675.908	6790.55
676.099	6800.79
676.289	6854.04
676.48	6718.87
676.671	6702.49
676.861	6763.93
677.052	6733.21
677.243	6655.39
677.433	6524.32
677.624	6788.5
677.814	6458.78
678.005	6761.88
678.195	6659.48
678.386	6704.54
678.576	6337.95
678.767	6593.95
678.957	6444.45
679.148	6489.5
679.338	6385.05
679.529	6475.17
679.719	6499.74
679.909	6610.33
680.1	6550.94
680.29	6380.96
680.481	6315.42
680.671	6421.92
680.861	6305.18
681.052	6407.58
681.242	6299.04
681.432	6473.12
681.622	6090.15
681.813	6419.87
682.003	6315.42
682.193	6182.31
682.383	6333.86
682.573	6278.56
682.764	6335.9
682.954	6260.13
683.144	6213.03
683.334	6393.25
683.524	6196.64
683.714	6165.92
683.904	6172.07
684.094	6147.49
684.284	6149.54
684.474	6264.22
684.664	6096.29
684.854	6165.92
685.044	6034.85
685.234	6182.31
685.424	6045.09
685.614	5905.83
685.804	5977.51
685.994	5973.41
686.184	6034.85
686.374	5741.99
686.564	6016.42
686.753	5963.17
686.943	5934.5
687.133	5954.98
687.323	5830.06
687.513	5815.72
687.702	5762.47
687.892	5633.45
688.082	5625.26
688.272	5934.5
688.461	5846.44
688.651	5776.81
688.841	5664.17
689.03	5772.71
689.22	5703.08
689.41	5647.79
689.599	5696.94
689.789	5651.88
689.979	5631.4
690.168	5557.68
690.358	5555.63
690.547	5549.48
690.737	5516.72
690.926	5471.66
691.116	5363.12
691.305	5674.41
691.495	5490.09
691.684	5445.04
691.874	5373.36
692.063	5338.54
692.252	5442.99
692.442	5438.89
692.631	5209.52
692.82	5193.14
693.01	5236.14
693.199	5363.12
693.388	5107.12
693.578	5332.4
693.767	5172.66
693.956	5168.56
694.146	5232.05
694.335	5117.36
694.524	5156.27
694.713	5141.94
694.902	5100.98
695.092	5135.79
695.281	5135.79
695.47	5148.08
695.659	5010.87
695.848	5096.88
696.037	5111.22
696.226	5082.55
696.415	4861.37
696.604	5041.59
696.793	5049.78
696.982	5019.06
697.171	5103.03
697.36	4988.34
697.549	4777.4
697.738	4836.79
697.927	4857.27
698.116	4959.67
698.305	4855.22
698.494	4779.45
698.683	4926.9
698.872	4935.09
699.061	4853.17
699.25	4840.89
699.438	4677.05
699.627	4758.97
699.816	4754.87
700.005	4548.03
700.193	4560.31
700.382	4830.65
700.571	4607.42
700.76	4623.8
700.948	4718.01
701.137	4599.23
701.326	4763.06
701.514	4431.29
701.703	4611.51
701.892	4771.26
702.08	4580.79
702.269	4511.16
702.457	4433.34
702.646	4410.81
702.834	4367.81
703.023	4505.02
703.212	4574.65
703.4	4324.8
703.589	4517.31
703.777	4464.06
703.965	4275.65
704.154	4335.04
704.342	4330.94
704.531	4443.58
704.719	4271.55
704.907	4552.12
705.096	4230.59
705.284	4312.51
705.472	4363.71
705.661	4287.93
705.849	4353.47
706.037	4302.27
706.226	4242.88
706.414	4136.38
706.602	4232.64
706.79	4230.59
706.979	4033.99
707.167	4089.28
707.355	4109.76
707.543	4210.11
707.731	4093.38
707.919	4087.23
708.107	4083.14
708.296	3990.98
708.484	4050.37
708.672	4132.29
708.86	4003.27
709.048	3976.64
709.236	3927.49
709.424	3931.59
709.612	4036.03
709.8	3964.36
709.988	3872.2
710.176	4074.95
710.364	3898.82
710.551	3982.79
710.739	3792.33
710.927	3952.07
711.115	3872.2
711.303	3995.08
711.491	3919.3
711.679	3874.24
711.866	3698.12
712.054	3786.18
712.242	3694.02
712.43	3716.55
712.617	3741.13
712.805	3681.74
712.993	3792.33
713.181	3710.41
713.368	3814.85
713.556	3714.5
713.744	3755.46
713.931	3796.42
714.119	3632.58
714.306	3700.17
714.494	3591.63
714.682	3710.41
714.869	3476.94
715.057	3624.39
715.244	3583.43
715.432	3655.11
715.619	3593.67
715.807	3569.1
715.994	3534.28
716.182	3454.41
716.369	3575.24
716.556	3409.36
716.744	3501.51
716.931	3454.41
717.119	3550.67
717.306	3284.43
717.493	3380.68
717.681	3399.12
717.868	3526.09
718.055	3415.5
718.242	3487.18
718.43	3415.5
718.617	3395.02
718.804	3335.63
718.991	3456.46
719.179	3468.75
719.366	3431.88
719.553	3327.44
719.74	3362.25
719.927	3198.42
720.114	3206.61
720.301	3329.49
720.488	3200.46
720.676	3210.7
720.863	3214.8
721.05	3225.04
721.237	3222.99
721.424	3192.27
721.611	3272.14
721.798	3159.5
721.985	3042.77
722.172	3079.63
722.358	3188.18
722.545	3083.73
722.732	3153.36
722.919	3098.06
723.106	3075.54
723.293	3091.92
723.48	3325.39
723.667	3071.44
723.853	3112.4
724.04	3102.16
724.227	3110.35
724.414	3042.77
724.6	2964.95
724.787	3073.49
724.974	3003.86
725.161	3130.83
725.347	3083.73
725.534	2928.08
725.72	3010
725.907	3077.59
726.094	2966.99
726.28	2917.84
726.467	2848.21
726.653	2872.79
726.84	2919.89
727.027	2987.47
727.213	2887.12
727.4	2774.49
727.586	2852.31
727.773	2919.89
727.959	2811.35
728.145	2885.08
728.332	2772.44
728.518	2891.22
728.705	2872.79
728.891	2950.61
729.077	2792.92
729.264	2731.48
729.45	2751.96
729.636	2788.82
729.823	2633.18
730.009	2837.97
730.195	2768.34
730.382	2792.92
730.568	2817.49
730.754	2772.44
730.94	2637.27
731.126	2674.14
731.313	2772.44
731.499	2776.53
731.685	2776.53
731.871	2776.53
732.057	2756.05
732.243	2622.94
732.429	2813.4
732.615	2721.24
732.801	2708.95
732.987	2721.24
733.173	2725.33
733.359	2629.08
733.545	2674.14
733.731	2624.98
733.917	2606.55
734.103	2643.42
734.289	2600.41
734.475	2498.01
734.661	2670.04
734.847	2608.6
735.033	2633.18
735.219	2555.35
735.404	2518.49
735.59	2592.22
735.776	2590.17
735.962	2575.83
736.148	2594.26
736.333	2575.83
736.519	2559.45
736.705	2522.59
736.89	2399.71
737.076	2498.01
737.262	2405.85
737.447	2428.38
737.633	2489.82
737.819	2584.02
738.004	2436.57
738.19	2452.95
738.375	2377.18
738.561	2491.87
738.747	2487.77
738.932	2371.04
739.118	2526.68
739.303	2342.36
739.489	2395.61
739.674	2362.84
739.859	2256.35
740.045	2434.52
740.23	2297.31
740.416	2323.93
740.601	2375.13
740.786	2229.73
740.972	2336.22
741.157	2242.01
741.342	2289.12
741.528	2325.98
741.713	2297.31
741.898	2346.46
742.084	2321.88
742.269	2235.87
742.454	2274.78
742.639	2264.54
742.824	2168.29
743.01	2225.63
743.195	2186.72
743.38	2115.04
743.565	2174.43
743.75	2143.71
743.935	2117.09
744.12	2153.95
744.305	2020.83
744.49	2065.89
744.675	2057.7
744.86	2082.27
745.045	2110.94
745.23	2117.09
745.415	2063.84
745.6	1922.53
745.785	2006.5
745.97	1994.21
746.155	1865.19
746.34	1981.92
746.525	1854.95
746.71	1986.02
746.895	1940.96
747.079	1969.63
747.264	1871.33
747.449	1996.26
747.634	1799.65
747.819	2012.64
748.003	1904.1
748.188	1881.57
748.373	1932.77
748.557	1789.41
748.742	1822.18
748.927	1822.18
749.111	1836.52
749.296	1805.8
749.481	1832.42
749.665	1809.89
749.85	1693.16
750.034	1748.45
750.219	1699.3
750.404	1715.69
750.588	1785.32
750.773	1670.63
750.957	1676.77
751.141	1641.96
751.326	1678.82
751.51	1717.73
751.695	1629.67
751.879	1646.05
752.064	1674.73
752.248	1666.53
752.432	1707.49
752.617	1617.38
752.801	1660.39
752.985	1613.29
753.17	1596.9
753.354	1576.42
753.538	1601
753.722	1453.55
753.907	1523.18
754.091	1496.55
754.275	1537.51
754.459	1594.86
754.643	1486.31
754.828	1527.27
755.012	1428.97
755.196	1517.03
755.38	1523.18
755.564	1424.87
755.748	1334.76
755.932	1379.82
756.116	1385.96
756.3	1355.24
756.484	1371.63
756.668	1308.14
756.852	1392.11
757.036	1367.53
757.22	1326.57
757.404	1330.67
757.588	1273.32
757.772	1385.96
757.956	1361.39
758.14	1347.05
758.323	1258.99
758.507	1314.28
758.691	1275.37
758.875	1232.37
759.059	1158.64
759.242	1164.78
759.426	1263.08
759.61	1265.13
759.794	1181.17
759.977	1281.52
760.161	1351.15
760.345	1273.32
760.528	1252.84
760.712	1232.37
760.895	1183.21
761.079	1191.41
761.263	1117.68
761.446	1103.34
761.63	1187.31
761.813	1170.93
761.997	1093.1
762.18	1070.58
762.364	1015.28
762.547	1068.53
762.731	1078.77
762.914	1107.44
763.098	1043.95
763.281	1117.68
763.464	1109.49
763.648	1033.71
763.831	1125.87
764.015	1109.49
764.198	1062.38
764.381	1054.19
764.564	1154.54
764.748	1097.2
764.931	1111.54
765.114	1086.96
765.297	1023.47
765.481	962.03
765.664	1041.9
765.847	953.84
766.03	1158.64
766.213	986.61
766.397	1005.04
766.58	1066.48
766.763	992.75
766.946	1041.9
767.129	884.21
767.312	982.51
767.495	1027.57
767.678	955.89
767.861	937.46
768.044	949.75
768.227	880.11
768.41	1019.38
768.593	912.88
768.776	1011.18
768.959	974.32
769.142	972.27
769.324	1011.18
769.507	1007.09
769.69	962.03
769.873	830.96
770.056	1011.18
770.239	886.26
770.421	980.47
770.604	839.16
770.787	931.31
770.97	898.55
771.152	910.83
771.335	843.25
771.518	822.77
771.7	859.63
771.883	876.02
772.066	896.5
772.248	839.16
772.431	986.61
772.613	951.79
772.796	947.7
772.978	888.31
773.161	1011.18
773.343	906.74
773.526	792.05
773.708	783.86
773.891	851.44
774.073	839.16
774.256	849.4
774.438	806.39
774.621	806.39
774.803	716.28
774.985	798.2
775.168	800.24
775.35	775.67
775.532	740.85
775.715	759.28
775.897	835.06
776.079	783.86
776.261	765.43
776.444	724.47
776.626	783.86
776.808	703.99
776.99	691.7
777.173	718.33
777.355	718.33
777.537	708.09
777.719	798.2
777.901	691.7
778.083	732.66
778.265	683.51
778.447	740.85
778.629	642.55
778.811	654.84
778.993	730.61
779.175	724.47
779.357	654.84
779.539	601.59
779.721	716.28
779.903	681.46
780.085	699.89
780.267	660.98
780.449	652.79
780.631	740.85
780.812	669.17
780.994	642.55
781.176	593.4
781.358	636.41
781.54	646.65
781.721	667.13
781.903	617.97
782.085	609.78
782.267	597.49
782.448	488.95
782.63	556.54
782.812	593.4
782.993	626.17
783.175	579.06
783.357	548.34
783.538	609.78
783.72	550.39
783.901	628.21
784.083	474.62
784.264	536.06
784.446	546.3
784.627	540.15
784.809	435.71
784.99	513.53
785.172	476.66
785.353	474.62
785.535	515.58
785.716	568.82
785.897	540.15
786.079	454.14
786.26	572.92
786.441	503.29
786.623	468.47
786.804	486.9
786.985	499.19
787.167	497.14
787.348	472.57
787.529	431.61
787.71	509.43
787.891	462.33
788.073	472.57
788.254	409.08
788.435	478.71
788.616	486.9
788.797	380.41
788.978	495.1
789.159	392.7
789.34	437.75
789.522	384.51
789.703	413.18
789.884	429.56
790.065	433.66
790.246	486.9
790.427	425.47
790.607	454.14
790.788	474.62
790.969	357.88
791.15	339.45
791.331	372.22
791.512	388.6
791.693	337.4
791.874	388.6
792.054	445.95
792.235	392.7
792.416	376.31
792.597	355.83
792.778	421.37
792.958	386.55
793.139	400.89
793.32	323.07
793.5	423.42
793.681	407.03
793.862	376.31
794.042	368.12
794.223	388.6
794.404	335.35
794.584	314.88
794.765	364.03
794.945	335.35
795.126	409.08
795.306	347.64
795.487	366.07
795.667	388.6
795.848	288.25
796.028	302.59
796.209	318.97
796.389	314.88
796.57	382.46
796.75	292.35
796.93	327.16
797.111	290.3
797.291	235
797.471	323.07
797.652	335.35
797.832	208.38
798.012	364.03
798.192	316.92
798.373	212.48
798.553	331.26
798.733	325.12
798.913	339.45
799.093	321.02
799.274	282.11
799.454	290.3
799.634	282.11
799.814	275.96
799.994	345.59
800.174	280.06
800.354	222.72
800.534	284.16
800.714	235
800.894	290.3
801.074	290.3
801.254	278.01
801.434	419.32
801.614	232.96
801.794	235
801.974	955.89
802.154	261.63
802.334	216.57
802.514	210.43
802.693	220.67
802.873	239.1
803.053	251.39
803.233	335.35
803.413	243.2
803.592	177.66
803.772	220.67
803.952	251.39
804.131	159.23
804.311	134.65
804.491	335.35
804.67	204.28
804.85	198.14
805.03	292.35
805.209	310.78
805.389	194.05
805.568	187.9
805.748	212.48
805.928	265.72
806.107	128.51
806.287	267.77
806.466	192
806.646	278.01
806.825	245.24
807.004	208.38
807.184	187.9
807.363	208.38
807.543	228.86
807.722	216.57
807.901	271.87
808.081	214.52
808.26	159.23
808.439	235
808.619	175.61
808.798	212.48
808.977	185.85
809.156	257.53
809.336	155.13
809.515	208.38
809.694	126.46
809.873	161.28
810.052	183.81
810.231	216.57
810.411	255.48
810.59	249.34
810.769	126.46
810.948	220.67
811.127	202.24
811.306	130.56
811.485	247.29
811.664	224.76
811.843	224.76
812.022	120.32
812.201	196.09
812.38	144.89
812.559	97.79
812.737	312.83
812.916	128.51
813.095	163.33
813.274	196.09
813.453	155.13
813.632	192
813.811	187.9
813.989	159.23
814.168	177.66
814.347	120.32
814.526	245.24
814.704	232.96
814.883	212.48
815.062	161.28
815.24	155.13
815.419	175.61
815.598	175.61
815.776	87.55
815.955	157.18
816.133	118.27
816.312	216.57
816.49	120.32
816.669	159.23
816.847	128.51
817.026	167.42
817.204	151.04
817.383	146.94
817.561	118.27
817.74	138.75
817.918	171.52
818.097	11.78
818.275	52.74
818.453	110.08
818.632	177.66
818.81	200.19
818.988	134.65
819.167	161.28
819.345	122.37
819.523	56.83
819.701	118.27
819.879	144.89
820.058	118.27
820.236	208.38
820.414	73.21
820.592	89.6
820.77	171.52
820.948	151.04
821.127	192
821.305	56.83
821.483	110.08
821.661	112.13
821.839	161.28
822.017	105.98
822.195	93.69
822.373	183.81
822.551	85.5
822.729	110.08
822.907	85.5
823.085	159.23
823.262	126.46
823.44	134.65
823.618	97.79
823.796	146.94
823.974	112.13
824.152	120.32
824.329	79.36
824.507	155.13
824.685	146.94
824.863	17.92
825.04	85.5
825.218	81.41
825.396	81.41
825.574	97.79
825.751	144.89
825.929	103.93
826.107	93.69
826.284	134.65
826.462	22.02
826.639	134.65
826.817	142.85
826.994	138.75
827.172	65.02
827.349	155.13
827.527	89.6
827.704	77.31
827.882	175.61
828.059	126.46
828.237	-8.7
828.414	65.02
828.591	-10.75
828.769	120.32
828.946	44.54
829.124	62.98
829.301	85.5
829.478	142.85
829.655	120.32
829.833	134.65
830.01	-0.51
830.187	136.7
830.364	101.89
830.542	112.13
830.719	87.55
830.896	85.5
831.073	62.98
831.25	142.85
831.427	110.08
831.604	126.46
831.782	114.17
831.959	142.85
832.136	101.89
832.313	120.32
832.49	42.5
832.667	116.22
832.844	65.02
833.021	52.74
833.198	73.21
833.374	38.4
833.551	44.54
833.728	73.21
833.905	69.12
834.082	38.4
834.259	79.36
834.436	142.85
834.612	52.74
834.789	105.98
834.966	87.55
835.143	73.21
835.319	105.98
835.496	134.65
835.673	52.74
835.85	153.09
836.026	36.35
836.203	153.09
836.38	118.27
836.556	60.93
836.733	87.55
836.909	144.89
837.086	97.79
837.262	19.97
837.439	58.88
837.616	60.93
837.792	118.27
837.968	126.46
838.145	30.21
838.321	40.45
838.498	-0.51
838.674	103.93
838.851	73.21
839.027	101.89
839.203	69.12
839.38	62.98
839.556	60.93
839.732	15.87
839.909	83.45
840.085	77.31
840.261	89.6
840.437	144.89
840.614	79.36
840.79	134.65
840.966	120.32
841.142	130.56
841.318	62.98
841.494	81.41
841.671	71.17
841.847	48.64
842.023	44.54
842.199	140.8
842.375	32.26
842.551	5.63
842.727	52.74
842.903	15.87
843.079	79.36
843.255	85.5
843.431	65.02
843.607	85.5
843.783	-37.38
843.959	85.5
844.134	-12.8
844.31	101.89
844.486	24.06
844.662	52.74
844.838	169.47
845.013	85.5
845.189	118.27
845.365	67.07
845.541	19.97
845.716	122.37
845.892	22.02
846.068	99.84
846.244	-35.33
846.419	89.6
846.595	32.26
846.77	52.74
846.946	9.73
847.122	13.82
847.297	38.4
847.473	65.02
847.648	13.82
847.824	13.82
847.999	-18.94
848.175	89.6
848.35	38.4
848.526	48.64
848.701	44.54
848.876	161.28
849.052	142.85
849.227	-2.56
849.403	48.64
849.578	75.26
849.753	73.21
849.929	73.21
850.104	32.26
850.279	34.3
850.454	81.41
850.63	85.5
850.805	30.21
850.98	11.78
851.155	19.97
851.33	3.58
851.505	-29.18
851.681	77.31
851.856	101.89
852.031	69.12
852.206	40.45
852.381	3.58
852.556	103.93
852.731	122.37
852.906	19.97
853.081	28.16
853.256	108.03
853.431	28.16
853.606	11.78
853.781	3.58
853.956	-4.61
854.131	91.65
854.305	13.82
854.48	11.78
854.655	44.54
854.83	69.12
855.005	77.31
855.18	-20.99
855.354	73.21
855.529	65.02
855.704	40.45
855.879	38.4
856.053	-4.61
856.228	11.78
856.403	15.87
856.577	62.98
856.752	60.93
856.926	-4.61
857.101	62.98
857.276	42.5
857.45	30.21
857.625	7.68
857.799	69.12
857.974	-18.94
858.148	19.97
858.323	24.06
858.497	3.58
858.672	-12.8
858.846	-61.95
859.02	40.45
859.195	-25.09
859.369	93.69
859.543	110.08
859.718	93.69
859.892	75.26
860.066	60.93
860.241	79.36
860.415	69.12
860.589	7.68
860.763	1.54
860.938	-61.95
861.112	-61.95
861.286	-68.09
861.46	22.02
861.634	-4.61
861.808	32.26
861.982	-29.18
862.157	38.4
862.331	30.21
862.505	19.97
862.679	-12.8
862.853	52.74
863.027	120.32
863.201	81.41
863.375	-29.18
863.549	36.35
863.722	-2.56
863.896	97.79
864.07	-37.38
864.244	83.45
864.418	48.64
864.592	122.37
864.766	11.78
864.939	60.93
865.113	71.17
865.287	75.26
865.461	-76.29
865.634	11.78
865.808	22.02
865.982	-6.66
866.156	5.63
866.329	-4.61
866.503	60.93
866.676	54.78
866.85	32.26
867.024	56.83
867.197	79.36
867.371	75.26
867.544	136.7
867.718	-12.8
867.891	46.59
868.065	11.78
868.238	-0.51
868.412	73.21
868.585	54.78
868.759	11.78
868.932	22.02
869.105	-16.9
869.279	19.97
869.452	-12.8
869.625	122.37
869.799	-29.18
869.972	52.74
870.145	30.21
870.319	-0.51
870.492	22.02
870.665	36.35
870.838	28.16
871.011	-45.57
871.185	40.45
871.358	-18.94
871.531	65.02
871.704	52.74
871.877	-47.62
872.05	-35.33
872.223	9.73
872.396	52.74
872.569	28.16
872.742	-16.9
872.915	40.45
873.088	11.78
873.261	38.4
873.434	-25.09
873.607	7.68
873.78	93.69
873.953	101.89
874.126	69.12
874.299	46.59
874.471	60.93
874.644	-10.75
874.817	11.78
874.99	155.13
875.163	-43.52
875.335	15.87
875.508	69.12
875.681	89.6
875.853	-12.8
876.026	11.78
876.199	7.68
876.371	15.87
876.544	36.35
876.717	7.68
876.889	-51.71
877.062	19.97
877.234	-18.94
877.407	54.78
877.579	-25.09
877.752	56.83
877.924	-12.8
878.097	11.78
878.269	38.4
878.442	85.5
878.614	46.59
878.786	5.63
878.959	28.16
879.131	36.35
879.303	-61.95
879.476	19.97
879.648	13.82
879.82	36.35
879.993	5.63
880.165	-18.94
880.337	-6.66
880.509	40.45
880.681	44.54
880.854	81.41
881.026	67.07
881.198	3.58
881.37	-27.14
881.542	-35.33
881.714	60.93
881.886	-51.71
882.058	22.02
882.23	103.93
882.402	40.45
882.574	-20.99
882.746	38.4
882.918	69.12
883.09	142.85
883.262	-2.56
883.434	-8.7
883.606	3.58
883.778	32.26
883.95	24.06
884.122	36.35
884.293	118.27
884.465	56.83
884.637	22.02
884.809	-66.05
884.98	36.35
885.152	-4.61
885.324	-70.14
885.496	19.97
885.667	-33.28
885.839	-16.9
886.011	-8.7
886.182	13.82
886.354	97.79
886.525	-27.14
886.697	28.16
886.869	-12.8
887.04	-20.99
887.212	71.17
887.383	52.74
887.555	19.97
887.726	36.35
887.897	15.87
888.069	-14.85
888.24	-10.75
888.412	50.69
888.583	-23.04
888.754	-12.8
888.926	-37.38
889.097	24.06
889.268	42.5
889.44	-12.8
889.611	-29.18
889.782	19.97
889.953	44.54
890.125	46.59
890.296	3.58
890.467	-0.51
890.638	22.02
890.809	89.6
890.98	11.78
891.151	79.36
891.323	81.41
891.494	-10.75
891.665	1.54
891.836	38.4
892.007	-12.8
892.178	40.45
892.349	-2.56
892.52	13.82
892.691	36.35
892.862	60.93
893.032	-70.14
893.203	65.02
893.374	46.59
893.545	56.83
893.716	-29.18
893.887	30.21
894.057	-20.99
894.228	85.5
894.399	62.98
894.57	77.31
894.74	46.59
894.911	3.58
895.082	-4.61
895.253	-29.18
895.423	24.06
895.594	52.74
895.764	65.02
895.935	3.58
896.106	-61.95
896.276	-29.18
896.447	40.45
896.617	-10.75
896.788	15.87
896.958	122.37
897.129	-74.24
897.299	32.26
897.47	62.98
897.64	19.97
897.81	30.21
897.981	-16.9
898.151	-20.99
898.322	-35.33
898.492	-4.61
898.662	13.82
898.832	-18.94
899.003	30.21
899.173	1.54
899.343	7.68
899.513	-61.95
