Data from USB4F104151__38__14-29-45-436.txt Node

Date: Thu Mar 13 14:29:45 EDT 2025
User: louis
Spectrometer: USB4F10415
Trigger mode: 4
Integration Time (sec): 2.500000E-2
Scans to average: 1
Electric dark correction enabled: true
Nonlinearity correction enabled: false
Boxcar width: 0
XAxis mode: Wavelengths
Number of Pixels in Spectrum: 3648
>>>>>Begin Spectral Data<<<<<
178.204	-151.72
178.424	-151.72
178.644	-151.72
178.864	-121
179.084	-116.9
179.304	-51.37
179.524	20.31
179.744	-43.18
179.964	87.89
180.184	22.36
180.404	22.36
180.624	-16.55
180.844	30.55
181.064	-32.94
181.283	18.26
181.503	-67.75
181.723	10.07
181.943	-26.79
182.163	-32.94
182.383	22.36
182.602	71.51
182.822	40.79
183.042	83.8
183.262	-2.22
183.482	-14.51
183.701	1.88
183.921	22.36
184.141	14.17
184.361	14.17
184.58	79.7
184.8	-18.6
185.02	-26.79
185.239	67.41
185.459	3.93
185.679	22.36
185.898	-96.43
186.118	106.32
186.338	-32.94
186.557	75.6
186.777	-94.38
186.997	-2.22
187.216	-34.99
187.436	38.74
187.655	30.55
187.875	75.6
188.095	-37.03
188.314	57.17
188.534	71.51
188.753	-14.51
188.973	-18.6
189.192	124.76
189.412	1.88
189.631	24.4
189.851	10.07
190.07	112.47
190.29	-57.51
190.509	1.88
190.729	22.36
190.948	65.36
191.168	102.23
191.387	67.41
191.607	8.02
191.826	91.99
192.045	-18.6
192.265	67.41
192.484	32.6
192.704	-22.7
192.923	-10.41
193.142	24.4
193.362	79.7
193.581	32.6
193.8	-34.99
194.02	-34.99
194.239	1.88
194.458	30.55
194.678	34.64
194.897	38.74
195.116	-43.18
195.335	-16.55
195.555	14.17
195.774	-34.99
195.993	-18.6
196.212	32.6
196.432	1.88
196.651	46.93
196.87	-75.95
197.089	42.84
197.308	28.5
197.528	63.32
197.747	-28.84
197.966	5.97
198.185	67.41
198.404	-0.17
198.623	65.36
198.842	24.4
199.062	44.88
199.281	16.21
199.5	36.69
199.719	40.79
199.938	26.45
200.157	38.74
200.376	75.6
200.595	38.74
200.814	81.75
201.033	-4.27
201.252	22.36
201.471	75.6
201.69	59.22
201.909	42.84
202.128	65.36
202.347	5.97
202.566	-8.36
202.785	-12.46
203.004	-6.31
203.223	128.85
203.442	46.93
203.661	-24.75
203.879	40.79
204.098	67.41
204.317	24.4
204.536	65.36
204.755	14.17
204.974	51.03
205.193	65.36
205.411	44.88
205.63	16.21
205.849	-57.51
206.068	-10.41
206.287	-18.6
206.505	79.7
206.724	69.46
206.943	-2.22
207.162	-8.36
207.381	26.45
207.599	-80.04
207.818	67.41
208.037	-16.55
208.255	26.45
208.474	-30.89
208.693	42.84
208.911	-32.94
209.13	24.4
209.349	14.17
209.567	32.6
209.786	102.23
210.005	-10.41
210.223	30.55
210.442	-24.75
210.661	34.64
210.879	12.12
211.098	114.52
211.316	-2.22
211.535	57.17
211.753	-2.22
211.972	79.7
212.191	46.93
212.409	96.08
212.628	38.74
212.846	-51.37
213.065	112.47
213.283	38.74
213.502	-45.23
213.72	-12.46
213.938	-2.22
214.157	18.26
214.375	-14.51
214.594	-67.75
214.812	5.97
215.031	55.12
215.249	-10.41
215.467	22.36
215.686	30.55
215.904	46.93
216.122	32.6
216.341	22.36
216.559	77.65
216.778	79.7
216.996	5.97
217.214	-30.89
217.432	-20.65
217.651	22.36
217.869	38.74
218.087	-28.84
218.306	38.74
218.524	16.21
218.742	10.07
218.96	16.21
219.179	-43.18
219.397	87.89
219.615	112.47
219.833	81.75
220.051	-14.51
220.27	96.08
220.488	75.6
220.706	71.51
220.924	38.74
221.142	63.32
221.36	22.36
221.578	55.12
221.796	-30.89
222.015	5.97
222.233	-16.55
222.451	81.75
222.669	18.26
222.887	22.36
223.105	-28.84
223.323	46.93
223.541	67.41
223.759	30.55
223.977	-0.17
224.195	63.32
224.413	38.74
224.631	26.45
224.849	63.32
225.067	96.08
225.285	-16.55
225.503	67.41
225.721	-34.99
225.939	46.93
226.157	20.31
226.375	120.66
226.592	-39.08
226.81	3.93
227.028	42.84
227.246	53.08
227.464	5.97
227.682	22.36
227.9	-63.66
228.117	55.12
228.335	-51.37
228.553	-0.17
228.771	-67.75
228.989	57.17
229.206	40.79
229.424	-2.22
229.642	-0.17
229.86	-18.6
230.077	63.32
230.295	71.51
230.513	51.03
230.731	112.47
230.948	42.84
231.166	120.66
231.384	44.88
231.601	-26.79
231.819	14.17
232.037	-8.36
232.254	30.55
232.472	-16.55
232.689	-39.08
232.907	42.84
233.125	-20.65
233.342	1.88
233.56	38.74
233.777	-30.89
233.995	71.51
234.213	75.6
234.43	32.6
234.648	96.08
234.865	18.26
235.083	77.65
235.3	26.45
235.518	-24.75
235.735	69.46
235.953	48.98
236.17	-18.6
236.388	63.32
236.605	14.17
236.822	110.42
237.04	16.21
237.257	91.99
237.475	32.6
237.692	24.4
237.909	63.32
238.127	32.6
238.344	55.12
238.562	48.98
238.779	-45.23
238.996	24.4
239.214	87.89
239.431	5.97
239.648	-18.6
239.865	22.36
240.083	141.14
240.3	3.93
240.517	-26.79
240.735	30.55
240.952	155.47
241.169	55.12
241.386	18.26
241.603	-0.17
241.821	40.79
242.038	75.6
242.255	63.32
242.472	-41.13
242.689	-0.17
242.907	63.32
243.124	-10.41
243.341	-6.31
243.558	3.93
243.775	75.6
243.992	-10.41
244.209	46.93
244.426	59.22
244.643	5.97
244.86	18.26
245.078	63.32
245.295	38.74
245.512	22.36
245.729	-47.27
245.946	-18.6
246.163	100.18
246.38	10.07
246.597	71.51
246.814	89.94
247.031	63.32
247.248	5.97
247.464	5.97
247.681	108.37
247.898	-2.22
248.115	30.55
248.332	-24.75
248.549	65.36
248.766	139.09
248.983	36.69
249.2	16.21
249.417	63.32
249.633	20.31
249.85	73.56
250.067	-2.22
250.284	22.36
250.501	71.51
250.717	46.93
250.934	-14.51
251.151	112.47
251.368	46.93
251.585	128.85
251.801	-24.75
252.018	-43.18
252.235	59.22
252.451	-49.32
252.668	-22.7
252.885	67.41
253.102	-16.55
253.318	-30.89
253.535	-47.27
253.752	-6.31
253.968	-2.22
254.185	-39.08
254.401	14.17
254.618	63.32
254.835	-8.36
255.051	16.21
255.268	-34.99
255.484	-14.51
255.701	73.56
255.917	51.03
256.134	-0.17
256.351	59.22
256.567	-49.32
256.784	8.02
257	-26.79
257.217	46.93
257.433	59.22
257.65	-10.41
257.866	26.45
258.082	14.17
258.299	-26.79
258.515	100.18
258.732	24.4
258.948	57.17
259.165	-10.41
259.381	-8.36
259.597	91.99
259.814	12.12
260.03	1.88
260.246	8.02
260.463	24.4
260.679	79.7
260.895	55.12
261.112	46.93
261.328	12.12
261.544	-16.55
261.761	87.89
261.977	38.74
262.193	-12.46
262.409	69.46
262.626	120.66
262.842	46.93
263.058	1.88
263.274	22.36
263.49	61.27
263.707	65.36
263.923	-14.51
264.139	-41.13
264.355	36.69
264.571	112.47
264.787	-26.79
265.004	18.26
265.22	16.21
265.436	22.36
265.652	-65.71
265.868	22.36
266.084	-41.13
266.3	-43.18
266.516	-22.7
266.732	46.93
266.948	71.51
267.164	-39.08
267.38	55.12
267.596	32.6
267.812	71.51
268.028	87.89
268.244	28.5
268.46	30.55
268.676	22.36
268.892	8.02
269.108	-8.36
269.324	32.6
269.54	-16.55
269.756	73.56
269.972	-24.75
270.188	55.12
270.403	-34.99
270.619	65.36
270.835	14.17
271.051	16.21
271.267	-18.6
271.483	16.21
271.698	-4.27
271.914	5.97
272.13	-2.22
272.346	12.12
272.562	51.03
272.777	63.32
272.993	32.6
273.209	30.55
273.425	104.28
273.64	61.27
273.856	42.84
274.072	55.12
274.287	87.89
274.503	1.88
274.719	83.8
274.934	-8.36
275.15	22.36
275.366	38.74
275.581	-39.08
275.797	30.55
276.012	63.32
276.228	5.97
276.444	32.6
276.659	22.36
276.875	-45.23
277.09	24.4
277.306	42.84
277.521	-30.89
277.737	-49.32
277.952	-28.84
278.168	65.36
278.383	16.21
278.599	24.4
278.814	67.41
279.03	24.4
279.245	24.4
279.461	30.55
279.676	102.23
279.892	-10.41
280.107	-16.55
280.322	24.4
280.538	18.26
280.753	40.79
280.969	85.84
281.184	87.89
281.399	65.36
281.615	71.51
281.83	18.26
282.045	14.17
282.26	-2.22
282.476	24.4
282.691	26.45
282.906	-12.46
283.122	71.51
283.337	73.56
283.552	46.93
283.767	-22.7
283.983	120.66
284.198	-10.41
284.413	57.17
284.628	-43.18
284.843	79.7
285.058	-26.79
285.274	65.36
285.489	46.93
285.704	46.93
285.919	-51.37
286.134	48.98
286.349	8.02
286.564	14.17
286.779	14.17
286.995	67.41
287.21	-90.28
287.425	14.17
287.64	-14.51
287.855	-41.13
288.07	22.36
288.285	96.08
288.5	46.93
288.715	59.22
288.93	32.6
289.145	-26.79
289.36	79.7
289.575	-2.22
289.79	16.21
290.004	14.17
290.219	28.5
290.434	40.79
290.649	8.02
290.864	-6.31
291.079	14.17
291.294	-10.41
291.509	26.45
291.724	-8.36
291.938	14.17
292.153	96.08
292.368	-2.22
292.583	38.74
292.798	-55.47
293.012	16.21
293.227	5.97
293.442	48.98
293.657	46.93
293.871	73.56
294.086	28.5
294.301	8.02
294.516	55.12
294.73	5.97
294.945	-30.89
295.16	-10.41
295.374	67.41
295.589	12.12
295.804	20.31
296.018	10.07
296.233	32.6
296.447	67.41
296.662	16.21
296.877	20.31
297.091	5.97
297.306	34.64
297.52	1.88
297.735	46.93
297.949	-4.27
298.164	-2.22
298.378	65.36
298.593	32.6
298.807	16.21
299.022	-8.36
299.236	26.45
299.451	32.6
299.665	48.98
299.88	71.51
300.094	5.97
300.309	38.74
300.523	124.76
300.737	-18.6
300.952	-6.31
301.166	63.32
301.381	79.7
301.595	24.4
301.809	18.26
302.024	42.84
302.238	44.88
302.452	32.6
302.667	77.65
302.881	87.89
303.095	36.69
303.309	51.03
303.524	30.55
303.738	-22.7
303.952	-8.36
304.166	81.75
304.381	10.07
304.595	75.6
304.809	16.21
305.023	57.17
305.237	71.51
305.452	-8.36
305.666	34.64
305.88	63.32
306.094	46.93
306.308	71.51
306.522	77.65
306.736	-6.31
306.95	57.17
307.164	10.07
307.379	-43.18
307.593	55.12
307.807	-75.95
308.021	-20.65
308.235	40.79
308.449	-22.7
308.663	87.89
308.877	112.47
309.091	83.8
309.305	38.74
309.519	-43.18
309.733	22.36
309.947	-0.17
310.161	55.12
310.374	-53.42
310.588	24.4
310.802	-8.36
311.016	18.26
311.23	8.02
311.444	55.12
311.658	32.6
311.872	147.28
312.085	46.93
312.299	128.85
312.513	-30.89
312.727	-8.36
312.941	-0.17
313.154	22.36
313.368	51.03
313.582	22.36
313.796	51.03
314.009	34.64
314.223	42.84
314.437	1.88
314.651	67.41
314.864	-2.22
315.078	-0.17
315.292	5.97
315.505	-2.22
315.719	40.79
315.933	18.26
316.146	-65.71
316.36	8.02
316.573	65.36
316.787	57.17
317.001	32.6
317.214	-65.71
317.428	32.6
317.641	-22.7
317.855	26.45
318.068	57.17
318.282	77.65
318.495	-6.31
318.709	63.32
318.922	8.02
319.136	106.32
319.349	114.52
319.563	-106.67
319.776	26.45
319.99	-55.47
320.203	79.7
320.417	22.36
320.63	24.4
320.843	48.98
321.057	-10.41
321.27	22.36
321.483	79.7
321.697	73.56
321.91	24.4
322.124	-10.41
322.337	22.36
322.55	16.21
322.763	16.21
322.977	5.97
323.19	-10.41
323.403	51.03
323.617	81.75
323.83	98.13
324.043	-4.27
324.256	-59.56
324.469	-0.17
324.683	-24.75
324.896	65.36
325.109	5.97
325.322	-0.17
325.535	26.45
325.748	55.12
325.962	34.64
326.175	16.21
326.388	65.36
326.601	24.4
326.814	-47.27
327.027	1.88
327.24	46.93
327.453	63.32
327.666	-2.22
327.879	38.74
328.092	67.41
328.305	26.45
328.518	63.32
328.731	-32.94
328.944	42.84
329.157	55.12
329.37	30.55
329.583	75.6
329.796	57.17
330.009	-32.94
330.222	98.13
330.435	85.84
330.648	87.89
330.861	-10.41
331.073	46.93
331.286	14.17
331.499	100.18
331.712	38.74
331.925	22.36
332.138	28.5
332.35	73.56
332.563	87.89
332.776	34.64
332.989	46.93
333.202	71.51
333.414	16.21
333.627	65.36
333.84	-32.94
334.053	34.64
334.265	8.02
334.478	-32.94
334.691	24.4
334.903	51.03
335.116	55.12
335.329	28.5
335.541	32.6
335.754	122.71
335.966	-47.27
336.179	22.36
336.392	28.5
336.604	63.32
336.817	46.93
337.029	59.22
337.242	16.21
337.454	24.4
337.667	-0.17
337.88	42.84
338.092	-0.17
338.305	26.45
338.517	-26.79
338.729	87.89
338.942	38.74
339.154	63.32
339.367	22.36
339.579	16.21
339.792	73.56
340.004	89.94
340.217	-12.46
340.429	22.36
340.641	30.55
340.854	26.45
341.066	55.12
341.278	51.03
341.491	73.56
341.703	79.7
341.915	-57.51
342.128	26.45
342.34	28.5
342.552	-45.23
342.764	22.36
342.977	8.02
343.189	57.17
343.401	46.93
343.613	61.27
343.826	-14.51
344.038	30.55
344.25	81.75
344.462	-14.51
344.674	5.97
344.886	57.17
345.099	53.08
345.311	155.47
345.523	-2.22
345.735	-51.37
345.947	51.03
346.159	42.84
346.371	55.12
346.583	32.6
346.795	51.03
347.007	30.55
347.219	128.85
347.431	-26.79
347.643	91.99
347.855	5.97
348.067	96.08
348.279	12.12
348.491	-14.51
348.703	32.6
348.915	38.74
349.127	-14.51
349.339	120.66
349.551	128.85
349.763	18.26
349.975	79.7
350.187	48.98
350.399	32.6
350.61	-8.36
350.822	-24.75
351.034	75.6
351.246	77.65
351.458	106.32
351.669	16.21
351.881	46.93
352.093	71.51
352.305	55.12
352.517	91.99
352.728	59.22
352.94	-18.6
353.152	-10.41
353.363	-10.41
353.575	73.56
353.787	73.56
353.999	57.17
354.21	94.04
354.422	128.85
354.633	22.36
354.845	-4.27
355.057	65.36
355.268	48.98
355.48	18.26
355.692	18.26
355.903	137.04
356.115	-73.9
356.326	-18.6
356.538	73.56
356.749	83.8
356.961	114.52
357.172	63.32
357.384	18.26
357.595	137.04
357.807	16.21
358.018	10.07
358.23	30.55
358.441	190.29
358.653	34.64
358.864	16.21
359.075	-18.6
359.287	48.98
359.498	55.12
359.709	38.74
359.921	36.69
360.132	14.17
360.344	26.45
360.555	16.21
360.766	-45.23
360.977	46.93
361.189	46.93
361.4	-4.27
361.611	14.17
361.823	24.4
362.034	38.74
362.245	-2.22
362.456	34.64
362.667	89.94
362.879	14.17
363.09	118.61
363.301	73.56
363.512	26.45
363.723	-59.56
363.935	116.56
364.146	79.7
364.357	-8.36
364.568	124.76
364.779	-22.7
364.99	100.18
365.201	38.74
365.412	79.7
365.623	40.79
365.834	28.5
366.045	81.75
366.256	22.36
366.467	20.31
366.678	57.17
366.889	71.51
367.1	73.56
367.311	38.74
367.522	55.12
367.733	-2.22
367.944	-75.95
368.155	38.74
368.366	46.93
368.577	87.89
368.788	100.18
368.999	-14.51
369.209	14.17
369.42	51.03
369.631	96.08
369.842	16.21
370.053	14.17
370.264	46.93
370.474	16.21
370.685	77.65
370.896	3.93
371.107	73.56
371.317	79.7
371.528	108.37
371.739	-10.41
371.95	-26.79
372.16	46.93
372.371	46.93
372.582	22.36
372.792	24.4
373.003	24.4
373.214	22.36
373.424	87.89
373.635	-26.79
373.846	137.04
374.056	30.55
374.267	55.12
374.477	51.03
374.688	14.17
374.898	-2.22
375.109	-16.55
375.319	40.79
375.53	38.74
375.74	46.93
375.951	96.08
376.161	20.31
376.372	89.94
376.582	-20.65
376.793	22.36
377.003	-6.31
377.214	51.03
377.424	75.6
377.635	22.36
377.845	30.55
378.055	137.04
378.266	-61.61
378.476	-2.22
378.686	55.12
378.897	26.45
379.107	120.66
379.317	63.32
379.528	75.6
379.738	59.22
379.948	-14.51
380.158	91.99
380.369	65.36
380.579	71.51
380.789	14.17
380.999	48.98
381.21	55.12
381.42	141.14
381.63	83.8
381.84	67.41
382.05	91.99
382.261	61.27
382.471	94.04
382.681	55.12
382.891	79.7
383.101	20.31
383.311	-43.18
383.521	38.74
383.731	73.56
383.941	38.74
384.151	51.03
384.361	46.93
384.571	34.64
384.781	44.88
384.991	75.6
385.201	71.51
385.411	59.22
385.621	18.26
385.831	22.36
386.041	57.17
386.251	18.26
386.461	104.28
386.671	12.12
386.881	71.51
387.091	18.26
387.301	79.7
387.511	14.17
387.72	10.07
387.93	51.03
388.14	30.55
388.35	83.8
388.56	151.38
388.769	120.66
388.979	89.94
389.189	-2.22
389.399	77.65
389.609	55.12
389.818	89.94
390.028	63.32
390.238	130.9
390.447	73.56
390.657	48.98
390.867	18.26
391.076	57.17
391.286	63.32
391.496	-10.41
391.705	104.28
391.915	124.76
392.125	51.03
392.334	-18.6
392.544	83.8
392.753	120.66
392.963	30.55
393.172	51.03
393.382	-2.22
393.591	44.88
393.801	-34.99
394.01	96.08
394.22	110.42
394.429	114.52
394.639	81.75
394.848	89.94
395.058	83.8
395.267	67.41
395.477	89.94
395.686	63.32
395.895	102.23
396.105	165.71
396.314	73.56
396.524	106.32
396.733	83.8
396.942	124.76
397.152	94.04
397.361	130.9
397.57	91.99
397.78	126.8
397.989	167.76
398.198	139.09
398.407	141.14
398.617	116.56
398.826	161.62
399.035	55.12
399.244	108.37
399.453	71.51
399.663	87.89
399.872	106.32
400.081	55.12
400.29	112.47
400.499	96.08
400.708	44.88
400.917	87.89
401.127	167.76
401.336	81.75
401.545	132.95
401.754	89.94
401.963	46.93
402.172	51.03
402.381	42.84
402.59	71.51
402.799	145.24
403.008	137.04
403.217	91.99
403.426	55.12
403.635	85.84
403.844	77.65
404.053	79.7
404.262	38.74
404.471	100.18
404.68	171.86
404.888	157.52
405.097	118.61
405.306	112.47
405.515	202.58
405.724	112.47
405.933	149.33
406.142	186.19
406.35	188.24
406.559	214.87
406.768	167.76
406.977	253.78
407.185	221.01
407.394	251.73
407.603	182.1
407.812	276.31
408.02	229.2
408.229	169.81
408.438	255.83
408.646	149.33
408.855	200.53
409.064	282.45
409.272	268.11
409.481	292.69
409.69	259.92
409.898	317.26
410.107	325.46
410.315	321.36
410.524	276.31
410.733	354.13
410.941	276.31
411.15	382.8
411.358	474.96
411.567	464.72
411.775	450.38
411.984	407.38
412.192	472.91
412.401	419.66
412.609	448.33
412.818	554.83
413.026	563.02
413.234	497.49
413.443	548.68
413.651	579.4
413.86	608.08
414.068	614.22
414.276	687.95
414.485	612.17
414.693	653.13
414.901	694.09
415.11	757.58
415.318	683.85
415.526	712.52
415.734	882.5
415.943	835.4
416.151	782.15
416.359	876.36
416.567	845.64
416.776	917.32
416.984	882.5
417.192	948.04
417.4	925.51
417.608	1007.43
417.817	1054.53
418.025	1062.73
418.233	1210.18
418.441	1105.73
418.649	1234.75
418.857	1257.28
419.065	1316.67
419.273	1193.8
419.481	1351.49
419.689	1496.89
419.897	1632.06
420.105	1531.71
420.313	1648.44
420.521	1677.12
420.729	1603.39
420.937	1804.09
421.145	1871.67
421.353	1990.45
421.561	1965.88
421.769	2053.94
421.977	2053.94
422.185	2096.95
422.393	2162.48
422.601	2334.51
422.809	2262.83
423.017	2393.9
423.224	2481.97
423.432	2516.78
423.64	2547.5
423.848	2807.59
424.056	2766.64
424.263	3006.25
424.471	2897.71
424.679	2881.32
424.887	3137.32
425.094	3325.73
425.302	3110.69
425.51	3485.47
425.718	3460.9
425.925	3532.58
426.133	3598.11
426.341	3931.93
426.548	3905.31
426.756	3958.55
426.964	4122.39
427.171	4251.41
427.379	4450.07
427.586	4521.74
427.794	4505.36
428.001	4947.72
428.209	4873.99
428.417	4955.91
428.624	5373.7
428.832	5383.94
429.039	5138.18
429.247	5287.68
429.454	5674.75
429.662	6092.54
429.869	5744.38
430.076	6053.62
430.284	5875.45
430.491	6328.05
430.699	6371.06
430.906	6727.41
431.114	6727.41
431.321	6844.14
431.528	7089.9
431.736	7452.39
431.943	7886.56
432.15	7370.47
432.358	7640.8
432.565	7943.9
432.772	7939.8
432.979	8302.29
433.187	8459.99
433.394	8799.95
433.601	9307.85
433.808	9377.48
434.016	9092.81
434.223	9770.69
434.43	10063.55
434.637	9850.56
434.844	10610.36
435.052	10534.58
435.259	10614.45
435.466	10671.79
435.673	10669.75
435.88	11232.94
436.087	11789.99
436.294	11919.01
436.501	11730.59
436.708	11785.89
436.915	12179.1
437.122	12605.08
437.329	12801.68
437.537	13133.45
437.743	13489.8
437.95	13184.65
438.157	13926.02
438.364	14308.99
438.571	14333.56
438.778	14366.33
438.985	15767.14
439.192	15036.02
439.399	15638.12
439.606	14921.33
439.813	16227.93
440.02	17264.21
440.227	16645.72
440.433	16475.74
440.64	17206.86
440.847	17096.27
441.054	17313.36
441.261	18695.74
441.467	18370.11
441.674	18732.6
441.881	19369.52
442.088	19392.05
442.294	19334.7
442.501	19609.13
442.708	20104.74
442.914	20661.79
443.121	21681.67
443.328	21243.41
443.534	22595.07
443.741	22050.31
443.948	21435.92
444.154	23078.39
444.361	23021.05
444.568	23156.21
444.774	23291.38
444.981	23428.59
445.187	24192.48
445.394	25071.06
445.6	25036.25
445.807	27313.59
446.013	25902.54
446.22	26721.73
446.426	27680.17
446.633	27772.33
446.839	28540.32
447.046	27299.25
447.252	29246.87
447.459	28960.16
447.665	28829.09
447.871	30461.32
448.078	31327.61
448.284	29711.76
448.491	30829.95
448.697	32167.27
448.903	32441.7
449.11	32615.78
449.316	32099.69
449.522	32728.42
449.728	33561.94
449.935	33484.12
450.141	33877.33
450.347	34362.7
450.553	33482.07
450.76	33742.16
450.966	35450.17
451.172	34286.92
451.378	35671.35
451.584	34678.08
451.791	35382.59
451.997	35556.66
452.203	35953.97
452.409	35724.6
452.615	35390.78
452.821	34372.94
453.027	33883.47
453.233	35804.47
453.44	34360.65
453.646	34948.42
453.852	35056.96
454.058	35497.27
454.264	34237.77
454.47	35212.6
454.676	34018.64
454.882	35462.46
455.088	32230.76
455.294	32738.66
455.5	33228.12
455.705	33781.07
455.911	31985.01
456.117	31475.06
456.323	31151.48
456.529	29435.28
456.735	30637.44
456.941	29982.09
457.147	29341.08
457.352	28614.05
457.558	28030.38
457.764	28427.68
457.97	27665.84
458.176	26944.95
458.381	26869.18
458.587	25675.21
458.793	25806.28
458.999	24528.35
459.204	25830.86
459.41	25034.2
459.616	23637.48
459.821	23594.48
460.027	23598.57
460.233	22793.72
460.438	21990.92
460.644	21966.34
460.85	21075.48
461.055	20911.64
461.261	20764.18
461.466	18947.64
461.672	18370.11
461.878	19576.36
462.083	18331.2
462.289	17999.43
462.494	17950.28
462.7	16905.81
462.905	16727.64
463.111	17567.31
463.316	17360.46
463.522	17186.38
463.727	16653.91
463.932	16789.08
464.138	16662.1
464.343	16668.25
464.549	16256.61
464.754	16875.09
464.959	16760.41
465.165	16377.44
465.37	15875.68
465.575	15203.95
465.781	16096.86
465.986	15799.91
466.191	15208.05
466.397	15076.98
466.602	14632.57
466.807	15087.22
467.012	14784.12
467.218	14892.66
467.423	14753.4
467.628	14782.07
467.833	15480.43
468.038	14673.53
468.244	14349.95
468.449	14761.59
468.654	14298.75
468.859	14163.58
469.064	13911.68
469.269	13573.77
469.474	13665.92
469.679	13936.26
469.885	13325.96
470.09	13817.47
470.295	13801.09
470.5	13285
470.705	13321.87
470.91	12932.75
471.115	12924.56
471.32	12742.29
471.525	13074.06
471.73	12428.95
471.935	12732.05
472.139	12357.27
472.344	12484.25
472.549	12050.08
472.754	12197.53
472.959	11757.22
473.164	11699.87
473.369	11591.33
473.574	11751.07
473.778	11589.28
473.983	11488.93
474.188	11476.65
474.393	11138.73
474.598	11208.36
474.802	10983.09
475.007	10913.45
475.212	10985.13
475.417	10534.58
475.621	10471.09
475.826	10389.17
476.031	10331.83
476.235	10141.37
476.44	10274.49
476.645	10008.25
476.849	10026.68
477.054	9877.18
477.259	9760.45
477.463	10102.46
477.668	9408.2
477.872	9758.4
478.077	9453.25
478.282	9172.68
478.486	9215.69
478.691	9187.02
478.895	9170.63
479.1	9070.28
479.304	9182.92
479.509	8935.12
479.713	8787.66
479.918	8605.39
480.122	8654.55
480.326	8908.49
480.531	8828.62
480.735	8627.92
480.94	8695.5
481.144	8814.29
481.348	8541.91
481.553	8550.1
481.757	8216.28
481.961	8414.93
482.166	8666.83
482.37	8500.95
482.574	8124.12
482.778	8275.67
482.983	8480.47
483.187	8296.15
483.391	8550.1
483.595	8140.51
483.8	8220.38
484.004	8353.49
484.208	8457.94
484.412	8236.76
484.616	8247
484.821	8322.77
485.025	8191.7
485.229	8410.84
485.433	8191.7
485.637	8232.66
485.841	8167.13
486.045	8283.86
486.249	8220.38
486.453	8292.05
486.657	8275.67
486.861	8142.55
487.065	7988.96
487.269	8308.44
487.473	8091.35
487.677	8320.73
487.881	8466.13
488.085	8197.85
488.289	8267.48
488.493	8036.06
488.697	8183.51
488.901	8156.89
489.105	8259.29
489.309	8234.71
489.512	8408.79
489.716	8500.95
489.92	8128.22
490.124	8074.97
490.328	8333.01
490.531	8275.67
490.735	8414.93
490.939	8255.19
491.143	8347.35
491.346	8234.71
491.55	8320.73
491.754	8355.54
491.958	8597.2
492.161	8419.03
492.365	8472.28
492.569	8384.21
492.772	8548.05
492.976	8535.76
493.18	8593.11
493.383	8500.95
493.587	8548.05
493.79	8806.09
493.994	8517.33
494.197	8668.88
494.401	8812.24
494.605	8840.91
494.808	9027.28
495.012	9019.08
495.215	9076.43
495.419	9131.72
495.622	9107.15
495.825	9103.05
496.029	9184.97
496.232	9246.41
496.436	9201.35
496.639	9512.64
496.843	9389.77
497.046	9742.02
497.249	9989.82
497.453	9758.4
497.656	9959.1
497.859	9850.56
498.063	10000.06
498.266	10120.89
498.469	9973.44
498.673	10084.03
498.876	10286.78
499.079	10397.37
499.282	10393.27
499.485	10749.62
499.689	10614.45
499.892	10796.72
500.095	10903.21
500.298	11216.55
500.501	10786.48
500.705	11253.42
500.908	11017.9
501.111	11368.1
501.314	11515.56
501.517	11646.63
501.72	11785.89
501.923	11611.81
502.126	12084.89
502.329	12299.93
502.532	12070.56
502.735	12242.59
502.938	12344.98
503.141	12529.3
503.344	12711.57
503.547	12715.67
503.75	12922.51
503.953	13053.58
504.156	12994.19
504.359	13270.67
504.562	13383.31
504.765	13493.9
504.968	13590.15
505.17	13731.46
505.373	13880.96
505.576	14261.88
505.779	14208.64
505.982	14296.7
506.185	14603.89
506.387	14560.89
506.59	14694.01
506.793	14716.53
506.996	15091.31
507.198	15513.19
507.401	15111.79
507.604	15429.23
507.807	15765.09
508.009	15867.49
508.212	15752.8
508.415	16213.6
508.617	16463.45
508.82	16203.36
509.022	16283.23
509.225	16801.36
509.428	16774.74
509.63	16934.48
509.833	17018.45
510.035	17577.55
510.238	17399.37
510.44	17897.03
510.643	18118.21
510.845	18026.05
511.048	18159.17
511.25	18175.55
511.453	18609.72
511.655	19146.29
511.858	18800.18
512.06	18998.84
512.262	19150.39
512.465	19160.62
512.667	19363.37
512.87	19715.62
513.072	19766.82
513.274	20145.7
513.477	20313.63
513.679	20477.47
513.881	20608.54
514.084	20846.1
514.286	20915.73
514.488	20868.63
514.69	21730.83
514.893	21376.53
515.095	21378.58
515.297	22017.54
515.499	21796.36
515.701	22091.27
515.904	22730.23
516.106	22388.22
516.308	22746.62
516.51	23082.49
516.712	23135.73
516.914	23236.08
517.116	23772.65
517.318	23657.96
517.52	23969.26
517.722	23705.07
517.925	24051.17
518.127	24204.77
518.329	24446.43
518.531	24403.42
518.733	24999.38
518.935	25099.73
519.136	25337.3
519.338	25615.82
519.54	25750.99
519.742	25742.8
519.944	25816.52
520.146	26123.72
520.348	26127.81
520.55	26392
520.752	26111.43
520.954	26813.88
521.155	26414.53
521.357	26697.15
521.559	27250.1
521.761	27256.25
521.963	27291.06
522.164	27381.17
522.366	27694.51
522.568	27540.91
522.77	28063.15
522.971	28425.64
523.173	28005.8
523.375	28276.13
523.576	28151.21
523.778	28192.17
523.98	28562.85
524.181	28530.08
524.383	28519.84
524.584	28577.19
524.786	28988.83
524.988	28360.1
525.189	29363.61
525.391	29148.57
525.592	29201.82
525.794	29316.5
525.995	29408.66
526.197	29130.14
526.398	29101.47
526.6	29412.76
526.801	29414.8
527.003	29322.65
527.204	29478.29
527.406	29717.9
527.607	29416.85
527.808	29678.99
528.01	29416.85
528.211	29668.75
528.412	29773.2
528.614	29846.93
528.815	29635.99
529.016	30043.53
529.218	29238.68
529.419	29640.08
529.62	29625.75
529.822	29552.02
530.023	29767.06
530.224	29867.41
530.425	29580.69
530.626	29412.76
530.828	29484.44
531.029	29953.42
531.23	29373.85
531.431	29496.72
531.632	29472.15
531.833	29443.48
532.035	29255.06
532.236	29658.51
532.437	29418.9
532.638	29238.68
532.839	29218.2
533.04	29351.32
533.241	29009.31
533.442	29232.54
533.643	29238.68
533.844	28558.75
534.045	28882.33
534.246	28700.06
534.447	29269.4
534.648	28519.84
534.849	28818.85
535.05	28939.68
535.251	28652.96
535.451	28616.1
535.652	28775.84
535.853	28788.13
536.054	28765.6
536.255	28919.2
536.456	28472.74
536.657	28679.58
536.857	28415.4
537.058	28532.13
537.259	28607.9
537.46	28226.98
537.66	28327.33
537.861	28689.82
538.062	28235.17
538.263	28446.12
538.463	28411.3
538.664	27803.05
538.865	28577.19
539.065	28247.46
539.266	28030.38
539.466	28358.05
539.667	27801.01
539.868	28519.84
540.068	28040.62
540.269	27895.21
540.469	28310.95
540.67	28011.95
540.87	27882.92
541.071	27930.03
541.271	28087.72
541.472	27932.08
541.672	27784.62
541.873	27905.45
542.073	27608.5
542.274	28224.93
542.474	27915.69
542.675	27995.56
542.875	28085.67
543.075	27776.43
543.276	27475.38
543.476	27981.23
543.676	27561.39
543.877	27305.4
544.077	27725.23
544.277	27571.63
544.478	27532.72
544.678	28122.54
544.878	27588.02
545.078	27887.02
545.279	27303.35
545.479	27409.84
545.679	27270.58
545.879	27688.37
546.079	27717.04
546.28	27217.33
546.48	27604.4
546.68	27733.42
546.88	27852.2
547.08	27506.1
547.28	27413.94
547.48	27254.2
547.68	27393.46
547.88	27485.62
548.081	27512.24
548.281	27514.29
548.481	27598.26
548.681	27631.02
548.881	27725.23
549.081	27403.7
549.28	27440.56
549.48	27655.6
549.68	27502
549.88	27717.04
550.08	27385.27
550.28	27405.75
550.48	27733.42
550.68	27911.6
550.88	27424.18
551.08	27606.45
551.279	27456.95
551.479	27358.64
551.679	27653.55
551.879	27436.47
552.079	27217.33
552.278	28005.8
552.478	27428.27
552.678	27893.16
552.878	27895.21
553.077	27598.26
553.277	27360.69
553.477	28265.89
553.676	27618.74
553.876	27547.06
554.076	27852.2
554.275	27661.74
554.475	27577.78
554.674	27809.2
554.874	27741.61
555.074	27973.03
555.273	27811.24
555.473	27805.1
555.672	27721.13
555.872	27794.86
556.071	27872.68
556.271	27841.96
556.47	27782.57
556.67	27739.57
556.869	27651.5
557.068	27930.03
557.268	27895.21
557.467	27837.87
557.667	27962.79
557.866	28005.8
558.065	28069.29
558.265	27889.07
558.464	28052.91
558.663	28313
558.863	27690.41
559.062	28112.3
559.261	27489.71
559.461	28050.86
559.66	27721.13
559.859	27911.6
560.058	27794.86
560.258	28108.2
560.457	27667.89
560.656	28163.5
560.855	27745.71
561.054	27934.12
561.253	27616.69
561.453	27977.13
561.652	28011.95
561.851	28009.9
562.05	28038.57
562.249	27639.22
562.448	28026.28
562.647	28007.85
562.846	28038.57
563.045	28337.57
563.244	27663.79
563.443	27985.32
563.642	27614.64
563.841	27366.84
564.04	27536.82
564.239	28110.25
564.438	27534.77
564.637	27790.77
564.836	27760.05
565.035	27327.92
565.234	27694.51
565.432	27567.54
565.631	27837.87
565.83	27487.67
566.029	27174.33
566.228	27395.51
566.427	27471.28
566.625	27110.84
566.824	27067.83
567.023	27471.28
567.222	26770.88
567.42	27420.08
567.619	27162.04
567.818	26815.93
568.016	27071.93
568.215	27291.06
568.414	26947
568.612	26908.09
568.811	26756.54
569.01	26764.73
569.208	26467.78
569.407	26965.43
569.605	26656.19
569.804	26822.08
570.002	26279.36
570.201	26688.96
570.4	26308.04
570.598	26412.48
570.797	25982.41
570.995	26498.5
571.193	26039.75
571.392	26547.65
571.59	25869.77
571.789	25802.19
571.987	25976.26
572.186	25791.95
572.384	25757.13
572.582	25853.39
572.781	26068.42
572.979	25441.75
573.177	25628.11
573.376	25640.4
573.574	25470.42
573.772	25566.67
573.971	25488.85
574.169	25212.37
574.367	25261.52
574.565	25423.31
574.763	25116.12
574.962	25183.7
575.16	24618.46
575.358	25042.39
575.556	24550.88
575.754	24806.87
575.952	24475.1
576.151	24925.66
576.349	24413.66
576.547	24311.27
576.745	24532.45
576.943	24618.46
577.141	23901.67
577.339	24167.91
577.537	24223.2
577.735	24186.34
577.933	24239.59
578.131	23909.86
578.329	23584.24
578.527	23688.68
578.725	23795.18
578.923	23858.67
579.121	23307.76
579.319	23719.4
579.516	23789.03
579.714	23713.26
579.912	23352.82
580.11	23412.21
580.308	23324.15
580.506	23217.65
580.704	22916.6
580.901	22875.64
581.099	23295.47
581.297	22883.83
581.495	22937.08
581.692	22900.22
581.89	22844.92
582.088	23160.31
582.285	22517.25
582.483	22447.61
582.681	22734.33
582.878	22267.39
583.076	22420.99
583.274	22406.66
583.471	22283.78
583.669	22431.23
583.866	22126.08
584.064	22189.57
584.262	22052.36
584.459	22273.54
584.657	21949.96
584.854	22218.24
585.052	21575.18
585.249	22007.3
585.447	21870.09
585.644	21775.88
585.841	21739.02
586.039	21702.15
586.236	21730.83
586.434	21603.85
586.631	21585.42
586.828	21712.39
587.026	21384.72
587.223	21401.1
587.42	21235.22
587.618	21501.45
587.815	21202.45
588.012	21259.79
588.21	21034.52
588.407	21190.16
588.604	21270.03
588.801	20911.64
588.999	20944.41
589.196	20956.69
589.393	20592.16
589.59	20948.5
589.787	20686.36
589.984	20796.95
590.182	20712.99
590.379	20641.31
590.576	20477.47
590.773	20514.33
590.97	20710.94
591.167	20977.17
591.364	20381.21
591.561	20495.9
591.758	20405.79
591.955	20487.71
592.152	20567.58
592.349	20065.83
592.546	20280.86
592.743	20510.24
592.94	19945
593.137	20086.31
593.334	20327.97
593.531	19764.78
593.727	20059.68
593.924	20241.95
594.121	20053.54
594.318	20176.42
594.515	19883.56
594.712	19904.04
594.908	19977.76
595.105	20006.44
595.302	19615.27
595.499	20071.97
595.696	19934.76
595.892	19856.93
596.089	19945
596.286	19899.94
596.482	19643.95
596.679	20026.92
596.876	19834.41
597.072	19762.73
597.269	19562.03
597.466	19971.62
597.662	19912.23
597.859	19836.45
598.055	19770.92
598.252	19658.28
598.448	19795.5
598.645	19895.85
598.841	19449.39
599.038	19660.33
599.234	19828.26
599.431	19668.52
599.627	19822.12
599.824	19992.1
600.02	19516.97
600.217	19785.26
600.413	19594.79
600.609	19850.79
600.806	19555.88
601.002	19852.84
601.198	19611.18
601.395	19785.26
601.591	19850.79
601.787	20135.46
601.984	20110.88
602.18	19936.81
602.376	19781.16
602.572	20252.19
602.769	19977.76
602.965	19734.06
603.161	20020.77
603.357	19906.09
603.553	20002.34
603.75	19961.38
603.946	19940.9
604.142	20383.26
604.338	19850.79
604.534	20540.96
604.73	20100.64
604.926	20407.84
605.122	20493.85
605.318	20532.76
605.514	20223.52
605.71	20289.06
605.906	20231.71
606.102	20389.41
606.298	20639.26
606.494	20678.17
606.69	20356.64
606.886	20708.89
607.082	20600.35
607.278	20676.12
607.474	20481.56
607.67	21055
607.866	20422.17
608.062	20776.47
608.257	20819.48
608.453	20612.63
608.649	21044.76
608.845	20766.23
609.041	21163.54
609.236	21063.19
609.432	21267.98
609.628	21243.41
609.824	21106.2
610.019	21059.09
610.215	21278.22
610.411	21298.7
610.606	21200.4
610.802	21517.84
610.998	21181.97
611.193	21464.59
611.389	21155.35
611.584	21204.5
611.78	21478.93
611.976	21208.59
612.171	21413.39
612.367	21556.75
612.562	21755.4
612.758	21435.92
612.953	21409.29
613.149	21728.78
613.344	21489.17
613.539	21927.43
613.735	21880.33
613.93	22027.78
614.126	21640.72
614.321	21859.85
614.517	21954.05
614.712	21870.09
614.907	21753.35
615.103	22134.28
615.298	21732.87
615.493	21909
615.688	21972.49
615.884	22228.48
616.079	21724.68
616.274	21986.82
616.47	22052.36
616.665	22107.65
616.86	21894.66
617.055	21792.26
617.25	22152.71
617.445	22357.5
617.641	21683.72
617.836	22134.28
618.031	21761.55
618.226	21782.02
618.421	22050.31
618.616	21984.77
618.811	21683.72
619.006	22023.69
619.201	21640.72
619.396	22005.25
619.591	21556.75
619.786	21825.03
619.981	21368.34
620.176	21751.31
620.371	21116.44
620.566	21704.2
620.761	21448.21
620.956	21587.47
621.151	21069.33
621.346	21177.87
621.541	20960.79
621.735	21110.29
621.93	21073.43
622.125	20960.79
622.32	20782.62
622.515	20786.71
622.709	20811.29
622.904	20805.14
623.099	20586.01
623.294	20698.65
623.488	20278.82
623.683	20377.12
623.878	20303.39
624.072	20110.88
624.267	20287.01
624.462	20078.11
624.656	19846.69
624.851	19930.66
625.046	19736.1
625.24	19967.52
625.435	19453.48
625.629	19451.44
625.824	19492.4
626.018	19396.14
626.213	19035.7
626.407	19226.16
626.602	19236.4
626.796	19250.74
626.991	18812.47
627.185	18622.01
627.38	18884.15
627.574	18552.38
627.768	18607.67
627.963	18261.57
628.157	18343.49
628.352	18531.9
628.546	17921.6
628.74	18464.32
628.935	18011.71
629.129	17806.92
629.323	17714.76
629.517	17768.01
629.712	17692.23
629.906	17739.33
630.1	17374.8
630.294	17466.95
630.489	17225.29
630.683	17632.84
630.877	17167.95
631.071	17393.23
631.265	17004.11
631.459	17057.36
631.653	16926.29
631.848	16871
632.042	16879.19
632.236	16653.91
632.43	16547.42
632.624	16565.85
632.818	16342.62
633.012	16266.85
633.206	16399.96
633.4	16361.05
633.594	15928.93
633.788	16227.93
633.982	16111.2
634.176	15842.92
634.369	15816.29
634.563	15644.26
634.757	15652.45
634.951	15640.17
635.145	15384.17
635.339	15431.27
635.533	15210.09
635.726	15382.12
635.92	15244.91
636.114	15335.02
636.308	14968.43
636.501	14870.13
636.695	15023.73
636.889	14917.23
637.083	14759.54
637.276	14831.22
637.47	14605.94
637.664	14548.6
637.857	14661.24
638.051	14499.45
638.244	14321.27
638.438	14139.01
638.632	14141.05
638.825	13801.09
639.019	13678.21
639.212	13637.25
639.406	13870.72
639.599	13526.66
639.793	13850.24
639.986	13182.6
640.18	13471.37
640.373	13383.31
640.567	13153.93
640.76	13112.97
640.954	13024.91
641.147	13129.36
641.34	12861.07
641.534	12990.1
641.727	12965.52
641.92	12899.98
642.114	12641.94
642.307	12555.93
642.5	12400.28
642.694	11990.69
642.887	12189.34
643.08	12416.66
643.273	12172.96
643.467	12326.55
643.66	12250.78
643.853	11984.54
644.046	11890.34
644.239	11781.79
644.432	11648.68
644.626	11564.71
644.819	11714.21
645.012	11660.96
645.205	11353.77
645.398	11515.56
645.591	11105.96
645.784	11202.22
645.977	11259.56
646.17	11318.95
646.363	11003.57
646.556	10958.51
646.749	10854.06
646.942	10876.59
647.135	10843.82
647.328	10800.82
647.521	10749.62
647.714	10534.58
647.907	10581.68
648.099	10565.3
648.292	10514.1
648.485	10395.32
648.678	10204.86
648.871	10272.44
649.064	10151.61
649.256	10323.64
649.449	10141.37
649.642	9946.81
649.835	9934.53
650.027	10079.93
650.22	9844.42
650.413	9850.56
650.605	9666.24
650.798	9672.39
650.991	9731.78
651.183	9662.15
651.376	9512.64
651.568	9506.5
651.761	9436.87
651.954	9381.57
652.146	9336.52
652.339	9406.15
652.531	9113.29
652.724	9012.94
652.916	8935.12
653.109	9148.11
653.301	9158.35
653.494	9021.13
653.686	8775.38
653.879	8978.12
654.071	8806.09
654.263	8742.61
654.456	8713.94
654.648	8935.12
654.84	8511.19
655.033	8632.02
655.225	8550.1
655.417	8273.62
655.61	8664.79
655.802	8445.65
655.994	8533.72
656.186	8353.49
656.379	8214.23
656.571	8443.6
656.763	8089.31
656.955	8177.37
657.148	8064.73
657.34	8279.77
657.532	7804.64
657.724	7927.52
657.916	7925.47
658.108	7945.95
658.3	7917.28
658.492	8056.54
658.684	7585.51
658.876	7796.45
659.068	7558.88
659.26	7657.18
659.452	7618.27
659.644	7735.01
659.836	7403.24
660.028	7440.1
660.22	7339.75
660.412	7517.92
660.604	7249.64
660.796	7194.34
660.988	7458.53
661.18	7024.36
661.372	7132.9
661.563	7280.36
661.755	7274.21
661.947	7040.75
662.139	6930.16
662.331	6936.3
662.522	6848.24
662.714	6958.83
662.906	6825.71
663.097	6786.8
663.289	6784.75
663.481	6579.95
663.673	6737.65
663.864	6600.43
664.056	6579.95
664.247	6635.25
664.439	6680.3
664.631	6649.58
664.822	6502.13
665.014	6477.55
665.205	6473.46
665.397	6520.56
665.588	6547.19
665.78	6360.82
665.971	6385.4
666.163	6174.46
666.354	6194.93
666.546	6160.12
666.737	6242.04
666.929	6166.26
667.12	5924.6
667.311	5971.71
667.503	6057.72
667.694	6256.37
667.885	5945.08
668.077	6027
668.268	5797.63
668.459	5852.92
668.651	5768.96
668.842	5820.16
669.033	5711.61
669.224	5666.56
669.416	5777.15
669.607	5840.64
669.798	5658.37
669.989	5662.46
670.18	5676.8
670.371	5687.04
670.563	5486.34
670.754	5529.34
670.945	5457.67
671.136	5582.59
671.327	5414.66
671.518	5355.27
671.709	5492.48
671.9	5562.11
672.091	5439.23
672.282	5412.61
672.473	5527.3
672.664	5502.72
672.855	5379.84
673.046	5390.08
673.237	5433.09
673.428	5412.61
673.619	5273.35
673.809	5248.77
674	5322.5
674.191	5338.88
674.382	5283.59
674.573	5199.62
674.764	5119.75
674.954	5062.41
675.145	5132.04
675.336	5000.97
675.527	5263.11
675.717	5027.59
675.908	5021.45
676.099	5031.69
676.289	5068.55
676.48	5035.78
676.671	4820.75
676.861	5068.55
677.052	5097.22
677.243	5046.02
677.433	5003.02
677.624	5054.22
677.814	4972.3
678.005	4953.87
678.195	4964.11
678.386	4964.11
678.576	4964.11
678.767	4822.8
678.957	4833.04
679.148	4925.19
679.338	4908.81
679.529	4892.43
679.719	4773.64
679.909	4964.11
680.1	4906.76
680.29	4771.6
680.481	4761.36
680.671	4781.84
680.861	4798.22
681.052	4894.47
681.242	4740.88
681.432	4808.46
681.622	4683.53
681.813	4736.78
682.003	4847.37
682.193	4704.01
682.383	4757.26
682.573	4757.26
682.764	4773.64
682.954	4830.99
683.144	4595.47
683.334	4603.66
683.524	4622.09
683.714	4816.65
683.904	4923.15
684.094	4699.92
684.284	4783.88
684.474	4761.36
684.664	4695.82
684.854	4564.75
685.044	4724.49
685.234	4744.97
685.424	4708.11
685.614	4628.24
685.804	4628.24
685.994	4716.3
686.184	4777.74
686.374	4607.76
686.564	4626.19
686.753	4507.41
686.943	4470.55
687.133	4618
687.323	4593.42
687.513	4683.53
687.702	4595.47
687.892	4597.52
688.082	4568.85
688.272	4531.98
688.461	4507.41
688.651	4511.5
688.841	4413.2
689.03	4421.39
689.22	4329.24
689.41	4353.81
689.599	4380.43
689.789	4486.93
689.979	4454.16
690.168	4341.52
690.358	4220.69
690.547	4366.1
690.737	4579.09
690.926	4478.74
691.116	4355.86
691.305	4251.41
691.495	4329.24
691.684	4372.24
691.874	4316.95
692.063	4273.94
692.252	4310.8
692.442	4302.61
692.631	4306.71
692.82	4259.6
693.01	4249.36
693.199	4325.14
693.388	4255.51
693.578	4224.79
693.767	4235.03
693.956	4093.72
694.146	4161.3
694.335	4183.83
694.524	4159.25
694.713	4181.78
694.902	4044.57
695.092	4177.69
695.281	4065.05
695.47	4060.95
695.659	3987.22
695.848	4077.34
696.037	4136.73
696.226	4206.36
696.415	4046.62
696.604	4101.91
696.793	4026.14
696.982	4044.57
697.171	4011.8
697.36	4083.48
697.549	4034.33
697.738	3991.32
697.927	4011.8
698.116	4036.38
698.305	3979.03
698.494	4032.28
698.683	3952.41
698.872	4067.1
699.061	4011.8
699.25	3905.31
699.438	3979.03
699.627	4003.61
699.816	3880.73
700.005	4079.38
700.193	3899.16
700.382	3921.69
700.571	3907.35
700.76	3798.81
700.948	3759.9
701.137	3979.03
701.326	3847.96
701.514	3825.43
701.703	3888.92
701.892	3876.63
702.08	3972.89
702.269	3735.32
702.457	3837.72
702.646	3858.2
702.834	3692.32
703.023	3708.7
703.212	3702.56
703.4	3774.24
703.589	3634.97
703.777	3700.51
703.965	3774.24
704.154	3651.36
704.342	3725.08
704.531	3698.46
704.719	3503.9
704.907	3772.19
705.096	3542.82
705.284	3551.01
705.472	3561.25
705.661	3573.53
705.849	3659.55
706.037	3667.74
706.226	3614.49
706.414	3618.59
706.602	3567.39
706.79	3577.63
706.979	3501.86
707.167	3557.15
707.355	3378.98
707.543	3497.76
707.731	3497.76
707.919	3577.63
708.107	3483.42
708.296	3471.14
708.484	3381.03
708.672	3557.15
708.86	3501.86
709.048	3329.83
709.236	3372.83
709.424	3356.45
709.612	3424.03
709.8	3444.51
709.988	3274.53
710.176	3421.99
710.364	3333.92
710.551	3303.2
710.739	3456.8
710.927	3421.99
711.115	3135.27
711.303	3393.31
711.491	3319.59
711.679	3188.52
711.866	3274.53
712.054	3176.23
712.242	3086.12
712.43	3333.92
712.617	3110.69
712.805	3145.51
712.993	3180.32
713.181	3088.17
713.368	3200.8
713.556	3196.71
713.744	3141.41
713.931	3301.15
714.119	3088.17
714.306	3086.12
714.494	3012.39
714.682	2985.77
714.869	3073.83
715.057	3034.92
715.244	2967.34
715.432	3063.59
715.619	3004.2
715.807	3006.25
715.994	3202.85
716.182	2963.24
716.369	2973.48
716.556	2920.23
716.744	2942.76
716.931	2987.82
717.119	3057.45
717.306	2897.71
717.493	3006.25
717.681	2940.71
717.868	2977.58
718.055	2979.62
718.242	2907.94
718.43	2934.57
718.617	2897.71
718.804	2795.31
718.991	2768.68
719.179	2918.18
719.366	2752.3
719.553	2774.83
719.74	2699.05
719.927	2895.66
720.114	2832.17
720.301	2621.23
720.488	2737.96
720.676	2750.25
720.863	2826.03
721.05	2905.9
721.237	2656.04
721.424	2740.01
721.611	2627.37
721.798	2684.72
721.985	2627.37
722.172	2717.48
722.358	2639.66
722.545	2727.72
722.732	2662.19
722.919	2705.2
723.106	2713.39
723.293	2688.81
723.48	2705.2
723.667	2684.72
723.853	2570.03
724.04	2723.63
724.227	2629.42
724.414	2588.46
724.6	2643.76
724.787	2553.65
724.974	2635.57
725.161	2580.27
725.347	2479.92
725.534	2582.32
725.72	2570.03
725.907	2537.26
726.094	2602.8
726.28	2600.75
726.467	2438.96
726.653	2498.35
726.84	2504.5
727.027	2475.82
727.213	2367.28
727.4	2709.29
727.586	2488.11
727.773	2479.92
727.959	2539.31
728.145	2459.44
728.332	2406.19
728.518	2369.33
728.705	2379.57
728.891	2406.19
729.077	2357.04
729.264	2344.75
729.45	2369.33
729.636	2531.12
729.823	2324.27
730.009	2412.34
730.195	2406.19
730.382	2275.12
730.568	2365.23
730.754	2324.27
730.94	2260.79
731.126	2260.79
731.313	2250.55
731.499	2389.81
731.685	2281.27
731.871	2260.79
732.057	2361.14
732.243	2268.98
732.429	2254.64
732.615	2299.7
732.801	2309.94
732.987	2332.47
733.173	2293.55
733.359	2279.22
733.545	2260.79
733.731	2193.2
733.917	2357.04
734.103	2275.12
734.289	2301.75
734.475	2211.64
734.661	2316.08
734.847	2185.01
735.033	2217.78
735.219	2109.24
735.404	2205.49
735.59	2115.38
735.776	2113.33
735.962	2211.64
736.148	2144.05
736.333	2144.05
736.519	2135.86
736.705	2127.67
736.89	2217.78
737.076	2197.3
737.262	2211.64
737.447	2219.83
737.633	2123.57
737.819	2064.18
738.004	2160.44
738.19	2006.84
738.375	2135.86
738.561	2189.11
738.747	2008.89
738.932	2176.82
739.118	2019.13
739.303	2127.67
739.489	2000.69
739.674	2094.9
739.859	1869.62
740.045	1974.07
740.23	2055.99
740.416	1886.01
740.601	1972.02
740.786	1873.72
740.972	1939.26
741.157	1996.6
741.342	1875.77
741.528	1922.87
741.713	2006.84
741.898	1898.3
742.084	1914.68
742.269	1972.02
742.454	1910.58
742.639	1951.54
742.824	1851.19
743.01	1873.72
743.195	1877.82
743.38	1957.69
743.565	1793.85
743.75	1857.34
743.935	1832.76
744.12	1869.62
744.305	1771.32
744.49	1814.33
744.675	1873.72
744.86	1799.99
745.045	1644.35
745.23	1746.75
745.415	1716.03
745.6	1824.57
745.785	1670.97
745.97	1810.23
746.155	1740.6
746.34	1707.84
746.525	1654.59
746.71	1728.31
746.895	1636.16
747.079	1582.91
747.264	1681.21
747.449	1677.12
747.634	1767.23
747.819	1636.16
748.003	1513.28
748.188	1619.77
748.373	1546.05
748.557	1656.64
748.742	1578.81
748.927	1562.43
749.111	1511.23
749.296	1505.09
749.481	1578.81
749.665	1535.81
749.85	1591.1
750.034	1382.21
750.219	1509.18
750.404	1447.74
750.588	1464.13
750.773	1451.84
750.957	1445.7
751.141	1441.6
751.326	1435.46
751.51	1357.63
751.695	1351.49
751.879	1419.07
752.064	1464.13
752.248	1285.95
752.432	1310.53
752.617	1363.78
752.801	1417.02
752.985	1390.4
753.17	1294.15
753.354	1285.95
753.538	1236.8
753.722	1212.23
753.907	1277.76
754.091	1343.3
754.275	1210.18
754.459	1275.71
754.643	1220.42
754.828	1302.34
755.012	1267.52
755.196	1267.52
755.38	1304.39
755.564	1333.06
755.748	1169.22
755.932	1175.36
756.116	1111.88
756.3	1152.84
756.484	1105.73
756.668	1070.92
756.852	1072.96
757.036	1179.46
757.22	1136.45
757.404	1046.34
757.588	1122.12
757.772	1040.2
757.956	1247.04
758.14	1144.64
758.323	1089.35
758.507	1103.68
758.691	1130.31
758.875	1144.64
759.059	1140.55
759.242	986.95
759.426	1046.34
759.61	1029.96
759.794	1021.77
759.977	1066.82
760.161	1089.35
760.345	1001.29
760.528	1015.62
760.712	1009.48
760.895	986.95
761.079	939.85
761.263	989
761.446	1017.67
761.63	939.85
761.813	964.42
761.997	943.94
762.18	939.85
762.364	866.12
762.547	917.32
762.731	841.54
762.914	966.47
763.098	945.99
763.281	902.98
763.464	935.75
763.648	956.23
763.831	882.5
764.015	931.66
764.198	939.85
764.381	884.55
764.564	943.94
764.748	878.41
764.931	952.13
765.114	862.02
765.297	933.7
765.481	829.26
765.664	876.36
765.847	841.54
766.03	870.22
766.213	857.93
766.397	898.89
766.58	898.89
766.763	806.73
766.946	819.02
767.129	821.06
767.312	870.22
767.495	931.66
767.678	771.91
767.861	862.02
768.044	804.68
768.227	882.5
768.41	827.21
768.593	866.12
768.776	931.66
768.959	739.15
769.142	886.6
769.324	821.06
769.507	718.67
769.69	857.93
769.873	780.11
770.056	974.66
770.239	794.44
770.421	800.59
770.604	810.82
770.787	776.01
770.97	722.76
771.152	728.91
771.335	816.97
771.518	755.53
771.7	792.39
771.883	794.44
772.066	726.86
772.248	763.72
772.431	804.68
772.613	702.28
772.796	784.2
772.978	792.39
773.161	802.63
773.343	751.43
773.526	665.42
773.708	640.84
773.891	649.04
774.073	669.52
774.256	696.14
774.438	776.01
774.621	659.28
774.803	677.71
774.985	685.9
775.168	671.56
775.35	677.71
775.532	753.48
775.715	663.37
775.897	679.75
776.079	614.22
776.261	603.98
776.444	649.04
776.626	606.03
776.808	599.88
776.99	640.84
777.173	630.6
777.355	591.69
777.537	581.45
777.719	649.04
777.901	673.61
778.083	565.07
778.265	603.98
778.447	614.22
778.629	614.22
778.811	565.07
778.993	534.35
779.175	606.03
779.357	579.4
779.539	522.06
779.721	524.11
779.903	571.21
780.085	552.78
780.267	474.96
780.449	499.53
780.631	554.83
780.812	556.88
780.994	452.43
781.176	464.72
781.358	513.87
781.54	474.96
781.721	522.06
781.903	575.31
782.085	534.35
782.267	501.58
782.448	446.29
782.63	515.92
782.812	563.02
782.993	474.96
783.175	538.45
783.357	427.85
783.538	489.29
783.72	479.05
783.901	425.81
784.083	479.05
784.264	450.38
784.446	425.81
784.627	485.2
784.809	436.05
784.99	407.38
785.172	362.32
785.353	425.81
785.535	364.37
785.716	376.66
785.897	409.42
786.079	382.8
786.26	341.84
786.441	399.18
786.623	345.94
786.804	337.74
786.985	284.5
787.167	376.66
787.348	419.66
787.529	352.08
787.71	417.61
787.891	380.75
788.073	368.46
788.254	407.38
788.435	288.59
788.616	403.28
788.797	350.03
788.978	341.84
789.159	362.32
789.34	311.12
789.522	350.03
789.703	341.84
789.884	325.46
790.065	341.84
790.246	390.99
790.427	286.54
790.607	343.89
790.788	337.74
790.969	327.5
791.15	333.65
791.331	317.26
791.512	274.26
791.693	298.83
791.874	270.16
792.054	454.48
792.235	333.65
792.416	313.17
792.597	284.5
792.778	345.94
792.958	327.5
793.139	282.45
793.32	311.12
793.5	188.24
793.681	350.03
793.862	272.21
794.042	311.12
794.223	274.26
794.404	309.07
794.584	210.77
794.765	268.11
794.945	290.64
795.126	241.49
795.306	335.7
795.487	194.39
795.667	151.38
795.848	233.3
796.028	313.17
796.209	272.21
796.389	331.6
796.57	261.97
796.75	243.54
796.93	284.5
797.111	208.72
797.291	218.96
797.471	292.69
797.652	139.09
797.832	210.77
798.012	284.5
798.192	196.43
798.373	313.17
798.553	208.72
798.733	257.87
798.913	204.63
799.093	317.26
799.274	202.58
799.454	210.77
799.634	229.2
799.814	218.96
799.994	268.11
800.174	180.05
800.354	210.77
800.534	116.56
800.714	210.77
800.894	184.15
801.074	171.86
801.254	237.39
801.434	241.49
801.614	249.68
801.794	145.24
801.974	896.84
802.154	202.58
802.334	292.69
802.514	120.66
802.693	221.01
802.873	151.38
803.053	216.91
803.233	235.35
803.413	235.35
803.592	218.96
803.772	163.67
803.952	182.1
804.131	225.11
804.311	139.09
804.491	223.06
804.67	130.9
804.85	165.71
805.03	165.71
805.209	169.81
805.389	190.29
805.568	182.1
805.748	196.43
805.928	188.24
806.107	210.77
806.287	112.47
806.466	212.82
806.646	204.63
806.825	132.95
807.004	149.33
807.184	188.24
807.363	237.39
807.543	163.67
807.722	12.12
807.901	161.62
808.081	186.19
808.26	112.47
808.439	208.72
808.619	202.58
808.798	229.2
808.977	163.67
809.156	206.67
809.336	104.28
809.515	157.52
809.694	112.47
809.873	139.09
810.052	139.09
810.231	145.24
810.411	147.28
810.59	139.09
810.769	122.71
810.948	188.24
811.127	94.04
811.306	157.52
811.485	231.25
811.664	231.25
811.843	130.9
812.022	155.47
812.201	139.09
812.38	161.62
812.559	145.24
812.737	186.19
812.916	153.43
813.095	147.28
813.274	218.96
813.453	147.28
813.632	153.43
813.811	186.19
813.989	89.94
814.168	116.56
814.347	139.09
814.526	165.71
814.704	218.96
814.883	157.52
815.062	96.08
815.24	122.71
815.419	89.94
815.598	137.04
815.776	139.09
815.955	73.56
816.133	32.6
816.312	139.09
816.49	98.13
816.669	96.08
816.847	116.56
817.026	137.04
817.204	149.33
817.383	159.57
817.561	89.94
817.74	182.1
817.918	108.37
818.097	116.56
818.275	137.04
818.453	135
818.632	194.39
818.81	67.41
818.988	71.51
819.167	100.18
819.345	120.66
819.523	14.17
819.701	59.22
819.879	145.24
820.058	89.94
820.236	63.32
820.414	34.64
820.592	153.43
820.77	81.75
820.948	100.18
821.127	55.12
821.305	122.71
821.483	1.88
821.661	145.24
821.839	96.08
822.017	106.32
822.195	75.6
822.373	63.32
822.551	106.32
822.729	122.71
822.907	96.08
823.085	91.99
823.262	67.41
823.44	63.32
823.618	3.93
823.796	126.8
823.974	48.98
824.152	143.19
824.329	155.47
824.507	120.66
824.685	135
824.863	77.65
825.04	110.42
825.218	91.99
825.396	124.76
825.574	65.36
825.751	110.42
825.929	147.28
826.107	22.36
826.284	53.08
826.462	120.66
826.639	63.32
826.817	51.03
826.994	57.17
827.172	71.51
827.349	161.62
827.527	104.28
827.704	40.79
827.882	104.28
828.059	8.02
828.237	40.79
828.414	120.66
828.591	87.89
828.769	51.03
828.946	55.12
829.124	83.8
829.301	57.17
829.478	26.45
829.655	87.89
829.833	71.51
830.01	14.17
830.187	100.18
830.364	75.6
830.542	87.89
830.719	139.09
830.896	85.84
831.073	79.7
831.25	96.08
831.427	73.56
831.604	102.23
831.782	48.98
831.959	71.51
832.136	-10.41
832.313	75.6
832.49	32.6
832.667	83.8
832.844	-6.31
833.021	91.99
833.198	106.32
833.374	-20.65
833.551	40.79
833.728	32.6
833.905	83.8
834.082	-2.22
834.259	106.32
834.436	79.7
834.612	55.12
834.789	145.24
834.966	38.74
835.143	59.22
835.319	42.84
835.496	57.17
835.673	30.55
835.85	81.75
836.026	87.89
836.203	87.89
836.38	46.93
836.556	32.6
836.733	8.02
836.909	108.37
837.086	104.28
837.262	32.6
837.439	36.69
837.616	100.18
837.792	69.46
837.968	57.17
838.145	26.45
838.321	38.74
838.498	141.14
838.674	87.89
838.851	-8.36
839.027	114.52
839.203	30.55
839.38	122.71
839.556	81.75
839.732	157.52
839.909	32.6
840.085	46.93
840.261	14.17
840.437	46.93
840.614	69.46
840.79	73.56
840.966	67.41
841.142	26.45
841.318	61.27
841.494	20.31
841.671	1.88
841.847	100.18
842.023	30.55
842.199	153.43
842.375	-10.41
842.551	-45.23
842.727	46.93
842.903	139.09
843.079	24.4
843.255	112.47
843.431	73.56
843.607	38.74
843.783	-41.13
843.959	-49.32
844.134	16.21
844.31	38.74
844.486	73.56
844.662	71.51
844.838	26.45
845.013	73.56
845.189	79.7
845.365	73.56
845.541	42.84
845.716	55.12
845.892	96.08
846.068	-28.84
846.244	59.22
846.419	87.89
846.595	38.74
846.77	75.6
846.946	63.32
847.122	48.98
847.297	-32.94
847.473	87.89
847.648	-32.94
847.824	42.84
847.999	14.17
848.175	-24.75
848.35	104.28
848.526	8.02
848.701	106.32
848.876	81.75
849.052	67.41
849.227	-18.6
849.403	-24.75
849.578	65.36
849.753	-8.36
849.929	32.6
850.104	-30.89
850.279	79.7
850.454	51.03
850.63	22.36
850.805	-6.31
850.98	81.75
851.155	112.47
851.33	-10.41
851.505	3.93
851.681	34.64
851.856	28.5
852.031	-61.61
852.206	-10.41
852.381	57.17
852.556	22.36
852.731	104.28
852.906	16.21
853.081	63.32
853.256	104.28
853.431	8.02
853.606	-30.89
853.781	16.21
853.956	8.02
854.131	-26.79
854.305	57.17
854.48	-4.27
854.655	-39.08
854.83	22.36
855.005	-20.65
855.18	8.02
855.354	-8.36
855.529	30.55
855.704	59.22
855.879	98.13
856.053	34.64
856.228	75.6
856.403	-43.18
856.577	-2.22
856.752	-108.71
856.926	-2.22
857.101	22.36
857.276	-41.13
857.45	-10.41
857.625	87.89
857.799	-2.22
857.974	63.32
858.148	14.17
858.323	65.36
858.497	-37.03
858.672	-34.99
858.846	57.17
859.02	32.6
859.195	-59.56
859.369	14.17
859.543	22.36
859.718	30.55
859.892	14.17
860.066	-16.55
860.241	-0.17
860.415	-59.56
860.589	-10.41
860.763	28.5
860.938	10.07
861.112	-47.27
861.286	18.26
861.46	30.55
861.634	-16.55
861.808	73.56
861.982	-55.47
862.157	-2.22
862.331	-24.75
862.505	14.17
862.679	-2.22
862.853	30.55
863.027	30.55
863.201	114.52
863.375	-41.13
863.549	59.22
863.722	61.27
863.896	20.31
864.07	-53.42
864.244	46.93
864.418	22.36
864.592	-34.99
864.766	-6.31
864.939	-8.36
865.113	8.02
865.287	79.7
865.461	55.12
865.634	26.45
865.808	91.99
865.982	-10.41
866.156	-61.61
866.329	18.26
866.503	-63.66
866.676	5.97
866.85	-37.03
867.024	24.4
867.197	98.13
867.371	24.4
867.544	36.69
867.718	38.74
867.891	-22.7
868.065	-2.22
868.238	-53.42
868.412	38.74
868.585	-37.03
868.759	18.26
868.932	-26.79
869.105	18.26
869.279	14.17
869.452	32.6
869.625	30.55
869.799	38.74
869.972	-39.08
870.145	5.97
870.319	-16.55
870.492	1.88
870.665	-6.31
870.838	34.64
871.011	-59.56
871.185	18.26
871.358	-14.51
871.531	28.5
871.704	-34.99
871.877	51.03
872.05	67.41
872.223	-39.08
872.396	57.17
872.569	67.41
872.742	-65.71
872.915	46.93
873.088	-8.36
873.261	-59.56
873.434	-0.17
873.607	-28.84
873.78	67.41
873.953	10.07
874.126	18.26
874.299	22.36
874.471	-43.18
874.644	-63.66
874.817	-8.36
874.99	5.97
875.163	-8.36
875.335	-10.41
875.508	-0.17
875.681	22.36
875.853	32.6
876.026	30.55
876.199	12.12
876.371	51.03
876.544	-75.95
876.717	22.36
876.889	14.17
877.062	38.74
877.234	-55.47
877.407	-2.22
877.579	8.02
877.752	-34.99
877.924	-41.13
878.097	14.17
878.269	-2.22
878.442	5.97
878.614	18.26
878.786	79.7
878.959	-8.36
879.131	-2.22
879.303	-18.6
879.476	-55.47
879.648	69.46
879.82	-18.6
879.993	-53.42
880.165	34.64
880.337	-32.94
880.509	79.7
880.681	38.74
880.854	1.88
881.026	-10.41
881.198	104.28
881.37	-34.99
881.542	16.21
881.714	16.21
881.886	40.79
882.058	5.97
882.23	-10.41
882.402	63.32
882.574	-75.95
882.746	75.6
882.918	-0.17
883.09	87.89
883.262	-10.41
883.434	-34.99
883.606	-2.22
883.778	8.02
883.95	10.07
884.122	-34.99
884.293	59.22
884.465	30.55
884.637	34.64
884.809	-55.47
884.98	63.32
885.152	-51.37
885.324	98.13
885.496	57.17
885.667	46.93
885.839	-34.99
886.011	67.41
886.182	-14.51
886.354	104.28
886.525	30.55
886.697	3.93
886.869	22.36
887.04	-51.37
887.212	53.08
887.383	81.75
887.555	5.97
887.726	-10.41
887.897	-59.56
888.069	-8.36
888.24	-16.55
888.412	-22.7
888.583	14.17
888.754	-20.65
888.926	-12.46
889.097	46.93
889.268	-8.36
889.44	-8.36
889.611	-57.51
889.782	-24.75
889.953	-82.09
890.125	55.12
890.296	-26.79
890.467	22.36
890.638	-16.55
890.809	28.5
890.98	34.64
891.151	-0.17
891.323	-10.41
891.494	75.6
891.665	30.55
891.836	-8.36
892.007	14.17
892.178	26.45
892.349	71.51
892.52	81.75
892.691	-2.22
892.862	14.17
893.032	-14.51
893.203	65.36
893.374	-106.67
893.545	104.28
893.716	-75.95
893.887	24.4
894.057	-24.75
894.228	-16.55
894.399	-63.66
894.57	-10.41
894.74	-6.31
894.911	114.52
895.082	12.12
895.253	59.22
895.423	5.97
895.594	-8.36
895.764	63.32
895.935	-10.41
896.106	-43.18
896.276	40.79
896.447	22.36
896.617	-43.18
896.788	-75.95
896.958	-37.03
897.129	-39.08
897.299	-2.22
897.47	-51.37
897.64	87.89
897.81	-24.75
897.981	-26.79
898.151	1.88
898.322	-22.7
898.492	14.17
898.662	-49.32
898.832	36.69
899.003	36.69
899.173	30.55
899.343	22.36
899.513	-80.04
