Data from USB4F104151__213__14-33-32-246.txt Node

Date: Thu Mar 13 14:33:32 EDT 2025
User: louis
Spectrometer: USB4F10415
Trigger mode: 4
Integration Time (sec): 2.500000E-2
Scans to average: 1
Electric dark correction enabled: true
Nonlinearity correction enabled: false
Boxcar width: 0
XAxis mode: Wavelengths
Number of Pixels in Spectrum: 3648
>>>>>Begin Spectral Data<<<<<
178.204	-179.54
178.424	-179.54
178.644	-179.54
178.864	-200.02
179.084	-105.81
179.304	-13.65
179.524	8.87
179.744	-42.32
179.964	58.03
180.184	-36.18
180.404	74.41
180.624	33.45
180.844	-23.89
181.064	-27.99
181.283	-19.8
181.503	-5.46
181.723	-5.46
181.943	8.87
182.163	144.04
182.383	-3.41
182.602	103.08
182.822	74.41
183.042	17.07
183.262	-71
183.482	-9.56
183.701	21.16
183.921	-7.51
184.141	-7.51
184.361	117.42
184.58	12.97
184.8	66.22
185.02	-40.28
185.239	17.07
185.459	-17.75
185.679	-32.08
185.898	4.78
186.118	111.27
186.338	27.31
186.557	-7.51
186.777	25.26
186.997	17.07
187.216	-15.7
187.436	70.31
187.655	39.59
187.875	66.22
188.095	8.87
188.314	92.84
188.534	66.22
188.753	41.64
188.973	-7.51
189.192	74.41
189.412	86.7
189.631	8.87
189.851	41.64
190.07	33.45
190.29	12.97
190.509	41.64
190.729	66.22
190.948	58.03
191.168	189.1
191.387	101.03
191.607	-1.37
191.826	51.88
192.045	43.69
192.265	76.46
192.484	68.27
192.704	17.07
192.923	-7.51
193.142	123.56
193.362	25.26
193.581	70.31
193.8	82.6
194.02	-11.61
194.239	10.92
194.458	66.22
194.678	45.74
194.897	-21.84
195.116	-23.89
195.335	74.41
195.555	131.75
195.774	2.73
195.993	84.65
196.212	25.26
196.432	8.87
196.651	-7.51
196.87	107.18
197.089	90.79
197.308	72.36
197.528	27.31
197.747	6.83
197.966	68.27
198.185	152.23
198.404	-32.08
198.623	98.99
198.842	45.74
199.062	74.41
199.281	98.99
199.5	-7.51
199.719	78.51
199.938	49.83
200.157	27.31
200.376	33.45
200.595	86.7
200.814	117.42
201.033	8.87
201.252	74.41
201.471	2.73
201.69	17.07
201.909	25.26
202.128	23.21
202.347	107.18
202.566	51.88
202.785	-44.37
203.004	-27.99
203.223	141.99
203.442	35.5
203.661	12.97
203.879	8.87
204.098	62.12
204.317	41.64
204.536	82.6
204.755	29.35
204.974	58.03
205.193	121.51
205.411	144.04
205.63	41.64
205.849	107.18
206.068	6.83
206.287	10.92
206.505	92.84
206.724	15.02
206.943	94.89
207.162	58.03
207.381	60.07
207.599	51.88
207.818	6.83
208.037	12.97
208.255	51.88
208.474	27.31
208.693	74.41
208.911	82.6
209.13	25.26
209.349	101.03
209.567	21.16
209.786	105.13
210.005	41.64
210.223	47.79
210.442	-19.8
210.661	86.7
210.879	60.07
211.098	43.69
211.316	0.68
211.535	119.46
211.753	45.74
211.972	8.87
212.191	33.45
212.409	15.02
212.628	68.27
212.846	-32.08
213.065	53.93
213.283	90.79
213.502	0.68
213.72	72.36
213.938	45.74
214.157	66.22
214.375	-1.37
214.594	23.21
214.812	49.83
215.031	49.83
215.249	33.45
215.467	111.27
215.686	53.93
215.904	103.08
216.122	41.64
216.341	98.99
216.559	25.26
216.778	98.99
216.996	111.27
217.214	33.45
217.432	-7.51
217.651	-32.08
217.869	17.07
218.087	45.74
218.306	58.03
218.524	66.22
218.742	-27.99
218.96	84.65
219.179	25.26
219.397	55.98
219.615	47.79
219.833	37.55
220.051	-13.65
220.27	43.69
220.488	21.16
220.706	60.07
220.924	33.45
221.142	31.4
221.36	92.84
221.578	90.79
221.796	33.45
222.015	23.21
222.233	-3.41
222.451	109.23
222.669	-7.51
222.887	41.64
223.105	17.07
223.323	29.35
223.541	10.92
223.759	39.59
223.977	68.27
224.195	41.64
224.413	94.89
224.631	51.88
224.849	-34.13
225.067	92.84
225.285	-13.65
225.503	49.83
225.721	-77.14
225.939	53.93
226.157	31.4
226.375	94.89
226.592	0.68
226.81	21.16
227.028	35.5
227.246	78.51
227.464	141.99
227.682	43.69
227.9	35.5
228.117	47.79
228.335	17.07
228.553	66.22
228.771	82.6
228.989	29.35
229.206	115.37
229.424	127.66
229.642	-27.99
229.86	19.11
230.077	123.56
230.295	8.87
230.513	90.79
230.731	8.87
230.948	6.83
231.166	80.55
231.384	17.07
231.601	29.35
231.819	53.93
232.037	-11.61
232.254	12.97
232.472	60.07
232.689	15.02
232.907	84.65
233.125	94.89
233.342	17.07
233.56	0.68
233.777	74.41
233.995	-1.37
234.213	33.45
234.43	86.7
234.648	43.69
234.865	17.07
235.083	33.45
235.3	90.79
235.518	-11.61
235.735	8.87
235.953	66.22
236.17	4.78
236.388	-40.28
236.605	17.07
236.822	129.7
237.04	119.46
237.257	2.73
237.475	62.12
237.692	43.69
237.909	107.18
238.127	33.45
238.344	49.83
238.562	41.64
238.779	-5.46
238.996	8.87
239.214	35.5
239.431	27.31
239.648	-5.46
239.865	33.45
240.083	129.7
240.3	58.03
240.517	12.97
240.735	43.69
240.952	58.03
241.169	37.55
241.386	78.51
241.603	66.22
241.821	76.46
242.038	98.99
242.255	86.7
242.472	25.26
242.689	12.97
242.907	51.88
243.124	62.12
243.341	60.07
243.558	41.64
243.775	2.73
243.992	-36.18
244.209	66.22
244.426	43.69
244.643	41.64
244.86	27.31
245.078	107.18
245.295	51.88
245.512	53.93
245.729	15.02
245.946	45.74
246.163	43.69
246.38	58.03
246.597	55.98
246.814	-15.7
247.031	78.51
247.248	-3.41
247.464	41.64
247.681	27.31
247.898	-7.51
248.115	-9.56
248.332	-46.42
248.549	8.87
248.766	60.07
248.983	72.36
249.2	88.75
249.417	51.88
249.633	12.97
249.85	113.32
250.067	49.83
250.284	84.65
250.501	33.45
250.717	68.27
250.934	-21.84
251.151	-73.04
251.368	17.07
251.585	82.6
251.801	17.07
252.018	58.03
252.235	12.97
252.451	45.74
252.668	-23.89
252.885	4.78
253.102	35.5
253.318	66.22
253.535	15.02
253.752	0.68
253.968	60.07
254.185	-34.13
254.401	84.65
254.618	-30.04
254.835	-23.89
255.051	66.22
255.268	90.79
255.484	27.31
255.701	49.83
255.917	2.73
256.134	-34.13
256.351	10.92
256.567	66.22
256.784	162.47
257	-71
257.217	53.93
257.433	17.07
257.65	131.75
257.866	47.79
258.082	2.73
258.299	33.45
258.515	66.22
258.732	-21.84
258.948	35.5
259.165	45.74
259.381	29.35
259.597	74.41
259.814	76.46
260.03	0.68
260.246	35.5
260.463	107.18
260.679	17.07
260.895	-21.84
261.112	-1.37
261.328	72.36
261.544	49.83
261.761	53.93
261.977	4.78
262.193	-64.85
262.409	72.36
262.626	43.69
262.842	35.5
263.058	-11.61
263.274	15.02
263.49	47.79
263.707	-23.89
263.923	47.79
264.139	58.03
264.355	0.68
264.571	86.7
264.787	21.16
265.004	123.56
265.22	103.08
265.436	51.88
265.652	45.74
265.868	76.46
266.084	-25.94
266.3	19.11
266.516	-7.51
266.732	35.5
266.948	37.55
267.164	82.6
267.38	90.79
267.596	66.22
267.812	133.8
268.028	37.55
268.244	27.31
268.46	10.92
268.676	0.68
268.892	49.83
269.108	84.65
269.324	19.11
269.54	25.26
269.756	25.26
269.972	-5.46
270.188	66.22
270.403	51.88
270.619	60.07
270.835	-5.46
271.051	35.5
271.267	-15.7
271.483	23.21
271.698	43.69
271.914	33.45
272.13	49.83
272.346	-11.61
272.562	98.99
272.777	66.22
272.993	41.64
273.209	35.5
273.425	37.55
273.64	49.83
273.856	135.85
274.072	35.5
274.287	70.31
274.503	74.41
274.719	41.64
274.934	-7.51
275.15	-44.37
275.366	25.26
275.581	37.55
275.797	43.69
276.012	51.88
276.228	-40.28
276.444	70.31
276.659	0.68
276.875	37.55
277.09	10.92
277.306	-46.42
277.521	66.22
277.737	43.69
277.952	74.41
278.168	98.99
278.383	21.16
278.599	27.31
278.814	68.27
279.03	41.64
279.245	31.4
279.461	19.11
279.676	66.22
279.892	74.41
280.107	49.83
280.322	33.45
280.538	84.65
280.753	-54.61
280.969	84.65
281.184	25.26
281.399	68.27
281.615	35.5
281.83	62.12
282.045	41.64
282.26	78.51
282.476	2.73
282.691	90.79
282.906	-11.61
283.122	10.92
283.337	-15.7
283.552	82.6
283.767	-7.51
283.983	74.41
284.198	72.36
284.413	35.5
284.628	-9.56
284.843	107.18
285.058	98.99
285.274	-25.94
285.489	-23.89
285.704	78.51
285.919	47.79
286.134	-30.04
286.349	53.93
286.564	49.83
286.779	37.55
286.995	25.26
287.21	-7.51
287.425	78.51
287.64	82.6
287.855	45.74
288.07	-40.28
288.285	84.65
288.5	98.99
288.715	96.94
288.93	66.22
289.145	-7.51
289.36	148.14
289.575	60.07
289.79	68.27
290.004	37.55
290.219	66.22
290.434	62.12
290.649	41.64
290.864	41.64
291.079	78.51
291.294	43.69
291.509	92.84
291.724	37.55
291.938	-3.41
292.153	60.07
292.368	-73.04
292.583	98.99
292.798	51.88
293.012	49.83
293.227	37.55
293.442	78.51
293.657	107.18
293.871	125.61
294.086	17.07
294.301	49.83
294.516	37.55
294.73	88.75
294.945	6.83
295.16	127.66
295.374	29.35
295.589	98.99
295.804	-71
296.018	119.46
296.233	76.46
296.447	21.16
296.662	51.88
296.877	53.93
297.091	23.21
297.306	47.79
297.52	66.22
297.735	86.7
297.949	82.6
298.164	164.52
298.378	2.73
298.593	10.92
298.807	41.64
299.022	12.97
299.236	17.07
299.451	25.26
299.665	-48.47
299.88	17.07
300.094	103.08
300.309	88.75
300.523	82.6
300.737	58.03
300.952	27.31
301.166	58.03
301.381	23.21
301.595	68.27
301.809	-5.46
302.024	37.55
302.238	4.78
302.452	92.84
302.667	62.12
302.881	117.42
303.095	27.31
303.309	105.13
303.524	6.83
303.738	17.07
303.952	-30.04
304.166	103.08
304.381	-19.8
304.595	117.42
304.809	8.87
305.023	-7.51
305.237	55.98
305.452	29.35
305.666	45.74
305.88	84.65
306.094	49.83
306.308	107.18
306.522	58.03
306.736	66.22
306.95	66.22
307.164	25.26
307.379	25.26
307.593	123.56
307.807	10.92
308.021	101.03
308.235	27.31
308.449	8.87
308.663	17.07
308.877	101.03
309.091	41.64
309.305	62.12
309.519	-23.89
309.733	84.65
309.947	27.31
310.161	51.88
310.374	39.59
310.588	53.93
310.802	41.64
311.016	-1.37
311.23	49.83
311.444	10.92
311.658	62.12
311.872	78.51
312.085	86.7
312.299	154.28
312.513	62.12
312.727	90.79
312.941	39.59
313.154	62.12
313.368	41.64
313.582	98.99
313.796	58.03
314.009	49.83
314.223	62.12
314.437	60.07
314.651	82.6
314.864	74.41
315.078	84.65
315.292	25.26
315.505	74.41
315.719	4.78
315.933	23.21
316.146	105.13
316.36	35.5
316.573	98.99
316.787	8.87
317.001	-9.56
317.214	49.83
317.428	-23.89
317.641	12.97
317.855	103.08
318.068	-46.42
318.282	49.83
318.495	53.93
318.709	74.41
318.922	74.41
319.136	119.46
319.349	92.84
319.563	27.31
319.776	66.22
319.99	58.03
320.203	72.36
320.417	41.64
320.63	29.35
320.843	101.03
321.057	62.12
321.27	62.12
321.483	74.41
321.697	98.99
321.91	90.79
322.124	2.73
322.337	45.74
322.55	-7.51
322.763	55.98
322.977	-21.84
323.19	82.6
323.403	82.6
323.617	43.69
323.83	74.41
324.043	12.97
324.256	27.31
324.469	41.64
324.683	90.79
324.896	60.07
325.109	23.21
325.322	12.97
325.535	4.78
325.748	82.6
325.962	55.98
326.175	70.31
326.388	41.64
326.601	62.12
326.814	49.83
327.027	90.79
327.24	107.18
327.453	2.73
327.666	47.79
327.879	96.94
328.092	45.74
328.305	74.41
328.518	58.03
328.731	82.6
328.944	111.27
329.157	29.35
329.37	62.12
329.583	101.03
329.796	107.18
330.009	8.87
330.222	51.88
330.435	60.07
330.648	33.45
330.861	127.66
331.073	-48.47
331.286	98.99
331.499	90.79
331.712	-23.89
331.925	33.45
332.138	-36.18
332.35	23.21
332.563	51.88
332.776	86.7
332.989	-15.7
333.202	-30.04
333.414	82.6
333.627	12.97
333.84	35.5
334.053	49.83
334.265	17.07
334.478	37.55
334.691	25.26
334.903	35.5
335.116	43.69
335.329	51.88
335.541	41.64
335.754	47.79
335.966	60.07
336.179	49.83
336.392	33.45
336.604	66.22
336.817	107.18
337.029	62.12
337.242	29.35
337.454	78.51
337.667	78.51
337.88	131.75
338.092	58.03
338.305	72.36
338.517	123.56
338.729	-5.46
338.942	55.98
339.154	25.26
339.367	33.45
339.579	82.6
339.792	84.65
340.004	62.12
340.217	21.16
340.429	31.4
340.641	12.97
340.854	43.69
341.066	31.4
341.278	82.6
341.491	129.7
341.703	111.27
341.915	29.35
342.128	43.69
342.34	68.27
342.552	4.78
342.764	17.07
342.977	25.26
343.189	125.61
343.401	66.22
343.613	21.16
343.826	82.6
344.038	-11.61
344.25	-5.46
344.462	-11.61
344.674	12.97
344.886	53.93
345.099	29.35
345.311	39.59
345.523	-44.37
345.735	101.03
345.947	-1.37
346.159	2.73
346.371	-3.41
346.583	31.4
346.795	152.23
347.007	131.75
347.219	68.27
347.431	60.07
347.643	92.84
347.855	12.97
348.067	94.89
348.279	-48.47
348.491	10.92
348.703	86.7
348.915	35.5
349.127	123.56
349.339	66.22
349.551	19.11
349.763	111.27
349.975	84.65
350.187	33.45
350.399	113.32
350.61	98.99
350.822	35.5
351.034	2.73
351.246	84.65
351.458	43.69
351.669	119.46
351.881	-13.65
352.093	10.92
352.305	58.03
352.517	51.88
352.728	115.37
352.94	90.79
353.152	-13.65
353.363	35.5
353.575	33.45
353.787	33.45
353.999	125.61
354.21	33.45
354.422	53.93
354.633	115.37
354.845	2.73
355.057	53.93
355.268	66.22
355.48	62.12
355.692	33.45
355.903	76.46
356.115	12.97
356.326	-56.66
356.538	58.03
356.749	144.04
356.961	84.65
357.172	29.35
357.384	127.66
357.595	168.62
357.807	27.31
358.018	98.99
358.23	25.26
358.441	92.84
358.653	68.27
358.864	68.27
359.075	78.51
359.287	98.99
359.498	94.89
359.709	-19.8
359.921	66.22
360.132	105.13
360.344	43.69
360.555	12.97
360.766	4.78
360.977	49.83
361.189	51.88
361.4	31.4
361.611	158.38
361.823	139.94
362.034	133.8
362.245	-36.18
362.456	23.21
362.667	98.99
362.879	90.79
363.09	27.31
363.301	86.7
363.512	49.83
363.723	39.59
363.935	6.83
364.146	98.99
364.357	82.6
364.568	98.99
364.779	66.22
364.99	74.41
365.201	66.22
365.412	82.6
365.623	49.83
365.834	45.74
366.045	70.31
366.256	92.84
366.467	148.14
366.678	35.5
366.889	35.5
367.1	41.64
367.311	86.7
367.522	12.97
367.733	78.51
367.944	123.56
368.155	78.51
368.366	0.68
368.577	164.52
368.788	92.84
368.999	17.07
369.209	111.27
369.42	111.27
369.631	117.42
369.842	182.95
370.053	29.35
370.264	127.66
370.474	41.64
370.685	27.31
370.896	66.22
371.107	123.56
371.317	98.99
371.528	43.69
371.739	6.83
371.95	51.88
372.16	131.75
372.371	10.92
372.582	62.12
372.792	27.31
373.003	76.46
373.214	66.22
373.424	94.89
373.635	37.55
373.846	92.84
374.056	68.27
374.267	49.83
374.477	12.97
374.688	37.55
374.898	74.41
375.109	66.22
375.319	92.84
375.53	205.48
375.74	101.03
375.951	66.22
376.161	37.55
376.372	15.02
376.582	45.74
376.793	49.83
377.003	141.99
377.214	4.78
377.424	94.89
377.635	94.89
377.845	8.87
378.055	101.03
378.266	41.64
378.476	135.85
378.686	123.56
378.897	64.17
379.107	47.79
379.317	90.79
379.528	33.45
379.738	109.23
379.948	45.74
380.158	135.85
380.369	49.83
380.579	37.55
380.789	150.18
380.999	68.27
381.21	103.08
381.42	238.25
381.63	-3.41
381.84	131.75
382.05	62.12
382.261	189.1
382.471	35.5
382.681	-3.41
382.891	141.99
383.101	41.64
383.311	35.5
383.521	0.68
383.731	62.12
383.941	127.66
384.151	0.68
384.361	125.61
384.571	45.74
384.781	72.36
384.991	98.99
385.201	139.94
385.411	144.04
385.621	107.18
385.831	141.99
386.041	90.79
386.251	49.83
386.461	90.79
386.671	15.02
386.881	37.55
387.091	53.93
387.301	74.41
387.511	101.03
387.72	82.6
387.93	117.42
388.14	6.83
388.35	70.31
388.56	74.41
388.769	60.07
388.979	101.03
389.189	37.55
389.399	74.41
389.609	164.52
389.818	123.56
390.028	78.51
390.238	66.22
390.447	2.73
390.657	58.03
390.867	74.41
391.076	66.22
391.286	66.22
391.496	53.93
391.705	117.42
391.915	70.31
392.125	119.46
392.334	49.83
392.544	107.18
392.753	154.28
392.963	17.07
393.172	141.99
393.382	90.79
393.591	176.81
393.801	60.07
394.01	131.75
394.22	86.7
394.429	107.18
394.639	43.69
394.848	148.14
395.058	119.46
395.267	90.79
395.477	119.46
395.686	84.65
395.895	80.55
396.105	215.72
396.314	84.65
396.524	139.94
396.733	101.03
396.942	135.85
397.152	113.32
397.361	150.18
397.57	78.51
397.78	191.14
397.989	70.31
398.198	213.67
398.407	131.75
398.617	156.33
398.826	45.74
399.035	107.18
399.244	152.23
399.453	156.33
399.663	133.8
399.872	90.79
400.081	144.04
400.29	148.14
400.499	148.14
400.708	160.42
400.917	113.32
401.127	113.32
401.336	219.82
401.545	164.52
401.754	176.81
401.963	180.9
402.172	223.91
402.381	129.7
402.59	135.85
402.799	107.18
403.008	205.48
403.217	156.33
403.426	201.38
403.635	58.03
403.844	240.3
404.053	197.29
404.262	107.18
404.471	213.67
404.68	185
404.888	215.72
405.097	117.42
405.306	156.33
405.515	211.62
405.724	197.29
405.933	189.1
406.142	207.53
406.35	291.49
406.559	262.82
406.768	197.29
406.977	283.3
407.185	234.15
407.394	238.25
407.603	234.15
407.812	367.27
408.02	320.17
408.229	295.59
408.438	273.06
408.646	352.93
408.855	338.6
409.064	414.37
409.272	344.74
409.481	443.04
409.69	377.51
409.898	402.08
410.107	475.81
410.315	402.08
410.524	354.98
410.733	484
410.941	443.04
411.15	459.43
411.358	422.56
411.567	574.11
411.775	459.43
411.984	639.65
412.192	633.51
412.401	557.73
412.609	647.84
412.818	731.81
413.026	680.61
413.234	682.66
413.443	623.27
413.651	672.42
413.86	795.29
414.068	836.25
414.276	838.3
414.485	819.87
414.693	785.05
414.901	887.45
415.11	897.69
415.318	928.41
415.526	971.42
415.734	991.9
415.943	1010.33
416.151	1065.63
416.359	1114.78
416.567	1082.01
416.776	1192.6
416.984	1280.66
417.192	1274.52
417.4	1362.58
417.608	1258.14
417.817	1286.81
418.025	1426.07
418.233	1426.07
418.441	1426.07
418.649	1495.7
418.857	1684.11
419.065	1772.18
419.273	1647.25
419.481	1739.41
419.689	1806.99
419.897	1884.81
420.105	1933.97
420.313	2042.51
420.521	2085.51
420.729	2114.19
420.937	2222.73
421.145	2237.06
421.353	2364.04
421.561	2433.67
421.769	2435.72
421.977	2642.56
422.185	2663.04
422.393	2812.54
422.601	2941.57
422.809	2806.4
423.017	3056.25
423.224	3175.03
423.432	3148.41
423.64	3164.79
423.848	3672.69
424.056	3375.74
424.263	3783.28
424.471	3615.35
424.679	3732.08
424.887	3934.83
425.094	4113
425.302	4100.72
425.51	4280.94
425.718	4418.15
425.925	4524.65
426.133	4563.56
426.341	4827.74
426.548	4973.15
426.756	5057.12
426.964	5075.55
427.171	5423.7
427.379	5753.43
427.586	5741.14
427.794	5755.47
428.001	6140.49
428.209	6238.8
428.417	6201.93
428.624	6615.62
428.832	6758.98
429.039	6533.7
429.247	6769.22
429.454	7262.78
429.662	7705.14
429.869	7238.2
430.076	7909.94
430.284	7512.63
430.491	7903.79
430.699	8366.63
430.906	8313.39
431.114	8477.23
431.321	8800.8
431.528	8874.53
431.736	9519.64
431.943	10013.2
432.15	9656.86
432.358	9804.31
432.565	10218
432.772	10037.78
432.979	10641.93
433.187	10938.88
433.394	10961.41
433.601	11782.65
433.808	11592.19
434.016	11450.88
434.223	12012.02
434.43	12823.01
434.637	12681.71
434.844	13222.37
435.052	13715.93
435.259	13541.85
435.466	13844.95
435.673	13421.02
435.88	14428.62
436.087	15083.97
436.294	14985.67
436.501	14680.52
436.708	15032.77
436.915	15698.36
437.122	16171.44
437.329	16425.39
437.537	16648.62
437.743	16945.58
437.95	16998.82
438.157	17924.51
438.364	18340.24
438.571	18459.02
438.778	18338.19
438.985	20205.94
439.192	19251.59
439.399	19816.83
439.606	19454.34
439.813	20402.55
440.02	21825.89
440.227	21045.61
440.433	21111.14
440.64	21961.05
440.847	21711.2
441.054	21999.96
441.261	23572.8
441.467	23271.75
441.674	23961.92
441.881	24580.4
442.088	24670.51
442.294	24271.16
442.501	24719.67
442.708	25545
442.914	26456.34
443.121	27175.18
443.328	27037.97
443.534	28637.43
443.741	27750.66
443.948	27281.67
444.154	29841.64
444.361	29128.94
444.568	29241.58
444.774	29479.14
444.981	29841.64
445.187	30648.53
445.394	31797.45
445.6	31301.84
445.807	34461.85
446.013	32852.15
446.22	33573.03
446.426	35111.06
446.633	35436.69
446.839	36536.45
447.046	34834.58
447.252	36491.39
447.459	36690.04
447.665	36644.99
447.871	38357.09
448.078	39802.96
448.284	37834.86
448.491	38975.58
448.697	40425.54
448.903	41451.57
449.11	41504.82
449.316	40591.42
449.522	41168.95
449.728	42739.74
449.935	42952.73
450.141	42676.26
450.347	43892.75
450.553	42391.59
450.76	42946.59
450.966	44177.42
451.172	43763.73
451.378	44517.38
451.584	44017.68
451.791	45117.43
451.997	45309.94
452.203	46010.35
452.409	45463.54
452.615	45574.13
452.821	43819.02
453.027	43511.83
453.233	45496.31
453.44	43808.78
453.646	44331.01
453.852	44382.21
454.058	45393.91
454.264	43501.59
454.47	44478.47
454.676	43792.4
454.882	45078.52
455.088	41553.97
455.294	41891.88
455.5	42493.99
455.705	42979.35
455.911	41140.28
456.117	40648.77
456.323	40269.89
456.529	38002.79
456.735	39938.12
456.941	38285.41
457.147	38443.1
457.352	36952.18
457.558	36491.39
457.764	36790.39
457.97	35913.86
458.176	34859.16
458.381	34756.76
458.587	33718.44
458.793	33329.33
458.999	31785.16
459.204	33749.16
459.41	33114.29
459.616	30531.8
459.821	30875.86
460.027	30947.54
460.233	29931.75
460.438	28432.63
460.644	28872.95
460.85	27928.83
461.055	27099.41
461.261	27220.24
461.466	25100.59
461.672	23990.59
461.878	25989.41
462.083	24146.23
462.289	24078.65
462.494	23503.17
462.7	22602.07
462.905	21965.15
463.111	22456.66
463.316	22616.4
463.522	22339.93
463.727	22026.59
463.932	21938.52
464.138	21481.83
464.343	21891.42
464.549	21377.38
464.754	21971.29
464.959	21633.38
465.165	21037.42
465.37	20324.72
465.575	19947.9
465.781	20916.59
465.986	20758.89
466.191	20191.61
466.397	19657.09
466.602	18975.11
466.807	19618.18
467.012	19442.05
467.218	19233.16
467.423	19237.25
467.628	19190.15
467.833	19827.07
468.038	19138.95
468.244	18684.3
468.449	19493.25
468.654	18803.08
468.859	18563.47
469.064	18407.83
469.269	17617.31
469.474	18012.57
469.679	18039.19
469.885	17674.65
470.09	17893.79
470.295	17797.53
470.5	17101.22
470.705	17549.73
470.91	17156.52
471.115	16703.92
471.32	17275.3
471.525	17011.11
471.73	16695.72
471.935	16703.92
472.139	15843.77
472.344	16183.73
472.549	15958.46
472.754	15851.96
472.959	15573.44
473.164	15303.11
473.369	15110.6
473.574	15591.87
473.778	15145.41
473.983	15200.71
474.188	15034.82
474.393	14565.84
474.598	14498.25
474.802	14494.16
475.007	14207.44
475.212	14451.15
475.417	13748.7
475.621	14025.17
475.826	13771.22
476.031	13795.8
476.235	13461.98
476.44	13525.47
476.645	13337.06
476.849	13439.45
477.054	13144.55
477.259	12882.41
477.463	12966.37
477.668	12632.55
477.872	12579.31
478.077	12530.16
478.282	12329.45
478.486	12210.67
478.691	12134.9
478.895	11923.96
479.1	11856.37
479.304	11962.87
479.509	11743.74
479.713	11887.09
479.918	11559.42
480.122	11330.05
480.326	11624.95
480.531	11500.03
480.735	11465.21
480.94	11256.32
481.144	11524.6
481.348	11039.23
481.553	11297.28
481.757	10969.6
481.961	11166.21
482.166	11256.32
482.37	11102.72
482.574	10928.64
482.778	11000.32
482.983	11123.2
483.187	11069.95
483.391	11190.78
483.595	11125.25
483.8	10863.11
484.004	10957.32
484.208	10867.2
484.412	10983.94
484.616	10863.11
484.821	11256.32
485.025	10846.73
485.229	10768.9
485.433	10936.84
485.637	11108.87
485.841	10830.34
486.045	11092.48
486.249	10881.54
486.453	10805.77
486.657	11172.35
486.861	11002.37
487.065	10754.57
487.269	10891.78
487.473	10856.96
487.677	10750.47
487.881	10951.17
488.085	10768.9
488.289	10879.49
488.493	10727.94
488.697	10996.23
488.901	10932.74
489.105	10838.53
489.309	10861.06
489.512	10899.97
489.716	10945.03
489.92	10732.04
490.124	10871.3
490.328	11133.44
490.531	10816.01
490.735	11010.56
490.939	11278.85
491.143	11045.38
491.346	11160.06
491.55	11186.69
491.754	11348.48
491.958	11108.87
492.161	11127.3
492.365	11223.55
492.569	11422.2
492.772	11323.9
492.976	11459.07
493.18	11354.62
493.383	11342.33
493.587	11528.7
493.79	11618.81
493.994	11717.11
494.197	11678.2
494.401	11796.98
494.605	11708.92
494.808	12022.26
495.012	11928.05
495.215	12005.88
495.419	12163.57
495.622	12120.56
495.825	12069.36
496.029	12239.34
496.232	12321.26
496.436	12337.65
496.639	12894.69
496.843	12804.58
497.046	12855.78
497.249	12976.61
497.453	13005.28
497.656	13115.87
497.859	13076.96
498.063	13210.08
498.266	13558.24
498.469	13392.35
498.673	13517.28
498.876	13885.91
499.079	13838.81
499.282	13887.96
499.485	14299.6
499.689	14283.22
499.892	14442.96
500.095	14442.96
500.298	14709.19
500.501	14701
500.705	15094.21
500.908	14870.98
501.111	15323.58
501.314	15659.45
501.517	15466.94
501.72	15696.32
501.923	15864.25
502.126	15862.2
502.329	16331.19
502.532	16341.43
502.735	16452.02
502.938	16728.49
503.141	17007.02
503.344	16929.19
503.547	17179.04
503.75	17318.31
503.953	17504.67
504.156	17678.75
504.359	17867.16
504.562	17893.79
504.765	18530.7
504.968	18504.08
505.17	18907.53
505.373	18876.81
505.576	18745.74
505.779	19163.53
505.982	19118.47
506.185	19763.58
506.387	19577.22
506.59	19722.62
506.793	20537.71
506.996	20273.53
507.198	20828.52
507.401	20619.63
507.604	20849
507.807	21236.07
508.009	21604.7
508.212	21340.52
508.415	21696.86
508.617	21961.05
508.82	22047.07
509.022	22106.46
509.225	22638.93
509.428	22593.87
509.63	22800.72
509.833	23064.91
510.035	23443.78
510.238	23314.76
510.44	23923.01
510.643	23984.44
510.845	24258.87
511.048	24037.69
511.25	24547.64
511.453	24736.05
511.655	25571.62
511.858	25112.88
512.06	25643.3
512.262	25772.32
512.465	25860.38
512.667	26059.04
512.87	26644.76
513.072	26480.92
513.274	27050.25
513.477	27246.86
513.679	27570.44
513.881	27674.88
514.084	27775.23
514.286	27967.74
514.488	27980.03
514.69	28874.99
514.893	28983.54
515.095	28954.86
515.297	29194.48
515.499	29454.57
515.701	29587.69
515.904	30472.41
516.106	30539.99
516.308	30863.57
516.51	30847.19
516.712	30681.3
516.914	31051.98
517.116	31846.6
517.318	31480.01
517.52	31684.81
517.722	32133.31
517.925	32514.23
518.127	32587.96
518.329	32852.15
518.531	32669.88
518.733	33495.21
518.935	33642.67
519.136	33542.31
519.338	34302.11
519.54	34379.93
519.742	34271.39
519.944	34496.67
520.146	34853.01
520.348	35098.77
520.55	34717.85
520.752	35123.35
520.954	35729.55
521.155	35414.16
521.357	36165.76
521.559	36581.5
521.761	36698.23
521.963	36620.41
522.164	36636.8
522.366	36731
522.568	37286
522.77	36937.85
522.971	37658.73
523.173	37664.88
523.375	38027.37
523.576	37877.86
523.778	37525.61
523.98	38029.41
524.181	38371.43
524.383	38520.93
524.584	39069.78
524.786	38568.03
524.988	38656.09
525.189	38787.16
525.391	39098.45
525.592	38867.03
525.794	39487.57
525.995	39405.65
526.197	39366.74
526.398	39276.63
526.6	39616.59
526.801	39614.54
527.003	39549.01
527.204	39708.75
527.406	40110.15
527.607	40118.34
527.808	39819.34
528.01	39596.11
528.211	39753.8
528.412	40722.49
528.614	40257.6
528.815	39966.79
529.016	40396.87
529.218	39950.41
529.419	39981.13
529.62	40384.58
529.822	40147.01
530.023	40056.9
530.224	40233.03
530.425	40026.18
530.626	40017.99
530.828	39956.55
531.029	40648.77
531.23	40159.3
531.431	40147.01
531.632	40181.83
531.833	39919.69
532.035	39905.35
532.236	39907.4
532.437	40026.18
532.638	39596.11
532.839	40142.92
533.04	39944.27
533.241	39587.92
533.442	40214.6
533.643	39899.21
533.844	39884.87
534.045	39647.31
534.246	39387.22
534.447	39471.18
534.648	39323.73
534.849	39557.2
535.05	39237.72
535.251	39491.66
535.451	38953.05
535.652	39473.23
535.853	39137.37
536.054	39516.24
536.255	39579.73
536.456	39221.33
536.657	39381.07
536.857	39002.2
537.058	38502.5
537.259	39372.88
537.46	39176.28
537.66	38692.96
537.861	38504.54
538.062	38750.3
538.263	38762.59
538.463	38979.67
538.664	38455.39
538.865	38760.54
539.065	38512.74
539.266	38279.27
539.466	38895.71
539.667	38129.76
539.868	38733.92
540.068	38649.95
540.269	38262.88
540.469	38631.52
540.67	38123.62
540.87	38166.63
541.071	38496.35
541.271	38402.14
541.472	38342.75
541.672	38223.97
541.873	38269.03
542.073	37560.43
542.274	38127.72
542.474	38201.44
542.675	37951.59
542.875	38240.36
543.075	38045.8
543.276	37488.75
543.476	38281.31
543.676	38226.02
543.877	37992.55
544.077	37912.68
544.277	37675.12
544.478	37820.52
544.678	38148.2
544.878	37918.82
545.078	37951.59
545.279	37679.21
545.479	37394.54
545.679	37757.03
545.879	37724.27
546.079	38047.85
546.28	37709.93
546.48	37570.67
546.68	37802.09
546.88	37802.09
547.08	38246.5
547.28	37816.43
547.48	37267.57
547.68	38037.61
547.88	37554.29
548.081	37722.22
548.281	37595.25
548.481	37204.08
548.681	38097
548.881	37898.34
549.081	37658.73
549.28	37441.65
549.48	37957.74
549.68	37662.83
549.88	38088.81
550.08	37437.55
550.28	37828.71
550.48	37716.08
550.68	38045.8
550.88	37695.6
551.08	37742.7
551.279	38125.67
551.479	37591.15
551.679	37734.51
551.879	37945.45
552.079	38219.88
552.278	37904.49
552.478	37662.83
552.678	38035.56
552.878	38125.67
553.077	38000.74
553.277	37785.71
553.477	38076.52
553.676	37912.68
553.876	38039.65
554.076	37576.81
554.275	37974.12
554.475	37513.33
554.674	37963.88
554.874	38006.89
555.074	37931.11
555.273	38193.25
555.473	38029.41
555.672	37767.27
555.872	38113.38
556.071	38471.78
556.271	38187.11
556.47	38230.12
556.67	37892.2
556.869	38058.09
557.068	38324.32
557.268	38068.33
557.467	38156.39
557.667	38076.52
557.866	38015.08
558.065	37787.75
558.265	37996.65
558.464	37941.35
558.663	38178.92
558.863	37996.65
559.062	38221.92
559.261	37861.48
559.461	38445.15
559.66	37613.68
559.859	38441.06
560.058	37931.11
560.258	38137.96
560.457	38000.74
560.656	38285.41
560.855	37738.6
561.054	38332.51
561.253	37896.3
561.453	37890.15
561.652	38262.88
561.851	38234.21
562.05	37687.4
562.249	37693.55
562.448	37943.4
562.647	38045.8
562.846	38183.01
563.045	37886.06
563.244	37576.81
563.443	38326.37
563.642	37580.91
563.841	37589.1
564.04	37615.72
564.239	38180.96
564.438	37783.66
564.637	37974.12
564.836	37892.2
565.035	37300.34
565.234	37920.87
565.432	37199.99
565.631	37441.65
565.83	37623.92
566.029	37697.64
566.228	37191.8
566.427	37036.15
566.625	37122.16
566.824	36831.35
567.023	37427.31
567.222	36669.56
567.42	36855.93
567.619	36857.98
567.818	36606.08
568.016	36649.08
568.215	36663.42
568.414	36661.37
568.612	37173.36
568.811	36647.04
569.01	36644.99
569.208	36053.12
569.407	36538.49
569.605	35954.82
569.804	36487.29
570.002	35776.65
570.201	36214.91
570.4	35831.94
570.598	35987.59
570.797	35606.67
570.995	35643.53
571.193	35416.21
571.392	35944.58
571.59	35238.03
571.789	35592.33
571.987	35035.28
572.186	35272.85
572.384	35192.98
572.582	35494.03
572.781	35158.16
572.979	34820.25
573.177	35074.2
573.376	35139.73
573.574	34439.33
573.772	34885.78
573.971	34439.33
574.169	34037.92
574.367	34107.55
574.565	34459.8
574.763	33953.96
574.962	34197.66
575.16	33333.42
575.358	34076.83
575.556	33462.44
575.754	33786.02
575.952	33216.69
576.151	33755.3
576.349	33151.15
576.547	33222.83
576.745	33515.69
576.943	32897.2
577.141	33077.43
577.339	33136.82
577.537	32788.66
577.735	33036.47
577.933	32884.92
578.131	32721.08
578.329	32368.83
578.527	32002.24
578.725	32272.57
578.923	32159.94
579.121	31797.45
579.319	32241.85
579.516	32258.24
579.714	31873.22
579.912	31955.14
580.11	31611.08
580.308	32006.34
580.506	32082.11
580.704	31211.73
580.901	31017.17
581.099	31766.73
581.297	30884.05
581.495	30890.2
581.692	31074.51
581.89	30818.52
582.088	31275.21
582.285	30855.38
582.483	31166.67
582.681	30779.6
582.878	30599.38
583.076	30511.32
583.274	30566.62
583.471	30322.91
583.669	30118.11
583.866	30083.3
584.064	30675.16
584.262	29610.21
584.459	30134.49
584.657	29835.49
584.854	29937.89
585.052	29524.2
585.249	29903.07
585.447	29704.42
585.644	29417.71
585.841	29804.77
586.039	29550.82
586.236	29548.78
586.434	29317.36
586.631	29270.25
586.828	29352.17
587.026	29454.57
587.223	28836.08
587.42	29182.19
587.618	29036.78
587.815	28676.34
588.012	28836.08
588.21	28737.78
588.407	28801.27
588.604	28371.19
588.801	28385.53
588.999	28512.5
589.196	28492.02
589.393	28254.46
589.59	28528.89
589.787	28512.5
589.984	28471.54
590.182	27918.59
590.379	28227.84
590.576	27693.32
590.773	27902.21
590.97	27814.15
591.167	27771.14
591.364	27838.72
591.561	27734.28
591.758	27459.85
591.955	27445.51
592.152	28000.51
592.349	27404.55
592.546	27560.2
592.743	27724.04
592.94	27357.45
593.137	27343.11
593.334	27357.45
593.531	27205.9
593.727	27103.5
593.924	27093.26
594.121	27107.6
594.318	27324.68
594.515	27076.88
594.712	27279.63
594.908	27099.41
595.105	26880.27
595.302	26964.24
595.499	27105.55
595.696	27138.32
595.892	26640.66
596.089	26943.76
596.286	27040.01
596.482	26538.26
596.679	26730.77
596.876	26710.29
597.072	26671.38
597.269	26808.59
597.466	26601.75
597.662	26403.1
597.859	26517.78
598.055	26525.97
598.252	26648.85
598.448	26521.88
598.645	26466.58
598.841	26431.77
599.038	26431.77
599.234	26294.55
599.431	26173.72
599.627	26239.26
599.824	26546.45
600.02	26247.45
600.217	26233.11
600.413	26278.17
600.609	26302.75
600.806	26249.5
601.002	26560.79
601.198	26054.94
601.395	26237.21
601.591	26149.15
601.787	26611.99
601.984	26071.32
602.18	26706.2
602.376	26349.85
602.572	26368.28
602.769	26233.11
602.965	26384.66
603.161	26423.58
603.357	26509.59
603.553	26427.67
603.75	26599.7
603.946	26288.41
604.142	26601.75
604.338	26056.99
604.534	26224.92
604.73	26151.2
604.926	26388.76
605.122	26376.47
605.318	26347.8
605.514	26609.94
605.71	26118.43
605.906	26259.74
606.102	26298.65
606.298	26439.96
606.494	26290.46
606.69	26695.96
606.886	26741.01
607.082	26087.71
607.278	26571.03
607.474	26050.85
607.67	26784.02
607.866	26329.37
608.062	26896.66
608.257	26767.63
608.453	26337.56
608.649	26841.36
608.845	26704.15
609.041	26757.39
609.236	26855.7
609.432	26759.44
609.628	27031.82
609.824	26712.34
610.019	26706.2
610.215	27070.73
610.411	27351.31
610.606	26849.55
610.802	27078.93
610.998	26982.67
611.193	27189.52
611.389	26771.73
611.584	27035.92
611.78	26947.86
611.976	26947.86
612.171	27027.73
612.367	26933.52
612.562	26636.56
612.758	26769.68
612.953	26824.98
613.149	27500.81
613.344	26779.92
613.539	27246.86
613.735	26954
613.93	26992.91
614.126	26784.02
614.321	27117.84
614.517	27240.71
614.712	26872.08
614.907	26857.74
615.103	27478.28
615.298	26810.64
615.493	27136.27
615.688	27123.98
615.884	27379.98
616.079	26704.15
616.274	27130.12
616.47	27074.83
616.665	27171.08
616.86	27046.16
617.055	27097.36
617.25	26927.38
617.445	26886.42
617.641	26581.27
617.836	27080.97
618.031	26521.88
618.226	27025.68
618.421	26491.16
618.616	26923.28
618.811	26505.49
619.006	26728.72
619.201	26315.03
619.396	26525.97
619.591	25864.48
619.786	26462.49
619.981	26200.35
620.176	26517.78
620.371	26071.32
620.566	26093.85
620.761	25891.1
620.956	26253.59
621.151	25637.16
621.346	26067.23
621.541	25567.52
621.735	25919.78
621.93	25217.32
622.125	25135.4
622.32	24912.17
622.515	25426.21
622.709	24842.54
622.904	25100.59
623.099	24879.41
623.294	25039.15
623.488	24441.14
623.683	24826.16
623.878	24488.24
624.072	24209.72
624.267	24502.58
624.462	24340.79
624.656	24142.14
624.851	24279.35
625.046	23607.62
625.24	23822.66
625.435	23458.12
625.629	23441.73
625.824	23585.09
626.018	23523.65
626.213	23142.73
626.407	22985.04
626.602	22856.01
626.796	22974.8
626.991	22788.43
627.185	22716.75
627.38	22514
627.574	22356.31
627.768	22167.9
627.963	22063.45
628.157	22028.63
628.352	22131.03
628.546	21739.87
628.74	21999.96
628.935	21619.04
629.129	21619.04
629.323	21481.83
629.517	21447.01
629.712	21301.61
629.906	21289.32
630.1	20904.3
630.294	21320.04
630.489	20789.61
630.683	21059.95
630.877	20615.54
631.071	20328.82
631.265	20834.67
631.459	20289.91
631.653	20390.26
631.848	20349.3
632.042	20380.02
632.236	20363.64
632.43	20212.09
632.624	20017.53
632.818	19753.34
633.012	19526.02
633.206	19591.55
633.4	19636.61
633.594	19263.88
633.788	19290.5
633.982	19243.4
634.176	19110.28
634.369	18772.36
634.563	19044.74
634.757	18592.14
634.951	18813.32
635.145	18842
635.339	18622.86
635.533	18557.33
635.726	18598.29
635.92	18131.35
636.114	18080.15
636.308	18080.15
636.501	18149.78
636.695	18112.92
636.889	17865.11
637.083	17932.7
637.276	17760.67
637.47	17385.89
637.664	17387.94
637.857	17422.75
638.051	17314.21
638.244	17301.92
638.438	16996.78
638.632	17136.04
638.825	16628.14
639.019	16761.26
639.212	16603.57
639.406	16482.74
639.599	16492.97
639.793	16304.56
639.986	16064.95
640.18	16177.59
640.373	16290.23
640.567	15917.5
640.76	15935.93
640.954	15821.24
641.147	15638.97
641.34	15483.33
641.534	15432.13
641.727	15395.26
641.92	15442.37
642.114	15329.73
642.307	15167.94
642.5	15139.27
642.694	15083.97
642.887	14995.91
643.08	15092.16
643.273	14645.71
643.467	14631.37
643.66	14442.96
643.853	14549.45
644.046	14361.04
644.239	14289.36
644.432	14375.38
644.626	14121.43
644.819	13953.49
645.012	13998.55
645.205	13720.03
645.398	13957.59
645.591	13672.92
645.784	13822.42
645.977	13504.99
646.17	13511.13
646.363	13173.22
646.556	13427.17
646.749	13199.84
646.942	13179.36
647.135	13058.53
647.328	13160.93
647.521	13066.72
647.714	12804.58
647.907	12868.07
648.099	12689.9
648.292	12702.18
648.485	12575.21
648.678	12462.57
648.871	12378.61
649.064	12333.55
649.256	12429.8
649.449	12319.21
649.642	12046.83
649.835	11946.48
650.027	12120.56
650.22	12042.74
650.413	11905.52
650.605	11686.39
650.798	11774.45
650.991	11477.5
651.183	11559.42
651.376	11522.55
651.568	11651.58
651.761	11332.09
651.954	11207.17
652.146	11254.27
652.339	11215.36
652.531	11145.73
652.724	11086.34
652.916	10693.13
653.109	10985.99
653.301	11018.75
653.494	11051.52
653.686	10764.81
653.879	10934.79
654.071	10678.79
654.263	10783.24
654.456	10410.51
654.648	10672.65
654.84	10244.62
655.033	10357.26
655.225	10283.53
655.417	10291.73
655.61	10289.68
655.802	10220.05
655.994	10187.28
656.186	10009.11
656.379	10029.59
656.571	10048.02
656.763	9826.84
656.955	9925.14
657.148	9898.52
657.34	9853.46
657.532	9617.94
657.724	9617.94
657.916	9642.52
658.108	9366.04
658.3	9533.98
658.492	9429.53
658.684	9284.12
658.876	9304.6
659.068	9155.1
659.26	9183.77
659.452	9138.72
659.644	9245.21
659.836	9093.66
660.028	8905.25
660.22	8876.58
660.412	8888.87
660.604	8759.84
660.796	8634.92
660.988	8849.96
661.18	8659.49
661.372	8608.3
661.563	8690.21
661.755	8553
661.947	8530.47
662.139	8350.25
662.331	8454.7
662.522	8432.17
662.714	8311.34
662.906	8217.13
663.097	8145.45
663.289	8266.28
663.481	8086.06
663.673	8155.69
663.864	7844.4
664.056	7961.14
664.247	7954.99
664.439	7946.8
664.631	7868.98
664.822	7920.18
665.014	7717.43
665.205	7602.74
665.397	7563.83
665.588	7778.87
665.78	7574.07
665.971	7574.07
666.163	7631.41
666.354	7479.86
666.546	7330.36
666.737	7438.91
666.929	7365.18
667.12	7369.27
667.311	7244.35
667.503	7172.67
667.694	7352.89
667.885	7148.09
668.077	6998.59
668.268	7025.22
668.459	7154.24
668.651	6965.82
668.842	6971.97
669.033	6924.87
669.224	6935.1
669.416	7139.9
669.607	6892.1
669.798	6670.92
669.989	6824.51
670.18	6840.9
670.371	6781.51
670.563	6781.51
670.754	6685.25
670.945	6783.56
671.136	6601.29
671.327	6359.63
671.518	6545.99
671.709	6636.1
671.9	6576.71
672.091	6349.39
672.282	6455.88
672.473	6316.62
672.664	6371.91
672.855	6306.38
673.046	6181.45
673.237	6259.28
673.428	6160.97
673.619	6349.39
673.809	6380.11
674	6208.08
674.191	6187.6
674.382	6136.4
674.573	6206.03
674.764	6173.26
674.954	6038.09
675.145	5866.07
675.336	5952.08
675.527	6148.68
675.717	5988.94
675.908	5835.35
676.099	6070.86
676.289	5892.69
676.48	5921.36
676.671	5827.15
676.861	5833.3
677.052	5694.04
677.243	5751.38
677.433	5804.63
677.624	5735
677.814	5853.78
678.005	5685.84
678.195	5710.42
678.386	5866.07
678.576	5679.7
678.767	5855.83
678.957	5700.18
679.148	5661.27
679.338	5653.08
679.529	5534.29
679.719	5503.57
679.909	5775.95
680.1	5505.62
680.29	5493.33
680.481	5489.24
680.671	5622.36
680.861	5431.9
681.052	5618.26
681.242	5458.52
681.432	5636.69
681.622	5413.46
681.813	5468.76
682.003	5468.76
682.193	5401.18
682.383	5442.14
682.573	5425.75
682.764	5333.59
682.954	5460.57
683.144	5407.32
683.334	5411.42
683.524	5253.72
683.714	5413.46
683.904	5296.73
684.094	5329.5
684.284	5438.04
684.474	5300.83
684.664	5327.45
684.854	5120.6
685.044	5309.02
685.234	5261.91
685.424	5192.28
685.614	5300.83
685.804	5177.95
685.994	5167.71
686.184	5169.76
686.374	5075.55
686.564	4981.34
686.753	5229.15
686.943	5118.56
687.133	5005.92
687.323	5030.49
687.513	4993.63
687.702	5134.94
687.892	5001.82
688.082	4983.39
688.272	4899.42
688.461	4991.58
688.651	5014.11
688.841	4842.08
689.03	4985.44
689.22	4981.34
689.41	4967.01
689.599	4874.85
689.789	4932.19
689.979	4768.35
690.168	4887.14
690.358	4788.83
690.547	4829.79
690.737	4788.83
690.926	4956.77
691.116	4719.2
691.305	4780.64
691.495	4784.74
691.684	4856.42
691.874	4958.82
692.063	4754.02
692.252	4751.97
692.442	4860.51
692.631	4670.05
692.82	4645.48
693.01	4584.04
693.199	4727.39
693.388	4674.15
693.578	4538.98
693.767	4596.32
693.956	4663.91
694.146	4590.18
694.335	4571.75
694.524	4416.1
694.713	4485.73
694.902	4481.64
695.092	4487.78
695.281	4555.37
695.47	4561.51
695.659	4391.53
695.848	4491.88
696.037	4465.25
696.226	4549.22
696.415	4350.57
696.604	4534.89
696.793	4502.12
696.982	4432.49
697.171	4620.9
697.36	4366.95
697.549	4424.3
697.738	4309.61
697.927	4442.73
698.116	4332.14
698.305	4459.11
698.494	4250.22
698.683	4362.86
698.872	4457.06
699.061	4325.99
699.25	4317.8
699.438	4307.56
699.627	4328.04
699.816	4194.92
700.005	4088.43
700.193	4325.99
700.382	4248.17
700.571	4235.88
700.76	4330.09
700.948	4317.8
701.137	4170.35
701.326	4153.96
701.514	4156.01
701.703	4237.93
701.892	4170.35
702.08	4055.66
702.269	4188.78
702.457	4139.63
702.646	4178.54
702.834	4131.44
703.023	4100.72
703.212	4129.39
703.4	4082.28
703.589	3996.27
703.777	4051.56
703.965	4012.65
704.154	3983.98
704.342	3949.17
704.531	3983.98
704.719	3926.64
704.907	4055.66
705.096	3908.21
705.284	3953.26
705.472	3893.87
705.661	4055.66
705.849	3965.55
706.037	3969.65
706.226	3891.82
706.414	3836.53
706.602	3809.9
706.79	4039.28
706.979	3818.1
707.167	3793.52
707.355	3877.49
707.543	3912.3
707.731	3764.85
707.919	3863.15
708.107	3713.65
708.296	3730.03
708.484	3637.88
708.672	3721.84
708.86	3785.33
709.048	3598.96
709.236	3793.52
709.424	3703.41
709.612	3773.04
709.8	3625.59
709.988	3641.97
710.176	3723.89
710.364	3621.49
710.551	3547.76
710.739	3615.35
710.927	3656.31
711.115	3613.3
711.303	3656.31
711.491	3551.86
711.679	3498.61
711.866	3625.59
712.054	3457.65
712.242	3519.09
712.43	3605.11
712.617	3572.34
712.805	3449.46
712.993	3326.58
713.181	3486.33
713.368	3469.94
713.556	3498.61
713.744	3418.74
713.931	3465.85
714.119	3506.81
714.306	3418.74
714.494	3478.13
714.682	3353.21
714.869	3345.02
715.057	3369.59
715.244	3345.02
715.432	3451.51
715.619	3330.68
715.807	3338.87
715.994	3377.78
716.182	3412.6
716.369	3256.95
716.556	3435.13
716.744	3236.47
716.931	3129.98
717.119	3172.99
717.306	3224.19
717.493	3195.51
717.681	3267.19
717.868	3222.14
718.055	3207.8
718.242	3140.22
718.43	3201.66
718.617	3187.32
718.804	3172.99
718.991	3121.79
719.179	3170.94
719.366	3058.3
719.553	3166.84
719.74	3140.22
719.927	3279.48
720.114	3154.55
720.301	2966.14
720.488	3000.96
720.676	3058.3
720.863	3220.09
721.05	3107.45
721.237	3175.03
721.424	2960
721.611	3089.02
721.798	3019.39
721.985	3031.68
722.172	2925.18
722.358	2974.33
722.545	2966.14
722.732	2982.53
722.919	3062.4
723.106	2900.61
723.293	3074.68
723.48	2785.92
723.667	2953.85
723.853	2820.74
724.04	3056.25
724.227	2945.66
724.414	2851.46
724.6	2818.69
724.787	2888.32
724.974	2880.13
725.161	2890.37
725.347	2753.15
725.534	2796.16
725.72	2949.76
725.907	2835.07
726.094	2837.12
726.28	2755.2
726.467	2900.61
726.653	2638.47
726.84	2810.5
727.027	2806.4
727.213	2749.06
727.4	2656.9
727.586	2689.67
727.773	2574.98
727.959	2687.62
728.145	2607.75
728.332	2658.95
728.518	2671.23
728.705	2738.82
728.891	2660.99
729.077	2638.47
729.264	2556.55
729.45	2712.19
729.636	2697.86
729.823	2601.6
730.009	2646.66
730.195	2583.17
730.382	2704
730.568	2464.39
730.754	2632.32
730.94	2572.93
731.126	2593.41
731.313	2556.55
731.499	2605.7
731.685	2515.59
731.871	2626.18
732.057	2642.56
732.243	2589.32
732.429	2640.51
732.615	2615.94
732.801	2595.46
732.987	2476.68
733.173	2558.6
733.359	2540.16
733.545	2509.44
733.731	2452.1
733.917	2484.87
734.103	2534.02
734.289	2405
734.475	2560.64
734.661	2550.4
734.847	2427.53
735.033	2425.48
735.219	2413.19
735.404	2491.01
735.59	2361.99
735.776	2519.68
735.962	2605.7
736.148	2470.53
736.333	2488.96
736.519	2392.71
736.705	2337.41
736.89	2462.34
737.076	2454.15
737.262	2314.89
737.447	2275.98
737.633	2257.54
737.819	2396.81
738.004	2251.4
738.19	2353.8
738.375	2294.41
738.561	2339.46
738.747	2396.81
738.932	2329.22
739.118	2409.09
739.303	2368.13
739.489	2296.46
739.674	2230.92
739.859	2294.41
740.045	2261.64
740.23	2267.78
740.416	2122.38
740.601	2216.58
740.786	2159.24
740.972	2159.24
741.157	2105.99
741.342	2138.76
741.528	2312.84
741.713	2157.19
741.898	2167.43
742.084	2122.38
742.269	2149
742.454	2165.39
742.639	2171.53
742.824	2134.67
743.01	2124.43
743.195	2130.57
743.38	2155.15
743.565	2087.56
743.75	2056.84
743.935	2114.19
744.12	2040.46
744.305	1985.16
744.49	2048.65
744.675	1966.73
744.86	1960.59
745.045	2083.47
745.23	1995.4
745.415	1925.77
745.6	2048.65
745.785	1993.36
745.97	1960.59
746.155	1956.49
746.34	1913.49
746.525	1837.71
746.71	1972.88
746.895	1895.05
747.079	1864.33
747.264	1829.52
747.449	1823.37
747.634	1897.1
747.819	1837.71
748.003	1778.32
748.188	1759.89
748.373	1876.62
748.557	1770.13
748.742	1813.13
748.927	1753.74
749.111	1704.59
749.296	1624.72
749.481	1753.74
749.665	1665.68
749.85	1567.38
750.034	1696.4
750.219	1690.26
750.404	1665.68
750.588	1745.55
750.773	1487.51
750.957	1663.63
751.141	1598.1
751.326	1657.49
751.51	1673.87
751.695	1438.36
751.879	1553.04
752.064	1706.64
752.248	1536.66
752.432	1561.23
752.617	1571.47
752.801	1497.75
752.985	1469.08
753.17	1510.04
753.354	1473.17
753.538	1573.52
753.722	1454.74
753.907	1421.97
754.091	1401.49
754.275	1368.73
754.459	1428.12
754.643	1452.69
754.828	1397.4
755.012	1393.3
755.196	1237.66
755.38	1358.49
755.564	1364.63
755.748	1278.62
755.932	1309.33
756.116	1321.62
756.3	1475.22
756.484	1344.15
756.668	1329.81
756.852	1362.58
757.036	1208.98
757.22	1307.29
757.404	1161.88
757.588	1278.62
757.772	1213.08
757.956	1305.24
758.14	1290.9
758.323	1196.7
758.507	1223.32
758.691	1229.46
758.875	1176.22
759.059	1272.47
759.242	1301.14
759.426	1176.22
759.61	1141.4
759.794	1176.22
759.977	1108.63
760.161	1313.43
760.345	1231.51
760.528	1071.77
760.712	1100.44
760.895	1116.83
761.079	1127.07
761.263	1057.43
761.446	1155.74
761.63	1157.79
761.813	1110.68
761.997	1118.87
762.18	1010.33
762.364	1180.31
762.547	1151.64
762.731	1041.05
762.914	971.42
763.098	1067.67
763.281	1077.91
763.464	1000.09
763.648	1036.95
763.831	1075.87
764.015	991.9
764.198	1069.72
764.381	1075.87
764.564	1082.01
764.748	1043.1
764.931	1073.82
765.114	975.52
765.297	1094.3
765.481	967.32
765.664	1020.57
765.847	955.04
766.03	936.6
766.213	1012.38
766.397	998.04
766.58	983.71
766.763	926.36
766.946	975.52
767.129	1028.76
767.312	950.94
767.495	920.22
767.678	881.31
767.861	1067.67
768.044	938.65
768.227	987.8
768.41	912.03
768.593	981.66
768.776	1008.28
768.959	848.54
769.142	936.6
769.324	967.32
769.507	942.75
769.69	952.99
769.873	836.25
770.056	991.9
770.239	836.25
770.421	993.95
770.604	983.71
770.787	879.26
770.97	926.36
771.152	836.25
771.335	819.87
771.518	748.19
771.7	854.69
771.883	952.99
772.066	844.45
772.248	877.21
772.431	869.02
772.613	926.36
772.796	787.1
772.978	811.68
773.161	901.79
773.343	780.96
773.526	815.77
773.708	737.95
773.891	762.53
774.073	809.63
774.256	778.91
774.438	826.01
774.621	762.53
774.803	770.72
774.985	709.28
775.168	836.25
775.35	764.58
775.532	789.15
775.715	803.49
775.897	696.99
776.079	701.09
776.261	701.09
776.444	668.32
776.626	674.46
776.808	701.09
776.99	674.46
777.173	744.1
777.355	737.95
777.537	699.04
777.719	721.57
777.901	733.86
778.083	674.46
778.265	701.09
778.447	643.74
778.629	678.56
778.811	684.7
778.993	668.32
779.175	729.76
779.357	574.11
779.539	637.6
779.721	631.46
779.903	664.22
780.085	672.42
780.267	623.27
780.449	696.99
780.631	617.12
780.812	606.88
780.994	537.25
781.176	656.03
781.358	590.5
781.54	615.07
781.721	590.5
781.903	631.46
782.085	559.78
782.267	610.98
782.448	527.01
782.63	529.06
782.812	541.35
782.993	475.81
783.175	582.31
783.357	543.39
783.538	459.43
783.72	514.72
783.901	502.44
784.083	584.35
784.264	529.06
784.446	455.33
784.627	447.14
784.809	492.2
784.99	557.73
785.172	547.49
785.353	516.77
785.535	545.44
785.716	469.67
785.897	492.2
786.079	455.33
786.26	434.85
786.441	459.43
786.623	303.78
786.804	434.85
786.985	426.66
787.167	504.48
787.348	486.05
787.529	496.29
787.71	504.48
787.891	512.67
788.073	352.93
788.254	420.52
788.435	422.56
788.616	410.28
788.797	383.65
788.978	426.66
789.159	428.71
789.34	420.52
789.522	486.05
789.703	469.67
789.884	426.66
790.065	402.08
790.246	500.39
790.427	459.43
790.607	400.04
790.788	430.76
790.969	336.55
791.15	330.41
791.331	297.64
791.512	418.47
791.693	281.25
791.874	287.4
792.054	414.37
792.235	406.18
792.416	344.74
792.597	340.65
792.778	371.37
792.958	367.27
793.139	268.97
793.32	322.21
793.5	348.84
793.681	420.52
793.862	336.55
794.042	295.59
794.223	330.41
794.404	371.37
794.584	316.07
794.765	307.88
794.945	320.17
795.126	338.6
795.306	363.17
795.487	254.63
795.667	295.59
795.848	352.93
796.028	334.5
796.209	311.97
796.389	336.55
796.57	336.55
796.75	305.83
796.93	354.98
797.111	307.88
797.291	299.69
797.471	301.73
797.652	230.06
797.832	258.73
798.012	271.01
798.192	244.39
798.373	250.53
798.553	297.64
798.733	297.64
798.913	254.63
799.093	182.95
799.274	287.4
799.454	273.06
799.634	279.21
799.814	289.45
799.994	221.86
800.174	336.55
800.354	225.96
800.534	150.18
800.714	271.01
800.894	180.9
801.074	262.82
801.254	281.25
801.434	240.3
801.614	242.34
801.794	189.1
801.974	950.94
802.154	168.62
802.334	209.58
802.514	225.96
802.693	199.34
802.873	266.92
803.053	262.82
803.233	246.44
803.413	268.97
803.592	205.48
803.772	221.86
803.952	273.06
804.131	271.01
804.311	244.39
804.491	238.25
804.67	234.15
804.85	213.67
805.03	242.34
805.209	289.45
805.389	185
805.568	221.86
805.748	225.96
805.928	215.72
806.107	207.53
806.287	254.63
806.466	217.77
806.646	225.96
806.825	209.58
807.004	193.19
807.184	205.48
807.363	180.9
807.543	254.63
807.722	217.77
807.901	230.06
808.081	223.91
808.26	123.56
808.439	203.43
808.619	215.72
808.798	242.34
808.977	182.95
809.156	160.42
809.336	193.19
809.515	185
809.694	123.56
809.873	221.86
810.052	221.86
810.231	168.62
810.411	174.76
810.59	213.67
810.769	215.72
810.948	225.96
811.127	139.94
811.306	180.9
811.485	197.29
811.664	297.64
811.843	230.06
812.022	238.25
812.201	144.04
812.38	182.95
812.559	201.38
812.737	156.33
812.916	90.79
813.095	170.66
813.274	152.23
813.453	137.9
813.632	127.66
813.811	191.14
813.989	174.76
814.168	127.66
814.347	94.89
814.526	125.61
814.704	189.1
814.883	162.47
815.062	164.52
815.24	295.59
815.419	64.17
815.598	148.14
815.776	123.56
815.955	176.81
816.133	133.8
816.312	156.33
816.49	101.03
816.669	90.79
816.847	131.75
817.026	225.96
817.204	148.14
817.383	139.94
817.561	180.9
817.74	174.76
817.918	164.52
818.097	139.94
818.275	109.23
818.453	148.14
818.632	101.03
818.81	191.14
818.988	135.85
819.167	74.41
819.345	92.84
819.523	139.94
819.701	152.23
819.879	189.1
820.058	125.61
820.236	117.42
820.414	125.61
820.592	152.23
820.77	168.62
820.948	131.75
821.127	96.94
821.305	125.61
821.483	117.42
821.661	86.7
821.839	162.47
822.017	76.46
822.195	152.23
822.373	228.01
822.551	131.75
822.729	185
822.907	96.94
823.085	78.51
823.262	164.52
823.44	107.18
823.618	74.41
823.796	201.38
823.974	86.7
824.152	101.03
824.329	115.37
824.507	105.13
824.685	90.79
824.863	117.42
825.04	144.04
825.218	152.23
825.396	84.65
825.574	156.33
825.751	119.46
825.929	146.09
826.107	66.22
826.284	101.03
826.462	74.41
826.639	92.84
826.817	35.5
826.994	68.27
827.172	41.64
827.349	152.23
827.527	144.04
827.704	111.27
827.882	92.84
828.059	27.31
828.237	70.31
828.414	182.95
828.591	107.18
828.769	96.94
828.946	139.94
829.124	148.14
829.301	131.75
829.478	60.07
829.655	94.89
829.833	96.94
830.01	74.41
830.187	58.03
830.364	-21.84
830.542	125.61
830.719	131.75
830.896	49.83
831.073	174.76
831.25	123.56
831.427	-3.41
831.604	109.23
831.782	21.16
831.959	152.23
832.136	156.33
832.313	90.79
832.49	113.32
832.667	117.42
832.844	64.17
833.021	78.51
833.198	84.65
833.374	31.4
833.551	51.88
833.728	92.84
833.905	101.03
834.082	25.26
834.259	51.88
834.436	78.51
834.612	109.23
834.789	78.51
834.966	17.07
835.143	90.79
835.319	4.78
835.496	125.61
835.673	94.89
835.85	166.57
836.026	82.6
836.203	49.83
836.38	103.08
836.556	66.22
836.733	27.31
836.909	137.9
837.086	92.84
837.262	90.79
837.439	94.89
837.616	76.46
837.792	70.31
837.968	17.07
838.145	64.17
838.321	-21.84
838.498	125.61
838.674	98.99
838.851	115.37
839.027	117.42
839.203	135.85
839.38	101.03
839.556	60.07
839.732	115.37
839.909	29.35
840.085	74.41
840.261	12.97
840.437	107.18
840.614	21.16
840.79	17.07
840.966	62.12
841.142	8.87
841.318	70.31
841.494	107.18
841.671	76.46
841.847	2.73
842.023	-32.08
842.199	133.8
842.375	55.98
842.551	10.92
842.727	17.07
842.903	150.18
843.079	27.31
843.255	86.7
843.431	74.41
843.607	43.69
843.783	74.41
843.959	68.27
844.134	51.88
844.31	53.93
844.486	74.41
844.662	60.07
844.838	51.88
845.013	49.83
845.189	107.18
845.365	88.75
845.541	111.27
845.716	15.02
845.892	103.08
846.068	119.46
846.244	-7.51
846.419	76.46
846.595	-40.28
846.77	-23.89
846.946	66.22
847.122	33.45
847.297	-5.46
847.473	162.47
847.648	27.31
847.824	117.42
847.999	8.87
848.175	25.26
848.35	49.83
848.526	45.74
848.701	101.03
848.876	84.65
849.052	6.83
849.227	96.94
849.403	-1.37
849.578	-7.51
849.753	35.5
849.929	49.83
850.104	-7.51
850.279	84.65
850.454	21.16
850.63	78.51
850.805	-73.04
850.98	60.07
851.155	37.55
851.33	25.26
851.505	33.45
851.681	115.37
851.856	8.87
852.031	76.46
852.206	-11.61
852.381	0.68
852.556	45.74
852.731	39.59
852.906	86.7
853.081	101.03
853.256	58.03
853.431	53.93
853.606	58.03
853.781	78.51
853.956	-32.08
854.131	82.6
854.305	23.21
854.48	10.92
854.655	35.5
854.83	-11.61
855.005	109.23
855.18	53.93
855.354	-5.46
855.529	-23.89
855.704	64.17
855.879	12.97
856.053	6.83
856.228	17.07
856.403	25.26
856.577	12.97
856.752	33.45
856.926	90.79
857.101	82.6
857.276	35.5
857.45	12.97
857.625	53.93
857.799	19.11
857.974	-3.41
858.148	80.55
858.323	33.45
858.497	-23.89
858.672	37.55
858.846	-1.37
859.02	92.84
859.195	41.64
859.369	35.5
859.543	117.42
859.718	25.26
859.892	-13.65
860.066	66.22
860.241	2.73
860.415	-15.7
860.589	8.87
860.763	-15.7
860.938	-9.56
861.112	98.99
861.286	21.16
861.46	-17.75
861.634	0.68
861.808	74.41
861.982	-7.51
862.157	12.97
862.331	25.26
862.505	-13.65
862.679	15.02
862.853	66.22
863.027	17.07
863.201	86.7
863.375	-21.84
863.549	33.45
863.722	58.03
863.896	35.5
864.07	-81.24
864.244	2.73
864.418	53.93
864.592	0.68
864.766	45.74
864.939	53.93
865.113	53.93
865.287	23.21
865.461	-21.84
865.634	15.02
865.808	33.45
865.982	-62.8
866.156	-19.8
866.329	-64.85
866.503	-27.99
866.676	74.41
866.85	4.78
867.024	-40.28
867.197	49.83
867.371	43.69
867.544	66.22
867.718	41.64
867.891	76.46
868.065	-36.18
868.238	33.45
868.412	49.83
868.585	33.45
868.759	23.21
868.932	49.83
869.105	-13.65
869.279	0.68
869.452	23.21
869.625	-5.46
869.799	8.87
869.972	-13.65
870.145	37.55
870.319	41.64
870.492	-9.56
870.665	27.31
870.838	-81.24
871.011	33.45
871.185	37.55
871.358	-3.41
871.531	29.35
871.704	-38.23
871.877	0.68
872.05	-95.57
872.223	19.11
872.396	33.45
872.569	27.31
872.742	27.31
872.915	45.74
873.088	105.13
873.261	-7.51
873.434	41.64
873.607	84.65
873.78	29.35
873.953	-21.84
874.126	78.51
874.299	10.92
874.471	49.83
874.644	62.12
874.817	-21.84
874.99	78.51
875.163	41.64
875.335	-9.56
875.508	55.98
875.681	-27.99
875.853	25.26
876.026	-5.46
876.199	74.41
876.371	-23.89
876.544	2.73
876.717	8.87
876.889	-50.52
877.062	49.83
877.234	6.83
877.407	17.07
877.579	0.68
877.752	88.75
877.924	103.08
878.097	33.45
878.269	-23.89
878.442	49.83
878.614	33.45
878.786	41.64
878.959	19.11
879.131	35.5
879.303	-5.46
879.476	-7.51
879.648	82.6
879.82	35.5
879.993	-15.7
880.165	66.22
880.337	53.93
880.509	-7.51
880.681	43.69
880.854	-44.37
881.026	53.93
881.198	43.69
881.37	45.74
881.542	43.69
881.714	21.16
881.886	-7.51
882.058	2.73
882.23	25.26
882.402	8.87
882.574	51.88
882.746	68.27
882.918	35.5
883.09	25.26
883.262	10.92
883.434	17.07
883.606	8.87
883.778	21.16
883.95	82.6
884.122	58.03
884.293	43.69
884.465	-11.61
884.637	29.35
884.809	-7.51
884.98	64.17
885.152	51.88
885.324	37.55
885.496	17.07
885.667	51.88
885.839	-13.65
886.011	0.68
886.182	33.45
886.354	51.88
886.525	-48.47
886.697	58.03
886.869	-23.89
887.04	-7.51
887.212	41.64
887.383	41.64
887.555	55.98
887.726	-11.61
887.897	68.27
888.069	21.16
888.24	10.92
888.412	35.5
888.583	-3.41
888.754	-11.61
888.926	-23.89
889.097	-71
889.268	-23.89
889.44	8.87
889.611	-23.89
889.782	-11.61
889.953	35.5
890.125	-7.51
890.296	-1.37
890.467	-19.8
890.638	-36.18
890.809	41.64
890.98	-68.95
891.151	35.5
891.323	6.83
891.494	-32.08
891.665	101.03
891.836	27.31
892.007	33.45
892.178	92.84
892.349	25.26
892.52	21.16
892.691	49.83
892.862	-9.56
893.032	10.92
893.203	-25.94
893.374	-40.28
893.545	27.31
893.716	-5.46
893.887	45.74
894.057	4.78
894.228	-36.18
894.399	8.87
894.57	49.83
894.74	-15.7
894.911	-11.61
895.082	0.68
895.253	12.97
895.423	4.78
895.594	80.55
895.764	-11.61
895.935	19.11
896.106	19.11
896.276	-23.89
896.447	-11.61
896.617	-68.95
896.788	-25.94
896.958	-30.04
897.129	-52.56
897.299	2.73
897.47	37.55
897.64	111.27
897.81	-56.66
897.981	-15.7
898.151	-44.37
898.322	88.75
898.492	-23.89
898.662	-19.8
898.832	-64.85
899.003	6.83
899.173	21.16
899.343	-7.51
899.513	-42.32
