Data from USB4F104151__162__14-32-16-318.txt Node

Date: Thu Mar 13 14:32:16 EDT 2025
User: louis
Spectrometer: USB4F10415
Trigger mode: 4
Integration Time (sec): 2.500000E-2
Scans to average: 1
Electric dark correction enabled: true
Nonlinearity correction enabled: false
Boxcar width: 0
XAxis mode: Wavelengths
Number of Pixels in Spectrum: 3648
>>>>>Begin Spectral Data<<<<<
178.204	-120.49
178.424	-120.49
178.644	-120.49
178.864	-153.26
179.084	-128.68
179.304	39.25
179.524	10.58
179.744	22.87
179.964	35.16
180.184	-42.67
180.404	51.54
180.624	-24.23
180.844	-40.62
181.064	-118.44
181.283	-34.47
181.503	72.02
181.723	29.01
181.943	-30.38
182.163	96.6
182.383	4.44
182.602	-1.71
182.822	22.87
183.042	8.53
183.262	-5.8
183.482	20.82
183.701	29.01
183.921	37.2
184.141	10.58
184.361	-20.14
184.58	20.82
184.8	-52.91
185.02	-50.86
185.239	43.35
185.459	-13.99
185.679	92.5
185.898	-69.29
186.118	-20.14
186.338	-38.57
186.557	10.58
186.777	2.39
186.997	-38.57
187.216	-26.28
187.436	-22.19
187.655	10.58
187.875	51.54
188.095	43.35
188.314	43.35
188.534	100.69
188.753	94.55
188.973	-13.99
189.192	-36.52
189.412	6.49
189.631	35.16
189.851	-42.67
190.07	86.36
190.29	-11.95
190.509	51.54
190.729	10.58
190.948	-9.9
191.168	133.46
191.387	29.01
191.607	-63.15
191.826	76.12
192.045	82.26
192.265	10.58
192.484	51.54
192.704	-13.99
192.923	51.54
193.142	45.4
193.362	-13.99
193.581	55.64
193.8	39.25
194.02	61.78
194.239	26.96
194.458	10.58
194.678	-3.75
194.897	22.87
195.116	33.11
195.335	18.77
195.555	35.16
195.774	2.39
195.993	51.54
196.212	-11.95
196.432	-20.14
196.651	37.2
196.87	47.44
197.089	59.73
197.308	6.49
197.528	-26.28
197.747	-20.14
197.966	49.49
198.185	78.16
198.404	18.77
198.623	72.02
198.842	6.49
199.062	26.96
199.281	59.73
199.5	-5.8
199.719	10.58
199.938	39.25
200.157	117.08
200.376	-3.75
200.595	18.77
200.814	-11.95
201.033	35.16
201.252	59.73
201.471	-36.52
201.69	63.83
201.909	55.64
202.128	63.83
202.347	45.4
202.566	-36.52
202.785	22.87
203.004	-26.28
203.223	22.87
203.442	104.79
203.661	63.83
203.879	-24.23
204.098	18.77
204.317	29.01
204.536	80.21
204.755	47.44
204.974	82.26
205.193	94.55
205.411	76.12
205.63	18.77
205.849	37.2
206.068	10.58
206.287	-36.52
206.505	57.68
206.724	-22.19
206.943	35.16
207.162	37.2
207.381	-38.57
207.599	80.21
207.818	6.49
208.037	51.54
208.255	-34.47
208.474	-18.09
208.693	22.87
208.911	-3.75
209.13	-52.91
209.349	43.35
209.567	-7.85
209.786	53.59
210.005	35.16
210.223	-38.57
210.442	-7.85
210.661	51.54
210.879	98.64
211.098	96.6
211.316	51.54
211.535	26.96
211.753	35.16
211.972	92.5
212.191	14.68
212.409	37.2
212.628	-44.71
212.846	-3.75
213.065	43.35
213.283	0.34
213.502	-5.8
213.72	-36.52
213.938	-34.47
214.157	47.44
214.375	20.82
214.594	29.01
214.812	133.46
215.031	86.36
215.249	-50.86
215.467	29.01
215.686	-44.71
215.904	67.92
216.122	47.44
216.341	39.25
216.559	26.96
216.778	37.2
216.996	92.5
217.214	-13.99
217.432	-52.91
217.651	-57
217.869	18.77
218.087	-5.8
218.306	-24.23
218.524	63.83
218.742	10.58
218.96	55.64
219.179	76.12
219.397	2.39
219.615	14.68
219.833	108.88
220.051	10.58
220.27	20.82
220.488	86.36
220.706	47.44
220.924	20.82
221.142	-54.95
221.36	-11.95
221.578	29.01
221.796	12.63
222.015	61.78
222.233	20.82
222.451	61.78
222.669	33.11
222.887	117.08
223.105	24.92
223.323	31.06
223.541	35.16
223.759	14.68
223.977	26.96
224.195	53.59
224.413	14.68
224.631	63.83
224.849	18.77
225.067	26.96
225.285	-38.57
225.503	-54.95
225.721	-63.15
225.939	-38.57
226.157	31.06
226.375	168.27
226.592	-3.75
226.81	-61.1
227.028	10.58
227.246	51.54
227.464	37.2
227.682	43.35
227.9	92.5
228.117	110.93
228.335	-40.62
228.553	12.63
228.771	35.16
228.989	10.58
229.206	39.25
229.424	18.77
229.642	24.92
229.86	-20.14
230.077	-7.85
230.295	78.16
230.513	18.77
230.731	41.3
230.948	24.92
231.166	33.11
231.384	31.06
231.601	-26.28
231.819	135.51
232.037	-59.05
232.254	45.4
232.472	35.16
232.689	-52.91
232.907	67.92
233.125	22.87
233.342	43.35
233.56	0.34
233.777	29.01
233.995	-30.38
234.213	45.4
234.43	20.82
234.648	47.44
234.865	39.25
235.083	35.16
235.3	61.78
235.518	33.11
235.735	92.5
235.953	37.2
236.17	108.88
236.388	-22.19
236.605	4.44
236.822	94.55
237.04	49.49
237.257	69.97
237.475	78.16
237.692	55.64
237.909	53.59
238.127	45.4
238.344	6.49
238.562	-22.19
238.779	10.58
238.996	-69.29
239.214	22.87
239.431	67.92
239.648	-9.9
239.865	29.01
240.083	26.96
240.3	-26.28
240.517	-13.99
240.735	-52.91
240.952	29.01
241.169	59.73
241.386	35.16
241.603	10.58
241.821	22.87
242.038	51.54
242.255	76.12
242.472	-13.99
242.689	20.82
242.907	18.77
243.124	55.64
243.341	45.4
243.558	-34.47
243.775	12.63
243.992	43.35
244.209	-20.14
244.426	67.92
244.643	59.73
244.86	-22.19
245.078	53.59
245.295	39.25
245.512	-9.9
245.729	-59.05
245.946	26.96
246.163	16.73
246.38	-5.8
246.597	37.2
246.814	53.59
247.031	-36.52
247.248	51.54
247.464	57.68
247.681	-7.85
247.898	2.39
248.115	29.01
248.332	-79.53
248.549	100.69
248.766	31.06
248.983	18.77
249.2	67.92
249.417	-73.39
249.633	39.25
249.85	-87.72
250.067	43.35
250.284	-11.95
250.501	117.08
250.717	22.87
250.934	26.96
251.151	-26.28
251.368	-3.75
251.585	20.82
251.801	59.73
252.018	-46.76
252.235	94.55
252.451	26.96
252.668	18.77
252.885	-5.8
253.102	-3.75
253.318	-22.19
253.535	18.77
253.752	-18.09
253.968	43.35
254.185	18.77
254.401	-1.71
254.618	6.49
254.835	8.53
255.051	115.03
255.268	6.49
255.484	18.77
255.701	-1.71
255.917	100.69
256.134	57.68
256.351	2.39
256.567	-1.71
256.784	72.02
257	-7.85
257.217	43.35
257.433	69.97
257.65	-13.99
257.866	55.64
258.082	-3.75
258.299	26.96
258.515	59.73
258.732	-3.75
258.948	102.74
259.165	18.77
259.381	-63.15
259.597	59.73
259.814	78.16
260.03	-54.95
260.246	76.12
260.463	49.49
260.679	78.16
260.895	-5.8
261.112	131.41
261.328	45.4
261.544	22.87
261.761	59.73
261.977	2.39
262.193	18.77
262.409	31.06
262.626	94.55
262.842	-22.19
263.058	-3.75
263.274	22.87
263.49	112.98
263.707	108.88
263.923	67.92
264.139	29.01
264.355	16.73
264.571	76.12
264.787	18.77
265.004	10.58
265.22	57.68
265.436	4.44
265.652	-5.8
265.868	4.44
266.084	-7.85
266.3	26.96
266.516	2.39
266.732	22.87
266.948	-67.24
267.164	47.44
267.38	-5.8
267.596	69.97
267.812	88.4
268.028	35.16
268.244	4.44
268.46	4.44
268.676	-7.85
268.892	61.78
269.108	-3.75
269.324	45.4
269.54	-40.62
269.756	76.12
269.972	14.68
270.188	-5.8
270.403	39.25
270.619	18.77
270.835	-3.75
271.051	43.35
271.267	4.44
271.483	123.22
271.698	-5.8
271.914	26.96
272.13	10.58
272.346	0.34
272.562	51.54
272.777	86.36
272.993	69.97
273.209	18.77
273.425	31.06
273.64	10.58
273.856	35.16
274.072	80.21
274.287	45.4
274.503	80.21
274.719	12.63
274.934	-40.62
275.15	-38.57
275.366	14.68
275.581	-22.19
275.797	6.49
276.012	18.77
276.228	29.01
276.444	-5.8
276.659	31.06
276.875	-38.57
277.09	37.2
277.306	-69.29
277.521	31.06
277.737	121.17
277.952	-9.9
278.168	10.58
278.383	-46.76
278.599	29.01
278.814	67.92
279.03	45.4
279.245	94.55
279.461	-22.19
279.676	53.59
279.892	-9.9
280.107	22.87
280.322	2.39
280.538	-26.28
280.753	51.54
280.969	76.12
281.184	39.25
281.399	-1.71
281.615	-11.95
281.83	63.83
282.045	-13.99
282.26	22.87
282.476	-13.99
282.691	14.68
282.906	94.55
283.122	110.93
283.337	-5.8
283.552	59.73
283.767	-71.34
283.983	4.44
284.198	43.35
284.413	18.77
284.628	-22.19
284.843	4.44
285.058	31.06
285.274	-28.33
285.489	37.2
285.704	88.4
285.919	76.12
286.134	18.77
286.349	10.58
286.564	31.06
286.779	-13.99
286.995	-30.38
287.21	-9.9
287.425	26.96
287.64	-18.09
287.855	24.92
288.07	-13.99
288.285	39.25
288.5	12.63
288.715	53.59
288.93	-13.99
289.145	-18.09
289.36	39.25
289.575	-7.85
289.79	29.01
290.004	4.44
290.219	45.4
290.434	37.2
290.649	-20.14
290.864	76.12
291.079	22.87
291.294	14.68
291.509	51.54
291.724	76.12
291.938	-40.62
292.153	16.73
292.368	6.49
292.583	20.82
292.798	63.83
293.012	20.82
293.227	22.87
293.442	41.3
293.657	51.54
293.871	90.45
294.086	51.54
294.301	72.02
294.516	123.22
294.73	59.73
294.945	-79.53
295.16	-9.9
295.374	41.3
295.589	86.36
295.804	2.39
296.018	22.87
296.233	53.59
296.447	8.53
296.662	24.92
296.877	35.16
297.091	0.34
297.306	100.69
297.52	24.92
297.735	63.83
297.949	26.96
298.164	63.83
298.378	53.59
298.593	14.68
298.807	6.49
299.022	69.97
299.236	82.26
299.451	61.78
299.665	-5.8
299.88	4.44
300.094	-18.09
300.309	31.06
300.523	59.73
300.737	12.63
300.952	10.58
301.166	16.73
301.381	55.64
301.595	31.06
301.809	35.16
302.024	35.16
302.238	-40.62
302.452	78.16
302.667	29.01
302.881	10.58
303.095	121.17
303.309	47.44
303.524	26.96
303.738	2.39
303.952	4.44
304.166	31.06
304.381	-87.72
304.595	88.4
304.809	-28.33
305.023	43.35
305.237	14.68
305.452	-3.75
305.666	129.36
305.88	102.74
306.094	20.82
306.308	96.6
306.522	67.92
306.736	22.87
306.95	84.31
307.164	-3.75
307.379	24.92
307.593	86.36
307.807	41.3
308.021	31.06
308.235	84.31
308.449	37.2
308.663	65.88
308.877	86.36
309.091	-13.99
309.305	-5.8
309.519	16.73
309.733	35.16
309.947	-38.57
310.161	69.97
310.374	72.02
310.588	-30.38
310.802	-34.47
311.016	35.16
311.23	39.25
311.444	26.96
311.658	-38.57
311.872	26.96
312.085	102.74
312.299	-5.8
312.513	96.6
312.727	74.07
312.941	-5.8
313.154	80.21
313.368	31.06
313.582	67.92
313.796	35.16
314.009	47.44
314.223	12.63
314.437	57.68
314.651	94.55
314.864	117.08
315.078	-48.81
315.292	-5.8
315.505	59.73
315.719	63.83
315.933	43.35
316.146	26.96
316.36	26.96
316.573	86.36
316.787	-11.95
317.001	10.58
317.214	-13.99
317.428	-42.67
317.641	0.34
317.855	29.01
318.068	-9.9
318.282	-77.48
318.495	20.82
318.709	4.44
318.922	51.54
319.136	-20.14
319.349	92.5
319.563	0.34
319.776	20.82
319.99	43.35
320.203	51.54
320.417	14.68
320.63	90.45
320.843	69.97
321.057	18.77
321.27	69.97
321.483	2.39
321.697	69.97
321.91	100.69
322.124	-3.75
322.337	86.36
322.55	-44.71
322.763	8.53
322.977	45.4
323.19	18.77
323.403	59.73
323.617	-11.95
323.83	69.97
324.043	20.82
324.256	45.4
324.469	-59.05
324.683	67.92
324.896	-46.76
325.109	6.49
325.322	-20.14
325.535	117.08
325.748	51.54
325.962	-9.9
326.175	12.63
326.388	117.08
326.601	31.06
326.814	4.44
327.027	-3.75
327.24	51.54
327.453	65.88
327.666	29.01
327.879	-26.28
328.092	67.92
328.305	37.2
328.518	76.12
328.731	53.59
328.944	10.58
329.157	-20.14
329.37	-26.28
329.583	29.01
329.796	47.44
330.009	-13.99
330.222	-3.75
330.435	92.5
330.648	51.54
330.861	2.39
331.073	45.4
331.286	47.44
331.499	-22.19
331.712	12.63
331.925	2.39
332.138	78.16
332.35	45.4
332.563	-28.33
332.776	125.27
332.989	33.11
333.202	47.44
333.414	86.36
333.627	12.63
333.84	-13.99
334.053	96.6
334.265	-3.75
334.478	-9.9
334.691	-20.14
334.903	55.64
335.116	-28.33
335.329	53.59
335.541	59.73
335.754	14.68
335.966	43.35
336.179	26.96
336.392	2.39
336.604	59.73
336.817	53.59
337.029	0.34
337.242	26.96
337.454	102.74
337.667	35.16
337.88	90.45
338.092	43.35
338.305	84.31
338.517	43.35
338.729	92.5
338.942	110.93
339.154	61.78
339.367	12.63
339.579	-30.38
339.792	-1.71
340.004	53.59
340.217	-3.75
340.429	59.73
340.641	43.35
340.854	20.82
341.066	35.16
341.278	-30.38
341.491	51.54
341.703	90.45
341.915	35.16
342.128	53.59
342.34	-5.8
342.552	-79.53
342.764	45.4
342.977	10.58
343.189	61.78
343.401	22.87
343.613	-85.67
343.826	59.73
344.038	2.39
344.25	-28.33
344.462	-30.38
344.674	59.73
344.886	51.54
345.099	12.63
345.311	100.69
345.523	16.73
345.735	-28.33
345.947	-34.47
346.159	37.2
346.371	-28.33
346.583	-22.19
346.795	22.87
347.007	2.39
347.219	39.25
347.431	10.58
347.643	14.68
347.855	22.87
348.067	67.92
348.279	29.01
348.491	10.58
348.703	14.68
348.915	100.69
349.127	-13.99
349.339	51.54
349.551	22.87
349.763	67.92
349.975	49.49
350.187	55.64
350.399	20.82
350.61	67.92
350.822	35.16
351.034	14.68
351.246	51.54
351.458	59.73
351.669	121.17
351.881	4.44
352.093	51.54
352.305	51.54
352.517	18.77
352.728	4.44
352.94	-5.8
353.152	47.44
353.363	24.92
353.575	45.4
353.787	72.02
353.999	12.63
354.21	51.54
354.422	-1.71
354.633	-13.99
354.845	55.64
355.057	-1.71
355.268	59.73
355.48	12.63
355.692	-9.9
355.903	84.31
356.115	-13.99
356.326	-44.71
356.538	26.96
356.749	20.82
356.961	125.27
357.172	35.16
357.384	-22.19
357.595	104.79
357.807	-22.19
358.018	61.78
358.23	104.79
358.441	51.54
358.653	43.35
358.864	10.58
359.075	-36.52
359.287	12.63
359.498	33.11
359.709	-28.33
359.921	47.44
360.132	43.35
360.344	-20.14
360.555	55.64
360.766	59.73
360.977	-18.09
361.189	108.88
361.4	-30.38
361.611	59.73
361.823	-20.14
362.034	31.06
362.245	-30.38
362.456	123.22
362.667	22.87
362.879	2.39
363.09	55.64
363.301	78.16
363.512	20.82
363.723	39.25
363.935	-16.04
364.146	112.98
364.357	-13.99
364.568	78.16
364.779	72.02
364.99	29.01
365.201	-3.75
365.412	49.49
365.623	45.4
365.834	-5.8
366.045	6.49
366.256	-9.9
366.467	61.78
366.678	-3.75
366.889	35.16
367.1	65.88
367.311	39.25
367.522	2.39
367.733	4.44
367.944	29.01
368.155	43.35
368.366	29.01
368.577	110.93
368.788	125.27
368.999	-20.14
369.209	-20.14
369.42	90.45
369.631	100.69
369.842	2.39
370.053	-18.09
370.264	4.44
370.474	26.96
370.685	2.39
370.896	-63.15
371.107	55.64
371.317	10.58
371.528	-20.14
371.739	76.12
371.95	119.12
372.16	86.36
372.371	-5.8
372.582	69.97
372.792	35.16
373.003	72.02
373.214	-18.09
373.424	125.27
373.635	-7.85
373.846	20.82
374.056	-42.67
374.267	2.39
374.477	102.74
374.688	-54.95
374.898	90.45
375.109	37.2
375.319	4.44
375.53	31.06
375.74	47.44
375.951	78.16
376.161	31.06
376.372	69.97
376.582	35.16
376.793	45.4
377.003	14.68
377.214	84.31
377.424	67.92
377.635	-22.19
377.845	-34.47
378.055	72.02
378.266	18.77
378.476	2.39
378.686	33.11
378.897	35.16
379.107	18.77
379.317	49.49
379.528	100.69
379.738	76.12
379.948	-26.28
380.158	59.73
380.369	86.36
380.579	20.82
380.789	-5.8
380.999	-9.9
381.21	90.45
381.42	74.07
381.63	88.4
381.84	108.88
382.05	10.58
382.261	119.12
382.471	88.4
382.681	39.25
382.891	39.25
383.101	47.44
383.311	-61.1
383.521	-1.71
383.731	78.16
383.941	69.97
384.151	88.4
384.361	80.21
384.571	67.92
384.781	10.58
384.991	149.84
385.201	88.4
385.411	53.59
385.621	41.3
385.831	0.34
386.041	76.12
386.251	26.96
386.461	94.55
386.671	-13.99
386.881	117.08
387.091	67.92
387.301	92.5
387.511	98.64
387.72	125.27
387.93	121.17
388.14	37.2
388.35	80.21
388.56	20.82
388.769	67.92
388.979	18.77
389.189	-22.19
389.399	45.4
389.609	33.11
389.818	51.54
390.028	-3.75
390.238	76.12
390.447	67.92
390.657	10.58
390.867	-36.52
391.076	22.87
391.286	2.39
391.496	72.02
391.705	102.74
391.915	59.73
392.125	141.65
392.334	51.54
392.544	55.64
392.753	61.78
392.963	26.96
393.172	72.02
393.382	-11.95
393.591	135.51
393.801	51.54
394.01	112.98
394.22	-1.71
394.429	80.21
394.639	55.64
394.848	-30.38
395.058	49.49
395.267	67.92
395.477	84.31
395.686	100.69
395.895	131.41
396.105	84.31
396.314	61.78
396.524	135.51
396.733	29.01
396.942	69.97
397.152	67.92
397.361	61.78
397.57	108.88
397.78	80.21
397.989	129.36
398.198	94.55
398.407	49.49
398.617	96.6
398.826	84.31
399.035	39.25
399.244	88.4
399.453	-18.09
399.663	84.31
399.872	69.97
400.081	108.88
400.29	63.83
400.499	35.16
400.708	92.5
400.917	35.16
401.127	80.21
401.336	12.63
401.545	92.5
401.754	76.12
401.963	145.75
402.172	76.12
402.381	84.31
402.59	63.83
402.799	100.69
403.008	108.88
403.217	51.54
403.426	59.73
403.635	129.36
403.844	98.64
404.053	110.93
404.262	92.5
404.471	215.38
404.68	176.47
404.888	149.84
405.097	20.82
405.306	106.84
405.515	166.23
405.724	108.88
405.933	151.89
406.142	129.36
406.35	166.23
406.559	139.6
406.768	92.5
406.977	209.23
407.185	133.46
407.394	223.57
407.603	106.84
407.812	182.61
408.02	239.95
408.229	260.43
408.438	125.27
408.646	149.84
408.855	92.5
409.064	217.43
409.272	223.57
409.481	158.03
409.69	227.67
409.898	117.08
410.107	256.34
410.315	258.39
410.524	223.57
410.733	223.57
410.941	190.8
411.15	323.92
411.358	301.39
411.567	375.12
411.775	305.49
411.984	358.74
412.192	371.02
412.401	342.35
412.609	411.98
412.818	311.63
413.026	414.03
413.234	428.37
413.443	420.17
413.651	436.56
413.86	448.85
414.068	502.09
414.276	485.71
414.485	428.37
414.693	493.9
414.901	604.49
415.11	639.31
415.318	579.92
415.526	602.44
415.734	575.82
415.943	596.3
416.151	676.17
416.359	653.64
416.567	641.36
416.776	762.19
416.984	682.31
417.192	733.51
417.4	784.71
417.608	696.65
417.817	784.71
418.025	805.19
418.233	1007.94
418.441	825.67
418.649	942.41
418.857	1014.09
419.065	1028.42
419.273	1001.8
419.481	987.46
419.689	1220.93
419.897	1227.07
420.105	1157.44
420.313	1306.95
420.521	1315.14
420.729	1321.28
420.937	1411.39
421.145	1362.24
421.353	1528.13
421.561	1677.63
421.769	1552.7
421.977	1526.08
422.185	1481.02
422.393	1706.3
422.601	1960.25
422.809	1806.65
423.017	1845.56
423.224	1958.2
423.432	1931.58
423.64	2025.78
423.848	2267.44
424.056	2042.17
424.263	2255.15
424.471	2355.51
424.679	2292.02
424.887	2470.19
425.094	2507.06
425.302	2668.84
425.51	2543.92
425.718	2754.86
425.925	2707.76
426.133	2904.36
426.341	3076.39
426.548	3025.19
426.756	3017
426.964	3197.22
427.171	3305.76
427.379	3498.27
427.586	3440.93
427.794	3463.46
428.001	3868.95
428.209	3901.72
428.417	3885.34
428.624	4176.15
428.832	4251.92
429.039	4124.95
429.247	3993.88
429.454	4458.77
429.662	4813.07
429.869	4432.15
430.076	4823.31
430.284	4581.65
430.491	4851.98
430.699	5007.62
430.906	5032.2
431.114	5290.24
431.321	5292.29
431.528	5419.27
431.736	5689.6
431.943	6129.91
432.15	5849.34
432.358	5945.59
432.565	6320.37
432.772	6306.04
432.979	6516.98
433.187	6695.15
433.394	6576.37
433.601	7078.12
433.808	7237.86
434.016	7270.63
434.223	7500
434.43	7831.77
434.637	7727.33
434.844	8116.44
435.052	8394.97
435.259	8294.61
435.466	8476.88
435.673	8362.2
435.88	8915.15
436.087	9193.67
436.294	9115.85
436.501	9029.84
436.708	9066.7
436.915	9611.46
437.122	10137.79
437.329	9978.05
437.537	10211.51
437.743	10508.47
437.95	10250.42
438.157	11049.13
438.364	11243.69
438.571	11288.75
438.778	11335.85
438.985	12329.11
439.192	11815.07
439.399	12200.09
439.606	11940
439.813	12916.88
440.02	13682.82
440.227	13142.16
440.433	12941.46
440.64	13527.17
440.847	13162.64
441.054	13764.74
441.261	14450.81
441.467	14309.5
441.674	14733.43
441.881	15065.2
442.088	15130.73
442.294	15159.41
442.501	15134.83
442.708	15833.19
442.914	16214.11
443.121	17084.5
443.328	16660.57
443.534	17715.27
443.741	17311.82
443.948	17070.16
444.154	18315.33
444.361	18413.63
444.568	18360.38
444.774	18178.11
444.981	18329.66
445.187	18829.37
445.394	19681.32
445.6	19454
445.807	21395.47
446.013	20361.25
446.22	20770.84
446.426	21723.15
446.633	21807.11
446.839	22831.1
447.046	21571.6
447.252	22790.14
447.459	22792.19
447.665	22546.43
447.871	23932.9
448.078	24819.67
448.284	23584.75
448.491	24139.75
448.697	25210.84
448.903	25524.18
449.11	25741.26
449.316	25200.6
449.522	25860.04
449.728	26376.13
449.935	26623.94
450.141	26527.68
450.347	27142.07
450.553	26453.95
450.76	26816.44
450.966	27604.91
451.172	27275.19
451.378	28368.8
451.584	27193.27
451.791	27981.74
451.997	27713.45
452.203	28338.08
452.409	28485.54
452.615	28352.42
452.821	26957.75
453.027	26800.06
453.233	28182.44
453.44	27178.93
453.646	27230.13
453.852	27459.51
454.058	28207.01
454.264	27047.86
454.47	27674.54
454.676	27115.45
454.882	27953.07
455.088	25606.09
455.294	26079.18
455.5	26281.92
455.705	26378.18
455.911	25432.02
456.117	24854.49
456.323	24514.53
456.529	23474.16
456.735	24133.61
456.941	23721.96
457.147	23328.75
457.352	22685.69
457.558	22292.48
457.764	22579.2
457.97	22026.25
458.176	22013.96
458.381	21512.21
458.587	20426.78
458.793	20049.96
458.999	19476.52
459.204	20635.67
459.41	20121.63
459.616	18903.09
459.821	18843.7
460.027	18612.28
460.233	18264.13
460.438	17260.62
460.644	17598.54
460.85	16967.76
461.055	16459.87
461.261	16650.33
461.466	15169.65
461.672	14897.27
461.878	16052.32
462.083	14733.43
462.289	14788.72
462.494	14258.3
462.7	13627.53
462.905	13316.23
463.111	13838.47
463.316	13955.2
463.522	13486.22
463.727	13568.13
463.932	13586.57
464.138	13342.86
464.343	13605
464.549	12988.56
464.754	13406.34
464.959	13506.7
465.165	13248.65
465.37	12712.08
465.575	12236.95
465.781	12871.82
465.986	12865.68
466.191	12646.55
466.397	12183.71
466.602	11403.43
466.807	11991.2
467.012	12314.78
467.218	11929.76
467.423	11720.87
467.628	12089.5
467.833	12372.12
468.038	12003.49
468.244	11739.3
468.449	11933.86
468.654	11671.72
468.859	11518.12
469.064	11468.97
469.269	10920.11
469.474	11276.46
469.679	11399.34
469.885	11065.52
470.09	11096.24
470.295	10832.05
470.5	10762.42
470.705	10903.73
470.91	10436.79
471.115	10528.95
471.32	10510.52
471.525	10741.94
471.73	10209.47
471.935	10297.53
472.139	9994.43
472.344	10035.39
472.549	9803.97
472.754	9980.09
472.959	9955.52
473.164	9451.72
473.369	9500.87
473.574	9724.1
473.778	9547.97
473.983	9373.89
474.188	9492.68
474.393	9189.58
474.598	9078.99
474.802	8943.82
475.007	9060.56
475.212	9027.79
475.417	8634.58
475.621	8712.4
475.826	8630.48
476.031	8333.53
476.235	8366.29
476.44	8354.01
476.645	8347.86
476.849	8177.88
477.054	8095.96
477.259	8165.59
477.463	8104.15
477.668	7737.57
477.872	7899.36
478.077	7852.25
478.282	7706.85
478.486	7672.03
478.691	7485.67
478.895	7532.77
479.1	7434.47
479.304	7366.88
479.509	7213.29
479.713	7317.73
479.918	7301.35
480.122	7256.29
480.326	7280.87
480.531	7057.64
480.735	7201
480.94	7082.22
481.144	7389.41
481.348	6875.37
481.553	6867.18
481.757	7006.44
481.961	7010.54
482.166	7164.14
482.37	6998.25
482.574	6852.84
482.778	7026.92
482.983	7129.32
483.187	6973.67
483.391	7074.03
483.595	6922.48
483.8	6732.01
484.004	6959.34
484.208	7063.79
484.412	6891.76
484.616	7010.54
484.821	6983.91
485.025	6795.5
485.229	6850.8
485.433	6883.56
485.637	6777.07
485.841	6809.84
486.045	6785.26
486.249	7246.05
486.453	6795.5
486.657	6842.6
486.861	7041.26
487.065	6787.31
487.269	6803.69
487.473	6830.32
487.677	6834.41
487.881	6973.67
488.085	6897.9
488.289	6926.57
488.493	6981.87
488.697	7014.63
488.901	7164.14
489.105	6953.2
489.309	6850.8
489.512	6877.42
489.716	7100.65
489.92	6908.14
490.124	6887.66
490.328	7090.41
490.531	7164.14
490.735	7104.74
490.939	7211.24
491.143	7071.98
491.346	7102.7
491.55	7172.33
491.754	7227.62
491.958	7166.18
492.161	7252.2
492.365	7172.33
492.569	7057.64
492.772	7287.01
492.976	7217.38
493.18	7311.59
493.383	7272.68
493.587	7389.41
493.79	7473.38
493.994	7405.8
494.197	7497.95
494.401	7735.52
494.605	7547.11
494.808	7844.06
495.012	7637.22
495.215	7678.18
495.419	7854.3
495.622	7729.38
495.825	7870.69
496.029	7751.9
496.232	8040.67
496.436	7837.92
496.639	8089.82
496.843	8098.01
497.046	8241.37
497.249	8290.52
497.453	8272.09
497.656	8523.99
497.859	8612.05
498.063	8698.06
498.266	8835.28
498.469	8687.82
498.673	8712.4
498.876	8980.68
499.079	8986.83
499.282	8970.44
499.485	9160.91
499.689	9294.02
499.892	9199.82
500.095	9367.75
500.298	9636.03
500.501	9367.75
500.705	9810.11
500.908	9818.3
501.111	9879.74
501.314	9836.74
501.517	10043.58
501.72	10172.6
501.923	10307.77
502.126	10250.42
502.329	10467.51
502.532	10676.4
502.735	10553.52
502.938	10903.73
503.141	10944.69
503.344	11133.1
503.547	11159.72
503.75	11161.77
503.953	11372.71
504.156	11616.42
504.359	11595.94
504.562	11720.87
504.765	11827.36
504.968	12056.73
505.17	12216.47
505.373	11980.96
505.576	12241.05
505.779	12490.9
505.982	12525.72
506.185	12726.42
506.387	12609.68
506.59	13140.11
506.793	13353.1
506.996	12927.12
507.198	13338.76
507.401	13404.3
507.604	13514.89
507.807	13854.85
508.009	13650.05
508.212	13977.73
508.415	14080.13
508.617	14104.7
508.82	14387.32
509.022	14372.99
509.225	14751.86
509.428	14792.82
509.63	15059.06
509.833	14936.18
510.035	15417.45
510.238	15100.01
510.44	15603.82
510.643	15478.89
510.845	15745.13
511.048	15825
511.25	16201.82
511.453	15921.25
511.655	16726.1
511.858	16562.26
512.06	16685.14
512.262	16705.62
512.465	16865.36
512.667	16984.15
512.87	17084.5
513.072	17344.59
513.274	17727.56
513.477	17707.08
513.679	17698.89
513.881	17928.26
514.084	18202.69
514.286	18313.28
514.488	18434.11
514.69	18819.13
514.893	18724.92
515.095	18946.1
515.297	18999.35
515.499	19165.23
515.701	19302.45
515.904	19548.2
516.106	19761.19
516.308	20027.43
516.51	20154.4
516.712	20019.24
516.914	20459.55
517.116	20572.19
517.318	20621.34
517.52	20944.92
517.722	20897.81
517.925	21090.32
518.127	21413.9
518.329	21252.11
518.531	21336.08
518.733	21676.04
518.935	21903.37
519.136	21778.44
519.338	22169.6
519.54	22247.43
519.742	22423.55
519.944	22446.08
520.146	22730.75
520.348	22982.65
520.55	22691.84
520.752	23085.05
520.954	23468.02
521.155	23095.28
521.357	23662.57
521.559	23791.59
521.761	23969.77
521.963	23670.76
522.164	24088.55
522.366	23969.77
522.568	24512.48
522.77	24297.44
522.971	24750.04
523.173	24408.03
523.375	24422.37
523.576	24917.98
523.778	24481.76
523.98	25278.42
524.181	25212.88
524.383	25495.5
524.584	25231.32
524.786	25409.49
524.988	25622.48
525.189	25487.31
525.391	25616.33
525.592	25759.69
525.794	25319.38
525.995	25757.64
526.197	25825.23
526.398	25907.15
526.6	25837.52
526.801	26068.94
527.003	25872.33
527.204	26034.12
527.406	26304.45
527.607	25866.19
527.808	25868.23
528.01	26077.13
528.211	26447.81
528.412	26740.67
528.614	26316.74
528.815	25991.11
529.016	26468.29
529.218	26249.16
529.419	25982.92
529.62	26277.83
529.822	26140.61
530.023	26490.82
530.224	26306.5
530.425	25956.3
530.626	25909.19
530.828	26148.81
531.029	26933.18
531.23	26122.18
531.431	26431.43
531.632	26431.43
531.833	26384.32
532.035	26218.44
532.236	26224.58
532.437	26224.58
532.638	26146.76
532.839	26144.71
533.04	26488.77
533.241	26298.31
533.442	26341.32
533.643	26302.4
533.844	26150.85
534.045	26249.16
534.246	25794.51
534.447	26415.04
534.648	25831.37
534.849	26300.36
535.05	25870.28
535.251	26150.85
535.451	25862.09
535.652	25968.59
535.853	25888.71
536.054	26259.4
536.255	25946.06
536.456	25753.55
536.657	25952.2
536.857	26101.7
537.058	25946.06
537.259	25743.31
537.46	25864.14
537.66	25880.52
537.861	25622.48
538.062	26036.17
538.263	25628.62
538.463	25429.97
538.664	25597.9
538.865	25769.93
539.065	25862.09
539.266	25460.69
539.466	25831.37
539.667	25305.04
539.868	25468.88
540.068	25669.58
540.269	25532.37
540.469	25438.16
540.67	25464.78
540.87	25268.18
541.071	25356.24
541.271	25857.99
541.472	25315.28
541.672	25493.46
541.873	25675.73
542.073	24948.7
542.274	25319.38
542.474	25090.01
542.675	25245.65
542.875	25577.42
543.075	25112.53
543.276	24879.07
543.476	25552.85
543.676	25120.73
543.877	25067.48
544.077	25130.97
544.277	25012.18
544.478	25241.56
544.678	25253.84
544.878	25219.03
545.078	25202.64
545.279	24852.44
545.479	24967.13
545.679	25227.22
545.879	25057.24
546.079	25061.33
546.28	24858.59
546.48	24758.24
546.68	25038.81
546.88	25325.52
547.08	25339.86
547.28	24940.5
547.48	24815.58
547.68	24936.41
547.88	25104.34
548.081	25425.87
548.281	25083.86
548.481	25087.96
548.681	25184.21
548.881	25241.56
549.081	25145.3
549.28	24985.56
549.48	25069.53
549.68	24917.98
549.88	25239.51
550.08	24973.27
550.28	25133.01
550.48	24952.79
550.68	25063.38
550.88	25069.53
551.08	25116.63
551.279	25413.59
551.479	24821.72
551.679	24985.56
551.879	25133.01
552.079	25202.64
552.278	25065.43
552.478	25124.82
552.678	25008.09
552.878	25169.88
553.077	25040.86
553.277	24793.05
553.477	25145.3
553.676	25126.87
553.876	25184.21
554.076	24985.56
554.275	25126.87
554.475	24895.45
554.674	25159.64
554.874	25253.84
555.074	25276.37
555.273	25200.6
555.473	25393.11
555.672	25047
555.872	25204.69
556.071	25225.17
556.271	25571.28
556.47	25067.48
556.67	25108.44
556.869	25421.78
557.068	25284.56
557.268	25221.08
557.467	25231.32
557.667	25223.12
557.866	25114.58
558.065	25317.33
558.265	25243.6
558.464	25118.68
558.663	25366.48
558.863	24948.7
559.062	25651.15
559.261	25296.85
559.461	25714.64
559.66	25081.81
559.859	25092.05
560.058	25149.4
560.258	25075.67
560.457	24809.43
560.656	25331.67
560.855	25206.74
561.054	25225.17
561.253	25184.21
561.453	25518.03
561.652	25337.81
561.851	24776.67
562.05	24922.07
562.249	24944.6
562.448	25462.74
562.647	25143.25
562.846	25317.33
563.045	25358.29
563.244	24729.56
563.443	25227.22
563.642	24825.82
563.841	24977.37
564.04	25008.09
564.239	25284.56
564.438	24854.49
564.637	25272.28
564.836	24858.59
565.035	24731.61
565.234	24995.8
565.432	25061.33
565.631	24844.25
565.83	24698.84
566.029	24647.65
566.228	24723.42
566.427	24893.4
566.625	24416.22
566.824	24207.33
567.023	24274.91
567.222	24537.05
567.42	24881.11
567.619	24442.85
567.818	24518.62
568.016	24346.59
568.215	24629.21
568.414	24397.79
568.612	24465.38
568.811	23941.1
569.01	24274.91
569.208	23975.91
569.407	24100.84
569.605	24186.85
569.804	24367.07
570.002	24088.55
570.201	24115.17
570.4	23719.92
570.598	23832.55
570.797	23537.65
570.995	23926.76
571.193	23650.28
571.392	23947.24
571.59	23453.68
571.789	23752.68
571.987	23519.21
572.186	23486.45
572.384	23762.92
572.582	23652.33
572.781	23234.55
572.979	23429.1
573.177	23058.42
573.376	23199.73
573.574	23242.74
573.772	23195.64
573.971	23472.11
574.169	22874.1
574.367	22745.08
574.565	23027.7
574.763	22804.47
574.962	22706.17
575.16	22956.02
575.358	22704.12
575.556	22532.09
575.754	22867.96
575.952	22628.35
576.151	22507.52
576.349	22286.34
576.547	22487.04
576.745	22341.63
576.943	22339.58
577.141	22120.45
577.339	22257.67
577.537	22296.58
577.735	22292.48
577.933	22134.79
578.131	22005.77
578.329	21813.26
578.527	21911.56
578.725	21512.21
578.923	21645.32
579.121	21708.81
579.319	21651.47
579.516	21717
579.714	21825.54
579.912	21301.26
580.11	21549.07
580.308	21526.54
580.506	21549.07
580.704	21151.76
580.901	21579.79
581.099	21534.73
581.297	21137.43
581.495	21262.35
581.692	21334.03
581.89	21223.44
582.088	21254.16
582.285	20801.56
582.483	20899.86
582.681	21190.67
582.878	20803.61
583.076	20447.26
583.274	20717.59
583.471	20561.95
583.669	20875.29
583.866	20383.77
584.064	20535.32
584.262	20553.76
584.459	20783.13
584.657	20625.43
584.854	20469.79
585.052	19757.1
585.249	20549.66
585.447	20236.32
585.644	20209.7
585.841	20017.19
586.039	20369.44
586.236	19869.73
586.434	19873.83
586.631	19707.94
586.828	19681.32
587.026	20131.87
587.223	19685.42
587.42	19638.31
587.618	19951.65
587.815	19648.55
588.012	19679.27
588.21	19478.57
588.407	19761.19
588.604	19255.34
588.801	19447.85
588.999	19290.16
589.196	19335.21
589.393	19163.18
589.59	19193.9
589.787	19001.4
589.984	19126.32
590.182	18819.13
590.379	19030.07
590.576	19036.21
590.773	19363.89
590.97	18722.87
591.167	18931.76
591.364	18540.6
591.561	18722.87
591.758	18634.81
591.955	18946.1
592.152	18733.11
592.349	18395.2
592.546	18747.45
592.743	18751.54
592.94	18315.33
593.137	18473.02
593.334	18690.1
593.531	18212.93
593.727	18360.38
593.924	18587.71
594.121	18286.65
594.318	18221.12
594.515	18038.85
594.712	18212.93
594.908	18190.4
595.105	18454.59
595.302	17905.73
595.499	18319.42
595.696	18061.38
595.892	18049.09
596.089	18219.07
596.286	18333.76
596.482	17879.11
596.679	17852.48
596.876	17950.79
597.072	17870.92
597.269	18012.23
597.466	17614.92
597.662	17672.26
597.859	17887.3
598.055	17729.61
598.252	17862.72
598.448	17770.57
598.645	17764.42
598.841	17543.24
599.038	17918.02
599.234	17512.52
599.431	17662.02
599.627	17627.21
599.824	17731.65
600.02	17401.93
600.217	17889.35
600.413	17573.96
600.609	17496.14
600.806	17590.34
601.002	17766.47
601.198	17592.39
601.395	17553.48
601.591	17416.27
601.787	17627.21
601.984	17504.33
602.18	17387.6
602.376	17322.06
602.572	17639.5
602.769	17612.87
602.965	17363.02
603.161	17762.37
603.357	17371.21
603.553	17524.81
603.75	17551.43
603.946	17520.71
604.142	17709.13
604.338	17414.22
604.534	17571.91
604.73	17502.28
604.926	17373.26
605.122	17582.15
605.318	17305.68
605.514	17442.89
605.71	17739.85
605.906	17205.33
606.102	17489.99
606.298	17721.41
606.494	17487.95
606.69	17559.63
606.886	17477.71
607.082	17559.63
607.278	17502.28
607.474	17326.16
607.67	17393.74
607.866	17356.88
608.062	17807.43
608.257	17510.47
608.453	17700.94
608.649	17510.47
608.845	17543.24
609.041	17549.39
609.236	17772.61
609.432	17872.96
609.628	17770.57
609.824	17537.1
610.019	17717.32
610.215	17399.88
610.411	17778.76
610.606	17641.54
610.802	17739.85
610.998	17797.19
611.193	17958.98
611.389	17616.97
611.584	17416.27
611.78	17619.02
611.976	17729.61
612.171	17913.92
612.367	18016.32
612.562	17956.93
612.758	17688.65
612.953	17463.37
613.149	18036.8
613.344	17827.91
613.539	17827.91
613.735	17684.55
613.93	17926.21
614.126	17619.02
614.321	17975.36
614.517	17739.85
614.712	17991.75
614.907	17862.72
615.103	17981.51
615.298	17805.38
615.493	17995.84
615.688	17674.31
615.884	18014.27
616.079	17756.23
616.274	18085.95
616.47	18114.62
616.665	17811.53
616.86	17936.45
617.055	17748.04
617.25	17715.27
617.445	17868.87
617.641	17492.04
617.836	17676.36
618.031	17498.19
618.226	17850.44
618.421	17492.04
618.616	17612.87
618.811	17674.31
619.006	17578.06
619.201	17371.21
619.396	17395.79
619.591	17320.01
619.786	17487.95
619.981	16988.24
620.176	17504.33
620.371	17180.75
620.566	17330.25
620.761	17322.06
620.956	17180.75
621.151	16945.23
621.346	17088.59
621.541	16740.44
621.735	17201.23
621.93	16597.08
622.125	16754.77
622.32	16525.4
622.515	16668.76
622.709	16654.42
622.904	16674.9
623.099	16568.41
623.294	16146.53
623.488	16361.56
623.683	16257.12
623.878	16277.6
624.072	16138.34
624.267	15902.82
624.462	15931.49
624.656	15808.61
624.851	15632.49
625.046	15775.84
625.24	15657.06
625.435	15804.52
625.629	15675.49
625.824	15462.51
626.018	15591.53
626.213	15069.3
626.407	15353.96
626.602	15183.98
626.796	15016.05
626.991	15222.89
627.185	15157.36
627.38	15046.77
627.574	14831.73
627.768	14864.5
627.963	14731.38
628.157	14592.12
628.352	14612.6
628.546	14540.92
628.74	14706.8
628.935	14456.95
629.129	14528.63
629.323	14262.4
629.517	14108.8
629.712	14192.76
629.906	13985.92
630.1	13666.44
630.294	13940.86
630.489	13693.06
630.683	13774.98
630.877	13834.37
631.071	13670.53
631.265	13865.09
631.459	13324.43
631.653	13449.35
631.848	13498.5
632.042	13351.05
632.236	13176.97
632.43	12945.55
632.624	13256.84
632.818	13146.25
633.012	12849.3
633.206	12765.33
633.4	13058.19
633.594	12707.99
633.788	12949.65
633.982	12703.89
634.176	12695.7
634.369	12556.44
634.563	12597.4
634.757	12105.88
634.951	12290.2
635.145	12277.91
635.339	12273.82
635.533	12060.83
635.726	12103.84
635.92	12167.32
636.114	12052.64
636.308	11786.4
636.501	11745.44
636.695	11999.39
636.889	11806.88
637.083	11843.74
637.276	11604.13
637.47	11573.41
637.664	11522.21
637.857	11385
638.051	11487.4
638.244	11192.49
638.438	11227.31
638.632	11307.18
638.825	11110.57
639.019	11077.8
639.212	10932.4
639.406	10922.16
639.599	11030.7
639.793	10954.93
639.986	10608.82
640.18	10643.63
640.373	10832.05
640.567	10352.82
640.76	10412.21
640.954	10428.6
641.147	10367.16
641.34	10340.54
641.534	10352.82
641.727	10291.38
641.92	10096.83
642.114	10090.68
642.307	10240.19
642.5	10102.97
642.694	10107.07
642.887	9734.34
643.08	9953.47
643.273	9875.65
643.467	9793.73
643.66	9611.46
643.853	9519.3
644.046	9584.84
644.239	9636.03
644.432	9556.16
644.626	9251.02
644.819	9390.28
645.012	9255.11
645.205	9162.95
645.398	9242.82
645.591	9046.22
645.784	9068.75
645.977	8978.64
646.17	8927.44
646.363	8706.26
646.556	8845.52
646.749	8890.57
646.942	8755.41
647.135	8630.48
647.328	8591.57
647.521	8661.2
647.714	8399.06
647.907	8427.73
648.099	8523.99
648.292	8368.34
648.485	8149.21
648.678	8364.25
648.871	8081.63
649.064	8354.01
649.256	8261.85
649.449	8278.23
649.642	8143.07
649.835	8046.81
650.027	8003.8
650.22	8065.24
650.413	7997.66
650.605	7950.56
650.798	7940.32
650.991	7706.85
651.183	7760.09
651.376	7387.36
651.568	7565.54
651.761	7518.43
651.954	7760.09
652.146	7639.26
652.339	7737.57
652.531	7538.91
652.724	7413.99
652.916	7260.39
653.109	7223.53
653.301	7354.6
653.494	7391.46
653.686	7237.86
653.879	7188.71
654.071	7133.42
654.263	7014.63
654.456	7088.36
654.648	7014.63
654.84	6916.33
655.033	6803.69
655.225	7063.79
655.417	6924.52
655.61	6842.6
655.802	6863.08
655.994	6863.08
656.186	6695.15
656.379	6899.95
656.571	6664.43
656.763	6533.36
656.955	6457.59
657.148	6578.42
657.34	6437.11
657.532	6422.77
657.724	6301.94
657.916	6420.72
658.108	6482.16
658.3	6433.01
658.492	6400.24
658.684	6131.96
658.876	6203.64
659.068	6383.86
659.26	6146.3
659.452	6170.87
659.644	6240.5
659.836	6152.44
660.028	5998.84
660.22	5990.65
660.412	6027.51
660.604	6017.27
660.796	5982.46
660.988	5925.11
661.18	5744.89
661.372	5802.24
661.563	5943.55
661.755	5822.72
661.947	5699.84
662.139	5640.45
662.331	5550.34
662.522	5533.95
662.714	5427.46
662.906	5585.15
663.097	5613.82
663.289	5400.83
663.481	5581.06
663.673	5593.34
663.864	5366.02
664.056	5341.44
664.247	5359.88
664.439	5206.28
664.631	5249.29
664.822	5325.06
665.014	5327.11
665.205	5148.93
665.397	5222.66
665.588	5196.04
665.78	5146.89
665.971	5105.93
666.163	5132.55
666.354	5140.74
666.546	4884.75
666.737	4991.24
666.929	5073.16
667.12	4968.71
667.311	5024.01
667.503	4962.57
667.694	4712.72
667.885	4776.2
668.077	4794.64
668.268	4663.57
668.459	4935.95
668.651	4616.46
668.842	4823.31
669.033	4741.39
669.224	4772.11
669.416	4745.48
669.607	4501.78
669.798	4610.32
669.989	4743.44
670.18	4720.91
670.371	4729.1
670.563	4571.41
670.754	4595.98
670.945	4438.29
671.136	4557.07
671.327	4505.87
671.518	4460.82
671.709	4489.49
671.9	4540.69
672.091	4542.74
672.282	4491.54
672.473	4292.88
672.664	4385.04
672.855	4233.49
673.046	4339.99
673.237	4329.75
673.428	4274.45
673.619	4198.68
673.809	4227.35
674	4278.55
674.191	4188.44
674.382	4188.44
674.573	4172.05
674.764	4329.75
674.954	4372.75
675.145	4215.06
675.336	4229.4
675.527	4188.44
675.717	4157.72
675.908	4155.67
676.099	4032.79
676.289	4204.82
676.48	4081.94
676.671	4196.63
676.861	4071.7
677.052	4077.85
677.243	4026.65
677.433	4016.41
677.624	4229.4
677.814	4036.89
678.005	3952.92
678.195	3963.16
678.386	4026.65
678.576	3971.35
678.767	4069.66
678.957	4026.65
679.148	3940.63
679.338	3954.97
679.529	3901.72
679.719	3893.53
679.909	4110.61
680.1	3871
680.29	4020.5
680.481	3805.47
680.671	3875.1
680.861	3864.86
681.052	4081.94
681.242	3866.91
681.432	4090.13
681.622	3823.9
681.813	3868.95
682.003	3823.9
682.193	3977.5
682.383	3844.38
682.573	3823.9
682.764	3911.96
682.954	3877.15
683.144	3985.69
683.334	3830.04
683.524	3731.74
683.714	3746.08
683.904	3789.08
684.094	3821.85
684.284	3750.17
684.474	3793.18
684.664	3801.37
684.854	3750.17
685.044	3715.36
685.234	3606.81
685.424	3692.83
685.614	3619.1
685.804	3739.93
685.994	3698.97
686.184	3672.35
686.374	3698.97
686.564	3580.19
686.753	3705.12
686.943	3617.05
687.133	3645.73
687.323	3547.42
687.513	3731.74
687.702	3535.14
687.892	3612.96
688.082	3582.24
688.272	3651.87
688.461	3602.72
688.651	3647.77
688.841	3649.82
689.03	3467.55
689.22	3381.54
689.41	3477.79
689.599	3492.13
689.789	3332.39
689.979	3623.2
690.168	3455.26
690.358	3475.74
690.547	3395.87
690.737	3498.27
690.926	3510.56
691.116	3430.69
691.305	3471.65
691.495	3430.69
691.684	3250.47
691.874	3440.93
692.063	3217.7
692.252	3332.39
692.442	3424.55
692.631	3432.74
692.82	3279.14
693.01	3352.87
693.199	3332.39
693.388	3180.84
693.578	3270.95
693.767	3213.6
693.956	3195.17
694.146	3189.03
694.335	3250.47
694.524	3143.97
694.713	3197.22
694.902	3205.41
695.092	3205.41
695.281	3205.41
695.47	3180.84
695.659	3156.26
695.848	3115.3
696.037	3186.98
696.226	3182.88
696.415	3115.3
696.604	3213.6
696.793	3139.88
696.982	3176.74
697.171	3135.78
697.36	3117.35
697.549	3043.62
697.738	2949.42
697.927	2918.7
698.116	3043.62
698.305	3156.26
698.494	3115.3
698.683	3049.77
698.872	3031.34
699.061	2994.47
699.25	3053.86
699.438	2982.18
699.627	3006.76
699.816	2935.08
700.005	3025.19
700.193	2896.17
700.382	3037.48
700.571	2906.41
700.76	3021.1
700.948	2953.51
701.137	2855.21
701.326	2959.66
701.514	2918.7
701.703	2894.12
701.892	2769.2
702.08	2855.21
702.269	2941.22
702.457	2771.24
702.646	2967.85
702.834	2769.2
703.023	2912.55
703.212	2904.36
703.4	2787.63
703.589	2820.39
703.777	2681.13
703.965	2740.52
704.154	2683.18
704.342	2756.91
704.531	2681.13
704.719	2713.9
704.907	2830.63
705.096	2584.88
705.284	2718
705.472	2754.86
705.661	2693.42
705.849	2781.48
706.037	2707.76
706.226	2670.89
706.414	2623.79
706.602	2674.99
706.79	2509.1
706.979	2591.02
707.167	2568.49
707.355	2634.03
707.543	2664.75
707.731	2687.28
707.919	2543.92
708.107	2535.73
708.296	2519.34
708.484	2607.41
708.672	2578.73
708.86	2562.35
709.048	2539.82
709.236	2470.19
709.424	2449.71
709.612	2562.35
709.8	2396.46
709.988	2462
710.176	2603.31
710.364	2451.76
710.551	2388.27
710.739	2453.81
710.927	2402.61
711.115	2525.49
711.303	2525.49
711.491	2320.69
711.679	2431.28
711.866	2439.47
712.054	2316.59
712.242	2386.22
712.43	2267.44
712.617	2369.84
712.805	2367.79
712.993	2472.24
713.181	2283.83
713.368	2468.14
713.556	2337.07
713.744	2263.35
713.931	2292.02
714.119	2259.25
714.306	2304.31
714.494	2263.35
714.682	2300.21
714.869	2292.02
715.057	2255.15
715.244	2365.75
715.432	2277.68
715.619	2222.39
715.807	2238.77
715.994	2240.82
716.182	2148.66
716.369	2271.54
716.556	2263.35
716.744	2134.32
716.931	2009.4
717.119	2140.47
717.306	2113.85
717.493	2287.92
717.681	2142.52
717.868	2175.28
718.055	2183.48
718.242	2189.62
718.43	2183.48
718.617	2197.81
718.804	2132.28
718.991	2142.52
719.179	2148.66
719.366	2175.28
719.553	2079.03
719.74	2033.97
719.927	2115.89
720.114	2124.08
720.301	2091.32
720.488	2107.7
720.676	2042.17
720.863	1984.82
721.05	2013.49
721.237	2025.78
721.424	2044.21
721.611	1958.2
721.798	1980.73
721.985	1935.67
722.172	2050.36
722.358	1911.1
722.545	1954.1
722.732	1984.82
722.919	2025.78
723.106	1882.42
723.293	1943.86
723.48	2007.35
723.667	1845.56
723.853	1947.96
724.04	1993.01
724.227	2062.65
724.414	1816.89
724.6	1857.85
724.787	1878.33
724.974	1872.18
725.161	1896.76
725.347	1874.23
725.534	1904.95
725.72	2017.59
725.907	1857.85
726.094	1853.75
726.28	1863.99
726.467	1882.42
726.653	1853.75
726.84	1818.94
727.027	1919.29
727.213	1720.64
727.4	1833.27
727.586	1763.64
727.773	1825.08
727.959	1886.52
728.145	1829.18
728.332	1771.83
728.518	1755.45
728.705	1829.18
728.891	1745.21
729.077	1712.44
729.264	1745.21
729.45	1831.23
729.636	1698.11
729.823	1730.87
730.009	1753.4
730.195	1689.92
730.382	1861.94
730.568	1792.31
730.754	1808.7
730.94	1730.87
731.126	1823.03
731.313	1816.89
731.499	1771.83
731.685	1802.55
731.871	1698.11
732.057	1626.43
732.243	1794.36
732.429	1771.83
732.615	1689.92
732.801	1687.87
732.987	1784.12
733.173	1632.57
733.359	1700.16
733.545	1634.62
733.731	1743.16
733.917	1685.82
734.103	1612.09
734.289	1618.24
734.475	1599.8
734.661	1657.15
734.847	1720.64
735.033	1591.61
735.219	1612.09
735.404	1648.96
735.59	1620.28
735.776	1665.34
735.962	1599.8
736.148	1642.81
736.333	1665.34
736.519	1628.48
736.705	1599.8
736.89	1550.65
737.076	1593.66
737.262	1542.46
737.447	1620.28
737.633	1569.09
737.819	1550.65
738.004	1581.37
738.19	1501.5
738.375	1481.02
738.561	1612.09
738.747	1544.51
738.932	1468.73
739.118	1501.5
739.303	1519.93
739.489	1493.31
739.674	1552.7
739.859	1397.06
740.045	1448.26
740.23	1501.5
740.416	1374.53
740.601	1542.46
740.786	1513.79
740.972	1444.16
741.157	1349.95
741.342	1517.89
741.528	1425.73
741.713	1476.93
741.898	1454.4
742.084	1427.78
742.269	1415.49
742.454	1411.39
742.639	1448.26
742.824	1435.97
743.01	1352
743.195	1354.05
743.38	1419.58
743.565	1323.33
743.75	1288.51
743.935	1333.57
744.12	1395.01
744.305	1435.97
744.49	1218.88
744.675	1352
744.86	1245.51
745.045	1192.26
745.23	1302.85
745.415	1263.94
745.6	1268.03
745.785	1255.75
745.97	1386.82
746.155	1259.84
746.34	1255.75
746.525	1296.71
746.71	1347.9
746.895	1222.98
747.079	1231.17
747.264	1257.79
747.449	1364.29
747.634	1175.88
747.819	1225.03
748.003	1151.3
748.188	1304.9
748.373	1151.3
748.557	1171.78
748.742	1198.4
748.927	1200.45
749.111	1048.9
749.296	1157.44
749.481	1192.26
749.665	1147.2
749.85	999.75
750.034	1083.72
750.219	1036.61
750.404	1116.48
750.588	1182.02
750.773	1096
750.957	1167.68
751.141	1079.62
751.326	1104.2
751.51	969.03
751.695	1046.85
751.879	1165.64
752.064	1112.39
752.248	1018.18
752.432	1059.14
752.617	985.41
752.801	1042.76
752.985	858.44
753.17	985.41
753.354	932.17
753.538	999.75
753.722	919.88
753.907	1034.57
754.091	964.93
754.275	936.26
754.459	979.27
754.643	934.22
754.828	905.54
755.012	854.34
755.196	903.5
755.38	934.22
755.564	782.67
755.748	909.64
755.932	876.87
756.116	942.41
756.3	825.67
756.484	854.34
756.668	903.5
756.852	837.96
757.036	764.23
757.22	815.43
757.404	827.72
757.588	903.5
757.772	805.19
757.956	833.86
758.14	803.15
758.323	833.86
758.507	825.67
758.691	715.08
758.875	809.29
759.059	753.99
759.242	768.33
759.426	852.3
759.61	764.23
759.794	700.75
759.977	692.55
760.161	878.92
760.345	776.52
760.528	809.29
760.712	756.04
760.895	731.47
761.079	772.43
761.263	747.85
761.446	608.59
761.63	649.55
761.813	819.53
761.997	706.89
762.18	706.89
762.364	717.13
762.547	641.36
762.731	739.66
762.914	706.89
763.098	737.61
763.281	739.66
763.464	670.03
763.648	727.37
763.831	739.66
764.015	584.01
764.198	674.12
764.381	667.98
764.564	723.27
764.748	647.5
764.931	649.55
765.114	602.44
765.297	704.84
765.481	676.17
765.664	616.78
765.847	510.29
766.03	674.12
766.213	641.36
766.397	600.4
766.58	600.4
766.763	696.65
766.946	667.98
767.129	758.09
767.312	563.53
767.495	731.47
767.678	608.59
767.861	643.4
768.044	584.01
768.227	541.01
768.41	633.16
768.593	573.77
768.776	602.44
768.959	684.36
769.142	573.77
769.324	651.6
769.507	651.6
769.69	584.01
769.873	559.44
770.056	608.59
770.239	543.05
770.421	606.54
770.604	590.16
770.787	567.63
770.97	614.73
771.152	526.67
771.335	596.3
771.518	538.96
771.7	657.74
771.883	559.44
772.066	526.67
772.248	532.81
772.431	596.3
772.613	563.53
772.796	524.62
772.978	512.33
773.161	633.16
773.343	567.63
773.526	428.37
773.708	567.63
773.891	446.8
774.073	420.17
774.256	450.89
774.438	555.34
774.621	465.23
774.803	522.57
774.985	506.19
775.168	620.88
775.35	459.09
775.532	534.86
775.715	465.23
775.897	487.76
776.079	469.33
776.261	428.37
776.444	461.13
776.626	495.95
776.808	403.79
776.99	420.17
777.173	469.33
777.355	432.46
777.537	373.07
777.719	379.22
777.901	393.55
778.083	440.65
778.265	436.56
778.447	407.89
778.629	397.65
778.811	461.13
778.993	330.06
779.175	438.61
779.357	348.5
779.539	371.02
779.721	346.45
779.903	432.46
780.085	399.7
780.267	379.22
780.449	301.39
780.631	399.7
780.812	471.37
780.994	348.5
781.176	416.08
781.358	452.94
781.54	414.03
781.721	444.75
781.903	381.26
782.085	338.26
782.267	368.98
782.448	371.02
782.63	379.22
782.812	409.94
782.993	397.65
783.175	356.69
783.357	268.63
783.538	371.02
783.72	297.3
783.901	256.34
784.083	319.82
784.264	313.68
784.446	256.34
784.627	338.26
784.809	385.36
784.99	282.96
785.172	336.21
785.353	366.93
785.535	285.01
785.716	297.3
785.897	321.87
786.079	266.58
786.26	379.22
786.441	297.3
786.623	264.53
786.804	256.34
786.985	315.73
787.167	371.02
787.348	338.26
787.529	250.19
787.71	358.74
787.891	340.3
788.073	248.15
788.254	188.75
788.435	340.3
788.616	254.29
788.797	233.81
788.978	299.34
789.159	209.23
789.34	330.06
789.522	172.37
789.703	186.71
789.884	201.04
790.065	330.06
790.246	340.3
790.427	207.19
790.607	268.63
790.788	282.96
790.969	198.99
791.15	184.66
791.331	264.53
791.512	207.19
791.693	264.53
791.874	223.57
792.054	289.1
792.235	229.71
792.416	176.47
792.597	256.34
792.778	258.39
792.958	242
793.139	215.38
793.32	217.43
793.5	201.04
793.681	330.06
793.862	196.95
794.042	166.23
794.223	149.84
794.404	223.57
794.584	190.8
794.765	213.33
794.945	231.76
795.126	209.23
795.306	274.77
795.487	229.71
795.667	151.89
795.848	256.34
796.028	201.04
796.209	231.76
796.389	248.15
796.57	239.95
796.75	176.47
796.93	129.36
797.111	143.7
797.291	190.8
797.471	190.8
797.652	184.66
797.832	149.84
798.012	301.39
798.192	174.42
798.373	119.12
798.553	198.99
798.733	194.9
798.913	178.51
799.093	141.65
799.274	125.27
799.454	211.28
799.634	45.4
799.814	168.27
799.994	194.9
800.174	80.21
800.354	194.9
800.534	117.08
800.714	184.66
800.894	47.44
801.074	115.03
801.254	155.99
801.434	139.6
801.614	110.93
801.794	108.88
801.974	751.95
802.154	145.75
802.334	155.99
802.514	98.64
802.693	129.36
802.873	110.93
803.053	198.99
803.233	160.08
803.413	182.61
803.592	80.21
803.772	94.55
803.952	141.65
804.131	90.45
804.311	160.08
804.491	209.23
804.67	203.09
804.85	78.16
805.03	164.18
805.209	186.71
805.389	135.51
805.568	141.65
805.748	98.64
805.928	233.81
806.107	100.69
806.287	110.93
806.466	174.42
806.646	168.27
806.825	127.32
807.004	104.79
807.184	117.08
807.363	123.22
807.543	96.6
807.722	198.99
807.901	110.93
808.081	153.94
808.26	139.6
808.439	125.27
808.619	102.74
808.798	129.36
808.977	170.32
809.156	162.13
809.336	149.84
809.515	100.69
809.694	72.02
809.873	174.42
810.052	178.51
810.231	133.46
810.411	145.75
810.59	190.8
810.769	92.5
810.948	102.74
811.127	18.77
811.306	80.21
811.485	72.02
811.664	158.03
811.843	92.5
812.022	84.31
812.201	88.4
812.38	82.26
812.559	29.01
812.737	178.51
812.916	43.35
813.095	112.98
813.274	225.62
813.453	94.55
813.632	98.64
813.811	108.88
813.989	57.68
814.168	92.5
814.347	100.69
814.526	98.64
814.704	141.65
814.883	137.56
815.062	108.88
815.24	94.55
815.419	16.73
815.598	158.03
815.776	26.96
815.955	119.12
816.133	51.54
816.312	102.74
816.49	63.83
816.669	119.12
816.847	133.46
817.026	166.23
817.204	18.77
817.383	78.16
817.561	63.83
817.74	20.82
817.918	104.79
818.097	45.4
818.275	112.98
818.453	104.79
818.632	78.16
818.81	53.59
818.988	37.2
819.167	72.02
819.345	39.25
819.523	92.5
819.701	88.4
819.879	37.2
820.058	67.92
820.236	84.31
820.414	35.16
820.592	61.78
820.77	59.73
820.948	67.92
821.127	59.73
821.305	26.96
821.483	90.45
821.661	86.36
821.839	92.5
822.017	121.17
822.195	37.2
822.373	53.59
822.551	59.73
822.729	131.41
822.907	55.64
823.085	96.6
823.262	90.45
823.44	35.16
823.618	67.92
823.796	69.97
823.974	39.25
824.152	16.73
824.329	53.59
824.507	37.2
824.685	78.16
824.863	47.44
825.04	18.77
825.218	8.53
825.396	129.36
825.574	90.45
825.751	80.21
825.929	49.49
826.107	22.87
826.284	84.31
826.462	49.49
826.639	35.16
826.817	96.6
826.994	10.58
827.172	53.59
827.349	43.35
827.527	53.59
827.704	41.3
827.882	51.54
828.059	61.78
828.237	-22.19
828.414	92.5
828.591	22.87
828.769	80.21
828.946	47.44
829.124	92.5
829.301	10.58
829.478	4.44
829.655	55.64
829.833	94.55
830.01	55.64
830.187	80.21
830.364	82.26
830.542	78.16
830.719	104.79
830.896	39.25
831.073	-13.99
831.25	-20.14
831.427	69.97
831.604	72.02
831.782	18.77
831.959	84.31
832.136	45.4
832.313	43.35
832.49	31.06
832.667	69.97
832.844	8.53
833.021	78.16
833.198	31.06
833.374	74.07
833.551	53.59
833.728	59.73
833.905	100.69
834.082	29.01
834.259	10.58
834.436	51.54
834.612	26.96
834.789	47.44
834.966	35.16
835.143	104.79
835.319	26.96
835.496	98.64
835.673	98.64
835.85	174.42
836.026	106.84
836.203	80.21
836.38	-3.75
836.556	4.44
836.733	-36.52
836.909	108.88
837.086	67.92
837.262	29.01
837.439	33.11
837.616	-5.8
837.792	84.31
837.968	45.4
838.145	-71.34
838.321	45.4
838.498	39.25
838.674	39.25
838.851	84.31
839.027	53.59
839.203	26.96
839.38	84.31
839.556	-54.95
839.732	100.69
839.909	37.2
840.085	-5.8
840.261	29.01
840.437	14.68
840.614	12.63
840.79	133.46
840.966	26.96
841.142	63.83
841.318	4.44
841.494	59.73
841.671	26.96
841.847	20.82
842.023	-38.57
842.199	92.5
842.375	53.59
842.551	6.49
842.727	26.96
842.903	-5.8
843.079	18.77
843.255	59.73
843.431	67.92
843.607	10.58
843.783	8.53
843.959	67.92
844.134	-13.99
844.31	84.31
844.486	-9.9
844.662	18.77
844.838	59.73
845.013	98.64
845.189	29.01
845.365	-3.75
845.541	35.16
845.716	16.73
845.892	26.96
846.068	-9.9
846.244	-46.76
846.419	108.88
846.595	6.49
846.77	-5.8
846.946	112.98
847.122	102.74
847.297	26.96
847.473	121.17
847.648	-3.75
847.824	-11.95
847.999	-7.85
848.175	20.82
848.35	-71.34
848.526	59.73
848.701	117.08
848.876	26.96
849.052	47.44
849.227	51.54
849.403	-18.09
849.578	57.68
849.753	33.11
849.929	51.54
850.104	10.58
850.279	49.49
850.454	61.78
850.63	78.16
850.805	-36.52
850.98	26.96
851.155	-16.04
851.33	-5.8
851.505	-20.14
851.681	67.92
851.856	-54.95
852.031	57.68
852.206	51.54
852.381	-5.8
852.556	37.2
852.731	20.82
852.906	119.12
853.081	20.82
853.256	67.92
853.431	-44.71
853.606	29.01
853.781	14.68
853.956	-79.53
854.131	35.16
854.305	-3.75
854.48	45.4
854.655	-30.38
854.83	0.34
855.005	12.63
855.18	-13.99
855.354	4.44
855.529	59.73
855.704	-30.38
855.879	92.5
856.053	22.87
856.228	-9.9
856.403	-5.8
856.577	20.82
856.752	-11.95
856.926	16.73
857.101	-18.09
857.276	39.25
857.45	-22.19
857.625	20.82
857.799	51.54
857.974	35.16
858.148	-13.99
858.323	-42.67
858.497	57.68
858.672	41.3
858.846	-52.91
859.02	24.92
859.195	-46.76
859.369	18.77
859.543	0.34
859.718	94.55
859.892	53.59
860.066	16.73
860.241	-16.04
860.415	-65.19
860.589	14.68
860.763	-18.09
860.938	29.01
861.112	-38.57
861.286	2.39
861.46	59.73
861.634	16.73
861.808	-30.38
861.982	2.39
862.157	4.44
862.331	-20.14
862.505	-24.23
862.679	-24.23
862.853	55.64
863.027	18.77
863.201	35.16
863.375	10.58
863.549	4.44
863.722	-46.76
863.896	92.5
864.07	-5.8
864.244	-22.19
864.418	57.68
864.592	10.58
864.766	49.49
864.939	-28.33
865.113	14.68
865.287	-11.95
865.461	-63.15
865.634	-24.23
865.808	18.77
865.982	-30.38
866.156	-46.76
866.329	-34.47
866.503	33.11
866.676	12.63
866.85	37.2
867.024	-32.43
867.197	-22.19
867.371	-5.8
867.544	-11.95
867.718	-11.95
867.891	10.58
868.065	-61.1
868.238	51.54
868.412	127.32
868.585	6.49
868.759	18.77
868.932	-26.28
869.105	-104.11
869.279	-5.8
869.452	-50.86
869.625	2.39
869.799	-38.57
869.972	53.59
870.145	-46.76
870.319	-30.38
870.492	-18.09
870.665	10.58
870.838	18.77
871.011	-22.19
871.185	-9.9
871.358	22.87
871.531	51.54
871.704	-36.52
871.877	-30.38
872.05	-5.8
872.223	-13.99
872.396	29.01
872.569	-65.19
872.742	2.39
872.915	20.82
873.088	8.53
873.261	-63.15
873.434	2.39
873.607	-5.8
873.78	-30.38
873.953	-5.8
874.126	-9.9
874.299	51.54
874.471	-16.04
874.644	35.16
874.817	-38.57
874.99	26.96
875.163	10.58
875.335	18.77
875.508	-34.47
875.681	6.49
875.853	-69.29
876.026	-100.01
876.199	76.12
876.371	26.96
876.544	53.59
876.717	-13.99
876.889	67.92
877.062	90.45
877.234	-87.72
877.407	-32.43
877.579	33.11
877.752	-50.86
877.924	47.44
878.097	33.11
878.269	-18.09
878.442	78.16
878.614	-26.28
878.786	22.87
878.959	-63.15
879.131	47.44
879.303	24.92
879.476	-54.95
879.648	6.49
879.82	53.59
879.993	-69.29
880.165	55.64
880.337	-77.48
880.509	12.63
880.681	-85.67
880.854	-7.85
881.026	31.06
881.198	125.27
881.37	65.88
881.542	-13.99
881.714	55.64
881.886	-18.09
882.058	-30.38
882.23	80.21
882.402	45.4
882.574	-1.71
882.746	78.16
882.918	51.54
883.09	12.63
883.262	-30.38
883.434	-18.09
883.606	-30.38
883.778	-71.34
883.95	-9.9
884.122	-52.91
884.293	-26.28
884.465	-32.43
884.637	-32.43
884.809	12.63
884.98	-52.91
885.152	-50.86
885.324	10.58
885.496	-54.95
885.667	29.01
885.839	29.01
886.011	18.77
886.182	-54.95
886.354	-5.8
886.525	59.73
886.697	26.96
886.869	22.87
887.04	14.68
887.212	16.73
887.383	110.93
887.555	16.73
887.726	10.58
887.897	-46.76
888.069	35.16
888.24	41.3
888.412	-22.19
888.583	-11.95
888.754	-1.71
888.926	-87.72
889.097	-63.15
889.268	-50.86
889.44	63.83
889.611	-34.47
889.782	-36.52
889.953	-77.48
890.125	-22.19
890.296	35.16
890.467	-9.9
890.638	-50.86
890.809	-5.8
890.98	-16.04
891.151	4.44
891.323	104.79
891.494	-5.8
891.665	-30.38
891.836	-24.23
892.007	-18.09
892.178	-26.28
892.349	-5.8
892.52	12.63
892.691	10.58
892.862	-13.99
893.032	-24.23
893.203	-20.14
893.374	-3.75
893.545	96.6
893.716	-50.86
893.887	26.96
894.057	-11.95
894.228	-67.24
894.399	6.49
894.57	24.92
894.74	35.16
894.911	35.16
895.082	14.68
895.253	-30.38
895.423	6.49
895.594	18.77
895.764	26.96
895.935	-54.95
896.106	6.49
896.276	-54.95
896.447	59.73
896.617	-1.71
896.788	-16.04
896.958	12.63
897.129	-69.29
897.299	-79.53
897.47	-26.28
897.64	20.82
897.81	-30.38
897.981	-28.33
898.151	-22.19
898.322	-28.33
898.492	43.35
898.662	53.59
898.832	-7.85
899.003	-63.15
899.173	-28.33
899.343	16.73
899.513	-112.3
