Data from USB4F104151__5__14-28-22-435.txt Node

Date: Thu Mar 13 14:28:22 EDT 2025
User: louis
Spectrometer: USB4F10415
Trigger mode: 4
Integration Time (sec): 2.500000E-2
Scans to average: 1
Electric dark correction enabled: true
Nonlinearity correction enabled: false
Boxcar width: 0
XAxis mode: Wavelengths
Number of Pixels in Spectrum: 3648
>>>>>Begin Spectral Data<<<<<
178.204	-24.06
178.424	-24.06
178.644	-24.06
178.864	-52.74
179.084	-148.99
179.304	-13.82
179.524	66.05
179.744	-9.73
179.964	20.99
180.184	0.51
180.404	-85.5
180.624	10.75
180.844	-34.3
181.064	-9.73
181.283	27.14
181.503	14.85
181.723	12.8
181.943	4.61
182.163	70.14
182.383	25.09
182.602	74.24
182.822	80.38
183.042	6.66
183.262	-48.64
183.482	33.28
183.701	-7.68
183.921	64
184.141	4.61
184.361	90.62
184.58	45.57
184.8	76.29
185.02	-11.78
185.239	113.15
185.459	4.61
185.679	55.81
185.898	-34.3
186.118	143.87
186.338	20.99
186.557	64
186.777	-3.58
186.997	70.14
187.216	25.09
187.436	45.57
187.655	68.09
187.875	82.43
188.095	18.94
188.314	10.75
188.534	53.76
188.753	49.66
188.973	31.23
189.192	37.38
189.412	49.66
189.631	70.14
189.851	23.04
190.07	78.33
190.29	45.57
190.509	94.72
190.729	43.52
190.948	66.05
191.168	162.3
191.387	80.38
191.607	92.67
191.826	55.81
192.045	68.09
192.265	86.53
192.484	20.99
192.704	-1.54
192.923	-32.26
193.142	66.05
193.362	33.28
193.581	41.47
193.8	4.61
194.02	86.53
194.239	102.91
194.458	70.14
194.678	20.99
194.897	31.23
195.116	45.57
195.335	57.86
195.555	51.71
195.774	-56.83
195.993	88.57
196.212	53.76
196.432	57.86
196.651	-13.82
196.87	14.85
197.089	168.45
197.308	45.57
197.528	102.91
197.747	-60.93
197.966	41.47
198.185	49.66
198.404	61.95
198.623	66.05
198.842	137.73
199.062	76.29
199.281	45.57
199.5	55.81
199.719	96.77
199.938	74.24
200.157	113.15
200.376	16.9
200.595	98.81
200.814	100.86
201.033	78.33
201.252	4.61
201.471	51.71
201.69	51.71
201.909	49.66
202.128	45.57
202.347	14.85
202.566	33.28
202.785	45.57
203.004	12.8
203.223	127.49
203.442	55.81
203.661	90.62
203.879	111.1
204.098	70.14
204.317	70.14
204.536	86.53
204.755	64
204.974	23.04
205.193	12.8
205.411	135.68
205.63	109.05
205.849	39.42
206.068	12.8
206.287	59.9
206.505	111.1
206.724	-5.63
206.943	-19.97
207.162	-28.16
207.381	-114.17
207.599	-15.87
207.818	59.9
208.037	-1.54
208.255	70.14
208.474	14.85
208.693	31.23
208.911	53.76
209.13	-24.06
209.349	-17.92
209.567	37.38
209.786	20.99
210.005	57.86
210.223	47.62
210.442	-65.02
210.661	45.57
210.879	49.66
211.098	27.14
211.316	74.24
211.535	172.54
211.753	37.38
211.972	53.76
212.191	25.09
212.409	-1.54
212.628	12.8
212.846	-9.73
213.065	23.04
213.283	129.53
213.502	2.56
213.72	20.99
213.938	74.24
214.157	25.09
214.375	66.05
214.594	-15.87
214.812	59.9
215.031	70.14
215.249	20.99
215.467	111.1
215.686	37.38
215.904	57.86
216.122	16.9
216.341	53.76
216.559	20.99
216.778	18.94
216.996	111.1
217.214	37.38
217.432	6.66
217.651	-42.5
217.869	-28.16
218.087	59.9
218.306	18.94
218.524	-9.73
218.742	53.76
218.96	-11.78
219.179	45.57
219.397	47.62
219.615	133.63
219.833	98.81
220.051	25.09
220.27	86.53
220.488	59.9
220.706	66.05
220.924	14.85
221.142	59.9
221.36	64
221.578	64
221.796	18.94
222.015	-28.16
222.233	-40.45
222.451	102.91
222.669	0.51
222.887	16.9
223.105	-3.58
223.323	31.23
223.541	41.47
223.759	107.01
223.977	92.67
224.195	39.42
224.413	14.85
224.631	111.1
224.849	-9.73
225.067	123.39
225.285	61.95
225.503	29.18
225.721	-19.97
225.939	-44.54
226.157	80.38
226.375	201.21
226.592	16.9
226.81	68.09
227.028	45.57
227.246	70.14
227.464	121.34
227.682	45.57
227.9	35.33
228.117	55.81
228.335	31.23
228.553	41.47
228.771	57.86
228.989	61.95
229.206	86.53
229.424	-19.97
229.642	49.66
229.86	18.94
230.077	47.62
230.295	45.57
230.513	70.14
230.731	94.72
230.948	82.43
231.166	174.59
231.384	8.7
231.601	39.42
231.819	86.53
232.037	27.14
232.254	-93.69
232.472	53.76
232.689	-17.92
232.907	94.72
233.125	27.14
233.342	-3.58
233.56	-26.11
233.777	61.95
233.995	64
234.213	135.68
234.43	14.85
234.648	53.76
234.865	4.61
235.083	6.66
235.3	43.52
235.518	90.62
235.735	98.81
235.953	86.53
236.17	80.38
236.388	66.05
236.605	29.18
236.822	70.14
237.04	74.24
237.257	39.42
237.475	102.91
237.692	88.57
237.909	70.14
238.127	45.57
238.344	59.9
238.562	23.04
238.779	37.38
238.996	33.28
239.214	-26.11
239.431	94.72
239.648	90.62
239.865	80.38
240.083	84.48
240.3	6.66
240.517	68.09
240.735	55.81
240.952	70.14
241.169	94.72
241.386	35.33
241.603	-11.78
241.821	-93.69
242.038	107.01
242.255	4.61
242.472	-13.82
242.689	8.7
242.907	-3.58
243.124	39.42
243.341	25.09
243.558	31.23
243.775	72.19
243.992	12.8
244.209	70.14
244.426	88.57
244.643	43.52
244.86	33.28
245.078	90.62
245.295	41.47
245.512	12.8
245.729	20.99
245.946	59.9
246.163	86.53
246.38	70.14
246.597	129.53
246.814	66.05
247.031	121.34
247.248	-30.21
247.464	-11.78
247.681	45.57
247.898	64
248.115	78.33
248.332	61.95
248.549	78.33
248.766	119.29
248.983	70.14
249.2	86.53
249.417	53.76
249.633	-22.02
249.85	57.86
250.067	-26.11
250.284	55.81
250.501	100.86
250.717	104.96
250.934	8.7
251.151	25.09
251.368	35.33
251.585	74.24
251.801	45.57
252.018	-15.87
252.235	43.52
252.451	66.05
252.668	39.42
252.885	16.9
253.102	45.57
253.318	-52.74
253.535	39.42
253.752	47.62
253.968	31.23
254.185	41.47
254.401	66.05
254.618	45.57
254.835	27.14
255.051	102.91
255.268	59.9
255.484	31.23
255.701	12.8
255.917	94.72
256.134	47.62
256.351	53.76
256.567	20.99
256.784	-11.78
257	37.38
257.217	70.14
257.433	45.57
257.65	170.49
257.866	98.81
258.082	-19.97
258.299	53.76
258.515	25.09
258.732	66.05
258.948	18.94
259.165	68.09
259.381	4.61
259.597	111.1
259.814	-7.68
260.03	-3.58
260.246	96.77
260.463	70.14
260.679	82.43
260.895	37.38
261.112	80.38
261.328	80.38
261.544	16.9
261.761	72.19
261.977	29.18
262.193	-3.58
262.409	88.57
262.626	25.09
262.842	94.72
263.058	-17.92
263.274	61.95
263.49	49.66
263.707	4.61
263.923	119.29
264.139	20.99
264.355	10.75
264.571	4.61
264.787	31.23
265.004	29.18
265.22	10.75
265.436	20.99
265.652	74.24
265.868	92.67
266.084	12.8
266.3	-5.63
266.516	-17.92
266.732	86.53
266.948	90.62
267.164	78.33
267.38	53.76
267.596	43.52
267.812	55.81
268.028	72.19
268.244	-69.12
268.46	37.38
268.676	-17.92
268.892	68.09
269.108	-19.97
269.324	-9.73
269.54	16.9
269.756	121.34
269.972	39.42
270.188	66.05
270.403	-40.45
270.619	53.76
270.835	41.47
271.051	29.18
271.267	70.14
271.483	41.47
271.698	-19.97
271.914	49.66
272.13	6.66
272.346	53.76
272.562	86.53
272.777	72.19
272.993	96.77
273.209	41.47
273.425	119.29
273.64	41.47
273.856	45.57
274.072	14.85
274.287	102.91
274.503	33.28
274.719	94.72
274.934	37.38
275.15	57.86
275.366	-3.58
275.581	12.8
275.797	25.09
276.012	64
276.228	47.62
276.444	20.99
276.659	37.38
276.875	-19.97
277.09	39.42
277.306	-1.54
277.521	72.19
277.737	6.66
277.952	45.57
278.168	53.76
278.383	64
278.599	78.33
278.814	109.05
279.03	25.09
279.245	47.62
279.461	33.28
279.676	104.96
279.892	29.18
280.107	14.85
280.322	8.7
280.538	53.76
280.753	-11.78
280.969	47.62
281.184	47.62
281.399	94.72
281.615	4.61
281.83	78.33
282.045	14.85
282.26	68.09
282.476	80.38
282.691	78.33
282.906	74.24
283.122	-3.58
283.337	16.9
283.552	55.81
283.767	29.18
283.983	74.24
284.198	72.19
284.413	100.86
284.628	16.9
284.843	94.72
285.058	78.33
285.274	-3.58
285.489	20.99
285.704	127.49
285.919	-44.54
286.134	31.23
286.349	80.38
286.564	53.76
286.779	123.39
286.995	49.66
287.21	-83.45
287.425	20.99
287.64	53.76
287.855	64
288.07	-44.54
288.285	125.44
288.5	-28.16
288.715	53.76
288.93	16.9
289.145	-7.68
289.36	80.38
289.575	104.96
289.79	104.96
290.004	31.23
290.219	143.87
290.434	55.81
290.649	23.04
290.864	64
291.079	80.38
291.294	41.47
291.509	35.33
291.724	127.49
291.938	37.38
292.153	23.04
292.368	23.04
292.583	29.18
292.798	94.72
293.012	88.57
293.227	-44.54
293.442	113.15
293.657	20.99
293.871	94.72
294.086	61.95
294.301	94.72
294.516	29.18
294.73	16.9
294.945	33.28
295.16	14.85
295.374	109.05
295.589	72.19
295.804	6.66
296.018	61.95
296.233	70.14
296.447	39.42
296.662	6.66
296.877	53.76
297.091	59.9
297.306	78.33
297.52	90.62
297.735	94.72
297.949	23.04
298.164	47.62
298.378	53.76
298.593	80.38
298.807	-42.5
299.022	0.51
299.236	47.62
299.451	82.43
299.665	55.81
299.88	78.33
300.094	55.81
300.309	90.62
300.523	96.77
300.737	31.23
300.952	23.04
301.166	25.09
301.381	-1.54
301.595	31.23
301.809	4.61
302.024	37.38
302.238	12.8
302.452	117.25
302.667	-1.54
302.881	70.14
303.095	137.73
303.309	55.81
303.524	37.38
303.738	-38.4
303.952	-36.35
304.166	96.77
304.381	-30.21
304.595	33.28
304.809	-17.92
305.023	92.67
305.237	59.9
305.452	49.66
305.666	102.91
305.88	64
306.094	64
306.308	49.66
306.522	96.77
306.736	131.58
306.95	78.33
307.164	102.91
307.379	-3.58
307.593	129.53
307.807	113.15
308.021	25.09
308.235	68.09
308.449	-28.16
308.663	16.9
308.877	104.96
309.091	31.23
309.305	37.38
309.519	16.9
309.733	64
309.947	14.85
310.161	135.68
310.374	53.76
310.588	49.66
310.802	25.09
311.016	123.39
311.23	27.14
311.444	-7.68
311.658	70.14
311.872	74.24
312.085	27.14
312.299	29.18
312.513	102.91
312.727	66.05
312.941	90.62
313.154	49.66
313.368	152.06
313.582	61.95
313.796	53.76
314.009	90.62
314.223	119.29
314.437	4.61
314.651	61.95
314.864	96.77
315.078	45.57
315.292	39.42
315.505	0.51
315.719	53.76
315.933	64
316.146	70.14
316.36	-26.11
316.573	152.06
316.787	45.57
317.001	61.95
317.214	8.7
317.428	61.95
317.641	4.61
317.855	49.66
318.068	-24.06
318.282	80.38
318.495	127.49
318.709	64
318.922	100.86
319.136	121.34
319.349	61.95
319.563	20.99
319.776	84.48
319.99	98.81
320.203	8.7
320.417	-3.58
320.63	-15.87
320.843	102.91
321.057	41.47
321.27	94.72
321.483	45.57
321.697	139.77
321.91	47.62
322.124	119.29
322.337	45.57
322.55	37.38
322.763	37.38
322.977	80.38
323.19	12.8
323.403	104.96
323.617	39.42
323.83	57.86
324.043	70.14
324.256	18.94
324.469	10.75
324.683	80.38
324.896	80.38
325.109	64
325.322	31.23
325.535	39.42
325.748	94.72
325.962	25.09
326.175	88.57
326.388	102.91
326.601	143.87
326.814	94.72
327.027	4.61
327.24	66.05
327.453	20.99
327.666	-3.58
327.879	66.05
328.092	4.61
328.305	20.99
328.518	31.23
328.731	12.8
328.944	94.72
329.157	20.99
329.37	47.62
329.583	186.88
329.796	119.29
330.009	-3.58
330.222	4.61
330.435	37.38
330.648	119.29
330.861	45.57
331.073	41.47
331.286	117.25
331.499	150.01
331.712	57.86
331.925	49.66
332.138	57.86
332.35	137.73
332.563	23.04
332.776	25.09
332.989	-19.97
333.202	82.43
333.414	82.43
333.627	74.24
333.84	64
334.053	70.14
334.265	20.99
334.478	70.14
334.691	78.33
334.903	74.24
335.116	20.99
335.329	96.77
335.541	88.57
335.754	145.92
335.966	-3.58
336.179	86.53
336.392	61.95
336.604	20.99
336.817	-40.45
337.029	-17.92
337.242	33.28
337.454	86.53
337.667	-9.73
337.88	143.87
338.092	57.86
338.305	94.72
338.517	-15.87
338.729	20.99
338.942	135.68
339.154	-24.06
339.367	-3.58
339.579	61.95
339.792	-42.5
340.004	84.48
340.217	23.04
340.429	90.62
340.641	45.57
340.854	55.81
341.066	45.57
341.278	88.57
341.491	70.14
341.703	4.61
341.915	98.81
342.128	74.24
342.34	14.85
342.552	33.28
342.764	86.53
342.977	72.19
343.189	66.05
343.401	68.09
343.613	37.38
343.826	37.38
344.038	-7.68
344.25	72.19
344.462	20.99
344.674	102.91
344.886	82.43
345.099	100.86
345.311	66.05
345.523	98.81
345.735	37.38
345.947	94.72
346.159	51.71
346.371	96.77
346.583	64
346.795	115.2
347.007	102.91
347.219	31.23
347.431	94.72
347.643	186.88
347.855	70.14
348.067	131.58
348.279	20.99
348.491	80.38
348.703	45.57
348.915	90.62
349.127	20.99
349.339	74.24
349.551	12.8
349.763	107.01
349.975	4.61
350.187	111.1
350.399	143.87
350.61	6.66
350.822	12.8
351.034	37.38
351.246	33.28
351.458	64
351.669	49.66
351.881	86.53
352.093	57.86
352.305	127.49
352.517	78.33
352.728	168.45
352.94	55.81
353.152	92.67
353.363	119.29
353.575	29.18
353.787	127.49
353.999	70.14
354.21	102.91
354.422	6.66
354.633	45.57
354.845	78.33
355.057	33.28
355.268	70.14
355.48	20.99
355.692	-11.78
355.903	8.7
356.115	135.68
356.326	16.9
356.538	152.06
356.749	74.24
356.961	135.68
357.172	39.42
357.384	16.9
357.595	121.34
357.807	29.18
358.018	90.62
358.23	49.66
358.441	248.32
358.653	4.61
358.864	39.42
359.075	53.76
359.287	-3.58
359.498	123.39
359.709	33.28
359.921	12.8
360.132	6.66
360.344	55.81
360.555	-15.87
360.766	96.77
360.977	72.19
361.189	20.99
361.4	61.95
361.611	-28.16
361.823	39.42
362.034	129.53
362.245	4.61
362.456	70.14
362.667	98.81
362.879	61.95
363.09	111.1
363.301	78.33
363.512	39.42
363.723	90.62
363.935	41.47
364.146	102.91
364.357	82.43
364.568	53.76
364.779	6.66
364.99	113.15
365.201	86.53
365.412	137.73
365.623	0.51
365.834	80.38
366.045	66.05
366.256	49.66
366.467	66.05
366.678	70.14
366.889	43.52
367.1	94.72
367.311	47.62
367.522	10.75
367.733	70.14
367.944	70.14
368.155	20.99
368.366	47.62
368.577	55.81
368.788	82.43
368.999	94.72
369.209	88.57
369.42	88.57
369.631	131.58
369.842	98.81
370.053	94.72
370.264	129.53
370.474	51.71
370.685	70.14
370.896	64
371.107	78.33
371.317	70.14
371.528	14.85
371.739	127.49
371.95	88.57
372.16	53.76
372.371	80.38
372.582	119.29
372.792	53.76
373.003	43.52
373.214	64
373.424	25.09
373.635	80.38
373.846	119.29
374.056	66.05
374.267	86.53
374.477	66.05
374.688	139.77
374.898	45.57
375.109	123.39
375.319	59.9
375.53	102.91
375.74	61.95
375.951	-36.35
376.161	23.04
376.372	78.33
376.582	66.05
376.793	61.95
377.003	72.19
377.214	23.04
377.424	100.86
377.635	119.29
377.845	86.53
378.055	121.34
378.266	57.86
378.476	107.01
378.686	94.72
378.897	127.49
379.107	147.97
379.317	104.96
379.528	107.01
379.738	90.62
379.948	-1.54
380.158	78.33
380.369	59.9
380.579	78.33
380.789	39.42
380.999	57.86
381.21	29.18
381.42	152.06
381.63	82.43
381.84	61.95
382.05	55.81
382.261	115.2
382.471	154.11
382.681	29.18
382.891	80.38
383.101	107.01
383.311	12.8
383.521	76.29
383.731	82.43
383.941	94.72
384.151	145.92
384.361	64
384.571	45.57
384.781	31.23
384.991	162.3
385.201	37.38
385.411	145.92
385.621	186.88
385.831	135.68
386.041	45.57
386.251	45.57
386.461	115.2
386.671	57.86
386.881	88.57
387.091	84.48
387.301	119.29
387.511	18.94
387.72	88.57
387.93	72.19
388.14	37.38
388.35	33.28
388.56	86.53
388.769	186.88
388.979	98.81
389.189	70.14
389.399	57.86
389.609	158.21
389.818	70.14
390.028	72.19
390.238	94.72
390.447	147.97
390.657	70.14
390.867	27.14
391.076	25.09
391.286	82.43
391.496	100.86
391.705	20.99
391.915	141.82
392.125	41.47
392.334	104.96
392.544	207.36
392.753	121.34
392.963	90.62
393.172	70.14
393.382	61.95
393.591	180.73
393.801	119.29
394.01	137.73
394.22	178.69
394.429	80.38
394.639	37.38
394.848	119.29
395.058	100.86
395.267	137.73
395.477	90.62
395.686	111.1
395.895	154.11
396.105	209.4
396.314	90.62
396.524	160.25
396.733	133.63
396.942	80.38
397.152	119.29
397.361	145.92
397.57	119.29
397.78	115.2
397.989	127.49
398.198	211.45
398.407	94.72
398.617	193.02
398.826	53.76
399.035	135.68
399.244	137.73
399.453	41.47
399.663	137.73
399.872	152.06
400.081	115.2
400.29	184.83
400.499	117.25
400.708	176.64
400.917	170.49
401.127	125.44
401.336	102.91
401.545	174.59
401.754	139.77
401.963	90.62
402.172	92.67
402.381	137.73
402.59	78.33
402.799	184.83
403.008	150.01
403.217	145.92
403.426	141.82
403.635	213.5
403.844	119.29
404.053	133.63
404.262	201.21
404.471	236.03
404.68	102.91
404.888	152.06
405.097	168.45
405.306	178.69
405.515	205.31
405.724	195.07
405.933	186.88
406.142	236.03
406.35	238.08
406.559	225.79
406.768	207.36
406.977	293.37
407.185	172.54
407.394	258.56
407.603	176.64
407.812	342.52
408.02	279.04
408.229	246.27
408.438	311.8
408.646	270.84
408.855	283.13
409.064	299.52
409.272	303.61
409.481	342.52
409.69	348.67
409.898	360.95
410.107	373.24
410.315	320
410.524	315.9
410.733	389.63
410.941	457.21
411.15	465.4
411.358	436.73
411.567	539.13
411.775	479.74
411.984	496.12
412.192	553.46
412.401	567.8
412.609	610.81
412.818	573.94
413.026	612.85
413.234	631.29
413.443	670.2
413.651	662.01
413.86	596.47
414.068	743.92
414.276	737.78
414.485	717.3
414.693	856.56
414.901	948.72
415.11	831.99
415.318	776.69
415.526	926.19
415.734	989.68
415.943	961.01
416.151	971.25
416.359	1067.5
416.567	1022.45
416.776	1049.07
416.984	1174
417.192	1180.14
417.4	1155.57
417.608	1241.58
417.817	1200.62
418.025	1329.64
418.233	1341.93
418.441	1282.54
418.649	1386.99
418.857	1464.81
419.065	1585.64
419.273	1520.1
419.481	1649.13
419.689	1692.13
419.897	1849.83
420.105	1851.88
420.313	1882.6
420.521	1876.45
420.729	2093.54
420.937	2056.67
421.145	2111.97
421.353	2208.22
421.561	2314.72
421.769	2343.39
421.977	2447.83
422.185	2552.28
422.393	2595.29
422.601	2773.46
422.809	2816.47
423.017	2767.32
423.224	2984.4
423.432	3066.32
423.64	3080.66
423.848	3316.17
424.056	3187.15
424.263	3420.62
424.471	3412.43
424.679	3432.91
424.887	3766.73
425.094	3738.05
425.302	3731.91
425.51	4094.4
425.718	4129.22
425.925	4082.11
426.133	4366.78
426.341	4360.64
426.548	4622.78
426.756	4616.63
426.964	4567.48
427.171	5018.04
427.379	5011.89
427.586	5116.34
427.794	5423.53
428.001	5661.1
428.209	5839.27
428.417	5806.5
428.624	6263.2
428.832	6302.11
429.039	6185.38
429.247	6085.03
429.454	6691.23
429.662	7127.44
429.869	6732.19
430.076	7184.79
430.284	6889.88
430.491	7373.2
430.699	7670.15
430.906	7647.63
431.114	7817.61
431.321	7979.4
431.528	8249.73
431.736	8593.79
431.943	9089.4
432.15	8866.17
432.358	9056.63
432.565	9417.07
432.772	9462.13
432.979	9632.11
433.187	9951.59
433.394	10152.29
433.601	10580.32
433.808	10690.91
434.016	10611.04
434.223	11309.4
434.43	11729.23
434.637	11702.61
434.844	12308.8
435.052	12554.56
435.259	12534.08
435.466	12421.44
435.673	12349.76
435.88	13185.33
436.087	13904.17
436.294	13785.39
436.501	13756.72
436.708	13996.33
436.915	14281
437.122	15112.47
437.329	14838.05
437.537	15384.85
437.743	15593.75
437.95	15171.86
438.157	16343.3
438.364	16664.83
438.571	16894.21
438.778	16818.43
438.985	18766.05
439.192	17686.77
439.399	18077.93
439.606	17926.38
439.813	18591.97
440.02	20076.75
440.227	19783.89
440.433	19644.63
440.64	20261.07
440.847	20009.17
441.054	20506.82
441.261	21788.85
441.467	21442.74
441.674	21778.61
441.881	22792.36
442.088	22448.3
442.294	22155.44
442.501	23019.68
442.708	23494.81
442.914	24459.4
443.121	25385.08
443.328	24780.93
443.534	26835.05
443.741	25690.23
443.948	25350.27
444.154	27261.02
444.361	27310.18
444.568	27070.56
444.774	27230.3
444.981	27279.46
445.187	28262.48
445.394	29458.49
445.6	29020.23
445.807	31766.56
446.013	30365.74
446.22	30871.59
446.426	32372.75
446.633	32704.52
446.839	33568.77
447.046	32102.42
447.252	34209.78
447.459	33912.83
447.665	33574.91
447.871	35280.87
448.078	36904.91
448.284	35039.21
448.491	36141.02
448.697	37300.17
448.903	38315.96
449.11	38260.66
449.316	37928.89
449.522	38350.77
449.728	39288.74
449.935	39714.72
450.141	39475.11
450.347	40462.23
450.553	39217.07
450.76	39505.83
450.966	41138.06
451.172	40378.26
451.378	41574.28
451.584	40591.25
451.791	41785.22
451.997	41211.79
452.203	42190.72
452.409	42604.41
452.615	42110.85
452.821	40357.78
453.027	39931.81
453.233	42491.77
453.44	40210.33
453.646	41099.15
453.852	41166.73
454.058	42133.37
454.264	40677.27
454.47	41463.69
454.676	40380.31
454.882	41486.21
455.088	38051.77
455.294	38784.94
455.5	39139.24
455.705	39657.38
455.911	37834.69
456.117	37355.46
456.323	36962.25
456.529	35094.5
456.735	36134.87
456.941	35452.9
457.147	35280.87
457.352	33990.65
457.558	33253.38
457.764	33961.98
457.97	32884.75
458.176	32329.75
458.381	32294.93
458.587	30445.62
458.793	30578.73
458.999	29245.51
459.204	31043.62
459.41	30074.93
459.616	28616.78
459.821	28303.44
460.027	28268.62
460.233	27701.34
460.438	26200.18
460.644	26243.18
460.85	25104.51
461.055	25118.85
461.261	24645.77
461.466	23251.1
461.672	22153.39
461.878	24105.1
462.083	22126.77
462.289	21989.55
462.494	21762.23
462.7	20838.59
462.905	20234.44
463.111	20908.22
463.316	20816.07
463.522	20371.66
463.727	20549.83
463.932	20746.44
464.138	20080.85
464.343	20259.02
464.549	19560.66
464.754	20375.75
464.959	20097.23
465.165	19886.29
465.37	19183.84
465.575	18555.11
465.781	19208.41
465.986	19306.71
466.191	18753.76
466.397	18323.69
466.602	17293.56
466.807	18055.4
467.012	18186.47
467.218	18086.12
467.423	17807.6
467.628	17664.24
467.833	18612.45
468.038	17975.53
468.244	17428.73
468.449	18176.23
468.654	17428.73
468.859	17393.91
469.064	17500.4
469.269	16601.35
469.474	16486.66
469.679	16992.51
469.885	16421.13
470.09	16601.35
470.295	16548.1
470.5	16316.68
470.705	16331.01
470.91	15952.14
471.115	15759.63
471.32	16036.11
471.525	16068.87
471.73	15513.88
471.935	15659.28
472.139	14821.66
472.344	15042.84
472.549	14913.82
472.754	14924.06
472.959	14682.4
473.164	14340.39
473.369	14045.48
473.574	14528.8
473.778	14244.13
473.983	14094.63
474.188	14178.6
474.393	13500.72
474.598	13744.43
474.802	13560.11
475.007	13496.63
475.212	13160.76
475.417	12888.38
475.621	13160.76
475.826	13127.99
476.031	12857.66
476.235	12486.98
476.44	12759.36
476.645	12382.53
476.849	12529.98
477.054	12241.22
477.259	12147.01
477.463	12089.67
477.668	11850.06
477.872	11868.49
478.077	11759.95
478.282	11444.56
478.486	11649.36
478.691	11415.89
478.895	11325.78
479.1	11147.61
479.304	11223.38
479.509	10959.19
479.713	11295.06
479.918	10910.04
480.122	10594.65
480.326	10867.03
480.531	10801.5
480.735	10615.13
480.94	10453.34
481.144	11039.06
481.348	10604.89
481.553	10578.27
481.757	10164.58
481.961	10484.06
482.166	10590.56
482.37	10467.68
482.574	10115.43
482.778	10502.5
482.983	10334.56
483.187	10393.95
483.391	10418.53
483.595	10201.44
483.8	10262.88
484.004	10312.03
484.208	10547.55
484.412	10289.51
484.616	10381.67
484.821	10234.21
485.025	10217.83
485.229	10490.21
485.433	10434.91
485.637	10248.55
485.841	10066.28
486.045	10160.48
486.249	10178.92
486.453	10428.77
486.657	10213.73
486.861	10094.95
487.065	10076.52
487.269	10295.65
487.473	10074.47
487.677	10156.39
487.881	10170.72
488.085	10226.02
488.289	10264.93
488.493	10187.11
488.697	10273.12
488.901	10266.98
489.105	10342.75
489.309	10475.87
489.512	10475.87
489.716	10363.23
489.92	10277.22
490.124	10156.39
490.328	10393.95
490.531	10260.84
490.735	10498.4
490.939	10385.76
491.143	10350.95
491.346	10387.81
491.55	10608.99
491.754	10486.11
491.958	10572.13
492.161	10492.26
492.365	10828.12
492.569	10662.24
492.772	10596.7
492.976	10762.59
493.18	10944.86
493.383	11047.26
493.587	10901.85
493.79	10910.04
493.994	10850.65
494.197	11000.15
494.401	11213.14
494.605	11094.36
494.808	11252.05
495.012	11362.64
495.215	11432.27
495.419	11514.19
495.622	11549.01
495.825	11725.13
496.029	11620.69
496.232	11897.16
496.436	11759.95
496.639	12077.38
496.843	11778.38
497.046	12353.86
497.249	12331.33
497.453	12124.49
497.656	12474.69
497.859	12294.47
498.063	12441.92
498.266	12867.9
498.469	12822.84
498.673	13060.41
498.876	13119.8
499.079	13228.34
499.282	13259.06
499.485	13685.04
499.689	13340.98
499.892	13541.68
500.095	13693.23
500.298	14063.91
500.501	13902.12
500.705	14504.23
500.908	14278.95
501.111	14485.79
501.314	14768.41
501.517	14864.67
501.72	15112.47
501.923	14745.89
502.126	15325.46
502.329	15366.42
502.532	15694.1
502.735	15683.86
502.938	15866.13
503.141	16130.31
503.344	16197.9
503.547	16281.86
503.75	16513.28
503.953	16718.08
504.156	16926.97
504.359	17066.24
504.562	16937.21
504.765	17412.34
504.968	17559.8
505.17	17686.77
505.373	17862.9
505.576	18180.33
505.779	18258.15
505.982	18170.09
506.185	18680.03
506.387	18665.7
506.59	18862.3
506.793	19376.34
506.996	18890.98
507.198	19787.99
507.401	19388.63
507.604	19757.27
507.807	20205.77
508.009	20263.11
508.212	20410.57
508.415	20652.23
508.617	20963.52
508.82	20951.23
509.022	21004.48
509.225	21428.41
509.428	21471.42
509.63	21756.08
509.833	21696.69
510.035	22194.35
510.238	22120.62
510.44	22409.39
510.643	23097.5
510.845	23214.24
511.048	23115.94
511.25	23367.84
511.453	23541.91
511.655	24322.19
511.858	24055.95
512.06	24137.87
512.262	24445.07
512.465	24510.6
512.667	24959.11
512.87	25313.41
513.072	25016.45
513.274	25917.56
513.477	25845.88
513.679	26050.67
513.881	26304.62
514.084	26478.7
514.286	26400.88
514.488	26859.62
514.69	27672.67
514.893	27234.4
515.095	27799.64
515.297	27799.64
515.499	27932.76
515.701	28381.26
515.904	28459.09
516.106	28395.6
516.308	29284.42
516.51	29163.59
516.712	29136.96
516.914	29552.7
517.116	29851.7
517.318	30224.43
517.52	30113.84
517.722	30099.51
517.925	30474.29
518.127	30685.23
518.329	31027.24
518.531	31033.38
518.733	31647.77
518.935	31875.1
519.136	31846.43
519.338	32077.85
519.54	32280.6
519.742	32917.51
519.944	32892.94
520.146	33292.29
520.348	32995.34
520.55	33560.58
520.752	33636.35
520.954	34088.95
521.155	33943.55
521.357	33869.82
521.559	34777.07
521.761	34969.58
521.963	34750.45
522.164	34715.63
522.366	34998.25
522.568	35364.84
522.77	35493.86
522.971	35807.2
523.173	35874.78
523.375	35557.35
523.576	36104.15
523.778	35913.69
523.98	36493.27
524.181	36638.67
524.383	36450.26
524.584	37021.64
524.786	36638.67
524.988	36712.4
525.189	36966.35
525.391	37101.51
525.592	37210.06
525.794	37382.09
525.995	37615.55
526.197	37431.24
526.398	37689.28
526.6	37763.01
526.801	38029.24
527.003	37773.25
527.204	37756.86
527.406	38062.01
527.607	37885.89
527.808	38383.54
528.01	37312.45
528.211	37838.78
528.412	38191.03
528.614	38031.29
528.815	38606.77
529.016	38651.83
529.218	37973.95
529.419	38363.06
529.62	37857.21
529.822	38305.72
530.023	38021.05
530.224	38287.29
530.425	38213.56
530.626	38082.49
530.828	37713.86
531.029	38588.34
531.23	37812.16
531.431	37832.64
531.632	37969.85
531.833	38332.34
532.035	37955.52
532.236	38295.48
532.437	38698.93
532.638	38410.17
532.839	37881.79
533.04	38250.42
533.241	37670.85
533.442	38348.73
533.643	37939.13
533.844	38244.28
534.045	37908.41
534.246	37672.9
534.447	38049.72
534.648	37732.29
534.849	37701.57
535.05	37193.67
535.251	37728.19
535.451	37507.01
535.652	37838.78
535.853	37668.8
536.054	37803.97
536.255	37945.28
536.456	37152.71
536.657	37926.85
536.857	37617.6
537.058	37257.16
537.259	37734.34
537.46	37369.8
537.66	37261.26
537.861	37560.26
538.062	37431.24
538.263	37498.82
538.463	37609.41
538.664	37128.14
538.865	37126.09
539.065	37476.29
539.266	36861.9
539.466	37261.26
539.667	37040.07
539.868	37312.45
540.068	36984.78
540.269	36966.35
540.469	37144.52
540.67	36763.6
540.87	36798.41
541.071	36804.56
541.271	36980.68
541.472	37167.05
541.672	36984.78
541.873	37103.56
542.073	36407.25
542.274	37009.36
542.474	36880.33
542.675	36593.62
542.875	36818.89
543.075	36579.28
543.276	36741.07
543.476	36857.81
543.676	36528.08
543.877	36616.15
544.077	37173.19
544.277	36446.16
544.478	36673.49
544.678	36898.76
544.878	36595.67
545.078	36675.54
545.279	36947.92
545.479	36089.82
545.679	36782.03
545.879	36743.12
546.079	36603.86
546.28	36372.44
546.48	36407.25
546.68	36526.03
546.88	36855.76
547.08	36685.78
547.28	36241.37
547.48	36095.96
547.68	36560.85
547.88	36351.96
548.081	36808.65
548.281	36454.36
548.481	36345.81
548.681	36601.81
548.881	36261.85
549.081	36421.59
549.28	35964.89
549.48	36593.62
549.68	36284.37
549.88	36880.33
550.08	35930.08
550.28	36532.18
550.48	36464.6
550.68	36415.44
550.88	36151.26
551.08	36087.77
551.279	36579.28
551.479	36030.43
551.679	36493.27
551.879	36317.14
552.079	36597.71
552.278	36358.1
552.478	36294.61
552.678	36706.26
552.878	36796.37
553.077	36507.6
553.277	35962.84
553.477	36640.72
553.676	36511.7
553.876	36450.26
554.076	36397.01
554.275	36458.45
554.475	36032.47
554.674	36677.58
554.874	36544.47
555.074	36493.27
555.273	36610
555.473	36761.55
555.672	36419.54
555.872	36483.03
556.071	36446.16
556.271	36739.02
556.47	36423.64
556.67	35876.83
556.869	36480.98
557.068	36710.35
557.268	36476.88
557.467	36091.87
557.667	36612.05
557.866	36771.79
558.065	36736.98
558.265	36302.81
558.464	36472.79
558.663	36837.33
558.863	36288.47
559.062	36718.54
559.261	36251.61
559.461	36683.73
559.66	36108.25
559.859	36562.9
560.058	36077.53
560.258	36452.31
560.457	36341.72
560.656	36298.71
560.855	36345.81
561.054	36380.63
561.253	35999.71
561.453	36507.6
561.652	36513.75
561.851	36595.67
562.05	36417.49
562.249	35997.66
562.448	36614.1
562.647	36237.27
562.846	36704.21
563.045	36405.2
563.244	35987.42
563.443	36573.14
563.642	35477.47
563.841	35909.6
564.04	35901.4
564.239	36487.12
564.438	36042.71
564.637	36186.07
564.836	35889.12
565.035	35799.01
565.234	36364.25
565.432	35559.39
565.631	35358.69
565.83	35864.54
566.029	35504.1
566.228	35305.45
566.427	35510.24
566.625	35391.46
566.824	35198.95
567.023	35608.54
567.222	34932.71
567.42	35633.12
567.619	35500
567.818	34969.58
568.016	35106.79
568.215	35205.09
568.414	35241.96
568.612	35422.18
568.811	34836.46
569.01	35141.61
569.208	34566.13
569.407	35139.56
569.605	34787.31
569.804	34842.6
570.002	34877.42
570.201	34961.39
570.4	34619.38
570.598	34275.32
570.797	34281.46
570.995	34463.73
571.193	34209.78
571.392	34271.22
571.59	33976.31
571.789	34355.19
571.987	34154.49
572.186	34387.96
572.384	33900.54
572.582	34119.67
572.781	34004.99
572.979	33245.19
573.177	33714.17
573.376	33525.76
573.574	33566.72
573.772	33894.39
573.971	33208.33
574.169	33193.99
574.367	33275.91
574.565	33447.94
574.763	33157.13
574.962	33038.34
575.16	32714.76
575.358	32802.83
575.556	32501.78
575.754	32884.75
575.952	32606.22
576.151	33040.39
576.349	32344.08
576.547	32317.46
576.745	32309.27
576.943	32231.44
577.141	32268.31
577.339	32120.85
577.537	32118.81
577.735	31877.15
577.933	32026.65
578.131	31922.2
578.329	31891.48
578.527	31492.13
578.725	31524.89
578.923	31563.81
579.121	31586.33
579.319	31463.46
579.516	31442.98
579.714	31076.39
579.912	31070.25
580.11	31422.5
580.308	31272.99
580.506	31363.11
580.704	30668.84
580.901	30849.07
581.099	31199.27
581.297	30539.82
581.495	30922.79
581.692	30806.06
581.89	30337.07
582.088	30718
582.285	30597.17
582.483	30584.88
582.681	30179.38
582.878	30048.31
583.076	29894.71
583.274	30220.34
583.471	30081.08
583.669	29986.87
583.866	29839.42
584.064	29851.7
584.262	29548.61
584.459	29474.88
584.657	29538.37
584.854	29761.59
585.052	29255.75
585.249	29675.58
585.447	29556.8
585.644	29020.23
585.841	29007.94
586.039	29288.51
586.236	28864.58
586.434	29161.54
586.631	29073.48
586.828	28682.31
587.026	28987.46
587.223	28690.51
587.42	28325.97
587.618	28606.54
587.815	28330.06
588.012	28678.22
588.21	28170.32
588.407	28438.61
588.604	28330.06
588.801	28207.19
588.999	28237.91
589.196	27906.13
589.393	27992.15
589.59	28112.98
589.787	27879.51
589.984	27715.67
590.182	27404.38
590.379	27752.54
590.576	27654.23
590.773	27525.21
590.97	27406.43
591.167	27689.05
591.364	27224.16
591.561	27416.67
591.758	27236.45
591.955	27453.53
592.152	27390.05
592.349	27369.57
592.546	27136.1
592.743	27226.21
592.94	26656.87
593.137	27119.71
593.334	27222.11
593.531	26527.85
593.727	26779.75
593.924	27101.28
594.121	26900.58
594.318	26693.74
594.515	26374.25
594.712	26681.45
594.908	26484.84
595.105	26628.2
595.302	26302.57
595.499	26648.68
595.696	26550.38
595.892	26183.79
596.089	26536.04
596.286	26118.26
596.482	26253.42
596.679	26071.15
596.876	26093.68
597.072	26359.92
597.269	26220.66
597.466	25665.66
597.662	26042.48
597.859	26062.96
598.055	25950.32
598.252	25632.89
598.448	25749.62
598.645	25645.18
598.841	25688.18
599.038	25731.19
599.234	25741.43
599.431	25419.9
599.627	25591.93
599.824	25829.49
600.02	25421.95
600.217	26005.62
600.413	25798.77
600.609	25499.77
600.806	25559.16
601.002	25780.34
601.198	25268.35
601.395	25471.1
601.591	25538.68
601.787	25276.54
601.984	25444.48
602.18	25723
602.376	25733.24
602.572	25604.22
602.769	25645.18
602.965	25432.19
603.161	25639.03
603.357	25499.77
603.553	25772.15
603.75	25380.99
603.946	25462.91
604.142	25903.22
604.338	25356.41
604.534	25927.8
604.73	25352.32
604.926	25544.83
605.122	25481.34
605.318	25303.17
605.514	25153.66
605.71	25610.36
605.906	25565.31
606.102	25550.97
606.298	25485.44
606.494	25628.79
606.69	25591.93
606.886	25878.65
607.082	25452.67
607.278	26159.22
607.474	25360.51
607.67	25673.85
607.866	25147.52
608.062	25839.73
608.257	25645.18
608.453	25837.69
608.649	26005.62
608.845	25706.62
609.041	25970.8
609.236	25802.87
609.432	25843.83
609.628	25636.98
609.824	25962.61
610.019	25624.7
610.215	25897.08
610.411	25675.9
610.606	25809.01
610.802	26015.86
610.998	26177.65
611.193	25876.6
611.389	26060.91
611.584	26249.33
611.78	25858.17
611.976	26138.74
612.171	26001.52
612.367	26116.21
612.562	26198.13
612.758	26157.17
612.953	25723
613.149	26194.03
613.344	26241.14
613.539	26552.43
613.735	26478.7
613.93	26200.18
614.126	26394.73
614.321	26464.36
614.517	26466.41
614.712	26134.64
614.907	26185.84
615.103	26579.05
615.298	26343.53
615.493	26321.01
615.688	26007.67
615.884	26622.06
616.079	26275.95
616.274	26599.53
616.47	26091.63
616.665	26445.93
616.86	26204.27
617.055	26157.17
617.25	26130.55
617.445	26390.64
617.641	26032.24
617.836	26497.13
618.031	26128.5
618.226	26544.23
618.421	26040.43
618.616	26228.85
618.811	25712.76
619.006	26075.25
619.201	25702.52
619.396	26144.88
619.591	25440.38
619.786	25643.13
619.981	25192.58
620.176	25901.17
620.371	25675.9
620.566	25317.5
620.761	25297.02
620.956	25469.05
621.151	24750.21
621.346	25145.47
621.541	24873.09
621.735	25301.12
621.93	24727.69
622.125	24817.8
622.32	24457.35
622.515	24758.41
622.709	24475.79
622.904	24402.06
623.099	24162.45
623.294	24148.11
623.488	24004.75
623.683	23875.73
623.878	23527.58
624.072	23795.86
624.267	23779.48
624.462	23613.59
624.656	23328.92
624.851	23529.62
625.046	23126.18
625.24	23416.99
625.435	22872.23
625.629	23050.4
625.824	22786.21
626.018	22732.97
626.213	22282.41
626.407	22720.68
626.602	22274.22
626.796	22284.46
626.991	22360.23
627.185	22044.85
627.38	22040.75
627.574	21835.95
627.768	21575.86
627.963	21602.49
628.157	21534.9
628.352	21840.05
628.546	21205.18
628.74	21219.52
628.935	20981.95
629.129	21344.44
629.323	20912.32
629.517	20793.54
629.712	20687.04
629.906	20977.86
630.1	20291.79
630.294	20627.65
630.489	20400.33
630.683	20123.85
630.877	20240.59
631.071	19964.11
631.265	20216.01
631.459	19636.44
631.653	19874
631.848	19824.85
632.042	19466.45
632.236	19681.49
632.43	18938.08
632.624	19278.04
632.818	19189.98
633.012	18985.18
633.206	19056.86
633.4	19187.93
633.594	18804.96
633.788	18903.26
633.982	18802.91
634.176	18487.53
634.369	18348.26
634.563	18675.94
634.757	18354.41
634.951	18295.02
635.145	18163.95
635.339	18161.9
635.533	18030.83
635.726	18137.32
635.92	17293.56
636.114	17694.96
636.308	17567.99
636.501	17445.11
636.695	17371.38
636.889	17248.5
637.083	17127.67
637.276	17070.33
637.47	16974.08
637.664	16904.45
637.857	16666.88
638.051	16802.05
638.244	16593.15
638.438	16703.75
638.632	16285.96
638.825	16355.59
639.019	16109.83
639.212	16007.44
639.406	16163.08
639.599	15802.64
639.793	15894.8
639.986	15728.91
640.18	15612.18
640.373	15483.16
640.567	15362.33
640.76	15603.99
640.954	15370.52
641.147	15180.06
641.34	15229.21
641.534	15143.19
641.727	15235.35
641.92	14823.71
642.114	14586.15
642.307	14790.94
642.5	14774.56
642.694	14264.61
642.887	14356.77
643.08	14502.18
643.273	14250.28
643.467	14115.11
643.66	14145.83
643.853	13816.11
644.046	13834.54
644.239	13885.74
644.432	13691.18
644.626	13510.96
644.819	13553.97
645.012	13619.5
645.205	13543.73
645.398	13582.64
645.591	13183.29
645.784	13320.5
645.977	13089.08
646.17	13273.4
646.363	12982.59
646.556	13048.12
646.749	12882.24
646.942	12863.8
647.135	12726.59
647.328	12534.08
647.521	12499.27
647.714	12446.02
647.907	12691.77
648.099	12251.46
648.292	12276.04
648.485	12128.58
648.678	12046.66
648.871	12087.62
649.064	11929.93
649.256	12108.1
649.449	11731.28
649.642	11913.55
649.835	11563.34
650.027	11718.99
650.22	11419.99
650.413	11678.03
650.605	11632.97
650.798	11567.44
650.991	11356.5
651.183	11415.89
651.376	11235.67
651.568	11137.37
651.761	10965.34
651.954	10994.01
652.146	11252.05
652.339	10819.93
652.531	10924.38
652.724	10809.69
652.916	10664.29
653.109	10502.5
653.301	10518.88
653.494	10891.61
653.686	10330.47
653.879	10649.95
654.071	10385.76
654.263	10406.24
654.456	10340.71
654.648	10504.54
654.84	10144.1
655.033	10056.04
655.225	10166.63
655.417	10039.65
655.61	10056.04
655.802	9867.63
655.994	9748.84
656.186	9896.3
656.379	9703.79
656.571	9740.65
656.763	9664.88
656.955	9439.6
657.148	9714.03
657.34	9482.61
657.532	9546.09
657.724	9433.46
657.916	9433.46
658.108	9337.2
658.3	9132.4
658.492	9253.23
658.684	8960.38
658.876	9103.73
659.068	9091.45
659.26	8900.98
659.452	8892.79
659.644	9009.53
659.836	8829.31
660.028	8761.72
660.22	8671.61
660.412	8610.17
660.604	8855.93
660.796	8561.02
660.988	8644.99
661.18	8755.58
661.372	8440.19
661.563	8556.93
661.755	8221.06
661.947	8173.96
662.139	8362.37
662.331	8339.84
662.522	7999.88
662.714	8380.8
662.906	8034.69
663.097	7917.96
663.289	7750.03
663.481	8032.65
663.673	7917.96
663.864	7885.19
664.056	7696.78
664.247	7793.03
664.439	7680.39
664.631	7698.83
664.822	7618.96
665.014	7666.06
665.205	7469.45
665.397	7502.22
665.588	7518.61
665.78	7334.29
665.971	7326.1
666.163	7383.44
666.354	7367.06
666.546	7205.27
666.737	7373.2
666.929	7219.6
667.12	7215.51
667.311	7070.1
667.503	7170.45
667.694	7129.49
667.885	6957.46
668.077	6910.36
668.268	6820.25
668.459	7037.33
668.651	6830.49
668.842	6885.78
669.033	6713.75
669.224	6658.46
669.416	6756.76
669.607	6699.42
669.798	6556.06
669.989	6750.62
670.18	6590.88
670.371	6427.04
670.563	6451.61
670.754	6504.86
670.945	6394.27
671.136	6453.66
671.327	6410.65
671.518	6205.86
671.709	6424.99
671.9	6345.12
672.091	6328.74
672.282	6287.78
672.473	6267.3
672.664	6148.51
672.855	6074.79
673.046	6267.3
673.237	6060.45
673.428	6072.74
673.619	6035.88
673.809	5951.91
674	5919.14
674.191	6037.92
674.382	5796.26
674.573	5919.14
674.764	5867.94
674.954	5822.89
675.145	5702.06
675.336	5804.46
675.527	5773.74
675.717	5833.13
675.908	5814.7
676.099	5689.77
676.289	5771.69
676.48	5718.44
676.671	5659.05
676.861	5644.71
677.052	5730.73
677.243	5542.32
677.433	5439.92
677.624	5695.91
677.814	5558.7
678.005	5632.43
678.195	5534.12
678.386	5458.35
678.576	5407.15
678.767	5466.54
678.957	5501.36
679.148	5378.48
679.338	5380.53
679.529	5542.32
679.719	5263.79
679.909	5523.88
680.1	5347.76
680.29	5345.71
680.481	5267.89
680.671	5185.97
680.861	5198.26
681.052	5360.05
681.242	5134.77
681.432	5233.07
681.622	5112.24
681.813	5102
682.003	5183.92
682.193	5036.47
682.383	5149.11
682.573	5085.62
682.764	5108.15
682.954	5220.78
683.144	5188.02
683.334	5218.74
683.524	5099.95
683.714	5110.19
683.904	5013.94
684.094	5026.23
684.284	5040.56
684.474	5165.49
684.664	4970.93
684.854	4987.32
685.044	5157.3
685.234	4934.07
685.424	5071.28
685.614	4944.31
685.804	4821.43
685.994	5087.67
686.184	4942.26
686.374	4897.21
686.564	4907.45
686.753	4747.7
686.943	4735.42
687.133	4850.1
687.323	4970.93
687.513	4946.36
687.702	4764.09
687.892	4862.39
688.082	4874.68
688.272	4645.31
688.461	4796.85
688.651	4790.71
688.841	4680.12
689.03	4737.46
689.22	4686.26
689.41	4864.44
689.599	4622.78
689.789	4727.22
689.979	4616.63
690.168	4602.3
690.358	4610.49
690.547	4729.27
690.737	4700.6
690.926	4710.84
691.116	4542.91
691.305	4495.8
691.495	4594.11
691.684	4452.8
691.874	4473.28
692.063	4678.07
692.252	4618.68
692.442	4354.49
692.631	4579.77
692.82	4526.52
693.01	4493.76
693.199	4315.58
693.388	4493.76
693.578	4426.17
693.767	4596.15
693.956	4555.19
694.146	4368.83
694.335	4424.12
694.524	4311.49
694.713	4350.4
694.902	4256.19
695.092	4286.91
695.281	4354.49
695.47	4200.9
695.659	4329.92
695.848	4266.43
696.037	4411.84
696.226	4477.37
696.415	4254.14
696.604	4397.5
696.793	4327.87
696.982	4323.77
697.171	4215.23
697.36	4264.38
697.549	4297.15
697.738	4248
697.927	4272.57
698.116	4284.86
698.305	4235.71
698.494	4311.49
698.683	4331.97
698.872	4282.81
699.061	4104.64
699.25	4346.3
699.438	4200.9
699.627	4067.78
699.816	4135.36
700.005	4096.45
700.193	4118.98
700.382	4151.74
700.571	4211.14
700.76	4053.44
700.948	4141.5
701.137	4127.17
701.326	4059.59
701.514	4002.24
701.703	4110.79
701.892	4086.21
702.08	3977.67
702.269	4075.97
702.457	3994.05
702.646	3912.13
702.834	3994.05
703.023	3951.04
703.212	3910.08
703.4	3942.85
703.589	3901.89
703.777	3891.65
703.965	3905.99
704.154	3811.78
704.342	3834.31
704.531	4026.82
704.719	3758.53
704.907	3850.69
705.096	3623.37
705.284	3736.01
705.472	3756.49
705.661	3834.31
705.849	3854.79
706.037	3809.73
706.226	3781.06
706.414	3797.45
706.602	3711.43
706.79	3828.17
706.979	3768.77
707.167	3666.38
707.355	3572.17
707.543	3764.68
707.731	3643.85
707.919	3690.95
708.107	3658.18
708.296	3523.02
708.484	3576.27
708.672	3666.38
708.86	3668.42
709.048	3572.17
709.236	3520.97
709.424	3609.03
709.612	3576.27
709.8	3551.69
709.988	3631.56
710.176	3543.5
710.364	3578.31
710.551	3658.18
710.739	3471.82
710.927	3342.8
711.115	3424.72
711.303	3416.52
711.491	3490.25
711.679	3340.75
711.866	3432.91
712.054	3375.56
712.242	3535.31
712.43	3531.21
712.617	3254.73
712.805	3281.36
712.993	3289.55
713.181	3191.25
713.368	3359.18
713.556	3301.84
713.744	3051.99
713.931	3217.87
714.119	3396.04
714.306	3183.06
714.494	3404.24
714.682	3183.06
714.869	3125.71
715.057	3213.77
715.244	3199.44
715.432	3158.48
715.619	3176.91
715.807	3135.95
715.994	3336.65
716.182	3156.43
716.369	3221.97
716.556	3035.6
716.744	3021.27
716.931	3164.62
717.119	3140.05
717.306	3078.61
717.493	2945.49
717.681	2945.49
717.868	3029.46
718.055	3060.18
718.242	3060.18
718.43	2970.07
718.617	2955.73
718.804	2965.97
718.991	3070.42
719.179	2957.78
719.366	2961.87
719.553	2957.78
719.74	2970.07
719.927	2970.07
720.114	2884.05
720.301	2922.96
720.488	2972.11
720.676	2824.66
720.863	2920.92
721.05	2875.86
721.237	2929.11
721.424	2863.57
721.611	2724.31
721.798	2752.98
721.985	2834.9
722.172	2847.19
722.358	2822.61
722.545	2746.84
722.732	2693.59
722.919	2931.16
723.106	2683.35
723.293	2728.41
723.48	2830.8
723.667	2652.63
723.853	2724.31
724.04	2820.56
724.227	2644.44
724.414	2587.1
724.6	2650.58
724.787	2697.69
724.974	2650.58
725.161	2646.49
725.347	2456.03
725.534	2675.16
725.72	2703.83
725.907	2585.05
726.094	2726.36
726.28	2527.71
726.467	2507.23
726.653	2470.36
726.84	2505.18
727.027	2693.59
727.213	2488.79
727.4	2501.08
727.586	2515.42
727.773	2449.88
727.959	2478.55
728.145	2564.57
728.332	2427.35
728.518	2372.06
728.705	2572.76
728.891	2355.68
729.077	2470.36
729.264	2439.64
729.45	2531.8
729.636	2537.95
729.823	2396.64
730.009	2351.58
730.195	2439.64
730.382	2316.76
730.568	2499.03
730.754	2357.72
730.94	2363.87
731.126	2355.68
731.313	2406.88
731.499	2216.41
731.685	2286.05
731.871	2363.87
732.057	2367.96
732.243	2240.99
732.429	2292.19
732.615	2290.14
732.801	2230.75
732.987	2347.48
733.173	2279.9
733.359	2269.66
733.545	2339.29
733.731	2232.8
733.917	2308.57
734.103	2234.85
734.289	2306.52
734.475	2087.39
734.661	2169.31
734.847	2216.41
735.033	2136.54
735.219	2187.74
735.404	2144.74
735.59	2150.88
735.776	2249.18
735.962	2093.54
736.148	2154.98
736.333	2193.89
736.519	2042.34
736.705	2167.26
736.89	2062.82
737.076	2056.67
737.262	2060.77
737.447	2120.16
737.633	2064.86
737.819	2005.47
738.004	1974.75
738.19	2077.15
738.375	2030.05
738.561	2101.73
738.747	2011.62
738.932	1872.36
739.118	2013.67
739.303	1997.28
739.489	2058.72
739.674	1831.4
739.859	1946.08
740.045	1978.85
740.23	2003.43
740.416	1923.55
740.601	2019.81
740.786	1888.74
740.972	1876.45
741.157	1853.92
741.342	1864.16
741.528	1880.55
741.713	1946.08
741.898	1907.17
742.084	1745.38
742.269	1831.4
742.454	1860.07
742.639	1888.74
742.824	1839.59
743.01	1866.21
743.195	1737.19
743.38	1765.86
743.565	1876.45
743.75	1925.6
743.935	1860.07
744.12	1823.2
744.305	1667.56
744.49	1737.19
744.675	1751.53
744.86	1772
745.045	1798.63
745.23	1749.48
745.415	1626.6
745.6	1735.14
745.785	1690.09
745.97	1753.57
746.155	1675.75
746.34	1608.17
746.525	1556.97
746.71	1651.17
746.895	1692.13
747.079	1556.97
747.264	1622.5
747.449	1604.07
747.634	1534.44
747.819	1569.26
748.003	1470.95
748.188	1552.87
748.373	1638.89
748.557	1540.58
748.742	1520.1
748.927	1554.92
749.111	1522.15
749.296	1528.3
749.481	1538.54
749.665	1393.13
749.85	1438.19
750.034	1518.06
750.219	1391.08
750.404	1407.47
750.588	1421.8
750.773	1470.95
750.957	1311.21
751.141	1417.71
751.326	1425.9
751.51	1262.06
751.695	1372.65
751.879	1272.3
752.064	1407.47
752.248	1378.79
752.432	1343.98
752.617	1280.49
752.801	1448.43
752.985	1339.88
753.17	1384.94
753.354	1354.22
753.538	1300.97
753.722	1300.97
753.907	1202.67
754.091	1321.45
754.275	1223.15
754.459	1186.29
754.643	1243.63
754.828	1317.36
755.012	1274.35
755.196	1180.14
755.38	1171.95
755.564	1176.05
755.748	1126.89
755.932	1176.05
756.116	1227.25
756.3	1257.96
756.484	1104.37
756.668	1094.13
756.852	1094.13
757.036	1100.27
757.22	1167.85
757.404	1059.31
757.588	1120.75
757.772	1094.13
757.956	1124.85
758.14	1090.03
758.323	1065.46
758.507	1036.78
758.691	1116.65
758.875	1040.88
759.059	1069.55
759.242	1036.78
759.426	1053.17
759.61	1079.79
759.794	1053.17
759.977	1085.94
760.161	1090.03
760.345	995.82
760.528	1085.94
760.712	991.73
760.895	973.3
761.079	1151.47
761.263	991.73
761.446	954.87
761.63	958.96
761.813	1028.59
761.997	954.87
762.18	918
762.364	1026.54
762.547	915.95
762.731	905.71
762.914	883.19
763.098	909.81
763.281	891.38
763.464	922.1
763.648	936.43
763.831	938.48
764.015	915.95
764.198	965.11
764.381	864.75
764.564	889.33
764.748	905.71
764.931	907.76
765.114	934.39
765.297	905.71
765.481	856.56
765.664	899.57
765.847	897.52
766.03	883.19
766.213	829.94
766.397	840.18
766.58	856.56
766.763	899.57
766.946	930.29
767.129	850.42
767.312	852.47
767.495	872.95
767.678	784.88
767.861	801.27
768.044	762.36
768.227	881.14
768.41	807.41
768.593	803.32
768.776	899.57
768.959	885.23
769.142	848.37
769.324	770.55
769.507	889.33
769.69	721.4
769.873	797.17
770.056	889.33
770.239	840.18
770.421	840.18
770.604	764.4
770.787	745.97
770.97	799.22
771.152	823.8
771.335	815.6
771.518	809.46
771.7	801.27
771.883	823.8
772.066	758.26
772.248	670.2
772.431	793.08
772.613	782.84
772.796	764.4
772.978	702.97
773.161	768.5
773.343	692.73
773.526	678.39
773.708	668.15
773.891	725.49
774.073	659.96
774.256	692.73
774.438	694.77
774.621	700.92
774.803	717.3
774.985	702.97
775.168	700.92
775.35	643.57
775.532	713.21
775.715	668.15
775.897	662.01
776.079	692.73
776.261	676.34
776.444	702.97
776.626	686.58
776.808	741.88
776.99	676.34
777.173	629.24
777.355	715.25
777.537	662.01
777.719	715.25
777.901	578.04
778.083	688.63
778.265	604.66
778.447	625.14
778.629	627.19
778.811	623.09
778.993	631.29
779.175	621.05
779.357	563.7
779.539	537.08
779.721	621.05
779.903	621.05
780.085	555.51
780.267	594.42
780.449	596.47
780.631	508.41
780.812	610.81
780.994	508.41
781.176	586.23
781.358	549.37
781.54	594.42
781.721	535.03
781.903	619
782.085	446.97
782.267	541.18
782.448	408.06
782.63	422.39
782.812	492.02
782.993	399.87
783.175	545.27
783.357	481.78
783.538	463.35
783.72	543.22
783.901	457.21
784.083	438.78
784.264	557.56
784.446	403.96
784.627	408.06
784.809	494.07
784.99	442.87
785.172	446.97
785.353	528.89
785.535	430.59
785.716	410.11
785.897	334.33
786.079	457.21
786.26	471.54
786.441	434.68
786.623	408.06
786.804	428.54
786.985	498.17
787.167	430.59
787.348	344.57
787.529	453.11
787.71	475.64
787.891	360.95
788.073	381.43
788.254	344.57
788.435	416.25
788.616	383.48
788.797	389.63
788.978	332.28
789.159	457.21
789.34	424.44
789.522	401.91
789.703	332.28
789.884	377.34
790.065	414.2
790.246	381.43
790.427	360.95
790.607	414.2
790.788	408.06
790.969	338.43
791.15	446.97
791.331	377.34
791.512	358.91
791.693	322.04
791.874	309.76
792.054	344.57
792.235	367.1
792.416	324.09
792.597	317.95
792.778	322.04
792.958	379.39
793.139	338.43
793.32	324.09
793.5	430.59
793.681	424.44
793.862	260.6
794.042	303.61
794.223	324.09
794.404	279.04
794.584	303.61
794.765	266.75
794.945	246.27
795.126	324.09
795.306	283.13
795.487	242.17
795.667	301.56
795.848	332.28
796.028	344.57
796.209	338.43
796.389	315.9
796.57	285.18
796.75	233.98
796.93	231.93
797.111	199.16
797.291	254.46
797.471	324.09
797.652	268.8
797.832	258.56
798.012	342.52
798.192	211.45
798.373	236.03
798.553	242.17
798.733	291.32
798.913	172.54
799.093	242.17
799.274	328.19
799.454	274.94
799.634	225.79
799.814	291.32
799.994	307.71
800.174	242.17
800.354	274.94
800.534	195.07
800.714	201.21
800.894	162.3
801.074	256.51
801.254	227.84
801.434	266.75
801.614	227.84
801.794	268.8
801.974	791.03
802.154	186.88
802.334	293.37
802.514	279.04
802.693	262.65
802.873	250.36
803.053	203.26
803.233	217.6
803.413	225.79
803.592	186.88
803.772	276.99
803.952	168.45
804.131	188.93
804.311	184.83
804.491	236.03
804.67	201.21
804.85	143.87
805.03	209.4
805.209	223.74
805.389	197.12
805.568	258.56
805.748	195.07
805.928	244.22
806.107	195.07
806.287	184.83
806.466	193.02
806.646	219.64
806.825	188.93
807.004	219.64
807.184	188.93
807.363	176.64
807.543	250.36
807.722	131.58
807.901	160.25
808.081	188.93
808.26	168.45
808.439	98.81
808.619	217.6
808.798	137.73
808.977	211.45
809.156	244.22
809.336	154.11
809.515	227.84
809.694	213.5
809.873	135.68
810.052	170.49
810.231	229.88
810.411	221.69
810.59	203.26
810.769	205.31
810.948	174.59
811.127	68.09
811.306	152.06
811.485	121.34
811.664	281.08
811.843	135.68
812.022	223.74
812.201	137.73
812.38	115.2
812.559	184.83
812.737	156.16
812.916	143.87
813.095	127.49
813.274	82.43
813.453	150.01
813.632	121.34
813.811	193.02
813.989	145.92
814.168	211.45
814.347	152.06
814.526	131.58
814.704	166.4
814.883	221.69
815.062	72.19
815.24	197.12
815.419	121.34
815.598	219.64
815.776	92.67
815.955	152.06
816.133	61.95
816.312	92.67
816.49	94.72
816.669	131.58
816.847	94.72
817.026	111.1
817.204	129.53
817.383	133.63
817.561	107.01
817.74	168.45
817.918	201.21
818.097	154.11
818.275	117.25
818.453	242.17
818.632	131.58
818.81	98.81
818.988	139.77
819.167	166.4
819.345	72.19
819.523	113.15
819.701	78.33
819.879	111.1
820.058	166.4
820.236	98.81
820.414	45.57
820.592	80.38
820.77	109.05
820.948	37.38
821.127	98.81
821.305	150.01
821.483	39.42
821.661	135.68
821.839	129.53
822.017	127.49
822.195	41.47
822.373	143.87
822.551	193.02
822.729	121.34
822.907	135.68
823.085	186.88
823.262	139.77
823.44	129.53
823.618	156.16
823.796	162.3
823.974	111.1
824.152	156.16
824.329	121.34
824.507	6.66
824.685	143.87
824.863	70.14
825.04	123.39
825.218	233.98
825.396	111.1
825.574	113.15
825.751	92.67
825.929	129.53
826.107	113.15
826.284	88.57
826.462	104.96
826.639	147.97
826.817	104.96
826.994	78.33
827.172	94.72
827.349	209.4
827.527	43.52
827.704	158.21
827.882	170.49
828.059	45.57
828.237	102.91
828.414	131.58
828.591	-28.16
828.769	76.29
828.946	49.66
829.124	156.16
829.301	168.45
829.478	115.2
829.655	86.53
829.833	80.38
830.01	23.04
830.187	137.73
830.364	102.91
830.542	70.14
830.719	123.39
830.896	143.87
831.073	86.53
831.25	2.56
831.427	152.06
831.604	145.92
831.782	80.38
831.959	76.29
832.136	53.76
832.313	82.43
832.49	23.04
832.667	133.63
832.844	107.01
833.021	80.38
833.198	25.09
833.374	121.34
833.551	35.33
833.728	61.95
833.905	137.73
834.082	53.76
834.259	119.29
834.436	115.2
834.612	6.66
834.789	72.19
834.966	66.05
835.143	76.29
835.319	152.06
835.496	74.24
835.673	86.53
835.85	41.47
836.026	70.14
836.203	102.91
836.38	92.67
836.556	94.72
836.733	86.53
836.909	76.29
837.086	94.72
837.262	102.91
837.439	4.61
837.616	135.68
837.792	-5.63
837.968	-7.68
838.145	31.23
838.321	47.62
838.498	53.76
838.674	211.45
838.851	94.72
839.027	72.19
839.203	107.01
839.38	107.01
839.556	70.14
839.732	92.67
839.909	86.53
840.085	182.78
840.261	12.8
840.437	119.29
840.614	55.81
840.79	121.34
840.966	68.09
841.142	37.38
841.318	94.72
841.494	109.05
841.671	47.62
841.847	82.43
842.023	51.71
842.199	39.42
842.375	61.95
842.551	37.38
842.727	0.51
842.903	164.35
843.079	-1.54
843.255	139.77
843.431	14.85
843.607	109.05
843.783	8.7
843.959	78.33
844.134	29.18
844.31	82.43
844.486	23.04
844.662	27.14
844.838	23.04
845.013	18.94
845.189	119.29
845.365	90.62
845.541	14.85
845.716	102.91
845.892	53.76
846.068	4.61
846.244	90.62
846.419	68.09
846.595	0.51
846.77	64
846.946	39.42
847.122	12.8
847.297	53.76
847.473	131.58
847.648	25.09
847.824	78.33
847.999	45.57
848.175	72.19
848.35	82.43
848.526	104.96
848.701	145.92
848.876	20.99
849.052	113.15
849.227	41.47
849.403	100.86
849.578	-26.11
849.753	33.28
849.929	88.57
850.104	102.91
850.279	23.04
850.454	78.33
850.63	72.19
850.805	51.71
850.98	49.66
851.155	102.91
851.33	115.2
851.505	20.99
851.681	141.82
851.856	61.95
852.031	20.99
852.206	29.18
852.381	29.18
852.556	70.14
852.731	57.86
852.906	111.1
853.081	53.76
853.256	55.81
853.431	70.14
853.606	29.18
853.781	-1.54
853.956	47.62
854.131	96.77
854.305	39.42
854.48	80.38
854.655	29.18
854.83	20.99
855.005	74.24
855.18	49.66
855.354	66.05
855.529	64
855.704	8.7
855.879	29.18
856.053	31.23
856.228	4.61
856.403	25.09
856.577	80.38
856.752	2.56
856.926	86.53
857.101	78.33
857.276	-11.78
857.45	27.14
857.625	49.66
857.799	39.42
857.974	145.92
858.148	-9.73
858.323	20.99
858.497	-11.78
858.672	12.8
858.846	45.57
859.02	47.62
859.195	41.47
859.369	-3.58
859.543	82.43
859.718	80.38
859.892	6.66
860.066	-28.16
860.241	115.2
860.415	23.04
860.589	61.95
860.763	72.19
860.938	12.8
861.112	18.94
861.286	57.86
861.46	57.86
861.634	102.91
861.808	164.35
861.982	-54.78
862.157	47.62
862.331	59.9
862.505	88.57
862.679	-3.58
862.853	84.48
863.027	12.8
863.201	86.53
863.375	-22.02
863.549	16.9
863.722	-7.68
863.896	78.33
864.07	-13.82
864.244	74.24
864.418	61.95
864.592	51.71
864.766	4.61
864.939	55.81
865.113	4.61
865.287	53.76
865.461	39.42
865.634	35.33
865.808	12.8
865.982	27.14
866.156	12.8
866.329	-13.82
866.503	49.66
866.676	70.14
866.85	78.33
867.024	12.8
867.197	102.91
867.371	41.47
867.544	55.81
867.718	82.43
867.891	92.67
868.065	29.18
868.238	70.14
868.412	43.52
868.585	20.99
868.759	14.85
868.932	111.1
869.105	8.7
869.279	92.67
869.452	53.76
869.625	160.25
869.799	45.57
869.972	-19.97
870.145	-3.58
870.319	51.71
870.492	4.61
870.665	14.85
870.838	20.99
871.011	-5.63
871.185	27.14
871.358	4.61
871.531	29.18
871.704	4.61
871.877	-9.73
872.05	-3.58
872.223	-26.11
872.396	88.57
872.569	14.85
872.742	14.85
872.915	-32.26
873.088	-17.92
873.261	0.51
873.434	31.23
873.607	102.91
873.78	102.91
873.953	4.61
874.126	4.61
874.299	29.18
874.471	-54.78
874.644	-11.78
874.817	39.42
874.99	82.43
875.163	12.8
875.335	45.57
875.508	-28.16
875.681	-1.54
875.853	57.86
876.026	-19.97
876.199	64
876.371	16.9
876.544	14.85
876.717	59.9
876.889	4.61
877.062	66.05
877.234	-36.35
877.407	111.1
877.579	20.99
877.752	23.04
877.924	68.09
878.097	29.18
878.269	8.7
878.442	86.53
878.614	27.14
878.786	59.9
878.959	66.05
879.131	12.8
879.303	-67.07
879.476	55.81
879.648	90.62
879.82	-15.87
879.993	-77.31
880.165	70.14
880.337	29.18
880.509	49.66
880.681	39.42
880.854	-11.78
881.026	4.61
881.198	18.94
881.37	-3.58
881.542	-13.82
881.714	37.38
881.886	-81.41
882.058	-17.92
882.23	16.9
882.402	4.61
882.574	119.29
882.746	23.04
882.918	4.61
883.09	-3.58
883.262	-40.45
883.434	-24.06
883.606	-11.78
883.778	-50.69
883.95	55.81
884.122	4.61
884.293	74.24
884.465	16.9
884.637	88.57
884.809	0.51
884.98	39.42
885.152	0.51
885.324	37.38
885.496	-62.98
885.667	80.38
885.839	-48.64
886.011	57.86
886.182	-1.54
886.354	98.81
886.525	33.28
886.697	51.71
886.869	-17.92
887.04	86.53
887.212	-34.3
887.383	74.24
887.555	37.38
887.726	31.23
887.897	-9.73
888.069	25.09
888.24	-36.35
888.412	6.66
888.583	78.33
888.754	61.95
888.926	-69.12
889.097	104.96
889.268	20.99
889.44	61.95
889.611	70.14
889.782	4.61
889.953	-71.17
890.125	88.57
890.296	-40.45
890.467	-15.87
890.638	-52.74
890.809	-11.78
890.98	37.38
891.151	29.18
891.323	72.19
891.494	39.42
891.665	14.85
891.836	72.19
892.007	39.42
892.178	102.91
892.349	84.48
892.52	-50.69
892.691	84.48
892.862	55.81
893.032	-15.87
893.203	16.9
893.374	-48.64
893.545	23.04
893.716	12.8
893.887	53.76
894.057	-44.54
894.228	-7.68
894.399	4.61
894.57	-3.58
894.74	20.99
894.911	-17.92
895.082	14.85
895.253	4.61
895.423	8.7
895.594	8.7
895.764	57.86
895.935	20.99
896.106	-11.78
896.276	-36.35
896.447	10.75
896.617	37.38
896.788	-19.97
896.958	-60.93
897.129	-28.16
897.299	45.57
897.47	35.33
897.64	4.61
897.81	27.14
897.981	29.18
898.151	-15.87
898.322	53.76
898.492	31.23
898.662	-32.26
898.832	74.24
899.003	59.9
899.173	-36.35
899.343	-36.35
899.513	33.28
