Data from USB4F104151__244__14-34-10-335.txt Node

Date: Thu Mar 13 14:34:10 EDT 2025
User: louis
Spectrometer: USB4F10415
Trigger mode: 4
Integration Time (sec): 2.500000E-2
Scans to average: 1
Electric dark correction enabled: true
Nonlinearity correction enabled: false
Boxcar width: 0
XAxis mode: Wavelengths
Number of Pixels in Spectrum: 3648
>>>>>Begin Spectral Data<<<<<
178.204	-161.96
178.424	-161.96
178.644	-161.96
178.864	-106.67
179.084	-155.82
179.304	-45.23
179.524	-20.65
179.744	-14.51
179.964	-2.22
180.184	40.79
180.404	-41.13
180.624	-28.84
180.844	3.93
181.064	-49.32
181.283	81.75
181.503	-0.17
181.723	75.6
181.943	-32.94
182.163	81.75
182.383	48.98
182.602	96.08
182.822	71.51
183.042	-45.23
183.262	40.79
183.482	59.22
183.701	24.4
183.921	42.84
184.141	1.88
184.361	26.45
184.58	-16.55
184.8	100.18
185.02	81.75
185.239	59.22
185.459	57.17
185.679	69.46
185.898	8.02
186.118	100.18
186.338	98.13
186.557	149.33
186.777	-45.23
186.997	-14.51
187.216	24.4
187.436	89.94
187.655	81.75
187.875	65.36
188.095	16.21
188.314	-12.46
188.534	51.03
188.753	-10.41
188.973	81.75
189.192	83.8
189.412	83.8
189.631	-0.17
189.851	1.88
190.07	94.04
190.29	32.6
190.509	51.03
190.729	28.5
190.948	89.94
191.168	223.06
191.387	73.56
191.607	-45.23
191.826	40.79
192.045	-69.8
192.265	10.07
192.484	28.5
192.704	51.03
192.923	-20.65
193.142	206.67
193.362	48.98
193.581	108.37
193.8	24.4
194.02	106.32
194.239	20.31
194.458	65.36
194.678	69.46
194.897	44.88
195.116	28.5
195.335	34.64
195.555	69.46
195.774	-16.55
195.993	75.6
196.212	71.51
196.432	-6.31
196.651	59.22
196.87	5.97
197.089	157.52
197.308	48.98
197.528	28.5
197.747	28.5
197.966	10.07
198.185	79.7
198.404	18.26
198.623	18.26
198.842	28.5
199.062	94.04
199.281	3.93
199.5	69.46
199.719	69.46
199.938	32.6
200.157	75.6
200.376	40.79
200.595	63.32
200.814	36.69
201.033	8.02
201.252	28.5
201.471	57.17
201.69	155.47
201.909	20.31
202.128	73.56
202.347	96.08
202.566	-4.27
202.785	20.31
203.004	24.4
203.223	100.18
203.442	106.32
203.661	-30.89
203.879	34.64
204.098	108.37
204.317	77.65
204.536	100.18
204.755	36.69
204.974	89.94
205.193	94.04
205.411	147.28
205.63	40.79
205.849	36.69
206.068	57.17
206.287	-0.17
206.505	89.94
206.724	-22.7
206.943	40.79
207.162	81.75
207.381	42.84
207.599	36.69
207.818	-8.36
208.037	34.64
208.255	1.88
208.474	40.79
208.693	48.98
208.911	-73.9
209.13	89.94
209.349	51.03
209.567	32.6
209.786	40.79
210.005	24.4
210.223	40.79
210.442	24.4
210.661	94.04
210.879	77.65
211.098	42.84
211.316	87.89
211.535	48.98
211.753	67.41
211.972	65.36
212.191	16.21
212.409	-12.46
212.628	128.85
212.846	16.21
213.065	75.6
213.283	57.17
213.502	83.8
213.72	20.31
213.938	67.41
214.157	32.6
214.375	81.75
214.594	55.12
214.812	139.09
215.031	89.94
215.249	-8.36
215.467	-37.03
215.686	65.36
215.904	106.32
216.122	34.64
216.341	42.84
216.559	26.45
216.778	16.21
216.996	102.23
217.214	51.03
217.432	30.55
217.651	-8.36
217.869	-30.89
218.087	-8.36
218.306	3.93
218.524	87.89
218.742	20.31
218.96	100.18
219.179	-22.7
219.397	87.89
219.615	67.41
219.833	73.56
220.051	71.51
220.27	59.22
220.488	-32.94
220.706	61.27
220.924	42.84
221.142	100.18
221.36	32.6
221.578	81.75
221.796	42.84
222.015	40.79
222.233	63.32
222.451	126.8
222.669	28.5
222.887	65.36
223.105	40.79
223.323	20.31
223.541	128.85
223.759	26.45
223.977	-71.85
224.195	81.75
224.413	63.32
224.631	73.56
224.849	51.03
225.067	135
225.285	61.27
225.503	18.26
225.721	46.93
225.939	69.46
226.157	124.76
226.375	89.94
226.592	61.27
226.81	53.08
227.028	61.27
227.246	83.8
227.464	24.4
227.682	67.41
227.9	135
228.117	83.8
228.335	63.32
228.553	-32.94
228.771	63.32
228.989	75.6
229.206	20.31
229.424	-24.75
229.642	102.23
229.86	28.5
230.077	126.8
230.295	-4.27
230.513	102.23
230.731	51.03
230.948	81.75
231.166	108.37
231.384	26.45
231.601	40.79
231.819	85.84
232.037	67.41
232.254	34.64
232.472	40.79
232.689	40.79
232.907	81.75
233.125	-16.55
233.342	-30.89
233.56	32.6
233.777	59.22
233.995	-14.51
234.213	91.99
234.43	91.99
234.648	28.5
234.865	-0.17
235.083	8.02
235.3	1.88
235.518	16.21
235.735	73.56
235.953	91.99
236.17	-6.31
236.388	34.64
236.605	48.98
236.822	98.13
237.04	85.84
237.257	122.71
237.475	26.45
237.692	53.08
237.909	57.17
238.127	48.98
238.344	53.08
238.562	22.36
238.779	44.88
238.996	20.31
239.214	32.6
239.431	77.65
239.648	1.88
239.865	98.13
240.083	42.84
240.3	83.8
240.517	22.36
240.735	98.13
240.952	51.03
241.169	65.36
241.386	8.02
241.603	94.04
241.821	-61.61
242.038	40.79
242.255	26.45
242.472	34.64
242.689	91.99
242.907	57.17
243.124	44.88
243.341	69.46
243.558	73.56
243.775	-73.9
243.992	14.17
244.209	110.42
244.426	98.13
244.643	46.93
244.86	-45.23
245.078	63.32
245.295	8.02
245.512	-4.27
245.729	26.45
245.946	73.56
246.163	12.12
246.38	12.12
246.597	57.17
246.814	106.32
247.031	48.98
247.248	24.4
247.464	26.45
247.681	12.12
247.898	14.17
248.115	98.13
248.332	-30.89
248.549	67.41
248.766	118.61
248.983	91.99
249.2	81.75
249.417	40.79
249.633	-6.31
249.85	79.7
250.067	30.55
250.284	73.56
250.501	75.6
250.717	5.97
250.934	46.93
251.151	112.47
251.368	81.75
251.585	124.76
251.801	-6.31
252.018	10.07
252.235	32.6
252.451	26.45
252.668	-14.51
252.885	102.23
253.102	100.18
253.318	104.28
253.535	26.45
253.752	-67.75
253.968	14.17
254.185	18.26
254.401	18.26
254.618	75.6
254.835	10.07
255.051	91.99
255.268	63.32
255.484	51.03
255.701	-30.89
255.917	139.09
256.134	-28.84
256.351	48.98
256.567	-16.55
256.784	85.84
257	3.93
257.217	98.13
257.433	83.8
257.65	46.93
257.866	87.89
258.082	-18.6
258.299	32.6
258.515	3.93
258.732	55.12
258.948	73.56
259.165	-0.17
259.381	16.21
259.597	73.56
259.814	3.93
260.03	57.17
260.246	-0.17
260.463	188.24
260.679	57.17
260.895	112.47
261.112	75.6
261.328	8.02
261.544	71.51
261.761	98.13
261.977	53.08
262.193	5.97
262.409	79.7
262.626	32.6
262.842	38.74
263.058	81.75
263.274	57.17
263.49	94.04
263.707	57.17
263.923	100.18
264.139	-26.79
264.355	69.46
264.571	48.98
264.787	100.18
265.004	108.37
265.22	67.41
265.436	32.6
265.652	-0.17
265.868	108.37
266.084	42.84
266.3	104.28
266.516	48.98
266.732	65.36
266.948	57.17
267.164	65.36
267.38	124.76
267.596	69.46
267.812	149.33
268.028	36.69
268.244	55.12
268.46	20.31
268.676	48.98
268.892	53.08
269.108	-41.13
269.324	16.21
269.54	-37.03
269.756	73.56
269.972	40.79
270.188	42.84
270.403	36.69
270.619	73.56
270.835	81.75
271.051	38.74
271.267	40.79
271.483	-4.27
271.698	32.6
271.914	69.46
272.13	106.32
272.346	94.04
272.562	61.27
272.777	42.84
272.993	104.28
273.209	30.55
273.425	71.51
273.64	-55.47
273.856	77.65
274.072	8.02
274.287	-8.36
274.503	16.21
274.719	61.27
274.934	18.26
275.15	-32.94
275.366	59.22
275.581	59.22
275.797	51.03
276.012	28.5
276.228	3.93
276.444	89.94
276.659	36.69
276.875	3.93
277.09	89.94
277.306	20.31
277.521	139.09
277.737	32.6
277.952	118.61
278.168	38.74
278.383	51.03
278.599	61.27
278.814	14.17
279.03	12.12
279.245	36.69
279.461	53.08
279.676	108.37
279.892	32.6
280.107	-43.18
280.322	-6.31
280.538	122.71
280.753	18.26
280.969	77.65
281.184	12.12
281.399	116.56
281.615	12.12
281.83	53.08
282.045	-59.56
282.26	24.4
282.476	51.03
282.691	44.88
282.906	-30.89
283.122	91.99
283.337	16.21
283.552	126.8
283.767	16.21
283.983	141.14
284.198	-0.17
284.413	114.52
284.628	-20.65
284.843	40.79
285.058	73.56
285.274	71.51
285.489	67.41
285.704	114.52
285.919	51.03
286.134	-20.65
286.349	32.6
286.564	-6.31
286.779	32.6
286.995	83.8
287.21	12.12
287.425	89.94
287.64	30.55
287.855	51.03
288.07	57.17
288.285	73.56
288.5	139.09
288.715	81.75
288.93	-2.22
289.145	-57.51
289.36	38.74
289.575	34.64
289.79	128.85
290.004	55.12
290.219	100.18
290.434	71.51
290.649	81.75
290.864	73.56
291.079	16.21
291.294	98.13
291.509	100.18
291.724	46.93
291.938	73.56
292.153	65.36
292.368	69.46
292.583	32.6
292.798	94.04
293.012	89.94
293.227	53.08
293.442	77.65
293.657	91.99
293.871	65.36
294.086	65.36
294.301	122.71
294.516	83.8
294.73	10.07
294.945	44.88
295.16	-20.65
295.374	85.84
295.589	79.7
295.804	59.22
296.018	1.88
296.233	147.28
296.447	85.84
296.662	28.5
296.877	44.88
297.091	141.14
297.306	16.21
297.52	26.45
297.735	122.71
297.949	71.51
298.164	75.6
298.378	3.93
298.593	83.8
298.807	1.88
299.022	100.18
299.236	128.85
299.451	-6.31
299.665	53.08
299.88	40.79
300.094	38.74
300.309	61.27
300.523	40.79
300.737	114.52
300.952	67.41
301.166	130.9
301.381	67.41
301.595	42.84
301.809	55.12
302.024	102.23
302.238	10.07
302.452	235.35
302.667	-16.55
302.881	73.56
303.095	65.36
303.309	-6.31
303.524	-0.17
303.738	53.08
303.952	3.93
304.166	65.36
304.381	10.07
304.595	83.8
304.809	-10.41
305.023	81.75
305.237	69.46
305.452	71.51
305.666	83.8
305.88	1.88
306.094	12.12
306.308	28.5
306.522	89.94
306.736	81.75
306.95	91.99
307.164	12.12
307.379	48.98
307.593	83.8
307.807	48.98
308.021	69.46
308.235	77.65
308.449	65.36
308.663	42.84
308.877	98.13
309.091	12.12
309.305	98.13
309.519	20.31
309.733	40.79
309.947	89.94
310.161	22.36
310.374	98.13
310.588	48.98
310.802	51.03
311.016	24.4
311.23	18.26
311.444	61.27
311.658	20.31
311.872	73.56
312.085	61.27
312.299	98.13
312.513	48.98
312.727	112.47
312.941	36.69
313.154	12.12
313.368	85.84
313.582	126.8
313.796	94.04
314.009	32.6
314.223	40.79
314.437	48.98
314.651	46.93
314.864	102.23
315.078	122.71
315.292	-55.47
315.505	36.69
315.719	85.84
315.933	18.26
316.146	132.95
316.36	75.6
316.573	155.47
316.787	18.26
317.001	122.71
317.214	-12.46
317.428	89.94
317.641	53.08
317.855	30.55
318.068	22.36
318.282	100.18
318.495	91.99
318.709	73.56
318.922	79.7
319.136	147.28
319.349	65.36
319.563	94.04
319.776	143.19
319.99	40.79
320.203	118.61
320.417	16.21
320.63	116.56
320.843	120.66
321.057	24.4
321.27	42.84
321.483	12.12
321.697	59.22
321.91	85.84
322.124	79.7
322.337	98.13
322.55	36.69
322.763	79.7
322.977	108.37
323.19	1.88
323.403	16.21
323.617	16.21
323.83	65.36
324.043	-20.65
324.256	65.36
324.469	12.12
324.683	36.69
324.896	89.94
325.109	67.41
325.322	24.4
325.535	32.6
325.748	57.17
325.962	73.56
326.175	106.32
326.388	106.32
326.601	85.84
326.814	34.64
327.027	85.84
327.24	89.94
327.453	48.98
327.666	65.36
327.879	85.84
328.092	-4.27
328.305	44.88
328.518	67.41
328.731	-0.17
328.944	32.6
329.157	98.13
329.37	40.79
329.583	122.71
329.796	81.75
330.009	42.84
330.222	44.88
330.435	114.52
330.648	89.94
330.861	53.08
331.073	112.47
331.286	81.75
331.499	77.65
331.712	-32.94
331.925	22.36
332.138	48.98
332.35	100.18
332.563	-0.17
332.776	110.42
332.989	16.21
333.202	30.55
333.414	-16.55
333.627	18.26
333.84	51.03
334.053	83.8
334.265	8.02
334.478	16.21
334.691	51.03
334.903	91.99
335.116	3.93
335.329	42.84
335.541	73.56
335.754	171.86
335.966	1.88
336.179	130.9
336.392	-32.94
336.604	106.32
336.817	102.23
337.029	42.84
337.242	-12.46
337.454	10.07
337.667	85.84
337.88	14.17
338.092	18.26
338.305	65.36
338.517	61.27
338.729	73.56
338.942	98.13
339.154	-10.41
339.367	69.46
339.579	51.03
339.792	1.88
340.004	102.23
340.217	42.84
340.429	36.69
340.641	53.08
340.854	83.8
341.066	63.32
341.278	57.17
341.491	126.8
341.703	65.36
341.915	65.36
342.128	94.04
342.34	91.99
342.552	12.12
342.764	100.18
342.977	116.56
343.189	40.79
343.401	94.04
343.613	-41.13
343.826	126.8
344.038	28.5
344.25	48.98
344.462	-0.17
344.674	-6.31
344.886	65.36
345.099	126.8
345.311	100.18
345.523	67.41
345.735	28.5
345.947	130.9
346.159	-28.84
346.371	-8.36
346.583	75.6
346.795	104.28
347.007	106.32
347.219	73.56
347.431	98.13
347.643	151.38
347.855	32.6
348.067	40.79
348.279	-16.55
348.491	24.4
348.703	10.07
348.915	-32.94
349.127	69.46
349.339	75.6
349.551	3.93
349.763	114.52
349.975	89.94
350.187	53.08
350.399	98.13
350.61	106.32
350.822	57.17
351.034	120.66
351.246	32.6
351.458	130.9
351.669	77.65
351.881	48.98
352.093	137.04
352.305	55.12
352.517	89.94
352.728	124.76
352.94	59.22
353.152	130.9
353.363	57.17
353.575	102.23
353.787	81.75
353.999	48.98
354.21	53.08
354.422	26.45
354.633	18.26
354.845	59.22
355.057	18.26
355.268	12.12
355.48	40.79
355.692	-14.51
355.903	87.89
356.115	18.26
356.326	18.26
356.538	132.95
356.749	61.27
356.961	57.17
357.172	28.5
357.384	44.88
357.595	143.19
357.807	57.17
358.018	73.56
358.23	67.41
358.441	141.14
358.653	73.56
358.864	65.36
359.075	26.45
359.287	98.13
359.498	122.71
359.709	65.36
359.921	65.36
360.132	69.46
360.344	98.13
360.555	26.45
360.766	83.8
360.977	42.84
361.189	-6.31
361.4	-12.46
361.611	44.88
361.823	20.31
362.034	106.32
362.245	36.69
362.456	48.98
362.667	89.94
362.879	65.36
363.09	10.07
363.301	110.42
363.512	108.37
363.723	48.98
363.935	24.4
364.146	69.46
364.357	81.75
364.568	44.88
364.779	-49.32
364.99	40.79
365.201	67.41
365.412	155.47
365.623	34.64
365.834	42.84
366.045	75.6
366.256	61.27
366.467	-0.17
366.678	69.46
366.889	98.13
367.1	38.74
367.311	67.41
367.522	106.32
367.733	83.8
367.944	130.9
368.155	106.32
368.366	85.84
368.577	69.46
368.788	139.09
368.999	-20.65
369.209	100.18
369.42	89.94
369.631	102.23
369.842	114.52
370.053	81.75
370.264	38.74
370.474	34.64
370.685	34.64
370.896	65.36
371.107	141.14
371.317	89.94
371.528	73.56
371.739	40.79
371.95	67.41
372.16	118.61
372.371	69.46
372.582	135
372.792	44.88
373.003	137.04
373.214	61.27
373.424	79.7
373.635	135
373.846	26.45
374.056	89.94
374.267	34.64
374.477	61.27
374.688	89.94
374.898	67.41
375.109	143.19
375.319	73.56
375.53	8.02
375.74	51.03
375.951	75.6
376.161	32.6
376.372	108.37
376.582	32.6
376.793	-0.17
377.003	73.56
377.214	48.98
377.424	155.47
377.635	61.27
377.845	59.22
378.055	98.13
378.266	-4.27
378.476	18.26
378.686	53.08
378.897	102.23
379.107	106.32
379.317	57.17
379.528	61.27
379.738	48.98
379.948	34.64
380.158	67.41
380.369	34.64
380.579	69.46
380.789	77.65
380.999	139.09
381.21	61.27
381.42	106.32
381.63	57.17
381.84	67.41
382.05	141.14
382.261	75.6
382.471	100.18
382.681	89.94
382.891	67.41
383.101	77.65
383.311	-14.51
383.521	-20.65
383.731	169.81
383.941	100.18
384.151	94.04
384.361	34.64
384.571	77.65
384.781	38.74
384.991	141.14
385.201	122.71
385.411	28.5
385.621	102.23
385.831	42.84
386.041	94.04
386.251	110.42
386.461	190.29
386.671	59.22
386.881	106.32
387.091	77.65
387.301	98.13
387.511	5.97
387.72	163.67
387.93	155.47
388.14	85.84
388.35	57.17
388.56	114.52
388.769	87.89
388.979	132.95
389.189	40.79
389.399	83.8
389.609	61.27
389.818	32.6
390.028	157.52
390.238	73.56
390.447	-30.89
390.657	116.56
390.867	40.79
391.076	51.03
391.286	81.75
391.496	61.27
391.705	89.94
391.915	116.56
392.125	155.47
392.334	65.36
392.544	141.14
392.753	98.13
392.963	16.21
393.172	59.22
393.382	61.27
393.591	128.85
393.801	126.8
394.01	153.43
394.22	112.47
394.429	122.71
394.639	20.31
394.848	175.95
395.058	75.6
395.267	114.52
395.477	81.75
395.686	165.71
395.895	143.19
396.105	206.67
396.314	135
396.524	116.56
396.733	120.66
396.942	116.56
397.152	112.47
397.361	145.24
397.57	69.46
397.78	116.56
397.989	118.61
398.198	190.29
398.407	61.27
398.617	135
398.826	118.61
399.035	130.9
399.244	59.22
399.453	106.32
399.663	114.52
399.872	108.37
400.081	110.42
400.29	212.82
400.499	81.75
400.708	114.52
400.917	139.09
401.127	141.14
401.336	59.22
401.545	190.29
401.754	147.28
401.963	206.67
402.172	139.09
402.381	73.56
402.59	126.8
402.799	171.86
403.008	182.1
403.217	237.39
403.426	206.67
403.635	108.37
403.844	130.9
404.053	151.38
404.262	135
404.471	245.59
404.68	175.95
404.888	192.34
405.097	159.57
405.306	130.9
405.515	261.97
405.724	188.24
405.933	135
406.142	231.25
406.35	257.87
406.559	186.19
406.768	196.43
406.977	307.02
407.185	225.11
407.394	206.67
407.603	282.45
407.812	270.16
408.02	319.31
408.229	278.35
408.438	216.91
408.646	257.87
408.855	329.55
409.064	302.93
409.272	298.83
409.481	421.71
409.69	405.33
409.898	280.4
410.107	272.21
410.315	393.04
410.524	321.36
410.733	501.58
410.941	425.81
411.15	483.15
411.358	442.19
411.567	474.96
411.775	477.01
411.984	534.35
412.192	544.59
412.401	575.31
412.609	624.46
412.818	567.12
413.026	534.35
413.234	560.97
413.443	606.03
413.651	675.66
413.86	618.32
414.068	843.59
414.276	794.44
414.485	679.75
414.693	784.2
414.901	933.7
415.11	931.66
415.318	823.11
415.526	874.31
415.734	933.7
415.943	892.74
416.151	1068.87
416.359	1011.53
416.567	1064.77
416.776	1070.92
416.984	1148.74
417.192	1146.69
417.4	1154.88
417.608	1232.71
417.817	1193.8
418.025	1304.39
418.233	1462.08
418.441	1378.11
418.649	1414.98
418.857	1517.37
419.065	1617.72
419.273	1607.48
419.481	1601.34
419.689	1736.51
419.897	1777.47
420.105	1900.34
420.313	1933.11
420.521	1967.93
420.729	1828.67
420.937	1988.41
421.145	2191.16
421.353	2156.34
421.561	2295.6
421.769	2350.9
421.977	2385.71
422.185	2369.33
422.393	2670.38
422.601	2598.7
422.809	2686.76
423.017	2729.77
423.224	2893.61
423.432	2981.67
423.64	2909.99
423.848	3247.91
424.056	3172.13
424.263	3475.23
424.471	3278.63
424.679	3530.53
424.887	3610.4
425.094	3770.14
425.302	3809.05
425.51	4009.75
425.718	4048.66
425.925	4067.1
426.133	4142.87
426.341	4407.06
426.548	4599.57
426.756	4423.44
426.964	4665.1
427.171	4996.87
427.379	5107.46
427.586	5134.09
427.794	5277.44
428.001	5453.57
428.209	5670.65
428.417	5711.61
428.624	6045.43
428.832	6045.43
429.039	6090.49
429.247	5969.66
429.454	6627.06
429.662	7073.51
429.869	6659.82
430.076	7085.8
430.284	7022.31
430.491	7208.68
430.699	7671.52
430.906	7534.31
431.114	7692
431.321	8034.01
431.528	8242.9
431.736	8464.08
431.943	9137.87
432.15	8842.96
432.358	9068.23
432.565	9453.25
432.772	9426.63
432.979	9846.46
433.187	9848.51
433.394	9877.18
433.601	10563.25
433.808	10569.4
434.016	10657.46
434.223	10933.93
434.43	11495.08
434.637	11380.39
434.844	12166.81
435.052	12275.35
435.259	12572.31
435.466	12377.75
435.673	12431
435.88	13178.51
436.087	13919.87
436.294	13688.45
436.501	13536.9
436.708	13794.95
436.915	14188.16
437.122	14829.17
437.329	14962.29
437.537	15122.03
437.743	15386.22
437.95	15271.53
438.157	16021.09
438.364	16754.26
438.571	16610.9
438.778	16660.06
438.985	18255.42
439.192	17565.26
439.399	17972.8
439.606	17569.35
439.813	18652.73
440.02	19811.88
440.227	19430.96
440.433	19242.54
440.64	20203.04
440.847	19834.41
441.054	20301.34
441.261	21546.51
441.467	21409.29
441.674	22072.84
441.881	22623.74
442.088	22685.18
442.294	22601.21
442.501	22896.12
442.708	23215.6
442.914	24100.33
443.121	25079.25
443.328	24640.99
443.534	26150.34
443.741	25265.62
443.948	25159.13
444.154	26957.24
444.361	26783.16
444.568	26805.69
444.774	26721.73
444.981	27383.22
445.187	28157.35
445.394	29193.62
445.6	29142.42
445.807	31681.91
446.013	30403.97
446.22	30956.92
446.426	32124.27
446.633	32449.89
446.839	33533.27
447.046	32144.75
447.252	34012.49
447.459	33992.01
447.665	34084.17
447.871	35104.06
448.078	36500.78
448.284	34911.55
448.491	35902.77
448.697	37039.39
448.903	38030.61
449.11	38204.69
449.316	37270.81
449.522	38249.74
449.728	39171.33
449.935	39212.29
450.141	39613.69
450.347	40039.67
450.553	39007.49
450.76	39640.31
450.966	40660.2
451.172	40402.16
451.378	41704.66
451.584	40365.29
451.791	41739.48
451.997	41245.92
452.203	41915.61
452.409	42015.96
452.615	41782.49
452.821	40533.23
453.027	39793.91
453.233	42276.05
453.44	40295.66
453.646	40363.25
453.852	40824.04
454.058	41637.08
454.264	40359.15
454.47	41346.27
454.676	40187.12
454.882	41594.07
455.088	37969.17
455.294	38259.98
455.5	39034.11
455.705	39718.14
455.911	37754.13
456.117	37600.54
456.323	36750.63
456.529	34659.65
456.735	36425
456.941	35343.67
457.147	34831.68
457.352	33770.83
457.558	33518.93
457.764	33826.13
457.97	32927.07
458.176	32384.36
458.381	32011.63
458.587	30616.96
458.793	30649.73
458.999	29390.23
459.204	30657.92
459.41	30350.73
459.616	28446.12
459.821	28274.09
460.027	28325.29
460.233	27573.68
460.438	26449.35
460.644	26383.81
460.85	25202.13
461.055	24546.78
461.261	24559.07
461.466	23045.62
461.672	22205.95
461.878	23823.85
462.083	22160.9
462.289	21921.29
462.494	21392.91
462.7	20518.43
462.905	20221.47
463.111	20682.27
463.316	20844.06
463.522	20393.5
463.727	20364.83
463.932	20250.14
464.138	19891.75
464.343	20194.85
464.549	19473.96
464.754	20260.38
464.959	19920.42
465.165	20016.68
465.37	18697.78
465.575	18390.59
465.781	19320.37
465.986	19342.89
466.191	18583.1
466.397	18226.75
466.602	17135.18
466.807	17997.38
467.012	18142.78
467.218	17784.39
467.423	17477.19
467.628	17714.76
467.833	18390.59
468.038	17749.57
468.244	17190.48
468.449	17864.26
468.654	17256.01
468.859	17051.22
469.064	17163.86
469.269	16483.93
469.474	16387.68
469.679	16670.29
469.885	16428.63
470.09	16447.07
470.295	16410.2
470.5	16051.81
470.705	16033.38
470.91	15941.22
471.115	15617.64
471.32	15785.57
471.525	15611.5
471.73	15218.29
471.935	15212.14
472.139	14655.09
472.344	14956.15
472.549	14632.57
472.754	14540.41
472.959	14540.41
473.164	14124.67
473.369	14014.08
473.574	14429.82
473.778	14165.63
473.983	13790.85
474.188	14143.1
474.393	13307.53
474.598	13334.15
474.802	13336.2
475.007	13399.69
475.212	13414.02
475.417	12764.82
475.621	12723.86
475.826	12695.19
476.031	12603.03
476.235	12363.42
476.44	12385.94
476.645	12134.04
476.849	12238.49
477.054	12205.72
477.259	11869.86
477.463	12058.27
477.668	11673.25
477.872	12029.6
478.077	11564.71
478.282	11228.84
478.486	11222.7
478.691	11026.09
478.895	11179.69
479.1	11085.48
479.304	11054.76
479.509	10702.51
479.713	11050.67
479.918	10632.88
480.122	10610.36
480.326	10714.8
480.531	10665.65
480.735	10598.07
480.94	10405.56
481.144	10755.76
481.348	10256.06
481.553	10446.52
481.757	10120.89
481.961	10272.44
482.166	10550.96
482.37	10481.33
482.574	10063.55
482.778	10217.15
482.983	10436.28
483.187	10346.17
483.391	10460.85
483.595	10219.19
483.8	10006.2
484.004	10233.53
484.208	10428.09
484.412	10399.41
484.616	10124.99
484.821	10223.29
485.025	9920.19
485.229	10124.99
485.433	10167.99
485.637	9991.87
485.841	10051.26
486.045	10141.37
486.249	10120.89
486.453	10122.94
486.657	10358.46
486.861	10165.95
487.065	9936.57
487.269	10153.66
487.473	10145.47
487.677	10129.08
487.881	10407.61
488.085	10096.32
488.289	10108.6
488.493	10141.37
488.697	10258.1
488.901	10047.16
489.105	10272.44
489.309	10256.06
489.512	10264.25
489.716	10266.3
489.92	10215.1
490.124	10129.08
490.328	10380.98
490.531	10307.26
490.735	10243.77
490.939	10372.79
491.143	10329.78
491.346	10430.13
491.55	10616.5
491.754	10628.79
491.958	10608.31
492.161	10510
492.365	10497.72
492.569	10534.58
492.772	10534.58
492.976	10567.35
493.18	10563.25
493.383	10761.91
493.587	10876.59
493.79	10837.68
493.994	10862.26
494.197	10864.3
494.401	11124.4
494.605	10993.33
494.808	11077.29
495.012	11224.75
495.215	11263.66
495.419	11529.89
495.622	11251.37
495.825	11339.43
496.029	11323.05
496.232	11519.65
496.436	11601.57
496.639	11622.05
496.843	11671.2
497.046	12111.52
497.249	12156.57
497.453	12201.63
497.656	12230.3
497.859	12287.64
498.063	12541.59
498.266	12670.61
498.469	12551.83
498.673	12689.04
498.876	12678.8
499.079	13012.62
499.282	13248.14
499.485	13606.53
499.689	13229.71
499.892	13684.36
500.095	13256.33
500.298	13991.55
500.501	13833.86
500.705	14134.91
500.908	14163.58
501.111	14356.09
501.314	14483.06
501.517	14481.02
501.72	14782.07
501.923	14607.99
502.126	15058.54
502.329	15201.9
502.532	15476.33
502.735	15371.88
502.938	15625.83
503.141	16008.8
503.344	16035.42
503.547	16119.39
503.75	16277.08
503.953	16432.73
504.156	16676.44
504.359	16625.24
504.562	16727.64
504.765	17172.05
504.968	17311.31
505.17	17589.83
505.373	17325.64
505.576	17901.12
505.779	17778.25
505.982	18001.47
506.185	18458.17
506.387	18810.42
506.59	18509.37
506.793	18994.74
506.996	19021.36
507.198	19547.69
507.401	19387.95
507.604	19811.88
507.807	19801.64
508.009	19988
508.212	20309.54
508.415	20397.6
508.617	20770.33
508.82	20913.69
509.022	20637.21
509.225	21190.16
509.428	21403.15
509.63	21480.97
509.833	21923.33
510.035	22363.65
510.238	22228.48
510.44	22418.94
510.643	22650.36
510.845	22652.41
511.048	22719.99
511.25	23080.44
511.453	23404.02
511.655	24063.46
511.858	23784.94
512.06	24016.36
512.262	24210.92
512.465	24483.3
512.667	24731.1
512.87	24677.85
513.072	24843.74
513.274	25494.99
513.477	25159.13
513.679	25736.65
513.881	26285.51
514.084	26525.12
514.286	26437.06
514.488	26193.35
514.69	26912.19
514.893	27588.02
515.095	27430.32
515.297	27631.02
515.499	27569.58
515.701	27889.07
515.904	28343.72
516.106	28388.77
516.308	28644.77
516.51	28847.52
516.712	28994.97
516.914	29410.71
517.116	29722
517.318	29685.14
517.52	29830.54
517.722	30094.73
517.925	30305.67
518.127	31341.94
518.329	30963.07
518.531	30885.25
518.733	31339.9
518.935	31473.01
519.136	31561.08
519.338	31978.86
519.54	31884.65
519.742	32642.4
519.944	32597.35
520.146	32646.5
520.348	33013.09
520.55	32855.39
520.752	33107.29
520.954	34059.6
521.155	33422.68
521.357	34194.76
521.559	34379.08
521.761	34671.94
521.963	34436.42
522.164	34698.56
522.366	34637.12
522.568	35013.95
522.77	34934.08
522.971	35439.93
523.173	35345.72
523.375	35824.95
523.576	35421.5
523.778	35333.43
523.98	35847.47
524.181	36465.96
524.383	36150.57
524.584	36123.95
524.786	36381.99
524.988	36422.95
525.189	36650.28
525.391	37324.06
525.592	36896.03
525.794	36846.88
525.995	37287.2
526.197	37254.43
526.398	37035.3
526.6	37242.14
526.801	37618.97
527.003	37371.16
527.204	37516.57
527.406	37713.17
527.607	37856.53
527.808	38184.21
528.01	37500.19
528.211	37868.82
528.412	38110.48
528.614	37926.16
528.815	38049.04
529.016	37819.67
529.218	38018.32
529.419	37715.22
529.62	38241.55
529.822	37772.56
530.023	37645.59
530.224	37934.35
530.425	38077.71
530.626	37766.42
530.828	37289.24
531.029	38432.01
531.23	37905.68
531.431	37760.28
531.632	37825.81
531.833	38104.34
532.035	37846.29
532.236	37960.98
532.437	37741.85
532.638	37567.77
532.839	37610.78
533.04	38247.69
533.241	37133.6
533.442	38206.73
533.643	37907.73
533.844	37928.21
534.045	38085.9
534.246	37596.44
534.447	37729.56
534.648	37557.53
534.849	37635.35
535.05	37033.25
535.251	37231.9
535.451	37238.05
535.652	37262.62
535.853	37522.71
536.054	37287.2
536.255	37432.6
536.456	36603.17
536.657	37453.08
536.857	37109.02
537.058	36637.99
537.259	37166.37
537.46	36963.62
537.66	36906.27
537.861	37129.5
538.062	36959.52
538.263	36826.4
538.463	36627.75
538.664	36502.82
538.865	36719.91
539.065	36773.16
539.266	36439.34
539.466	36785.44
539.667	36185.39
539.868	36803.88
540.068	36556.07
540.269	36441.39
540.469	36869.41
540.67	36197.68
540.87	36594.98
541.071	36562.22
541.271	36582.7
541.472	36386.09
541.672	35951.92
541.873	36185.39
542.073	35892.53
542.274	36617.51
542.474	36257.07
542.675	35900.72
542.875	36142.38
543.075	36304.17
543.276	35587.38
543.476	36484.39
543.676	35759.41
543.877	36416.81
544.077	36537.64
544.277	36064.56
544.478	36283.69
544.678	36152.62
544.878	36042.03
545.078	35740.98
545.279	35652.92
545.479	36304.17
545.679	36134.19
545.879	36093.23
546.079	35796.28
546.28	35845.43
546.48	35865.91
546.68	36060.46
546.88	35888.43
547.08	35968.3
547.28	35663.16
547.48	35755.32
547.68	36126
547.88	35564.85
548.081	36511.02
548.281	36205.87
548.481	35947.82
548.681	36156.72
548.881	35874.1
549.081	36140.33
549.28	35841.33
549.48	36074.8
549.68	36054.32
549.88	36508.97
550.08	35853.62
550.28	36123.95
550.48	36062.51
550.68	36357.42
550.88	35925.3
551.08	35771.7
551.279	36310.32
551.479	36126
551.679	36205.87
551.879	35900.72
552.079	36025.65
552.278	35816.75
552.478	36316.46
552.678	36156.72
552.878	36398.38
553.077	36140.33
553.277	36261.16
553.477	36222.25
553.676	35927.35
553.876	36078.89
554.076	36066.61
554.275	36138.29
554.475	35970.35
554.674	36044.08
554.874	36494.63
555.074	36302.12
555.273	36429.1
555.473	36474.15
555.672	36226.35
555.872	36175.15
556.071	36535.59
556.271	36408.62
556.47	36232.49
556.67	35853.62
556.869	36576.55
557.068	36474.15
557.268	36379.95
557.467	36435.24
557.667	36369.71
557.866	36603.17
558.065	36285.74
558.265	36449.58
558.464	36486.44
558.663	36691.24
558.863	36312.36
559.062	36988.19
559.261	36318.51
559.461	36795.68
559.66	36214.06
559.859	36242.73
560.058	36420.91
560.258	36289.84
560.457	36293.93
560.656	36209.96
560.855	36166.96
561.054	36105.52
561.253	36021.55
561.453	36431.15
561.652	36533.54
561.851	36562.22
562.05	36363.56
562.249	36179.25
562.448	36320.56
562.647	36631.85
562.846	36250.92
563.045	36199.72
563.244	36386.09
563.443	36648.23
563.642	36113.71
563.841	36369.71
564.04	35790.13
564.239	36515.11
564.438	36011.31
564.637	36158.77
564.836	36377.9
565.035	35837.23
565.234	36179.25
565.432	36033.84
565.631	35573.05
565.83	36255.02
566.029	35616.05
566.228	35824.95
566.427	35411.26
566.625	35671.35
566.824	35388.73
567.023	35937.58
567.222	34805.06
567.42	35663.16
567.619	35231.04
567.818	35351.87
568.016	35351.87
568.215	35767.6
568.414	35038.53
568.612	35624.25
568.811	35310.91
569.01	35149.12
569.208	34532.68
569.407	35394.87
569.605	34915.65
569.804	35073.34
570.002	34610.5
570.201	35235.13
570.4	34258.25
570.598	34630.98
570.797	34231.63
570.995	34348.36
571.193	34004.3
571.392	34682.18
571.59	33977.68
571.789	33848.66
571.987	34073.93
572.186	33920.34
572.384	33736.02
572.582	34049.36
572.781	34026.83
572.979	33674.58
573.177	33561.94
573.376	33729.87
573.574	33310.04
573.772	33633.62
573.971	33320.28
574.169	33305.95
574.367	32988.51
574.565	33320.28
574.763	33117.53
574.962	32695.65
575.16	32773.47
575.358	33271.13
575.556	32347.5
575.754	32929.12
575.952	32519.53
576.151	32621.92
576.349	32093.55
576.547	32073.07
576.745	32421.22
576.943	32097.64
577.141	32050.54
577.339	31690.1
577.537	32017.77
577.735	31534.45
577.933	31528.31
578.131	32015.72
578.329	31583.6
578.527	31614.32
578.725	31509.88
578.923	31466.87
579.121	31305.08
579.319	31133.05
579.516	31069.56
579.714	31309.18
579.912	30918.01
580.11	31139.19
580.308	30653.83
580.506	30836.09
580.704	30338.44
580.901	30760.32
581.099	30985.6
581.297	30383.49
581.495	30709.12
581.692	30442.88
581.89	30080.39
582.088	30305.67
582.285	29873.55
582.483	30252.42
582.681	30049.67
582.878	30166.41
583.076	29842.83
583.274	29861.26
583.471	29336.98
583.669	29640.08
583.866	29527.44
584.064	29525.39
584.262	29130.14
584.459	29377.94
584.657	28831.13
584.854	29466
585.052	28892.57
585.249	29066.65
585.447	29021.59
585.644	28913.05
585.841	28863.9
586.039	29375.89
586.236	28163.5
586.434	28888.48
586.631	28691.87
586.828	28667.3
587.026	28808.61
587.223	28401.06
587.42	28403.11
587.618	28495.27
587.815	28169.64
588.012	27970.99
588.21	27610.54
588.407	28343.72
588.604	27952.55
588.801	27882.92
588.999	27772.33
589.196	27798.96
589.393	28057
589.59	27493.81
589.787	27657.65
589.984	27450.8
590.182	27082.17
590.379	27561.39
590.576	27129.27
590.773	27391.41
590.97	27248.05
591.167	27217.33
591.364	27102.65
591.561	27153.85
591.758	27106.74
591.955	26979.77
592.152	27170.23
592.349	26906.04
592.546	27055.54
592.743	27096.5
592.94	26465.73
593.137	26811.84
593.334	26791.36
593.531	26572.22
593.727	26787.26
593.924	26482.11
594.121	26484.16
594.318	26570.18
594.515	26115.53
594.712	26910.14
594.908	26844.6
595.105	26580.42
595.302	26369.47
595.499	26324.42
595.696	26101.19
595.892	26004.94
596.089	26351.04
596.286	26238.4
596.482	26004.94
596.679	26215.88
596.876	26203.59
597.072	25990.6
597.269	25828.81
597.466	25513.42
597.662	25695.69
597.859	25949.64
598.055	26516.93
598.252	25748.94
598.448	25822.67
598.645	25896.39
598.841	25763.28
599.038	25644.49
599.234	25955.79
599.431	25562.58
599.627	25837
599.824	25904.59
600.02	25411.03
600.217	25767.37
600.413	25443.79
600.609	26002.89
600.806	25380.31
601.002	25992.65
601.198	25781.71
601.395	25787.85
601.591	25859.53
601.787	25628.11
601.984	25560.53
602.18	26121.67
602.376	25597.39
602.572	25849.29
602.769	25613.77
602.965	25562.58
603.161	25992.65
603.357	25888.2
603.553	25802.19
603.75	25738.7
603.946	25765.32
604.142	25920.97
604.338	25689.55
604.534	25818.57
604.73	25816.52
604.926	25699.79
605.122	25914.83
605.318	25513.42
605.514	25841.1
605.71	25857.48
605.906	25873.87
606.102	26011.08
606.298	26031.56
606.494	25828.81
606.69	26086.86
606.886	25908.68
607.082	25527.76
607.278	25736.65
607.474	25861.58
607.67	26310.08
607.866	25957.83
608.062	26328.52
608.257	25912.78
608.453	26029.51
608.649	26254.79
608.845	26133.96
609.041	25957.83
609.236	26172.87
609.432	26381.76
609.628	26176.97
609.824	26424.77
610.019	26123.72
610.215	26279.36
610.411	26494.4
610.606	26084.81
610.802	26441.15
610.998	26439.11
611.193	26437.06
611.389	26549.7
611.584	26461.63
611.78	26414.53
611.976	26473.92
612.171	26500.54
612.367	26504.64
612.562	26478.02
612.758	26303.94
612.953	26240.45
613.149	26648
613.344	26379.71
613.539	26834.36
613.735	26619.33
613.93	26981.82
614.126	26949.05
614.321	26942.91
614.517	26652.09
614.712	26738.11
614.907	26691.01
615.103	26744.25
615.298	26572.22
615.493	26852.8
615.688	26078.66
615.884	27219.38
616.079	26486.21
616.274	26912.19
616.47	26920.38
616.665	26602.94
616.86	26830.27
617.055	26619.33
617.25	26795.45
617.445	26703.29
617.641	25988.55
617.836	26774.97
618.031	26471.87
618.226	26531.26
618.421	26500.54
618.616	26619.33
618.811	26265.03
619.006	26619.33
619.201	25853.39
619.396	26113.48
619.591	25611.73
619.786	26342.85
619.981	25804.24
620.176	26021.32
620.371	25638.35
620.566	25624.01
620.761	25755.08
620.956	25861.58
621.151	25208.28
621.346	25212.37
621.541	25142.74
621.735	25425.36
621.93	25044.44
622.125	25298.39
622.32	24675.8
622.515	25140.69
622.709	25077.21
622.904	25036.25
623.099	24655.33
623.294	24649.18
623.488	24387.04
623.683	24458.72
623.878	24331.75
624.072	24036.84
624.267	24266.21
624.462	23956.97
624.656	23778.79
624.851	23614.96
625.046	23938.54
625.24	23598.57
625.435	23518.7
625.629	23338.48
625.824	23297.52
626.018	23295.47
626.213	23031.29
626.407	22971.89
626.602	22554.11
626.796	22879.74
626.991	22660.6
627.185	22660.6
627.38	22341.12
627.574	22441.47
627.768	22068.74
627.963	22316.54
628.157	21634.57
628.352	22031.88
628.546	21771.79
628.74	21894.66
628.935	21343.76
629.129	21634.57
629.323	21339.66
629.517	21261.84
629.712	21224.98
629.906	21177.87
630.1	20850.2
630.294	20737.56
630.489	20764.18
630.683	20940.31
630.877	20737.56
631.071	20620.83
631.265	20753.94
631.459	20590.11
631.653	20037.16
631.848	20162.08
632.042	19955.24
632.236	20217.38
632.43	19930.66
632.624	19875.37
632.818	19940.9
633.012	19584.55
633.206	19420.72
633.4	19639.85
633.594	19131.95
633.788	19303.98
633.982	19373.61
634.176	19258.93
634.369	18835
634.563	19035.7
634.757	18884.15
634.951	18957.88
635.145	18867.77
635.339	18597.43
635.533	18204.22
635.726	18550.33
635.92	18249.28
636.114	18136.64
636.308	18161.22
636.501	17931.84
636.695	18077.25
636.889	17788.49
637.083	17802.82
637.276	17385.04
637.47	17315.41
637.664	17354.32
637.857	17458.76
638.051	17063.5
638.244	17180.24
638.438	16963.15
638.632	16916.05
638.825	16811.6
639.019	16858.71
639.212	16592.47
639.406	16705.11
639.599	16365.15
639.793	16449.11
639.986	16318.04
640.18	16279.13
640.373	16225.89
640.567	15726.18
640.76	15965.79
640.954	15937.12
641.147	15650.41
641.34	15758.95
641.534	15644.26
641.727	15478.38
641.92	15572.58
642.114	15099.5
642.307	15410.79
642.5	15079.02
642.694	14896.75
642.887	15089.26
643.08	14982.77
643.273	14935.67
643.467	14630.52
643.66	14769.78
643.853	14483.06
644.046	14442.1
644.239	14302.84
644.432	14298.75
644.626	14083.71
644.819	14143.1
645.012	14198.4
645.205	13979.26
645.398	14026.37
645.591	13788.8
645.784	13819.52
645.977	13434.5
646.17	13618.82
646.363	13457.03
646.556	13295.24
646.749	13411.98
646.942	13450.89
647.135	13313.67
647.328	12973.71
647.521	12986
647.714	12648.08
647.907	12840.59
648.099	12592.79
648.292	12922.51
648.485	12717.72
648.678	12635.8
648.871	12582.55
649.064	12236.44
649.256	12455.58
649.449	12455.58
649.642	12418.71
649.835	12160.67
650.027	12033.69
650.22	12025.5
650.413	12068.51
650.605	11789.99
650.798	11865.76
650.991	11927.2
651.183	11765.41
651.376	11794.08
651.568	11726.5
651.761	11617.96
651.954	11390.63
652.146	11364.01
652.339	11234.99
652.531	11398.82
652.724	11165.35
652.916	11036.33
653.109	11116.2
653.301	11065
653.494	11071.15
653.686	10864.3
653.879	10966.7
654.071	10708.66
654.263	10655.41
654.456	10589.88
654.648	10802.86
654.84	10593.97
655.033	10606.26
655.225	10346.17
655.417	10483.38
655.61	10335.93
655.802	10264.25
655.994	10073.79
656.186	10387.13
656.379	10288.82
656.571	9873.09
656.763	10170.04
656.955	10036.92
657.148	9946.81
657.34	9895.61
657.532	9690.82
657.724	9633.47
657.916	9735.87
658.108	9559.75
658.3	9608.9
658.492	9592.51
658.684	9242.31
658.876	9350.85
659.068	9400.01
659.26	9332.42
659.452	9389.77
659.644	9383.62
659.836	9189.07
660.028	9400.01
660.22	8963.79
660.412	9041.61
660.604	8969.93
660.796	8898.25
660.988	9014.99
661.18	8851.15
661.372	8695.5
661.563	8916.69
661.755	8771.28
661.947	8621.78
662.139	8728.27
662.331	8441.56
662.522	8484.56
662.714	8679.12
662.906	8312.53
663.097	8560.34
663.289	8457.94
663.481	8247
663.673	8290.01
663.864	8150.74
664.056	8036.06
664.247	8044.25
664.439	7845.6
664.631	8048.35
664.822	8027.87
665.014	8044.25
665.205	7954.14
665.397	7720.67
665.588	7937.76
665.78	7749.34
665.971	7821.02
666.163	7610.08
666.354	7626.46
666.546	7575.27
666.737	7589.6
666.929	7565.03
667.12	7519.97
667.311	7358.18
667.503	7380.71
667.694	7528.16
667.885	7390.95
668.077	7237.35
668.268	7159.53
668.459	7159.53
668.651	7161.58
668.842	7206.63
669.033	7067.37
669.224	7169.77
669.416	7083.75
669.607	6969.07
669.798	6924.01
669.989	7139.05
670.18	6819.57
670.371	6835.95
670.563	6889.2
670.754	6788.85
670.945	6618.86
671.136	6678.26
671.327	6749.93
671.518	6588.14
671.709	6645.49
671.9	6794.99
672.091	6643.44
672.282	6688.5
672.473	6457.07
672.664	6467.31
672.855	6510.32
673.046	6487.79
673.237	6534.9
673.428	6524.66
673.619	6416.12
673.809	6520.56
674	6344.44
674.191	6389.49
674.382	6227.7
674.573	6295.29
674.764	6526.71
674.954	6317.81
675.145	6383.35
675.336	6258.42
675.527	6352.63
675.717	6379.25
675.908	6147.83
676.099	6328.05
676.289	6176.5
676.48	6184.69
676.671	6070.01
676.861	6121.21
677.052	5938.94
677.243	5971.71
677.433	5869.31
677.624	6098.68
677.814	6070.01
678.005	6059.77
678.195	6121.21
678.386	6016.76
678.576	5846.78
678.767	5922.55
678.957	5965.56
679.148	5906.17
679.338	5875.45
679.529	5926.65
679.719	5820.16
679.909	6047.48
680.1	5738.24
680.29	5885.69
680.481	5793.53
680.671	5754.62
680.861	5775.1
681.052	5775.1
681.242	5799.68
681.432	5967.61
681.622	5838.59
681.813	5766.91
682.003	5678.85
682.193	5728
682.383	5789.44
682.573	5768.96
682.764	5572.35
682.954	5801.72
683.144	5680.89
683.334	5564.16
683.524	5680.89
683.714	5695.23
683.904	5433.09
684.094	5730.05
684.284	5510.91
684.474	5693.18
684.664	5725.95
684.854	5422.85
685.044	5611.26
685.234	5586.69
685.424	5566.21
685.614	5439.23
685.804	5459.71
685.994	5490.43
686.184	5433.09
686.374	5357.32
686.564	5398.27
686.753	5496.58
686.943	5222.15
687.133	5316.36
687.323	5396.23
687.513	5416.71
687.702	5285.64
687.892	5345.03
688.082	5062.41
688.272	5363.46
688.461	5281.54
688.651	5109.51
688.841	5041.93
689.03	5248.77
689.22	5291.78
689.41	5074.7
689.599	5205.77
689.789	5136.13
689.979	5203.72
690.168	5218.05
690.358	5048.07
690.547	5117.7
690.737	5097.22
690.926	5078.79
691.116	4980.49
691.305	5048.07
691.495	4908.81
691.684	4996.87
691.874	4898.57
692.063	4933.39
692.252	4966.15
692.442	4800.27
692.631	4861.71
692.82	4992.78
693.01	4974.35
693.199	4849.42
693.388	4906.76
693.578	4769.55
693.767	4796.17
693.956	4865.8
694.146	4759.31
694.335	4761.36
694.524	4833.04
694.713	4833.04
694.902	4630.29
695.092	4763.4
695.281	4720.4
695.47	4769.55
695.659	4693.77
695.848	4701.97
696.037	4693.77
696.226	4747.02
696.415	4613.9
696.604	4677.39
696.793	4656.91
696.982	4568.85
697.171	4501.26
697.36	4663.05
697.549	4529.94
697.738	4523.79
697.927	4437.78
698.116	4714.25
698.305	4486.93
698.494	4497.17
698.683	4534.03
698.872	4421.39
699.061	4587.28
699.25	4611.85
699.438	4472.59
699.627	4437.78
699.816	4505.36
700.005	4509.46
700.193	4540.18
700.382	4538.13
700.571	4396.82
700.76	4394.77
700.948	4392.72
701.137	4366.1
701.326	4376.34
701.514	4368.15
701.703	4304.66
701.892	4353.81
702.08	4441.87
702.269	4263.7
702.457	4339.48
702.646	4239.12
702.834	4294.42
703.023	4261.65
703.212	4261.65
703.4	4140.82
703.589	4087.57
703.777	4171.54
703.965	4171.54
704.154	4275.99
704.342	4177.69
704.531	4243.22
704.719	4251.41
704.907	4177.69
705.096	4108.05
705.284	4103.96
705.472	4140.82
705.661	3993.37
705.849	4054.81
706.037	4011.8
706.226	4071.19
706.414	4005.66
706.602	3915.55
706.79	4007.7
706.979	3981.08
707.167	4083.48
707.355	3933.98
707.543	3884.83
707.731	3968.79
707.919	3991.32
708.107	3833.63
708.296	3792.67
708.484	3874.59
708.672	3761.95
708.86	3878.68
709.048	3800.86
709.236	3817.24
709.424	3817.24
709.612	3917.59
709.8	3692.32
709.988	3628.83
710.176	3897.11
710.364	3718.94
710.551	3770.14
710.739	3680.03
710.927	3639.07
711.115	3725.08
711.303	3696.41
711.491	3733.28
711.679	3557.15
711.866	3657.5
712.054	3634.97
712.242	3669.79
712.43	3442.46
712.617	3497.76
712.805	3632.93
712.993	3573.53
713.181	3518.24
713.368	3700.51
713.556	3528.48
713.744	3510.05
713.931	3587.87
714.119	3637.02
714.306	3528.48
714.494	3555.1
714.682	3591.97
714.869	3464.99
715.057	3415.84
715.244	3440.42
715.432	3467.04
715.619	3333.92
715.807	3444.51
715.994	3555.1
716.182	3456.8
716.369	3538.72
716.556	3399.46
716.744	3376.93
716.931	3233.57
717.119	3534.62
717.306	3464.99
717.493	3317.54
717.681	3309.35
717.868	3348.26
718.055	3358.5
718.242	3172.13
718.43	3227.43
718.617	3354.4
718.804	3327.78
718.991	3112.74
719.179	3256.1
719.366	3282.72
719.553	3198.76
719.74	3133.22
719.927	3247.91
720.114	3163.94
720.301	3120.93
720.488	3159.85
720.676	3194.66
720.863	3170.08
721.05	3280.68
721.237	3112.74
721.424	3272.48
721.611	3100.45
721.798	3170.08
721.985	2973.48
722.172	2957.1
722.358	3071.78
722.545	3122.98
722.732	3088.17
722.919	2985.77
723.106	2920.23
723.293	2959.14
723.48	2930.47
723.667	2942.76
723.853	2969.38
724.04	2993.96
724.227	2961.19
724.414	2981.67
724.6	2985.77
724.787	2965.29
724.974	2938.66
725.161	2897.71
725.347	2772.78
725.534	2961.19
725.72	2981.67
725.907	2830.12
726.094	2809.64
726.28	2944.81
726.467	2848.55
726.653	2866.99
726.84	3022.63
727.027	2979.62
727.213	2844.46
727.4	2795.31
727.586	2817.83
727.773	2805.55
727.959	2760.49
728.145	2748.2
728.332	2686.76
728.518	2705.2
728.705	2864.94
728.891	2719.53
729.077	2787.11
729.264	2783.02
729.45	2799.4
729.636	2770.73
729.823	2668.33
730.009	2764.59
730.195	2785.07
730.382	2721.58
730.568	2654
730.754	2723.63
730.94	2647.85
731.126	2639.66
731.313	2830.12
731.499	2686.76
731.685	2670.38
731.871	2711.34
732.057	2555.69
732.243	2666.28
732.429	2660.14
732.615	2719.53
732.801	2697
732.987	2623.28
733.173	2574.13
733.359	2596.65
733.545	2645.8
733.731	2735.92
733.917	2733.87
734.103	2645.8
734.289	2711.34
734.475	2516.78
734.661	2522.93
734.847	2553.65
735.033	2600.75
735.219	2516.78
735.404	2582.32
735.59	2481.97
735.776	2498.35
735.962	2584.37
736.148	2580.27
736.333	2531.12
736.519	2615.09
736.705	2512.69
736.89	2500.4
737.076	2361.14
737.262	2477.87
737.447	2486.06
737.633	2510.64
737.819	2361.14
738.004	2416.43
738.19	2459.44
738.375	2318.13
738.561	2379.57
738.747	2477.87
738.932	2365.23
739.118	2371.38
739.303	2381.62
739.489	2305.84
739.674	2293.55
739.859	2266.93
740.045	2264.88
740.23	2346.8
740.416	2158.39
740.601	2393.9
740.786	2273.07
740.972	2311.99
741.157	2309.94
741.342	2277.17
741.528	2322.23
741.713	2326.32
741.898	2191.16
742.084	2221.88
742.269	2168.63
742.454	2301.75
742.639	2219.83
742.824	2328.37
743.01	2195.25
743.195	2123.57
743.38	2133.81
743.565	2107.19
743.75	2109.24
743.935	2096.95
744.12	2084.66
744.305	2058.04
744.49	2187.06
744.675	2058.04
744.86	1982.26
745.045	1980.22
745.23	2191.16
745.415	2158.39
745.6	2133.81
745.785	2000.69
745.97	2023.22
746.155	2115.38
746.34	1947.45
746.525	1943.35
746.71	1965.88
746.895	1910.58
747.079	1861.43
747.264	1994.55
747.449	1998.65
747.634	1976.12
747.819	1957.69
748.003	1957.69
748.188	1818.43
748.373	1843
748.557	1873.72
748.742	1859.38
748.927	1763.13
749.111	1728.31
749.296	1828.67
749.481	1826.62
749.665	1804.09
749.85	1728.31
750.034	1816.38
750.219	1728.31
750.404	1640.25
750.588	1738.55
750.773	1658.68
750.957	1861.43
751.141	1763.13
751.326	1728.31
751.51	1615.68
751.695	1607.48
751.879	1638.2
752.064	1730.36
752.248	1652.54
752.432	1736.51
752.617	1695.55
752.801	1711.93
752.985	1537.85
753.17	1752.89
753.354	1587.01
753.538	1570.62
753.722	1556.29
753.907	1496.89
754.091	1523.52
754.275	1476.41
754.459	1492.8
754.643	1533.76
754.828	1441.6
755.012	1441.6
755.196	1351.49
755.38	1445.7
755.564	1400.64
755.748	1433.41
755.932	1482.56
756.116	1326.91
756.3	1363.78
756.484	1384.26
756.668	1457.98
756.852	1343.3
757.036	1353.54
757.22	1269.57
757.404	1298.24
757.588	1310.53
757.772	1353.54
757.956	1255.23
758.14	1335.1
758.323	1240.9
758.507	1302.34
758.691	1343.3
758.875	1204.03
759.059	1244.99
759.242	1271.62
759.426	1234.75
759.61	1158.98
759.794	1238.85
759.977	1244.99
760.161	1302.34
760.345	1263.43
760.528	1285.95
760.712	1189.7
760.895	1138.5
761.079	1191.75
761.263	1224.51
761.446	1146.69
761.63	1189.7
761.813	1023.81
761.997	1105.73
762.18	1154.88
762.364	1222.47
762.547	1113.92
762.731	1154.88
762.914	1130.31
763.098	1097.54
763.281	1113.92
763.464	1064.77
763.648	1081.16
763.831	1101.64
764.015	1081.16
764.198	1150.79
764.381	1109.83
764.564	1081.16
764.748	1089.35
764.931	1173.32
765.114	1058.63
765.297	1064.77
765.481	1027.91
765.664	1083.2
765.847	1036.1
766.03	1111.88
766.213	1046.34
766.397	1027.91
766.58	1007.43
766.763	1040.2
766.946	1021.77
767.129	1009.48
767.312	1036.1
767.495	1040.2
767.678	888.65
767.861	1036.1
768.044	902.98
768.227	931.66
768.41	993.09
768.593	1015.62
768.776	900.94
768.959	954.18
769.142	958.28
769.324	964.42
769.507	917.32
769.69	966.47
769.873	1005.38
770.056	1027.91
770.239	880.46
770.421	999.24
770.604	892.74
770.787	1064.77
770.97	849.74
771.152	827.21
771.335	966.47
771.518	843.59
771.7	864.07
771.883	911.18
772.066	890.7
772.248	845.64
772.431	847.69
772.613	835.4
772.796	876.36
772.978	935.75
773.161	878.41
773.343	837.45
773.526	970.57
773.708	876.36
773.891	771.91
774.073	778.06
774.256	761.67
774.438	862.02
774.621	800.59
774.803	831.3
774.985	769.87
775.168	855.88
775.35	819.02
775.532	859.98
775.715	819.02
775.897	827.21
776.079	761.67
776.261	771.91
776.444	689.99
776.626	796.49
776.808	837.45
776.99	827.21
777.173	718.67
777.355	753.48
777.537	747.34
777.719	667.47
777.901	661.32
778.083	640.84
778.265	657.23
778.447	689.99
778.629	810.82
778.811	616.27
778.993	769.87
779.175	671.56
779.357	720.71
779.539	653.13
779.721	651.08
779.903	597.84
780.085	671.56
780.267	632.65
780.449	649.04
780.631	671.56
780.812	603.98
780.994	622.41
781.176	642.89
781.358	567.12
781.54	544.59
781.721	657.23
781.903	632.65
782.085	585.55
782.267	552.78
782.448	558.92
782.63	671.56
782.812	517.97
782.993	640.84
783.175	657.23
783.357	493.39
783.538	558.92
783.72	624.46
783.901	540.49
784.083	581.45
784.264	618.32
784.446	466.77
784.627	495.44
784.809	550.73
784.99	511.82
785.172	532.3
785.353	507.73
785.535	511.82
785.716	429.9
785.897	483.15
786.079	436.05
786.26	603.98
786.441	532.3
786.623	511.82
786.804	499.53
786.985	434
787.167	466.77
787.348	491.34
787.529	507.73
787.71	517.97
787.891	421.71
788.073	501.58
788.254	368.46
788.435	524.11
788.616	442.19
788.797	429.9
788.978	450.38
789.159	415.57
789.34	434
789.522	401.23
789.703	395.09
789.884	462.67
790.065	450.38
790.246	460.62
790.427	411.47
790.607	499.53
790.788	446.29
790.969	388.94
791.15	413.52
791.331	376.66
791.512	403.28
791.693	384.85
791.874	327.5
792.054	413.52
792.235	417.61
792.416	419.66
792.597	327.5
792.778	479.05
792.958	253.78
793.139	354.13
793.32	343.89
793.5	319.31
793.681	368.46
793.862	401.23
794.042	378.7
794.223	329.55
794.404	347.98
794.584	319.31
794.765	317.26
794.945	364.37
795.126	343.89
795.306	393.04
795.487	368.46
795.667	327.5
795.848	360.27
796.028	274.26
796.209	288.59
796.389	350.03
796.57	304.98
796.75	302.93
796.93	339.79
797.111	397.14
797.291	335.7
797.471	341.84
797.652	280.4
797.832	261.97
798.012	280.4
798.192	225.11
798.373	233.3
798.553	175.95
798.733	239.44
798.913	352.08
799.093	239.44
799.274	282.45
799.454	378.7
799.634	343.89
799.814	360.27
799.994	290.64
800.174	302.93
800.354	331.6
800.534	225.11
800.714	233.3
800.894	286.54
801.074	214.87
801.254	239.44
801.434	309.07
801.614	266.07
801.794	280.4
801.974	982.85
802.154	266.07
802.334	274.26
802.514	223.06
802.693	247.63
802.873	204.63
803.053	298.83
803.233	239.44
803.413	276.31
803.592	241.49
803.772	221.01
803.952	235.35
804.131	261.97
804.311	266.07
804.491	337.74
804.67	223.06
804.85	270.16
805.03	212.82
805.209	309.07
805.389	221.01
805.568	274.26
805.748	180.05
805.928	214.87
806.107	216.91
806.287	302.93
806.466	237.39
806.646	282.45
806.825	237.39
807.004	264.02
807.184	192.34
807.363	255.83
807.543	243.54
807.722	151.38
807.901	321.36
808.081	190.29
808.26	91.99
808.439	204.63
808.619	218.96
808.798	137.04
808.977	237.39
809.156	221.01
809.336	235.35
809.515	247.63
809.694	173.91
809.873	231.25
810.052	255.83
810.231	235.35
810.411	268.11
810.59	180.05
810.769	126.8
810.948	118.61
811.127	157.52
811.306	204.63
811.485	188.24
811.664	216.91
811.843	124.76
812.022	204.63
812.201	173.91
812.38	163.67
812.559	231.25
812.737	167.76
812.916	178
813.095	114.52
813.274	122.71
813.453	130.9
813.632	255.83
813.811	212.82
813.989	135
814.168	145.24
814.347	79.7
814.526	192.34
814.704	208.72
814.883	196.43
815.062	116.56
815.24	110.42
815.419	24.4
815.598	196.43
815.776	124.76
815.955	143.19
816.133	157.52
816.312	89.94
816.49	128.85
816.669	196.43
816.847	147.28
817.026	155.47
817.204	173.91
817.383	198.48
817.561	139.09
817.74	200.53
817.918	188.24
818.097	212.82
818.275	98.13
818.453	124.76
818.632	200.53
818.81	296.78
818.988	204.63
819.167	126.8
819.345	198.48
819.523	114.52
819.701	108.37
819.879	147.28
820.058	73.56
820.236	143.19
820.414	114.52
820.592	114.52
820.77	75.6
820.948	73.56
821.127	194.39
821.305	122.71
821.483	104.28
821.661	157.52
821.839	165.71
822.017	163.67
822.195	122.71
822.373	155.47
822.551	124.76
822.729	139.09
822.907	77.65
823.085	214.87
823.262	159.57
823.44	81.75
823.618	112.47
823.796	102.23
823.974	65.36
824.152	65.36
824.329	139.09
824.507	122.71
824.685	85.84
824.863	206.67
825.04	188.24
825.218	165.71
825.396	69.46
825.574	151.38
825.751	114.52
825.929	204.63
826.107	71.51
826.284	167.76
826.462	96.08
826.639	171.86
826.817	81.75
826.994	102.23
827.172	16.21
827.349	159.57
827.527	57.17
827.704	91.99
827.882	114.52
828.059	173.91
828.237	161.62
828.414	159.57
828.591	55.12
828.769	114.52
828.946	124.76
829.124	206.67
829.301	114.52
829.478	98.13
829.655	73.56
829.833	128.85
830.01	18.26
830.187	171.86
830.364	40.79
830.542	79.7
830.719	102.23
830.896	190.29
831.073	159.57
831.25	96.08
831.427	106.32
831.604	96.08
831.782	89.94
831.959	147.28
832.136	100.18
832.313	114.52
832.49	65.36
832.667	46.93
832.844	24.4
833.021	165.71
833.198	96.08
833.374	77.65
833.551	73.56
833.728	163.67
833.905	122.71
834.082	34.64
834.259	91.99
834.436	198.48
834.612	42.84
834.789	130.9
834.966	22.36
835.143	100.18
835.319	110.42
835.496	110.42
835.673	77.65
835.85	173.91
836.026	112.47
836.203	175.95
836.38	42.84
836.556	91.99
836.733	81.75
836.909	128.85
837.086	53.08
837.262	51.03
837.439	91.99
837.616	51.03
837.792	42.84
837.968	81.75
838.145	32.6
838.321	57.17
838.498	73.56
838.674	145.24
838.851	51.03
839.027	18.26
839.203	126.8
839.38	169.81
839.556	173.91
839.732	100.18
839.909	110.42
840.085	89.94
840.261	40.79
840.437	124.76
840.614	81.75
840.79	102.23
840.966	40.79
841.142	24.4
841.318	89.94
841.494	89.94
841.671	32.6
841.847	48.98
842.023	12.12
842.199	155.47
842.375	124.76
842.551	51.03
842.727	53.08
842.903	135
843.079	44.88
843.255	112.47
843.431	91.99
843.607	16.21
843.783	38.74
843.959	122.71
844.134	81.75
844.31	124.76
844.486	73.56
844.662	16.21
844.838	73.56
845.013	-2.22
845.189	71.51
845.365	106.32
845.541	1.88
845.716	122.71
845.892	118.61
846.068	16.21
846.244	57.17
846.419	34.64
846.595	73.56
846.77	53.08
846.946	94.04
847.122	10.07
847.297	32.6
847.473	67.41
847.648	32.6
847.824	57.17
847.999	20.31
848.175	65.36
848.35	100.18
848.526	69.46
848.701	65.36
848.876	81.75
849.052	110.42
849.227	98.13
849.403	122.71
849.578	51.03
849.753	100.18
849.929	130.9
850.104	-16.55
850.279	75.6
850.454	16.21
850.63	108.37
850.805	73.56
850.98	48.98
851.155	44.88
851.33	67.41
851.505	5.97
851.681	83.8
851.856	53.08
852.031	139.09
852.206	89.94
852.381	139.09
852.556	40.79
852.731	59.22
852.906	63.32
853.081	20.31
853.256	130.9
853.431	94.04
853.606	18.26
853.781	-18.6
853.956	40.79
854.131	-28.84
854.305	75.6
854.48	8.02
854.655	91.99
854.83	12.12
855.005	8.02
855.18	-12.46
855.354	-8.36
855.529	63.32
855.704	61.27
855.879	106.32
856.053	-16.55
856.228	36.69
856.403	40.79
856.577	73.56
856.752	14.17
856.926	-24.75
857.101	-4.27
857.276	10.07
857.45	-6.31
857.625	116.56
857.799	98.13
857.974	36.69
858.148	8.02
858.323	112.47
858.497	51.03
858.672	28.5
858.846	122.71
859.02	110.42
859.195	-32.94
859.369	28.5
859.543	34.64
859.718	18.26
859.892	85.84
860.066	34.64
860.241	143.19
860.415	89.94
860.589	40.79
860.763	16.21
860.938	-0.17
861.112	30.55
861.286	-14.51
861.46	57.17
861.634	44.88
861.808	106.32
861.982	20.31
862.157	24.4
862.331	-55.47
862.505	-12.46
862.679	-24.75
862.853	-55.47
863.027	14.17
863.201	147.28
863.375	-41.13
863.549	8.02
863.722	-8.36
863.896	40.79
864.07	-34.99
864.244	42.84
864.418	40.79
864.592	-49.32
864.766	48.98
864.939	85.84
865.113	-0.17
865.287	106.32
865.461	18.26
865.634	24.4
865.808	24.4
865.982	63.32
866.156	32.6
866.329	32.6
866.503	-8.36
866.676	141.14
866.85	57.17
867.024	-0.17
867.197	139.09
867.371	53.08
867.544	-0.17
867.718	34.64
867.891	34.64
868.065	24.4
868.238	28.5
868.412	65.36
868.585	57.17
868.759	-8.36
868.932	24.4
869.105	16.21
869.279	-24.75
869.452	-28.84
869.625	14.17
869.799	-6.31
869.972	10.07
870.145	-6.31
870.319	10.07
870.492	26.45
870.665	22.36
870.838	-57.51
871.011	-12.46
871.185	89.94
871.358	61.27
871.531	8.02
871.704	46.93
871.877	48.98
872.05	28.5
872.223	-28.84
872.396	55.12
872.569	32.6
872.742	-6.31
872.915	98.13
873.088	-20.65
873.261	-8.36
873.434	40.79
873.607	32.6
873.78	85.84
873.953	26.45
874.126	5.97
874.299	81.75
874.471	-14.51
874.644	73.56
874.817	-14.51
874.99	10.07
875.163	67.41
875.335	-10.41
875.508	-20.65
875.681	36.69
875.853	22.36
876.026	24.4
876.199	85.84
876.371	135
876.544	20.31
876.717	-6.31
876.889	20.31
877.062	75.6
877.234	-18.6
877.407	32.6
877.579	48.98
877.752	-0.17
877.924	77.65
878.097	77.65
878.269	40.79
878.442	8.02
878.614	16.21
878.786	94.04
878.959	-24.75
879.131	75.6
879.303	48.98
879.476	42.84
879.648	-24.75
879.82	32.6
879.993	-22.7
880.165	-8.36
880.337	16.21
880.509	5.97
880.681	-92.33
880.854	77.65
881.026	-6.31
881.198	83.8
881.37	36.69
881.542	51.03
881.714	-24.75
881.886	12.12
882.058	8.02
882.23	1.88
882.402	34.64
882.574	30.55
882.746	-2.22
882.918	87.89
883.09	40.79
883.262	1.88
883.434	16.21
883.606	-12.46
883.778	32.6
883.95	91.99
884.122	-8.36
884.293	-6.31
884.465	-30.89
884.637	87.89
884.809	44.88
884.98	10.07
885.152	36.69
885.324	100.18
885.496	36.69
885.667	3.93
885.839	-14.51
886.011	48.98
886.182	77.65
886.354	1.88
886.525	44.88
886.697	-30.89
886.869	18.26
887.04	36.69
887.212	48.98
887.383	81.75
887.555	22.36
887.726	51.03
887.897	-12.46
888.069	71.51
888.24	73.56
888.412	57.17
888.583	24.4
888.754	94.04
888.926	-80.04
889.097	10.07
889.268	-30.89
889.44	55.12
889.611	48.98
889.782	5.97
889.953	12.12
890.125	73.56
890.296	16.21
890.467	28.5
890.638	8.02
890.809	3.93
890.98	-34.99
891.151	59.22
891.323	51.03
891.494	-8.36
891.665	48.98
891.836	65.36
892.007	-8.36
892.178	48.98
892.349	61.27
892.52	-16.55
892.691	12.12
892.862	16.21
893.032	-112.81
893.203	-0.17
893.374	-20.65
893.545	24.4
893.716	48.98
893.887	55.12
894.057	32.6
894.228	65.36
894.399	14.17
894.57	132.95
894.74	63.32
894.911	91.99
895.082	42.84
895.253	16.21
895.423	-41.13
895.594	61.27
895.764	20.31
895.935	-6.31
896.106	32.6
896.276	16.21
896.447	26.45
896.617	16.21
896.788	10.07
896.958	57.17
897.129	-8.36
897.299	36.69
897.47	24.4
897.64	65.36
897.81	5.97
897.981	44.88
898.151	-69.8
898.322	85.84
898.492	-41.13
898.662	81.75
898.832	-0.17
899.003	24.4
899.173	114.52
899.343	-0.17
899.513	-16.55
