Data from USB4F104151__218__14-33-49-817.txt Node

Date: Thu Mar 13 14:33:49 EDT 2025
User: louis
Spectrometer: USB4F10415
Trigger mode: 4
Integration Time (sec): 2.500000E-2
Scans to average: 1
Electric dark correction enabled: true
Nonlinearity correction enabled: false
Boxcar width: 0
XAxis mode: Wavelengths
Number of Pixels in Spectrum: 3648
>>>>>Begin Spectral Data<<<<<
178.204	-179.37
178.424	-179.37
178.644	-179.37
178.864	-156.84
179.084	-115.88
179.304	-33.96
179.524	-9.39
179.744	23.38
179.964	121.68
180.184	-64.68
180.404	23.38
180.624	-17.58
180.844	2.9
181.064	-33.96
181.283	-1.19
181.503	-9.39
181.723	-1.19
181.943	-13.48
182.163	60.24
182.383	70.48
182.602	-3.24
182.822	113.49
183.042	21.33
183.262	-33.96
183.482	93.01
183.701	64.34
183.921	19.29
184.141	47.96
184.361	115.54
184.58	-7.34
184.8	0.85
185.02	64.34
185.239	15.19
185.459	-40.11
185.679	43.86
185.898	95.06
186.118	90.96
186.338	84.82
186.557	68.44
186.777	9.05
186.997	11.09
187.216	17.24
187.436	162.64
187.655	35.67
187.875	31.57
188.095	76.63
188.314	64.34
188.534	101.2
188.753	80.72
188.973	23.38
189.192	101.2
189.412	74.58
189.631	82.77
189.851	-5.29
190.07	86.87
190.29	-21.67
190.509	93.01
190.729	-17.58
190.948	101.2
191.168	156.5
191.387	129.88
191.607	-58.54
191.826	88.92
192.045	39.76
192.265	23.38
192.484	43.86
192.704	105.3
192.923	-7.34
193.142	88.92
193.362	33.62
193.581	97.11
193.8	97.11
194.02	93.01
194.239	25.43
194.458	97.11
194.678	-15.53
194.897	25.43
195.116	17.24
195.335	86.87
195.555	23.38
195.774	107.35
195.993	74.58
196.212	7
196.432	-23.72
196.651	7
196.87	74.58
197.089	129.88
197.308	39.76
197.528	58.2
197.747	-62.63
197.966	70.48
198.185	174.93
198.404	2.9
198.623	117.59
198.842	19.29
199.062	56.15
199.281	80.72
199.5	15.19
199.719	58.2
199.938	97.11
200.157	68.44
200.376	80.72
200.595	58.2
200.814	80.72
201.033	27.48
201.252	74.58
201.471	-15.53
201.69	72.53
201.909	39.76
202.128	93.01
202.347	35.67
202.566	-13.48
202.785	-25.77
203.004	2.9
203.223	164.69
203.442	88.92
203.661	-21.67
203.879	56.15
204.098	117.59
204.317	27.48
204.536	31.57
204.755	35.67
204.974	27.48
205.193	82.77
205.411	88.92
205.63	68.44
205.849	35.67
206.068	-7.34
206.287	90.96
206.505	76.63
206.724	43.86
206.943	35.67
207.162	50
207.381	39.76
207.599	72.53
207.818	72.53
208.037	31.57
208.255	47.96
208.474	80.72
208.693	56.15
208.911	54.1
209.13	25.43
209.349	-25.77
209.567	86.87
209.786	-9.39
210.005	93.01
210.223	23.38
210.442	50
210.661	58.2
210.879	-13.48
211.098	56.15
211.316	27.48
211.535	76.63
211.753	39.76
211.972	33.62
212.191	90.96
212.409	9.05
212.628	74.58
212.846	11.09
213.065	54.1
213.283	88.92
213.502	82.77
213.72	97.11
213.938	90.96
214.157	84.82
214.375	56.15
214.594	76.63
214.812	31.57
215.031	23.38
215.249	45.91
215.467	64.34
215.686	82.77
215.904	105.3
216.122	47.96
216.341	80.72
216.559	117.59
216.778	146.26
216.996	23.38
217.214	101.2
217.432	45.91
217.651	80.72
217.869	56.15
218.087	15.19
218.306	88.92
218.524	25.43
218.742	68.44
218.96	82.77
219.179	4.95
219.397	52.05
219.615	113.49
219.833	39.76
220.051	58.2
220.27	58.2
220.488	37.72
220.706	25.43
220.924	31.57
221.142	66.39
221.36	52.05
221.578	17.24
221.796	33.62
222.015	117.59
222.233	47.96
222.451	76.63
222.669	-5.29
222.887	88.92
223.105	37.72
223.323	76.63
223.541	47.96
223.759	56.15
223.977	93.01
224.195	72.53
224.413	31.57
224.631	60.24
224.849	27.48
225.067	52.05
225.285	-74.92
225.503	35.67
225.721	60.24
225.939	97.11
226.157	45.91
226.375	162.64
226.592	21.33
226.81	15.19
227.028	129.88
227.246	82.77
227.464	-13.48
227.682	93.01
227.9	47.96
228.117	78.68
228.335	152.4
228.553	0.85
228.771	43.86
228.989	150.36
229.206	125.78
229.424	17.24
229.642	64.34
229.86	-9.39
230.077	72.53
230.295	70.48
230.513	17.24
230.731	154.45
230.948	58.2
231.166	93.01
231.384	72.53
231.601	47.96
231.819	158.55
232.037	13.14
232.254	-33.96
232.472	64.34
232.689	31.57
232.907	-7.34
233.125	0.85
233.342	35.67
233.56	60.24
233.777	47.96
233.995	78.68
234.213	19.29
234.43	111.44
234.648	-7.34
234.865	23.38
235.083	80.72
235.3	41.81
235.518	90.96
235.735	64.34
235.953	64.34
236.17	68.44
236.388	-113.83
236.605	64.34
236.822	68.44
237.04	129.88
237.257	56.15
237.475	56.15
237.692	43.86
237.909	56.15
238.127	25.43
238.344	72.53
238.562	35.67
238.779	88.92
238.996	21.33
239.214	7
239.431	27.48
239.648	84.82
239.865	64.34
240.083	56.15
240.3	2.9
240.517	97.11
240.735	64.34
240.952	41.81
241.169	58.2
241.386	56.15
241.603	56.15
241.821	33.62
242.038	41.81
242.255	76.63
242.472	-91.31
242.689	109.4
242.907	101.2
243.124	-17.58
243.341	15.19
243.558	58.2
243.775	52.05
243.992	27.48
244.209	162.64
244.426	93.01
244.643	80.72
244.86	25.43
245.078	101.2
245.295	99.16
245.512	-1.19
245.729	-5.29
245.946	56.15
246.163	95.06
246.38	97.11
246.597	58.2
246.814	84.82
247.031	115.54
247.248	66.39
247.464	74.58
247.681	7
247.898	31.57
248.115	64.34
248.332	29.52
248.549	31.57
248.766	56.15
248.983	35.67
249.2	50
249.417	99.16
249.633	80.72
249.85	39.76
250.067	64.34
250.284	113.49
250.501	-21.67
250.717	95.06
250.934	31.57
251.151	84.82
251.368	-38.06
251.585	64.34
251.801	-17.58
252.018	31.57
252.235	43.86
252.451	-3.24
252.668	56.15
252.885	90.96
253.102	80.72
253.318	-15.53
253.535	4.95
253.752	17.24
253.968	54.1
254.185	35.67
254.401	62.29
254.618	17.24
254.835	43.86
255.051	64.34
255.268	17.24
255.484	-1.19
255.701	0.85
255.917	76.63
256.134	0.85
256.351	11.09
256.567	-9.39
256.784	11.09
257	33.62
257.217	41.81
257.433	97.11
257.65	101.2
257.866	-15.53
258.082	72.53
258.299	0.85
258.515	52.05
258.732	-44.2
258.948	129.88
259.165	43.86
259.381	-1.19
259.597	56.15
259.814	80.72
260.03	13.14
260.246	99.16
260.463	23.38
260.679	72.53
260.895	-7.34
261.112	19.29
261.328	31.57
261.544	86.87
261.761	111.44
261.977	80.72
262.193	-17.58
262.409	107.35
262.626	58.2
262.842	-1.19
263.058	7
263.274	107.35
263.49	47.96
263.707	189.27
263.923	93.01
264.139	-1.19
264.355	138.07
264.571	146.26
264.787	72.53
265.004	88.92
265.22	33.62
265.436	-1.19
265.652	17.24
265.868	31.57
266.084	88.92
266.3	13.14
266.516	-9.39
266.732	-1.19
266.948	15.19
267.164	60.24
267.38	80.72
267.596	39.76
267.812	80.72
268.028	23.38
268.244	27.48
268.46	74.58
268.676	2.9
268.892	93.01
269.108	31.57
269.324	33.62
269.54	33.62
269.756	103.25
269.972	33.62
270.188	25.43
270.403	50
270.619	47.96
270.835	80.72
271.051	86.87
271.267	50
271.483	19.29
271.698	88.92
271.914	111.44
272.13	78.68
272.346	-48.3
272.562	25.43
272.777	74.58
272.993	15.19
273.209	58.2
273.425	74.58
273.64	72.53
273.856	80.72
274.072	4.95
274.287	-42.15
274.503	50
274.719	82.77
274.934	90.96
275.15	-7.34
275.366	80.72
275.581	72.53
275.797	64.34
276.012	25.43
276.228	62.29
276.444	-13.48
276.659	187.22
276.875	19.29
277.09	90.96
277.306	84.82
277.521	64.34
277.737	70.48
277.952	15.19
278.168	68.44
278.383	84.82
278.599	72.53
278.814	90.96
279.03	35.67
279.245	123.73
279.461	97.11
279.676	68.44
279.892	33.62
280.107	52.05
280.322	11.09
280.538	146.26
280.753	15.19
280.969	58.2
281.184	131.92
281.399	60.24
281.615	88.92
281.83	64.34
282.045	88.92
282.26	50
282.476	97.11
282.691	45.91
282.906	19.29
283.122	47.96
283.337	56.15
283.552	78.68
283.767	64.34
283.983	90.96
284.198	11.09
284.413	60.24
284.628	-25.77
284.843	121.68
285.058	19.29
285.274	25.43
285.489	29.52
285.704	33.62
285.919	31.57
286.134	64.34
286.349	25.43
286.564	123.73
286.779	64.34
286.995	56.15
287.21	-9.39
287.425	97.11
287.64	7
287.855	88.92
288.07	17.24
288.285	29.52
288.5	107.35
288.715	105.3
288.93	58.2
289.145	15.19
289.36	97.11
289.575	97.11
289.79	80.72
290.004	31.57
290.219	90.96
290.434	60.24
290.649	74.58
290.864	39.76
291.079	31.57
291.294	66.39
291.509	84.82
291.724	2.9
291.938	9.05
292.153	105.3
292.368	82.77
292.583	105.3
292.798	109.4
293.012	43.86
293.227	97.11
293.442	58.2
293.657	70.48
293.871	93.01
294.086	121.68
294.301	74.58
294.516	117.59
294.73	58.2
294.945	113.49
295.16	113.49
295.374	82.77
295.589	123.73
295.804	109.4
296.018	56.15
296.233	76.63
296.447	39.76
296.662	-1.19
296.877	107.35
297.091	39.76
297.306	19.29
297.52	23.38
297.735	64.34
297.949	86.87
298.164	47.96
298.378	101.2
298.593	99.16
298.807	-1.19
299.022	7
299.236	109.4
299.451	123.73
299.665	64.34
299.88	105.3
300.094	41.81
300.309	27.48
300.523	76.63
300.737	41.81
300.952	142.16
301.166	88.92
301.381	97.11
301.595	101.2
301.809	60.24
302.024	74.58
302.238	72.53
302.452	78.68
302.667	-1.19
302.881	82.77
303.095	50
303.309	80.72
303.524	4.95
303.738	31.57
303.952	15.19
304.166	90.96
304.381	-7.34
304.595	107.35
304.809	80.72
305.023	80.72
305.237	70.48
305.452	68.44
305.666	158.55
305.88	88.92
306.094	88.92
306.308	68.44
306.522	19.29
306.736	80.72
306.95	11.09
307.164	27.48
307.379	66.39
307.593	47.96
307.807	105.3
308.021	113.49
308.235	47.96
308.449	58.2
308.663	107.35
308.877	70.48
309.091	68.44
309.305	72.53
309.519	101.2
309.733	70.48
309.947	43.86
310.161	107.35
310.374	-5.29
310.588	82.77
310.802	-56.49
311.016	70.48
311.23	115.54
311.444	109.4
311.658	82.77
311.872	146.26
312.085	62.29
312.299	90.96
312.513	74.58
312.727	56.15
312.941	37.72
313.154	72.53
313.368	60.24
313.582	43.86
313.796	17.24
314.009	64.34
314.223	82.77
314.437	80.72
314.651	107.35
314.864	41.81
315.078	72.53
315.292	56.15
315.505	9.05
315.719	99.16
315.933	66.39
316.146	64.34
316.36	56.15
316.573	111.44
316.787	76.63
317.001	52.05
317.214	64.34
317.428	70.48
317.641	13.14
317.855	146.26
318.068	62.29
318.282	82.77
318.495	93.01
318.709	88.92
318.922	66.39
319.136	45.91
319.349	138.07
319.563	33.62
319.776	31.57
319.99	64.34
320.203	88.92
320.417	41.81
320.63	66.39
320.843	115.54
321.057	95.06
321.27	90.96
321.483	113.49
321.697	25.43
321.91	11.09
322.124	97.11
322.337	64.34
322.55	131.92
322.763	39.76
322.977	39.76
323.19	47.96
323.403	84.82
323.617	31.57
323.83	41.81
324.043	64.34
324.256	60.24
324.469	39.76
324.683	70.48
324.896	72.53
325.109	146.26
325.322	76.63
325.535	68.44
325.748	113.49
325.962	56.15
326.175	76.63
326.388	152.4
326.601	72.53
326.814	107.35
327.027	123.73
327.24	123.73
327.453	0.85
327.666	76.63
327.879	84.82
328.092	97.11
328.305	82.77
328.518	19.29
328.731	41.81
328.944	125.78
329.157	13.14
329.37	72.53
329.583	136.02
329.796	125.78
330.009	31.57
330.222	127.83
330.435	95.06
330.648	115.54
330.861	72.53
331.073	97.11
331.286	115.54
331.499	41.81
331.712	76.63
331.925	136.02
332.138	43.86
332.35	72.53
332.563	23.38
332.776	80.72
332.989	-23.72
333.202	74.58
333.414	37.72
333.627	84.82
333.84	72.53
334.053	80.72
334.265	76.63
334.478	27.48
334.691	82.77
334.903	129.88
335.116	33.62
335.329	72.53
335.541	19.29
335.754	146.26
335.966	54.1
336.179	129.88
336.392	80.72
336.604	72.53
336.817	88.92
337.029	60.24
337.242	64.34
337.454	109.4
337.667	-9.39
337.88	154.45
338.092	82.77
338.305	68.44
338.517	-23.72
338.729	158.55
338.942	80.72
339.154	58.2
339.367	35.67
339.579	101.2
339.792	21.33
340.004	121.68
340.217	84.82
340.429	76.63
340.641	0.85
340.854	47.96
341.066	123.73
341.278	131.92
341.491	125.78
341.703	125.78
341.915	13.14
342.128	86.87
342.34	101.2
342.552	88.92
342.764	140.12
342.977	39.76
343.189	121.68
343.401	117.59
343.613	0.85
343.826	97.11
344.038	72.53
344.25	90.96
344.462	74.58
344.674	56.15
344.886	13.14
345.099	97.11
345.311	72.53
345.523	17.24
345.735	-58.54
345.947	47.96
346.159	84.82
346.371	76.63
346.583	105.3
346.795	131.92
347.007	74.58
347.219	29.52
347.431	52.05
347.643	80.72
347.855	9.05
348.067	123.73
348.279	37.72
348.491	66.39
348.703	111.44
348.915	45.91
349.127	15.19
349.339	99.16
349.551	-13.48
349.763	95.06
349.975	80.72
350.187	66.39
350.399	45.91
350.61	88.92
350.822	105.3
351.034	88.92
351.246	68.44
351.458	41.81
351.669	64.34
351.881	47.96
352.093	80.72
352.305	82.77
352.517	121.68
352.728	170.83
352.94	109.4
353.152	107.35
353.363	84.82
353.575	47.96
353.787	17.24
353.999	80.72
354.21	121.68
354.422	74.58
354.633	45.91
354.845	74.58
355.057	86.87
355.268	170.83
355.48	88.92
355.692	23.38
355.903	76.63
356.115	129.88
356.326	80.72
356.538	140.12
356.749	125.78
356.961	80.72
357.172	138.07
357.384	80.72
357.595	117.59
357.807	101.2
358.018	88.92
358.23	72.53
358.441	146.26
358.653	103.25
358.864	121.68
359.075	64.34
359.287	52.05
359.498	86.87
359.709	86.87
359.921	60.24
360.132	2.9
360.344	121.68
360.555	82.77
360.766	105.3
360.977	56.15
361.189	113.49
361.4	82.77
361.611	80.72
361.823	90.96
362.034	72.53
362.245	52.05
362.456	162.64
362.667	84.82
362.879	88.92
363.09	76.63
363.301	68.44
363.512	107.35
363.723	15.19
363.935	58.2
364.146	41.81
364.357	62.29
364.568	62.29
364.779	15.19
364.99	101.2
365.201	76.63
365.412	166.74
365.623	15.19
365.834	0.85
366.045	47.96
366.256	64.34
366.467	66.39
366.678	74.58
366.889	140.12
367.1	11.09
367.311	84.82
367.522	64.34
367.733	133.97
367.944	76.63
368.155	84.82
368.366	17.24
368.577	105.3
368.788	82.77
368.999	58.2
369.209	60.24
369.42	179.03
369.631	150.36
369.842	99.16
370.053	103.25
370.264	129.88
370.474	117.59
370.685	62.29
370.896	64.34
371.107	56.15
371.317	105.3
371.528	113.49
371.739	125.78
371.95	109.4
372.16	109.4
372.371	29.52
372.582	72.53
372.792	136.02
373.003	56.15
373.214	72.53
373.424	103.25
373.635	97.11
373.846	84.82
374.056	99.16
374.267	105.3
374.477	103.25
374.688	31.57
374.898	27.48
375.109	-13.48
375.319	76.63
375.53	123.73
375.74	99.16
375.951	133.97
376.161	80.72
376.372	129.88
376.582	140.12
376.793	64.34
377.003	97.11
377.214	23.38
377.424	113.49
377.635	62.29
377.845	80.72
378.055	154.45
378.266	9.05
378.476	74.58
378.686	72.53
378.897	138.07
379.107	93.01
379.317	101.2
379.528	72.53
379.738	113.49
379.948	39.76
380.158	97.11
380.369	138.07
380.579	125.78
380.789	29.52
380.999	105.3
381.21	90.96
381.42	140.12
381.63	25.43
381.84	80.72
382.05	119.64
382.261	105.3
382.471	80.72
382.681	90.96
382.891	148.31
383.101	146.26
383.311	50
383.521	39.76
383.731	113.49
383.941	154.45
384.151	88.92
384.361	80.72
384.571	43.86
384.781	105.3
384.991	148.31
385.201	154.45
385.411	146.26
385.621	113.49
385.831	68.44
386.041	97.11
386.251	90.96
386.461	205.65
386.671	23.38
386.881	125.78
387.091	97.11
387.301	64.34
387.511	97.11
387.72	162.64
387.93	90.96
388.14	52.05
388.35	47.96
388.56	121.68
388.769	113.49
388.979	64.34
389.189	64.34
389.399	131.92
389.609	56.15
389.818	121.68
390.028	66.39
390.238	97.11
390.447	68.44
390.657	76.63
390.867	47.96
391.076	115.54
391.286	164.69
391.496	50
391.705	117.59
391.915	154.45
392.125	191.31
392.334	105.3
392.544	97.11
392.753	107.35
392.963	64.34
393.172	136.02
393.382	84.82
393.591	162.64
393.801	84.82
394.01	203.6
394.22	138.07
394.429	148.31
394.639	117.59
394.848	117.59
395.058	121.68
395.267	109.4
395.477	183.12
395.686	156.5
395.895	189.27
396.105	97.11
396.314	93.01
396.524	97.11
396.733	82.77
396.942	154.45
397.152	228.18
397.361	129.88
397.57	103.25
397.78	197.46
397.989	183.12
398.198	207.7
398.407	136.02
398.617	156.5
398.826	183.12
399.035	99.16
399.244	179.03
399.453	103.25
399.663	162.64
399.872	121.68
400.081	211.79
400.29	162.64
400.499	101.2
400.708	213.84
400.917	142.16
401.127	125.78
401.336	224.08
401.545	197.46
401.754	219.99
401.963	187.22
402.172	158.55
402.381	224.08
402.59	195.41
402.799	203.6
403.008	228.18
403.217	138.07
403.426	322.38
403.635	172.88
403.844	162.64
404.053	160.59
404.262	158.55
404.471	224.08
404.68	240.47
404.888	279.38
405.097	199.51
405.306	211.79
405.515	293.71
405.724	242.51
405.933	287.57
406.142	189.27
406.35	314.19
406.559	342.86
406.768	211.79
406.977	295.76
407.185	336.72
407.394	303.95
407.603	324.43
407.812	447.31
408.02	400.21
408.229	310.1
408.438	344.91
408.646	297.81
408.855	336.72
409.064	353.1
409.272	449.36
409.481	459.6
409.69	385.87
409.898	383.82
410.107	533.33
410.315	449.36
410.524	506.7
410.733	572.24
410.941	480.08
411.15	645.96
411.358	543.57
411.567	654.16
411.775	605
411.984	637.77
412.192	697.16
412.401	678.73
412.609	752.46
412.818	777.03
413.026	795.47
413.234	746.31
413.443	834.38
413.651	949.06
413.86	834.38
414.068	977.73
414.276	1051.46
414.485	936.78
414.693	1094.47
414.901	1051.46
415.11	1024.84
415.318	1104.71
415.526	1123.14
415.734	1235.78
415.943	1219.39
416.151	1317.7
416.359	1256.26
416.567	1229.63
416.776	1489.73
416.984	1473.34
417.192	1540.93
417.4	1532.73
417.608	1424.19
417.817	1555.26
418.025	1712.96
418.233	1770.3
418.441	1686.33
418.649	1850.17
418.857	1911.61
419.065	1966.9
419.273	2030.39
419.481	2169.65
419.689	2124.6
419.897	2204.47
420.105	2452.27
420.313	2491.18
420.521	2517.81
420.729	2587.44
420.937	2622.25
421.145	2671.4
421.353	2804.52
421.561	2939.69
421.769	3040.04
421.977	3263.27
422.185	3173.16
422.393	3334.95
422.601	3664.67
422.809	3547.94
423.017	3566.37
423.224	3775.26
423.432	3760.92
423.64	3767.07
423.848	4240.15
424.056	4229.91
424.263	4561.68
424.471	4541.2
424.679	4496.14
424.887	4684.56
425.094	4750.09
425.302	5014.28
425.51	5157.64
425.718	5196.55
425.925	5290.76
426.133	5470.98
426.341	5878.52
426.548	6060.79
426.756	6306.55
426.964	5991.16
427.171	6671.09
427.379	6845.16
427.586	6732.53
427.794	7103.21
428.001	7281.38
428.209	7650.02
428.417	7494.37
428.624	8127.19
428.832	8086.23
429.039	7946.97
429.247	7953.12
429.454	8682.19
429.662	9310.92
429.869	8600.27
430.076	9198.28
430.284	8954.57
430.491	9464.52
430.699	10013.37
430.906	9976.51
431.114	9935.55
431.321	10566.32
431.528	10928.81
431.736	11330.22
431.943	11852.45
432.15	11526.82
432.358	11653.8
432.565	12149.4
432.772	12262.04
432.979	12882.58
433.187	13183.63
433.394	13202.06
433.601	14080.64
433.808	14357.11
434.016	13959.81
434.223	14629.49
434.43	15583.85
434.637	15239.79
434.844	16216.67
435.052	16153.18
435.259	16130.66
435.466	16474.71
435.673	16357.98
435.88	17195.6
436.087	18324.03
436.294	18227.78
436.501	18018.88
436.708	18262.59
436.915	18487.87
437.122	19554.86
437.329	19339.82
437.537	20218.4
437.743	20345.37
437.95	20328.99
438.157	21375.5
438.364	21922.31
438.571	22098.44
438.778	22245.89
438.985	24052.2
439.192	23284.21
439.399	24029.67
439.606	23562.73
439.813	24893.91
440.02	26247.62
440.227	25932.23
440.433	25369.04
440.64	26196.42
440.847	26307.01
441.054	26870.2
441.261	28709.28
441.467	28383.65
441.674	28791.2
441.881	29901.2
442.088	29800.85
442.294	29389.2
442.501	30089.61
442.708	30519.68
442.914	31734.13
443.121	33274.2
443.328	32364.9
443.534	34601.29
443.741	33646.93
443.948	33395.03
444.154	35803.44
444.361	35531.06
444.568	35760.44
444.774	35823.92
444.981	35973.42
445.187	37052.7
445.394	38742.28
445.6	38256.91
445.807	41580.76
446.013	40005.87
446.22	40515.82
446.426	42047.7
446.633	42531.02
446.839	44116.15
447.046	41957.59
447.252	44384.43
447.459	44394.67
447.665	43782.33
447.871	46026.9
448.078	47990.91
448.284	45787.29
448.491	47472.77
448.697	48554.1
448.903	49815.65
449.11	49803.36
449.316	49244.26
449.522	49827.93
449.728	51036.23
449.935	51413.06
450.141	51032.14
450.347	51970.11
450.553	50868.3
450.76	51630.15
450.966	52924.46
451.172	52645.94
451.378	53702.69
451.584	52701.23
451.791	54206.49
451.997	53854.24
452.203	54331.42
452.409	54779.92
452.615	54181.91
452.821	52295.74
453.027	52047.93
453.233	54538.26
453.44	52310.07
453.646	52482.1
453.852	52879.41
454.058	53964.83
454.264	51998.78
454.47	53575.72
454.676	52275.26
454.882	53790.75
455.088	49127.53
455.294	49893.47
455.5	50874.45
455.705	50466.9
455.911	49139.82
456.117	48349.3
456.323	47769.72
456.529	45267.11
456.735	47186.05
456.941	46057.62
457.147	44877.99
457.352	43569.34
457.558	43460.8
457.764	43694.27
457.97	42901.7
458.176	41597.15
458.381	41865.43
458.587	39686.39
458.793	39897.33
458.999	37120.29
459.204	39739.64
459.41	39115.01
459.616	36589.86
459.821	36698.41
460.027	36614.44
460.233	35696.95
460.438	34136.4
460.644	34550.09
460.85	32704.87
461.055	32377.19
461.261	32196.97
461.466	29983.12
461.672	29190.55
461.878	30722.43
462.083	28871.07
462.289	28561.83
462.494	27912.62
462.7	26902.97
462.905	26214.85
463.111	27259.32
463.316	26925.5
463.522	27105.72
463.727	26829.24
463.932	26515.9
464.138	26501.57
464.343	26427.84
464.549	25772.49
464.754	26515.9
464.959	26266.05
465.165	26008.01
465.37	24979.93
465.575	24592.86
465.781	25389.52
465.986	25391.57
466.191	24805.85
466.397	24218.08
466.602	22804.99
466.807	23767.53
467.012	23699.95
467.218	23409.14
467.423	23226.87
467.628	23622.12
467.833	24574.43
468.038	23503.34
468.244	23009.78
468.449	23925.22
468.654	22841.85
468.859	22706.68
469.064	22819.32
469.269	21953.03
469.474	22254.08
469.679	22573.56
469.885	21912.07
470.09	22182.4
470.295	21760.52
470.5	21393.93
470.705	21760.52
470.91	21309.97
471.115	20722.2
471.32	21066.26
471.525	20918.81
471.73	20652.57
471.935	20544.03
472.139	19839.53
472.344	20232.74
472.549	19606.06
472.754	19808.81
472.959	19434.03
473.164	18985.52
473.369	18577.98
473.574	19167.79
473.778	19198.51
473.983	18723.38
474.188	18788.92
474.393	17984.07
474.598	18094.66
474.802	17924.68
475.007	17949.25
475.212	17783.37
475.417	17082.96
475.621	17021.52
475.826	16986.71
476.031	16677.46
476.235	16509.53
476.44	16824.92
476.645	16487
476.849	16566.87
477.054	16132.7
477.259	15946.34
477.463	15909.47
477.668	15741.54
477.872	15823.46
478.077	15499.88
478.282	15321.71
478.486	15211.12
478.691	15063.66
478.895	14924.4
479.1	14932.59
479.304	14887.54
479.509	14418.55
479.713	14948.98
479.918	14201.47
480.122	14531.19
480.326	14594.68
480.531	14563.96
480.735	14430.84
480.94	14013.06
481.144	14668.41
481.348	13687.43
481.553	14195.32
481.757	13802.11
481.961	13884.03
482.166	14131.84
482.37	13888.13
482.574	13785.73
482.778	13759.11
482.983	13824.64
483.187	13945.47
483.391	13943.42
483.595	13677.19
483.8	13691.52
484.004	13855.36
484.208	13931.14
484.412	13910.66
484.616	14066.3
484.821	14135.93
485.025	13714.05
485.229	13767.3
485.433	13744.77
485.637	13902.47
485.841	13554.31
486.045	13605.51
486.249	13777.54
486.453	13646.47
486.657	13709.96
486.861	13929.09
487.065	13369.99
487.269	13759.11
487.473	13531.78
487.677	13613.7
487.881	14170.75
488.085	13777.54
488.289	13724.29
488.493	13609.61
488.697	13712
488.901	13757.06
489.105	13834.88
489.309	14006.91
489.512	13818.5
489.716	13931.14
489.92	13836.93
490.124	14101.12
490.328	14000.77
490.531	13968
490.735	14047.87
490.939	14117.5
491.143	13861.51
491.346	14058.11
491.55	14320.25
491.754	14000.77
491.958	14355.07
492.161	14260.86
492.365	14598.77
492.569	14131.84
492.772	14279.29
492.976	14762.61
493.18	14662.26
493.383	14721.65
493.587	14686.84
493.79	14928.5
493.994	14738.04
494.197	15141.49
494.401	15004.27
494.605	14930.55
494.808	15317.61
495.012	15356.52
495.215	15434.35
495.419	15501.93
495.622	15417.96
495.825	15876.71
496.029	15692.39
496.232	15975.01
496.436	15934.05
496.639	16341.6
496.843	16548.44
497.046	16462.43
497.249	16804.44
497.453	16786.01
497.656	17115.73
497.859	16964.18
498.063	17470.03
498.266	17701.45
498.469	17410.64
498.673	17838.66
498.876	18004.55
499.079	18061.89
499.282	17996.35
499.485	18643.51
499.689	18588.22
499.892	18733.62
500.095	18870.84
500.298	19276.34
500.501	18999.86
500.705	19878.44
500.908	19817
501.111	19868.2
501.314	19997.22
501.517	20183.59
501.72	20519.45
501.923	20826.65
502.126	21109.27
502.329	21182.99
502.532	21479.95
502.735	21594.64
502.938	21854.73
503.141	22327.81
503.344	22422.02
503.547	22395.39
503.75	22886.9
503.953	22950.39
504.156	23269.87
504.359	23413.23
504.562	23613.93
504.765	24164.84
504.968	24087.01
505.17	24254.95
505.373	24740.32
505.576	24824.28
505.779	25381.33
505.982	25625.04
506.185	25641.42
506.387	25876.94
506.59	26046.92
506.793	26614.21
506.996	26548.67
507.198	27105.72
507.401	26931.64
507.604	27339.19
507.807	27746.73
508.009	27939.24
508.212	27926.96
508.415	28389.8
508.617	28621.22
508.82	28965.28
509.022	28584.35
509.225	29763.98
509.428	29778.32
509.63	30001.55
509.833	30022.03
510.035	30826.88
510.238	30730.62
510.44	31179.13
510.643	31539.57
510.845	31727.99
511.048	32067.95
511.25	32397.67
511.453	32340.33
511.655	33440.09
511.858	33364.31
512.06	33143.13
512.262	33825.11
512.465	33784.15
512.667	34453.83
512.87	34437.45
513.072	34554.18
513.274	35350.84
513.477	35219.77
513.679	35871.03
513.881	36188.46
514.084	36397.35
514.286	36202.8
514.488	36581.67
514.69	37957.91
514.893	37816.6
515.095	37474.59
515.297	37976.34
515.499	38297.87
515.701	38703.37
515.904	39287.04
516.106	39604.47
516.308	39551.23
516.51	39995.64
516.712	40005.87
516.914	40505.58
517.116	41025.76
517.318	41298.14
517.52	41584.86
517.722	41683.16
517.925	42223.83
518.127	42539.21
518.329	42535.12
518.531	42340.56
518.733	43247.81
518.935	43659.45
519.136	43759.8
519.338	44153.01
519.54	43944.12
519.742	44810.41
519.944	44636.33
520.146	45514.91
520.348	45463.71
520.55	45729.95
520.752	45815.96
520.954	46583.95
521.155	45881.5
521.357	46885
521.559	46942.35
521.761	47210.63
521.963	47450.24
522.164	47880.31
522.366	47804.54
522.568	48218.23
522.77	48359.54
522.971	48949.35
523.173	48455.79
523.375	48746.61
523.576	48853.1
523.778	49131.62
523.98	49639.52
524.181	49487.97
524.383	49854.56
524.584	49956.96
524.786	50110.55
524.988	49590.37
525.189	50729.04
525.391	50772.05
525.592	51114.06
525.794	51003.47
525.995	51011.66
526.197	50903.12
526.398	51126.35
526.6	51261.51
526.801	51384.39
527.003	51499.08
527.204	51478.6
527.406	51955.77
527.607	51636.29
527.808	52207.67
528.01	51318.85
528.211	51560.51
528.412	52674.61
528.614	51884.09
528.815	52092.99
529.016	52650.03
529.218	52211.77
529.419	52162.62
529.62	52371.51
529.822	52334.65
530.023	52080.7
530.224	52449.33
530.425	52308.02
530.626	52209.72
530.828	51759.17
531.029	53162.03
531.23	52267.06
531.431	52293.69
531.632	52842.54
531.833	52219.96
532.035	52203.58
532.236	52146.23
532.437	52920.37
532.638	52199.48
532.839	52289.59
533.04	52463.67
533.241	51519.56
533.442	52887.6
533.643	52523.06
533.844	52527.16
534.045	52318.26
534.246	51621.95
534.447	52228.15
534.648	51957.82
534.849	52158.52
535.05	51892.29
535.251	52103.23
535.451	52109.37
535.652	52328.5
535.853	51976.25
536.054	52099.13
536.255	52123.71
536.456	51664.96
536.657	52301.88
536.857	51544.13
537.058	51497.03
537.259	52127.8
537.46	51761.22
537.66	51572.8
537.861	51605.57
538.062	51486.79
538.263	51720.26
538.463	51310.66
538.664	51773.5
538.865	51660.87
539.065	52039.74
539.266	51417.16
539.466	52179
539.667	51392.58
539.868	51728.45
540.068	51320.9
540.269	51300.42
540.469	51626.05
540.67	51253.32
540.87	51464.26
541.071	51150.92
541.271	51640.39
541.472	51021.9
541.672	51273.8
541.873	51091.53
542.073	50735.18
542.274	51404.87
542.474	51249.22
542.675	50872.4
542.875	51480.64
543.075	51169.35
543.276	50671.7
543.476	51146.82
543.676	50874.45
543.877	51054.67
544.077	51191.88
544.277	50835.53
544.478	50931.79
544.678	51234.89
544.878	51099.72
545.078	50677.84
545.279	50909.26
545.479	50817.1
545.679	51298.37
545.879	51028.04
546.079	50528.34
546.28	50847.82
546.48	50468.95
546.68	51142.73
546.88	50765.9
547.08	51130.44
547.28	50638.93
547.48	50344.02
547.68	50606.16
547.88	50370.64
548.081	51296.33
548.281	50636.88
548.481	50516.05
548.681	51083.34
548.881	50737.23
549.081	50864.21
549.28	50593.87
549.48	50634.83
549.68	50466.9
549.88	51228.74
550.08	50614.35
550.28	50405.46
550.48	50649.17
550.68	51157.06
550.88	50331.73
551.08	50450.52
551.279	50753.61
551.479	50210.9
551.679	50589.78
551.879	50593.87
552.079	51007.56
552.278	50999.37
552.478	50784.33
552.678	50761.81
552.878	51136.59
553.077	50538.58
553.277	50315.35
553.477	51054.67
553.676	50860.11
553.876	51019.85
554.076	50550.87
554.275	50239.57
554.475	50337.88
554.674	50563.15
554.874	50892.88
555.074	50710.61
555.273	50974.8
555.473	50671.7
555.672	50538.58
555.872	50714.7
556.071	51069
556.271	51200.07
556.47	50827.34
556.67	50602.07
556.869	50665.55
557.068	51181.64
557.268	51271.75
557.467	50620.5
557.667	50737.23
557.866	50516.05
558.065	50624.59
558.265	50636.88
558.464	50206.81
558.663	50753.61
558.863	50114.65
559.062	50974.8
559.261	50206.81
559.461	51398.73
559.66	50014.3
559.859	50524.24
560.058	50491.47
560.258	50409.56
560.457	49784.93
560.656	50520.15
560.855	50186.33
561.054	50694.22
561.253	50268.25
561.453	50227.29
561.652	49645.66
561.851	50851.92
562.05	50442.32
562.249	49932.38
562.448	50378.84
562.647	49645.66
562.846	50204.76
563.045	50276.44
563.244	49621.09
563.443	50374.74
563.642	49535.07
563.841	50067.55
564.04	50143.32
564.239	50434.13
564.438	49930.33
564.637	49762.4
564.836	49946.72
565.035	49533.03
565.234	49729.63
565.432	49657.95
565.631	49555.55
565.83	49872.99
566.029	49600.61
566.228	49330.28
566.427	49383.52
566.625	49197.16
566.824	48824.43
567.023	49358.95
567.222	48851.05
567.42	49477.73
567.619	49252.45
567.818	49037.42
568.016	48949.35
568.215	48996.46
568.414	49139.82
568.612	49027.18
568.811	48685.17
569.01	48793.71
569.208	48369.78
569.407	48681.07
569.605	48216.18
569.804	48687.21
570.002	48046.2
570.201	48433.27
570.4	48025.72
570.598	47978.62
570.797	47794.3
570.995	48183.41
571.193	47083.65
571.392	48392.31
571.59	47599.74
571.789	47646.85
571.987	47472.77
572.186	47667.33
572.384	47181.96
572.582	47526.02
572.781	47493.25
572.979	46977.16
573.177	47141
573.376	47566.98
573.574	46723.21
573.772	46809.23
573.971	46897.29
574.169	46411.92
574.367	46069.91
574.565	46524.56
574.763	46182.55
574.962	46266.52
575.16	45783.19
575.358	45881.5
575.556	45600.93
575.754	46049.43
575.952	45269.15
576.151	46422.16
576.349	45310.11
576.547	45039.78
576.745	45375.65
576.943	45557.92
577.141	45586.59
577.339	45418.66
577.537	45103.27
577.735	44992.68
577.933	45039.78
578.131	44787.88
578.329	44572.85
578.527	44099.76
578.725	44832.94
578.923	44863.66
579.121	44761.26
579.319	44525.74
579.516	44634.28
579.714	44286.13
579.912	44279.99
580.11	43591.87
580.308	43765.95
580.506	43634.88
580.704	43268.29
580.901	43608.25
581.099	43684.03
581.297	43028.68
581.495	43452.61
581.692	43542.72
581.89	42877.13
582.088	43176.13
582.285	42662.09
582.483	42789.06
582.681	42680.52
582.878	42412.24
583.076	42182.87
583.274	42870.98
583.471	42203.35
583.669	42440.91
583.866	41867.48
584.064	42272.98
584.262	41754.84
584.459	42127.57
584.657	41789.66
584.854	42356.94
585.052	41322.72
585.249	41615.58
585.447	41627.87
585.644	41502.94
585.841	41502.94
586.039	41652.44
586.236	40900.84
586.434	41056.48
586.631	41103.59
586.828	40734.95
587.026	40700.14
587.223	40753.38
587.42	40405.23
587.618	40880.36
587.815	40112.37
588.012	40343.79
588.21	40206.58
588.407	40661.22
588.604	39874.8
588.801	39692.54
588.999	39903.48
589.196	39823.61
589.393	39964.92
589.59	39485.69
589.787	39661.82
589.984	39434.49
590.182	38955.27
590.379	39297.28
590.576	38949.12
590.773	39026.95
590.97	39092.48
591.167	39121.15
591.364	38373.64
591.561	38818.05
591.758	38584.58
591.955	38525.19
592.152	38676.74
592.349	38162.7
592.546	38365.45
592.743	38185.23
592.94	37964.05
593.137	38095.12
593.334	38375.69
593.531	37587.22
593.727	37658.9
593.924	37779.73
594.121	37628.18
594.318	37943.57
594.515	37339.42
594.712	37527.83
594.908	37234.97
595.105	37853.46
595.302	36952.35
595.499	37511.45
595.696	37480.73
595.892	36540.71
596.089	37439.77
596.286	37036.32
596.482	36985.12
596.679	37030.18
596.876	36608.29
597.072	36340.01
597.269	36833.57
597.466	36673.83
597.662	36405.55
597.859	36303.15
598.055	36823.33
598.252	36352.3
598.448	36385.07
598.645	36071.73
598.841	35803.44
599.038	36149.55
599.234	36108.59
599.431	35846.45
599.627	35567.93
599.824	36393.26
600.02	35973.42
600.217	35805.49
600.413	35811.63
600.609	35506.49
600.806	35311.93
601.002	35596.6
601.198	35789.11
601.395	35363.13
601.591	35518.78
601.787	35569.97
601.984	35742
602.18	35791.16
602.376	35277.12
602.572	35361.08
602.769	35242.3
602.965	35045.69
603.161	35264.83
603.357	35047.74
603.553	35094.85
603.75	34959.68
603.946	34881.86
604.142	34984.26
604.338	34335.05
604.534	34969.92
604.73	34435.4
604.926	34767.17
605.122	35148.09
605.318	34568.52
605.514	34603.33
605.71	34609.48
605.906	34654.53
606.102	34593.09
606.298	34660.68
606.494	34660.68
606.69	34339.15
606.886	34416.97
607.082	34130.25
607.278	34468.17
607.474	34083.15
607.67	34914.62
607.866	33997.13
608.062	34677.06
608.257	34283.85
608.453	34120.01
608.649	34310.47
608.845	34183.5
609.041	34240.84
609.236	34431.3
609.432	33999.18
609.628	34300.23
609.824	34031.95
610.019	33890.64
610.215	34287.95
610.411	34490.7
610.606	34040.14
610.802	34517.32
610.998	34386.25
611.193	34267.47
611.389	34134.35
611.584	34275.66
611.78	34175.31
611.976	34199.88
612.171	34324.81
612.367	34279.75
612.562	33853.78
612.758	33999.18
612.953	33812.82
613.149	34193.74
613.344	33624.4
613.539	34576.71
613.735	33978.7
613.93	34183.5
614.126	33859.92
614.321	34244.94
614.517	34232.65
614.712	33892.69
614.907	33896.78
615.103	34273.61
615.298	33577.3
615.493	34277.71
615.688	33579.35
615.884	34629.96
616.079	33116.51
616.274	33999.18
616.47	33347.93
616.665	33737.04
616.86	33720.66
617.055	33923.41
617.25	33655.12
617.445	33419.61
617.641	33155.42
617.836	33526.1
618.031	32887.14
618.226	33325.4
618.421	33392.98
618.616	33616.21
618.811	32993.63
619.006	33519.96
619.201	32555.36
619.396	32995.68
619.591	32524.65
619.786	33202.52
619.981	32481.64
620.176	32579.94
620.371	32229.74
620.566	32346.47
620.761	32031.08
620.956	32280.94
621.151	31697.27
621.346	32403.81
621.541	31596.92
621.735	32016.75
621.93	31406.45
622.125	31375.73
622.32	30812.54
622.515	31052.16
622.709	30916.99
622.904	30923.13
623.099	30306.69
623.294	30871.93
623.488	29925.77
623.683	30667.14
623.878	29716.88
624.072	30022.03
624.267	30157.19
624.462	29514.13
624.656	29532.56
624.851	29585.81
625.046	29247.9
625.24	29139.35
625.435	29053.34
625.629	28977.56
625.824	28473.76
626.018	28316.07
626.213	28320.17
626.407	28586.4
626.602	28031.4
626.796	28146.09
626.991	28234.15
627.185	27748.78
627.38	27769.26
627.574	27380.15
627.768	27169.21
627.963	27109.82
628.157	26964.41
628.352	27464.11
628.546	26677.69
628.74	26935.74
628.935	26532.29
629.129	26190.28
629.323	26223.05
629.517	26200.52
629.712	25670.09
629.906	25938.38
630.1	25872.84
630.294	25790.92
630.489	25483.73
630.683	25743.82
630.877	25094.61
631.071	25119.19
631.265	25256.4
631.459	24879.58
631.653	25033.18
631.848	24877.53
632.042	24334.82
632.236	24725.98
632.43	24240.61
632.624	24463.84
632.818	24119.78
633.012	23697.9
633.206	23544.3
633.4	24093.16
633.594	23556.59
633.788	23728.62
633.982	23613.93
634.176	23402.99
634.369	23241.2
634.563	23282.16
634.757	23036.41
634.951	23196.15
635.145	22571.52
635.339	22987.25
635.533	22802.94
635.726	22342.14
635.92	21944.84
636.114	22184.45
636.308	21944.84
636.501	22137.35
636.695	21668.36
636.889	21723.66
637.083	21717.51
637.276	21613.07
637.47	21281.3
637.664	21289.49
637.857	21017.11
638.051	21105.17
638.244	21201.43
638.438	20838.94
638.632	20865.56
638.825	20871.7
639.019	20425.25
639.212	20247.07
639.406	20511.26
639.599	20390.43
639.793	20247.07
639.986	19790.38
640.18	19849.77
640.373	19843.62
640.567	19712.55
640.76	19905.06
640.954	19182.13
641.147	19388.97
641.34	18872.89
641.534	19249.71
641.727	19159.6
641.92	18936.37
642.114	18711.1
642.307	18864.69
642.5	18741.82
642.694	18375.23
642.887	18422.33
643.08	18264.64
643.273	18242.11
643.467	18350.65
643.66	17924.68
643.853	17990.21
644.046	17525.32
644.239	17814.09
644.432	17480.27
644.626	17640.01
644.819	17279.57
645.012	17398.35
645.205	17093.2
645.398	17179.22
645.591	17054.29
645.784	17042
645.977	16685.65
646.17	16718.42
646.363	16718.42
646.556	16699.99
646.749	16554.58
646.942	16632.41
647.135	16304.73
647.328	16198.24
647.521	16097.89
647.714	15948.39
647.907	16231.01
648.099	15950.43
648.292	15813.22
648.485	15708.77
648.678	15551.08
648.871	15391.34
649.064	15520.36
649.256	15563.37
649.449	15305.32
649.642	15123.05
649.835	15024.75
650.027	14998.13
650.22	14973.55
650.413	14983.79
650.605	14744.18
650.798	14811.76
650.991	14572.15
651.183	14568.06
651.376	14262.91
651.568	14494.33
651.761	14258.81
651.954	14228.09
652.146	14264.96
652.339	14183.04
652.531	14148.22
652.724	13898.37
652.916	13671.04
653.109	13712
653.301	13765.25
653.494	13820.55
653.686	13456.01
653.879	13660.8
654.071	13390.47
654.263	13404.81
654.456	13267.59
654.648	13501.06
654.84	13163.15
655.033	12921.49
655.225	13013.65
655.417	13021.84
655.61	12866.19
655.802	13011.6
655.994	12739.22
656.186	13062.8
656.379	12698.26
656.571	12659.35
656.763	12651.16
656.955	12522.13
657.148	12446.36
657.34	12311.19
657.532	12024.48
657.724	12083.87
657.916	12030.62
658.108	12118.68
658.3	11850.4
658.492	12210.84
658.684	11860.64
658.876	11793.06
659.068	11602.6
659.26	11713.19
659.452	11676.32
659.644	11649.7
659.836	11389.61
660.028	11557.54
660.22	11174.57
660.412	11262.63
660.604	11014.83
660.796	11446.95
660.988	11121.32
661.18	11137.71
661.372	10812.08
661.563	11174.57
661.755	10783.41
661.947	10789.55
662.139	10793.65
662.331	10437.3
662.522	10730.16
662.714	10701.49
662.906	10408.63
663.097	10564.28
663.289	10320.57
663.481	10291.9
663.673	10418.87
663.864	10140.35
664.056	9990.84
664.247	10232.51
664.439	9890.49
664.631	9925.31
664.822	9824.96
665.014	9894.59
665.205	9904.83
665.397	9870.01
665.588	9534.15
665.78	9759.42
665.971	9616.07
666.163	9677.51
666.354	9714.37
666.546	9558.72
666.737	9388.74
666.929	9444.04
667.12	9267.91
667.311	9202.38
667.503	9296.58
667.694	9085.64
667.885	9171.66
668.077	9099.98
668.268	9028.3
668.459	9050.83
668.651	8899.28
668.842	8973
669.033	8823.5
669.224	8862.41
669.416	8878.8
669.607	8630.99
669.798	8751.82
669.989	8788.69
670.18	8622.8
670.371	8493.78
670.563	8485.59
670.754	8690.38
670.945	8342.23
671.136	8544.98
671.327	8358.61
671.518	8446.68
671.709	8239.83
671.9	8512.21
672.091	8336.09
672.282	8372.95
672.473	7981.79
672.664	8035.03
672.855	8049.37
673.046	8110.81
673.237	8069.85
673.428	7914.2
673.619	7994.08
673.809	8067.8
674	7903.96
674.191	7869.15
674.382	7858.91
674.573	7852.77
674.764	7701.22
674.954	7676.64
675.145	7701.22
675.336	7604.96
675.527	7613.15
675.717	7537.38
675.908	7523.04
676.099	7627.49
676.289	7699.17
676.48	7574.24
676.671	7322.34
676.861	7508.71
677.052	7285.48
677.243	7236.33
677.433	7412.45
677.624	7281.38
677.814	7158.5
678.005	7195.37
678.195	7215.85
678.386	7000.81
678.576	7183.08
678.767	7066.35
678.957	7133.93
679.148	7121.64
679.338	7035.63
679.529	7111.4
679.719	6994.67
679.909	6804.21
680.1	6988.52
680.29	6968.04
680.481	6927.08
680.671	6865.64
680.861	6849.26
681.052	7035.63
681.242	6851.31
681.432	7035.63
681.622	6765.29
681.813	6642.42
682.003	6701.81
682.193	6847.21
682.383	6798.06
682.573	6628.08
682.764	6701.81
682.954	6660.85
683.144	6564.59
683.334	6554.35
683.524	6609.65
683.714	6535.92
683.904	6511.35
684.094	6445.81
684.284	6462.19
684.474	6460.15
684.664	6480.63
684.854	6466.29
685.044	6355.7
685.234	6216.44
685.424	6277.88
685.614	6320.88
685.804	6331.12
685.994	6167.29
686.184	6355.7
686.374	6148.86
686.564	6101.75
686.753	6251.25
686.943	6038.27
687.133	6202.1
687.323	6066.94
687.513	6148.86
687.702	5985.02
687.892	5939.96
688.082	5974.78
688.272	6142.71
688.461	5946.11
688.651	5856
688.841	5958.39
689.03	6003.45
689.22	5819.13
689.41	5956.35
689.599	5843.71
689.789	5749.5
689.979	5749.5
690.168	5778.17
690.358	5909.24
690.547	5643.01
690.737	5741.31
690.926	5757.69
691.116	5544.7
691.305	5526.27
691.495	5618.43
691.684	5640.96
691.874	5473.03
692.063	5538.56
692.252	5638.91
692.442	5446.4
692.631	5606.14
692.82	5616.38
693.01	5397.25
693.199	5440.26
693.388	5339.91
693.578	5456.64
693.767	5356.29
693.956	5358.34
694.146	5276.42
694.335	5266.18
694.524	5333.76
694.713	5333.76
694.902	5221.13
695.092	5186.31
695.281	5128.97
695.47	5323.52
695.659	5290.76
695.848	5151.49
696.037	5108.49
696.226	5182.21
696.415	5006.09
696.604	5085.96
696.793	5063.43
696.982	5163.78
697.171	5090.06
697.36	5196.55
697.549	5012.23
697.738	4872.97
697.927	4946.7
698.116	4995.85
698.305	4905.74
698.494	4965.13
698.683	4899.59
698.872	5026.57
699.061	4842.25
699.25	4838.16
699.438	4760.33
699.627	4997.9
699.816	4770.57
700.005	4709.13
700.193	4823.82
700.382	4741.9
700.571	4786.96
700.76	4762.38
700.948	4700.94
701.137	4692.75
701.326	4637.45
701.514	4627.21
701.703	4604.69
701.892	4621.07
702.08	4553.49
702.269	4434.71
702.457	4565.78
702.646	4567.82
702.834	4410.13
703.023	4616.97
703.212	4430.61
703.4	4463.38
703.589	4510.48
703.777	4504.34
703.965	4236.05
704.154	4340.5
704.342	4383.51
704.531	4479.76
704.719	4205.33
704.907	4414.23
705.096	4299.54
705.284	4277.01
705.472	4283.16
705.661	4360.98
705.849	4389.65
706.037	4266.77
706.226	4139.8
706.414	4326.16
706.602	4006.68
706.79	4211.48
706.979	4094.74
707.167	4154.13
707.355	4043.54
707.543	4188.95
707.731	4143.89
707.919	4320.02
708.107	4119.32
708.296	4021.02
708.484	3965.72
708.672	4012.82
708.86	4064.02
709.048	3955.48
709.236	3928.86
709.424	4094.74
709.612	3955.48
709.8	3978.01
709.988	3894.04
710.176	3965.72
710.364	3918.62
710.551	3777.31
710.739	3812.12
710.927	3728.16
711.115	3783.45
711.303	3924.76
711.491	3693.34
711.679	3738.4
711.866	3713.82
712.054	3715.87
712.242	3750.68
712.43	3672.86
712.617	3722.01
712.805	3674.91
712.993	3461.92
713.181	3771.16
713.368	3621.66
713.556	3633.95
713.744	3578.65
713.931	3611.42
714.119	3439.39
714.306	3453.73
714.494	3549.98
714.682	3549.98
714.869	3482.4
715.057	3369.76
715.244	3451.68
715.432	3531.55
715.619	3341.09
715.807	3513.12
715.994	3343.14
716.182	3394.34
716.369	3398.43
716.556	3345.19
716.744	3382.05
716.931	3435.3
717.119	3322.66
717.306	3226.4
717.493	3324.71
717.681	3164.97
717.868	3263.27
718.055	3347.23
718.242	3218.21
718.43	3316.51
718.617	3308.32
718.804	3111.72
718.991	3187.49
719.179	3185.44
719.366	3078.95
719.553	3113.77
719.74	3230.5
719.927	3130.15
720.114	3185.44
720.301	3087.14
720.488	3121.96
720.676	3111.72
720.863	3142.44
721.05	3126.05
721.237	3146.53
721.424	3078.95
721.611	2956.07
721.798	2943.78
721.985	2997.03
722.172	2964.26
722.358	2898.73
722.545	3001.13
722.732	2964.26
722.919	2999.08
723.106	3001.13
723.293	2931.5
723.48	2808.62
723.667	2876.2
723.853	2835.24
724.04	2808.62
724.227	2843.43
724.414	2833.19
724.6	2728.75
724.787	2851.63
724.974	2835.24
725.161	2755.37
725.347	2718.51
725.534	2833.19
725.72	2800.43
725.907	2779.95
726.094	2880.3
726.28	2671.4
726.467	2644.78
726.653	2685.74
726.84	2728.75
727.027	2833.19
727.213	2581.29
727.4	2681.64
727.586	2712.36
727.773	2511.66
727.959	2620.21
728.145	2599.73
728.332	2519.85
728.518	2683.69
728.705	2620.21
728.891	2669.36
729.077	2558.77
729.264	2597.68
729.45	2669.36
729.636	2507.57
729.823	2560.81
730.009	2626.35
730.195	2530.09
730.382	2630.45
730.568	2603.82
730.754	2409.26
730.94	2513.71
731.126	2407.22
731.313	2546.48
731.499	2399.02
731.685	2573.1
731.871	2444.08
732.057	2358.07
732.243	2493.23
732.429	2425.65
732.615	2462.51
732.801	2581.29
732.987	2431.79
733.173	2380.59
733.359	2323.25
733.545	2427.7
733.731	2335.54
733.917	2382.64
734.103	2401.07
734.289	2423.6
734.475	2229.04
734.661	2480.94
734.847	2261.81
735.033	2347.83
735.219	2257.71
735.404	2323.25
735.59	2302.77
735.776	2313.01
735.962	2222.9
736.148	2333.49
736.333	2188.08
736.519	2145.08
736.705	2270
736.89	2218.8
737.076	2237.24
737.262	2163.51
737.447	2124.6
737.633	2114.36
737.819	2251.57
738.004	2196.28
738.19	2108.21
738.375	2079.54
738.561	2167.6
738.747	2263.86
738.932	2173.75
739.118	2165.56
739.303	2079.54
739.489	2140.98
739.674	2048.82
739.859	2059.06
740.045	2159.41
740.23	2097.97
740.416	2083.64
740.601	2087.73
740.786	1944.38
740.972	2095.93
741.157	2046.77
741.342	2046.77
741.528	2014.01
741.713	2026.29
741.898	1932.09
742.084	1958.71
742.269	2007.86
742.454	1907.51
742.639	1903.42
742.824	2018.1
743.01	1915.7
743.195	1907.51
743.38	1878.84
743.565	1911.61
743.75	1927.99
743.935	1817.4
744.12	2005.81
744.305	1884.98
744.49	1825.59
744.675	1837.88
744.86	1788.73
745.045	1796.92
745.23	1866.55
745.415	1850.17
745.6	1798.97
745.785	1751.87
745.97	1729.34
746.155	1745.72
746.34	1729.34
746.525	1719.1
746.71	1858.36
746.895	1647.42
747.079	1702.72
747.264	1733.43
747.449	1768.25
747.634	1723.2
747.819	1626.94
748.003	1624.89
748.188	1694.52
748.373	1672
748.557	1674.04
748.742	1588.03
748.927	1555.26
749.111	1532.73
749.296	1555.26
749.481	1542.97
749.665	1579.84
749.85	1592.13
750.034	1579.84
750.219	1450.82
750.404	1590.08
750.588	1483.58
750.773	1481.53
750.957	1456.96
751.141	1420.1
751.326	1600.32
751.51	1440.58
751.695	1444.67
751.879	1381.18
752.064	1424.19
752.248	1391.42
752.432	1477.44
752.617	1342.27
752.801	1317.7
752.985	1430.34
753.17	1282.88
753.354	1354.56
753.538	1309.51
753.722	1352.51
753.907	1432.38
754.091	1241.92
754.275	1354.56
754.459	1260.35
754.643	1303.36
754.828	1317.7
755.012	1309.51
755.196	1336.13
755.38	1262.4
755.564	1223.49
755.748	1327.94
755.932	1276.74
756.116	1215.3
756.3	1237.83
756.484	1225.54
756.668	1112.9
756.852	1104.71
757.036	1205.06
757.22	1180.48
757.404	1170.24
757.588	1217.35
757.772	1243.97
757.956	1284.93
758.14	1127.24
758.323	1104.71
758.507	1086.28
758.691	1221.44
758.875	1088.32
759.059	1133.38
759.242	1012.55
759.426	1090.37
759.61	1047.37
759.794	1112.9
759.977	1137.48
760.161	1170.24
760.345	1106.76
760.528	1180.48
760.712	1094.47
760.895	1028.93
761.079	1096.52
761.263	1043.27
761.446	981.83
761.63	1035.08
761.813	1131.33
761.997	1006.41
762.18	926.54
762.364	916.3
762.547	910.15
762.731	994.12
762.914	1047.37
763.098	955.21
763.281	1000.26
763.464	942.92
763.648	957.25
763.831	985.93
764.015	850.76
764.198	916.3
764.381	834.38
764.564	1059.65
764.748	910.15
764.931	953.16
765.114	912.2
765.297	1022.79
765.481	848.71
765.664	949.06
765.847	916.3
766.03	973.64
766.213	836.42
766.397	885.58
766.58	891.72
766.763	983.88
766.946	809.8
767.129	861
767.312	916.3
767.495	846.66
767.678	895.82
767.861	889.67
768.044	832.33
768.227	934.73
768.41	844.62
768.593	836.42
768.776	899.91
768.959	850.76
769.142	856.9
769.324	834.38
769.507	826.18
769.69	801.61
769.873	795.47
770.056	949.06
770.239	850.76
770.421	811.85
770.604	770.89
770.787	932.68
770.97	875.34
771.152	789.32
771.335	852.81
771.518	748.36
771.7	893.77
771.883	832.33
772.066	797.51
772.248	729.93
772.431	809.8
772.613	893.77
772.796	678.73
772.978	797.51
773.161	762.7
773.343	826.18
773.526	766.79
773.708	719.69
773.891	760.65
774.073	670.54
774.256	750.41
774.438	856.9
774.621	783.18
774.803	801.61
774.985	752.46
775.168	707.4
775.35	736.07
775.532	777.03
775.715	654.16
775.897	711.5
776.079	672.59
776.261	731.98
776.444	605
776.626	688.97
776.808	729.93
776.99	662.35
777.173	727.88
777.355	678.73
777.537	686.92
777.719	707.4
777.901	580.43
778.083	719.69
778.265	625.48
778.447	711.5
778.629	645.96
778.811	580.43
778.993	621.39
779.175	654.16
779.357	631.63
779.539	625.48
779.721	592.72
779.903	621.39
780.085	617.29
780.267	625.48
780.449	613.2
780.631	662.35
780.812	588.62
780.994	594.76
781.176	594.76
781.358	609.1
781.54	574.28
781.721	553.8
781.903	525.13
782.085	539.47
782.267	518.99
782.448	566.09
782.63	557.9
782.812	574.28
782.993	510.8
783.175	600.91
783.357	482.13
783.538	525.13
783.72	478.03
783.901	590.67
784.083	469.84
784.264	478.03
784.446	473.93
784.627	459.6
784.809	539.47
784.99	441.17
785.172	443.21
785.353	475.98
785.535	490.32
785.716	365.39
785.897	414.54
786.079	490.32
786.26	449.36
786.441	432.97
786.623	394.06
786.804	404.3
786.985	432.97
787.167	412.5
787.348	455.5
787.529	475.98
787.71	506.7
787.891	441.17
788.073	471.89
788.254	424.78
788.435	490.32
788.616	430.93
788.797	396.11
788.978	371.54
789.159	342.86
789.34	424.78
789.522	457.55
789.703	400.21
789.884	416.59
790.065	359.25
790.246	437.07
790.427	381.78
790.607	465.74
790.788	418.64
790.969	375.63
791.15	322.38
791.331	422.73
791.512	340.82
791.693	377.68
791.874	361.3
792.054	461.65
792.235	367.44
792.416	336.72
792.597	310.1
792.778	367.44
792.958	359.25
793.139	383.82
793.32	361.3
793.5	314.19
793.681	349.01
793.862	392.02
794.042	367.44
794.223	303.95
794.404	254.8
794.584	351.06
794.765	287.57
794.945	357.2
795.126	344.91
795.306	318.29
795.487	265.04
795.667	287.57
795.848	320.34
796.028	314.19
796.209	344.91
796.389	328.53
796.57	271.19
796.75	330.58
796.93	373.58
797.111	281.43
797.291	285.52
797.471	346.96
797.652	303.95
797.832	252.75
798.012	334.67
798.192	301.9
798.373	244.56
798.553	375.63
798.733	301.9
798.913	219.99
799.093	262.99
799.274	306
799.454	297.81
799.634	258.9
799.814	262.99
799.994	279.38
800.174	297.81
800.354	224.08
800.534	281.43
800.714	183.12
800.894	279.38
801.074	244.56
801.254	291.66
801.434	244.56
801.614	260.95
801.794	203.6
801.974	990.02
802.154	215.89
802.334	279.38
802.514	224.08
802.693	195.41
802.873	154.45
803.053	262.99
803.233	269.14
803.413	211.79
803.592	236.37
803.772	138.07
803.952	224.08
804.131	258.9
804.311	281.43
804.491	306
804.67	250.71
804.85	181.07
805.03	256.85
805.209	295.76
805.389	248.66
805.568	187.22
805.748	193.36
805.928	179.03
806.107	260.95
806.287	199.51
806.466	246.61
806.646	269.14
806.825	146.26
807.004	232.27
807.184	238.42
807.363	240.47
807.543	195.41
807.722	250.71
807.901	285.52
808.081	232.27
808.26	74.58
808.439	203.6
808.619	277.33
808.798	158.55
808.977	189.27
809.156	256.85
809.336	260.95
809.515	187.22
809.694	146.26
809.873	228.18
810.052	154.45
810.231	154.45
810.411	146.26
810.59	205.65
810.769	174.93
810.948	217.94
811.127	76.63
811.306	222.03
811.485	150.36
811.664	138.07
811.843	146.26
812.022	187.22
812.201	179.03
812.38	181.07
812.559	105.3
812.737	162.64
812.916	72.53
813.095	148.31
813.274	129.88
813.453	121.68
813.632	172.88
813.811	201.55
813.989	123.73
814.168	150.36
814.347	189.27
814.526	189.27
814.704	162.64
814.883	209.75
815.062	123.73
815.24	160.59
815.419	84.82
815.598	195.41
815.776	150.36
815.955	199.51
816.133	121.68
816.312	189.27
816.49	60.24
816.669	195.41
816.847	146.26
817.026	154.45
817.204	211.79
817.383	187.22
817.561	88.92
817.74	189.27
817.918	146.26
818.097	50
818.275	105.3
818.453	129.88
818.632	144.21
818.81	172.88
818.988	172.88
819.167	99.16
819.345	144.21
819.523	82.77
819.701	156.5
819.879	164.69
820.058	121.68
820.236	170.83
820.414	82.77
820.592	121.68
820.77	115.54
820.948	119.64
821.127	152.4
821.305	117.59
821.483	76.63
821.661	164.69
821.839	205.65
822.017	123.73
822.195	129.88
822.373	93.01
822.551	74.58
822.729	88.92
822.907	131.92
823.085	146.26
823.262	84.82
823.44	88.92
823.618	72.53
823.796	133.97
823.974	97.11
824.152	93.01
824.329	129.88
824.507	105.3
824.685	125.78
824.863	154.45
825.04	93.01
825.218	66.39
825.396	162.64
825.574	82.77
825.751	121.68
825.929	166.74
826.107	101.2
826.284	133.97
826.462	187.22
826.639	150.36
826.817	47.96
826.994	88.92
827.172	39.76
827.349	154.45
827.527	123.73
827.704	74.58
827.882	117.59
828.059	52.05
828.237	97.11
828.414	115.54
828.591	27.48
828.769	78.68
828.946	78.68
829.124	121.68
829.301	146.26
829.478	64.34
829.655	72.53
829.833	103.25
830.01	84.82
830.187	107.35
830.364	50
830.542	80.72
830.719	146.26
830.896	164.69
831.073	97.11
831.25	115.54
831.427	146.26
831.604	113.49
831.782	88.92
831.959	133.97
832.136	129.88
832.313	123.73
832.49	95.06
832.667	74.58
832.844	43.86
833.021	90.96
833.198	154.45
833.374	144.21
833.551	86.87
833.728	119.64
833.905	117.59
834.082	52.05
834.259	162.64
834.436	183.12
834.612	99.16
834.789	90.96
834.966	64.34
835.143	164.69
835.319	68.44
835.496	64.34
835.673	25.43
835.85	207.7
836.026	97.11
836.203	76.63
836.38	74.58
836.556	76.63
836.733	121.68
836.909	86.87
837.086	97.11
837.262	-42.15
837.439	41.81
837.616	88.92
837.792	58.2
837.968	166.74
838.145	-7.34
838.321	115.54
838.498	80.72
838.674	131.92
838.851	33.62
839.027	74.58
839.203	52.05
839.38	99.16
839.556	41.81
839.732	50
839.909	64.34
840.085	133.97
840.261	82.77
840.437	62.29
840.614	107.35
840.79	150.36
840.966	58.2
841.142	76.63
841.318	121.68
841.494	93.01
841.671	99.16
841.847	39.76
842.023	17.24
842.199	74.58
842.375	88.92
842.551	-31.91
842.727	23.38
842.903	166.74
843.079	88.92
843.255	82.77
843.431	23.38
843.607	72.53
843.783	45.91
843.959	56.15
844.134	41.81
844.31	88.92
844.486	66.39
844.662	121.68
844.838	131.92
845.013	105.3
845.189	66.39
845.365	19.29
845.541	45.91
845.716	72.53
845.892	170.83
846.068	15.19
846.244	-9.39
846.419	113.49
846.595	47.96
846.77	39.76
846.946	50
847.122	54.1
847.297	80.72
847.473	113.49
847.648	35.67
847.824	25.43
847.999	-44.2
848.175	4.95
848.35	19.29
848.526	17.24
848.701	95.06
848.876	101.2
849.052	84.82
849.227	23.38
849.403	25.43
849.578	62.29
849.753	27.48
849.929	15.19
850.104	2.9
850.279	47.96
850.454	72.53
850.63	50
850.805	54.1
850.98	76.63
851.155	4.95
851.33	111.44
851.505	-19.63
851.681	113.49
851.856	15.19
852.031	47.96
852.206	88.92
852.381	80.72
852.556	109.4
852.731	54.1
852.906	2.9
853.081	50
853.256	115.54
853.431	105.3
853.606	76.63
853.781	35.67
853.956	23.38
854.131	33.62
854.305	68.44
854.48	64.34
854.655	-27.82
854.83	66.39
855.005	15.19
855.18	90.96
855.354	56.15
855.529	74.58
855.704	-17.58
855.879	17.24
856.053	43.86
856.228	64.34
856.403	-50.35
856.577	62.29
856.752	-3.24
856.926	72.53
857.101	17.24
857.276	17.24
857.45	88.92
857.625	19.29
857.799	58.2
857.974	60.24
858.148	15.19
858.323	80.72
858.497	19.29
858.672	15.19
858.846	-1.19
859.02	140.12
859.195	23.38
859.369	41.81
859.543	-46.25
859.718	47.96
859.892	-5.29
860.066	123.73
860.241	23.38
860.415	68.44
860.589	25.43
860.763	35.67
860.938	0.85
861.112	35.67
861.286	33.62
861.46	58.2
861.634	19.29
861.808	84.82
861.982	0.85
862.157	-13.48
862.331	-50.35
862.505	9.05
862.679	19.29
862.853	27.48
863.027	7
863.201	80.72
863.375	9.05
863.549	-7.34
863.722	29.52
863.896	-23.72
864.07	-50.35
864.244	31.57
864.418	50
864.592	23.38
864.766	-29.87
864.939	31.57
865.113	-15.53
865.287	9.05
865.461	23.38
865.634	47.96
865.808	4.95
865.982	23.38
866.156	45.91
866.329	47.96
866.503	66.39
866.676	187.22
866.85	-3.24
867.024	-44.2
867.197	117.59
867.371	62.29
867.544	56.15
867.718	15.19
867.891	74.58
868.065	7
868.238	39.76
868.412	33.62
868.585	86.87
868.759	35.67
868.932	31.57
869.105	-19.63
869.279	138.07
869.452	13.14
869.625	31.57
869.799	45.91
869.972	-29.87
870.145	82.77
870.319	19.29
870.492	7
870.665	72.53
870.838	15.19
871.011	-9.39
871.185	66.39
871.358	-56.49
871.531	23.38
871.704	23.38
871.877	-17.58
872.05	19.29
872.223	-21.67
872.396	66.39
872.569	66.39
872.742	-17.58
872.915	64.34
873.088	2.9
873.261	15.19
873.434	-23.72
873.607	90.96
873.78	58.2
873.953	19.29
874.126	56.15
874.299	33.62
874.471	19.29
874.644	-17.58
874.817	39.76
874.99	47.96
875.163	13.14
875.335	35.67
875.508	-19.63
875.681	62.29
875.853	2.9
876.026	41.81
876.199	74.58
876.371	0.85
876.544	76.63
876.717	47.96
876.889	50
877.062	74.58
877.234	-1.19
877.407	-50.35
877.579	47.96
877.752	93.01
877.924	105.3
878.097	41.81
878.269	7
878.442	13.14
878.614	29.52
878.786	-19.63
878.959	58.2
879.131	-1.19
879.303	-56.49
879.476	7
879.648	50
879.82	45.91
879.993	-27.82
880.165	39.76
880.337	68.44
880.509	27.48
880.681	4.95
880.854	58.2
881.026	-25.77
881.198	156.5
881.37	56.15
881.542	15.19
881.714	-1.19
881.886	29.52
882.058	74.58
882.23	72.53
882.402	7
882.574	82.77
882.746	33.62
882.918	31.57
883.09	80.72
883.262	33.62
883.434	66.39
883.606	31.57
883.778	4.95
883.95	90.96
884.122	19.29
884.293	82.77
884.465	43.86
884.637	29.52
884.809	-11.43
884.98	17.24
885.152	2.9
885.324	47.96
885.496	2.9
885.667	52.05
885.839	-33.96
886.011	19.29
886.182	52.05
886.354	23.38
886.525	-25.77
886.697	9.05
886.869	31.57
887.04	2.9
887.212	99.16
887.383	90.96
887.555	-83.11
887.726	-7.34
887.897	11.09
888.069	-15.53
888.24	74.58
888.412	15.19
888.583	-7.34
888.754	64.34
888.926	-5.29
889.097	-1.19
889.268	-15.53
889.44	-1.19
889.611	-66.73
889.782	50
889.953	9.05
890.125	39.76
890.296	-64.68
890.467	29.52
890.638	-23.72
890.809	64.34
890.98	-15.53
891.151	-1.19
891.323	125.78
891.494	35.67
891.665	-13.48
891.836	29.52
892.007	-23.72
892.178	23.38
892.349	-36.01
892.52	-17.58
892.691	64.34
892.862	-1.19
893.032	-48.3
893.203	-48.3
893.374	35.67
893.545	39.76
893.716	-11.43
893.887	52.05
894.057	-1.19
894.228	82.77
894.399	-1.19
894.57	64.34
894.74	56.15
894.911	68.44
895.082	17.24
895.253	-23.72
895.423	4.95
895.594	-1.19
895.764	45.91
895.935	-25.77
896.106	35.67
896.276	56.15
896.447	23.38
896.617	-74.92
896.788	-48.3
896.958	23.38
897.129	7
897.299	15.19
897.47	56.15
897.64	35.67
897.81	-27.82
897.981	52.05
898.151	-5.29
898.322	-17.58
898.492	93.01
898.662	-23.72
898.832	17.24
899.003	-15.53
899.173	2.9
899.343	-5.29
899.513	-46.25
