Data from USB4F104151__288__14-34-50-100.txt Node

Date: Thu Mar 13 14:34:50 EDT 2025
User: louis
Spectrometer: USB4F10415
Trigger mode: 4
Integration Time (sec): 2.500000E-2
Scans to average: 1
Electric dark correction enabled: true
Nonlinearity correction enabled: false
Boxcar width: 0
XAxis mode: Wavelengths
Number of Pixels in Spectrum: 3648
>>>>>Begin Spectral Data<<<<<
178.204	-189.95
178.424	-189.95
178.644	-189.95
178.864	-212.48
179.084	-120.32
179.304	6.66
179.524	18.94
179.744	18.94
179.964	37.38
180.184	-56.83
180.404	27.14
180.624	25.09
180.844	-58.88
181.064	-77.31
181.283	35.33
181.503	10.75
181.723	12.8
181.943	-87.55
182.163	18.94
182.383	35.33
182.602	20.99
182.822	10.75
183.042	6.66
183.262	4.61
183.482	6.66
183.701	-22.02
183.921	2.56
184.141	6.66
184.361	25.09
184.58	84.48
184.8	39.42
185.02	10.75
185.239	61.95
185.459	-26.11
185.679	72.19
185.898	25.09
186.118	47.62
186.338	6.66
186.557	35.33
186.777	20.99
186.997	25.09
187.216	47.62
187.436	39.42
187.655	72.19
187.875	35.33
188.095	-28.16
188.314	35.33
188.534	119.29
188.753	-19.97
188.973	35.33
189.192	29.18
189.412	16.9
189.631	59.9
189.851	27.14
190.07	45.57
190.29	-34.3
190.509	37.38
190.729	-3.58
190.948	35.33
191.168	111.1
191.387	78.33
191.607	-9.73
191.826	47.62
192.045	12.8
192.265	57.86
192.484	39.42
192.704	-58.88
192.923	-50.69
193.142	70.14
193.362	55.81
193.581	137.73
193.8	107.01
194.02	72.19
194.239	10.75
194.458	23.04
194.678	-11.78
194.897	31.23
195.116	-26.11
195.335	92.67
195.555	109.05
195.774	-3.58
195.993	20.99
196.212	68.09
196.432	35.33
196.651	2.56
196.87	-28.16
197.089	107.01
197.308	27.14
197.528	-22.02
197.747	-87.55
197.966	64
198.185	45.57
198.404	-54.78
198.623	53.76
198.842	-15.87
199.062	72.19
199.281	10.75
199.5	31.23
199.719	20.99
199.938	100.86
200.157	76.29
200.376	57.86
200.595	6.66
200.814	27.14
201.033	35.33
201.252	6.66
201.471	45.57
201.69	170.49
201.909	27.14
202.128	-44.54
202.347	68.09
202.566	43.52
202.785	-30.21
203.004	25.09
203.223	104.96
203.442	45.57
203.661	10.75
203.879	-32.26
204.098	18.94
204.317	-28.16
204.536	0.51
204.755	4.61
204.974	53.76
205.193	145.92
205.411	117.25
205.63	64
205.849	49.66
206.068	-60.93
206.287	55.81
206.505	92.67
206.724	2.56
206.943	35.33
207.162	-32.26
207.381	51.71
207.599	-5.63
207.818	-9.73
208.037	-65.02
208.255	35.33
208.474	-30.21
208.693	18.94
208.911	53.76
209.13	43.52
209.349	-52.74
209.567	27.14
209.786	10.75
210.005	4.61
210.223	18.94
210.442	-71.17
210.661	-5.63
210.879	49.66
211.098	53.76
211.316	27.14
211.535	12.8
211.753	-9.73
211.972	57.86
212.191	-5.63
212.409	70.14
212.628	27.14
212.846	-13.82
213.065	14.85
213.283	102.91
213.502	-5.63
213.72	57.86
213.938	47.62
214.157	20.99
214.375	4.61
214.594	10.75
214.812	64
215.031	25.09
215.249	-22.02
215.467	92.67
215.686	35.33
215.904	35.33
216.122	31.23
216.341	68.09
216.559	-17.92
216.778	96.77
216.996	47.62
217.214	18.94
217.432	25.09
217.651	-28.16
217.869	-19.97
218.087	18.94
218.306	-56.83
218.524	47.62
218.742	-67.07
218.96	64
219.179	43.52
219.397	-5.63
219.615	18.94
219.833	-22.02
220.051	12.8
220.27	96.77
220.488	27.14
220.706	18.94
220.924	23.04
221.142	20.99
221.36	78.33
221.578	-50.69
221.796	18.94
222.015	41.47
222.233	86.53
222.451	39.42
222.669	2.56
222.887	39.42
223.105	53.76
223.323	27.14
223.541	43.52
223.759	-9.73
223.977	-13.82
224.195	68.09
224.413	61.95
224.631	82.43
224.849	43.52
225.067	68.09
225.285	27.14
225.503	-65.02
225.721	-67.07
225.939	59.9
226.157	76.29
226.375	53.76
226.592	-17.92
226.81	53.76
227.028	76.29
227.246	29.18
227.464	18.94
227.682	43.52
227.9	-62.98
228.117	4.61
228.335	10.75
228.553	-44.54
228.771	59.9
228.989	94.72
229.206	109.05
229.424	-46.59
229.642	-3.58
229.86	-40.45
230.077	37.38
230.295	35.33
230.513	137.73
230.731	33.28
230.948	39.42
231.166	74.24
231.384	-30.21
231.601	27.14
231.819	127.49
232.037	-13.82
232.254	61.95
232.472	10.75
232.689	-13.82
232.907	96.77
233.125	-44.54
233.342	31.23
233.56	59.9
233.777	-5.63
233.995	-34.3
234.213	86.53
234.43	84.48
234.648	-5.63
234.865	59.9
235.083	29.18
235.3	51.71
235.518	109.05
235.735	121.34
235.953	27.14
236.17	-5.63
236.388	53.76
236.605	25.09
236.822	31.23
237.04	10.75
237.257	29.18
237.475	-101.89
237.692	-38.4
237.909	-85.5
238.127	35.33
238.344	-36.35
238.562	-28.16
238.779	18.94
238.996	10.75
239.214	39.42
239.431	70.14
239.648	10.75
239.865	18.94
240.083	68.09
240.3	43.52
240.517	6.66
240.735	-11.78
240.952	45.57
241.169	61.95
241.386	29.18
241.603	20.99
241.821	20.99
242.038	84.48
242.255	35.33
242.472	-19.97
242.689	43.52
242.907	12.8
243.124	-5.63
243.341	-54.78
243.558	2.56
243.775	2.56
243.992	-13.82
244.209	68.09
244.426	104.96
244.643	12.8
244.86	27.14
245.078	10.75
245.295	14.85
245.512	80.38
245.729	-32.26
245.946	45.57
246.163	27.14
246.38	-36.35
246.597	0.51
246.814	-15.87
247.031	51.71
247.248	20.99
247.464	35.33
247.681	80.38
247.898	64
248.115	29.18
248.332	51.71
248.549	104.96
248.766	111.1
248.983	35.33
249.2	74.24
249.417	45.57
249.633	23.04
249.85	8.7
250.067	10.75
250.284	27.14
250.501	86.53
250.717	61.95
250.934	37.38
251.151	-28.16
251.368	23.04
251.585	55.81
251.801	35.33
252.018	27.14
252.235	59.9
252.451	20.99
252.668	-30.21
252.885	18.94
253.102	37.38
253.318	27.14
253.535	-5.63
253.752	-19.97
253.968	-30.21
254.185	14.85
254.401	2.56
254.618	53.76
254.835	-69.12
255.051	27.14
255.268	14.85
255.484	4.61
255.701	-13.82
255.917	18.94
256.134	-71.17
256.351	-52.74
256.567	-3.58
256.784	14.85
257	-42.5
257.217	23.04
257.433	18.94
257.65	-26.11
257.866	68.09
258.082	4.61
258.299	55.81
258.515	37.38
258.732	-26.11
258.948	-44.54
259.165	29.18
259.381	-28.16
259.597	-28.16
259.814	39.42
260.03	10.75
260.246	8.7
260.463	37.38
260.679	100.86
260.895	92.67
261.112	61.95
261.328	45.57
261.544	27.14
261.761	68.09
261.977	68.09
262.193	80.38
262.409	-5.63
262.626	25.09
262.842	90.62
263.058	43.52
263.274	68.09
263.49	20.99
263.707	68.09
263.923	61.95
264.139	-22.02
264.355	43.52
264.571	51.71
264.787	10.75
265.004	-5.63
265.22	-15.87
265.436	4.61
265.652	27.14
265.868	39.42
266.084	14.85
266.3	12.8
266.516	41.47
266.732	14.85
266.948	12.8
267.164	18.94
267.38	49.66
267.596	84.48
267.812	92.67
268.028	55.81
268.244	29.18
268.46	72.19
268.676	2.56
268.892	94.72
269.108	27.14
269.324	23.04
269.54	-9.73
269.756	31.23
269.972	49.66
270.188	23.04
270.403	18.94
270.619	43.52
270.835	66.05
271.051	-11.78
271.267	47.62
271.483	2.56
271.698	31.23
271.914	51.71
272.13	-1.54
272.346	68.09
272.562	37.38
272.777	66.05
272.993	47.62
273.209	-1.54
273.425	-19.97
273.64	45.57
273.856	53.76
274.072	68.09
274.287	-3.58
274.503	72.19
274.719	76.29
274.934	-32.26
275.15	4.61
275.366	-19.97
275.581	-62.98
275.797	35.33
276.012	-1.54
276.228	-17.92
276.444	29.18
276.659	76.29
276.875	-46.59
277.09	18.94
277.306	70.14
277.521	49.66
277.737	55.81
277.952	27.14
278.168	-15.87
278.383	43.52
278.599	16.9
278.814	-15.87
279.03	76.29
279.245	76.29
279.461	-9.73
279.676	76.29
279.892	2.56
280.107	12.8
280.322	-5.63
280.538	18.94
280.753	80.38
280.969	82.43
281.184	-17.92
281.399	20.99
281.615	-48.64
281.83	-22.02
282.045	-62.98
282.26	18.94
282.476	-81.41
282.691	27.14
282.906	-34.3
283.122	2.56
283.337	-7.68
283.552	78.33
283.767	2.56
283.983	45.57
284.198	29.18
284.413	37.38
284.628	-54.78
284.843	51.71
285.058	10.75
285.274	27.14
285.489	-19.97
285.704	25.09
285.919	18.94
286.134	-22.02
286.349	-71.17
286.564	-22.02
286.779	64
286.995	47.62
287.21	-5.63
287.425	10.75
287.64	35.33
287.855	-36.35
288.07	37.38
288.285	92.67
288.5	31.23
288.715	27.14
288.93	72.19
289.145	-5.63
289.36	4.61
289.575	-5.63
289.79	0.51
290.004	4.61
290.219	80.38
290.434	-1.54
290.649	-46.59
290.864	55.81
291.079	2.56
291.294	45.57
291.509	10.75
291.724	-30.21
291.938	35.33
292.153	2.56
292.368	68.09
292.583	2.56
292.798	74.24
293.012	10.75
293.227	109.05
293.442	-36.35
293.657	27.14
293.871	53.76
294.086	27.14
294.301	88.57
294.516	-13.82
294.73	-26.11
294.945	-42.5
295.16	86.53
295.374	39.42
295.589	10.75
295.804	14.85
296.018	-1.54
296.233	135.68
296.447	47.62
296.662	-17.92
296.877	35.33
297.091	51.71
297.306	57.86
297.52	59.9
297.735	4.61
297.949	45.57
298.164	-65.02
298.378	35.33
298.593	4.61
298.807	-11.78
299.022	6.66
299.236	84.48
299.451	-13.82
299.665	55.81
299.88	-28.16
300.094	43.52
300.309	51.71
300.523	51.71
300.737	39.42
300.952	-13.82
301.166	10.75
301.381	-46.59
301.595	-46.59
301.809	33.28
302.024	-42.5
302.238	6.66
302.452	100.86
302.667	43.52
302.881	78.33
303.095	92.67
303.309	51.71
303.524	92.67
303.738	39.42
303.952	18.94
304.166	137.73
304.381	18.94
304.595	45.57
304.809	-22.02
305.023	61.95
305.237	-19.97
305.452	-13.82
305.666	27.14
305.88	16.9
306.094	76.29
306.308	4.61
306.522	-34.3
306.736	10.75
306.95	27.14
307.164	-11.78
307.379	70.14
307.593	84.48
307.807	43.52
308.021	86.53
308.235	51.71
308.449	-5.63
308.663	43.52
308.877	86.53
309.091	61.95
309.305	-9.73
309.519	25.09
309.733	104.96
309.947	-5.63
310.161	84.48
310.374	125.44
310.588	92.67
310.802	10.75
311.016	-7.68
311.23	64
311.444	-17.92
311.658	37.38
311.872	68.09
312.085	20.99
312.299	43.52
312.513	104.96
312.727	10.75
312.941	-19.97
313.154	31.23
313.368	8.7
313.582	10.75
313.796	41.47
314.009	10.75
314.223	59.9
314.437	31.23
314.651	4.61
314.864	18.94
315.078	12.8
315.292	53.76
315.505	20.99
315.719	2.56
315.933	76.29
316.146	-46.59
316.36	12.8
316.573	18.94
316.787	104.96
317.001	37.38
317.214	18.94
317.428	27.14
317.641	-9.73
317.855	12.8
318.068	27.14
318.282	10.75
318.495	14.85
318.709	61.95
318.922	31.23
319.136	137.73
319.349	59.9
319.563	72.19
319.776	-38.4
319.99	-3.58
320.203	-7.68
320.417	-52.74
320.63	70.14
320.843	59.9
321.057	6.66
321.27	61.95
321.483	-1.54
321.697	68.09
321.91	43.52
322.124	2.56
322.337	16.9
322.55	-36.35
322.763	121.34
322.977	12.8
323.19	23.04
323.403	117.25
323.617	35.33
323.83	109.05
324.043	18.94
324.256	14.85
324.469	-19.97
324.683	-7.68
324.896	76.29
325.109	10.75
325.322	-46.59
325.535	-3.58
325.748	61.95
325.962	39.42
326.175	-13.82
326.388	133.63
326.601	84.48
326.814	-11.78
327.027	0.51
327.24	102.91
327.453	-17.92
327.666	18.94
327.879	12.8
328.092	70.14
328.305	53.76
328.518	39.42
328.731	-5.63
328.944	-13.82
329.157	-9.73
329.37	55.81
329.583	80.38
329.796	18.94
330.009	-30.21
330.222	-22.02
330.435	78.33
330.648	68.09
330.861	61.95
331.073	86.53
331.286	31.23
331.499	-3.58
331.712	-79.36
331.925	72.19
332.138	76.29
332.35	141.82
332.563	-75.26
332.776	35.33
332.989	-17.92
333.202	4.61
333.414	-28.16
333.627	18.94
333.84	-5.63
334.053	-30.21
334.265	-3.58
334.478	-13.82
334.691	37.38
334.903	39.42
335.116	-22.02
335.329	51.71
335.541	-19.97
335.754	25.09
335.966	-17.92
336.179	70.14
336.392	0.51
336.604	-46.59
336.817	76.29
337.029	84.48
337.242	47.62
337.454	51.71
337.667	61.95
337.88	158.21
338.092	51.71
338.305	27.14
338.517	55.81
338.729	12.8
338.942	92.67
339.154	-40.45
339.367	-28.16
339.579	35.33
339.792	12.8
340.004	100.86
340.217	20.99
340.429	-36.35
340.641	14.85
340.854	-13.82
341.066	27.14
341.278	84.48
341.491	127.49
341.703	47.62
341.915	10.75
342.128	45.57
342.34	51.71
342.552	10.75
342.764	29.18
342.977	10.75
343.189	55.81
343.401	109.05
343.613	10.75
343.826	68.09
344.038	61.95
344.25	4.61
344.462	-22.02
344.674	43.52
344.886	35.33
345.099	59.9
345.311	39.42
345.523	45.57
345.735	18.94
345.947	74.24
346.159	53.76
346.371	59.9
346.583	29.18
346.795	145.92
347.007	2.56
347.219	29.18
347.431	29.18
347.643	43.52
347.855	51.71
348.067	109.05
348.279	14.85
348.491	43.52
348.703	14.85
348.915	59.9
349.127	-1.54
349.339	80.38
349.551	-5.63
349.763	45.57
349.975	-62.98
350.187	59.9
350.399	76.29
350.61	61.95
350.822	27.14
351.034	4.61
351.246	12.8
351.458	18.94
351.669	4.61
351.881	125.44
352.093	64
352.305	74.24
352.517	84.48
352.728	47.62
352.94	61.95
353.152	-40.45
353.363	31.23
353.575	51.71
353.787	102.91
353.999	39.42
354.21	119.29
354.422	18.94
354.633	66.05
354.845	55.81
355.057	35.33
355.268	45.57
355.48	59.9
355.692	-38.4
355.903	-24.06
356.115	-3.58
356.326	27.14
356.538	27.14
356.749	10.75
356.961	78.33
357.172	25.09
357.384	-26.11
357.595	111.1
357.807	-60.93
358.018	18.94
358.23	2.56
358.441	45.57
358.653	72.19
358.864	6.66
359.075	-9.73
359.287	10.75
359.498	66.05
359.709	86.53
359.921	43.52
360.132	82.43
360.344	29.18
360.555	-11.78
360.766	215.55
360.977	43.52
361.189	137.73
361.4	-22.02
361.611	111.1
361.823	45.57
362.034	76.29
362.245	-3.58
362.456	14.85
362.667	96.77
362.879	86.53
363.09	51.71
363.301	78.33
363.512	27.14
363.723	39.42
363.935	-9.73
364.146	27.14
364.357	12.8
364.568	53.76
364.779	-50.69
364.99	-5.63
365.201	-5.63
365.412	127.49
365.623	18.94
365.834	37.38
366.045	43.52
366.256	35.33
366.467	12.8
366.678	18.94
366.889	70.14
367.1	92.67
367.311	143.87
367.522	117.25
367.733	20.99
367.944	59.9
368.155	10.75
368.366	29.18
368.577	117.25
368.788	133.63
368.999	27.14
369.209	6.66
369.42	45.57
369.631	100.86
369.842	72.19
370.053	92.67
370.264	27.14
370.474	18.94
370.685	33.28
370.896	-13.82
371.107	-1.54
371.317	76.29
371.528	57.86
371.739	51.71
371.95	37.38
372.16	51.71
372.371	37.38
372.582	6.66
372.792	18.94
373.003	76.29
373.214	51.71
373.424	72.19
373.635	20.99
373.846	127.49
374.056	98.81
374.267	59.9
374.477	59.9
374.688	-22.02
374.898	55.81
375.109	72.19
375.319	66.05
375.53	96.77
375.74	37.38
375.951	76.29
376.161	51.71
376.372	64
376.582	18.94
376.793	61.95
377.003	43.52
377.214	-30.21
377.424	111.1
377.635	47.62
377.845	59.9
378.055	86.53
378.266	92.67
378.476	-5.63
378.686	35.33
378.897	104.96
379.107	29.18
379.317	76.29
379.528	-22.02
379.738	29.18
379.948	23.04
380.158	74.24
380.369	72.19
380.579	12.8
380.789	10.75
380.999	70.14
381.21	51.71
381.42	94.72
381.63	-11.78
381.84	23.04
382.05	76.29
382.261	27.14
382.471	47.62
382.681	-38.4
382.891	96.77
383.101	53.76
383.311	100.86
383.521	-5.63
383.731	84.48
383.941	68.09
384.151	33.28
384.361	10.75
384.571	59.9
384.781	84.48
384.991	61.95
385.201	113.15
385.411	70.14
385.621	53.76
385.831	43.52
386.041	47.62
386.251	78.33
386.461	61.95
386.671	25.09
386.881	59.9
387.091	100.86
387.301	125.44
387.511	41.47
387.72	117.25
387.93	154.11
388.14	70.14
388.35	2.56
388.56	158.21
388.769	92.67
388.979	51.71
389.189	20.99
389.399	51.71
389.609	109.05
389.818	68.09
390.028	-7.68
390.238	84.48
390.447	-3.58
390.657	72.19
390.867	-54.78
391.076	-28.16
391.286	76.29
391.496	39.42
391.705	10.75
391.915	113.15
392.125	59.9
392.334	45.57
392.544	72.19
392.753	45.57
392.963	18.94
393.172	70.14
393.382	68.09
393.591	117.25
393.801	-1.54
394.01	141.82
394.22	84.48
394.429	92.67
394.639	68.09
394.848	111.1
395.058	152.06
395.267	125.44
395.477	41.47
395.686	137.73
395.895	64
396.105	88.57
396.314	109.05
396.524	127.49
396.733	53.76
396.942	143.87
397.152	61.95
397.361	111.1
397.57	109.05
397.78	133.63
397.989	84.48
398.198	150.01
398.407	141.82
398.617	39.42
398.826	109.05
399.035	45.57
399.244	109.05
399.453	125.44
399.663	107.01
399.872	113.15
400.081	129.53
400.29	131.58
400.499	133.63
400.708	158.21
400.917	125.44
401.127	141.82
401.336	123.39
401.545	190.97
401.754	137.73
401.963	168.45
402.172	102.91
402.381	68.09
402.59	121.34
402.799	176.64
403.008	133.63
403.217	109.05
403.426	100.86
403.635	88.57
403.844	127.49
404.053	80.38
404.262	133.63
404.471	209.4
404.68	162.3
404.888	215.55
405.097	178.69
405.306	178.69
405.515	248.32
405.724	145.92
405.933	217.6
406.142	184.83
406.35	219.64
406.559	201.21
406.768	207.36
406.977	270.84
407.185	207.36
407.394	270.84
407.603	100.86
407.812	223.74
408.02	289.28
408.229	250.36
408.438	266.75
408.646	207.36
408.855	236.03
409.064	301.56
409.272	258.56
409.481	403.96
409.69	307.71
409.898	258.56
410.107	354.81
410.315	354.81
410.524	332.28
410.733	322.04
410.941	403.96
411.15	406.01
411.358	420.35
411.567	504.31
411.775	543.22
411.984	504.31
412.192	526.84
412.401	473.59
412.609	551.42
412.818	555.51
413.026	471.54
413.234	573.94
413.443	616.95
413.651	674.29
413.86	631.29
414.068	690.68
414.276	791.03
414.485	725.49
414.693	829.94
414.901	895.47
415.11	903.67
415.318	883.19
415.526	850.42
415.734	907.76
415.943	901.62
416.151	1016.3
416.359	985.58
416.567	1001.97
416.776	1006.06
416.984	1141.23
417.192	1145.33
417.4	1071.6
417.608	1159.66
417.817	1247.72
418.025	1298.92
418.233	1417.71
418.441	1323.5
418.649	1411.56
418.857	1450.47
419.065	1485.29
419.273	1509.86
419.481	1575.4
419.689	1690.09
419.897	1694.18
420.105	1821.16
420.313	1913.31
420.521	1907.17
420.729	1937.89
420.937	2034.14
421.145	2118.11
421.353	2238.94
421.561	2404.83
421.769	2347.48
421.977	2517.47
422.185	2484.7
422.393	2603.48
422.601	2640.34
422.809	2877.91
423.017	2744.79
423.224	2818.52
423.432	2861.52
423.64	3049.94
423.848	3262.93
424.056	3164.62
424.263	3459.53
424.471	3443.15
424.679	3486.15
424.887	3787.21
425.094	3779.01
425.302	3838.41
425.51	4000.19
425.718	4104.64
425.925	4121.03
426.133	4327.87
426.341	4467.13
426.548	4606.39
426.756	4712.89
426.964	4753.85
427.171	5179.82
427.379	5245.36
427.586	5296.56
427.794	5392.81
428.001	5585.32
428.209	6072.74
428.417	5853.61
428.624	6209.95
428.832	6181.28
429.039	6181.28
429.247	6277.54
429.454	6832.54
429.662	7186.83
429.869	6867.35
430.076	7225.75
430.284	6984.09
430.491	7301.52
430.699	7838.09
430.906	7739.79
431.114	7731.59
431.321	8182.15
431.528	8378.75
431.736	8898.94
431.943	9296.24
432.15	8989.05
432.358	8997.24
432.565	9662.83
432.772	9402.74
432.979	10023.27
433.187	10013.03
433.394	10039.65
433.601	10944.86
433.808	10883.42
434.016	10803.55
434.223	11372.88
434.43	12030.28
434.637	11737.42
434.844	12607.81
435.052	12564.8
435.259	12654.91
435.466	12822.84
435.673	12767.55
435.88	13457.71
436.087	14078.25
436.294	14129.45
436.501	13650.22
436.708	14289.19
436.915	14690.59
437.122	15192.34
437.329	15210.78
437.537	15763.73
437.743	15911.18
437.95	15728.91
438.157	16523.52
438.364	17076.48
438.571	16896.25
438.778	17201.4
438.985	18751.71
439.192	17793.26
439.399	18569.44
439.606	18174.19
439.813	19171.55
440.02	20271.31
440.227	20031.69
440.433	19605.72
440.64	20463.82
440.847	20398.28
441.054	20918.46
441.261	22349.99
441.467	21801.14
441.674	21928.11
441.881	23009.44
442.088	23068.83
442.294	22757.54
442.501	23394.46
442.708	23945.36
442.914	24608.9
443.121	25833.59
443.328	24975.49
443.534	26970.21
443.741	26050.67
443.948	25809.01
444.154	27650.14
444.361	27662.43
444.568	27527.26
444.774	27568.22
444.981	28164.18
445.187	28809.29
445.394	29816.89
445.6	29839.42
445.807	32319.51
446.013	31019.05
446.22	31459.36
446.426	33095.69
446.633	32659.47
446.839	34107.38
447.046	32921.61
447.252	34836.46
447.459	34709.49
447.665	34502.64
447.871	35753.95
448.078	37126.09
448.284	36100.06
448.491	36489.17
448.697	37812.16
448.903	38340.53
449.11	38571.96
449.316	37820.35
449.522	38901.68
449.728	39579.56
449.935	40165.28
450.141	40370.07
450.347	41017.23
450.553	39739.3
450.76	40415.13
450.966	41652.1
451.172	41080.72
451.378	42002.3
451.584	41025.42
451.791	42352.51
451.997	42239.87
452.203	42962.8
452.409	42616.69
452.615	42669.94
452.821	41351.05
453.027	40646.55
453.233	42735.48
453.44	41000.85
453.646	41211.79
453.852	41457.54
454.058	42258.3
454.264	41039.76
454.47	42231.68
454.676	40869.78
454.882	42268.54
455.088	38934.45
455.294	39069.61
455.5	39874.46
455.705	40222.62
455.911	38782.9
456.117	38203.32
456.323	37298.12
456.529	35411.94
456.735	37023.69
456.941	35856.35
457.147	35289.06
457.352	34154.49
457.558	33998.84
457.764	34361.33
457.97	33372.16
458.176	32514.06
458.381	32622.61
458.587	31023.14
458.793	30775.34
458.999	29438.01
459.204	31545.37
459.41	30720.04
459.616	28553.29
459.821	28555.34
460.027	28659.79
460.233	28000.34
460.438	26499.18
460.644	26746.98
460.85	25909.36
461.055	25256.06
461.261	25391.23
461.466	23318.68
461.672	22630.57
461.878	24166.54
462.083	22759.59
462.289	22046.9
462.494	21786.8
462.7	20764.87
462.905	20289.74
463.111	20859.07
463.316	21059.77
463.522	20367.56
463.727	20789.44
463.932	20734.15
464.138	20287.69
464.343	20433.1
464.549	19802.32
464.754	20730.05
464.959	20332.75
465.165	20156.62
465.37	19230.94
465.575	18807.01
465.781	19654.87
465.986	19327.19
466.191	18868.45
466.397	18657.51
466.602	17586.42
466.807	18475.24
467.012	18088.17
467.218	18098.41
467.423	17844.46
467.628	18155.75
467.833	18716.9
468.038	18071.79
468.244	17795.31
468.449	18077.93
468.654	17434.87
468.859	17307.9
469.064	17496.31
469.269	16705.79
469.474	16978.17
469.679	17201.4
469.885	16685.31
470.09	16883.97
470.295	16701.7
470.5	16394.5
470.705	16365.83
470.91	16011.53
471.115	15964.43
471.32	16044.3
471.525	16171.27
471.73	15587.6
471.935	15702.29
472.139	15171.86
472.344	15356.18
472.549	14801.18
472.754	14938.4
472.959	14565.67
473.164	13977.9
473.369	14174.5
473.574	14674.21
473.778	14706.98
473.983	14172.46
474.188	14532.9
474.393	13607.22
474.598	13834.54
474.802	13562.16
475.007	13498.67
475.212	13332.79
475.417	13001.02
475.621	13201.72
475.826	12986.68
476.031	12896.57
476.235	12507.46
476.44	12767.55
476.645	12605.76
476.849	12454.21
477.054	12366.15
477.259	12167.49
477.463	12294.47
477.668	11895.11
477.872	12230.98
478.077	11927.88
478.282	11481.42
478.486	11618.64
478.691	11387.22
478.895	11495.76
479.1	11569.49
479.304	11239.76
479.509	11051.35
479.713	11376.98
479.918	11012.44
480.122	10809.69
480.326	10897.75
480.531	10926.43
480.735	10809.69
480.94	10828.12
481.144	11159.89
481.348	10430.82
481.553	10572.13
481.757	10465.63
481.961	10439.01
482.166	10764.64
482.37	10586.46
482.574	10447.2
482.778	10352.99
482.983	10668.38
483.187	10453.34
483.391	10436.96
483.595	10570.08
483.8	10275.17
484.004	10434.91
484.208	10504.54
484.412	10400.1
484.616	10613.09
484.821	10504.54
485.025	10193.25
485.229	10592.61
485.433	10486.11
485.637	10383.71
485.841	10369.38
486.045	10262.88
486.249	10262.88
486.453	10326.37
486.657	10416.48
486.861	10600.8
487.065	9992.55
487.269	10529.12
487.473	10119.53
487.677	10291.55
487.881	10596.7
488.085	10127.72
488.289	10234.21
488.493	10445.15
488.697	10387.81
488.901	10428.77
489.105	10303.84
489.309	10496.35
489.512	10432.86
489.716	10377.57
489.92	10350.95
490.124	10373.47
490.328	10713.44
490.531	10365.28
490.735	10477.92
490.939	10426.72
491.143	10547.55
491.346	10508.64
491.55	10639.71
491.754	10541.41
491.958	10637.66
492.161	10674.53
492.365	10752.35
492.569	10670.43
492.772	10932.57
492.976	10848.6
493.18	10867.03
493.383	10946.9
493.587	11161.94
493.79	11219.28
493.994	10873.18
494.197	11123.03
494.401	11184.47
494.605	11176.28
494.808	11630.93
495.012	11565.39
495.215	11659.6
495.419	11612.49
495.622	11549.01
495.825	11809.1
496.029	11747.66
496.232	12069.19
496.436	11983.18
496.639	12142.92
496.843	12061
497.046	12429.63
497.249	12480.83
497.453	12575.04
497.656	12556.61
497.859	12923.19
498.063	12790.08
498.266	12994.87
498.469	13013.31
498.673	13046.07
498.876	13275.45
499.079	13332.79
499.282	13207.86
499.485	13930.8
499.689	13705.52
499.892	13830.44
500.095	14223.65
500.298	14391.59
500.501	14248.23
500.705	14414.12
500.908	14715.17
501.111	14780.7
501.314	15165.72
501.517	15243.54
501.72	15089.95
501.923	15053.08
502.126	15610.13
502.329	15665.42
502.532	15792.4
502.735	16011.53
502.938	16288.01
503.141	16271.62
503.344	16525.57
503.547	16501
503.75	16648.45
503.953	16969.98
504.156	17174.78
504.359	17467.64
504.562	17412.34
504.765	17826.03
504.968	17658.1
505.17	18002.16
505.373	17944.81
505.576	18364.65
505.779	18643.17
505.982	18772.19
506.185	19056.86
506.387	19144.92
506.59	19275.99
506.793	19671.25
506.996	20033.74
507.198	20086.99
507.401	20072.65
507.604	20324.55
507.807	20744.39
508.009	20766.92
508.212	20682.95
508.415	21250.24
508.617	21354.68
508.82	21262.52
509.022	21565.62
509.225	22007.98
509.428	22003.89
509.63	22274.22
509.833	22352.04
510.035	23062.69
510.238	22802.6
510.44	23064.74
510.643	23343.26
510.845	23384.22
511.048	24072.34
511.25	24135.82
511.453	23980.18
511.655	24692.87
511.858	24662.15
512.06	24944.77
512.262	25081.99
512.465	25127.04
512.667	25217.15
512.87	25477.24
513.072	25753.72
513.274	26132.59
513.477	26280.05
513.679	26591.34
513.881	26374.25
514.084	27107.43
514.286	27064.42
514.488	27271.26
514.69	28375.12
514.893	27863.13
515.095	28072.02
515.297	28256.34
515.499	28549.2
515.701	28680.27
515.904	29196.35
516.106	29192.26
516.308	29491.26
516.51	29825.08
516.712	30021.69
516.914	30253.11
517.116	30781.48
517.318	30507.05
517.52	30761
517.722	30779.43
517.925	31510.56
518.127	31496.22
518.329	32079.89
518.531	31885.34
518.733	32538.64
518.935	32262.16
519.136	32612.37
519.338	32892.94
519.54	33183.75
519.742	33060.87
519.944	33204.23
520.146	34068.47
520.348	34027.51
520.55	34088.95
520.752	34058.23
520.954	34258.93
521.155	34545.65
521.357	35114.98
521.559	35311.59
521.761	35456.99
521.963	35487.71
522.164	35848.16
522.366	35543.01
522.568	36057.05
522.77	36296.66
522.971	36921.29
523.173	36853.71
523.375	36921.29
523.576	36661.2
523.778	36495.32
523.98	37248.97
524.181	37447.62
524.383	37351.37
524.584	37332.93
524.786	37484.48
524.988	37181.38
525.189	37910.46
525.391	37763.01
525.592	38037.44
525.794	38203.32
525.995	38123.45
526.197	38014.91
526.398	38072.25
526.6	38821.81
526.801	38528.95
527.003	38191.03
527.204	38633.39
527.406	38385.59
527.607	38789.04
527.808	38961.07
528.01	38625.2
528.211	38225.85
528.412	39311.27
528.614	39042.99
528.815	38868.91
529.016	39360.42
529.218	38995.88
529.419	39092.14
529.62	38936.49
529.822	39081.9
530.023	39034.8
530.224	38944.69
530.425	38866.86
530.626	38746.03
530.828	38660.02
531.029	39477.16
531.23	39083.95
531.431	38635.44
531.632	38883.25
531.833	38885.29
532.035	39167.91
532.236	38743.98
532.437	38881.2
532.638	38946.73
532.839	38928.3
533.04	38811.57
533.241	38629.3
533.442	39317.42
533.643	38989.74
533.844	38371.25
534.045	38801.33
534.246	38074.3
534.447	38860.72
534.648	38432.69
534.849	38819.76
535.05	38203.32
535.251	38340.53
535.451	38090.68
535.652	38580.15
535.853	38195.13
536.054	38344.63
536.255	38191.03
536.456	38062.01
536.657	38766.51
536.857	38453.17
537.058	38221.75
537.259	38553.52
537.46	38363.06
537.66	38109.11
537.861	38188.99
538.062	38143.93
538.263	38100.92
538.463	37918.65
538.664	38031.29
538.865	37984.19
539.065	38313.91
539.266	37799.87
539.466	38326.2
539.667	37629.89
539.868	38084.54
540.068	37842.88
540.269	38227.9
540.469	38250.42
540.67	37560.26
540.87	37836.73
541.071	37722.05
541.271	37523.4
541.472	38078.39
541.672	37865.41
541.873	37556.16
542.073	37167.05
542.274	37947.32
542.474	37660.61
542.675	37156.81
542.875	37861.31
543.075	37332.93
543.276	37599.17
543.476	37838.78
543.676	37517.25
543.877	37654.47
544.077	37339.08
544.277	37801.92
544.478	37543.88
544.678	37406.66
544.878	37181.38
545.078	37658.56
545.279	37189.58
545.479	37173.19
545.679	37361.61
545.879	37394.37
546.079	37377.99
546.28	37451.72
546.48	37263.3
546.68	37384.13
546.88	37537.73
547.08	37576.64
547.28	37066.7
547.48	36997.07
547.68	37359.56
547.88	37035.98
548.081	37543.88
548.281	37255.11
548.481	37203.91
548.681	37277.64
548.881	37271.5
549.081	37644.23
549.28	36960.2
549.48	37750.72
549.68	37197.77
549.88	37842.88
550.08	37156.81
550.28	37685.18
550.48	36992.97
550.68	37535.68
550.88	37416.9
551.08	37029.83
551.279	37560.26
551.479	37574.59
551.679	37287.88
551.879	37195.72
552.079	37406.66
552.278	37334.98
552.478	37556.16
552.678	37185.48
552.878	37642.18
553.077	37363.65
553.277	36872.14
553.477	37568.45
553.676	37394.37
553.876	37361.61
554.076	37488.58
554.275	37228.49
554.475	36919.24
554.674	37748.67
554.874	37666.75
555.074	37394.37
555.273	37820.35
555.473	37851.07
555.672	37271.5
555.872	37535.68
556.071	37816.25
556.271	37603.27
556.47	37820.35
556.67	36999.12
556.869	37564.35
557.068	37679.04
557.268	37429.19
557.467	37754.82
557.667	37763.01
557.866	37539.78
558.065	36952.01
558.265	37271.5
558.464	37504.96
558.663	37889.98
558.863	37232.58
559.062	38012.86
559.261	37191.62
559.461	37777.34
559.66	37169.1
559.859	37427.14
560.058	37306.31
560.258	37638.08
560.457	37609.41
560.656	37961.66
560.855	37285.83
561.054	37318.6
561.253	37580.74
561.453	37537.73
561.652	37851.07
561.851	37576.64
562.05	37353.41
562.249	37117.9
562.448	37324.74
562.647	37365.7
562.846	37447.62
563.045	37552.07
563.244	37435.33
563.443	37736.38
563.642	37060.55
563.841	37208.01
564.04	36999.12
564.239	37615.55
564.438	37081.03
564.637	37265.35
564.836	37183.43
565.035	36841.42
565.234	37210.06
565.432	36517.84
565.631	36640.72
565.83	37240.78
566.029	36700.11
566.228	36814.8
566.427	36630.48
566.625	36659.15
566.824	36276.18
567.023	36788.17
567.222	36214.74
567.42	36784.08
567.619	36431.83
567.818	36278.23
568.016	36499.41
568.215	36583.38
568.414	36253.65
568.612	36417.49
568.811	35940.32
569.01	36294.61
569.208	35878.88
569.407	36347.86
569.605	35608.54
569.804	35993.56
570.002	35733.47
570.201	35866.59
570.4	35569.63
570.598	35059.69
570.797	35117.03
570.995	35397.6
571.193	35284.97
571.392	35508.19
571.59	34883.56
571.789	35342.31
571.987	35059.69
572.186	34967.53
572.384	34705.39
572.582	34945
572.781	35166.18
572.979	34381.81
573.177	34832.36
573.376	35012.59
573.574	34199.54
573.772	34248.69
573.971	34420.72
574.169	34064.38
574.367	33861.63
574.565	34166.77
574.763	34033.66
574.962	33964.03
575.16	33945.59
575.358	33726.46
575.556	33341.44
575.754	33898.49
575.952	33093.64
576.151	33712.13
576.349	32966.66
576.547	33411.07
576.745	33710.08
576.943	33294.34
577.141	33134.6
577.339	33368.07
577.537	33290.24
577.735	32827.4
577.933	32784.4
578.131	33009.67
578.329	32929.8
578.527	32147.48
578.725	32485.39
578.923	32247.83
579.121	32241.68
579.319	32303.12
579.516	32591.89
579.714	32409.62
579.912	32198.68
580.11	31834.14
580.308	32354.32
580.506	32288.79
580.704	31299.62
580.901	31983.64
581.099	32020.5
581.297	31133.73
581.495	31242.28
581.692	31655.96
581.89	31223.84
582.088	31494.18
582.285	31270.95
582.483	31285.28
582.681	31174.69
582.878	30939.18
583.076	30799.91
583.274	30978.09
583.471	30646.32
583.669	30752.81
583.866	30648.36
584.064	30642.22
584.262	30076.98
584.459	30582.83
584.657	30388.27
584.854	30486.57
585.052	29915.19
585.249	30206
585.447	30220.34
585.644	29837.37
585.841	29831.22
586.039	30365.74
586.236	29274.18
586.434	29827.13
586.631	29675.58
586.828	29657.15
587.026	29921.34
587.223	29489.21
587.42	29386.82
587.618	29227.07
587.815	29194.31
588.012	29280.32
588.21	29079.62
588.407	29499.45
588.604	28876.87
588.801	28829.77
588.999	29032.52
589.196	28833.86
589.393	28747.85
589.59	28520.52
589.787	28702.79
589.984	28409.93
590.182	28422.22
590.379	28475.47
590.576	28287.06
590.773	28141.65
590.97	28186.71
591.167	28018.77
591.364	27930.71
591.561	28227.67
591.758	27940.95
591.955	27797.59
592.152	28239.95
592.349	27959.38
592.546	27920.47
592.743	28072.02
592.94	27531.36
593.137	27363.42
593.334	27897.94
593.531	27410.53
593.727	27682.91
593.924	27705.43
594.121	27232.35
594.318	27502.68
594.515	27013.22
594.712	27711.58
594.908	27211.87
595.105	27334.75
595.302	27209.82
595.499	27142.24
595.696	27428.96
595.892	27191.39
596.089	27168.87
596.286	27056.23
596.482	26953.83
596.679	27011.17
596.876	27060.32
597.072	26683.5
597.269	27066.47
597.466	26787.94
597.662	26499.18
597.859	26671.21
598.055	26984.55
598.252	26237.04
598.448	26959.97
598.645	26634.35
598.841	26554.47
599.038	26824.81
599.234	26751.08
599.431	26505.32
599.627	26689.64
599.824	26691.69
600.02	26396.78
600.217	26335.34
600.413	26396.78
600.609	26361.97
600.806	26421.36
601.002	26364.01
601.198	26030.19
601.395	26351.73
601.591	26259.57
601.787	26407.02
601.984	26339.44
602.18	26597.48
602.376	26415.21
602.572	26374.25
602.769	26316.91
602.965	26077.3
603.161	26200.18
603.357	26171.5
603.553	26187.89
603.75	26204.27
603.946	25886.84
604.142	26171.5
604.338	26089.59
604.534	26292.33
604.73	26454.12
604.926	26101.87
605.122	26466.41
605.318	26024.05
605.514	26026.1
605.71	25991.28
605.906	25974.9
606.102	26056.82
606.298	26409.07
606.494	26390.64
606.69	26548.33
606.886	26538.09
607.082	25929.84
607.278	26472.56
607.474	26288.24
607.67	26044.53
607.866	25952.37
608.062	26734.7
608.257	26595.43
608.453	26392.69
608.649	26452.08
608.845	26497.13
609.041	26648.68
609.236	26636.39
609.432	26628.2
609.628	26890.34
609.824	26833
610.019	26548.33
610.215	26443.88
610.411	26806.37
610.606	26548.33
610.802	26572.91
610.998	26505.32
611.193	26617.96
611.389	26835.05
611.584	26599.53
611.78	26861.67
611.976	26888.29
612.171	26822.76
612.367	26820.71
612.562	26703.98
612.758	26513.52
612.953	26634.35
613.149	26974.31
613.344	26908.77
613.539	27263.07
613.735	27035.75
613.93	26890.34
614.126	27023.46
614.321	27097.19
614.517	26988.64
614.712	27123.81
614.907	26548.33
615.103	27215.97
615.298	26761.32
615.493	27142.24
615.688	26822.76
615.884	27625.56
616.079	26660.97
616.274	27050.08
616.47	27129.95
616.665	27082.85
616.86	26841.19
617.055	26927.21
617.25	26972.26
617.445	26998.88
617.641	26499.18
617.836	26808.42
618.031	26423.4
618.226	26886.25
618.421	26507.37
618.616	26990.69
618.811	26409.07
619.006	26722.41
619.201	26484.84
619.396	26364.01
619.591	26212.46
619.786	26519.66
619.981	25942.13
620.176	26417.26
620.371	26024.05
620.566	26155.12
620.761	25964.66
620.956	26194.03
621.151	25450.62
621.346	25520.25
621.541	25118.85
621.735	25546.87
621.93	25135.23
622.125	25518.2
622.32	25307.26
622.515	25108.61
622.709	25157.76
622.904	24854.66
623.099	24842.37
623.294	25135.23
623.488	24772.74
623.683	24699.02
623.878	24150.16
624.072	24520.84
624.267	24359.05
624.462	24217.74
624.656	24070.29
624.851	24109.2
625.046	23556.25
625.24	23675.03
625.435	23523.48
625.629	23646.36
625.824	23406.75
626.018	23511.19
626.213	22524.07
626.407	22960.29
626.602	22626.47
626.796	22982.82
626.991	22640.81
627.185	22653.09
627.38	22405.29
627.574	22259.88
627.768	22335.66
627.963	21991.6
628.157	21860.53
628.352	22378.67
628.546	21887.15
628.74	21698.74
628.935	21739.7
629.129	22083.76
629.323	21491.9
629.517	21416.12
629.712	21196.99
629.906	21344.44
630.1	20984
630.294	21102.78
630.489	20920.51
630.683	21084.35
630.877	20578.5
631.071	20844.74
631.265	20695.24
631.459	20414.66
631.653	20476.1
631.848	20123.85
632.042	20160.72
632.236	20222.16
632.43	19798.23
632.624	19728.59
632.818	19781.84
633.012	19542.23
633.206	19630.29
633.4	19564.76
633.594	19429.59
633.788	19323.1
633.982	19525.85
634.176	19169.5
634.369	18970.85
634.563	18811.1
634.757	18913.5
634.951	18712.8
635.145	18729.19
635.339	18491.62
635.533	18149.61
635.726	18272.49
635.92	18069.74
636.114	18237.67
636.308	18213.1
636.501	17993.97
636.695	18073.84
636.889	17690.87
637.083	17719.54
637.276	17674.48
637.47	17600.76
637.664	17389.81
637.857	17441.01
638.051	17197.31
638.244	16967.93
638.438	16992.51
638.632	16834.82
638.825	16804.1
639.019	16650.5
639.212	16611.59
639.406	16605.44
639.599	16322.82
639.793	16756.99
639.986	16320.77
640.18	16167.18
640.373	16154.89
640.567	16019.72
640.76	15921.42
640.954	15845.65
641.147	15792.4
641.34	15812.88
641.534	15644.95
641.727	15560.98
641.92	15368.47
642.114	15352.09
642.307	15278.36
642.5	15288.6
642.694	15008.03
642.887	14846.24
643.08	14792.99
643.273	14934.3
643.467	14670.11
643.66	14473.51
643.853	14309.67
644.046	14397.73
644.239	14518.56
644.432	14031.15
644.626	13979.95
644.819	14266.66
645.012	14256.42
645.205	14094.63
645.398	13850.92
645.591	13838.64
645.784	13685.04
645.977	13521.2
646.17	13906.22
646.363	13543.73
646.556	13234.49
646.749	13279.54
646.942	13416.76
647.135	13246.77
647.328	12980.54
647.521	12937.53
647.714	13115.7
647.907	12790.08
648.099	12970.3
648.292	12929.34
648.485	12814.65
648.678	12638.53
648.871	12497.22
649.064	12212.55
649.256	12638.53
649.449	12267.84
649.642	12116.3
649.835	11974.99
650.027	12142.92
650.22	12087.62
650.413	12056.9
650.605	12042.57
650.798	11800.91
650.991	11632.97
651.183	11663.69
651.376	11622.73
651.568	11794.76
651.761	11569.49
651.954	11600.21
652.146	11348.31
652.339	11532.62
652.531	11243.86
652.724	10948.95
652.916	11012.44
653.109	11133.27
653.301	11127.13
653.494	11053.4
653.686	10873.18
653.879	11026.78
654.071	10905.95
654.263	10692.96
654.456	10979.67
654.648	10864.99
654.84	10492.26
655.033	10463.58
655.225	10580.32
655.417	10301.79
655.61	10443.1
655.802	10422.62
655.994	10039.65
656.186	10232.16
656.379	10373.47
656.571	10074.47
656.763	9914.73
656.955	9959.78
657.148	9947.5
657.34	9906.54
657.532	9771.37
657.724	9761.13
657.916	9767.27
658.108	9562.48
658.3	9589.1
658.492	9734.51
658.684	9505.13
658.876	9517.42
659.068	9466.22
659.26	9384.3
659.452	9415.02
659.644	9308.53
659.836	9185.65
660.028	9148.79
660.22	9156.98
660.412	9079.16
660.604	9038.2
660.796	8907.13
660.988	8890.74
661.18	9030.01
661.372	8767.87
661.563	8804.73
661.755	8569.21
661.947	8542.59
662.139	8696.19
662.331	8597.88
662.522	8542.59
662.714	8292.74
662.906	8313.22
663.097	8391.04
663.289	8372.61
663.481	8391.04
663.673	8243.59
663.864	8034.69
664.056	8178.05
664.247	8137.09
664.439	7989.64
664.631	8089.99
664.822	8120.71
665.014	7809.42
665.205	7948.68
665.397	7760.27
665.588	7868.81
665.78	7782.79
665.971	7762.31
666.163	7623.05
666.354	7674.25
666.546	7555.47
666.737	7549.32
666.929	7307.66
667.12	7383.44
667.311	7512.46
667.503	7336.34
667.694	7348.62
667.885	7328.14
668.077	7192.98
668.268	7096.72
668.459	7145.87
668.651	7246.23
668.842	7072.15
669.033	7250.32
669.224	7047.57
669.416	7199.12
669.607	6998.42
669.798	7074.2
669.989	6967.7
670.18	6814.1
670.371	6975.89
670.563	6723.99
670.754	6844.82
670.945	6760.86
671.136	6588.83
671.327	6695.32
671.518	6805.91
671.709	6611.36
671.9	6832.54
672.091	6703.51
672.282	6752.66
672.473	6381.98
672.664	6621.59
672.855	6455.71
673.046	6494.62
673.237	6631.83
673.428	6478.24
673.619	6427.04
673.809	6371.74
674	6478.24
674.191	6400.41
674.382	6220.19
674.573	6359.45
674.764	6228.38
674.954	6392.22
675.145	6037.92
675.336	6261.15
675.527	6265.25
675.717	6242.72
675.908	6293.92
676.099	6189.47
676.289	6113.7
676.48	6222.24
676.671	6130.08
676.861	6056.36
677.052	6029.73
677.243	6125.99
677.433	6050.21
677.624	6025.64
677.814	6113.7
678.005	6025.64
678.195	5794.22
678.386	5808.55
678.576	5878.18
678.767	6027.68
678.957	5913
679.148	6039.97
679.338	5878.18
679.529	5915.05
679.719	5910.95
679.909	5943.72
680.1	5896.61
680.29	5908.9
680.481	5728.68
680.671	5974.44
680.861	5786.02
681.052	5880.23
681.242	5640.62
681.432	5931.43
681.622	5708.2
681.813	5646.76
682.003	5802.41
682.193	5700.01
682.383	5990.82
682.573	5616.04
682.764	5589.42
682.954	5659.05
683.144	5753.26
683.334	5663.15
683.524	5595.56
683.714	5716.39
683.904	5681.58
684.094	5745.06
684.284	5626.28
684.474	5503.4
684.664	5663.15
684.854	5548.46
685.044	5495.21
685.234	5345.71
685.424	5470.64
685.614	5605.8
685.804	5450.16
685.994	5458.35
686.184	5511.6
686.374	5331.37
686.564	5319.09
686.753	5446.06
686.943	5333.42
687.133	5353.9
687.323	5380.53
687.513	5390.77
687.702	5409.2
687.892	5321.13
688.082	5165.49
688.272	5271.98
688.461	5173.68
688.651	5386.67
688.841	5095.86
689.03	5212.59
689.22	5292.46
689.41	5093.81
689.599	5271.98
689.789	5405.1
689.979	5228.98
690.168	5136.82
690.358	5081.52
690.547	5015.99
690.737	5097.91
690.926	5130.67
691.116	5007.8
691.305	5018.04
691.495	4772.28
691.684	4977.08
691.874	5081.52
692.063	4966.84
692.252	4985.27
692.442	5067.19
692.631	4794.81
692.82	4870.58
693.01	4983.22
693.199	4833.72
693.388	4757.94
693.578	4772.28
693.767	4782.52
693.956	4786.61
694.146	4673.98
694.335	4708.79
694.524	4762.04
694.713	4821.43
694.902	4665.78
695.092	4712.89
695.281	4811.19
695.47	4708.79
695.659	4569.53
695.848	4729.27
696.037	4583.87
696.226	4610.49
696.415	4528.57
696.604	4794.81
696.793	4458.94
696.982	4567.48
697.171	4655.54
697.36	4526.52
697.549	4450.75
697.738	4475.32
697.927	4475.32
698.116	4528.57
698.305	4514.24
698.494	4393.4
698.683	4487.61
698.872	4374.97
699.061	4446.65
699.25	4395.45
699.438	4417.98
699.627	4493.76
699.816	4381.12
700.005	4258.24
700.193	4276.67
700.382	4340.16
700.571	4360.64
700.76	4362.69
700.948	4254.14
701.137	4262.33
701.326	4305.34
701.514	4229.57
701.703	4348.35
701.892	4139.46
702.08	4463.04
702.269	4164.03
702.457	4274.62
702.646	4237.76
702.834	4147.65
703.023	4153.79
703.212	4141.5
703.4	4139.46
703.589	4078.02
703.777	4149.7
703.965	4135.36
704.154	4043.2
704.342	4065.73
704.531	4024.77
704.719	4026.82
704.907	4086.21
705.096	3942.85
705.284	4037.06
705.472	3967.43
705.661	3862.98
705.849	3920.32
706.037	4008.39
706.226	3944.9
706.414	3731.91
706.602	3983.81
706.79	3953.09
706.979	3830.21
707.167	3838.41
707.355	3899.84
707.543	3942.85
707.731	3840.45
707.919	3879.36
708.107	3680.71
708.296	3752.39
708.484	3799.49
708.672	3774.92
708.86	3811.78
709.048	3787.21
709.236	3787.21
709.424	3957.19
709.612	3680.71
709.8	3647.94
709.988	3758.53
710.176	3709.38
710.364	3613.13
710.551	3713.48
710.739	3623.37
710.927	3705.29
711.115	3570.12
711.303	3690.95
711.491	3586.51
711.679	3475.91
711.866	3670.47
712.054	3475.91
712.242	3500.49
712.43	3676.62
712.617	3398.09
712.805	3578.31
712.993	3453.39
713.181	3477.96
713.368	3353.04
713.556	3500.49
713.744	3310.03
713.931	3377.61
714.119	3447.24
714.306	3404.24
714.494	3377.61
714.682	3324.37
714.869	3373.52
715.057	3443.15
715.244	3484.11
715.432	3404.24
715.619	3303.89
715.807	3402.19
715.994	3385.8
716.182	3205.58
716.369	3301.84
716.556	3463.63
716.744	3275.21
716.931	3303.89
717.119	3324.37
717.306	3289.55
717.493	3295.69
717.681	3181.01
717.868	3346.89
718.055	3264.97
718.242	3226.06
718.43	3099.09
718.617	3189.2
718.804	3129.81
718.991	3086.8
719.179	3074.51
719.366	3111.38
719.553	3090.9
719.74	3140.05
719.927	3146.19
720.114	3002.83
720.301	3076.56
720.488	3004.88
720.676	3013.07
720.863	3142.1
721.05	2996.69
721.237	3062.23
721.424	3123.66
721.611	3068.37
721.798	2922.96
721.985	3008.98
722.172	3025.36
722.358	3017.17
722.545	2908.63
722.732	3031.51
722.919	3011.03
723.106	2929.11
723.293	3002.83
723.48	3021.27
723.667	2892.24
723.853	2828.76
724.04	2902.48
724.227	2888.15
724.414	2771.41
724.6	2861.52
724.787	2945.49
724.974	2855.38
725.161	2955.73
725.347	2877.91
725.534	2861.52
725.72	2779.61
725.907	2808.28
726.094	2822.61
726.28	2853.33
726.467	2738.65
726.653	2732.5
726.84	2810.33
727.027	2802.13
727.213	2660.82
727.4	2779.61
727.586	2824.66
727.773	2804.18
727.959	2730.45
728.145	2748.89
728.332	2691.54
728.518	2623.96
728.705	2601.43
728.891	2617.82
729.077	2615.77
729.264	2617.82
729.45	2621.91
729.636	2613.72
729.823	2660.82
730.009	2660.82
730.195	2585.05
730.382	2660.82
730.568	2601.43
730.754	2619.86
730.94	2707.93
731.126	2644.44
731.313	2644.44
731.499	2447.83
731.685	2580.95
731.871	2580.95
732.057	2623.96
732.243	2640.34
732.429	2537.95
732.615	2632.15
732.801	2666.97
732.987	2533.85
733.173	2503.13
733.359	2505.18
733.545	2599.38
733.731	2451.93
733.917	2617.82
734.103	2292.19
734.289	2482.65
734.475	2378.2
734.661	2472.41
734.847	2525.66
735.033	2419.16
735.219	2525.66
735.404	2341.34
735.59	2339.29
735.776	2427.35
735.962	2505.18
736.148	2333.15
736.333	2435.55
736.519	2333.15
736.705	2320.86
736.89	2462.17
737.076	2353.63
737.262	2443.74
737.447	2296.28
737.633	2398.68
737.819	2333.15
738.004	2308.57
738.19	2275.81
738.375	2255.33
738.561	2396.64
738.747	2230.75
738.932	2169.31
739.118	2288.09
739.303	2357.72
739.489	2263.52
739.674	2320.86
739.859	2146.78
740.045	2337.24
740.23	2128.35
740.416	2058.72
740.601	2183.65
740.786	2109.92
740.972	2144.74
741.157	2122.21
741.342	2232.8
741.528	2150.88
741.713	2083.3
741.898	2099.68
742.084	2040.29
742.269	2099.68
742.454	2193.89
742.639	2122.21
742.824	2068.96
743.01	2083.3
743.195	2083.3
743.38	2034.14
743.565	1984.99
743.75	2028
743.935	2058.72
744.12	2042.34
744.305	2107.87
744.49	2013.67
744.675	2050.53
744.86	1987.04
745.045	2011.62
745.23	2040.29
745.415	1984.99
745.6	1937.89
745.785	1888.74
745.97	2034.14
746.155	1935.84
746.34	1839.59
746.525	1855.97
746.71	1913.31
746.895	1733.09
747.079	1776.1
747.264	1819.11
747.449	1878.5
747.634	1845.73
747.819	1788.39
748.003	1858.02
748.188	1774.05
748.373	1743.33
748.557	1847.78
748.742	1739.24
748.927	1784.29
749.111	1796.58
749.296	1808.87
749.481	1763.81
749.665	1757.67
749.85	1665.51
750.034	1806.82
750.219	1706.47
750.404	1591.78
750.588	1677.8
750.773	1649.13
750.957	1534.44
751.141	1595.88
751.326	1583.59
751.51	1585.64
751.695	1608.17
751.879	1509.86
752.064	1509.86
752.248	1518.06
752.432	1516.01
752.617	1489.39
752.801	1589.74
752.985	1542.63
753.17	1575.4
753.354	1429.99
753.538	1442.28
753.722	1382.89
753.907	1415.66
754.091	1341.93
754.275	1505.77
754.459	1434.09
754.643	1362.41
754.828	1427.95
755.012	1409.51
755.196	1311.21
755.38	1339.88
755.564	1325.55
755.748	1296.88
755.932	1403.37
756.116	1339.88
756.3	1403.37
756.484	1364.46
756.668	1376.75
756.852	1206.77
757.036	1239.53
757.22	1217.01
757.404	1286.64
757.588	1190.38
757.772	1333.74
757.956	1219.05
758.14	1280.49
758.323	1260.01
758.507	1202.67
758.691	1026.54
758.875	1233.39
759.059	1178.09
759.242	1167.85
759.426	1141.23
759.61	1147.37
759.794	1198.57
759.977	1223.15
760.161	1178.09
760.345	1124.85
760.528	1212.91
760.712	1098.22
760.895	1149.42
761.079	1063.41
761.263	1108.46
761.446	1026.54
761.63	1118.7
761.813	1208.81
761.997	1014.26
762.18	1004.02
762.364	1077.74
762.547	954.87
762.731	1051.12
762.914	1042.93
763.098	1001.97
763.281	985.58
763.464	1042.93
763.648	1079.79
763.831	1018.35
764.015	989.68
764.198	1069.55
764.381	920.05
764.564	1004.02
764.748	952.82
764.931	1018.35
765.114	989.68
765.297	897.52
765.481	1065.46
765.664	956.91
765.847	928.24
766.03	1085.94
766.213	981.49
766.397	922.1
766.58	899.57
766.763	1014.26
766.946	952.82
767.129	870.9
767.312	889.33
767.495	885.23
767.678	905.71
767.861	920.05
768.044	1024.5
768.227	1001.97
768.41	854.51
768.593	936.43
768.776	944.63
768.959	862.71
769.142	854.51
769.324	928.24
769.507	838.13
769.69	891.38
769.873	866.8
770.056	989.68
770.239	883.19
770.421	967.15
770.604	872.95
770.787	874.99
770.97	811.51
771.152	856.56
771.335	856.56
771.518	813.56
771.7	838.13
771.883	848.37
772.066	889.33
772.248	854.51
772.431	829.94
772.613	858.61
772.796	846.32
772.978	905.71
773.161	829.94
773.343	756.21
773.526	788.98
773.708	756.21
773.891	711.16
774.073	842.23
774.256	739.83
774.438	813.56
774.621	756.21
774.803	805.36
774.985	725.49
775.168	735.73
775.35	721.4
775.532	684.53
775.715	684.53
775.897	788.98
776.079	643.57
776.261	748.02
776.444	623.09
776.626	719.35
776.808	686.58
776.99	627.19
777.173	694.77
777.355	750.07
777.537	698.87
777.719	713.21
777.901	666.1
778.083	580.09
778.265	619
778.447	643.57
778.629	616.95
778.811	649.72
778.993	666.1
779.175	608.76
779.357	549.37
779.539	600.57
779.721	604.66
779.903	668.15
780.085	608.76
780.267	662.01
780.449	584.18
780.631	627.19
780.812	686.58
780.994	580.09
781.176	616.95
781.358	596.47
781.54	547.32
781.721	504.31
781.903	528.89
782.085	553.46
782.267	551.42
782.448	479.74
782.63	584.18
782.812	584.18
782.993	530.94
783.175	580.09
783.357	528.89
783.538	559.61
783.72	442.87
783.901	477.69
784.083	514.55
784.264	571.9
784.446	444.92
784.627	506.36
784.809	518.65
784.99	492.02
785.172	504.31
785.353	530.94
785.535	479.74
785.716	469.5
785.897	430.59
786.079	504.31
786.26	401.91
786.441	428.54
786.623	432.63
786.804	471.54
786.985	408.06
787.167	461.3
787.348	436.73
787.529	414.2
787.71	518.65
787.891	451.07
788.073	477.69
788.254	383.48
788.435	446.97
788.616	371.19
788.797	356.86
788.978	436.73
789.159	348.67
789.34	334.33
789.522	363
789.703	340.47
789.884	309.76
790.065	387.58
790.246	461.3
790.427	354.81
790.607	395.77
790.788	463.35
790.969	334.33
791.15	432.63
791.331	354.81
791.512	371.19
791.693	338.43
791.874	262.65
792.054	420.35
792.235	340.47
792.416	395.77
792.597	264.7
792.778	363
792.958	330.23
793.139	426.49
793.32	272.89
793.5	260.6
793.681	494.07
793.862	403.96
794.042	334.33
794.223	215.55
794.404	363
794.584	285.18
794.765	297.47
794.945	291.32
795.126	297.47
795.306	342.52
795.487	301.56
795.667	295.42
795.848	250.36
796.028	264.7
796.209	297.47
796.389	305.66
796.57	307.71
796.75	266.75
796.93	252.41
797.111	186.88
797.291	215.55
797.471	281.08
797.652	283.13
797.832	279.04
798.012	256.51
798.192	272.89
798.373	154.11
798.553	252.41
798.733	289.28
798.913	322.04
799.093	262.65
799.274	242.17
799.454	315.9
799.634	244.22
799.814	283.13
799.994	299.52
800.174	315.9
800.354	274.94
800.534	223.74
800.714	305.66
800.894	289.28
801.074	184.83
801.254	305.66
801.434	272.89
801.614	285.18
801.794	219.64
801.974	973.3
802.154	166.4
802.334	211.45
802.514	223.74
802.693	207.36
802.873	250.36
803.053	203.26
803.233	256.51
803.413	225.79
803.592	170.49
803.772	137.73
803.952	150.01
804.131	193.02
804.311	248.32
804.491	231.93
804.67	229.88
804.85	223.74
805.03	248.32
805.209	195.07
805.389	207.36
805.568	219.64
805.748	190.97
805.928	162.3
806.107	197.12
806.287	236.03
806.466	201.21
806.646	158.21
806.825	109.05
807.004	166.4
807.184	190.97
807.363	184.83
807.543	199.16
807.722	158.21
807.901	135.68
808.081	215.55
808.26	137.73
808.439	219.64
808.619	98.81
808.798	117.25
808.977	285.18
809.156	156.16
809.336	127.49
809.515	264.7
809.694	199.16
809.873	127.49
810.052	223.74
810.231	199.16
810.411	231.93
810.59	186.88
810.769	160.25
810.948	219.64
811.127	98.81
811.306	184.83
811.485	205.31
811.664	268.8
811.843	141.82
812.022	244.22
812.201	172.54
812.38	203.26
812.559	166.4
812.737	111.1
812.916	190.97
813.095	158.21
813.274	203.26
813.453	160.25
813.632	133.63
813.811	100.86
813.989	104.96
814.168	139.77
814.347	147.97
814.526	225.79
814.704	207.36
814.883	154.11
815.062	152.06
815.24	158.21
815.419	104.96
815.598	115.2
815.776	111.1
815.955	115.2
816.133	150.01
816.312	174.59
816.49	90.62
816.669	104.96
816.847	88.57
817.026	229.88
817.204	184.83
817.383	92.67
817.561	107.01
817.74	104.96
817.918	172.54
818.097	117.25
818.275	117.25
818.453	152.06
818.632	150.01
818.81	174.59
818.988	39.42
819.167	92.67
819.345	190.97
819.523	61.95
819.701	113.15
819.879	96.77
820.058	135.68
820.236	154.11
820.414	123.39
820.592	43.52
820.77	170.49
820.948	133.63
821.127	27.14
821.305	141.82
821.483	109.05
821.661	111.1
821.839	84.48
822.017	180.73
822.195	61.95
822.373	78.33
822.551	59.9
822.729	109.05
822.907	92.67
823.085	125.44
823.262	80.38
823.44	129.53
823.618	59.9
823.796	86.53
823.974	66.05
824.152	113.15
824.329	143.87
824.507	166.4
824.685	117.25
824.863	76.29
825.04	80.38
825.218	143.87
825.396	43.52
825.574	51.71
825.751	45.57
825.929	39.42
826.107	88.57
826.284	90.62
826.462	109.05
826.639	68.09
826.817	31.23
826.994	84.48
827.172	27.14
827.349	152.06
827.527	100.86
827.704	61.95
827.882	137.73
828.059	78.33
828.237	33.28
828.414	117.25
828.591	66.05
828.769	147.97
828.946	84.48
829.124	176.64
829.301	129.53
829.478	135.68
829.655	47.62
829.833	100.86
830.01	68.09
830.187	66.05
830.364	18.94
830.542	68.09
830.719	49.66
830.896	59.9
831.073	78.33
831.25	59.9
831.427	125.44
831.604	104.96
831.782	100.86
831.959	51.71
832.136	68.09
832.313	43.52
832.49	-34.3
832.667	92.67
832.844	14.85
833.021	78.33
833.198	-28.16
833.374	84.48
833.551	8.7
833.728	96.77
833.905	35.33
834.082	-1.54
834.259	88.57
834.436	23.04
834.612	18.94
834.789	84.48
834.966	70.14
835.143	-19.97
835.319	8.7
835.496	96.77
835.673	18.94
835.85	70.14
836.026	51.71
836.203	88.57
836.38	6.66
836.556	64
836.733	0.51
836.909	115.2
837.086	-54.78
837.262	29.18
837.439	72.19
837.616	100.86
837.792	-38.4
837.968	20.99
838.145	31.23
838.321	96.77
838.498	109.05
838.674	68.09
838.851	66.05
839.027	37.38
839.203	-22.02
839.38	76.29
839.556	-22.02
839.732	98.81
839.909	43.52
840.085	61.95
840.261	68.09
840.437	92.67
840.614	45.57
840.79	113.15
840.966	125.44
841.142	129.53
841.318	20.99
841.494	76.29
841.671	51.71
841.847	39.42
842.023	20.99
842.199	12.8
842.375	-5.63
842.551	-44.54
842.727	64
842.903	18.94
843.079	133.63
843.255	-5.63
843.431	45.57
843.607	92.67
843.783	-101.89
843.959	47.62
844.134	92.67
844.31	59.9
844.486	37.38
844.662	-11.78
844.838	70.14
845.013	8.7
845.189	18.94
845.365	64
845.541	-9.73
845.716	74.24
845.892	57.86
846.068	55.81
846.244	-3.58
846.419	86.53
846.595	-11.78
846.77	82.43
846.946	39.42
847.122	6.66
847.297	-22.02
847.473	66.05
847.648	27.14
847.824	76.29
847.999	-17.92
848.175	37.38
848.35	39.42
848.526	74.24
848.701	88.57
848.876	-7.68
849.052	86.53
849.227	4.61
849.403	45.57
849.578	51.71
849.753	78.33
849.929	96.77
850.104	10.75
850.279	76.29
850.454	29.18
850.63	125.44
850.805	-26.11
850.98	27.14
851.155	92.67
851.33	137.73
851.505	-19.97
851.681	18.94
851.856	-15.87
852.031	45.57
852.206	-34.3
852.381	31.23
852.556	90.62
852.731	84.48
852.906	92.67
853.081	61.95
853.256	78.33
853.431	27.14
853.606	14.85
853.781	2.56
853.956	25.09
854.131	14.85
854.305	2.56
854.48	-13.82
854.655	39.42
854.83	2.56
855.005	45.57
855.18	35.33
855.354	-1.54
855.529	31.23
855.704	-5.63
855.879	70.14
856.053	-38.4
856.228	-11.78
856.403	12.8
856.577	74.24
856.752	-52.74
856.926	23.04
857.101	29.18
857.276	45.57
857.45	2.56
857.625	35.33
857.799	4.61
857.974	35.33
858.148	-34.3
858.323	18.94
858.497	12.8
858.672	18.94
858.846	37.38
859.02	35.33
859.195	-54.78
859.369	8.7
859.543	-9.73
859.718	10.75
859.892	-11.78
860.066	-1.54
860.241	59.9
860.415	27.14
860.589	-34.3
860.763	12.8
860.938	0.51
861.112	-30.21
861.286	-11.78
861.46	59.9
861.634	4.61
861.808	61.95
861.982	6.66
862.157	-22.02
862.331	-28.16
862.505	-5.63
862.679	-22.02
862.853	-58.88
863.027	61.95
863.201	135.68
863.375	-58.88
863.549	92.67
863.722	12.8
863.896	39.42
864.07	-17.92
864.244	-13.82
864.418	10.75
864.592	-11.78
864.766	14.85
864.939	55.81
865.113	35.33
865.287	23.04
865.461	-19.97
865.634	59.9
865.808	2.56
865.982	4.61
866.156	-83.45
866.329	-60.93
866.503	-5.63
866.676	18.94
866.85	10.75
867.024	29.18
867.197	33.28
867.371	2.56
867.544	-65.02
867.718	53.76
867.891	59.9
868.065	-44.54
868.238	-42.5
868.412	37.38
868.585	35.33
868.759	-30.21
868.932	-46.59
869.105	-13.82
869.279	-99.84
869.452	35.33
869.625	-22.02
869.799	25.09
869.972	-30.21
870.145	35.33
870.319	31.23
870.492	-34.3
870.665	37.38
870.838	76.29
871.011	-44.54
871.185	23.04
871.358	-19.97
871.531	-62.98
871.704	-38.4
871.877	35.33
872.05	-60.93
872.223	-38.4
872.396	72.19
872.569	-83.45
872.742	-87.55
872.915	4.61
873.088	8.7
873.261	-30.21
873.434	51.71
873.607	-1.54
873.78	45.57
873.953	-50.69
874.126	10.75
874.299	76.29
874.471	-44.54
874.644	-30.21
874.817	16.9
874.99	53.76
875.163	-112.13
875.335	55.81
875.508	-38.4
875.681	74.24
875.853	18.94
876.026	23.04
876.199	8.7
876.371	-95.74
876.544	2.56
876.717	-11.78
876.889	10.75
877.062	25.09
877.234	55.81
877.407	-11.78
877.579	27.14
877.752	37.38
877.924	68.09
878.097	27.14
878.269	-13.82
878.442	47.62
878.614	59.9
878.786	45.57
878.959	-56.83
879.131	27.14
879.303	-85.5
879.476	-19.97
879.648	-62.98
879.82	-36.35
879.993	41.47
880.165	20.99
880.337	-17.92
880.509	-34.3
880.681	-26.11
880.854	27.14
881.026	0.51
881.198	35.33
881.37	57.86
881.542	-54.78
881.714	4.61
881.886	-22.02
882.058	27.14
882.23	-5.63
882.402	-36.35
882.574	35.33
882.746	29.18
882.918	4.61
883.09	39.42
883.262	4.61
883.434	-22.02
883.606	-28.16
883.778	-22.02
883.95	59.9
884.122	-9.73
884.293	-30.21
884.465	53.76
884.637	18.94
884.809	2.56
884.98	51.71
885.152	64
885.324	-46.59
885.496	-22.02
885.667	6.66
885.839	-1.54
886.011	51.71
886.182	43.52
886.354	8.7
886.525	-3.58
886.697	-87.55
886.869	-42.5
887.04	-19.97
887.212	51.71
887.383	96.77
887.555	-38.4
887.726	20.99
887.897	-22.02
888.069	57.86
888.24	18.94
888.412	-22.02
888.583	-22.02
888.754	-48.64
888.926	-46.59
889.097	-13.82
889.268	-60.93
889.44	70.14
889.611	-38.4
889.782	-62.98
889.953	-36.35
890.125	80.38
890.296	-87.55
890.467	-3.58
890.638	2.56
890.809	2.56
890.98	-9.73
891.151	0.51
891.323	66.05
891.494	-22.02
891.665	-54.78
891.836	2.56
892.007	35.33
892.178	78.33
892.349	-5.63
892.52	-9.73
892.691	10.75
892.862	-87.55
893.032	-19.97
893.203	-28.16
893.374	18.94
893.545	35.33
893.716	-42.5
893.887	43.52
894.057	2.56
894.228	59.9
894.399	-46.59
894.57	51.71
894.74	-3.58
894.911	6.66
895.082	31.23
895.253	14.85
895.423	-22.02
895.594	-1.54
895.764	61.95
895.935	-58.88
896.106	-3.58
896.276	27.14
896.447	39.42
896.617	53.76
896.788	23.04
896.958	-28.16
897.129	-30.21
897.299	92.67
897.47	12.8
897.64	27.14
897.81	-36.35
897.981	31.23
898.151	35.33
898.322	35.33
898.492	33.28
898.662	-7.68
898.832	-44.54
899.003	-19.97
899.173	25.09
899.343	-22.02
899.513	-46.59
