Data from USB4F104151__305__14-35-02-119.txt Node

Date: Thu Mar 13 14:35:02 EDT 2025
User: louis
Spectrometer: USB4F10415
Trigger mode: 4
Integration Time (sec): 2.500000E-2
Scans to average: 1
Electric dark correction enabled: true
Nonlinearity correction enabled: false
Boxcar width: 0
XAxis mode: Wavelengths
Number of Pixels in Spectrum: 3648
>>>>>Begin Spectral Data<<<<<
178.204	-144.21
178.424	-144.21
178.644	-144.21
178.864	-144.21
179.084	-136.02
179.304	7.34
179.524	-13.14
179.744	-0.85
179.964	-9.05
180.184	-37.72
180.404	-76.63
180.624	-21.33
180.844	7.34
181.064	68.78
181.283	25.77
181.503	-0.85
181.723	50.35
181.943	1.19
182.163	119.98
182.383	19.63
182.602	52.39
182.822	15.53
183.042	87.21
183.262	1.19
183.482	19.63
183.701	40.11
183.921	15.53
184.141	19.63
184.361	62.63
184.58	44.2
184.8	101.55
185.02	56.49
185.239	66.73
185.459	15.53
185.679	70.83
185.898	31.91
186.118	36.01
186.338	19.63
186.557	-7
186.777	-21.33
186.997	44.2
187.216	9.39
187.436	46.25
187.655	122.02
187.875	29.87
188.095	79.02
188.314	36.01
188.534	56.49
188.753	-15.19
188.973	52.39
189.192	95.4
189.412	7.34
189.631	42.15
189.851	-4.95
190.07	111.78
190.29	-43.86
190.509	44.2
190.729	-15.19
190.948	99.5
191.168	126.12
191.387	64.68
191.607	134.31
191.826	89.26
192.045	58.54
192.265	36.01
192.484	46.25
192.704	33.96
192.923	15.53
193.142	144.55
193.362	46.25
193.581	111.78
193.8	7.34
194.02	93.35
194.239	-45.91
194.458	48.3
194.678	-2.9
194.897	-11.09
195.116	7.34
195.335	60.59
195.555	52.39
195.774	38.06
195.993	44.2
196.212	-4.95
196.432	-15.19
196.651	38.06
196.87	11.43
197.089	122.02
197.308	23.72
197.528	56.49
197.747	-21.33
197.966	5.29
198.185	140.46
198.404	60.59
198.623	31.91
198.842	68.78
199.062	23.72
199.281	72.87
199.5	31.91
199.719	138.41
199.938	68.78
200.157	68.78
200.376	54.44
200.595	142.5
200.814	-13.14
201.033	-9.05
201.252	46.25
201.471	13.48
201.69	81.07
201.909	21.67
202.128	68.78
202.347	101.55
202.566	95.4
202.785	36.01
203.004	1.19
203.223	136.36
203.442	52.39
203.661	3.24
203.879	21.67
204.098	171.18
204.317	33.96
204.536	111.78
204.755	7.34
204.974	48.3
205.193	40.11
205.411	113.83
205.63	9.39
205.849	38.06
206.068	1.19
206.287	36.01
206.505	19.63
206.724	115.88
206.943	5.29
207.162	-54.1
207.381	19.63
207.599	38.06
207.818	76.97
208.037	79.02
208.255	64.68
208.474	60.59
208.693	87.21
208.911	85.16
209.13	68.78
209.349	56.49
209.567	117.93
209.786	70.83
210.005	19.63
210.223	52.39
210.442	-86.87
210.661	40.11
210.879	46.25
211.098	27.82
211.316	19.63
211.535	70.83
211.753	-19.29
211.972	29.87
212.191	-19.29
212.409	103.59
212.628	-25.43
212.846	25.77
213.065	42.15
213.283	70.83
213.502	36.01
213.72	38.06
213.938	54.44
214.157	44.2
214.375	7.34
214.594	-0.85
214.812	48.3
215.031	-54.1
215.249	-29.52
215.467	68.78
215.686	46.25
215.904	15.53
216.122	54.44
216.341	50.35
216.559	38.06
216.778	60.59
216.996	21.67
217.214	-4.95
217.432	29.87
217.651	-41.81
217.869	-43.86
218.087	76.97
218.306	19.63
218.524	23.72
218.742	-41.81
218.96	54.44
219.179	19.63
219.397	-11.09
219.615	111.78
219.833	64.68
220.051	68.78
220.27	79.02
220.488	56.49
220.706	68.78
220.924	-4.95
221.142	25.77
221.36	31.91
221.578	38.06
221.796	11.43
222.015	19.63
222.233	15.53
222.451	76.97
222.669	52.39
222.887	68.78
223.105	19.63
223.323	38.06
223.541	9.39
223.759	70.83
223.977	9.39
224.195	21.67
224.413	79.02
224.631	48.3
224.849	48.3
225.067	134.31
225.285	44.2
225.503	76.97
225.721	52.39
225.939	46.25
226.157	25.77
226.375	87.21
226.592	60.59
226.81	46.25
227.028	130.22
227.246	60.59
227.464	27.82
227.682	68.78
227.9	74.92
228.117	-4.95
228.335	52.39
228.553	13.48
228.771	105.64
228.989	-41.81
229.206	19.63
229.424	9.39
229.642	-0.85
229.86	46.25
230.077	60.59
230.295	52.39
230.513	52.39
230.731	40.11
230.948	68.78
231.166	105.64
231.384	19.63
231.601	99.5
231.819	105.64
232.037	-45.91
232.254	-68.44
232.472	25.77
232.689	44.2
232.907	89.26
233.125	-78.68
233.342	3.24
233.56	5.29
233.777	-23.38
233.995	36.01
234.213	117.93
234.43	60.59
234.648	64.68
234.865	44.2
235.083	11.43
235.3	62.63
235.518	52.39
235.735	72.87
235.953	40.11
236.17	95.4
236.388	29.87
236.605	89.26
236.822	83.11
237.04	13.48
237.257	29.87
237.475	3.24
237.692	-4.95
237.909	23.72
238.127	15.53
238.344	60.59
238.562	13.48
238.779	27.82
238.996	-19.29
239.214	27.82
239.431	134.31
239.648	56.49
239.865	64.68
240.083	40.11
240.3	85.16
240.517	5.29
240.735	81.07
240.952	97.45
241.169	19.63
241.386	36.01
241.603	85.16
241.821	64.68
242.038	29.87
242.255	31.91
242.472	-39.76
242.689	171.18
242.907	38.06
243.124	11.43
243.341	44.2
243.558	60.59
243.775	5.29
243.992	-35.67
244.209	31.91
244.426	74.92
244.643	-13.14
244.86	44.2
245.078	19.63
245.295	81.07
245.512	68.78
245.729	-52.05
245.946	52.39
246.163	-13.14
246.38	23.72
246.597	48.3
246.814	50.35
247.031	64.68
247.248	126.12
247.464	23.72
247.681	36.01
247.898	36.01
248.115	-4.95
248.332	-11.09
248.549	58.54
248.766	72.87
248.983	60.59
249.2	23.72
249.417	97.45
249.633	-2.9
249.85	15.53
250.067	60.59
250.284	52.39
250.501	97.45
250.717	128.17
250.934	-17.24
251.151	-13.14
251.368	68.78
251.585	72.87
251.801	11.43
252.018	7.34
252.235	87.21
252.451	-103.25
252.668	-4.95
252.885	52.39
253.102	52.39
253.318	36.01
253.535	13.48
253.752	46.25
253.968	-13.14
254.185	-2.9
254.401	64.68
254.618	93.35
254.835	-50
255.051	46.25
255.268	7.34
255.484	13.48
255.701	62.63
255.917	29.87
256.134	27.82
256.351	36.01
256.567	11.43
256.784	52.39
257	-56.15
257.217	103.59
257.433	93.35
257.65	58.54
257.866	124.07
258.082	46.25
258.299	44.2
258.515	33.96
258.732	-27.48
258.948	81.07
259.165	72.87
259.381	117.93
259.597	40.11
259.814	58.54
260.03	40.11
260.246	52.39
260.463	52.39
260.679	70.83
260.895	72.87
261.112	95.4
261.328	-13.14
261.544	62.63
261.761	105.64
261.977	-2.9
262.193	-43.86
262.409	101.55
262.626	29.87
262.842	19.63
263.058	23.72
263.274	29.87
263.49	44.2
263.707	64.68
263.923	105.64
264.139	-35.67
264.355	-13.14
264.571	85.16
264.787	117.93
265.004	79.02
265.22	66.73
265.436	101.55
265.652	81.07
265.868	83.11
266.084	11.43
266.3	122.02
266.516	21.67
266.732	7.34
266.948	5.29
267.164	29.87
267.38	87.21
267.596	17.58
267.812	142.5
268.028	40.11
268.244	21.67
268.46	21.67
268.676	50.35
268.892	70.83
269.108	21.67
269.324	-2.9
269.54	85.16
269.756	64.68
269.972	9.39
270.188	15.53
270.403	-33.62
270.619	85.16
270.835	44.2
271.051	7.34
271.267	1.19
271.483	87.21
271.698	93.35
271.914	40.11
272.13	54.44
272.346	27.82
272.562	36.01
272.777	36.01
272.993	76.97
273.209	19.63
273.425	81.07
273.64	36.01
273.856	76.97
274.072	-27.48
274.287	50.35
274.503	27.82
274.719	27.82
274.934	15.53
275.15	-25.43
275.366	103.59
275.581	50.35
275.797	72.87
276.012	-4.95
276.228	-21.33
276.444	95.4
276.659	29.87
276.875	-19.29
277.09	27.82
277.306	31.91
277.521	93.35
277.737	46.25
277.952	105.64
278.168	-15.19
278.383	38.06
278.599	52.39
278.814	72.87
279.03	11.43
279.245	40.11
279.461	38.06
279.676	23.72
279.892	31.91
280.107	101.55
280.322	33.96
280.538	79.02
280.753	-2.9
280.969	70.83
281.184	-13.14
281.399	64.68
281.615	23.72
281.83	124.07
282.045	-35.67
282.26	19.63
282.476	103.59
282.691	87.21
282.906	132.26
283.122	103.59
283.337	-11.09
283.552	19.63
283.767	38.06
283.983	60.59
284.198	23.72
284.413	109.74
284.628	54.44
284.843	70.83
285.058	117.93
285.274	-0.85
285.489	-33.62
285.704	3.24
285.919	-68.44
286.134	76.97
286.349	105.64
286.564	-9.05
286.779	70.83
286.995	5.29
287.21	29.87
287.425	36.01
287.64	27.82
287.855	48.3
288.07	-43.86
288.285	81.07
288.5	54.44
288.715	109.74
288.93	38.06
289.145	109.74
289.36	95.4
289.575	21.67
289.79	97.45
290.004	-29.52
290.219	81.07
290.434	11.43
290.649	11.43
290.864	-62.29
291.079	85.16
291.294	76.97
291.509	60.59
291.724	54.44
291.938	70.83
292.153	13.48
292.368	76.97
292.583	66.73
292.798	60.59
293.012	101.55
293.227	7.34
293.442	-27.48
293.657	70.83
293.871	60.59
294.086	13.48
294.301	44.2
294.516	-2.9
294.73	3.24
294.945	-4.95
295.16	52.39
295.374	48.3
295.589	56.49
295.804	36.01
296.018	70.83
296.233	40.11
296.447	95.4
296.662	-4.95
296.877	54.44
297.091	44.2
297.306	76.97
297.52	27.82
297.735	109.74
297.949	25.77
298.164	36.01
298.378	1.19
298.593	58.54
298.807	7.34
299.022	46.25
299.236	52.39
299.451	-19.29
299.665	3.24
299.88	66.73
300.094	-25.43
300.309	19.63
300.523	64.68
300.737	11.43
300.952	-13.14
301.166	11.43
301.381	-19.29
301.595	15.53
301.809	66.73
302.024	54.44
302.238	-9.05
302.452	117.93
302.667	52.39
302.881	126.12
303.095	76.97
303.309	93.35
303.524	58.54
303.738	46.25
303.952	44.2
304.166	85.16
304.381	-62.29
304.595	36.01
304.809	3.24
305.023	7.34
305.237	85.16
305.452	72.87
305.666	50.35
305.88	54.44
306.094	40.11
306.308	29.87
306.522	68.78
306.736	101.55
306.95	101.55
307.164	19.63
307.379	72.87
307.593	68.78
307.807	19.63
308.021	74.92
308.235	13.48
308.449	21.67
308.663	56.49
308.877	70.83
309.091	9.39
309.305	109.74
309.519	60.59
309.733	27.82
309.947	1.19
310.161	54.44
310.374	56.49
310.588	66.73
310.802	-13.14
311.016	52.39
311.23	9.39
311.444	9.39
311.658	27.82
311.872	167.08
312.085	27.82
312.299	109.74
312.513	54.44
312.727	89.26
312.941	-0.85
313.154	56.49
313.368	27.82
313.582	48.3
313.796	136.36
314.009	19.63
314.223	40.11
314.437	11.43
314.651	97.45
314.864	81.07
315.078	54.44
315.292	-29.52
315.505	19.63
315.719	44.2
315.933	72.87
316.146	-4.95
316.36	3.24
316.573	89.26
316.787	11.43
317.001	97.45
317.214	23.72
317.428	46.25
317.641	64.68
317.855	72.87
318.068	3.24
318.282	13.48
318.495	117.93
318.709	54.44
318.922	64.68
319.136	101.55
319.349	-25.43
319.563	-13.14
319.776	130.22
319.99	27.82
320.203	56.49
320.417	-11.09
320.63	132.26
320.843	175.27
321.057	44.2
321.27	15.53
321.483	76.97
321.697	48.3
321.91	31.91
322.124	19.63
322.337	138.41
322.55	54.44
322.763	142.5
322.977	11.43
323.19	70.83
323.403	-25.43
323.617	-39.76
323.83	85.16
324.043	36.01
324.256	31.91
324.469	72.87
324.683	93.35
324.896	89.26
325.109	5.29
325.322	-29.52
325.535	68.78
325.748	44.2
325.962	68.78
326.175	134.31
326.388	76.97
326.601	44.2
326.814	7.34
327.027	48.3
327.24	134.31
327.453	-19.29
327.666	56.49
327.879	85.16
328.092	126.12
328.305	3.24
328.518	36.01
328.731	60.59
328.944	33.96
329.157	48.3
329.37	3.24
329.583	85.16
329.796	103.59
330.009	-45.91
330.222	19.63
330.435	36.01
330.648	36.01
330.861	109.74
331.073	-21.33
331.286	97.45
331.499	68.78
331.712	-35.67
331.925	111.78
332.138	27.82
332.35	109.74
332.563	52.39
332.776	31.91
332.989	31.91
333.202	27.82
333.414	-29.52
333.627	36.01
333.84	48.3
334.053	103.59
334.265	85.16
334.478	5.29
334.691	-41.81
334.903	-7
335.116	-11.09
335.329	54.44
335.541	7.34
335.754	56.49
335.966	79.02
336.179	21.67
336.392	46.25
336.604	25.77
336.817	60.59
337.029	95.4
337.242	-35.67
337.454	109.74
337.667	-9.05
337.88	64.68
338.092	46.25
338.305	101.55
338.517	85.16
338.729	44.2
338.942	95.4
339.154	66.73
339.367	27.82
339.579	132.26
339.792	54.44
340.004	101.55
340.217	89.26
340.429	122.02
340.641	11.43
340.854	-62.29
341.066	46.25
341.278	56.49
341.491	101.55
341.703	-4.95
341.915	52.39
342.128	68.78
342.34	101.55
342.552	44.2
342.764	-7
342.977	17.58
343.189	60.59
343.401	79.02
343.613	21.67
343.826	87.21
344.038	76.97
344.25	27.82
344.462	-17.24
344.674	74.92
344.886	93.35
345.099	175.27
345.311	56.49
345.523	29.87
345.735	7.34
345.947	19.63
346.159	76.97
346.371	117.93
346.583	89.26
346.795	160.94
347.007	60.59
347.219	81.07
347.431	-23.38
347.643	156.84
347.855	36.01
348.067	111.78
348.279	25.77
348.491	58.54
348.703	117.93
348.915	56.49
349.127	101.55
349.339	56.49
349.551	76.97
349.763	-13.14
349.975	68.78
350.187	27.82
350.399	60.59
350.61	101.55
350.822	124.07
351.034	107.69
351.246	19.63
351.458	27.82
351.669	52.39
351.881	68.78
352.093	101.55
352.305	117.93
352.517	109.74
352.728	115.88
352.94	64.68
353.152	52.39
353.363	44.2
353.575	56.49
353.787	146.6
353.999	-37.72
354.21	62.63
354.422	60.59
354.633	93.35
354.845	105.64
355.057	93.35
355.268	64.68
355.48	19.63
355.692	44.2
355.903	93.35
356.115	117.93
356.326	19.63
356.538	40.11
356.749	79.02
356.961	109.74
357.172	117.93
357.384	105.64
357.595	76.97
357.807	62.63
358.018	27.82
358.23	52.39
358.441	44.2
358.653	101.55
358.864	44.2
359.075	23.72
359.287	19.63
359.498	79.02
359.709	93.35
359.921	15.53
360.132	111.78
360.344	15.53
360.555	50.35
360.766	89.26
360.977	58.54
361.189	119.98
361.4	93.35
361.611	95.4
361.823	140.46
362.034	13.48
362.245	64.68
362.456	58.54
362.667	60.59
362.879	48.3
363.09	113.83
363.301	15.53
363.512	50.35
363.723	91.31
363.935	38.06
364.146	150.7
364.357	11.43
364.568	48.3
364.779	81.07
364.99	162.98
365.201	81.07
365.412	150.7
365.623	-43.86
365.834	79.02
366.045	44.2
366.256	54.44
366.467	56.49
366.678	68.78
366.889	1.19
367.1	74.92
367.311	107.69
367.522	11.43
367.733	85.16
367.944	87.21
368.155	113.83
368.366	33.96
368.577	93.35
368.788	48.3
368.999	31.91
369.209	29.87
369.42	76.97
369.631	150.7
369.842	50.35
370.053	74.92
370.264	79.02
370.474	42.15
370.685	54.44
370.896	60.59
371.107	27.82
371.317	87.21
371.528	72.87
371.739	126.12
371.95	91.31
372.16	68.78
372.371	-4.95
372.582	87.21
372.792	95.4
373.003	74.92
373.214	19.63
373.424	97.45
373.635	-15.19
373.846	76.97
374.056	95.4
374.267	46.25
374.477	62.63
374.688	-4.95
374.898	64.68
375.109	126.12
375.319	27.82
375.53	95.4
375.74	79.02
375.951	91.31
376.161	11.43
376.372	85.16
376.582	85.16
376.793	74.92
377.003	54.44
377.214	36.01
377.424	66.73
377.635	54.44
377.845	50.35
378.055	111.78
378.266	-29.52
378.476	72.87
378.686	148.65
378.897	146.6
379.107	169.13
379.317	85.16
379.528	79.02
379.738	89.26
379.948	76.97
380.158	48.3
380.369	60.59
380.579	11.43
380.789	101.55
380.999	48.3
381.21	97.45
381.42	140.46
381.63	83.11
381.84	36.01
382.05	105.64
382.261	62.63
382.471	111.78
382.681	-2.9
382.891	91.31
383.101	31.91
383.311	19.63
383.521	160.94
383.731	87.21
383.941	113.83
384.151	-19.29
384.361	60.59
384.571	70.83
384.781	36.01
384.991	107.69
385.201	117.93
385.411	93.35
385.621	56.49
385.831	134.31
386.041	93.35
386.251	64.68
386.461	44.2
386.671	23.72
386.881	111.78
387.091	52.39
387.301	11.43
387.511	122.02
387.72	46.25
387.93	50.35
388.14	64.68
388.35	76.97
388.56	87.21
388.769	138.41
388.979	36.01
389.189	33.96
389.399	130.22
389.609	87.21
389.818	68.78
390.028	-13.14
390.238	66.73
390.447	46.25
390.657	130.22
390.867	21.67
391.076	93.35
391.286	64.68
391.496	48.3
391.705	66.73
391.915	109.74
392.125	52.39
392.334	89.26
392.544	23.72
392.753	97.45
392.963	60.59
393.172	150.7
393.382	54.44
393.591	62.63
393.801	85.16
394.01	158.89
394.22	109.74
394.429	146.6
394.639	76.97
394.848	111.78
395.058	111.78
395.267	128.17
395.477	52.39
395.686	220.33
395.895	193.7
396.105	183.46
396.314	95.4
396.524	119.98
396.733	68.78
396.942	150.7
397.152	54.44
397.361	185.51
397.57	128.17
397.78	103.59
397.989	113.83
398.198	119.98
398.407	72.87
398.617	130.22
398.826	107.69
399.035	142.5
399.244	117.93
399.453	36.01
399.663	126.12
399.872	169.13
400.081	89.26
400.29	142.5
400.499	62.63
400.708	187.56
400.917	103.59
401.127	70.83
401.336	122.02
401.545	224.42
401.754	142.5
401.963	171.18
402.172	175.27
402.381	103.59
402.59	203.94
402.799	201.9
403.008	216.23
403.217	128.17
403.426	183.46
403.635	167.08
403.844	197.8
404.053	136.36
404.262	111.78
404.471	167.08
404.68	167.08
404.888	150.7
405.097	189.61
405.306	191.66
405.515	175.27
405.724	224.42
405.933	226.47
406.142	224.42
406.35	281.77
406.559	265.38
406.768	261.29
406.977	259.24
407.185	279.72
407.394	208.04
407.603	208.04
407.812	220.33
408.02	322.73
408.229	232.62
408.438	292.01
408.646	236.71
408.855	269.48
409.064	257.19
409.272	314.53
409.481	357.54
409.69	298.15
409.898	351.4
410.107	357.54
410.315	365.73
410.524	390.31
410.733	464.04
410.941	451.75
411.15	470.18
411.358	461.99
411.567	588.96
411.775	519.33
411.984	486.56
412.192	625.83
412.401	593.06
412.609	679.07
412.818	586.91
413.026	625.83
413.234	715.94
413.443	658.59
413.651	644.26
413.86	646.3
414.068	793.76
414.276	781.47
414.485	824.48
414.693	838.81
414.901	885.92
415.11	898.2
415.318	980.12
415.526	1037.47
415.734	1076.38
415.943	984.22
416.151	1070.23
416.359	1158.3
416.567	1072.28
416.776	1164.44
416.984	1070.23
417.192	1209.5
417.4	1281.18
417.608	1221.78
417.817	1395.86
418.025	1256.6
418.233	1496.21
418.441	1389.72
418.649	1602.71
418.857	1696.91
419.065	1698.96
419.273	1637.52
419.481	1690.77
419.689	1834.13
419.897	1881.23
420.105	1916.05
420.313	2006.16
420.521	1985.68
420.729	2104.46
420.937	2100.36
421.145	2286.73
421.353	2307.21
421.561	2436.23
421.769	2512
421.977	2569.35
422.185	2587.78
422.393	2694.27
422.601	2856.06
422.809	2804.86
423.017	2843.78
423.224	3001.47
423.432	3138.68
423.64	3153.02
423.848	3417.21
424.056	3374.2
424.263	3697.78
424.471	3404.92
424.679	3624.05
424.887	3878
425.094	3906.67
425.302	3914.86
425.51	4095.08
425.718	4181.1
425.925	4230.25
426.133	4422.76
426.341	4721.76
426.548	4848.74
426.756	4758.63
426.964	5004.38
427.171	5219.42
427.379	5321.82
427.586	5532.76
427.794	5428.31
428.001	5827.67
428.209	6009.93
428.417	5874.77
428.624	6444.1
428.832	6296.65
429.039	6378.57
429.247	6188.11
429.454	6849.6
429.662	7416.89
429.869	6949.95
430.076	7402.55
430.284	7246.91
430.491	7396.41
430.699	7943.22
430.906	8072.24
431.114	8068.14
431.321	8289.32
431.528	8469.55
431.736	9020.45
431.943	9294.88
432.15	9217.05
432.358	9290.78
432.565	9720.85
432.772	9739.29
432.979	10087.44
433.187	10525.71
433.394	10554.38
433.601	11113.47
433.808	11256.83
434.016	11115.52
434.223	11383.8
434.43	12346.35
434.637	12018.68
434.844	12760.04
435.052	12968.93
435.259	12827.62
435.466	13167.59
435.673	12671.98
435.88	13861.85
436.087	14355.41
436.294	14214.1
436.501	13931.48
436.708	14506.96
436.915	14783.43
437.122	15715.26
437.329	15571.9
437.537	15975.35
437.743	16585.65
437.95	15858.62
438.157	16989.1
438.364	17607.58
438.571	17470.37
438.778	17566.62
438.985	18936.71
439.192	18668.43
439.399	18969.48
439.606	18553.74
439.813	19518.34
440.02	20464.5
440.227	20331.38
440.433	20077.43
440.64	20867.95
440.847	20726.64
441.054	21392.23
441.261	22627.15
441.467	22551.38
441.674	22688.59
441.881	23718.72
442.088	23487.3
442.294	23446.34
442.501	23907.13
442.708	24384.31
442.914	25565.99
443.121	26344.22
443.328	25293.61
443.534	27278.09
443.741	26805.01
443.948	26241.82
444.154	28328.7
444.361	28238.59
444.568	28070.65
444.774	28101.37
444.981	28484.34
445.187	29393.64
445.394	30503.64
445.6	30089.95
445.807	33424.04
446.013	32015.04
446.22	31881.92
446.426	33626.79
446.633	33807.01
446.839	34898.58
447.046	33364.65
447.252	35230.35
447.459	35486.35
447.665	35357.33
447.871	36930.17
448.078	38416.99
448.284	36264.58
448.491	37569.13
448.697	39144.02
448.903	39373.39
449.11	39412.31
449.316	39148.12
449.522	39903.82
449.728	40780.35
449.935	41288.24
450.141	41343.54
450.347	41906.73
450.553	40454.72
450.76	40993.34
450.966	42981.91
451.172	42148.39
451.378	43606.55
451.584	42213.93
451.791	43481.62
451.997	43217.43
452.203	44194.31
452.409	44053
452.615	44005.9
452.821	42132.01
453.027	41851.44
453.233	43559.44
453.44	42011.18
453.646	42125.86
453.852	42422.82
454.058	43645.46
454.264	41968.17
454.47	43174.42
454.676	41919.02
454.882	43194.9
455.088	39572.05
455.294	40229.44
455.5	40421.95
455.705	41175.61
455.911	39582.29
456.117	39049.81
456.323	38376.03
456.529	36424.32
456.735	38158.95
456.941	36862.58
457.147	36258.43
457.352	35228.31
457.558	34775.7
457.764	34859.67
457.97	34228.9
458.176	33456.81
458.381	33450.67
458.587	31922.88
458.793	32006.85
458.999	30145.25
459.204	32611
459.41	31548.11
459.616	29383.4
459.821	29397.74
460.027	29364.97
460.233	28809.97
460.438	27376.39
460.644	27482.89
460.85	26276.63
461.055	26118.94
461.261	25738.02
461.466	23831.36
461.672	23008.08
461.878	24621.87
462.083	23251.78
462.289	22481.75
462.494	22248.28
462.7	21637.98
462.905	20919.15
463.111	21373.8
463.316	21666.66
463.522	21087.08
463.727	21173.1
463.932	21283.69
464.138	20884.33
464.343	20915.05
464.549	20538.23
464.754	21130.09
464.959	20708.21
465.165	20634.48
465.37	19467.14
465.575	19207.05
465.781	19886.97
465.986	19772.28
466.191	19225.48
466.397	18848.65
466.602	18181.01
466.807	18764.68
467.012	18791.31
467.218	18643.85
467.423	18207.64
467.628	18373.52
467.833	19045.26
468.038	18398.1
468.244	17709.98
468.449	18264.98
468.654	17879.96
468.859	17554.33
469.064	17640.35
469.269	17038.25
469.474	17079.21
469.679	17382.31
469.885	17062.82
470.09	17054.63
470.295	17249.19
470.5	16577.45
470.705	16806.83
470.91	16407.47
471.115	15983.54
471.32	16415.66
471.525	16581.55
471.73	15975.35
471.935	16047.03
472.139	15463.36
472.344	15485.89
472.549	15035.33
472.754	15047.62
472.959	15018.95
473.164	14519.25
473.369	14726.09
473.574	15018.95
473.778	14744.52
473.983	14564.3
474.188	14631.88
474.393	13855.7
474.598	14105.56
474.802	13814.74
475.007	13661.15
475.212	13939.67
475.417	13374.43
475.621	13165.54
475.826	13122.53
476.031	13112.29
476.235	12731.37
476.44	12657.64
476.645	12891.11
476.849	12620.78
477.054	12467.18
477.259	12334.06
477.463	12588.01
477.668	12305.39
477.872	12248.05
478.077	11998.2
478.282	11924.47
478.486	11774.97
478.691	11658.23
478.895	11426.81
479.1	11545.59
479.304	11555.83
479.509	11203.58
479.713	11320.32
479.918	11136
480.122	10869.76
480.326	11265.02
480.531	11047.94
480.735	10877.96
480.94	10882.05
481.144	11273.21
481.348	10548.23
481.553	10720.26
481.757	10658.82
481.961	10607.62
482.166	10896.39
482.37	10779.65
482.574	10480.65
482.778	10636.3
482.983	10615.82
483.187	10734.6
483.391	10613.77
483.595	10640.39
483.8	10269.71
484.004	10511.37
484.208	10824.71
484.412	10669.06
484.616	10523.66
484.821	10740.74
485.025	10343.44
485.229	10863.62
485.433	10343.44
485.637	10697.74
485.841	10365.96
486.045	10537.99
486.249	10669.06
486.453	10677.26
486.657	10472.46
486.861	10462.22
487.065	10472.46
487.269	10599.43
487.473	10202.13
487.677	10519.56
487.881	10734.6
488.085	10540.04
488.289	10535.95
488.493	10433.55
488.697	10447.88
488.901	10628.1
489.105	10411.02
489.309	10503.18
489.512	10546.19
489.716	10599.43
489.92	10720.26
490.124	10578.95
490.328	10587.15
490.531	10695.69
490.735	10359.82
490.939	10447.88
491.143	10581
491.346	10564.62
491.55	10769.41
491.754	10570.76
491.958	10986.5
492.161	11101.19
492.365	10855.43
492.569	10687.5
492.772	10933.25
492.976	10974.21
493.18	10951.68
493.383	11072.51
493.587	11060.23
493.79	11381.76
493.994	11062.27
494.197	11316.22
494.401	11488.25
494.605	11293.69
494.808	11521.02
495.012	11594.75
495.215	11604.99
495.419	11660.28
495.622	11635.71
495.825	11949.04
496.029	11826.17
496.232	11987.96
496.436	11906.04
496.639	12403.69
496.843	12192.75
497.046	12358.64
497.249	12463.08
497.453	12667.88
497.656	12792.81
497.859	12876.77
498.063	12835.81
498.266	13030.37
498.469	12991.46
498.673	13276.13
498.876	13194.21
499.079	13315.04
499.282	13364.19
499.485	13896.66
499.689	13792.22
499.892	13900.76
500.095	14130.13
500.298	14539.72
500.501	14048.21
500.705	14640.08
500.908	14894.02
501.111	14773.19
501.314	15137.73
501.517	15270.85
501.72	15209.41
501.923	15078.34
502.126	15408.06
502.329	15698.88
502.532	16071.61
502.735	16028.6
502.938	16219.06
503.141	16167.86
503.344	16423.86
503.547	16362.42
503.75	16839.59
503.953	17120.17
504.156	17333.15
504.359	17226.66
504.562	17560.48
504.765	17716.12
504.968	17965.98
505.17	18123.67
505.373	17894.3
505.576	18439.06
505.779	18353.04
505.982	18783.12
506.185	18938.76
506.387	19196.81
506.59	19198.85
506.793	19424.13
506.996	19512.19
507.198	20161.4
507.401	19882.88
507.604	20376.44
507.807	20630.38
508.009	20691.82
508.212	21072.75
508.415	21150.57
508.617	21035.88
508.82	21314.41
509.022	21338.98
509.225	21381.99
509.428	22016.86
509.63	22328.15
509.833	22227.8
510.035	22655.82
510.238	22874.96
510.44	22967.12
510.643	23327.56
510.845	23849.79
511.048	23219.02
511.25	23847.74
511.453	23753.54
511.655	24947.5
511.858	24417.08
512.06	24757.04
512.262	25209.64
512.465	24814.38
512.667	25324.33
512.87	25705.25
513.072	25684.77
513.274	25867.04
513.477	26288.92
513.679	26452.76
513.881	26923.79
514.084	26929.94
514.286	27030.29
514.488	27251.47
514.69	28166.91
514.893	28115.71
515.095	28326.65
515.297	28617.46
515.499	28381.95
515.701	28558.07
515.904	29125.36
516.106	29276.91
516.308	29625.06
516.51	30231.26
516.712	30040.8
516.914	30280.41
517.116	30653.14
517.318	30552.79
517.52	30724.82
517.722	31021.78
517.925	31474.38
518.127	31382.22
518.329	32019.14
518.531	31816.39
518.733	32250.56
518.935	32537.27
519.136	32402.11
519.338	33061.55
519.54	33102.51
519.742	33346.22
519.944	33694.38
520.146	33856.17
520.348	34196.13
520.55	34259.62
520.752	34280.1
520.954	34871.96
521.155	34552.48
521.357	34951.83
521.559	35007.12
521.761	35576.46
521.963	35302.03
522.164	35705.48
522.366	35816.07
522.568	35992.2
522.77	36020.87
522.971	36721.27
523.173	36584.06
523.375	36690.55
523.576	36637.31
523.778	36457.09
523.98	37290.61
524.181	37196.4
524.383	37251.7
524.584	37741.16
524.786	37399.15
524.988	37577.33
525.189	37644.91
525.391	38093.41
525.592	38281.83
525.794	37927.53
525.995	38236.77
526.197	37945.96
526.398	37859.94
526.6	38369.89
526.801	38632.03
527.003	38705.76
527.204	38584.93
527.406	38664.8
527.607	38503.01
527.808	38967.9
528.01	38441.57
528.211	38779.48
528.412	39561.81
528.614	38931.03
528.815	38842.97
529.016	39340.63
529.218	38814.3
529.419	38625.89
529.62	38732.38
529.822	38834.78
530.023	38918.74
530.224	39084.63
530.425	38867.55
530.626	38726.24
530.828	38625.89
531.029	39582.29
531.23	38722.14
531.431	38746.72
531.632	38664.8
531.833	39000.66
532.035	38969.94
532.236	38664.8
532.437	39121.49
532.638	38541.92
532.839	39039.57
533.04	39217.75
533.241	38386.27
533.442	38761.05
533.643	38738.52
533.844	38460
534.045	38716
534.246	37958.25
534.447	38640.22
534.648	38175.33
534.849	38793.82
535.05	37814.89
535.251	37978.73
535.451	38240.87
535.652	38111.85
535.853	37872.23
536.054	38337.12
536.255	38404.7
536.456	37868.14
536.657	38425.18
536.857	37632.62
537.058	37513.84
537.259	38103.65
537.46	37898.86
537.66	37591.66
537.861	37884.52
538.062	37739.11
538.263	37503.6
538.463	37491.31
538.664	37708.4
538.865	37747.31
539.065	37751.4
539.266	37479.02
539.466	37421.68
539.667	36817.53
539.868	37618.28
540.068	37110.39
540.269	36774.52
540.469	37231.22
540.67	36858.49
540.87	36795
541.071	37034.61
541.271	37386.86
541.472	37243.51
541.672	36819.58
541.873	36868.73
542.073	36479.61
542.274	36995.7
542.474	36944.5
542.675	36846.2
542.875	37198.45
543.075	36967.03
543.276	36547.2
543.476	36962.93
543.676	36690.55
543.877	36940.41
544.077	36571.77
544.277	36799.1
544.478	36758.14
544.678	37196.4
544.878	36696.7
545.078	36803.19
545.279	36500.09
545.479	36907.64
545.679	36547.2
545.879	36467.33
546.079	36833.91
546.28	36641.4
546.48	35918.47
546.68	36831.86
546.88	36846.2
547.08	36795
547.28	36657.79
547.48	36584.06
547.68	36481.66
547.88	36229.76
548.081	36995.7
548.281	36373.12
548.481	36416.13
548.681	36749.95
548.881	36604.54
549.081	36809.34
549.28	36647.55
549.48	36551.29
549.68	36508.29
549.88	36960.89
550.08	36399.74
550.28	36563.58
550.48	36252.29
550.68	36852.34
550.88	35969.67
551.08	36381.31
551.279	36795
551.479	36057.73
551.679	36762.23
551.879	36530.81
552.079	36917.88
552.278	36588.16
552.478	36653.69
552.678	36725.37
552.878	36985.46
553.077	36512.38
553.277	36409.98
553.477	37458.54
553.676	36686.46
553.876	37046.9
554.076	36840.06
554.275	36967.03
554.475	36598.4
554.674	36948.6
554.874	37096.05
555.074	37081.72
555.273	36944.5
555.473	37229.17
555.672	36979.32
555.872	36893.3
556.071	37286.51
556.271	37450.35
556.47	36835.96
556.67	36391.55
556.869	37157.49
557.068	37141.11
557.268	36964.98
557.467	37073.52
557.667	37116.53
557.866	36741.75
558.065	37198.45
558.265	37153.4
558.464	37284.47
558.663	37720.68
558.863	36950.65
559.062	37554.8
559.261	37137.01
559.461	37562.99
559.66	36606.59
559.859	37225.07
560.058	37061.24
560.258	37030.52
560.457	36727.42
560.656	37644.91
560.855	37003.89
561.054	37335.66
561.253	36543.1
561.453	36868.73
561.652	37124.72
561.851	37225.07
562.05	37139.06
562.249	36618.88
562.448	37204.59
562.647	37010.04
562.846	36899.45
563.045	36627.07
563.244	36620.92
563.443	37069.43
563.642	36385.41
563.841	36749.95
564.04	36749.95
564.239	36928.12
564.438	36590.2
564.637	36895.35
564.836	36768.38
565.035	36471.42
565.234	36803.19
565.432	36588.16
565.631	36080.26
565.83	36479.61
566.029	36389.5
566.228	36467.33
566.427	36307.58
566.625	36031.11
566.824	35650.19
567.023	36297.34
567.222	35558.03
567.42	36547.2
567.619	36174.47
567.818	35934.85
568.016	35691.15
568.215	36244.1
568.414	35809.93
568.612	35732.11
568.811	35420.81
569.01	35609.23
569.208	35316.37
569.407	35877.51
569.605	35326.61
569.804	35334.8
570.002	35312.27
570.201	35209.87
570.4	34636.44
570.598	34968.21
570.797	34581.15
570.995	35136.15
571.193	34755.22
571.392	34931.35
571.59	34218.66
571.789	34699.93
571.987	34411.17
572.186	34472.6
572.384	34429.6
572.582	34458.27
572.781	34685.59
572.979	33540.78
573.177	34323.1
573.376	34394.78
573.574	33716.9
573.772	33737.38
573.971	33835.69
574.169	33479.34
574.367	33301.17
574.565	33624.75
574.763	33385.13
574.962	33335.98
575.16	33000.12
575.358	33135.28
575.556	32633.53
575.754	33407.66
575.952	33000.12
576.151	32731.83
576.349	32635.58
576.547	32469.69
576.745	32608.95
576.943	32422.59
577.141	32389.82
577.339	32221.89
577.537	31984.32
577.735	32195.26
577.933	32178.88
578.131	31804.1
578.329	31556.3
578.527	31668.94
578.725	31660.74
578.923	31474.38
579.121	31247.05
579.319	31320.78
579.516	31259.34
579.714	31433.42
579.912	30989.01
580.11	30954.19
580.308	31355.6
580.506	31054.54
580.704	30538.46
580.901	31326.92
581.099	30802.64
581.297	30710.49
581.495	30274.27
581.692	30980.82
581.89	30069.47
582.088	30581.46
582.285	30321.37
582.483	30341.85
582.681	30272.22
582.878	30149.34
583.076	29919.97
583.274	29782.76
583.471	29403.88
583.669	29739.75
583.866	29620.97
584.064	29639.4
584.262	28904.18
584.459	29850.34
584.657	29199.09
584.854	29477.61
585.052	29041.39
585.249	29450.99
585.447	29149.93
585.644	28832.5
585.841	29203.18
586.039	29332.2
586.236	28877.55
586.434	28838.64
586.631	28609.27
586.828	28672.76
587.026	28648.18
587.223	28730.1
587.42	28318.46
587.618	28340.99
587.815	27736.84
588.012	28326.65
588.21	28084.99
588.407	28259.07
588.604	28111.61
588.801	27800.32
588.999	28007.17
589.196	27783.94
589.393	27689.73
589.59	27626.25
589.787	27788.03
589.984	27511.56
590.182	27353.87
590.379	27499.27
590.576	26995.47
590.773	27364.11
590.97	27261.71
591.167	27214.6
591.364	27218.7
591.561	27261.71
591.758	27044.62
591.955	27124.49
592.152	27308.81
592.349	27022.09
592.546	26995.47
592.743	26999.57
592.94	26678.04
593.137	26764.05
593.334	26794.77
593.531	26585.88
593.727	26950.42
593.924	26716.95
594.121	26317.59
594.318	26632.98
594.515	26268.44
594.712	26688.28
594.908	26331.93
595.105	26467.09
595.302	26389.27
595.499	26288.92
595.696	26403.61
595.892	26237.72
596.089	26379.03
596.286	26409.75
596.482	26239.77
596.679	26209.05
596.876	26460.95
597.072	26157.85
597.269	26370.84
597.466	26002.21
597.662	26073.88
597.859	26120.99
598.055	26448.66
598.252	25764.64
598.448	26190.62
598.645	25815.84
598.841	25479.97
599.038	25846.56
599.234	26114.84
599.431	25738.02
599.627	25807.65
599.824	25948.96
600.02	25893.66
600.217	26045.21
600.413	25869.09
600.609	25903.9
600.806	25768.74
601.002	25672.48
601.198	25987.87
601.395	25699.11
601.591	25735.97
601.787	26012.45
601.984	25690.91
602.18	26170.14
602.376	25875.23
602.572	25871.14
602.769	25705.25
602.965	25598.76
603.161	25652
603.357	25617.19
603.553	25506.6
603.75	25697.06
603.946	26077.98
604.142	26008.35
604.338	26045.21
604.534	26127.13
604.73	25760.55
604.926	25807.65
605.122	26002.21
605.318	25932.57
605.514	26198.81
605.71	25768.74
605.906	26198.81
606.102	25957.15
606.298	26282.78
606.494	26049.31
606.69	26094.36
606.886	25963.29
607.082	26039.07
607.278	26395.42
607.474	25778.98
607.67	26596.12
607.866	25721.63
608.062	26274.59
608.257	25942.81
608.453	26110.75
608.649	26288.92
608.845	25926.43
609.041	26454.81
609.236	26428.18
609.432	26350.36
609.628	26469.14
609.824	26602.26
610.019	26436.38
610.215	26534.68
610.411	26456.85
610.606	26569.49
610.802	26602.26
610.998	26516.25
611.193	26587.92
611.389	26473.24
611.584	26540.82
611.78	26145.56
611.976	26452.76
612.171	26805.01
612.367	26569.49
612.562	26753.81
612.758	26632.98
612.953	26477.33
613.149	27032.33
613.344	26618.64
613.539	26866.45
613.735	26526.49
613.93	26479.38
614.126	26823.44
614.321	27507.46
614.517	26630.93
614.712	26622.74
614.907	26725.14
615.103	26532.63
615.298	26831.63
615.493	27022.09
615.688	26399.51
615.884	27128.59
616.079	26444.57
616.274	26936.08
616.47	26671.89
616.665	26737.43
616.86	26581.78
617.055	26530.58
617.25	26968.85
617.445	26673.94
617.641	26194.71
617.836	26487.57
618.031	26250.01
618.226	26575.64
618.421	26401.56
618.616	26567.45
618.811	26004.25
619.006	26671.89
619.201	26123.04
619.396	26256.15
619.591	25752.35
619.786	26147.61
619.981	25862.94
620.176	25998.11
620.371	25490.21
620.566	25873.18
620.761	25948.96
620.956	25793.31
621.151	25252.65
621.346	25596.71
621.541	25201.45
621.735	25482.02
621.93	24984.37
622.125	25193.26
622.32	24904.49
622.515	25144.11
622.709	24570.68
622.904	24707.89
623.099	24542
623.294	24570.68
623.488	24195.9
623.683	24357.69
623.878	24118.07
624.072	23872.32
624.267	23960.38
624.462	23796.54
624.656	23626.56
624.851	23896.89
625.046	23489.35
625.24	23313.22
625.435	23264.07
625.629	23538.5
625.824	23089.99
626.018	23110.47
626.213	22655.82
626.407	23020.36
626.602	22588.24
626.796	22584.15
626.991	22434.64
627.185	22403.92
627.38	22289.24
627.574	22059.87
627.768	21824.35
627.963	21836.64
628.157	21721.95
628.352	22029.15
628.546	21447.52
628.74	21844.83
628.935	21371.75
629.129	21547.87
629.323	21216.1
629.517	21324.65
629.712	21138.28
629.906	20876.14
630.1	20874.09
630.294	20747.12
630.489	20581.23
630.683	20876.14
630.877	20251.51
631.071	20284.28
631.265	20556.66
631.459	20126.58
631.653	20255.61
631.848	20171.64
632.042	19772.28
632.236	19983.23
632.43	19557.25
632.624	19645.31
632.818	19553.15
633.012	19383.17
633.206	19311.49
633.4	19467.14
633.594	18908.04
633.788	19123.08
633.982	18987.91
634.176	18813.84
634.369	18619.28
634.563	18897.8
634.757	18617.23
634.951	18613.13
635.145	18410.39
635.339	18482.06
635.533	18455.44
635.726	18066.33
635.92	17939.35
636.114	17867.67
636.308	17947.54
636.501	17832.86
636.695	17666.97
636.889	17609.63
637.083	17390.5
637.276	17408.93
637.47	17441.7
637.664	16948.14
637.857	17091.49
638.051	17025.96
638.244	16927.66
638.438	16700.33
638.632	16825.26
638.825	16444.34
639.019	16354.23
639.212	16417.71
639.406	16155.57
639.599	16204.72
639.793	16171.96
639.986	15954.87
640.18	15928.25
640.373	15909.82
640.567	15829.95
640.76	15774.65
640.954	15614.91
641.147	15518.65
641.34	15412.16
641.534	15424.45
641.727	15475.65
641.92	15211.46
642.114	15047.62
642.307	15129.54
642.5	15072.2
642.694	14504.91
642.887	14316.5
643.08	14588.88
643.273	14732.23
643.467	14363.6
643.66	14281.68
643.853	14302.16
644.046	14040.02
644.239	14298.06
644.432	14060.5
644.626	13913.05
644.819	13714.39
645.012	13982.68
645.205	13691.87
645.398	13548.51
645.591	13722.59
645.784	13493.21
645.977	13173.73
646.17	13360.09
646.363	13339.62
646.556	13372.38
646.749	13151.2
646.942	13095.91
647.135	12858.34
647.328	12778.47
647.521	12987.36
647.714	12602.35
647.907	12639.21
648.099	12719.08
648.292	12366.83
648.485	12413.93
648.678	12243.95
648.871	12233.71
649.064	12071.92
649.256	12422.13
649.449	12137.46
649.642	11971.57
649.835	11957.24
650.027	11947
650.22	11760.63
650.413	11711.48
650.605	11756.54
650.798	11703.29
650.991	11449.34
651.183	11287.55
651.376	11498.49
651.568	11447.29
651.761	11201.54
651.954	11107.33
652.146	11250.69
652.339	11142.14
652.531	10943.49
652.724	10953.73
652.916	10857.48
653.109	10882.05
653.301	10759.17
653.494	10867.72
653.686	10732.55
653.879	10816.52
654.071	10550.28
654.263	10431.5
654.456	10527.75
654.648	10425.36
654.84	10382.35
655.033	10236.94
655.225	10284.05
655.417	10136.59
655.61	10146.83
655.802	10046.48
655.994	9913.36
656.186	9999.38
656.379	9745.43
656.571	9978.9
656.763	9882.64
656.955	9681.94
657.148	9825.3
657.34	9714.71
657.532	9694.23
657.724	9511.96
657.916	9649.18
658.108	9407.52
658.3	9395.23
658.492	9514.01
658.684	9208.86
658.876	9106.46
659.068	9079.84
659.26	8995.87
659.452	9165.85
659.644	8928.29
659.836	9169.95
660.028	8946.72
660.22	8866.85
660.412	8727.59
660.604	8713.25
660.796	8739.88
660.988	8700.97
661.18	8604.71
661.372	8662.05
661.563	8635.43
661.755	8422.44
661.947	8299.56
662.139	8483.88
662.331	8186.93
662.522	7992.37
662.714	8188.97
662.906	8191.02
663.097	8162.35
663.289	8191.02
663.481	8049.71
663.673	7953.46
663.864	7943.22
664.056	7906.35
664.247	7945.27
664.439	7699.51
664.631	7771.19
664.822	7633.97
665.014	7810.1
665.205	7711.8
665.397	7519.29
665.588	7457.85
665.78	7414.84
665.971	7599.16
666.163	7603.25
666.354	7490.62
666.546	7466.04
666.737	7263.29
666.929	7341.11
667.12	7255.1
667.311	7238.72
667.503	7261.24
667.694	7040.06
667.885	6982.72
668.077	7105.6
668.268	6980.67
668.459	7050.3
668.651	6917.19
668.842	6968.38
669.033	6796.35
669.224	6835.27
669.416	6868.03
669.607	6849.6
669.798	6868.03
669.989	6863.94
670.18	6708.29
670.371	6814.79
670.563	6679.62
670.754	6782.02
670.945	6622.28
671.136	6599.75
671.327	6442.06
671.518	6767.68
671.709	6483.02
671.9	6462.54
672.091	6501.45
672.282	6458.44
672.473	6335.56
672.664	6552.65
672.855	6159.44
673.046	6409.29
673.237	6331.47
673.428	6159.44
673.619	6267.98
673.809	6317.13
674	6102.09
674.191	6147.15
674.382	6032.46
674.573	6224.97
674.764	6214.73
674.954	6167.63
675.145	6016.08
675.336	6089.81
675.527	5999.7
675.717	6069.33
675.908	6040.65
676.099	6007.89
676.289	6003.79
676.48	6024.27
676.671	5954.64
676.861	5887.06
677.052	5788.75
677.243	5934.16
677.433	5856.34
677.624	5930.06
677.814	5866.58
678.005	5868.63
678.195	6026.32
678.386	5792.85
678.576	5665.88
678.767	5835.86
678.957	5764.18
679.148	6011.98
679.338	5831.76
679.529	5874.77
679.719	5758.03
679.909	5731.41
680.1	5721.17
680.29	5747.79
680.481	5772.37
680.671	5747.79
680.861	5618.77
681.052	5633.11
681.242	5663.83
681.432	5631.06
681.622	5643.35
681.813	5583.96
682.003	5483.61
682.193	5573.72
682.383	5729.36
682.573	5440.6
682.764	5502.04
682.954	5520.47
683.144	5702.74
683.334	5579.86
683.524	5534.81
683.714	5545.05
683.904	5436.5
684.094	5575.77
684.284	5526.61
684.474	5547.09
684.664	5454.94
684.854	5516.37
685.044	5452.89
685.234	5454.94
685.424	5446.74
685.614	5452.89
685.804	5385.3
685.994	5438.55
686.184	5352.54
686.374	5399.64
686.564	5319.77
686.753	5354.58
686.943	5151.84
687.133	5205.08
687.323	5309.53
687.513	5162.08
687.702	5289.05
687.892	5209.18
688.082	5237.85
688.272	5311.58
688.461	5178.46
688.651	5160.03
688.841	5207.13
689.03	5157.98
689.22	5168.22
689.41	5055.58
689.599	4936.8
689.789	5151.84
689.979	5045.34
690.168	5100.64
690.358	5067.87
690.547	4914.27
690.737	4977.76
690.926	5018.72
691.116	4936.8
691.305	4910.18
691.495	4908.13
691.684	4746.34
691.874	4983.9
692.063	4901.98
692.252	4992.09
692.442	4901.98
692.631	4942.94
692.82	4863.07
693.01	4895.84
693.199	4815.97
693.388	4752.48
693.578	4783.2
693.767	4799.59
693.956	4613.22
694.146	4721.76
694.335	4846.69
694.524	4811.87
694.713	4795.49
694.902	4664.42
695.092	4678.76
695.281	4682.85
695.47	4744.29
695.659	4713.57
695.848	4791.39
696.037	4404.33
696.226	4764.77
696.415	4607.08
696.604	4621.41
696.793	4617.32
696.982	4562.02
697.171	4592.74
697.36	4576.36
697.549	4516.97
697.738	4467.81
697.927	4590.69
698.116	4570.21
698.305	4545.64
698.494	4377.7
698.683	4365.42
698.872	4418.66
699.061	4428.9
699.25	4385.9
699.438	4484.2
699.627	4469.86
699.816	4424.81
700.005	4320.36
700.193	4316.26
700.382	4430.95
700.571	4287.59
700.76	4453.48
700.948	4346.98
701.137	4324.46
701.326	4336.74
701.514	4365.42
701.703	4306.02
701.892	4273.26
702.08	4322.41
702.269	4197.48
702.457	4070.51
702.646	4279.4
702.834	4213.87
703.023	4263.02
703.212	4238.44
703.4	4252.78
703.589	4076.65
703.777	4177
703.965	4160.62
704.154	4234.35
704.342	4199.53
704.531	4039.79
704.719	3966.06
704.907	4066.41
705.096	4109.42
705.284	3986.54
705.472	4021.36
705.661	4138.09
705.849	4090.99
706.037	4025.45
706.226	3961.97
706.414	3943.53
706.602	4041.84
706.79	4011.12
706.979	3902.58
707.167	3933.29
707.355	3888.24
707.543	3990.64
707.731	3826.8
707.919	3890.29
708.107	3886.19
708.296	3816.56
708.484	3816.56
708.672	3980.4
708.86	3857.52
709.048	3791.98
709.236	3916.91
709.424	3814.51
709.612	3830.9
709.8	3744.88
709.988	3773.55
710.176	3802.22
710.364	3777.65
710.551	3841.14
710.739	3673.2
710.927	3878
711.115	3710.07
711.303	3746.93
711.491	3708.02
711.679	3658.87
711.866	3615.86
712.054	3732.59
712.242	3683.44
712.43	3683.44
712.617	3658.87
712.805	3796.08
712.993	3589.24
713.181	3443.83
713.368	3470.45
713.556	3525.75
713.744	3484.79
713.931	3644.53
714.119	3486.84
714.306	3556.47
714.494	3574.9
714.682	3452.02
714.869	3505.27
715.057	3513.46
715.244	3347.58
715.432	3576.95
715.619	3435.64
715.807	3349.62
715.994	3505.27
716.182	3343.48
716.369	3390.58
716.556	3378.3
716.744	3255.42
716.931	3386.49
717.119	3398.77
717.306	3345.53
717.493	3288.18
717.681	3224.7
717.868	3380.34
718.055	3363.96
718.242	3232.89
718.43	3247.23
718.617	3243.13
718.804	3341.43
718.991	3247.23
719.179	3263.61
719.366	3157.11
719.553	3226.75
719.74	3275.9
719.927	3107.96
720.114	3263.61
720.301	3259.51
720.488	3159.16
720.676	3105.92
720.863	3406.97
721.05	3202.17
721.237	3077.24
721.424	3189.88
721.611	3089.53
721.798	3017.85
721.985	3054.72
722.172	3107.96
722.358	3042.43
722.545	3132.54
722.732	3177.59
722.919	3097.72
723.106	3079.29
723.293	2911.36
723.48	3034.24
723.667	3075.2
723.853	2983.04
724.04	3001.47
724.227	2987.13
724.414	3134.59
724.6	2937.98
724.787	2903.17
724.974	3064.96
725.161	2993.28
725.347	3036.28
725.534	2886.78
725.72	2980.99
725.907	3005.56
726.094	3015.8
726.28	2888.83
726.467	2960.51
726.653	2813.06
726.84	3005.56
727.027	2776.19
727.213	2808.96
727.4	2815.1
727.586	2788.48
727.773	2911.36
727.959	2739.33
728.145	2808.96
728.332	2856.06
728.518	2765.95
728.705	2876.54
728.891	2755.71
729.077	2890.88
729.264	2737.28
729.45	2747.52
729.636	2821.25
729.823	2749.57
730.009	2931.84
730.195	2808.96
730.382	2796.67
730.568	2694.27
730.754	2806.91
730.94	2788.48
731.126	2780.29
731.313	2870.4
731.499	2620.55
731.685	2872.45
731.871	2718.85
732.057	2675.84
732.243	2837.63
732.429	2681.99
732.615	2608.26
732.801	2681.99
732.987	2530.44
733.173	2657.41
733.359	2641.03
733.545	2735.23
733.731	2632.83
733.917	2600.07
734.103	2624.64
734.289	2657.41
734.475	2454.66
734.661	2665.6
734.847	2544.77
735.033	2624.64
735.219	2620.55
735.404	2485.38
735.59	2583.68
735.776	2557.06
735.962	2542.72
736.148	2638.98
736.333	2612.35
736.519	2491.52
736.705	2550.92
736.89	2446.47
737.076	2542.72
737.262	2542.72
737.447	2483.33
737.633	2469
737.819	2493.57
738.004	2479.24
738.19	2481.28
738.375	2354.31
738.561	2444.42
738.747	2411.65
738.932	2407.56
739.118	2382.98
739.303	2346.12
739.489	2342.02
739.674	2317.45
739.859	2452.61
740.045	2380.93
740.23	2333.83
740.416	2296.97
740.601	2387.08
740.786	2362.5
740.972	2299.02
741.157	2413.7
741.342	2182.28
741.528	2335.88
741.713	2356.36
741.898	2321.54
742.084	2186.38
742.269	2231.43
742.454	2313.35
742.639	2339.97
742.824	2227.34
743.01	2274.44
743.195	2159.75
743.38	2200.71
743.565	2167.95
743.75	2196.62
743.935	2270.34
744.12	2233.48
744.305	2059.4
744.49	2137.23
744.675	2047.12
744.86	2165.9
745.045	2206.86
745.23	2190.47
745.415	1973.39
745.6	2141.32
745.785	2061.45
745.97	2129.03
746.155	2059.4
746.34	1975.44
746.525	2051.21
746.71	2071.69
746.895	2045.07
747.079	2008.2
747.264	1932.43
747.449	1977.48
747.634	1879.18
747.819	2004.11
748.003	1821.84
748.188	1846.41
748.373	1780.88
748.557	1887.37
748.742	1932.43
748.927	1948.81
749.111	1844.37
749.296	1823.89
749.481	1930.38
749.665	1739.92
749.85	1854.61
750.034	1797.26
750.219	1750.16
750.404	1776.78
750.588	1758.35
750.773	1739.92
750.957	1811.6
751.141	1698.96
751.326	1741.97
751.51	1653.91
751.695	1707.15
751.879	1633.43
752.064	1764.5
752.248	1619.09
752.432	1666.19
752.617	1668.24
752.801	1635.47
752.985	1688.72
753.17	1584.27
753.354	1682.58
753.538	1725.58
753.722	1555.6
753.907	1621.14
754.091	1561.75
754.275	1584.27
754.459	1463.44
754.643	1490.07
754.828	1492.12
755.012	1485.97
755.196	1447.06
755.38	1404.05
755.564	1488.02
755.748	1402.01
755.932	1488.02
756.116	1471.64
756.3	1359
756.484	1369.24
756.668	1432.72
756.852	1348.76
757.036	1313.94
757.22	1350.81
757.404	1338.52
757.588	1303.7
757.772	1404.05
757.956	1352.85
758.14	1404.05
758.323	1268.89
758.507	1256.6
758.691	1238.17
758.875	1211.54
759.059	1225.88
759.242	1162.39
759.426	1258.65
759.61	1289.37
759.794	1338.52
759.977	1272.98
760.161	1307.8
760.345	1258.65
760.528	1219.74
760.712	1242.26
760.895	1248.41
761.079	1238.17
761.263	1201.3
761.446	1195.16
761.63	1211.54
761.813	1246.36
761.997	1096.86
762.18	1027.23
762.364	1221.78
762.547	1129.63
762.731	1135.77
762.914	1229.98
763.098	1152.15
763.281	1084.57
763.464	1068.19
763.648	1092.76
763.831	1135.77
764.015	1055.9
764.198	1176.73
764.381	1129.63
764.564	1158.3
764.748	1029.27
764.931	1047.71
765.114	1043.61
765.297	1127.58
765.481	1043.61
765.664	967.84
765.847	994.46
766.03	1076.38
766.213	1064.09
766.397	1014.94
766.58	984.22
766.763	1002.65
766.946	1035.42
767.129	933.02
767.312	996.51
767.495	994.46
767.678	969.88
767.861	945.31
768.044	961.69
768.227	963.74
768.41	1004.7
768.593	1053.85
768.776	1051.8
768.959	986.27
769.142	949.4
769.324	933.02
769.507	1029.27
769.69	924.83
769.873	959.64
770.056	1027.23
770.239	863.39
770.421	969.88
770.604	965.79
770.787	900.25
770.97	892.06
771.152	941.21
771.335	896.16
771.518	867.49
771.7	973.98
771.883	890.01
772.066	857.25
772.248	904.35
772.431	828.57
772.613	887.97
772.796	851.1
772.978	814.24
773.161	914.59
773.343	883.87
773.526	758.94
773.708	857.25
773.891	804
774.073	806.05
774.256	834.72
774.438	900.25
774.621	732.32
774.803	824.48
774.985	851.1
775.168	806.05
775.35	797.85
775.532	758.94
775.715	732.32
775.897	789.66
776.079	724.13
776.261	828.57
776.444	754.85
776.626	683.17
776.808	697.5
776.99	744.61
777.173	756.9
777.355	740.51
777.537	746.66
777.719	742.56
777.901	709.79
778.083	677.02
778.265	636.06
778.447	756.9
778.629	646.3
778.811	683.17
778.993	724.13
779.175	687.26
779.357	750.75
779.539	631.97
779.721	699.55
779.903	709.79
780.085	701.6
780.267	613.54
780.449	685.22
780.631	677.02
780.812	674.98
780.994	605.35
781.176	595.11
781.358	699.55
781.54	687.26
781.721	654.5
781.903	605.35
782.085	576.67
782.267	609.44
782.448	564.39
782.63	593.06
782.812	634.02
782.993	642.21
783.175	636.06
783.357	615.59
783.538	609.44
783.72	457.89
783.901	513.19
784.083	488.61
784.264	605.35
784.446	543.91
784.627	470.18
784.809	545.95
784.99	529.57
785.172	494.76
785.353	537.76
785.535	494.76
785.716	552.1
785.897	488.61
786.079	490.66
786.26	531.62
786.441	486.56
786.623	486.56
786.804	457.89
786.985	412.84
787.167	558.24
787.348	511.14
787.529	488.61
787.71	519.33
787.891	447.65
788.073	398.5
788.254	531.62
788.435	461.99
788.616	517.28
788.797	470.18
788.978	488.61
789.159	439.46
789.34	425.12
789.522	396.45
789.703	406.69
789.884	466.08
790.065	414.88
790.246	392.36
790.427	392.36
790.607	474.28
790.788	480.42
790.969	429.22
791.15	388.26
791.331	404.64
791.512	429.22
791.693	504.99
791.874	408.74
792.054	396.45
792.235	433.32
792.416	351.4
792.597	314.53
792.778	384.16
792.958	357.54
793.139	400.55
793.32	384.16
793.5	367.78
793.681	400.55
793.862	355.49
794.042	251.05
794.223	351.4
794.404	271.53
794.584	287.91
794.765	396.45
794.945	339.11
795.126	388.26
795.306	371.88
795.487	306.34
795.667	349.35
795.848	289.96
796.028	367.78
796.209	357.54
796.389	347.3
796.57	363.69
796.75	255.14
796.93	332.97
797.111	208.04
797.291	261.29
797.471	363.69
797.652	326.82
797.832	216.23
798.012	314.53
798.192	208.04
798.373	277.67
798.553	292.01
798.733	283.81
798.913	314.53
799.093	265.38
799.274	318.63
799.454	257.19
799.634	300.2
799.814	292.01
799.994	259.24
800.174	281.77
800.354	240.81
800.534	226.47
800.714	240.81
800.894	273.57
801.074	240.81
801.254	244.9
801.434	320.68
801.614	222.38
801.794	187.56
801.974	1027.23
802.154	306.34
802.334	281.77
802.514	208.04
802.693	249
802.873	357.54
803.053	273.57
803.233	232.62
803.413	265.38
803.592	216.23
803.772	271.53
803.952	246.95
804.131	210.09
804.311	298.15
804.491	324.77
804.67	160.94
804.85	226.47
805.03	210.09
805.209	242.85
805.389	273.57
805.568	253.09
805.748	201.9
805.928	244.9
806.107	228.52
806.287	249
806.466	179.37
806.646	210.09
806.825	236.71
807.004	298.15
807.184	296.1
807.363	167.08
807.543	265.38
807.722	191.66
807.901	208.04
808.081	201.9
808.26	191.66
808.439	232.62
808.619	199.85
808.798	242.85
808.977	214.18
809.156	224.42
809.336	183.46
809.515	210.09
809.694	187.56
809.873	195.75
810.052	160.94
810.231	273.57
810.411	185.51
810.59	216.23
810.769	156.84
810.948	195.75
811.127	103.59
811.306	177.32
811.485	171.18
811.664	267.43
811.843	220.33
812.022	195.75
812.201	259.24
812.38	199.85
812.559	201.9
812.737	236.71
812.916	144.55
813.095	203.94
813.274	193.7
813.453	183.46
813.632	169.13
813.811	222.38
813.989	70.83
814.168	162.98
814.347	148.65
814.526	199.85
814.704	195.75
814.883	150.7
815.062	169.13
815.24	199.85
815.419	175.27
815.598	232.62
815.776	74.92
815.955	111.78
816.133	79.02
816.312	158.89
816.49	68.78
816.669	175.27
816.847	152.74
817.026	185.51
817.204	154.79
817.383	154.79
817.561	158.89
817.74	183.46
817.918	195.75
818.097	197.8
818.275	138.41
818.453	150.7
818.632	144.55
818.81	128.17
818.988	95.4
819.167	205.99
819.345	76.97
819.523	158.89
819.701	136.36
819.879	216.23
820.058	175.27
820.236	169.13
820.414	103.59
820.592	138.41
820.77	103.59
820.948	74.92
821.127	101.55
821.305	144.55
821.483	119.98
821.661	175.27
821.839	103.59
822.017	212.14
822.195	66.73
822.373	177.32
822.551	111.78
822.729	101.55
822.907	154.79
823.085	138.41
823.262	101.55
823.44	142.5
823.618	169.13
823.796	191.66
823.974	109.74
824.152	93.35
824.329	70.83
824.507	93.35
824.685	134.31
824.863	138.41
825.04	81.07
825.218	76.97
825.396	224.42
825.574	179.37
825.751	95.4
825.929	93.35
826.107	136.36
826.284	113.83
826.462	79.02
826.639	142.5
826.817	101.55
826.994	113.83
827.172	9.39
827.349	201.9
827.527	87.21
827.704	107.69
827.882	48.3
828.059	111.78
828.237	134.31
828.414	95.4
828.591	68.78
828.769	148.65
828.946	87.21
829.124	152.74
829.301	126.12
829.478	64.68
829.655	169.13
829.833	72.87
830.01	40.11
830.187	117.93
830.364	87.21
830.542	83.11
830.719	46.25
830.896	85.16
831.073	64.68
831.25	158.89
831.427	150.7
831.604	105.64
831.782	60.59
831.959	150.7
832.136	93.35
832.313	130.22
832.49	85.16
832.667	105.64
832.844	79.02
833.021	208.04
833.198	136.36
833.374	97.45
833.551	183.46
833.728	101.55
833.905	109.74
834.082	72.87
834.259	187.56
834.436	128.17
834.612	76.97
834.789	175.27
834.966	27.82
835.143	122.02
835.319	64.68
835.496	111.78
835.673	101.55
835.85	177.32
836.026	142.5
836.203	95.4
836.38	19.63
836.556	79.02
836.733	56.49
836.909	144.55
837.086	38.06
837.262	5.29
837.439	126.12
837.616	54.44
837.792	87.21
837.968	134.31
838.145	119.98
838.321	119.98
838.498	44.2
838.674	97.45
838.851	60.59
839.027	29.87
839.203	117.93
839.38	136.36
839.556	-4.95
839.732	27.82
839.909	76.97
840.085	60.59
840.261	74.92
840.437	66.73
840.614	-0.85
840.79	60.59
840.966	85.16
841.142	93.35
841.318	79.02
841.494	89.26
841.671	105.64
841.847	68.78
842.023	46.25
842.199	13.48
842.375	117.93
842.551	-41.81
842.727	62.63
842.903	171.18
843.079	27.82
843.255	101.55
843.431	36.01
843.607	93.35
843.783	111.78
843.959	62.63
844.134	72.87
844.31	138.41
844.486	70.83
844.662	83.11
844.838	64.68
845.013	76.97
845.189	165.03
845.365	44.2
845.541	-11.09
845.716	68.78
845.892	103.59
846.068	44.2
846.244	54.44
846.419	89.26
846.595	-47.96
846.77	-66.39
846.946	83.11
847.122	3.24
847.297	3.24
847.473	109.74
847.648	-19.29
847.824	79.02
847.999	81.07
848.175	27.82
848.35	54.44
848.526	68.78
848.701	52.39
848.876	36.01
849.052	79.02
849.227	62.63
849.403	-13.14
849.578	52.39
849.753	109.74
849.929	52.39
850.104	3.24
850.279	48.3
850.454	44.2
850.63	5.29
850.805	11.43
850.98	11.43
851.155	64.68
851.33	70.83
851.505	-52.05
851.681	76.97
851.856	44.2
852.031	29.87
852.206	81.07
852.381	27.82
852.556	48.3
852.731	52.39
852.906	5.29
853.081	-13.14
853.256	79.02
853.431	60.59
853.606	-29.52
853.781	-37.72
853.956	-84.82
854.131	64.68
854.305	11.43
854.48	64.68
854.655	-2.9
854.83	38.06
855.005	-9.05
855.18	46.25
855.354	38.06
855.529	-11.09
855.704	52.39
855.879	44.2
856.053	23.72
856.228	85.16
856.403	13.48
856.577	-4.95
856.752	44.2
856.926	3.24
857.101	68.78
857.276	68.78
857.45	60.59
857.625	89.26
857.799	85.16
857.974	36.01
858.148	-52.05
858.323	-0.85
858.497	36.01
858.672	76.97
858.846	46.25
859.02	3.24
859.195	27.82
859.369	5.29
859.543	7.34
859.718	7.34
859.892	19.63
860.066	128.17
860.241	11.43
860.415	70.83
860.589	81.07
860.763	40.11
860.938	-17.24
861.112	85.16
861.286	64.68
861.46	76.97
861.634	42.15
861.808	40.11
861.982	-17.24
862.157	3.24
862.331	76.97
862.505	19.63
862.679	-21.33
862.853	23.72
863.027	89.26
863.201	103.59
863.375	31.91
863.549	52.39
863.722	15.53
863.896	101.55
864.07	36.01
864.244	-9.05
864.418	-21.33
864.592	23.72
864.766	-68.44
864.939	52.39
865.113	-15.19
865.287	3.24
865.461	-52.05
865.634	44.2
865.808	-23.38
865.982	70.83
866.156	5.29
866.329	-17.24
866.503	44.2
866.676	19.63
866.85	40.11
867.024	44.2
867.197	76.97
867.371	113.83
867.544	5.29
867.718	60.59
867.891	52.39
868.065	36.01
868.238	60.59
868.412	3.24
868.585	-4.95
868.759	103.59
868.932	52.39
869.105	66.73
869.279	60.59
869.452	-33.62
869.625	17.58
869.799	11.43
869.972	-23.38
870.145	-21.33
870.319	-2.9
870.492	58.54
870.665	68.78
870.838	52.39
871.011	56.49
871.185	-39.76
871.358	11.43
871.531	111.78
871.704	-21.33
871.877	-7
872.05	42.15
872.223	-60.24
872.396	58.54
872.569	68.78
872.742	-19.29
872.915	23.72
873.088	-39.76
873.261	-17.24
873.434	60.59
873.607	7.34
873.78	11.43
873.953	85.16
874.126	3.24
874.299	27.82
874.471	7.34
874.644	56.49
874.817	56.49
874.99	146.6
875.163	5.29
875.335	52.39
875.508	-37.72
875.681	42.15
875.853	-54.1
876.026	52.39
876.199	66.73
876.371	62.63
876.544	62.63
876.717	-41.81
876.889	52.39
877.062	64.68
877.234	-17.24
877.407	21.67
877.579	5.29
877.752	21.67
877.924	97.45
878.097	21.67
878.269	87.21
878.442	11.43
878.614	7.34
878.786	-37.72
878.959	70.83
879.131	-17.24
879.303	17.58
879.476	11.43
879.648	89.26
879.82	27.82
879.993	-13.14
880.165	19.63
880.337	-74.58
880.509	76.97
880.681	-7
880.854	-21.33
881.026	46.25
881.198	52.39
881.37	-0.85
881.542	11.43
881.714	13.48
881.886	3.24
882.058	93.35
882.23	1.19
882.402	-0.85
882.574	-33.62
882.746	-17.24
882.918	83.11
883.09	15.53
883.262	23.72
883.434	-19.29
883.606	-140.12
883.778	-7
883.95	72.87
884.122	56.49
884.293	31.91
884.465	-23.38
884.637	60.59
884.809	-9.05
884.98	76.97
885.152	52.39
885.324	56.49
885.496	3.24
885.667	-0.85
885.839	3.24
886.011	36.01
886.182	81.07
886.354	52.39
886.525	-23.38
886.697	40.11
886.869	29.87
887.04	-70.48
887.212	15.53
887.383	72.87
887.555	36.01
887.726	79.02
887.897	-37.72
888.069	-29.52
888.24	46.25
888.412	44.2
888.583	-21.33
888.754	9.39
888.926	-82.77
889.097	19.63
889.268	-29.52
889.44	91.31
889.611	-17.24
889.782	-45.91
889.953	-70.48
890.125	54.44
890.296	-37.72
890.467	36.01
890.638	44.2
890.809	36.01
890.98	-21.33
891.151	19.63
891.323	3.24
891.494	81.07
891.665	-13.14
891.836	-29.52
892.007	-19.29
892.178	48.3
892.349	36.01
892.52	-13.14
892.691	97.45
892.862	-45.91
893.032	-41.81
893.203	52.39
893.374	7.34
893.545	83.11
893.716	-45.91
893.887	76.97
894.057	46.25
894.228	64.68
894.399	50.35
894.57	46.25
894.74	-23.38
894.911	40.11
895.082	44.2
895.253	27.82
895.423	9.39
895.594	15.53
895.764	-37.72
895.935	23.72
896.106	-21.33
896.276	29.87
896.447	-23.38
896.617	19.63
896.788	-13.14
896.958	17.58
897.129	11.43
897.299	27.82
897.47	40.11
897.64	44.2
897.81	29.87
897.981	-33.62
898.151	-4.95
898.322	-13.14
898.492	42.15
898.662	-37.72
898.832	-33.62
899.003	52.39
899.173	-13.14
899.343	-17.24
899.513	-4.95
