Data from USB4F104151__295__14-34-55-573.txt Node

Date: Thu Mar 13 14:34:55 EDT 2025
User: louis
Spectrometer: USB4F10415
Trigger mode: 4
Integration Time (sec): 2.500000E-2
Scans to average: 1
Electric dark correction enabled: true
Nonlinearity correction enabled: false
Boxcar width: 0
XAxis mode: Wavelengths
Number of Pixels in Spectrum: 3648
>>>>>Begin Spectral Data<<<<<
178.204	-148.65
178.424	-148.65
178.644	-148.65
178.864	-130.22
179.084	-136.36
179.304	-68.78
179.524	27.48
179.744	-44.2
179.964	54.1
180.184	-5.29
180.404	-17.58
180.624	19.29
180.844	15.19
181.064	-42.15
181.283	37.72
181.503	-27.82
181.723	52.05
181.943	-5.29
182.163	-5.29
182.383	-38.06
182.602	47.96
182.822	-33.96
183.042	35.67
183.262	19.29
183.482	-33.96
183.701	23.38
183.921	31.57
184.141	-3.24
184.361	70.48
184.58	56.15
184.8	88.92
185.02	47.96
185.239	15.19
185.459	-21.67
185.679	50
185.898	-5.29
186.118	31.57
186.338	25.43
186.557	7
186.777	-17.58
186.997	23.38
187.216	39.76
187.436	56.15
187.655	2.9
187.875	58.2
188.095	-1.19
188.314	33.62
188.534	90.96
188.753	33.62
188.973	11.09
189.192	19.29
189.412	56.15
189.631	33.62
189.851	45.91
190.07	58.2
190.29	7
190.509	-42.15
190.729	-17.58
190.948	66.39
191.168	156.5
191.387	50
191.607	-17.58
191.826	47.96
192.045	7
192.265	11.09
192.484	0.85
192.704	35.67
192.923	-7.34
193.142	39.76
193.362	-1.19
193.581	129.88
193.8	31.57
194.02	109.4
194.239	9.05
194.458	15.19
194.678	7
194.897	-19.63
195.116	58.2
195.335	-1.19
195.555	7
195.774	109.4
195.993	17.24
196.212	-38.06
196.432	-3.24
196.651	31.57
196.87	-23.72
197.089	148.31
197.308	-1.19
197.528	37.72
197.747	-19.63
197.966	47.96
198.185	11.09
198.404	-25.77
198.623	-1.19
198.842	-13.48
199.062	66.39
199.281	-17.58
199.5	58.2
199.719	-9.39
199.938	25.43
200.157	72.53
200.376	62.29
200.595	121.68
200.814	39.76
201.033	-15.53
201.252	105.3
201.471	7
201.69	82.77
201.909	-15.53
202.128	39.76
202.347	-5.29
202.566	25.43
202.785	-95.4
203.004	-17.58
203.223	101.2
203.442	47.96
203.661	76.63
203.879	9.05
204.098	97.11
204.317	-1.19
204.536	-1.19
204.755	52.05
204.974	43.86
205.193	47.96
205.411	97.11
205.63	88.92
205.849	11.09
206.068	-11.43
206.287	15.19
206.505	9.05
206.724	-23.72
206.943	29.52
207.162	27.48
207.381	43.86
207.599	-19.63
207.818	-27.82
208.037	-15.53
208.255	80.72
208.474	31.57
208.693	84.82
208.911	33.62
209.13	54.1
209.349	35.67
209.567	72.53
209.786	47.96
210.005	88.92
210.223	21.33
210.442	15.19
210.661	41.81
210.879	52.05
211.098	-25.77
211.316	-7.34
211.535	109.4
211.753	-38.06
211.972	-17.58
212.191	56.15
212.409	0.85
212.628	-7.34
212.846	-58.54
213.065	7
213.283	117.59
213.502	-21.67
213.72	39.76
213.938	47.96
214.157	0.85
214.375	-15.53
214.594	-17.58
214.812	56.15
215.031	15.19
215.249	-36.01
215.467	56.15
215.686	125.78
215.904	109.4
216.122	121.68
216.341	72.53
216.559	-9.39
216.778	64.34
216.996	33.62
217.214	35.67
217.432	-21.67
217.651	0.85
217.869	52.05
218.087	31.57
218.306	37.72
218.524	72.53
218.742	-15.53
218.96	15.19
219.179	47.96
219.397	7
219.615	101.2
219.833	-25.77
220.051	-1.19
220.27	39.76
220.488	58.2
220.706	-58.54
220.924	-19.63
221.142	15.19
221.36	17.24
221.578	123.73
221.796	-15.53
222.015	0.85
222.233	7
222.451	105.3
222.669	47.96
222.887	15.19
223.105	-15.53
223.323	60.24
223.541	-17.58
223.759	43.86
223.977	21.33
224.195	82.77
224.413	2.9
224.631	-25.77
224.849	39.76
225.067	29.52
225.285	15.19
225.503	4.95
225.721	-83.11
225.939	68.44
226.157	15.19
226.375	125.78
226.592	-42.15
226.81	23.38
227.028	35.67
227.246	31.57
227.464	27.48
227.682	56.15
227.9	64.34
228.117	39.76
228.335	-64.68
228.553	11.09
228.771	9.05
228.989	33.62
229.206	-9.39
229.424	-19.63
229.642	23.38
229.86	-58.54
230.077	43.86
230.295	47.96
230.513	107.35
230.731	74.58
230.948	68.44
231.166	33.62
231.384	27.48
231.601	11.09
231.819	113.49
232.037	39.76
232.254	-1.19
232.472	-25.77
232.689	-13.48
232.907	7
233.125	58.2
233.342	27.48
233.56	15.19
233.777	64.34
233.995	19.29
234.213	23.38
234.43	23.38
234.648	113.49
234.865	43.86
235.083	123.73
235.3	-48.3
235.518	64.34
235.735	11.09
235.953	107.35
236.17	68.44
236.388	56.15
236.605	-5.29
236.822	93.01
237.04	50
237.257	33.62
237.475	-23.72
237.692	21.33
237.909	-42.15
238.127	-13.48
238.344	-9.39
238.562	35.67
238.779	43.86
238.996	-64.68
239.214	47.96
239.431	43.86
239.648	-62.63
239.865	15.19
240.083	19.29
240.3	47.96
240.517	-13.48
240.735	74.58
240.952	72.53
241.169	76.63
241.386	41.81
241.603	-52.39
241.821	19.29
242.038	74.58
242.255	2.9
242.472	11.09
242.689	4.95
242.907	86.87
243.124	-5.29
243.341	17.24
243.558	19.29
243.775	0.85
243.992	-5.29
244.209	7
244.426	80.72
244.643	105.3
244.86	2.9
245.078	50
245.295	80.72
245.512	66.39
245.729	7
245.946	-7.34
246.163	-1.19
246.38	0.85
246.597	-29.87
246.814	27.48
247.031	-1.19
247.248	88.92
247.464	-9.39
247.681	7
247.898	82.77
248.115	27.48
248.332	19.29
248.549	113.49
248.766	97.11
248.983	80.72
249.2	88.92
249.417	7
249.633	-29.87
249.85	-5.29
250.067	-48.3
250.284	-31.91
250.501	-15.53
250.717	31.57
250.934	7
251.151	-33.96
251.368	2.9
251.585	66.39
251.801	72.53
252.018	41.81
252.235	29.52
252.451	15.19
252.668	-38.06
252.885	41.81
253.102	17.24
253.318	43.86
253.535	-19.63
253.752	-9.39
253.968	-56.49
254.185	7
254.401	4.95
254.618	17.24
254.835	7
255.051	101.2
255.268	39.76
255.484	64.34
255.701	47.96
255.917	19.29
256.134	15.19
256.351	4.95
256.567	27.48
256.784	43.86
257	-27.82
257.217	25.43
257.433	41.81
257.65	47.96
257.866	97.11
258.082	7
258.299	-40.11
258.515	43.86
258.732	52.05
258.948	43.86
259.165	23.38
259.381	15.19
259.597	50
259.814	37.72
260.03	13.14
260.246	66.39
260.463	11.09
260.679	52.05
260.895	31.57
261.112	-17.58
261.328	66.39
261.544	-1.19
261.761	64.34
261.977	-9.39
262.193	-38.06
262.409	35.67
262.626	23.38
262.842	50
263.058	11.09
263.274	52.05
263.49	-9.39
263.707	66.39
263.923	64.34
264.139	50
264.355	23.38
264.571	82.77
264.787	23.38
265.004	-9.39
265.22	68.44
265.436	2.9
265.652	29.52
265.868	64.34
266.084	-9.39
266.3	-31.91
266.516	-40.11
266.732	-23.72
266.948	68.44
267.164	-11.43
267.38	27.48
267.596	43.86
267.812	90.96
268.028	72.53
268.244	0.85
268.46	15.19
268.676	19.29
268.892	39.76
269.108	23.38
269.324	19.29
269.54	-66.73
269.756	58.2
269.972	-5.29
270.188	-15.53
270.403	41.81
270.619	50
270.835	50
271.051	47.96
271.267	11.09
271.483	9.05
271.698	68.44
271.914	105.3
272.13	-7.34
272.346	-21.67
272.562	39.76
272.777	70.48
272.993	-66.73
273.209	19.29
273.425	2.9
273.64	-38.06
273.856	50
274.072	9.05
274.287	54.1
274.503	146.26
274.719	41.81
274.934	17.24
275.15	-74.92
275.366	31.57
275.581	15.19
275.797	58.2
276.012	19.29
276.228	15.19
276.444	17.24
276.659	31.57
276.875	-9.39
277.09	15.19
277.306	43.86
277.521	66.39
277.737	27.48
277.952	15.19
278.168	27.48
278.383	23.38
278.599	43.86
278.814	56.15
279.03	11.09
279.245	15.19
279.461	-23.72
279.676	93.01
279.892	-7.34
280.107	11.09
280.322	-81.07
280.538	33.62
280.753	15.19
280.969	43.86
281.184	52.05
281.399	78.68
281.615	95.06
281.83	2.9
282.045	-48.3
282.26	-40.11
282.476	50
282.691	84.82
282.906	2.9
283.122	-40.11
283.337	-68.78
283.552	23.38
283.767	19.29
283.983	64.34
284.198	60.24
284.413	56.15
284.628	-31.91
284.843	15.19
285.058	47.96
285.274	-25.77
285.489	15.19
285.704	39.76
285.919	-42.15
286.134	43.86
286.349	41.81
286.564	7
286.779	52.05
286.995	64.34
287.21	-42.15
287.425	47.96
287.64	0.85
287.855	60.24
288.07	7
288.285	80.72
288.5	76.63
288.715	25.43
288.93	-17.58
289.145	9.05
289.36	-17.58
289.575	17.24
289.79	45.91
290.004	52.05
290.219	60.24
290.434	60.24
290.649	31.57
290.864	41.81
291.079	52.05
291.294	15.19
291.509	19.29
291.724	-1.19
291.938	-29.87
292.153	72.53
292.368	64.34
292.583	50
292.798	88.92
293.012	64.34
293.227	37.72
293.442	-3.24
293.657	47.96
293.871	41.81
294.086	-23.72
294.301	101.2
294.516	97.11
294.73	68.44
294.945	43.86
295.16	-25.77
295.374	47.96
295.589	105.3
295.804	54.1
296.018	39.76
296.233	62.29
296.447	72.53
296.662	41.81
296.877	-15.53
297.091	-17.58
297.306	7
297.52	33.62
297.735	31.57
297.949	72.53
298.164	41.81
298.378	58.2
298.593	-9.39
298.807	25.43
299.022	52.05
299.236	15.19
299.451	-21.67
299.665	9.05
299.88	23.38
300.094	45.91
300.309	-58.54
300.523	15.19
300.737	21.33
300.952	101.2
301.166	70.48
301.381	15.19
301.595	64.34
301.809	64.34
302.024	80.72
302.238	-9.39
302.452	64.34
302.667	-42.15
302.881	82.77
303.095	39.76
303.309	60.24
303.524	15.19
303.738	25.43
303.952	-21.67
304.166	50
304.381	-1.19
304.595	19.29
304.809	37.72
305.023	56.15
305.237	56.15
305.452	-21.67
305.666	-9.39
305.88	95.06
306.094	11.09
306.308	23.38
306.522	60.24
306.736	15.19
306.95	80.72
307.164	47.96
307.379	-5.29
307.593	31.57
307.807	27.48
308.021	109.4
308.235	-5.29
308.449	-1.19
308.663	41.81
308.877	64.34
309.091	43.86
309.305	60.24
309.519	-15.53
309.733	93.01
309.947	-46.25
310.161	43.86
310.374	52.05
310.588	113.49
310.802	-13.48
311.016	64.34
311.23	90.96
311.444	33.62
311.658	45.91
311.872	74.58
312.085	64.34
312.299	111.44
312.513	-7.34
312.727	60.24
312.941	50
313.154	27.48
313.368	-13.48
313.582	170.83
313.796	90.96
314.009	31.57
314.223	111.44
314.437	54.1
314.651	101.2
314.864	23.38
315.078	60.24
315.292	47.96
315.505	-13.48
315.719	35.67
315.933	93.01
316.146	-42.15
316.36	-15.53
316.573	185.17
316.787	-9.39
317.001	17.24
317.214	7
317.428	60.24
317.641	0.85
317.855	80.72
318.068	125.78
318.282	2.9
318.495	43.86
318.709	27.48
318.922	27.48
319.136	82.77
319.349	109.4
319.563	41.81
319.776	27.48
319.99	-21.67
320.203	15.19
320.417	-1.19
320.63	50
320.843	93.01
321.057	115.54
321.27	15.19
321.483	29.52
321.697	80.72
321.91	31.57
322.124	62.29
322.337	-15.53
322.55	82.77
322.763	-33.96
322.977	-11.43
323.19	39.76
323.403	39.76
323.617	47.96
323.83	64.34
324.043	41.81
324.256	-17.58
324.469	-3.24
324.683	66.39
324.896	56.15
325.109	23.38
325.322	33.62
325.535	17.24
325.748	60.24
325.962	37.72
326.175	64.34
326.388	82.77
326.601	74.58
326.814	47.96
327.027	76.63
327.24	105.3
327.453	7
327.666	-31.91
327.879	72.53
328.092	105.3
328.305	-33.96
328.518	72.53
328.731	-31.91
328.944	-17.58
329.157	19.29
329.37	50
329.583	107.35
329.796	88.92
330.009	-23.72
330.222	52.05
330.435	66.39
330.648	39.76
330.861	70.48
331.073	54.1
331.286	37.72
331.499	45.91
331.712	72.53
331.925	54.1
332.138	-1.19
332.35	121.68
332.563	-9.39
332.776	23.38
332.989	-5.29
333.202	-15.53
333.414	86.87
333.627	56.15
333.84	27.48
334.053	99.16
334.265	-64.68
334.478	15.19
334.691	-1.19
334.903	121.68
335.116	-9.39
335.329	-42.15
335.541	80.72
335.754	56.15
335.966	-87.21
336.179	-15.53
336.392	41.81
336.604	58.2
336.817	68.44
337.029	72.53
337.242	25.43
337.454	17.24
337.667	-25.77
337.88	105.3
338.092	115.54
338.305	64.34
338.517	41.81
338.729	39.76
338.942	121.68
339.154	88.92
339.367	-50.35
339.579	72.53
339.792	7
340.004	52.05
340.217	29.52
340.429	41.81
340.641	80.72
340.854	2.9
341.066	76.63
341.278	56.15
341.491	123.73
341.703	109.4
341.915	-42.15
342.128	88.92
342.34	-46.25
342.552	-15.53
342.764	19.29
342.977	23.38
343.189	58.2
343.401	105.3
343.613	58.2
343.826	27.48
344.038	29.52
344.25	19.29
344.462	7
344.674	-25.77
344.886	13.14
345.099	-7.34
345.311	-5.29
345.523	27.48
345.735	39.76
345.947	7
346.159	72.53
346.371	-7.34
346.583	9.05
346.795	66.39
347.007	64.34
347.219	74.58
347.431	74.58
347.643	125.78
347.855	-1.19
348.067	64.34
348.279	76.63
348.491	23.38
348.703	39.76
348.915	27.48
349.127	-7.34
349.339	113.49
349.551	9.05
349.763	117.59
349.975	52.05
350.187	99.16
350.399	64.34
350.61	33.62
350.822	50
351.034	43.86
351.246	56.15
351.458	111.44
351.669	50
351.881	97.11
352.093	107.35
352.305	68.44
352.517	76.63
352.728	117.59
352.94	97.11
353.152	84.82
353.363	25.43
353.575	58.2
353.787	74.58
353.999	27.48
354.21	33.62
354.422	66.39
354.633	70.48
354.845	66.39
355.057	-7.34
355.268	84.82
355.48	97.11
355.692	-54.44
355.903	80.72
356.115	0.85
356.326	-21.67
356.538	43.86
356.749	17.24
356.961	56.15
357.172	35.67
357.384	31.57
357.595	174.93
357.807	80.72
358.018	-5.29
358.23	-1.19
358.441	62.29
358.653	121.68
358.864	107.35
359.075	33.62
359.287	99.16
359.498	80.72
359.709	39.76
359.921	113.49
360.132	64.34
360.344	17.24
360.555	-17.58
360.766	86.87
360.977	-7.34
361.189	80.72
361.4	140.12
361.611	-1.19
361.823	66.39
362.034	93.01
362.245	-19.63
362.456	27.48
362.667	23.38
362.879	31.57
363.09	-1.19
363.301	7
363.512	47.96
363.723	58.2
363.935	52.05
364.146	97.11
364.357	58.2
364.568	101.2
364.779	27.48
364.99	13.14
365.201	31.57
365.412	107.35
365.623	-31.91
365.834	58.2
366.045	84.82
366.256	68.44
366.467	0.85
366.678	101.2
366.889	-5.29
367.1	82.77
367.311	113.49
367.522	31.57
367.733	93.01
367.944	-25.77
368.155	50
368.366	-1.19
368.577	58.2
368.788	43.86
368.999	15.19
369.209	82.77
369.42	146.26
369.631	43.86
369.842	68.44
370.053	31.57
370.264	90.96
370.474	-7.34
370.685	99.16
370.896	113.49
371.107	60.24
371.317	60.24
371.528	37.72
371.739	31.57
371.95	72.53
372.16	60.24
372.371	27.48
372.582	-29.87
372.792	41.81
373.003	56.15
373.214	47.96
373.424	95.06
373.635	47.96
373.846	47.96
374.056	90.96
374.267	47.96
374.477	76.63
374.688	-9.39
374.898	39.76
375.109	41.81
375.319	56.15
375.53	88.92
375.74	86.87
375.951	39.76
376.161	117.59
376.372	72.53
376.582	82.77
376.793	39.76
377.003	90.96
377.214	47.96
377.424	-5.29
377.635	-5.29
377.845	52.05
378.055	66.39
378.266	9.05
378.476	41.81
378.686	15.19
378.897	15.19
379.107	2.9
379.317	107.35
379.528	-9.39
379.738	93.01
379.948	35.67
380.158	86.87
380.369	82.77
380.579	52.05
380.789	82.77
380.999	105.3
381.21	39.76
381.42	80.72
381.63	27.48
381.84	68.44
382.05	101.2
382.261	39.76
382.471	133.97
382.681	45.91
382.891	115.54
383.101	66.39
383.311	33.62
383.521	21.33
383.731	115.54
383.941	31.57
384.151	45.91
384.361	39.76
384.571	93.01
384.781	119.64
384.991	129.88
385.201	74.58
385.411	31.57
385.621	88.92
385.831	-29.87
386.041	74.58
386.251	78.68
386.461	129.88
386.671	-23.72
386.881	88.92
387.091	64.34
387.301	47.96
387.511	66.39
387.72	80.72
387.93	17.24
388.14	-9.39
388.35	105.3
388.56	-33.96
388.769	162.64
388.979	74.58
389.189	64.34
389.399	64.34
389.609	82.77
389.818	90.96
390.028	125.78
390.238	154.45
390.447	35.67
390.657	133.97
390.867	-23.72
391.076	70.48
391.286	86.87
391.496	88.92
391.705	52.05
391.915	133.97
392.125	154.45
392.334	43.86
392.544	125.78
392.753	68.44
392.963	-3.24
393.172	54.1
393.382	35.67
393.591	125.78
393.801	41.81
394.01	154.45
394.22	88.92
394.429	17.24
394.639	72.53
394.848	88.92
395.058	88.92
395.267	115.54
395.477	43.86
395.686	82.77
395.895	80.72
396.105	236.37
396.314	183.12
396.524	138.07
396.733	58.2
396.942	131.92
397.152	129.88
397.361	99.16
397.57	121.68
397.78	105.3
397.989	162.64
398.198	203.6
398.407	68.44
398.617	99.16
398.826	127.83
399.035	146.26
399.244	189.27
399.453	148.31
399.663	133.97
399.872	154.45
400.081	121.68
400.29	162.64
400.499	101.2
400.708	154.45
400.917	78.68
401.127	146.26
401.336	138.07
401.545	207.7
401.754	201.55
401.963	158.55
402.172	123.73
402.381	113.49
402.59	138.07
402.799	158.55
403.008	174.93
403.217	170.83
403.426	195.41
403.635	179.03
403.844	76.63
404.053	203.6
404.262	150.36
404.471	244.56
404.68	199.51
404.888	101.2
405.097	246.61
405.306	219.99
405.515	179.03
405.724	187.22
405.933	289.62
406.142	244.56
406.35	269.14
406.559	222.03
406.768	205.65
406.977	258.9
407.185	267.09
407.394	236.37
407.603	195.41
407.812	279.38
408.02	293.71
408.229	299.86
408.438	310.1
408.646	314.19
408.855	301.9
409.064	342.86
409.272	379.73
409.481	320.34
409.69	318.29
409.898	342.86
410.107	404.3
410.315	361.3
410.524	342.86
410.733	408.4
410.941	498.51
411.15	523.09
411.358	500.56
411.567	574.28
411.775	465.74
411.984	533.33
412.192	619.34
412.401	580.43
412.609	693.07
412.818	615.24
413.026	746.31
413.234	641.87
413.443	645.96
413.651	744.27
413.86	815.94
414.068	957.25
414.276	854.86
414.485	744.27
414.693	875.34
414.901	932.68
415.11	795.47
415.318	920.39
415.526	998.21
415.734	1022.79
415.943	1082.18
416.151	1114.95
416.359	1123.14
416.567	1098.56
416.776	1203.01
416.984	1196.87
417.192	1274.69
417.4	1254.21
417.608	1358.66
417.817	1448.77
418.025	1422.14
418.233	1493.82
418.441	1528.64
418.649	1450.82
418.857	1817.4
419.065	1813.31
419.273	1708.86
419.481	1811.26
419.689	1887.03
419.897	2048.82
420.105	2009.91
420.313	2116.41
420.521	2100.02
420.729	2188.08
420.937	2308.91
421.145	2188.08
421.353	2460.46
421.561	2710.32
421.769	2603.82
421.977	2710.32
422.185	2749.23
422.393	2857.77
422.601	3013.42
422.809	3015.46
423.017	2943.78
423.224	3226.4
423.432	3226.4
423.64	3498.78
423.848	3638.05
424.056	3586.85
424.263	3865.37
424.471	3769.12
424.679	3937.05
424.887	3994.39
425.094	4209.43
425.302	4283.16
425.51	4283.16
425.718	4537.1
425.925	4557.58
426.133	4659.98
426.341	5042.95
426.548	5184.26
426.756	5104.39
426.964	5372.68
427.171	5552.9
427.379	5708.54
427.586	5804.8
427.794	5939.96
428.001	6177.53
428.209	6576.88
428.417	6466.29
428.624	6898.41
428.832	6859.5
429.039	6826.73
429.247	6906.6
429.454	7414.5
429.662	7887.58
429.869	7445.22
430.076	7860.96
430.284	7830.24
430.491	8100.57
430.699	8592.08
430.906	8665.81
431.114	8682.19
431.321	8995.53
431.528	9208.52
431.736	9777.86
431.943	10111.68
432.15	9945.79
432.358	9943.74
432.565	10511.03
432.772	10617.52
432.979	10883.76
433.187	11205.29
433.394	11211.43
433.601	12079.77
433.808	12266.14
434.016	11803.3
434.223	12550.81
434.43	13410.95
434.637	12913.3
434.844	13843.07
435.052	14180.99
435.259	13879.94
435.466	13904.51
435.673	13949.57
435.88	14629.49
436.087	15612.52
436.294	15551.08
436.501	15293.04
436.708	15325.8
436.915	16054.88
437.122	16585.3
437.329	16767.57
437.537	17244.75
437.743	17607.24
437.95	17234.51
438.157	18209.34
438.364	18813.49
438.571	18991.67
438.778	19132.98
438.985	20515.36
439.192	20013.6
439.399	20486.68
439.606	20199.97
439.813	21334.54
440.02	22626.81
440.227	21977.61
440.433	21748.23
440.64	22460.93
440.847	22344.19
441.054	22895.1
441.261	24367.59
441.467	24056.29
441.674	24599.01
441.881	25469.39
442.088	25459.15
442.294	25289.17
442.501	25729.48
442.708	26071.5
442.914	27251.13
443.121	28850.59
443.328	27584.94
443.534	29608.34
443.741	28936.6
443.948	28246.44
444.154	30421.38
444.361	29923.72
444.568	30427.53
444.774	30751.1
444.981	30861.69
445.187	31558
445.394	32868.7
445.6	32758.11
445.807	35651.89
446.013	33864.02
446.22	34775.36
446.426	36256.04
446.633	36466.98
446.839	37615.9
447.046	36454.7
447.252	38293.77
447.459	38181.13
447.665	38234.38
447.871	39667.96
448.078	41298.14
448.284	39237.89
448.491	40587.5
448.697	41699.55
448.903	42760.39
449.11	42801.35
449.316	42096.85
449.522	43036.87
449.728	43927.74
449.935	44155.06
450.141	43942.07
450.347	45068.45
450.553	43808.95
450.76	44333.23
450.966	45607.07
451.172	45371.55
451.378	46614.67
451.584	45404.32
451.791	46493.84
451.997	46649.49
452.203	47255.68
452.409	47005.83
452.615	47190.15
452.821	45150.37
453.027	44368.05
453.233	47403.14
453.44	45150.37
453.646	45467.81
453.852	45803.67
454.058	46487.7
454.264	45148.32
454.47	45922.46
454.676	45265.06
454.882	46227.6
455.088	42526.92
455.294	43040.96
455.5	44155.06
455.705	44040.37
455.911	42442.96
456.117	41677.02
456.323	40837.35
456.529	39047.43
456.735	40632.55
456.941	39792.89
457.147	38875.4
457.352	37533.98
457.558	37585.18
457.764	37957.91
457.97	36679.97
458.176	35828.02
458.381	35850.55
458.587	34169.16
458.793	34015.57
458.999	32420.2
459.204	34693.44
459.41	34134.35
459.616	31582.58
459.821	31822.19
460.027	31449.46
460.233	31074.68
460.438	29325.72
460.644	29667.73
460.85	28205.48
461.055	27703.73
461.261	27937.2
461.466	25596.37
461.672	24906.2
461.878	26409.41
462.083	24863.19
462.289	24484.32
462.494	24197.6
462.7	23093.75
462.905	22673.92
463.111	23128.56
463.316	23046.65
463.522	23101.94
463.727	22802.94
463.932	22637.05
464.138	22290.95
464.343	22546.94
464.549	21950.98
464.754	22659.58
464.959	22483.45
465.165	22243.84
465.37	21035.54
465.575	20738.58
465.781	21608.97
465.986	21594.64
466.191	20806.17
466.397	20341.28
466.602	19370.54
466.807	20304.42
467.012	20056.61
467.218	20146.72
467.423	19604.01
467.628	19943.97
467.833	20593.18
468.038	19913.25
468.244	19337.77
468.449	20173.35
468.654	19413.55
468.859	18885.17
469.064	19315.25
469.269	18483.77
469.474	18494.01
469.679	18956.85
469.885	18448.96
470.09	18862.65
470.295	18428.48
470.5	17719.88
470.705	18385.47
470.91	17771.08
471.115	17607.24
471.32	17840.71
471.525	17971.78
471.73	17402.44
471.935	17259.09
472.139	16822.87
472.344	16673.37
472.549	16800.34
472.754	16505.43
472.959	16439.9
473.164	15604.33
473.369	15612.52
473.574	16214.62
473.778	16208.48
473.983	15706.73
474.188	15989.35
474.393	15180.4
474.598	15555.18
474.802	15032.94
475.007	14776.95
475.212	15008.37
475.417	14494.33
475.621	14336.63
475.826	14256.76
476.031	14092.93
476.235	14162.56
476.44	13990.53
476.645	13814.4
476.849	13769.35
477.054	13589.13
477.259	13488.78
477.463	13662.85
477.668	12997.26
477.872	13408.9
478.077	13157
478.282	12839.57
478.486	12757.65
478.691	12706.45
478.895	12632.72
479.1	12563.09
479.304	12483.22
479.509	12059.29
479.713	12233.37
479.918	12036.77
480.122	11977.37
480.326	12165.79
480.531	12182.17
480.735	11840.16
480.94	11817.63
481.144	11917.98
481.348	11659.94
481.553	11745.95
481.757	11393.7
481.961	11698.85
482.166	11844.26
482.37	11750.05
482.574	11336.36
482.778	11485.86
482.983	11815.59
483.187	11551.4
483.391	11670.18
483.595	11639.46
483.8	11365.03
484.004	11483.81
484.208	11678.37
484.412	11686.56
484.616	11635.36
484.821	11711.14
485.025	11133.61
485.229	11618.98
485.433	11459.24
485.637	11459.24
485.841	11594.4
486.045	11422.38
486.249	11434.66
486.453	11254.44
486.657	11627.17
486.861	11436.71
487.065	11328.17
487.269	11362.98
487.473	11203.24
487.677	11635.36
487.881	11457.19
488.085	11324.07
488.289	11561.64
488.493	11442.85
488.697	11696.8
488.901	11236.01
489.105	11467.43
489.309	11432.61
489.512	11403.94
489.716	11537.06
489.92	11688.61
490.124	11319.98
490.328	11614.88
490.531	11498.15
490.735	11582.12
490.939	11788.96
491.143	11659.94
491.346	11813.54
491.55	11840.16
491.754	11780.77
491.958	12083.87
492.161	11864.74
492.365	11829.92
492.569	12122.78
492.772	11905.7
492.976	11956.89
493.18	12239.51
493.383	12358.3
493.587	12087.96
493.79	12290.71
493.994	12106.4
494.197	12204.7
494.401	12440.22
494.605	12331.67
494.808	12591.77
495.012	12626.58
495.215	12458.65
495.419	12896.91
495.622	12894.86
495.825	13036.17
496.029	12941.97
496.232	13355.66
496.436	13271.69
496.639	13415.05
496.843	13509.26
497.046	13847.17
497.249	13662.85
497.453	13912.71
497.656	13814.4
497.859	14277.24
498.063	14174.85
498.266	14363.26
498.469	14363.26
498.673	14484.09
498.876	14815.86
499.079	14932.59
499.282	14672.5
499.485	15327.85
499.689	15192.69
499.892	15514.22
500.095	15448.68
500.298	15792.74
500.501	15710.82
500.705	16245.34
500.908	16255.58
501.111	16511.58
501.314	16595.54
501.517	16538.2
501.72	17021.52
501.923	16796.25
502.126	17128.02
502.329	17517.13
502.532	17504.84
502.735	17330.76
502.938	17920.58
503.141	17990.21
503.344	18338.37
503.547	18438.72
503.75	18633.27
503.953	18919.99
504.156	19114.55
504.359	19159.6
504.562	18973.24
504.765	19520.04
504.968	19825.19
505.17	19925.54
505.373	20021.8
505.576	20439.58
505.779	20720.15
505.982	20636.19
506.185	20937.24
506.387	21107.22
506.59	21365.26
506.793	21981.7
506.996	21608.97
507.198	22252.03
507.401	21979.65
507.604	22202.88
507.807	22811.13
508.009	22809.08
508.212	22931.96
508.415	23218.68
508.617	23734.76
508.82	23433.71
509.022	23581.17
509.225	24300
509.428	24414.69
509.63	24682.97
509.833	24615.39
510.035	25242.07
510.238	24830.43
510.44	25229.78
510.643	25905.61
510.845	26216.9
511.048	25696.72
511.25	26192.33
511.453	26618.3
511.655	27537.84
511.858	26857.92
512.06	27363.76
512.262	27496.88
512.465	27292.08
512.667	28074.41
512.87	27988.39
513.072	28271.01
513.274	28842.4
513.477	29022.62
513.679	29311.38
513.881	29497.75
514.084	29710.74
514.286	29897.1
514.488	29901.2
514.69	30972.28
514.893	30603.65
515.095	30773.63
515.297	31097.21
515.499	31594.87
515.701	31816.05
515.904	32059.76
516.106	32004.46
516.308	32375.14
516.51	32772.45
516.712	32727.39
516.914	33319.26
517.116	33610.07
517.318	33624.4
517.52	33767.76
517.722	33638.74
517.925	34656.58
518.127	34750.79
518.329	35100.99
518.531	34822.47
518.733	35565.88
518.935	35612.98
519.136	35537.21
519.338	36303.15
519.54	36145.45
519.742	36495.66
519.944	36825.38
520.146	37155.1
520.348	37521.69
520.55	37419.29
520.752	37486.87
520.954	37673.24
521.155	37779.73
521.357	38193.42
521.559	38293.77
521.761	39000.32
521.963	38816.01
522.164	39041.28
522.366	39270.65
522.568	39768.31
522.77	39418.11
522.971	40098.03
523.173	39608.57
523.375	40052.98
523.576	40192.24
523.778	39885.04
523.98	40972.52
524.181	40825.06
524.383	40614.12
524.584	41418.97
524.786	40990.95
524.988	40790.25
525.189	41361.63
525.391	41566.43
525.592	41593.05
525.794	41593.05
525.995	41787.61
526.197	41554.14
526.398	41707.74
526.6	42021.08
526.801	42268.88
527.003	42467.53
527.204	41982.16
527.406	42496.2
527.607	42301.65
527.808	42389.71
528.01	41574.62
528.211	42086.61
528.412	42782.92
528.614	42666.19
528.815	42705.1
529.016	42938.57
529.218	42703.05
529.419	42995.91
529.62	42717.39
529.822	42373.33
530.023	42854.6
530.224	42358.99
530.425	42639.56
530.626	42684.62
530.828	42217.68
531.029	43327.68
531.23	42373.33
531.431	42258.64
531.632	42723.53
531.833	43122.88
532.035	42182.87
532.236	42737.87
532.437	42512.59
532.638	42455.25
532.839	42875.08
533.04	42922.18
533.241	42494.16
533.442	42870.98
533.643	42827.98
533.844	42291.41
534.045	42541.26
534.246	41978.07
534.447	42711.24
534.648	42039.51
534.849	42150.1
535.05	41873.62
535.251	42387.66
535.451	42250.45
535.652	42156.24
535.853	42117.33
536.054	41873.62
536.255	42213.59
536.456	41734.36
536.657	42242.26
536.857	41816.28
537.058	41658.59
537.259	42080.47
537.46	41943.25
537.66	41769.18
537.861	41765.08
538.062	41507.04
538.263	41887.96
538.463	41457.88
538.664	41640.15
538.865	41767.13
539.065	41793.75
539.266	41257.18
539.466	41679.07
539.667	41548
539.868	42025.17
540.068	41666.78
540.269	41595.1
540.469	41595.1
540.67	41218.27
540.87	41353.44
541.071	41470.17
541.271	41451.74
541.472	41504.99
541.672	41052.39
541.873	41081.06
542.073	40691.94
542.274	41498.84
542.474	41015.52
542.675	40456.43
542.875	41732.31
543.075	40911.08
543.276	40706.28
543.476	41253.09
543.676	40714.47
543.877	41187.55
544.077	40698.09
544.277	40849.64
544.478	40845.54
544.678	41191.65
544.878	41205.98
545.078	40906.98
545.279	40407.28
545.479	40925.41
545.679	41003.24
545.879	40839.4
546.079	40890.6
546.28	40820.97
546.48	40274.16
546.68	40861.93
546.88	41144.55
547.08	40835.3
547.28	40947.94
547.48	40392.94
547.68	41130.21
547.88	40583.4
548.081	41513.18
548.281	40931.56
548.481	40837.35
548.681	41359.58
548.881	40804.58
549.081	40648.94
549.28	40671.46
549.48	40986.85
549.68	40988.9
549.88	41392.35
550.08	40745.19
550.28	40943.84
550.48	40622.31
550.68	41036
550.88	40837.35
551.08	40638.7
551.279	41230.56
551.479	40767.72
551.679	40579.31
551.879	40923.36
552.079	41068.77
552.278	40792.29
552.478	41093.35
552.678	40882.41
552.878	41044.2
553.077	40784.1
553.277	40358.13
553.477	41154.79
553.676	40990.95
553.876	40986.85
554.076	40833.25
554.275	41306.34
554.475	40534.25
554.674	40564.97
554.874	40968.42
555.074	41056.48
555.273	40945.89
555.473	41277.66
555.672	41068.77
555.872	41218.27
556.071	41222.37
556.271	41255.14
556.47	41111.78
556.67	40638.7
556.869	41087.2
557.068	40923.36
557.268	41003.24
557.467	41189.6
557.667	40960.23
557.866	40986.85
558.065	41312.48
558.265	40718.57
558.464	40732.9
558.663	41279.71
558.863	40773.86
559.062	41629.91
559.261	40915.17
559.461	41519.32
559.66	40884.45
559.859	41216.22
560.058	41021.67
560.258	41013.48
560.457	40661.22
560.656	41349.34
560.855	40784.1
561.054	41529.56
561.253	40683.75
561.453	40876.26
561.652	41134.31
561.851	41201.89
562.05	40880.36
562.249	40722.66
562.448	41236.7
562.647	40747.24
562.846	41042.15
563.045	40589.55
563.244	40601.83
563.443	40982.76
563.642	40831.21
563.841	40620.27
564.04	40300.78
564.239	40743.14
564.438	40403.18
564.637	40554.73
564.836	40780.01
565.035	40188.14
565.234	40890.6
565.432	40407.28
565.631	40280.3
565.83	40679.66
566.029	40128.75
566.228	39790.84
566.427	40012.02
566.625	39946.48
566.824	40016.11
567.023	40059.12
567.222	39700.73
567.42	40265.97
567.619	39870.71
567.818	39776.5
568.016	39682.3
568.215	40012.02
568.414	39807.22
568.612	39862.52
568.811	39627
569.01	39704.82
569.208	39241.98
569.407	39604.47
569.605	39106.82
569.804	39383.29
570.002	39098.62
570.201	38990.08
570.4	39106.82
570.598	38859.01
570.797	38652.17
570.995	38977.79
571.193	38240.53
571.392	38832.39
571.59	38308.11
571.789	38592.78
571.987	38611.21
572.186	38334.73
572.384	38252.81
572.582	37900.56
572.781	38572.3
572.979	37597.46
573.177	37921.04
573.376	38095.12
573.574	37808.4
573.772	37921.04
573.971	37622.04
574.169	37232.93
574.367	37171.49
574.565	37681.43
574.763	37144.86
574.962	37073.18
575.16	36888.87
575.358	37142.81
575.556	36751.65
575.754	36931.87
575.952	36401.45
576.151	37056.8
576.349	36219.18
576.547	36288.81
576.745	36464.94
576.943	36393.26
577.141	36086.06
577.339	36129.07
577.537	36192.56
577.735	35885.36
577.933	35828.02
578.131	35799.35
578.329	36110.64
578.527	35475.77
578.725	35385.66
578.923	35610.93
579.121	35453.24
579.319	35385.66
579.516	35283.26
579.714	34922.82
579.912	34763.07
580.11	35105.09
580.308	35119.42
580.506	34996.54
580.704	34128.2
580.901	34621.77
581.099	34687.3
581.297	34595.14
581.495	34271.56
581.692	34300.23
581.89	33980.75
582.088	34324.81
582.285	33720.66
582.483	34238.79
582.681	33712.47
582.878	33857.87
583.076	33444.18
583.274	33915.22
583.471	33294.68
583.669	33487.19
583.866	33186.14
584.064	33487.19
584.262	32960.86
584.459	33694.04
584.657	32911.71
584.854	33257.82
585.052	32600.42
585.249	32827.74
585.447	32924
585.644	32751.97
585.841	32864.61
586.039	32856.42
586.236	32336.23
586.434	32325.99
586.631	32133.48
586.828	32647.52
587.026	32358.76
587.223	32229.74
587.42	32000.37
587.618	32045.42
587.815	32180.59
588.012	31471.99
588.21	31390.07
588.407	32188.78
588.604	31660.4
588.801	31369.59
588.999	31566.2
589.196	31164.79
589.393	31418.74
589.59	31256.95
589.787	31113.59
589.984	31213.95
590.182	30728.58
590.379	31089.02
590.576	30378.37
590.773	31224.18
590.97	30519.68
591.167	30953.85
591.364	30431.62
591.561	30759.3
591.758	30716.29
591.955	30546.31
592.152	30816.64
592.349	30448
592.546	30308.74
592.743	30749.06
592.94	29901.2
593.137	30364.04
593.334	30214.54
593.531	29743.5
593.727	30491.01
593.924	30230.92
594.121	29936.01
594.318	30271.88
594.515	29692.3
594.712	30110.09
594.908	29641.11
595.105	29759.89
595.302	29671.82
595.499	29567.38
595.696	29708.69
595.892	29684.11
596.089	29667.73
596.286	29888.91
596.482	29168.02
596.679	29319.57
596.876	29405.59
597.072	29321.62
597.269	29368.73
597.466	29483.41
597.662	29225.37
597.859	29102.49
598.055	29376.92
598.252	29094.3
598.448	29184.41
598.645	29041.05
598.841	29262.23
599.038	28985.76
599.234	29305.24
599.431	28729.76
599.627	28791.2
599.824	28969.37
600.02	28866.97
600.217	28797.34
600.413	28871.07
600.609	28600.74
600.806	28307.88
601.002	28998.04
601.198	28746.14
601.395	28993.95
601.591	28664.22
601.787	28727.71
601.984	28621.22
602.18	28932.51
602.376	28721.57
602.572	28656.03
602.769	29010.33
602.965	28699.04
603.161	28946.84
603.357	28651.94
603.553	28516.77
603.75	28688.8
603.946	28262.82
604.142	28598.69
604.338	28559.78
604.534	28907.93
604.73	28625.31
604.926	28565.92
605.122	28866.97
605.318	28371.36
605.514	28447.14
605.71	28641.7
605.906	28805.53
606.102	28955.04
606.298	28905.88
606.494	29036.95
606.69	28991.9
606.886	28572.07
607.082	28666.27
607.278	29129.11
607.474	28635.55
607.67	29141.4
607.866	28633.5
608.062	29182.36
608.257	28877.21
608.453	28916.12
608.649	29395.35
608.845	28633.5
609.041	28873.12
609.236	28729.76
609.432	28897.69
609.628	29184.41
609.824	29196.7
610.019	29211.03
610.215	28938.65
610.411	29180.31
610.606	28807.58
610.802	29020.57
610.998	29335.96
611.193	29188.5
611.389	28979.61
611.584	29366.68
611.78	28819.87
611.976	28932.51
612.171	29432.21
612.367	29200.79
612.562	29364.63
612.758	29082.01
612.953	28838.3
613.149	29338.01
613.344	28783.01
613.539	29739.41
613.735	28907.93
613.93	29569.43
614.126	29338.01
614.321	29532.56
614.517	29301.14
614.712	29354.39
614.907	29237.66
615.103	29503.89
615.298	29086.11
615.493	29268.37
615.688	29249.94
615.884	29700.5
616.079	29237.66
616.274	29598.1
616.47	29292.95
616.665	29446.55
616.86	29260.18
617.055	29309.33
617.25	29198.74
617.445	29651.34
617.641	28785.05
617.836	29290.9
618.031	28809.63
618.226	29221.27
618.421	28826.01
618.616	29331.86
618.811	28484
619.006	29149.59
619.201	28508.58
619.396	29020.57
619.591	28340.64
619.786	28967.32
619.981	28062.12
620.176	28572.07
620.371	28285.35
620.566	28330.41
620.761	28285.35
620.956	28311.97
621.151	27699.63
621.346	28094.89
621.541	27675.06
621.735	27879.85
621.93	27449.78
622.125	27294.13
622.32	27138.49
622.515	27541.94
622.709	27140.54
622.904	27118.01
623.099	26739.13
623.294	26792.38
623.488	26610.11
623.683	26821.05
623.878	26204.61
624.072	26444.23
624.267	26526.14
624.462	26429.89
624.656	26264
624.851	26081.74
625.046	26094.02
625.24	25872.84
625.435	25549.26
625.629	25512.4
625.824	25420.24
626.018	25407.95
626.213	25154.01
626.407	25174.49
626.602	25125.33
626.796	24768.99
626.991	25024.98
627.185	24807.9
627.38	24488.42
627.574	24402.4
627.768	24091.11
627.963	24044.01
628.157	24160.74
628.352	23998.95
628.546	23759.34
628.74	23816.68
628.935	23478.77
629.129	23814.63
629.323	23220.72
629.517	23429.62
629.712	23020.02
629.906	23044.6
630.1	22862.33
630.294	22983.16
630.489	22667.77
630.683	22835.7
630.877	22526.46
631.071	22274.56
631.265	22518.27
631.459	22411.78
631.653	22131.2
631.848	22321.66
632.042	21996.04
632.236	21895.69
632.43	21641.74
632.624	21711.37
632.818	21625.36
633.012	21037.59
633.206	21381.65
633.4	21133.84
633.594	20609.56
633.788	21039.64
633.982	20978.2
634.176	20851.22
634.369	20873.75
634.563	20519.45
634.757	20279.84
634.951	20638.23
635.145	20519.45
635.339	20345.37
635.533	19876.39
635.726	20042.28
635.92	19753.51
636.114	19823.14
636.308	19655.21
636.501	19585.58
636.695	19481.13
636.889	19628.59
637.083	19350.06
637.276	19128.88
637.47	18938.42
637.664	18811.45
637.857	19042.87
638.051	18672.18
638.244	18557.5
638.438	18760.25
638.632	18276.93
638.825	18694.71
639.019	18041.41
639.212	18045.51
639.406	17977.92
639.599	18010.69
639.793	18123.33
639.986	17506.89
640.18	17818.18
640.373	17597
640.567	17517.13
640.76	17381.96
640.954	17125.97
641.147	17183.31
641.34	17046.1
641.534	17003.09
641.727	17259.09
641.92	16765.53
642.114	16699.99
642.307	16607.83
642.5	16601.69
642.694	16231.01
642.887	16263.77
643.08	16554.58
643.273	16081.5
643.467	16112.22
643.66	15809.12
643.853	16054.88
644.046	15800.93
644.239	15546.98
644.432	15676.01
644.626	15389.29
644.819	15411.82
645.012	15161.97
645.205	15276.65
645.398	15366.76
645.591	14842.48
645.784	14944.88
645.977	14697.08
646.17	14629.49
646.363	14707.32
646.556	14529.14
646.749	14637.69
646.942	14477.94
647.135	14436.99
647.328	14236.28
647.521	14166.65
647.714	13927.04
647.907	14035.58
648.099	14027.39
648.292	13896.32
648.485	13886.08
648.678	13730.44
648.871	13763.2
649.064	13527.69
649.256	13556.36
649.449	13513.35
649.642	13398.66
649.835	13322.89
650.027	13380.23
650.22	13144.72
650.413	13001.36
650.605	12974.74
650.798	12853.91
650.991	12737.17
651.183	12982.93
651.376	12485.27
651.568	12534.42
651.761	12704.4
651.954	12522.13
652.146	12403.35
652.339	12354.2
652.531	12440.22
652.724	12327.58
652.916	12165.79
653.109	12065.44
653.301	12235.42
653.494	11854.5
653.686	12024.48
653.879	11958.94
654.071	11811.49
654.263	11582.12
654.456	11657.89
654.648	11684.52
654.84	11483.81
655.033	11389.61
655.225	11391.66
655.417	11317.93
655.61	11313.83
655.802	11242.15
655.994	11211.43
656.186	11295.4
656.379	11012.78
656.571	11154.09
656.763	10859.18
656.955	10949.29
657.148	10943.15
657.34	10838.7
657.532	10711.73
657.724	10707.63
657.916	10807.98
658.108	10642.1
658.3	10574.52
658.492	10498.74
658.684	10443.45
658.876	10359.48
659.068	10427.06
659.26	10121.91
659.452	10386.1
659.644	10109.63
659.836	10037.95
660.028	9990.84
660.22	9702.08
660.412	9939.65
660.604	9706.18
660.796	9804.48
660.988	9560.77
661.18	9599.68
661.372	9618.11
661.563	9708.23
661.755	9362.12
661.947	9562.82
662.139	9398.98
662.331	9288.39
662.522	9175.75
662.714	9296.58
662.906	9206.47
663.097	9226.95
663.289	8919.76
663.481	9132.75
663.673	8880.85
663.864	8905.42
664.056	8962.76
664.247	8803.02
664.439	8700.62
664.631	8846.03
664.822	8667.86
665.014	8639.19
665.205	8698.58
665.397	8567.51
665.588	8315.61
665.78	8331.99
665.971	8364.76
666.163	8331.99
666.354	8047.32
666.546	8321.75
666.737	8162.01
666.929	8295.13
667.12	8075.99
667.311	8164.06
667.503	7940.83
667.694	7891.68
667.885	7944.92
668.077	8043.23
668.268	7850.72
668.459	7807.71
668.651	7850.72
668.842	7750.37
669.033	7832.29
669.224	7854.81
669.416	7871.2
669.607	7727.84
669.798	7701.22
669.989	7629.54
670.18	7432.93
670.371	7420.64
670.563	7387.88
670.754	7502.56
670.945	7340.77
671.136	7410.4
671.327	7334.63
671.518	7312.1
671.709	7228.14
671.9	7482.08
672.091	7019.24
672.282	7338.73
672.473	7127.78
672.664	7080.68
672.855	7217.9
673.046	7095.02
673.237	7195.37
673.428	7082.73
673.619	7115.5
673.809	7054.06
674	7060.2
674.191	6851.31
674.382	6879.98
674.573	7015.15
674.764	6830.83
674.954	6900.46
675.145	6687.47
675.336	6644.46
675.527	6732.53
675.717	6798.06
675.908	6740.72
676.099	6765.29
676.289	6759.15
676.48	6552.31
676.671	6654.7
676.861	6626.03
677.052	6628.08
677.243	6562.55
677.433	6585.07
677.624	6535.92
677.814	6388.47
678.005	6488.82
678.195	6609.65
678.386	6511.35
678.576	6384.37
678.767	6370.04
678.957	6613.74
679.148	6548.21
679.338	6470.39
679.529	6439.67
679.719	6306.55
679.909	6511.35
680.1	6290.17
680.29	6488.82
680.481	6267.64
680.671	6324.98
680.861	6200.05
681.052	6392.56
681.242	6228.73
681.432	6218.49
681.622	6099.7
681.813	6095.61
682.003	6339.32
682.193	6165.24
682.383	6079.22
682.573	6081.27
682.764	6120.18
682.954	6077.18
683.144	6177.53
683.334	6138.62
683.524	6124.28
683.714	6093.56
683.904	6193.91
684.094	6089.46
684.284	6111.99
684.474	6173.43
684.664	6101.75
684.854	6054.65
685.044	5847.8
685.234	5917.44
685.424	5849.85
685.614	5823.23
685.804	5972.73
685.994	5921.53
686.184	5896.96
686.374	5870.33
686.564	6030.07
686.753	5765.89
686.943	5747.45
687.133	5939.96
687.323	5700.35
687.513	5575.42
687.702	5624.58
687.892	5681.92
688.082	5573.38
688.272	5706.49
688.461	5589.76
688.651	5765.89
688.841	5427.97
689.03	5550.85
689.22	5556.99
689.41	5626.62
689.599	5561.09
689.789	5460.74
689.979	5559.04
690.168	5602.05
690.358	5567.23
690.547	5307.14
690.737	5397.25
690.926	5542.66
691.116	5311.24
691.305	5493.51
691.495	5233.41
691.684	5413.63
691.874	5264.13
692.063	5401.35
692.252	5217.03
692.442	5251.85
692.631	5223.17
692.82	5212.93
693.01	5159.69
693.199	5176.07
693.388	5171.97
693.578	5141.25
693.767	5128.97
693.956	5161.73
694.146	5071.62
694.335	4963.08
694.524	5040.9
694.713	5073.67
694.902	4979.47
695.092	5055.24
695.281	5012.23
695.47	5145.35
695.659	4956.94
695.848	4926.22
696.037	4981.51
696.226	4872.97
696.415	4961.03
696.604	4905.74
696.793	4782.86
696.982	4868.88
697.171	4739.85
697.36	4803.34
697.549	4821.77
697.738	4729.61
697.927	4848.4
698.116	4627.21
698.305	4684.56
698.494	4721.42
698.683	4702.99
698.872	4582.16
699.061	4770.57
699.25	4541.2
699.438	4723.47
699.627	4631.31
699.816	4692.75
700.005	4674.32
700.193	4557.58
700.382	4750.09
700.571	4737.81
700.76	4606.74
700.948	4610.83
701.137	4504.34
701.326	4690.7
701.514	4549.39
701.703	4580.11
701.892	4438.8
702.08	4494.1
702.269	4494.1
702.457	4414.23
702.646	4504.34
702.834	4317.97
703.023	4440.85
703.212	4424.47
703.4	4485.9
703.589	4279.06
703.777	4475.67
703.965	4363.03
704.154	4176.66
704.342	4250.39
704.531	4254.48
704.719	4195.09
704.907	4264.72
705.096	4111.13
705.284	4223.76
705.472	4127.51
705.661	4299.54
705.849	4320.02
706.037	4285.2
706.226	4033.3
706.414	4311.83
706.602	4143.89
706.79	4184.85
706.979	4055.83
707.167	4139.8
707.355	3975.96
707.543	4031.26
707.731	4131.61
707.919	4061.98
708.107	3846.94
708.296	3902.23
708.484	3818.27
708.672	3955.48
708.86	3988.25
709.048	3908.38
709.236	3916.57
709.424	3963.67
709.612	3902.23
709.8	3898.14
709.988	3834.65
710.176	4016.92
710.364	3924.76
710.551	3760.92
710.739	3726.11
710.927	3785.5
711.115	3746.59
711.303	3935
711.491	3787.55
711.679	3703.58
711.866	3783.45
712.054	3750.68
712.242	3693.34
712.43	3717.92
712.617	3621.66
712.805	3785.5
712.993	3713.82
713.181	3676.96
713.368	3668.77
713.556	3697.44
713.744	3519.26
713.931	3758.88
714.119	3560.22
714.306	3701.53
714.494	3595.04
714.682	3595.04
714.869	3506.98
715.057	3562.27
715.244	3373.86
715.432	3472.16
715.619	3443.49
715.807	3517.22
715.994	3463.97
716.182	3529.5
716.369	3652.38
716.556	3447.58
716.744	3392.29
716.931	3431.2
717.119	3322.66
717.306	3382.05
717.493	3439.39
717.681	3341.09
717.868	3283.75
718.055	3392.29
718.242	3398.43
718.43	3312.42
718.617	3255.08
718.804	3212.07
718.991	3316.51
719.179	3414.82
719.366	3287.84
719.553	3218.21
719.74	3238.69
719.927	3199.78
720.114	3195.68
720.301	3212.07
720.488	3171.11
720.676	3177.25
720.863	3210.02
721.05	3300.13
721.237	3052.33
721.424	3160.87
721.611	3160.87
721.798	2997.03
721.985	3119.91
722.172	3130.15
722.358	3054.37
722.545	3070.76
722.732	3103.53
722.919	3083.05
723.106	3029.8
723.293	3089.19
723.48	3009.32
723.667	2956.07
723.853	3095.33
724.04	2972.46
724.227	3056.42
724.414	2915.11
724.6	3078.95
724.787	3107.62
724.974	3074.85
725.161	2833.19
725.347	2908.97
725.534	2960.17
725.72	2861.87
725.907	2865.96
726.094	2939.69
726.28	2800.43
726.467	2829.1
726.653	2767.66
726.84	2900.78
727.027	2839.34
727.213	2784.04
727.4	2892.59
727.586	2726.7
727.773	2857.77
727.959	2736.94
728.145	2835.24
728.332	2646.83
728.518	2857.77
728.705	2847.53
728.891	2706.22
729.077	2726.7
729.264	2648.88
729.45	2743.08
729.636	2636.59
729.823	2659.12
730.009	2808.62
730.195	2644.78
730.382	2781.99
730.568	2663.21
730.754	2704.17
730.94	2763.56
731.126	2700.08
731.313	2571.05
731.499	2679.6
731.685	2685.74
731.871	2745.13
732.057	2677.55
732.243	2571.05
732.429	2702.12
732.615	2669.36
732.801	2618.16
732.987	2579.25
733.173	2530.09
733.359	2575.15
733.545	2532.14
733.731	2460.46
733.917	2677.55
734.103	2589.49
734.289	2562.86
734.475	2472.75
734.661	2591.53
734.847	2542.38
735.033	2517.81
735.219	2464.56
735.404	2368.31
735.59	2493.23
735.776	2478.9
735.962	2433.84
736.148	2505.52
736.333	2538.29
736.519	2505.52
736.705	2456.37
736.89	2489.14
737.076	2489.14
737.262	2351.92
737.447	2374.45
737.633	2380.59
737.819	2474.8
738.004	2390.83
738.19	2415.41
738.375	2276.15
738.561	2458.42
738.747	2212.66
738.932	2259.76
739.118	2470.7
739.303	2468.66
739.489	2304.82
739.674	2364.21
739.859	2366.26
740.045	2392.88
740.23	2206.52
740.416	2247.48
740.601	2255.67
740.786	2218.8
740.972	2300.72
741.157	2204.47
741.342	2188.08
741.528	2227
741.713	2239.28
741.898	2138.93
742.084	2100.02
742.269	2161.46
742.454	2138.93
742.639	2114.36
742.824	2181.94
743.01	2157.36
743.195	2192.18
743.38	2100.02
743.565	2016.05
743.75	2032.44
743.935	2063.16
744.12	2179.89
744.305	2063.16
744.49	2005.81
744.675	2087.73
744.86	1983.29
745.045	2026.29
745.23	1981.24
745.415	1956.66
745.6	2020.15
745.785	1942.33
745.97	1950.52
746.155	1948.47
746.34	1925.94
746.525	1909.56
746.71	1985.34
746.895	1841.98
747.079	1893.18
747.264	1903.42
747.449	1841.98
747.634	1856.31
747.819	1891.13
748.003	1880.89
748.188	1807.16
748.373	1686.33
748.557	1796.92
748.742	1801.02
748.927	1811.26
749.111	1690.43
749.296	1704.76
749.481	1770.3
749.665	1735.48
749.85	1723.2
750.034	1702.72
750.219	1706.81
750.404	1678.14
750.588	1645.37
750.773	1639.23
750.957	1727.29
751.141	1647.42
751.326	1604.41
751.51	1596.22
751.695	1596.22
751.879	1518.4
752.064	1614.65
752.248	1614.65
752.432	1575.74
752.617	1678.14
752.801	1508.16
752.985	1489.73
753.17	1563.45
753.354	1555.26
753.538	1440.58
753.722	1491.77
753.907	1426.24
754.091	1407.81
754.275	1469.25
754.459	1532.73
754.643	1448.77
754.828	1385.28
755.012	1377.09
755.196	1375.04
755.38	1391.42
755.564	1338.18
755.748	1377.09
755.932	1366.85
756.116	1426.24
756.3	1342.27
756.484	1303.36
756.668	1344.32
756.852	1327.94
757.036	1405.76
757.22	1274.69
757.404	1243.97
757.588	1342.27
757.772	1309.51
757.956	1246.02
758.14	1231.68
758.323	1237.83
758.507	1252.16
758.691	1205.06
758.875	1211.2
759.059	1295.17
759.242	1139.52
759.426	1203.01
759.61	1170.24
759.794	1170.24
759.977	1131.33
760.161	1252.16
760.345	1141.57
760.528	1221.44
760.712	1188.68
760.895	1076.04
761.079	1139.52
761.263	1090.37
761.446	1008.45
761.63	1092.42
761.813	1164.1
761.997	1063.75
762.18	1049.41
762.364	1071.94
762.547	1063.75
762.731	1094.47
762.914	1082.18
763.098	1106.76
763.281	1082.18
763.464	1030.98
763.648	1092.42
763.831	1043.27
764.015	850.76
764.198	990.02
764.381	1069.89
764.564	1041.22
764.748	1018.69
764.931	947.01
765.114	1016.65
765.297	1024.84
765.481	1047.37
765.664	1047.37
765.847	951.11
766.03	998.21
766.213	1024.84
766.397	959.3
766.58	910.15
766.763	992.07
766.946	918.34
767.129	979.78
767.312	938.82
767.495	1002.31
767.678	1024.84
767.861	998.21
768.044	910.15
768.227	975.69
768.41	932.68
768.593	1028.93
768.776	983.88
768.959	1006.41
769.142	1000.26
769.324	895.82
769.507	957.25
769.69	832.33
769.873	899.91
770.056	961.35
770.239	899.91
770.421	949.06
770.604	930.63
770.787	904.01
770.97	889.67
771.152	893.77
771.335	904.01
771.518	768.84
771.7	951.11
771.883	940.87
772.066	813.9
772.248	834.38
772.431	824.14
772.613	850.76
772.796	826.18
772.978	836.42
773.161	908.1
773.343	803.66
773.526	793.42
773.708	768.84
773.891	799.56
774.073	838.47
774.256	791.37
774.438	965.45
774.621	688.97
774.803	803.66
774.985	756.55
775.168	795.47
775.35	777.03
775.532	820.04
775.715	754.51
775.897	777.03
776.079	762.7
776.261	721.74
776.444	682.83
776.626	744.27
776.808	711.5
776.99	648.01
777.173	738.12
777.355	691.02
777.537	658.25
777.719	817.99
777.901	639.82
778.083	705.35
778.265	562
778.447	711.5
778.629	572.24
778.811	682.83
778.993	693.07
779.175	709.45
779.357	705.35
779.539	629.58
779.721	623.44
779.903	670.54
780.085	580.43
780.267	605
780.449	623.44
780.631	623.44
780.812	562
780.994	607.05
781.176	641.87
781.358	613.2
781.54	598.86
781.721	596.81
781.903	613.2
782.085	584.52
782.267	641.87
782.448	564.04
782.63	615.24
782.812	596.81
782.993	572.24
783.175	613.2
783.357	498.51
783.538	574.28
783.72	547.66
783.901	619.34
784.083	555.85
784.264	533.33
784.446	500.56
784.627	521.04
784.809	547.66
784.99	527.18
785.172	490.32
785.353	508.75
785.535	473.93
785.716	490.32
785.897	459.6
786.079	469.84
786.26	535.37
786.441	543.57
786.623	428.88
786.804	467.79
786.985	432.97
787.167	521.04
787.348	379.73
787.529	437.07
787.71	541.52
787.891	416.59
788.073	430.93
788.254	371.54
788.435	424.78
788.616	422.73
788.797	424.78
788.978	435.02
789.159	361.3
789.34	410.45
789.522	262.99
789.703	375.63
789.884	416.59
790.065	416.59
790.246	408.4
790.427	424.78
790.607	408.4
790.788	334.67
790.969	334.67
791.15	371.54
791.331	412.5
791.512	375.63
791.693	355.15
791.874	394.06
792.054	420.69
792.235	437.07
792.416	301.9
792.597	303.95
792.778	398.16
792.958	396.11
793.139	367.44
793.32	346.96
793.5	342.86
793.681	389.97
793.862	330.58
794.042	367.44
794.223	232.27
794.404	344.91
794.584	316.24
794.765	367.44
794.945	330.58
795.126	301.9
795.306	267.09
795.487	314.19
795.667	346.96
795.848	297.81
796.028	344.91
796.209	293.71
796.389	377.68
796.57	396.11
796.75	240.47
796.93	301.9
797.111	287.57
797.291	301.9
797.471	334.67
797.652	363.34
797.832	269.14
798.012	236.37
798.192	285.52
798.373	256.85
798.553	189.27
798.733	271.19
798.913	260.95
799.093	277.33
799.274	314.19
799.454	238.42
799.634	279.38
799.814	310.1
799.994	326.48
800.174	260.95
800.354	344.91
800.534	256.85
800.714	258.9
800.894	172.88
801.074	224.08
801.254	203.6
801.434	236.37
801.614	238.42
801.794	213.84
801.974	1082.18
802.154	224.08
802.334	297.81
802.514	252.75
802.693	289.62
802.873	189.27
803.053	262.99
803.233	306
803.413	246.61
803.592	156.5
803.772	213.84
803.952	205.65
804.131	224.08
804.311	232.27
804.491	244.56
804.67	273.23
804.85	203.6
805.03	179.03
805.209	213.84
805.389	164.69
805.568	183.12
805.748	154.45
805.928	127.83
806.107	295.76
806.287	164.69
806.466	213.84
806.646	252.75
806.825	101.2
807.004	148.31
807.184	191.31
807.363	170.83
807.543	129.88
807.722	119.64
807.901	215.89
808.081	213.84
808.26	113.49
808.439	191.31
808.619	195.41
808.798	207.7
808.977	146.26
809.156	195.41
809.336	265.04
809.515	230.23
809.694	121.68
809.873	174.93
810.052	187.22
810.231	271.19
810.411	121.68
810.59	228.18
810.769	103.25
810.948	250.71
811.127	140.12
811.306	99.16
811.485	170.83
811.664	199.51
811.843	129.88
812.022	213.84
812.201	142.16
812.38	97.11
812.559	80.72
812.737	146.26
812.916	146.26
813.095	121.68
813.274	174.93
813.453	125.78
813.632	150.36
813.811	222.03
813.989	117.59
814.168	115.54
814.347	129.88
814.526	222.03
814.704	103.25
814.883	197.46
815.062	121.68
815.24	187.22
815.419	123.73
815.598	162.64
815.776	146.26
815.955	195.41
816.133	119.64
816.312	121.68
816.49	222.03
816.669	97.11
816.847	129.88
817.026	107.35
817.204	115.54
817.383	142.16
817.561	9.05
817.74	236.37
817.918	113.49
818.097	113.49
818.275	111.44
818.453	123.73
818.632	142.16
818.81	158.55
818.988	127.83
819.167	150.36
819.345	140.12
819.523	105.3
819.701	101.2
819.879	121.68
820.058	133.97
820.236	181.07
820.414	39.76
820.592	15.19
820.77	80.72
820.948	43.86
821.127	113.49
821.305	97.11
821.483	97.11
821.661	107.35
821.839	68.44
822.017	84.82
822.195	41.81
822.373	138.07
822.551	72.53
822.729	191.31
822.907	56.15
823.085	129.88
823.262	86.87
823.44	33.62
823.618	133.97
823.796	64.34
823.974	43.86
824.152	56.15
824.329	56.15
824.507	121.68
824.685	187.22
824.863	47.96
825.04	97.11
825.218	105.3
825.396	113.49
825.574	172.88
825.751	140.12
825.929	121.68
826.107	66.39
826.284	31.57
826.462	162.64
826.639	64.34
826.817	101.2
826.994	56.15
827.172	56.15
827.349	156.5
827.527	140.12
827.704	101.2
827.882	170.83
828.059	74.58
828.237	31.57
828.414	74.58
828.591	33.62
828.769	109.4
828.946	82.77
829.124	129.88
829.301	131.92
829.478	39.76
829.655	150.36
829.833	88.92
830.01	82.77
830.187	82.77
830.364	142.16
830.542	170.83
830.719	105.3
830.896	146.26
831.073	95.06
831.25	80.72
831.427	181.07
831.604	58.2
831.782	47.96
831.959	101.2
832.136	45.91
832.313	113.49
832.49	-17.58
832.667	74.58
832.844	52.05
833.021	162.64
833.198	23.38
833.374	76.63
833.551	93.01
833.728	64.34
833.905	146.26
834.082	23.38
834.259	78.68
834.436	121.68
834.612	17.24
834.789	47.96
834.966	25.43
835.143	107.35
835.319	-1.19
835.496	121.68
835.673	72.53
835.85	146.26
836.026	68.44
836.203	93.01
836.38	50
836.556	97.11
836.733	95.06
836.909	136.02
837.086	7
837.262	-58.54
837.439	15.19
837.616	17.24
837.792	7
837.968	68.44
838.145	7
838.321	70.48
838.498	66.39
838.674	-25.77
838.851	117.59
839.027	-46.25
839.203	74.58
839.38	17.24
839.556	-1.19
839.732	72.53
839.909	-17.58
840.085	56.15
840.261	33.62
840.437	150.36
840.614	25.43
840.79	35.67
840.966	64.34
841.142	107.35
841.318	17.24
841.494	133.97
841.671	66.39
841.847	-9.39
842.023	105.3
842.199	47.96
842.375	33.62
842.551	-9.39
842.727	64.34
842.903	154.45
843.079	23.38
843.255	88.92
843.431	50
843.607	50
843.783	-9.39
843.959	45.91
844.134	-19.63
844.31	121.68
844.486	-33.96
844.662	56.15
844.838	60.24
845.013	107.35
845.189	62.29
845.365	9.05
845.541	58.2
845.716	37.72
845.892	64.34
846.068	0.85
846.244	105.3
846.419	76.63
846.595	-15.53
846.77	-56.49
846.946	93.01
847.122	-9.39
847.297	74.58
847.473	52.05
847.648	-58.54
847.824	54.1
847.999	-33.96
848.175	7
848.35	62.29
848.526	107.35
848.701	64.34
848.876	52.05
849.052	64.34
849.227	19.29
849.403	-60.59
849.578	76.63
849.753	62.29
849.929	97.11
850.104	11.09
850.279	76.63
850.454	82.77
850.63	17.24
850.805	25.43
850.98	80.72
851.155	-5.29
851.33	39.76
851.505	13.14
851.681	82.77
851.856	60.24
852.031	74.58
852.206	39.76
852.381	39.76
852.556	35.67
852.731	66.39
852.906	47.96
853.081	56.15
853.256	47.96
853.431	78.68
853.606	0.85
853.781	29.52
853.956	-89.26
854.131	43.86
854.305	7
854.48	-15.53
854.655	15.19
854.83	7
855.005	7
855.18	35.67
855.354	56.15
855.529	56.15
855.704	7
855.879	35.67
856.053	-42.15
856.228	15.19
856.403	-17.58
856.577	-52.39
856.752	43.86
856.926	-3.24
857.101	-33.96
857.276	-54.44
857.45	78.68
857.625	-9.39
857.799	-50.35
857.974	-21.67
858.148	-9.39
858.323	15.19
858.497	33.62
858.672	78.68
858.846	-1.19
859.02	68.44
859.195	-23.72
859.369	33.62
859.543	25.43
859.718	31.57
859.892	37.72
860.066	15.19
860.241	39.76
860.415	-62.63
860.589	47.96
860.763	-21.67
860.938	17.24
861.112	7
861.286	-50.35
861.46	41.81
861.634	-17.58
861.808	64.34
861.982	-33.96
862.157	31.57
862.331	7
862.505	39.76
862.679	-25.77
862.853	-13.48
863.027	21.33
863.201	2.9
863.375	9.05
863.549	13.14
863.722	68.44
863.896	29.52
864.07	-25.77
864.244	72.53
864.418	33.62
864.592	17.24
864.766	93.01
864.939	66.39
865.113	41.81
865.287	78.68
865.461	-36.01
865.634	58.2
865.808	-33.96
865.982	11.09
866.156	-33.96
866.329	-64.68
866.503	-3.24
866.676	56.15
866.85	-7.34
867.024	15.19
867.197	29.52
867.371	117.59
867.544	9.05
867.718	17.24
867.891	39.76
868.065	-54.44
868.238	62.29
868.412	56.15
868.585	-17.58
868.759	39.76
868.932	21.33
869.105	-33.96
869.279	47.96
869.452	-5.29
869.625	52.05
869.799	-54.44
869.972	-66.73
870.145	17.24
870.319	-33.96
870.492	11.09
870.665	11.09
870.838	72.53
871.011	-31.91
871.185	-50.35
871.358	-29.87
871.531	60.24
871.704	-58.54
871.877	23.38
872.05	-9.39
872.223	-48.3
872.396	27.48
872.569	15.19
872.742	-119.98
872.915	17.24
873.088	9.05
873.261	0.85
873.434	15.19
873.607	-15.53
873.78	23.38
873.953	-9.39
874.126	-50.35
874.299	43.86
874.471	-31.91
874.644	-17.58
874.817	23.38
874.99	105.3
875.163	-50.35
875.335	-9.39
875.508	56.15
875.681	43.86
875.853	-33.96
876.026	43.86
876.199	0.85
876.371	47.96
876.544	-3.24
876.717	47.96
876.889	68.44
877.062	86.87
877.234	27.48
877.407	58.2
877.579	15.19
877.752	-21.67
877.924	7
878.097	27.48
878.269	58.2
878.442	15.19
878.614	74.58
878.786	58.2
878.959	-23.72
879.131	35.67
879.303	-95.4
879.476	50
879.648	52.05
879.82	129.88
879.993	-33.96
880.165	31.57
880.337	-68.78
880.509	39.76
880.681	-31.91
880.854	-25.77
881.026	7
881.198	-29.87
881.37	64.34
881.542	7
881.714	-44.2
881.886	-7.34
882.058	15.19
882.23	-31.91
882.402	-33.96
882.574	-15.53
882.746	7
882.918	23.38
883.09	52.05
883.262	-19.63
883.434	-83.11
883.606	-38.06
883.778	-42.15
883.95	90.96
884.122	-1.19
884.293	72.53
884.465	9.05
884.637	-9.39
884.809	-54.44
884.98	7
885.152	-5.29
885.324	33.62
885.496	-25.77
885.667	-64.68
885.839	45.91
886.011	50
886.182	7
886.354	11.09
886.525	-9.39
886.697	58.2
886.869	-46.25
887.04	-70.83
887.212	-9.39
887.383	72.53
887.555	-33.96
887.726	-1.19
887.897	39.76
888.069	23.38
888.24	19.29
888.412	-48.3
888.583	-15.53
888.754	64.34
888.926	-11.43
889.097	-19.63
889.268	-38.06
889.44	-9.39
889.611	29.52
889.782	-58.54
889.953	-56.49
890.125	-1.19
890.296	39.76
890.467	-17.58
890.638	27.48
890.809	13.14
890.98	-54.44
891.151	-64.68
891.323	68.44
891.494	-7.34
891.665	-5.29
891.836	-50.35
892.007	-87.21
892.178	27.48
892.349	11.09
892.52	-54.44
892.691	-7.34
892.862	-42.15
893.032	-60.59
893.203	60.24
893.374	-3.24
893.545	9.05
893.716	27.48
893.887	-5.29
894.057	-13.48
894.228	47.96
894.399	-48.3
894.57	11.09
894.74	-23.72
894.911	15.19
895.082	-27.82
895.253	29.52
895.423	-1.19
895.594	68.44
895.764	25.43
895.935	-42.15
896.106	-81.07
896.276	23.38
896.447	-33.96
896.617	72.53
896.788	-62.63
896.958	95.06
897.129	25.43
897.299	-72.87
897.47	2.9
897.64	-5.29
897.81	-33.96
897.981	-103.59
898.151	72.53
898.322	-1.19
898.492	76.63
898.662	-23.72
898.832	11.09
899.003	39.76
899.173	25.43
899.343	0.85
899.513	-13.48
