Data from USB4F104151__161__14-32-15-943.txt Node

Date: Thu Mar 13 14:32:15 EDT 2025
User: louis
Spectrometer: USB4F10415
Trigger mode: 4
Integration Time (sec): 2.500000E-2
Scans to average: 1
Electric dark correction enabled: true
Nonlinearity correction enabled: false
Boxcar width: 0
XAxis mode: Wavelengths
Number of Pixels in Spectrum: 3648
>>>>>Begin Spectral Data<<<<<
178.204	-137.9
178.424	-137.9
178.644	-137.9
178.864	-193.19
179.084	-78.51
179.304	-21.16
179.524	-27.31
179.744	9.56
179.964	38.23
180.184	-19.11
180.404	15.7
180.624	19.8
180.844	40.28
181.064	-41.64
181.283	-21.16
181.503	-45.74
181.723	52.56
181.943	-45.74
182.163	122.2
182.383	-19.11
182.602	118.1
182.822	-8.87
183.042	64.85
183.262	36.18
183.482	73.04
183.701	15.7
183.921	85.33
184.141	11.61
184.361	52.56
184.58	19.8
184.8	7.51
185.02	60.76
185.239	85.33
185.459	34.13
185.679	-49.83
185.898	-37.55
186.118	95.57
186.338	50.52
186.557	118.1
186.777	50.52
186.997	93.52
187.216	52.56
187.436	62.8
187.655	58.71
187.875	68.95
188.095	-12.97
188.314	85.33
188.534	105.81
188.753	23.89
188.973	52.56
189.192	93.52
189.412	23.89
189.631	73.04
189.851	-15.02
190.07	87.38
190.29	79.19
190.509	56.66
190.729	27.99
190.948	40.28
191.168	208.21
191.387	7.51
191.607	54.61
191.826	32.08
192.045	7.51
192.265	93.52
192.484	60.76
192.704	62.8
192.923	23.89
193.142	79.19
193.362	3.41
193.581	89.43
193.8	68.95
194.02	19.8
194.239	-8.87
194.458	89.43
194.678	21.85
194.897	101.72
195.116	27.99
195.335	114
195.555	101.72
195.774	-4.78
195.993	46.42
196.212	-21.16
196.432	3.41
196.651	11.61
196.87	36.18
197.089	103.76
197.308	81.24
197.528	75.09
197.747	-4.78
197.966	-0.68
198.185	62.8
198.404	93.52
198.623	91.48
198.842	52.56
199.062	60.76
199.281	81.24
199.5	-55.98
199.719	17.75
199.938	44.37
200.157	89.43
200.376	38.23
200.595	68.95
200.814	44.37
201.033	-29.35
201.252	105.81
201.471	60.76
201.69	93.52
201.909	52.56
202.128	77.14
202.347	-37.55
202.566	77.14
202.785	38.23
203.004	66.9
203.223	77.14
203.442	44.37
203.661	21.85
203.879	52.56
204.098	101.72
204.317	38.23
204.536	85.33
204.755	36.18
204.974	62.8
205.193	95.57
205.411	150.87
205.63	25.94
205.849	5.46
206.068	56.66
206.287	27.99
206.505	27.99
206.724	3.41
206.943	-4.78
207.162	-8.87
207.381	25.94
207.599	48.47
207.818	30.04
208.037	-10.92
208.255	62.8
208.474	120.15
208.693	68.95
208.911	13.65
209.13	36.18
209.349	75.09
209.567	58.71
209.786	150.87
210.005	54.61
210.223	173.39
210.442	89.43
210.661	60.76
210.879	75.09
211.098	-33.45
211.316	95.57
211.535	46.42
211.753	5.46
211.972	5.46
212.191	-31.4
212.409	30.04
212.628	-21.16
212.846	5.46
213.065	71
213.283	68.95
213.502	32.08
213.72	73.04
213.938	83.28
214.157	44.37
214.375	46.42
214.594	-0.68
214.812	71
215.031	38.23
215.249	38.23
215.467	60.76
215.686	7.51
215.904	21.85
216.122	52.56
216.341	54.61
216.559	32.08
216.778	120.15
216.996	85.33
217.214	30.04
217.432	27.99
217.651	11.61
217.869	44.37
218.087	60.76
218.306	54.61
218.524	52.56
218.742	7.51
218.96	3.41
219.179	68.95
219.397	103.76
219.615	109.91
219.833	124.24
220.051	17.75
220.27	120.15
220.488	32.08
220.706	27.99
220.924	23.89
221.142	38.23
221.36	118.1
221.578	68.95
221.796	79.19
222.015	13.65
222.233	25.94
222.451	30.04
222.669	56.66
222.887	97.62
223.105	79.19
223.323	11.61
223.541	19.8
223.759	52.56
223.977	54.61
224.195	-2.73
224.413	-2.73
224.631	44.37
224.849	89.43
225.067	103.76
225.285	83.28
225.503	-41.64
225.721	5.46
225.939	40.28
226.157	58.71
226.375	130.39
226.592	77.14
226.81	-2.73
227.028	101.72
227.246	13.65
227.464	103.76
227.682	23.89
227.9	19.8
228.117	77.14
228.335	52.56
228.553	52.56
228.771	157.01
228.989	38.23
229.206	3.41
229.424	15.7
229.642	3.41
229.86	34.13
230.077	44.37
230.295	75.09
230.513	79.19
230.731	60.76
230.948	103.76
231.166	83.28
231.384	44.37
231.601	44.37
231.819	64.85
232.037	-10.92
232.254	83.28
232.472	109.91
232.689	19.8
232.907	3.41
233.125	97.62
233.342	34.13
233.56	40.28
233.777	-8.87
233.995	23.89
234.213	-2.73
234.43	21.85
234.648	46.42
234.865	30.04
235.083	-2.73
235.3	21.85
235.518	15.7
235.735	30.04
235.953	146.77
236.17	-62.12
236.388	60.76
236.605	75.09
236.822	-21.16
237.04	54.61
237.257	-29.35
237.475	30.04
237.692	60.76
237.909	62.8
238.127	87.38
238.344	126.29
238.562	23.89
238.779	-4.78
238.996	27.99
239.214	93.52
239.431	81.24
239.648	11.61
239.865	68.95
240.083	15.7
240.3	11.61
240.517	32.08
240.735	1.37
240.952	44.37
241.169	85.33
241.386	64.85
241.603	-17.07
241.821	105.81
242.038	73.04
242.255	134.48
242.472	42.32
242.689	-8.87
242.907	27.99
243.124	-21.16
243.341	111.96
243.558	44.37
243.775	60.76
243.992	-4.78
244.209	40.28
244.426	19.8
244.643	44.37
244.86	-2.73
245.078	46.42
245.295	27.99
245.512	62.8
245.729	79.19
245.946	-4.78
246.163	60.76
246.38	144.72
246.597	5.46
246.814	-10.92
247.031	111.96
247.248	36.18
247.464	-35.5
247.681	44.37
247.898	-4.78
248.115	85.33
248.332	-21.16
248.549	64.85
248.766	7.51
248.983	-6.83
249.2	25.94
249.417	89.43
249.633	52.56
249.85	-45.74
250.067	32.08
250.284	-4.78
250.501	23.89
250.717	91.48
250.934	7.51
251.151	36.18
251.368	-29.35
251.585	73.04
251.801	19.8
252.018	21.85
252.235	36.18
252.451	23.89
252.668	38.23
252.885	73.04
253.102	-8.87
253.318	23.89
253.535	-31.4
253.752	68.95
253.968	46.42
254.185	77.14
254.401	52.56
254.618	73.04
254.835	52.56
255.051	52.56
255.268	-6.83
255.484	36.18
255.701	27.99
255.917	83.28
256.134	-23.21
256.351	109.91
256.567	19.8
256.784	23.89
257	-19.11
257.217	27.99
257.433	-2.73
257.65	68.95
257.866	13.65
258.082	-4.78
258.299	19.8
258.515	159.06
258.732	19.8
258.948	21.85
259.165	42.32
259.381	-12.97
259.597	71
259.814	13.65
260.03	71
260.246	36.18
260.463	19.8
260.679	111.96
260.895	-12.97
261.112	-43.69
261.328	19.8
261.544	64.85
261.761	134.48
261.977	93.52
262.193	38.23
262.409	87.38
262.626	120.15
262.842	95.57
263.058	19.8
263.274	140.63
263.49	27.99
263.707	40.28
263.923	27.99
264.139	-41.64
264.355	38.23
264.571	60.76
264.787	60.76
265.004	17.75
265.22	1.37
265.436	1.37
265.652	38.23
265.868	44.37
266.084	15.7
266.3	68.95
266.516	-17.07
266.732	81.24
266.948	73.04
267.164	64.85
267.38	105.81
267.596	52.56
267.812	79.19
268.028	27.99
268.244	15.7
268.46	64.85
268.676	11.61
268.892	77.14
269.108	48.47
269.324	7.51
269.54	-41.64
269.756	21.85
269.972	3.41
270.188	27.99
270.403	46.42
270.619	44.37
270.835	32.08
271.051	-4.78
271.267	36.18
271.483	44.37
271.698	66.9
271.914	23.89
272.13	-8.87
272.346	-6.83
272.562	71
272.777	38.23
272.993	19.8
273.209	-15.02
273.425	89.43
273.64	-21.16
273.856	36.18
274.072	3.41
274.287	-0.68
274.503	42.32
274.719	114
274.934	32.08
275.15	36.18
275.366	66.9
275.581	-47.79
275.797	128.34
276.012	-21.16
276.228	52.56
276.444	11.61
276.659	97.62
276.875	79.19
277.09	68.95
277.306	13.65
277.521	32.08
277.737	66.9
277.952	21.85
278.168	54.61
278.383	132.44
278.599	23.89
278.814	77.14
279.03	27.99
279.245	48.47
279.461	93.52
279.676	60.76
279.892	38.23
280.107	27.99
280.322	-10.92
280.538	11.61
280.753	3.41
280.969	44.37
281.184	60.76
281.399	111.96
281.615	52.56
281.83	38.23
282.045	13.65
282.26	89.43
282.476	17.75
282.691	32.08
282.906	95.57
283.122	-0.68
283.337	-21.16
283.552	38.23
283.767	32.08
283.983	48.47
284.198	13.65
284.413	71
284.628	-2.73
284.843	77.14
285.058	85.33
285.274	38.23
285.489	-27.31
285.704	32.08
285.919	3.41
286.134	36.18
286.349	52.56
286.564	13.65
286.779	95.57
286.995	118.1
287.21	32.08
287.425	15.7
287.64	-45.74
287.855	68.95
288.07	36.18
288.285	97.62
288.5	52.56
288.715	64.85
288.93	3.41
289.145	44.37
289.36	122.2
289.575	19.8
289.79	42.32
290.004	-4.78
290.219	77.14
290.434	5.46
290.649	17.75
290.864	-12.97
291.079	-37.55
291.294	77.14
291.509	-27.31
291.724	-19.11
291.938	46.42
292.153	60.76
292.368	93.52
292.583	44.37
292.798	68.95
293.012	52.56
293.227	68.95
293.442	-33.45
293.657	126.29
293.871	68.95
294.086	19.8
294.301	85.33
294.516	3.41
294.73	58.71
294.945	21.85
295.16	-8.87
295.374	68.95
295.589	73.04
295.804	38.23
296.018	54.61
296.233	25.94
296.447	40.28
296.662	93.52
296.877	81.24
297.091	44.37
297.306	5.46
297.52	-0.68
297.735	71
297.949	60.76
298.164	105.81
298.378	81.24
298.593	64.85
298.807	27.99
299.022	44.37
299.236	68.95
299.451	95.57
299.665	40.28
299.88	46.42
300.094	44.37
300.309	81.24
300.523	23.89
300.737	23.89
300.952	42.32
301.166	114
301.381	17.75
301.595	44.37
301.809	60.76
302.024	60.76
302.238	38.23
302.452	75.09
302.667	71
302.881	54.61
303.095	79.19
303.309	36.18
303.524	11.61
303.738	-33.45
303.952	-19.11
304.166	46.42
304.381	-8.87
304.595	101.72
304.809	-21.16
305.023	62.8
305.237	50.52
305.452	73.04
305.666	109.91
305.88	71
306.094	95.57
306.308	81.24
306.522	73.04
306.736	58.71
306.95	73.04
307.164	95.57
307.379	34.13
307.593	105.81
307.807	34.13
308.021	97.62
308.235	124.24
308.449	-12.97
308.663	-37.55
308.877	68.95
309.091	15.7
309.305	68.95
309.519	64.85
309.733	109.91
309.947	-51.88
310.161	42.32
310.374	89.43
310.588	21.85
310.802	27.99
311.016	101.72
311.23	79.19
311.444	-10.92
311.658	46.42
311.872	60.76
312.085	44.37
312.299	159.06
312.513	66.9
312.727	71
312.941	30.04
313.154	7.51
313.368	52.56
313.582	1.37
313.796	-21.16
314.009	-33.45
314.223	93.52
314.437	-12.97
314.651	44.37
314.864	36.18
315.078	101.72
315.292	7.51
315.505	-15.02
315.719	99.67
315.933	15.7
316.146	-4.78
316.36	-43.69
316.573	52.56
316.787	81.24
317.001	38.23
317.214	23.89
317.428	64.85
317.641	-0.68
317.855	-35.5
318.068	21.85
318.282	46.42
318.495	97.62
318.709	95.57
318.922	3.41
319.136	71
319.349	30.04
319.563	111.96
319.776	60.76
319.99	44.37
320.203	15.7
320.417	11.61
320.63	79.19
320.843	128.34
321.057	46.42
321.27	109.91
321.483	36.18
321.697	134.48
321.91	81.24
322.124	52.56
322.337	109.91
322.55	11.61
322.763	-8.87
322.977	-12.97
323.19	77.14
323.403	15.7
323.617	89.43
323.83	103.76
324.043	27.99
324.256	52.56
324.469	5.46
324.683	-8.87
324.896	71
325.109	30.04
325.322	-4.78
325.535	142.68
325.748	52.56
325.962	-17.07
326.175	48.47
326.388	101.72
326.601	44.37
326.814	52.56
327.027	-2.73
327.24	71
327.453	-12.97
327.666	54.61
327.879	32.08
328.092	44.37
328.305	-2.73
328.518	89.43
328.731	44.37
328.944	17.75
329.157	118.1
329.37	19.8
329.583	105.81
329.796	44.37
330.009	7.51
330.222	85.33
330.435	46.42
330.648	27.99
330.861	81.24
331.073	30.04
331.286	-10.92
331.499	103.76
331.712	15.7
331.925	32.08
332.138	44.37
332.35	93.52
332.563	-21.16
332.776	85.33
332.989	-33.45
333.202	54.61
333.414	-37.55
333.627	85.33
333.84	77.14
334.053	27.99
334.265	54.61
334.478	25.94
334.691	71
334.903	52.56
335.116	15.7
335.329	79.19
335.541	60.76
335.754	95.57
335.966	27.99
336.179	34.13
336.392	27.99
336.604	-21.16
336.817	120.15
337.029	95.57
337.242	40.28
337.454	44.37
337.667	9.56
337.88	83.28
338.092	30.04
338.305	114
338.517	-29.35
338.729	38.23
338.942	159.06
339.154	60.76
339.367	83.28
339.579	46.42
339.792	11.61
340.004	89.43
340.217	30.04
340.429	44.37
340.641	-29.35
340.854	-10.92
341.066	38.23
341.278	71
341.491	81.24
341.703	9.56
341.915	1.37
342.128	93.52
342.34	27.99
342.552	44.37
342.764	71
342.977	46.42
343.189	15.7
343.401	150.87
343.613	25.94
343.826	19.8
344.038	-8.87
344.25	54.61
344.462	52.56
344.674	38.23
344.886	17.75
345.099	25.94
345.311	73.04
345.523	95.57
345.735	50.52
345.947	36.18
346.159	-12.97
346.371	62.8
346.583	48.47
346.795	167.25
347.007	52.56
347.219	71
347.431	19.8
347.643	89.43
347.855	60.76
348.067	118.1
348.279	-27.31
348.491	-25.26
348.703	36.18
348.915	-6.83
349.127	-125.61
349.339	109.91
349.551	-12.97
349.763	81.24
349.975	71
350.187	62.8
350.399	77.14
350.61	126.29
350.822	87.38
351.034	77.14
351.246	62.8
351.458	114
351.669	30.04
351.881	68.95
352.093	68.95
352.305	99.67
352.517	25.94
352.728	87.38
352.94	56.66
353.152	126.29
353.363	27.99
353.575	79.19
353.787	62.8
353.999	122.2
354.21	44.37
354.422	-8.87
354.633	13.65
354.845	71
355.057	46.42
355.268	32.08
355.48	44.37
355.692	-10.92
355.903	42.32
356.115	68.95
356.326	-37.55
356.538	126.29
356.749	77.14
356.961	114
357.172	89.43
357.384	23.89
357.595	85.33
357.807	111.96
358.018	11.61
358.23	60.76
358.441	107.86
358.653	46.42
358.864	-25.26
359.075	101.72
359.287	103.76
359.498	109.91
359.709	81.24
359.921	105.81
360.132	62.8
360.344	50.52
360.555	-12.97
360.766	97.62
360.977	38.23
361.189	62.8
361.4	-4.78
361.611	171.35
361.823	114
362.034	36.18
362.245	15.7
362.456	-21.16
362.667	64.85
362.879	-37.55
363.09	30.04
363.301	36.18
363.512	85.33
363.723	-10.92
363.935	1.37
364.146	46.42
364.357	13.65
364.568	93.52
364.779	-2.73
364.99	134.48
365.201	5.46
365.412	95.57
365.623	-2.73
365.834	56.66
366.045	73.04
366.256	101.72
366.467	89.43
366.678	5.46
366.889	48.47
367.1	95.57
367.311	77.14
367.522	109.91
367.733	83.28
367.944	21.85
368.155	-25.26
368.366	130.39
368.577	79.19
368.788	109.91
368.999	118.1
369.209	38.23
369.42	62.8
369.631	93.52
369.842	71
370.053	40.28
370.264	75.09
370.474	71
370.685	77.14
370.896	52.56
371.107	-8.87
371.317	7.51
371.528	-17.07
371.739	163.15
371.95	77.14
372.16	42.32
372.371	-2.73
372.582	11.61
372.792	62.8
373.003	15.7
373.214	34.13
373.424	81.24
373.635	-70.31
373.846	60.76
374.056	-12.97
374.267	83.28
374.477	44.37
374.688	83.28
374.898	19.8
375.109	62.8
375.319	-23.21
375.53	64.85
375.74	71
375.951	44.37
376.161	58.71
376.372	87.38
376.582	68.95
376.793	36.18
377.003	111.96
377.214	54.61
377.424	46.42
377.635	38.23
377.845	-33.45
378.055	122.2
378.266	30.04
378.476	-4.78
378.686	-4.78
378.897	60.76
379.107	27.99
379.317	105.81
379.528	7.51
379.738	62.8
379.948	36.18
380.158	11.61
380.369	-33.45
380.579	23.89
380.789	56.66
380.999	32.08
381.21	30.04
381.42	77.14
381.63	68.95
381.84	52.56
382.05	87.38
382.261	52.56
382.471	109.91
382.681	11.61
382.891	13.65
383.101	42.32
383.311	-12.97
383.521	36.18
383.731	50.52
383.941	87.38
384.151	36.18
384.361	122.2
384.571	42.32
384.781	52.56
384.991	134.48
385.201	150.87
385.411	81.24
385.621	75.09
385.831	48.47
386.041	44.37
386.251	60.76
386.461	68.95
386.671	-8.87
386.881	95.57
387.091	19.8
387.301	126.29
387.511	77.14
387.72	19.8
387.93	71
388.14	60.76
388.35	118.1
388.56	40.28
388.769	48.47
388.979	71
389.189	77.14
389.399	101.72
389.609	46.42
389.818	81.24
390.028	144.72
390.238	124.24
390.447	62.8
390.657	93.52
390.867	-12.97
391.076	75.09
391.286	30.04
391.496	128.34
391.705	36.18
391.915	89.43
392.125	52.56
392.334	38.23
392.544	50.52
392.753	87.38
392.963	-47.79
393.172	95.57
393.382	40.28
393.591	142.68
393.801	58.71
394.01	25.94
394.22	71
394.429	46.42
394.639	19.8
394.848	126.29
395.058	27.99
395.267	114
395.477	62.8
395.686	89.43
395.895	169.3
396.105	138.58
396.314	91.48
396.524	79.19
396.733	132.44
396.942	89.43
397.152	66.9
397.361	54.61
397.57	101.72
397.78	46.42
397.989	118.1
398.198	175.44
398.407	95.57
398.617	40.28
398.826	109.91
399.035	81.24
399.244	93.52
399.453	130.39
399.663	71
399.872	126.29
400.081	83.28
400.29	138.58
400.499	75.09
400.708	200.02
400.917	97.62
401.127	42.32
401.336	81.24
401.545	185.68
401.754	101.72
401.963	150.87
402.172	103.76
402.381	77.14
402.59	126.29
402.799	81.24
403.008	134.48
403.217	173.39
403.426	122.2
403.635	138.58
403.844	85.33
404.053	99.67
404.262	159.06
404.471	179.54
404.68	101.72
404.888	126.29
405.097	136.53
405.306	109.91
405.515	210.26
405.724	136.53
405.933	142.68
406.142	165.2
406.35	124.24
406.559	216.4
406.768	175.44
406.977	191.83
407.185	142.68
407.394	210.26
407.603	146.77
407.812	175.44
408.02	208.21
408.229	216.4
408.438	214.35
408.646	185.68
408.855	238.93
409.064	249.17
409.272	144.72
409.481	265.55
409.69	267.6
409.898	228.69
410.107	253.27
410.315	279.89
410.524	243.03
410.733	283.99
410.941	275.79
411.15	269.65
411.358	259.41
411.567	388.43
411.775	406.86
411.984	355.66
412.192	451.92
412.401	308.56
412.609	470.35
412.818	449.87
413.026	398.67
413.234	406.86
413.443	447.82
413.651	476.49
413.86	423.25
414.068	453.97
414.276	568.65
414.485	539.98
414.693	552.27
414.901	630.09
415.11	701.77
415.318	556.36
415.526	691.53
415.734	658.76
415.943	679.24
416.151	773.45
416.359	689.48
416.567	707.91
416.776	748.87
416.984	789.83
417.192	773.45
417.4	851.27
417.608	793.93
417.817	818.5
418.025	929.1
418.233	998.73
418.441	920.9
418.649	978.25
418.857	1086.79
419.065	1129.8
419.273	1047.88
419.481	1109.32
419.689	1199.43
419.897	1273.15
420.105	1301.83
420.313	1299.78
420.521	1412.42
420.729	1441.09
420.937	1379.65
421.145	1480
421.353	1518.91
421.561	1692.99
421.769	1701.18
421.977	1764.67
422.185	1744.19
422.393	1799.48
422.601	1930.55
422.809	1916.22
423.017	1885.5
423.224	2016.57
423.432	1987.89
423.64	2053.43
423.848	2309.43
424.056	2190.64
424.263	2487.6
424.471	2395.44
424.679	2485.55
424.887	2606.38
425.094	2581.81
425.302	2612.53
425.51	2743.6
425.718	2821.42
425.925	2989.35
426.133	3001.64
426.341	3124.52
426.548	3231.01
426.756	3167.52
426.964	3409.19
427.171	3503.39
427.379	3624.22
427.586	3577.12
427.794	3814.68
428.001	3945.75
428.209	4197.65
428.417	3974.42
428.624	4431.12
428.832	4205.85
429.039	4273.43
429.247	4238.61
429.454	4791.56
429.662	4779.28
429.869	4652.3
430.076	5106.95
430.284	4916.49
430.491	5086.47
430.699	5311.75
430.906	5442.82
431.114	5348.61
431.321	5625.09
431.528	5815.55
431.736	6063.35
431.943	6278.39
432.15	6122.74
432.358	6147.32
432.565	6509.81
432.772	6495.47
432.979	6905.07
433.187	7130.34
433.394	7007.47
433.601	7380.2
433.808	7695.58
434.016	7582.95
434.223	7607.52
434.43	8228.06
434.637	8002.78
434.844	8578.26
435.052	8740.05
435.259	8649.94
435.466	8725.71
435.673	8654.03
435.88	9217.22
436.087	9653.44
436.294	9800.9
436.501	9626.82
436.708	9637.06
436.915	9903.29
437.122	10460.34
437.329	10405.05
437.537	10626.23
437.743	10998.96
437.95	10677.43
438.157	11351.21
438.364	11906.21
438.571	11535.53
438.778	11873.44
438.985	12688.53
439.192	12448.92
439.399	12698.77
439.606	12389.53
439.813	13085.84
440.02	14060.67
440.227	13444.23
440.433	13587.59
440.64	14124.16
440.847	13747.33
441.054	14367.87
441.261	15103.09
441.467	14826.61
441.674	15336.56
441.881	15895.65
442.088	15768.68
442.294	15993.95
442.501	16014.43
442.708	16362.59
442.914	17198.16
443.121	17677.38
443.328	17222.73
443.534	18517.05
443.741	18048.07
443.948	17624.14
444.154	19274.8
444.361	18914.36
444.568	19037.23
444.774	18723.9
444.981	19209.26
445.187	19702.82
445.394	20450.33
445.6	20243.49
445.807	22336.51
446.013	21269.52
446.22	21470.22
446.426	22688.76
446.633	22664.19
446.839	23636.97
447.046	22348.8
447.252	23796.71
447.459	23518.19
447.665	23495.66
447.871	24798.17
448.078	25676.75
448.284	24458.21
448.491	25267.16
448.697	26123.21
448.903	26528.7
449.11	26430.4
449.316	26258.37
449.522	26647.49
449.728	27392.95
449.935	27644.85
450.141	27714.48
450.347	27978.67
450.553	27044.79
450.76	27911.08
450.966	28490.66
451.172	28048.3
451.378	28967.84
451.584	28564.39
451.791	29209.5
451.997	28949.4
452.203	29619.09
452.409	29586.32
452.615	29506.45
452.821	28169.13
453.027	27747.25
453.233	29322.13
453.44	28308.39
453.646	28056.49
453.852	28734.37
454.058	29272.98
454.264	28066.73
454.47	28722.08
454.676	27954.09
454.882	28904.35
455.088	26387.39
455.294	26801.08
455.5	27263.93
455.705	27700.14
455.911	26129.35
456.117	25916.36
456.323	25719.76
456.529	24540.13
456.735	25547.73
456.941	24712.16
457.147	24316.9
457.352	23462.9
457.558	23323.63
457.764	23327.73
457.97	22838.26
458.176	22510.59
458.381	22705.15
458.587	21351.44
458.793	21140.5
458.999	20116.51
459.204	21589
459.41	20972.57
459.616	19547.18
459.821	19414.06
460.027	19608.62
460.233	19139.63
460.438	18216
460.644	18357.31
460.85	17601.61
461.055	17439.82
461.261	17216.59
461.466	16043.1
461.672	15660.13
461.878	16583.77
462.083	15441
462.289	14994.54
462.494	14937.2
462.7	14302.33
462.905	13767.81
463.111	14453.88
463.316	14113.92
463.522	14087.29
463.727	14015.62
463.932	14027.9
464.138	13898.88
464.343	13911.17
464.549	13599.88
464.754	14144.64
464.959	13882.5
465.165	13798.53
465.37	13200.52
465.575	12919.95
465.781	13438.09
465.986	13266.06
466.191	12864.66
466.397	12493.97
466.602	12106.91
466.807	12596.37
467.012	12455.06
467.218	12491.93
467.423	12373.14
467.628	12283.03
467.833	12827.79
468.038	12422.3
468.244	12053.66
468.449	12410.01
468.654	12201.12
468.859	12065.95
469.064	11973.79
469.269	11412.65
469.474	11517.09
469.679	12022.94
469.885	11547.81
470.09	11578.53
470.295	11592.87
470.5	11181.23
470.705	11300.01
470.91	11095.21
471.115	10865.84
471.32	11101.36
471.525	11050.16
471.73	10730.67
471.935	10785.97
472.139	10316.98
472.344	10542.26
472.549	10380.47
472.754	10435.77
472.959	10235.07
473.164	9917.63
473.369	9796.8
473.574	10097.85
473.778	9850.05
473.983	9925.82
474.188	9749.7
474.393	9522.37
474.598	9467.08
474.802	9467.08
475.007	9239.75
475.212	9428.17
475.417	9163.98
475.621	8905.93
475.826	8983.76
476.031	8924.37
476.235	8637.65
476.44	8735.95
476.645	8703.18
476.849	8729.81
477.054	8582.35
477.259	8395.99
477.463	8535.25
477.668	8180.95
477.872	8324.31
478.077	8137.95
478.282	7974.11
478.486	8056.03
478.691	7894.24
478.895	7830.75
479.1	7679.2
479.304	7761.12
479.509	7785.69
479.713	7740.64
479.918	7474.4
480.122	7517.41
480.326	7437.54
480.531	7621.86
480.735	7523.55
480.94	7326.95
481.144	7650.53
481.348	7283.94
481.553	7595.23
481.757	7156.97
481.961	7361.76
482.166	7619.81
482.37	7498.98
482.574	7314.66
482.778	7242.98
482.983	7593.19
483.187	7343.33
483.391	7351.53
483.595	7277.8
483.8	7083.24
484.004	7357.67
484.208	7349.48
484.412	7339.24
484.616	7206.12
484.821	7290.09
485.025	7105.77
485.229	7249.13
485.433	7249.13
485.637	7171.3
485.841	7339.24
486.045	7285.99
486.249	7419.11
486.453	7169.26
486.657	7306.47
486.861	7197.93
487.065	7122.15
487.269	7134.44
487.473	7126.25
487.677	7331.05
487.881	7212.26
488.085	7294.18
488.289	7335.14
488.493	7122.15
488.697	7488.74
488.901	7279.85
489.105	7228.65
489.309	7175.4
489.512	7427.3
489.716	7412.96
489.92	7253.22
490.124	7382.24
490.328	7445.73
490.531	7220.46
490.735	7513.31
490.939	7451.88
491.143	7449.83
491.346	7220.46
491.55	7408.87
491.754	7435.49
491.958	7474.4
492.161	7613.67
492.365	7501.03
492.569	7363.81
492.772	7472.36
492.976	7513.31
493.18	7662.82
493.383	7744.74
493.587	7777.5
493.79	7765.21
493.994	7617.76
494.197	7900.38
494.401	7832.8
494.605	7802.08
494.808	8105.18
495.012	8015.07
495.215	8023.26
495.419	8056.03
495.622	8240.34
495.825	8064.22
496.029	8441.04
496.232	8314.07
496.436	8496.34
496.639	8527.06
496.843	8502.48
497.046	8678.61
497.249	8688.85
497.453	8713.42
497.656	8809.68
497.859	8987.85
498.063	8850.64
498.266	9155.79
498.469	9084.11
498.673	9176.27
498.876	9329.86
499.079	9368.77
499.282	9409.73
499.485	9616.58
499.689	9792.7
499.892	9551.04
500.095	9759.94
500.298	9886.91
500.501	9866.43
500.705	10140.86
500.908	10288.31
501.111	10333.37
501.314	10400.95
501.517	10808.5
501.72	10761.39
501.923	10833.07
502.126	10912.94
502.329	10974.38
502.532	11060.4
502.735	11228.33
502.938	11099.31
503.141	11201.71
503.344	11312.3
503.547	11719.84
503.75	11789.47
503.953	11984.03
504.156	11955.36
504.359	12076.19
504.562	12065.95
504.765	12463.26
504.968	12543.13
505.17	12463.26
505.373	12508.31
505.576	12924.05
505.779	12706.96
505.982	13057.17
506.185	13395.08
506.387	13515.91
506.59	13522.05
506.793	13677.7
506.996	13509.77
507.198	14234.75
507.401	13988.99
507.604	14107.77
507.807	14421.11
508.009	14437.5
508.212	14296.19
508.415	14881.91
508.617	14861.43
508.82	14972.02
509.022	14867.57
509.225	15314.03
509.428	15352.94
509.63	15658.09
509.833	15660.13
510.035	15895.65
510.238	15985.76
510.44	15772.77
510.643	16385.12
510.845	16469.08
511.048	16297.05
511.25	16780.37
511.453	16878.68
511.655	17433.68
511.858	17146.96
512.06	17308.75
512.262	17312.85
512.465	17392.72
512.667	17787.97
512.87	17851.46
513.072	17767.49
513.274	18252.86
513.477	18455.61
513.679	18582.59
513.881	18803.77
514.084	19098.67
514.286	18619.45
514.488	19180.59
514.69	19405.87
514.893	19579.95
515.095	19672.11
515.297	19751.98
515.499	19842.09
515.701	20399.13
515.904	20372.51
516.106	20136.99
516.308	20679.71
516.51	20919.32
516.712	20751.38
516.914	21029.91
517.116	21371.92
517.318	21449.74
517.52	21552.14
517.722	21695.5
517.925	21693.45
518.127	22338.56
518.329	22182.91
518.531	22221.83
518.733	22555.65
518.935	22934.52
519.136	22936.57
519.338	23030.77
519.54	23098.36
519.742	23278.58
519.944	23434.22
520.146	23647.21
520.348	23948.26
520.55	24069.09
520.752	23960.55
520.954	24390.63
521.155	24267.75
521.357	24808.41
521.559	24663
521.761	25269.2
521.963	25086.93
522.164	25115.61
522.366	24953.82
522.568	25136.09
522.77	25109.46
522.971	25590.73
523.173	25474
523.375	25756.62
523.576	25623.5
523.778	25844.68
523.98	25934.79
524.181	26231.75
524.383	26383.3
524.584	26414.02
524.786	26254.28
524.988	26454.98
525.189	26252.23
525.391	26700.73
525.592	26672.06
525.794	26891.19
525.995	26815.42
526.197	26497.98
526.398	26713.02
526.6	26815.42
526.801	27218.87
527.003	27198.39
527.204	26944.44
527.406	26969.02
527.607	27294.64
527.808	27409.33
528.01	26956.73
528.211	27179.96
528.412	27483.06
528.614	27820.97
528.815	27333.56
529.016	27880.36
529.218	27294.64
529.419	27442.1
529.62	27485.11
529.822	27392.95
530.023	27349.94
530.224	27423.67
530.425	27431.86
530.626	27122.62
530.828	27175.86
531.029	27560.88
531.23	27225.01
531.431	27132.86
531.632	27315.12
531.833	27438
532.035	27403.19
532.236	27298.74
532.437	27438
532.638	26995.64
532.839	27333.56
533.04	27493.3
533.241	27098.04
533.442	27286.45
533.643	27386.8
533.844	27268.02
534.045	27589.55
534.246	26823.61
534.447	27075.51
534.648	26762.17
534.849	27270.07
535.05	27218.87
535.251	27450.29
535.451	26803.13
535.652	27265.97
535.853	26790.84
536.054	26995.64
536.255	27204.53
536.456	26606.53
536.657	27136.95
536.857	26815.42
537.058	26495.94
537.259	26926.01
537.46	26911.67
537.66	26833.85
537.861	27081.66
538.062	26917.82
538.263	26885.05
538.463	26672.06
538.664	26612.67
538.865	26559.42
539.065	26774.46
539.266	26661.82
539.466	26833.85
539.667	26414.02
539.868	26713.02
540.068	26643.39
540.269	26432.45
540.469	26518.46
540.67	26344.39
540.87	26227.65
541.071	26563.52
541.271	26737.6
541.472	26600.38
541.672	26332.1
541.873	26225.61
542.073	26012.62
542.274	26622.91
542.474	26264.52
542.675	26233.8
542.875	26368.96
543.075	26205.13
543.276	25990.09
543.476	26354.63
543.676	26297.28
543.877	26213.32
544.077	26297.28
544.277	26143.69
544.478	26049.48
544.678	26303.43
544.878	26307.52
545.078	26469.31
545.279	26227.65
545.479	26203.08
545.679	26299.33
545.879	26328
546.079	26270.66
546.28	26188.74
546.48	26315.72
546.68	26176.45
546.88	26178.5
547.08	26481.6
547.28	25973.7
547.48	26072.01
547.68	26178.5
547.88	25955.27
548.081	26033.1
548.281	25885.64
548.481	26201.03
548.681	26235.84
548.881	25889.74
549.081	25848.78
549.28	25971.66
549.48	26422.21
549.68	26102.73
549.88	26350.53
550.08	26119.11
550.28	26098.63
550.48	26215.37
550.68	26293.19
550.88	25816.01
551.08	25969.61
551.279	26155.97
551.479	26006.47
551.679	26248.13
551.879	26117.06
552.079	26180.55
552.278	25691.09
552.478	25791.44
552.678	26487.75
552.878	26133.45
553.077	25963.47
553.277	26059.72
553.477	26420.16
553.676	26186.69
553.876	26254.28
554.076	26035.14
554.275	26106.82
554.475	26049.48
554.674	26004.42
554.874	26096.58
555.074	26104.77
555.273	26123.21
555.473	26291.14
555.672	26248.13
555.872	26092.49
556.071	26024.9
556.271	26522.56
556.47	26250.18
556.67	26262.47
556.869	26487.75
557.068	26422.21
557.268	26180.55
557.467	26266.56
557.667	26518.46
557.866	26352.58
558.065	26293.19
558.265	26135.49
558.464	26014.66
558.663	26624.96
558.863	26125.25
559.062	26409.92
559.261	25938.89
559.461	26786.75
559.66	26149.83
559.859	26581.95
560.058	26196.93
560.258	26280.9
560.457	25777.1
560.656	26117.06
560.855	26125.25
561.054	26026.95
561.253	26108.87
561.453	26469.31
561.652	26000.33
561.851	26407.87
562.05	25920.46
562.249	26008.52
562.448	26266.56
562.647	25844.68
562.846	26055.62
563.045	26153.93
563.244	25869.26
563.443	26373.06
563.642	25836.49
563.841	26033.1
564.04	26057.67
564.239	26325.96
564.438	25891.79
564.637	26037.19
564.836	25936.84
565.035	25797.58
565.234	25891.79
565.432	26127.3
565.631	25949.13
565.83	25889.74
566.029	25631.69
566.228	26100.68
566.427	25885.64
566.625	25482.19
566.824	25766.86
567.023	25631.69
567.222	25306.07
567.42	25740.24
567.619	25662.41
567.818	25711.56
568.016	25361.36
568.215	25807.82
568.414	25193.43
568.612	25623.5
568.811	25226.2
569.01	25254.87
569.208	25134.04
569.407	25306.07
569.605	24777.69
569.804	25560.02
570.002	24742.88
570.201	25033.69
570.4	24927.19
570.598	24781.79
570.797	24726.49
570.995	24579.04
571.193	24490.98
571.392	24988.63
571.59	24597.47
571.789	24683.48
571.987	24566.75
572.186	24454.11
572.384	24691.68
572.582	24716.25
572.781	24345.57
572.979	24312.8
573.177	24388.58
573.376	24458.21
573.574	23772.14
573.772	24169.44
573.971	24196.07
574.169	23917.54
574.367	23974.89
574.565	23825.39
574.763	23464.94
574.962	24054.76
575.16	23147.51
575.358	23725.04
575.556	23471.09
575.754	23747.56
575.952	23444.46
576.151	24052.71
576.349	23131.12
576.547	23254
576.745	23561.2
576.943	23274.48
577.141	22832.12
577.339	23264.24
577.537	23387.12
577.735	23038.97
577.933	22955
578.131	23088.12
578.329	23063.54
578.527	22850.55
578.725	22762.49
578.923	22631.42
579.121	22649.85
579.319	22744.06
579.516	22678.52
579.714	22844.41
579.912	22397.95
580.11	22166.53
580.308	22561.79
580.506	22481.92
580.704	22051.84
580.901	22465.53
581.099	22625.28
581.297	21947.4
581.495	22004.74
581.692	22082.56
581.89	22127.62
582.088	21965.83
582.285	21871.62
582.483	22072.32
582.681	21974.02
582.878	21548.04
583.076	21691.4
583.274	21851.14
583.471	21666.83
583.669	21689.35
583.866	21267.47
584.064	21365.78
584.262	21459.98
584.459	21437.45
584.657	21273.62
584.854	21308.43
585.052	21117.97
585.249	20884.5
585.447	21218.32
585.644	20868.12
585.841	21036.05
586.039	21300.24
586.236	20569.12
586.434	20886.55
586.631	20952.09
586.828	20565.02
587.026	20945.94
587.223	20532.25
587.42	20501.53
587.618	20565.02
587.815	20509.72
588.012	20329.5
588.21	20352.03
588.407	20530.2
588.604	20417.57
588.801	19960.87
588.999	20261.92
589.196	20102.18
589.393	20104.23
589.59	20120.61
589.787	19844.13
589.984	20016.16
590.182	19747.88
590.379	20141.09
590.576	19657.77
590.773	20007.97
590.97	19704.87
591.167	19891.24
591.364	19547.18
591.561	19731.5
591.758	19291.18
591.955	19575.85
592.152	19571.75
592.349	19377.2
592.546	19272.75
592.743	19463.21
592.94	19330.09
593.137	19452.97
593.334	19354.67
593.531	19086.39
593.727	19393.58
593.924	19024.95
594.121	19149.87
594.318	19235.89
594.515	19090.48
594.712	19065.91
594.908	18924.6
595.105	19256.37
595.302	18742.33
595.499	19096.63
595.696	18754.62
595.892	18682.94
596.089	18760.76
596.286	18779.19
596.482	18646.07
596.679	18570.3
596.876	18693.18
597.072	18662.46
597.269	18736.18
597.466	18390.08
597.662	18359.36
597.859	18824.25
598.055	18635.83
598.252	18320.45
598.448	18494.52
598.645	18242.62
598.841	18398.27
599.038	18521.15
599.234	18736.18
599.431	18277.44
599.627	18277.44
599.824	18498.62
600.02	18543.67
600.217	18420.8
600.413	18273.34
600.609	18631.74
600.806	18119.74
601.002	18322.49
601.198	18156.61
601.395	17976.39
601.591	18404.41
601.787	18218.05
601.984	18320.45
602.18	18408.51
602.376	18283.58
602.572	18246.72
602.769	18277.44
602.965	17964.1
603.161	18265.15
603.357	18287.68
603.553	18185.28
603.75	17996.87
603.946	17990.72
604.142	18410.56
604.338	18025.54
604.534	18361.41
604.73	18154.56
604.926	18238.53
605.122	18287.68
605.318	18129.98
605.514	18082.88
605.71	18050.11
605.906	18318.4
606.102	18039.87
606.298	18283.58
606.494	18117.7
606.69	18172.99
606.886	18392.12
607.082	18035.78
607.278	18641.98
607.474	18175.04
607.67	18545.72
607.866	18129.98
608.062	18111.55
608.257	18334.78
608.453	18396.22
608.649	18347.07
608.845	18285.63
609.041	18578.49
609.236	18768.95
609.432	18377.79
609.628	18281.53
609.824	18068.55
610.019	18410.56
610.215	18132.03
610.411	18490.43
610.606	18318.4
610.802	18553.91
610.998	18631.74
611.193	18740.28
611.389	18242.62
611.584	18181.18
611.78	18234.43
611.976	18367.55
612.171	18422.84
612.367	18594.87
612.562	18533.43
612.758	18332.73
612.953	18365.5
613.149	18496.57
613.344	18449.47
613.539	18838.58
613.735	18390.08
613.93	18439.23
614.126	18359.36
614.321	18795.57
614.517	18598.97
614.712	18658.36
614.907	18560.06
615.103	18852.92
615.298	18672.7
615.493	18693.18
615.688	18574.39
615.884	18811.96
616.079	18416.7
616.274	18515
616.47	18545.72
616.665	18705.46
616.86	18287.68
617.055	18435.13
617.25	18304.06
617.445	18678.84
617.641	18254.91
617.836	18445.37
618.031	17986.63
618.226	18639.93
618.421	18353.21
618.616	18537.53
618.811	18097.22
619.006	18549.82
619.201	18089.03
619.396	18107.46
619.591	18164.8
619.786	18105.41
619.981	17919.04
620.176	18181.18
620.371	17716.29
620.566	17894.47
620.761	17773.64
620.956	17693.77
621.151	17603.66
621.346	17587.27
621.541	17464.39
621.735	17888.32
621.93	17337.42
622.125	17462.35
622.32	17132.62
622.515	17216.59
622.709	17175.63
622.904	17296.46
623.099	17175.63
623.294	17067.09
623.488	16850
623.683	17001.55
623.878	16755.8
624.072	16917.59
624.267	16768.09
624.462	16518.23
624.656	16483.42
624.851	16569.43
625.046	16311.39
625.24	16397.4
625.435	15955.04
625.629	16419.93
625.824	15922.27
626.018	16120.93
626.213	15756.39
626.407	16159.84
626.602	15592.55
626.796	15801.44
626.991	15574.12
627.185	15606.89
627.38	15387.75
627.574	15549.54
627.768	15158.38
627.963	15268.97
628.157	15070.32
628.352	15062.13
628.546	14746.74
628.74	15166.57
628.935	14898.29
629.129	15109.23
629.323	14826.61
629.517	14890.1
629.712	14617.72
629.906	14623.86
630.1	14503.03
630.294	14650.49
630.489	14447.74
630.683	14494.84
630.877	13958.27
631.071	14062.72
631.265	14005.38
631.459	13954.18
631.653	13980.8
631.848	13743.24
632.042	13814.91
632.236	13872.26
632.43	13587.59
632.624	13948.03
632.818	13788.29
633.012	13511.82
633.206	13337.74
633.4	13708.42
633.594	13413.51
633.788	13347.98
633.982	13376.65
634.176	13184.14
634.369	12962.96
634.563	13360.27
634.757	13005.97
634.951	13087.89
635.145	13030.54
635.339	12844.18
635.533	12758.16
635.726	12725.4
635.92	12610.71
636.114	12407.96
636.308	12348.57
636.501	12592.28
636.695	12268.7
636.889	12188.83
637.083	11984.03
637.276	12336.28
637.47	11971.74
637.664	11922.59
637.857	11910.3
638.051	11840.67
638.244	11891.87
638.438	11879.58
638.632	11752.61
638.825	11588.77
639.019	11336.87
639.212	11404.46
639.406	11510.95
639.599	11517.09
639.793	11144.36
639.986	11332.78
640.18	10996.91
640.373	11127.98
640.567	10747.06
640.76	11068.59
640.954	10923.18
641.147	10865.84
641.34	10857.65
641.534	10564.79
641.727	10691.76
641.92	10642.61
642.114	10427.57
642.307	10607.8
642.5	10468.53
642.694	10212.54
642.887	10296.5
643.08	10546.36
643.273	10230.97
643.467	10230.97
643.66	9800.9
643.853	9915.58
644.046	9784.51
644.239	9874.62
644.432	9813.18
644.626	9596.1
644.819	9802.94
645.012	9702.59
645.205	9538.76
645.398	9628.87
645.591	9430.21
645.784	9391.3
645.977	9348.29
646.17	9383.11
646.363	9284.81
646.556	9127.11
646.749	9358.53
646.942	9264.33
647.135	9016.52
647.328	8817.87
647.521	9026.76
647.714	9086.15
647.907	9059.53
648.099	8819.92
648.292	8678.61
648.485	8828.11
648.678	8617.17
648.871	8776.91
649.064	8529.11
649.256	8592.59
649.449	8434.9
649.642	8447.19
649.835	8363.22
650.027	8355.03
650.22	8373.46
650.413	8309.97
650.605	8176.86
650.798	8154.33
650.991	8027.35
651.183	8064.22
651.376	7939.29
651.568	7992.54
651.761	8105.18
651.954	7949.53
652.146	7957.72
652.339	7879.9
652.531	7838.94
652.724	7943.39
652.916	7556.32
653.109	7419.11
653.301	7548.13
653.494	7539.94
653.686	7539.94
653.879	7556.32
654.071	7351.53
654.263	7576.8
654.456	7431.4
654.648	7458.02
654.84	7236.84
655.033	7337.19
655.225	7040.23
655.417	7132.39
655.61	7441.64
655.802	7113.96
655.994	7029.99
656.186	7150.82
656.379	7001.32
656.571	6884.59
656.763	6827.25
656.955	6958.32
657.148	6827.25
657.34	6597.87
657.532	6792.43
657.724	6819.05
657.916	6810.86
658.108	6792.43
658.3	6614.26
658.492	6505.71
658.684	6491.38
658.876	6536.43
659.068	6460.66
659.26	6370.55
659.452	6444.27
659.644	6313.2
659.836	6229.24
660.028	6415.6
660.22	6257.91
660.412	6284.53
660.604	6188.28
660.796	6135.03
660.988	6081.78
661.18	6079.74
661.372	6040.83
661.563	6163.7
661.755	5823.74
661.947	5987.58
662.139	5868.8
662.331	5870.84
662.522	5860.6
662.714	5649.66
662.906	5723.39
663.097	5782.78
663.289	5676.29
663.481	5684.48
663.673	5639.42
663.864	5582.08
664.056	5688.57
664.247	5723.39
664.439	5651.71
664.631	5541.12
664.822	5653.76
665.014	5582.08
665.205	5455.11
665.397	5278.98
665.588	5403.91
665.78	5350.66
665.971	5215.49
666.163	5405.95
666.354	5166.34
666.546	5291.27
666.737	5190.92
666.929	5086.47
667.12	5113.1
667.311	5133.57
667.503	5111.05
667.694	5045.51
667.885	5164.29
668.077	4889.87
668.268	4912.39
668.459	5131.53
668.651	5039.37
668.842	4955.4
669.033	4902.15
669.224	4812.04
669.416	4906.25
669.607	4996.36
669.798	4766.99
669.989	4893.96
670.18	4713.74
670.371	4586.77
670.563	4764.94
670.754	4699.41
670.945	4740.36
671.136	4783.37
671.327	4615.44
671.518	4537.62
671.709	4754.7
671.9	4592.91
672.091	4568.34
672.282	4558.1
672.473	4484.37
672.664	4674.83
672.855	4609.3
673.046	4472.08
673.237	4590.86
673.428	4566.29
673.619	4519.18
673.809	4445.46
674	4531.47
674.191	4488.46
674.382	4355.35
674.573	4447.51
674.764	4205.85
674.954	4371.73
675.145	4441.36
675.336	4214.04
675.527	4300.05
675.717	4384.02
675.908	4347.15
676.099	4308.24
676.289	4240.66
676.48	4211.99
676.671	4179.22
676.861	4341.01
677.052	4171.03
677.243	4384.02
677.433	4205.85
677.624	4267.28
677.814	4207.89
678.005	4148.5
678.195	4156.69
678.386	4211.99
678.576	4125.97
678.767	4136.21
678.957	4042.01
679.148	4148.5
679.338	4224.28
679.529	4119.83
679.719	4132.12
679.909	4082.97
680.1	4134.17
680.29	4199.7
680.481	4138.26
680.671	4117.78
680.861	4064.54
681.052	3966.23
681.242	4005.14
681.432	4017.43
681.622	4056.34
681.813	4115.73
682.003	4076.82
682.193	3867.93
682.383	4101.4
682.573	3980.57
682.764	3820.83
682.954	3968.28
683.144	4042.01
683.334	3872.03
683.524	3869.98
683.714	4070.68
683.904	3931.42
684.094	4005.14
684.284	3910.94
684.474	4019.48
684.664	3888.41
684.854	3915.03
685.044	3847.45
685.234	3857.69
685.424	3972.38
685.614	3908.89
685.804	3882.27
685.994	3814.68
686.184	3732.76
686.374	3910.94
686.564	3976.47
686.753	3820.83
686.943	3702.04
687.133	3702.04
687.323	3804.44
687.513	3902.75
687.702	3644.7
687.892	3691.81
688.082	3685.66
688.272	3620.13
688.461	3712.28
688.651	3740.96
688.841	3630.37
689.03	3640.61
689.22	3659.04
689.41	3611.93
689.599	3544.35
689.789	3599.65
689.979	3730.72
690.168	3644.7
690.358	3642.65
690.547	3648.8
690.737	3583.26
690.926	3552.54
691.116	3607.84
691.305	3536.16
691.495	3587.36
691.684	3640.61
691.874	3501.34
692.063	3487.01
692.252	3368.23
692.442	3431.71
692.631	3427.62
692.82	3495.2
693.01	3368.23
693.199	3374.37
693.388	3274.02
693.578	3331.36
693.767	3527.97
693.956	3378.47
694.146	3374.37
694.335	3497.25
694.524	3378.47
694.713	3394.85
694.902	3280.16
695.092	3386.66
695.281	3231.01
695.47	3337.51
695.659	3200.29
695.848	3247.4
696.037	3149.09
696.226	3235.11
696.415	3278.12
696.604	3300.64
696.793	3298.6
696.982	3198.24
697.171	3333.41
697.36	3280.16
697.549	3280.16
697.738	3159.33
697.927	3149.09
698.116	3251.49
698.305	3149.09
698.494	3208.48
698.683	3198.24
698.872	3116.33
699.061	3185.96
699.25	3093.8
699.438	3077.41
699.627	3099.94
699.816	2997.54
700.005	3085.61
700.193	3001.64
700.382	3087.65
700.571	3058.98
700.76	2985.26
700.948	3165.48
701.137	2989.35
701.326	2968.87
701.514	3003.69
701.703	3009.83
701.892	3028.26
702.08	3036.45
702.269	2954.54
702.457	2981.16
702.646	2882.86
702.834	2929.96
703.023	2864.43
703.212	2956.58
703.4	2886.95
703.589	2628.91
703.777	3034.41
703.965	2682.16
704.154	2952.49
704.342	2780.46
704.531	2802.99
704.719	2723.12
704.907	2899.24
705.096	2757.93
705.284	2739.5
705.472	2768.17
705.661	2858.28
705.849	2837.8
706.037	2911.53
706.226	2780.46
706.414	2741.55
706.602	2725.16
706.79	2663.72
706.979	2698.54
707.167	2612.53
707.355	2704.68
707.543	2774.31
707.731	2649.39
707.919	2733.36
708.107	2768.17
708.296	2643.24
708.484	2635.05
708.672	2678.06
708.86	2692.4
709.048	2585.9
709.236	2667.82
709.424	2680.11
709.612	2567.47
709.8	2477.36
709.988	2616.62
710.176	2657.58
710.364	2559.28
710.551	2520.37
710.739	2460.98
710.927	2501.94
711.115	2546.99
711.303	2542.89
711.491	2469.17
711.679	2420.02
711.866	2526.51
712.054	2485.55
712.242	2463.02
712.43	2501.94
712.617	2536.75
712.805	2514.22
712.993	2594.09
713.181	2372.91
713.368	2536.75
713.556	2471.22
713.744	2364.72
713.931	2571.57
714.119	2477.36
714.306	2397.49
714.494	2387.25
714.682	2338.1
714.869	2362.67
715.057	2432.3
715.244	2290.99
715.432	2297.14
715.619	2317.62
715.807	2354.48
715.994	2313.52
716.182	2297.14
716.369	2305.33
716.556	2264.37
716.744	2276.66
716.931	2284.85
717.119	2448.69
717.306	2272.56
717.493	2243.89
717.681	2254.13
717.868	2297.14
718.055	2223.41
718.242	2323.76
718.43	2356.53
718.617	2198.84
718.804	2196.79
718.991	2321.71
719.179	2288.95
719.366	2149.68
719.553	2219.32
719.74	2080.05
719.927	2221.36
720.114	2086.2
720.301	2151.73
720.488	2137.4
720.676	2262.32
720.863	2256.18
721.05	2096.44
721.237	2180.4
721.424	2139.44
721.611	2161.97
721.798	2125.11
721.985	2045.24
722.172	2022.71
722.358	2125.11
722.545	2084.15
722.732	1985.85
722.919	2051.38
723.106	2104.63
723.293	1895.74
723.48	2094.39
723.667	1957.18
723.853	2045.24
724.04	1912.12
724.227	2006.33
724.414	1926.46
724.6	2032.95
724.787	2071.86
724.974	1948.98
725.161	1903.93
725.347	1928.5
725.534	1936.7
725.72	2010.42
725.907	2039.09
726.094	2035
726.28	2020.66
726.467	1936.7
726.653	1957.18
726.84	2022.71
727.027	1938.74
727.213	1793.34
727.4	2043.19
727.586	1875.26
727.773	1881.4
727.959	1905.98
728.145	1944.89
728.332	1871.16
728.518	1871.16
728.705	1858.87
728.891	1879.35
729.077	1914.17
729.264	1838.39
729.45	1838.39
729.636	1862.97
729.823	1885.5
730.009	1832.25
730.195	1789.24
730.382	1766.71
730.568	1799.48
730.754	1758.52
730.94	1838.39
731.126	1926.46
731.313	1756.47
731.499	1776.95
731.685	1842.49
731.871	1756.47
732.057	1692.99
732.243	1803.58
732.429	1772.86
732.615	1781.05
732.801	1832.25
732.987	1774.91
733.173	1789.24
733.359	1707.32
733.545	1733.95
733.731	1776.95
733.917	1744.19
734.103	1815.87
734.289	1719.61
734.475	1766.71
734.661	1686.84
734.847	1654.08
735.033	1740.09
735.219	1785.15
735.404	1793.34
735.59	1654.08
735.776	1621.31
735.962	1729.85
736.148	1682.75
736.333	1625.4
736.519	1604.92
736.705	1643.84
736.89	1760.57
737.076	1600.83
737.262	1594.68
737.447	1543.49
737.633	1576.25
737.819	1688.89
738.004	1701.18
738.19	1510.72
738.375	1594.68
738.561	1692.99
738.747	1602.88
738.932	1604.92
739.118	1611.07
739.303	1584.45
739.489	1514.81
739.674	1510.72
739.859	1508.67
740.045	1586.49
740.23	1582.4
740.416	1555.77
740.601	1594.68
740.786	1498.43
740.972	1525.05
741.157	1518.91
741.342	1486.14
741.528	1430.85
741.713	1535.29
741.898	1396.03
742.084	1412.42
742.269	1473.85
742.454	1471.81
742.639	1477.95
742.824	1445.18
743.01	1486.14
743.195	1473.85
743.38	1420.61
743.565	1494.33
743.75	1439.04
743.935	1389.89
744.12	1457.47
744.305	1393.98
744.49	1357.12
744.675	1510.72
744.86	1342.78
745.045	1348.93
745.23	1404.22
745.415	1346.88
745.6	1281.35
745.785	1359.17
745.97	1416.51
746.155	1396.03
746.34	1307.97
746.525	1299.78
746.71	1420.61
746.895	1305.92
747.079	1199.43
747.264	1142.08
747.449	1348.93
747.634	1248.58
747.819	1228.1
748.003	1168.71
748.188	1226.05
748.373	1287.49
748.557	1189.19
748.742	1137.99
748.927	1166.66
749.111	1150.28
749.296	1146.18
749.481	1242.43
749.665	1185.09
749.85	1121.6
750.034	1170.76
750.219	1142.08
750.404	1176.9
750.588	1146.18
750.773	1084.74
750.957	1105.22
751.141	1117.51
751.326	1080.64
751.51	1117.51
751.695	1160.52
751.879	1037.64
752.064	1078.6
752.248	1051.97
752.432	1111.36
752.617	1011.01
752.801	1068.36
752.985	1109.32
753.17	1054.02
753.354	986.44
753.538	1000.77
753.722	974.15
753.907	1002.82
754.091	1019.21
754.275	945.48
754.459	996.68
754.643	963.91
754.828	871.75
755.012	1035.59
755.196	965.96
755.38	881.99
755.564	906.57
755.748	939.34
755.932	970.05
756.116	916.81
756.3	931.14
756.484	961.86
756.668	945.48
756.852	869.7
757.036	959.81
757.22	822.6
757.404	970.05
757.588	812.36
757.772	869.7
757.956	892.23
758.14	918.86
758.323	849.22
758.507	783.69
758.691	824.65
758.875	896.33
759.059	912.71
759.242	816.46
759.426	855.37
759.61	875.85
759.794	875.85
759.977	922.95
760.161	988.49
760.345	890.18
760.528	830.79
760.712	818.5
760.895	781.64
761.079	838.98
761.263	826.7
761.446	750.92
761.63	736.59
761.813	857.42
761.997	726.35
762.18	818.5
762.364	761.16
762.547	671.05
762.731	773.45
762.914	732.49
763.098	691.53
763.281	626
763.464	707.91
763.648	671.05
763.831	685.39
764.015	748.87
764.198	732.49
764.381	644.43
764.564	789.83
764.748	691.53
764.931	765.26
765.114	642.38
765.297	728.39
765.481	687.43
765.664	658.76
765.847	736.59
766.03	701.77
766.213	626
766.397	675.15
766.58	646.48
766.763	701.77
766.946	679.24
767.129	716.11
767.312	585.04
767.495	658.76
767.678	628.04
767.861	585.04
768.044	658.76
768.227	666.96
768.41	636.24
768.593	630.09
768.776	638.28
768.959	636.24
769.142	716.11
769.324	580.94
769.507	603.47
769.69	611.66
769.873	570.7
770.056	654.67
770.239	658.76
770.421	664.91
770.604	685.39
770.787	628.04
770.97	519.5
771.152	585.04
771.335	642.38
771.518	531.79
771.7	570.7
771.883	619.85
772.066	576.84
772.248	576.84
772.431	603.47
772.613	652.62
772.796	517.45
772.978	578.89
773.161	548.17
773.343	568.65
773.526	537.93
773.708	570.7
773.891	478.54
774.073	593.23
774.256	513.36
774.438	503.12
774.621	544.08
774.803	505.17
774.985	580.94
775.168	503.12
775.35	496.97
775.532	556.36
775.715	468.3
775.897	472.4
776.079	603.47
776.261	488.78
776.444	605.52
776.626	525.65
776.808	445.77
776.99	470.35
777.173	482.64
777.355	441.68
777.537	429.39
777.719	527.69
777.901	449.87
778.083	464.21
778.265	503.12
778.447	484.69
778.629	400.72
778.811	472.4
778.993	486.73
779.175	466.25
779.357	396.62
779.539	406.86
779.721	429.39
779.903	474.45
780.085	380.24
780.267	470.35
780.449	396.62
780.631	417.1
780.812	396.62
780.994	410.96
781.176	456.01
781.358	351.57
781.54	335.18
781.721	439.63
781.903	382.29
782.085	329.04
782.267	404.82
782.448	398.67
782.63	335.18
782.812	400.72
782.993	392.53
783.175	404.82
783.357	415.05
783.538	316.75
783.72	343.38
783.901	347.47
784.083	380.24
784.264	382.29
784.446	306.51
784.627	249.17
784.809	343.38
784.99	296.27
785.172	372.05
785.353	376.14
785.535	277.84
785.716	331.09
785.897	349.52
786.079	306.51
786.26	331.09
786.441	357.71
786.623	269.65
786.804	294.22
786.985	292.18
787.167	286.03
787.348	257.36
787.529	374.1
787.71	351.57
787.891	281.94
788.073	273.75
788.254	269.65
788.435	343.38
788.616	255.31
788.797	298.32
788.978	300.37
789.159	322.9
789.34	308.56
789.522	320.85
789.703	261.46
789.884	273.75
790.065	294.22
790.246	316.75
790.427	290.13
790.607	224.59
790.788	294.22
790.969	234.83
791.15	306.51
791.331	224.59
791.512	247.12
791.693	234.83
791.874	247.12
792.054	347.47
792.235	281.94
792.416	275.79
792.597	240.98
792.778	257.36
792.958	210.26
793.139	224.59
793.32	193.87
793.5	249.17
793.681	339.28
793.862	257.36
794.042	191.83
794.223	218.45
794.404	232.79
794.584	183.63
794.765	177.49
794.945	292.18
795.126	269.65
795.306	208.21
795.487	249.17
795.667	146.77
795.848	236.88
796.028	249.17
796.209	226.64
796.389	249.17
796.57	243.03
796.75	175.44
796.93	230.74
797.111	230.74
797.291	161.11
797.471	251.22
797.652	179.54
797.832	152.91
798.012	197.97
798.192	130.39
798.373	159.06
798.553	208.21
798.733	191.83
798.913	171.35
799.093	118.1
799.274	257.36
799.454	333.14
799.634	187.73
799.814	294.22
799.994	210.26
800.174	240.98
800.354	185.68
800.534	167.25
800.714	171.35
800.894	126.29
801.074	134.48
801.254	204.11
801.434	171.35
801.614	150.87
801.794	175.44
801.974	781.64
802.154	159.06
802.334	183.63
802.514	105.81
802.693	159.06
802.873	200.02
803.053	161.11
803.233	154.96
803.413	134.48
803.592	269.65
803.772	202.07
803.952	134.48
804.131	193.87
804.311	185.68
804.491	265.55
804.67	167.25
804.85	230.74
805.03	103.76
805.209	267.6
805.389	152.91
805.568	142.68
805.748	200.02
805.928	216.4
806.107	222.55
806.287	130.39
806.466	175.44
806.646	183.63
806.825	122.2
807.004	71
807.184	171.35
807.363	77.14
807.543	142.68
807.722	71
807.901	200.02
808.081	183.63
808.26	114
808.439	101.72
808.619	62.8
808.798	87.38
808.977	208.21
809.156	183.63
809.336	136.53
809.515	97.62
809.694	85.33
809.873	132.44
810.052	236.88
810.231	167.25
810.411	93.52
810.59	167.25
810.769	105.81
810.948	111.96
811.127	103.76
811.306	107.86
811.485	159.06
811.664	163.15
811.843	171.35
812.022	150.87
812.201	97.62
812.38	122.2
812.559	81.24
812.737	95.57
812.916	66.9
813.095	152.91
813.274	68.95
813.453	120.15
813.632	154.96
813.811	89.43
813.989	114
814.168	107.86
814.347	118.1
814.526	97.62
814.704	132.44
814.883	93.52
815.062	85.33
815.24	120.15
815.419	122.2
815.598	101.72
815.776	64.85
815.955	118.1
816.133	73.04
816.312	161.11
816.49	79.19
816.669	44.37
816.847	36.18
817.026	77.14
817.204	114
817.383	146.77
817.561	50.52
817.74	126.29
817.918	167.25
818.097	103.76
818.275	111.96
818.453	134.48
818.632	1.37
818.81	101.72
818.988	134.48
819.167	136.53
819.345	161.11
819.523	68.95
819.701	87.38
819.879	111.96
820.058	93.52
820.236	71
820.414	71
820.592	93.52
820.77	77.14
820.948	150.87
821.127	44.37
821.305	101.72
821.483	21.85
821.661	185.68
821.839	128.34
822.017	60.76
822.195	163.15
822.373	13.65
822.551	152.91
822.729	107.86
822.907	44.37
823.085	118.1
823.262	64.85
823.44	93.52
823.618	64.85
823.796	101.72
823.974	79.19
824.152	77.14
824.329	105.81
824.507	81.24
824.685	144.72
824.863	142.68
825.04	87.38
825.218	77.14
825.396	60.76
825.574	85.33
825.751	81.24
825.929	103.76
826.107	56.66
826.284	71
826.462	167.25
826.639	52.56
826.817	48.47
826.994	111.96
827.172	34.13
827.349	107.86
827.527	44.37
827.704	56.66
827.882	73.04
828.059	15.7
828.237	3.41
828.414	142.68
828.591	77.14
828.769	73.04
828.946	81.24
829.124	126.29
829.301	101.72
829.478	71
829.655	56.66
829.833	68.95
830.01	46.42
830.187	95.57
830.364	85.33
830.542	97.62
830.719	99.67
830.896	56.66
831.073	64.85
831.25	77.14
831.427	93.52
831.604	9.56
831.782	44.37
831.959	109.91
832.136	95.57
832.313	60.76
832.49	97.62
832.667	64.85
832.844	27.99
833.021	95.57
833.198	48.47
833.374	44.37
833.551	79.19
833.728	114
833.905	93.52
834.082	-35.5
834.259	66.9
834.436	60.76
834.612	38.23
834.789	77.14
834.966	103.76
835.143	83.28
835.319	-39.59
835.496	75.09
835.673	81.24
835.85	152.91
836.026	64.85
836.203	134.48
836.38	27.99
836.556	73.04
836.733	-2.73
836.909	124.24
837.086	36.18
837.262	-12.97
837.439	83.28
837.616	97.62
837.792	48.47
837.968	52.56
838.145	48.47
838.321	54.61
838.498	85.33
838.674	71
838.851	99.67
839.027	3.41
839.203	7.51
839.38	85.33
839.556	19.8
839.732	93.52
839.909	-12.97
840.085	-4.78
840.261	3.41
840.437	122.2
840.614	66.9
840.79	60.76
840.966	15.7
841.142	71
841.318	68.95
841.494	77.14
841.671	144.72
841.847	13.65
842.023	52.56
842.199	118.1
842.375	95.57
842.551	60.76
842.727	-31.4
842.903	124.24
843.079	58.71
843.255	157.01
843.431	79.19
843.607	9.56
843.783	-4.78
843.959	19.8
844.134	60.76
844.31	44.37
844.486	40.28
844.662	60.76
844.838	23.89
845.013	71
845.189	19.8
845.365	27.99
845.541	27.99
845.716	5.46
845.892	40.28
846.068	27.99
846.244	34.13
846.419	109.91
846.595	-23.21
846.77	30.04
846.946	71
847.122	60.76
847.297	25.94
847.473	126.29
847.648	15.7
847.824	56.66
847.999	-6.83
848.175	19.8
848.35	105.81
848.526	87.38
848.701	114
848.876	138.58
849.052	15.7
849.227	19.8
849.403	27.99
849.578	13.65
849.753	93.52
849.929	77.14
850.104	30.04
850.279	11.61
850.454	44.37
850.63	40.28
850.805	17.75
850.98	-21.16
851.155	13.65
851.33	101.72
851.505	27.99
851.681	148.82
851.856	11.61
852.031	32.08
852.206	-10.92
852.381	27.99
852.556	107.86
852.731	36.18
852.906	44.37
853.081	-8.87
853.256	60.76
853.431	15.7
853.606	109.91
853.781	-35.5
853.956	-21.16
854.131	79.19
854.305	21.85
854.48	15.7
854.655	-35.5
854.83	13.65
855.005	7.51
855.18	77.14
855.354	-74.41
855.529	-25.26
855.704	3.41
855.879	93.52
856.053	-8.87
856.228	79.19
856.403	11.61
856.577	38.23
856.752	71
856.926	13.65
857.101	42.32
857.276	15.7
857.45	21.85
857.625	15.7
857.799	-2.73
857.974	44.37
858.148	-37.55
858.323	71
858.497	-29.35
858.672	27.99
858.846	-37.55
859.02	54.61
859.195	-4.78
859.369	19.8
859.543	36.18
859.718	32.08
859.892	34.13
860.066	79.19
860.241	-12.97
860.415	3.41
860.589	3.41
860.763	-29.35
860.938	13.65
861.112	-4.78
861.286	34.13
861.46	-15.02
861.634	19.8
861.808	38.23
861.982	19.8
862.157	36.18
862.331	32.08
862.505	9.56
862.679	-6.83
862.853	77.14
863.027	50.52
863.201	114
863.375	7.51
863.549	-10.92
863.722	77.14
863.896	101.72
864.07	50.52
864.244	-0.68
864.418	36.18
864.592	30.04
864.766	-45.74
864.939	40.28
865.113	13.65
865.287	48.47
865.461	-17.07
865.634	-19.11
865.808	30.04
865.982	-12.97
866.156	44.37
866.329	-12.97
866.503	-27.31
866.676	68.95
866.85	48.47
867.024	-2.73
867.197	13.65
867.371	42.32
867.544	-12.97
867.718	-60.07
867.891	23.89
868.065	-25.26
868.238	13.65
868.412	36.18
868.585	9.56
868.759	38.23
868.932	13.65
869.105	-12.97
869.279	30.04
869.452	-62.12
869.625	-0.68
869.799	-25.26
869.972	-58.03
870.145	-60.07
870.319	71
870.492	3.41
870.665	48.47
870.838	36.18
871.011	-19.11
871.185	-2.73
871.358	-17.07
871.531	13.65
871.704	-35.5
871.877	46.42
872.05	30.04
872.223	79.19
872.396	60.76
872.569	44.37
872.742	-2.73
872.915	11.61
873.088	30.04
873.261	-2.73
873.434	19.8
873.607	7.51
873.78	-0.68
873.953	-35.5
874.126	40.28
874.299	21.85
874.471	-45.74
874.644	-12.97
874.817	-27.31
874.99	130.39
875.163	25.94
875.335	-10.92
875.508	-10.92
875.681	68.95
875.853	19.8
876.026	-58.03
876.199	54.61
876.371	-10.92
876.544	46.42
876.717	19.8
876.889	-8.87
877.062	105.81
877.234	36.18
877.407	52.56
877.579	-12.97
877.752	71
877.924	27.99
878.097	77.14
878.269	-49.83
878.442	-12.97
878.614	62.8
878.786	77.14
878.959	97.62
879.131	17.75
879.303	-21.16
879.476	3.41
879.648	-55.98
879.82	68.95
879.993	5.46
880.165	13.65
880.337	13.65
880.509	52.56
880.681	-19.11
880.854	52.56
881.026	44.37
881.198	79.19
881.37	27.99
881.542	58.71
881.714	-8.87
881.886	-2.73
882.058	15.7
882.23	54.61
882.402	-58.03
882.574	5.46
882.746	15.7
882.918	101.72
883.09	81.24
883.262	11.61
883.434	54.61
883.606	19.8
883.778	38.23
883.95	27.99
884.122	40.28
884.293	44.37
884.465	11.61
884.637	58.71
884.809	1.37
884.98	13.65
885.152	21.85
885.324	56.66
885.496	-62.12
885.667	15.7
885.839	101.72
886.011	89.43
886.182	44.37
886.354	36.18
886.525	42.32
886.697	21.85
886.869	3.41
887.04	19.8
887.212	27.99
887.383	9.56
887.555	85.33
887.726	-27.31
887.897	34.13
888.069	-37.55
888.24	91.48
888.412	-29.35
888.583	-25.26
888.754	27.99
888.926	-62.12
889.097	46.42
889.268	-27.31
889.44	38.23
889.611	-29.35
889.782	23.89
889.953	-0.68
890.125	66.9
890.296	-62.12
890.467	38.23
890.638	-37.55
890.809	17.75
890.98	32.08
891.151	54.61
891.323	32.08
891.494	85.33
891.665	60.76
891.836	-4.78
892.007	-70.31
892.178	68.95
892.349	-53.93
892.52	44.37
892.691	36.18
892.862	17.75
893.032	-37.55
893.203	77.14
893.374	-17.07
893.545	60.76
893.716	-94.89
893.887	-12.97
894.057	-4.78
894.228	13.65
894.399	36.18
894.57	60.76
894.74	-25.26
894.911	13.65
895.082	30.04
895.253	-12.97
895.423	60.76
895.594	136.53
895.764	11.61
895.935	5.46
896.106	-21.16
896.276	-21.16
896.447	11.61
896.617	19.8
896.788	-82.6
896.958	15.7
897.129	5.46
897.299	-27.31
897.47	23.89
897.64	3.41
897.81	-0.68
897.981	85.33
898.151	60.76
898.322	-17.07
898.492	36.18
898.662	-29.35
898.832	-23.21
899.003	71
899.173	36.18
899.343	44.37
899.513	-17.07
