Data from USB4F104151__130__14-31-41-553.txt Node

Date: Thu Mar 13 14:31:41 EDT 2025
User: louis
Spectrometer: USB4F10415
Trigger mode: 4
Integration Time (sec): 2.500000E-2
Scans to average: 1
Electric dark correction enabled: true
Nonlinearity correction enabled: false
Boxcar width: 0
XAxis mode: Wavelengths
Number of Pixels in Spectrum: 3648
>>>>>Begin Spectral Data<<<<<
178.204	-68.78
178.424	-68.78
178.644	-68.78
178.864	-93.35
179.084	-140.46
179.304	-3.24
179.524	31.57
179.744	2.9
179.964	-7.34
180.184	-7.34
180.404	21.33
180.624	-25.77
180.844	15.19
181.064	-5.29
181.283	-17.58
181.503	-89.26
181.723	84.82
181.943	13.14
182.163	105.3
182.383	-11.43
182.602	88.92
182.822	93.01
183.042	21.33
183.262	0.85
183.482	95.06
183.701	23.38
183.921	27.48
184.141	41.81
184.361	70.48
184.58	90.96
184.8	15.19
185.02	70.48
185.239	95.06
185.459	90.96
185.679	105.3
185.898	-136.36
186.118	52.05
186.338	-27.82
186.557	29.52
186.777	-11.43
186.997	86.87
187.216	25.43
187.436	-46.25
187.655	50
187.875	37.72
188.095	88.92
188.314	60.24
188.534	93.01
188.753	99.16
188.973	21.33
189.192	66.39
189.412	84.82
189.631	113.49
189.851	15.19
190.07	70.48
190.29	23.38
190.509	39.76
190.729	17.24
190.948	66.39
191.168	258.9
191.387	50
191.607	86.87
191.826	45.91
192.045	11.09
192.265	84.82
192.484	80.72
192.704	-1.19
192.923	70.48
193.142	172.88
193.362	-9.39
193.581	0.85
193.8	-1.19
194.02	66.39
194.239	62.29
194.458	95.06
194.678	50
194.897	64.34
195.116	66.39
195.335	-11.43
195.555	115.54
195.774	45.91
195.993	37.72
196.212	31.57
196.432	82.77
196.651	21.33
196.87	62.29
197.089	162.64
197.308	39.76
197.528	95.06
197.747	78.68
197.966	50
198.185	154.45
198.404	9.05
198.623	113.49
198.842	29.52
199.062	58.2
199.281	29.52
199.5	15.19
199.719	64.34
199.938	93.01
200.157	64.34
200.376	56.15
200.595	154.45
200.814	99.16
201.033	54.1
201.252	160.59
201.471	103.25
201.69	138.07
201.909	47.96
202.128	66.39
202.347	29.52
202.566	21.33
202.785	-11.43
203.004	21.33
203.223	-5.29
203.442	-17.58
203.661	29.52
203.879	86.87
204.098	131.92
204.317	15.19
204.536	47.96
204.755	74.58
204.974	4.95
205.193	-1.19
205.411	117.59
205.63	9.05
205.849	21.33
206.068	43.86
206.287	95.06
206.505	19.29
206.724	138.07
206.943	39.76
207.162	45.91
207.381	60.24
207.599	-52.39
207.818	-70.83
208.037	-19.63
208.255	7
208.474	70.48
208.693	47.96
208.911	33.62
209.13	90.96
209.349	66.39
209.567	74.58
209.786	82.77
210.005	9.05
210.223	19.29
210.442	-3.24
210.661	93.01
210.879	13.14
211.098	72.53
211.316	60.24
211.535	136.02
211.753	54.1
211.972	-17.58
212.191	-1.19
212.409	29.52
212.628	64.34
212.846	86.87
213.065	25.43
213.283	97.11
213.502	-105.64
213.72	86.87
213.938	29.52
214.157	88.92
214.375	86.87
214.594	66.39
214.812	47.96
215.031	54.1
215.249	9.05
215.467	-1.19
215.686	70.48
215.904	127.83
216.122	-42.15
216.341	103.25
216.559	62.29
216.778	50
216.996	136.02
217.214	99.16
217.432	70.48
217.651	-15.53
217.869	-36.01
218.087	-17.58
218.306	41.81
218.524	119.64
218.742	58.2
218.96	82.77
219.179	103.25
219.397	148.31
219.615	152.4
219.833	95.06
220.051	84.82
220.27	62.29
220.488	156.5
220.706	117.59
220.924	45.91
221.142	70.48
221.36	111.44
221.578	37.72
221.796	23.38
222.015	54.1
222.233	39.76
222.451	4.95
222.669	9.05
222.887	56.15
223.105	-50.35
223.323	140.12
223.541	-21.67
223.759	-1.19
223.977	37.72
224.195	62.29
224.413	50
224.631	70.48
224.849	50
225.067	105.3
225.285	7
225.503	37.72
225.721	19.29
225.939	7
226.157	121.68
226.375	66.39
226.592	45.91
226.81	56.15
227.028	119.64
227.246	62.29
227.464	0.85
227.682	107.35
227.9	-7.34
228.117	62.29
228.335	39.76
228.553	74.58
228.771	60.24
228.989	72.53
229.206	21.33
229.424	29.52
229.642	82.77
229.86	-33.96
230.077	72.53
230.295	86.87
230.513	62.29
230.731	123.73
230.948	90.96
231.166	43.86
231.384	15.19
231.601	-23.72
231.819	127.83
232.037	31.57
232.254	35.67
232.472	95.06
232.689	23.38
232.907	70.48
233.125	66.39
233.342	-36.01
233.56	56.15
233.777	66.39
233.995	90.96
234.213	25.43
234.43	27.48
234.648	39.76
234.865	35.67
235.083	70.48
235.3	76.63
235.518	58.2
235.735	78.68
235.953	78.68
236.17	97.11
236.388	-15.53
236.605	78.68
236.822	37.72
237.04	105.3
237.257	107.35
237.475	15.19
237.692	45.91
237.909	70.48
238.127	119.64
238.344	7
238.562	105.3
238.779	-1.19
238.996	111.44
239.214	41.81
239.431	111.44
239.648	-7.34
239.865	56.15
240.083	107.35
240.3	50
240.517	31.57
240.735	25.43
240.952	111.44
241.169	148.31
241.386	41.81
241.603	78.68
241.821	-36.01
242.038	144.21
242.255	70.48
242.472	41.81
242.689	33.62
242.907	95.06
243.124	84.82
243.341	107.35
243.558	21.33
243.775	-27.82
243.992	43.86
244.209	54.1
244.426	129.88
244.643	58.2
244.86	52.05
245.078	90.96
245.295	25.43
245.512	52.05
245.729	4.95
245.946	33.62
246.163	23.38
246.38	17.24
246.597	78.68
246.814	90.96
247.031	64.34
247.248	109.4
247.464	74.58
247.681	78.68
247.898	103.25
248.115	-9.39
248.332	27.48
248.549	119.64
248.766	95.06
248.983	19.29
249.2	54.1
249.417	72.53
249.633	-5.29
249.85	64.34
250.067	72.53
250.284	-3.24
250.501	119.64
250.717	54.1
250.934	29.52
251.151	45.91
251.368	21.33
251.585	121.68
251.801	70.48
252.018	66.39
252.235	103.25
252.451	76.63
252.668	54.1
252.885	86.87
253.102	62.29
253.318	72.53
253.535	74.58
253.752	-1.19
253.968	29.52
254.185	45.91
254.401	58.2
254.618	54.1
254.835	13.14
255.051	70.48
255.268	35.67
255.484	95.06
255.701	43.86
255.917	88.92
256.134	90.96
256.351	33.62
256.567	31.57
256.784	-19.63
257	54.1
257.217	64.34
257.433	37.72
257.65	78.68
257.866	66.39
258.082	9.05
258.299	-66.73
258.515	78.68
258.732	33.62
258.948	95.06
259.165	70.48
259.381	95.06
259.597	82.77
259.814	4.95
260.03	39.76
260.246	80.72
260.463	43.86
260.679	111.44
260.895	86.87
261.112	64.34
261.328	95.06
261.544	37.72
261.761	162.64
261.977	31.57
262.193	-33.96
262.409	88.92
262.626	41.81
262.842	70.48
263.058	86.87
263.274	35.67
263.49	62.29
263.707	115.54
263.923	66.39
264.139	33.62
264.355	21.33
264.571	93.01
264.787	111.44
265.004	86.87
265.22	29.52
265.436	86.87
265.652	76.63
265.868	111.44
266.084	7
266.3	103.25
266.516	70.48
266.732	29.52
266.948	138.07
267.164	111.44
267.38	2.9
267.596	66.39
267.812	123.73
268.028	82.77
268.244	148.31
268.46	86.87
268.676	27.48
268.892	103.25
269.108	45.91
269.324	64.34
269.54	31.57
269.756	47.96
269.972	37.72
270.188	86.87
270.403	86.87
270.619	25.43
270.835	72.53
271.051	45.91
271.267	-7.34
271.483	23.38
271.698	80.72
271.914	-38.06
272.13	37.72
272.346	107.35
272.562	31.57
272.777	47.96
272.993	99.16
273.209	66.39
273.425	62.29
273.64	21.33
273.856	168.79
274.072	64.34
274.287	25.43
274.503	115.54
274.719	136.02
274.934	29.52
275.15	21.33
275.366	70.48
275.581	-52.39
275.797	72.53
276.012	-25.77
276.228	-9.39
276.444	37.72
276.659	58.2
276.875	7
277.09	56.15
277.306	54.1
277.521	97.11
277.737	37.72
277.952	107.35
278.168	45.91
278.383	119.64
278.599	84.82
278.814	99.16
279.03	86.87
279.245	99.16
279.461	70.48
279.676	70.48
279.892	45.91
280.107	66.39
280.322	-3.24
280.538	50
280.753	17.24
280.969	131.92
281.184	64.34
281.399	162.64
281.615	33.62
281.83	66.39
282.045	15.19
282.26	11.09
282.476	7
282.691	84.82
282.906	54.1
283.122	56.15
283.337	58.2
283.552	80.72
283.767	21.33
283.983	-17.58
284.198	-7.34
284.413	146.26
284.628	62.29
284.843	4.95
285.058	21.33
285.274	39.76
285.489	41.81
285.704	-9.39
285.919	56.15
286.134	64.34
286.349	39.76
286.564	64.34
286.779	127.83
286.995	86.87
287.21	64.34
287.425	97.11
287.64	54.1
287.855	56.15
288.07	99.16
288.285	66.39
288.5	129.88
288.715	0.85
288.93	111.44
289.145	13.14
289.36	136.02
289.575	86.87
289.79	33.62
290.004	47.96
290.219	90.96
290.434	25.43
290.649	19.29
290.864	56.15
291.079	-5.29
291.294	13.14
291.509	119.64
291.724	127.83
291.938	82.77
292.153	27.48
292.368	70.48
292.583	103.25
292.798	-17.58
293.012	72.53
293.227	105.3
293.442	95.06
293.657	52.05
293.871	107.35
294.086	99.16
294.301	103.25
294.516	70.48
294.73	58.2
294.945	-1.19
295.16	74.58
295.374	146.26
295.589	107.35
295.804	-33.96
296.018	54.1
296.233	99.16
296.447	86.87
296.662	17.24
296.877	111.44
297.091	129.88
297.306	54.1
297.52	-42.15
297.735	-27.82
297.949	123.73
298.164	117.59
298.378	41.81
298.593	-11.43
298.807	62.29
299.022	54.1
299.236	41.81
299.451	82.77
299.665	17.24
299.88	45.91
300.094	41.81
300.309	-13.48
300.523	2.9
300.737	-27.82
300.952	95.06
301.166	103.25
301.381	-23.72
301.595	4.95
301.809	37.72
302.024	88.92
302.238	-3.24
302.452	103.25
302.667	78.68
302.881	105.3
303.095	86.87
303.309	156.5
303.524	7
303.738	25.43
303.952	50
304.166	107.35
304.381	7
304.595	152.4
304.809	9.05
305.023	58.2
305.237	78.68
305.452	29.52
305.666	103.25
305.88	45.91
306.094	31.57
306.308	27.48
306.522	62.29
306.736	66.39
306.95	78.68
307.164	80.72
307.379	140.12
307.593	111.44
307.807	101.2
308.021	90.96
308.235	15.19
308.449	-25.77
308.663	41.81
308.877	103.25
309.091	64.34
309.305	95.06
309.519	-27.82
309.733	88.92
309.947	13.14
310.161	127.83
310.374	82.77
310.588	105.3
310.802	21.33
311.016	119.64
311.23	84.82
311.444	37.72
311.658	58.2
311.872	76.63
312.085	45.91
312.299	160.59
312.513	123.73
312.727	70.48
312.941	60.24
313.154	56.15
313.368	17.24
313.582	66.39
313.796	21.33
314.009	45.91
314.223	66.39
314.437	115.54
314.651	140.12
314.864	37.72
315.078	43.86
315.292	-5.29
315.505	84.82
315.719	66.39
315.933	54.1
316.146	54.1
316.36	-11.43
316.573	64.34
316.787	117.59
317.001	13.14
317.214	13.14
317.428	45.91
317.641	41.81
317.855	66.39
318.068	66.39
318.282	86.87
318.495	111.44
318.709	54.1
318.922	37.72
319.136	119.64
319.349	107.35
319.563	111.44
319.776	138.07
319.99	7
320.203	52.05
320.417	56.15
320.63	103.25
320.843	136.02
321.057	56.15
321.27	58.2
321.483	107.35
321.697	27.48
321.91	41.81
322.124	95.06
322.337	11.09
322.55	82.77
322.763	80.72
322.977	37.72
323.19	21.33
323.403	86.87
323.617	93.01
323.83	33.62
324.043	-9.39
324.256	115.54
324.469	56.15
324.683	39.76
324.896	9.05
325.109	86.87
325.322	39.76
325.535	136.02
325.748	99.16
325.962	62.29
326.175	74.58
326.388	103.25
326.601	119.64
326.814	7
327.027	62.29
327.24	119.64
327.453	31.57
327.666	136.02
327.879	97.11
328.092	119.64
328.305	60.24
328.518	74.58
328.731	56.15
328.944	72.53
329.157	66.39
329.37	11.09
329.583	37.72
329.796	39.76
330.009	-68.78
330.222	127.83
330.435	74.58
330.648	88.92
330.861	68.44
331.073	99.16
331.286	90.96
331.499	74.58
331.712	21.33
331.925	37.72
332.138	72.53
332.35	70.48
332.563	43.86
332.776	86.87
332.989	47.96
333.202	66.39
333.414	54.1
333.627	56.15
333.84	27.48
334.053	31.57
334.265	45.91
334.478	72.53
334.691	21.33
334.903	72.53
335.116	-1.19
335.329	70.48
335.541	82.77
335.754	105.3
335.966	13.14
336.179	76.63
336.392	29.52
336.604	66.39
336.817	70.48
337.029	70.48
337.242	25.43
337.454	144.21
337.667	56.15
337.88	66.39
338.092	25.43
338.305	123.73
338.517	84.82
338.729	138.07
338.942	88.92
339.154	62.29
339.367	86.87
339.579	62.29
339.792	39.76
340.004	154.45
340.217	31.57
340.429	0.85
340.641	-11.43
340.854	70.48
341.066	27.48
341.278	129.88
341.491	54.1
341.703	72.53
341.915	2.9
342.128	70.48
342.34	123.73
342.552	17.24
342.764	74.58
342.977	119.64
343.189	113.49
343.401	13.14
343.613	-68.78
343.826	86.87
344.038	15.19
344.25	54.1
344.462	-42.15
344.674	107.35
344.886	70.48
345.099	70.48
345.311	37.72
345.523	37.72
345.735	33.62
345.947	31.57
346.159	133.97
346.371	80.72
346.583	68.44
346.795	195.41
347.007	70.48
347.219	103.25
347.431	37.72
347.643	88.92
347.855	136.02
348.067	140.12
348.279	50
348.491	131.92
348.703	70.48
348.915	52.05
349.127	27.48
349.339	86.87
349.551	54.1
349.763	86.87
349.975	76.63
350.187	129.88
350.399	127.83
350.61	99.16
350.822	70.48
351.034	95.06
351.246	88.92
351.458	111.44
351.669	47.96
351.881	125.78
352.093	66.39
352.305	80.72
352.517	47.96
352.728	172.88
352.94	17.24
353.152	39.76
353.363	29.52
353.575	115.54
353.787	146.26
353.999	43.86
354.21	117.59
354.422	29.52
354.633	70.48
354.845	95.06
355.057	66.39
355.268	78.68
355.48	105.3
355.692	58.2
355.903	41.81
356.115	58.2
356.326	41.81
356.538	181.07
356.749	103.25
356.961	78.68
357.172	103.25
357.384	52.05
357.595	119.64
357.807	64.34
358.018	-11.43
358.23	115.54
358.441	154.45
358.653	103.25
358.864	70.48
359.075	70.48
359.287	4.95
359.498	35.67
359.709	136.02
359.921	70.48
360.132	162.64
360.344	70.48
360.555	-48.3
360.766	97.11
360.977	58.2
361.189	164.69
361.4	15.19
361.611	-15.53
361.823	84.82
362.034	160.59
362.245	21.33
362.456	54.1
362.667	138.07
362.879	113.49
363.09	37.72
363.301	127.83
363.512	41.81
363.723	95.06
363.935	111.44
364.146	168.79
364.357	37.72
364.568	97.11
364.779	45.91
364.99	76.63
365.201	74.58
365.412	121.68
365.623	23.38
365.834	127.83
366.045	25.43
366.256	154.45
366.467	105.3
366.678	97.11
366.889	86.87
367.1	33.62
367.311	76.63
367.522	78.68
367.733	84.82
367.944	86.87
368.155	64.34
368.366	86.87
368.577	70.48
368.788	115.54
368.999	-11.43
369.209	47.96
369.42	138.07
369.631	144.21
369.842	86.87
370.053	45.91
370.264	103.25
370.474	80.72
370.685	111.44
370.896	31.57
371.107	121.68
371.317	101.2
371.528	11.09
371.739	136.02
371.95	97.11
372.16	23.38
372.371	66.39
372.582	74.58
372.792	60.24
373.003	74.58
373.214	140.12
373.424	101.2
373.635	56.15
373.846	111.44
374.056	95.06
374.267	95.06
374.477	72.53
374.688	86.87
374.898	101.2
375.109	78.68
375.319	107.35
375.53	93.01
375.74	142.16
375.951	86.87
376.161	27.48
376.372	88.92
376.582	107.35
376.793	140.12
377.003	82.77
377.214	2.9
377.424	103.25
377.635	111.44
377.845	45.91
378.055	78.68
378.266	43.86
378.476	78.68
378.686	164.69
378.897	64.34
379.107	107.35
379.317	70.48
379.528	23.38
379.738	72.53
379.948	37.72
380.158	29.52
380.369	76.63
380.579	111.44
380.789	45.91
380.999	90.96
381.21	103.25
381.42	105.3
381.63	58.2
381.84	105.3
382.05	43.86
382.261	113.49
382.471	47.96
382.681	56.15
382.891	115.54
383.101	111.44
383.311	86.87
383.521	45.91
383.731	109.4
383.941	47.96
384.151	123.73
384.361	99.16
384.571	80.72
384.781	86.87
384.991	162.64
385.201	115.54
385.411	148.31
385.621	119.64
385.831	74.58
386.041	35.67
386.251	70.48
386.461	86.87
386.671	74.58
386.881	86.87
387.091	54.1
387.301	78.68
387.511	95.06
387.72	64.34
387.93	148.31
388.14	86.87
388.35	125.78
388.56	127.83
388.769	103.25
388.979	29.52
389.189	138.07
389.399	170.83
389.609	131.92
389.818	174.93
390.028	72.53
390.238	119.64
390.447	60.24
390.657	103.25
390.867	78.68
391.076	45.91
391.286	133.97
391.496	86.87
391.705	115.54
391.915	95.06
392.125	127.83
392.334	80.72
392.544	107.35
392.753	86.87
392.963	123.73
393.172	78.68
393.382	80.72
393.591	103.25
393.801	82.77
394.01	123.73
394.22	162.64
394.429	115.54
394.639	119.64
394.848	88.92
395.058	111.44
395.267	80.72
395.477	95.06
395.686	127.83
395.895	160.59
396.105	111.44
396.314	99.16
396.524	97.11
396.733	80.72
396.942	78.68
397.152	80.72
397.361	201.55
397.57	148.31
397.78	103.25
397.989	185.17
398.198	133.97
398.407	166.74
398.617	72.53
398.826	162.64
399.035	78.68
399.244	72.53
399.453	172.88
399.663	144.21
399.872	166.74
400.081	70.48
400.29	152.4
400.499	131.92
400.708	78.68
400.917	179.03
401.127	213.84
401.336	80.72
401.545	242.51
401.754	154.45
401.963	176.98
402.172	166.74
402.381	131.92
402.59	127.83
402.799	234.32
403.008	97.11
403.217	160.59
403.426	211.79
403.635	219.99
403.844	131.92
404.053	121.68
404.262	181.07
404.471	183.12
404.68	150.36
404.888	146.26
405.097	215.89
405.306	162.64
405.515	152.4
405.724	242.51
405.933	127.83
406.142	181.07
406.35	197.46
406.559	179.03
406.768	211.79
406.977	293.71
407.185	254.8
407.394	277.33
407.603	164.69
407.812	273.23
408.02	258.9
408.229	262.99
408.438	191.31
408.646	201.55
408.855	242.51
409.064	226.13
409.272	303.95
409.481	351.06
409.69	342.86
409.898	285.52
410.107	439.12
410.315	365.39
410.524	326.48
410.733	373.58
410.941	484.17
411.15	525.13
411.358	443.21
411.567	426.83
411.775	435.02
411.984	418.64
412.192	506.7
412.401	443.21
412.609	541.52
412.818	615.24
413.026	566.09
413.234	578.38
413.443	672.59
413.651	523.09
413.86	648.01
414.068	719.69
414.276	680.78
414.485	672.59
414.693	742.22
414.901	817.99
415.11	746.31
415.318	867.14
415.526	803.66
415.734	824.14
415.943	881.48
416.151	856.9
416.359	930.63
416.567	897.86
416.776	973.64
416.984	996.17
417.192	1119.04
417.4	1096.52
417.608	1057.61
417.817	1145.67
418.025	1157.96
418.233	1254.21
418.441	1127.24
418.649	1217.35
418.857	1284.93
419.065	1487.68
419.273	1440.58
419.481	1563.45
419.689	1520.45
419.897	1620.8
420.105	1735.48
420.313	1571.65
420.521	1700.67
420.729	1805.11
420.937	1747.77
421.145	1835.83
421.353	2007.86
421.561	2143.03
421.769	2126.64
421.977	2257.71
422.185	2122.55
422.393	2360.11
422.601	2511.66
422.809	2480.94
423.017	2456.37
423.224	2544.43
423.432	2659.12
423.64	2724.65
423.848	3058.47
424.056	2908.97
424.263	3203.88
424.471	3035.94
424.679	3212.07
424.887	3369.76
425.094	3384.1
425.302	3404.58
425.51	3519.26
425.718	3785.5
425.925	3728.16
426.133	3742.49
426.341	4035.35
426.548	4129.56
426.756	4160.28
426.964	4199.19
427.171	4573.97
427.379	4573.97
427.586	4530.96
427.794	4862.73
428.001	5014.28
428.209	5198.6
428.417	5135.11
428.624	5602.05
428.832	5440.26
429.039	5526.27
429.247	5522.18
429.454	5976.83
429.662	6269.69
429.869	5899
430.076	6372.08
430.284	6236.92
430.491	6470.39
430.699	6865.64
430.906	6771.44
431.114	6900.46
431.321	7174.89
431.528	7422.69
431.736	7709.41
431.943	8192.73
432.15	7889.63
432.358	8035.03
432.565	8659.67
432.772	8213.21
432.979	8590.03
433.187	8852.17
433.394	8985.29
433.601	9370.31
433.808	9700.03
434.016	9732.8
434.223	9966.27
434.43	10441.4
434.637	10334.9
434.844	10859.18
435.052	11225.77
435.259	10857.14
435.466	11295.4
435.673	11254.44
435.88	11588.26
436.087	12120.73
436.294	12384.92
436.501	12081.82
436.708	12319.39
436.915	12710.55
437.122	13306.51
437.329	13101.71
437.537	13593.22
437.743	13791.87
437.95	13726.34
438.157	14695.03
438.364	14979.7
438.571	14834.29
438.778	15217.26
438.985	16411.23
439.192	15585.9
439.399	16394.84
439.606	15901.28
439.813	16884.31
440.02	17666.63
440.227	17484.36
440.433	17211.98
440.64	17994.31
440.847	17855.04
441.054	18084.42
441.261	19419.69
441.467	19165.74
441.674	19200.56
441.881	20275.74
442.088	20144.67
442.294	19886.63
442.501	20564.51
442.708	20910.61
442.914	21467.66
443.121	22516.22
443.328	21563.92
443.534	23370.22
443.741	22718.97
443.948	22016.52
444.154	24519.14
444.361	24068.58
444.568	24013.29
444.774	24003.05
444.981	24429.02
445.187	24793.56
445.394	25983.43
445.6	25831.88
445.807	28324.26
446.013	27068.86
446.22	27677.1
446.426	28875.16
446.633	28676.51
446.839	29811.09
447.046	28653.98
447.252	29974.92
447.459	29968.78
447.665	30243.21
447.871	31224.18
448.078	32811.36
448.284	31213.95
448.491	31826.29
448.697	32891.23
448.903	33726.8
449.11	33718.61
449.316	33538.39
449.522	33794.39
449.728	34771.27
449.935	34928.96
450.141	34920.77
450.347	35647.8
450.553	34779.46
450.76	35129.66
450.966	36430.12
451.172	35823.92
451.378	37200.16
451.584	36135.21
451.791	37112.1
451.997	36725.03
452.203	37437.72
452.409	37851.41
452.615	37206.3
452.821	35610.93
453.027	35430.71
453.233	37341.47
453.44	35830.07
453.646	36020.53
453.852	35977.52
454.058	37128.48
454.264	35672.37
454.47	36331.82
454.676	35707.19
454.882	36743.46
455.088	33646.93
455.294	34175.31
455.5	34195.79
455.705	34857.28
455.911	33546.58
456.117	32659.81
456.323	32545.12
456.529	30288.26
456.735	32061.8
456.941	31467.89
457.147	30466.44
457.352	29434.26
457.558	29362.58
457.764	29630.87
457.97	28879.26
458.176	28354.98
458.381	28070.31
458.587	26780.09
458.793	26657.21
458.999	25346.51
459.204	27287.99
459.41	26393.03
459.616	24545.76
459.821	24461.79
460.027	24324.58
460.233	23863.79
460.438	22667.77
460.644	22794.75
460.85	21961.22
461.055	21471.76
461.261	21621.26
461.466	19888.68
461.672	19124.79
461.878	20689.43
462.083	19274.29
462.289	18819.64
462.494	18594.36
462.7	17769.03
462.905	17488.46
463.111	18051.65
463.316	18158.14
463.522	17521.23
463.727	17783.37
463.932	17640.01
464.138	17240.65
464.343	17365.58
464.549	17029.71
464.754	17678.92
464.959	17373.77
465.165	17345.1
465.37	16388.7
465.575	16071.26
465.781	16587.35
465.986	16855.64
466.191	16120.42
466.397	15802.98
466.602	15094.38
466.807	15696.49
467.012	15497.83
467.218	15471.21
467.423	15342.19
467.628	15184.49
467.833	16036.45
468.038	15299.18
468.244	14854.77
468.449	15618.66
468.654	14901.87
468.859	14803.57
469.064	14570.1
469.269	14293.63
469.474	14334.59
469.679	14398.07
469.885	14346.87
470.09	14363.26
470.295	14226.04
470.5	13509.26
470.705	14008.96
470.91	13726.34
471.115	13523.59
471.32	13652.61
471.525	13421.19
471.73	13263.5
471.935	13138.57
472.139	12905.1
472.344	12931.73
472.549	12798.61
472.754	12581.53
472.959	12212.89
473.164	12071.58
473.369	11874.98
473.574	12522.13
473.778	12167.84
473.983	12047.01
474.188	12145.31
474.393	11463.33
474.598	11494.05
474.802	11342.5
475.007	11326.12
475.212	11373.22
475.417	10877.62
475.621	10877.62
475.826	11090.6
476.031	10902.19
476.235	10646.19
476.44	10719.92
476.645	10631.86
476.849	10568.37
477.054	10302.14
477.259	10345.14
477.463	10363.58
477.668	9970.37
477.872	9943.74
478.077	9939.65
478.282	9818.82
478.486	9493.19
478.691	9597.63
478.895	9523.91
479.1	9648.83
479.304	9409.22
479.509	9163.47
479.713	9417.41
479.918	8958.67
480.122	9040.59
480.326	8987.34
480.531	9231.05
480.735	9052.88
480.94	8813.26
481.144	9190.09
481.348	8870.61
481.553	8741.58
481.757	8651.47
481.961	9059.02
482.166	9011.92
482.37	8682.19
482.574	8827.6
482.778	8852.17
482.983	8983.24
483.187	8862.41
483.391	8905.42
483.595	8549.07
483.8	8499.92
484.004	8721.1
484.208	8796.88
484.412	8985.29
484.616	8649.43
484.821	8823.5
485.025	8608.47
485.229	8667.86
485.433	8518.36
485.637	8762.06
485.841	8401.62
486.045	8645.33
486.249	8766.16
486.453	8471.25
486.657	8495.83
486.861	8753.87
487.065	8532.69
487.269	8495.83
487.473	8430.29
487.677	8530.64
487.881	8733.39
488.085	8526.55
488.289	8733.39
488.493	8463.06
488.697	8610.51
488.901	8608.47
489.105	8630.99
489.309	8610.51
489.512	8647.38
489.716	8590.03
489.92	8573.65
490.124	8585.94
490.328	8733.39
490.531	8717.01
490.735	8696.53
490.939	8583.89
491.143	8731.34
491.346	8575.7
491.55	8940.24
491.754	8905.42
491.958	8698.58
492.161	8848.08
492.365	8889.04
492.569	8786.64
492.772	9016.01
492.976	8930
493.18	9009.87
493.383	9229
493.587	9140.94
493.79	9450.18
493.994	9089.74
494.197	9138.89
494.401	9161.42
494.605	9296.58
494.808	9411.27
495.012	9425.61
495.215	9568.96
495.419	9589.44
495.622	9495.24
495.825	9392.84
496.029	9470.66
496.232	9638.59
496.436	9626.31
496.639	9870.01
496.843	9740.99
497.046	10111.68
497.249	10181.31
497.453	10107.58
497.656	10058.43
497.859	10164.92
498.063	10451.64
498.266	10451.64
498.469	10435.25
498.673	10648.24
498.876	10861.23
499.079	10615.48
499.282	11031.21
499.485	11121.32
499.689	11020.97
499.892	11537.06
500.095	11397.8
500.298	11586.21
500.501	11334.31
500.705	11735.71
500.908	11811.49
501.111	12114.59
501.314	12065.44
501.517	12178.08
501.72	12374.68
501.923	12092.06
502.126	12454.55
502.329	12858
502.532	12853.91
502.735	12860.05
502.938	12972.69
503.141	13152.91
503.344	13294.22
503.547	13292.17
503.75	13329.03
503.953	13607.56
504.156	13945.47
504.359	13955.71
504.562	13998.72
504.765	14205.56
504.968	14348.92
505.17	14535.29
505.373	14649.97
505.576	14834.29
505.779	14967.41
505.982	15131.25
506.185	15057.52
506.387	15319.66
506.59	15411.82
506.793	15770.21
506.996	15639.14
507.198	15964.77
507.401	15866.47
507.604	16366.17
507.807	16480.86
508.009	16396.89
508.212	16630.36
508.415	16769.62
508.617	17158.74
508.82	16867.92
509.022	16968.27
509.225	17707.59
509.428	17648.2
509.63	17744.45
509.833	17812.04
510.035	18367.04
510.238	18219.58
510.44	18549.31
510.643	18690.62
510.845	18735.67
511.048	18879.03
511.25	18838.07
511.453	19155.51
511.655	19845.67
511.858	19485.23
512.06	19952.16
512.262	20232.74
512.465	19714.6
512.667	20464.16
512.87	20658.71
513.072	20623.9
513.274	21025.3
513.477	21107.22
513.679	21342.74
513.881	21504.53
514.084	21864.97
514.286	21824.01
514.488	21639.69
514.69	22217.22
514.893	22426.11
515.095	22370.82
515.297	22790.65
515.499	22540.8
515.701	23288.31
515.904	23484.91
516.106	23679.47
516.308	23656.94
516.51	23736.81
516.712	24103.4
516.914	24039.91
517.116	24586.72
517.318	24930.78
517.52	24386.02
517.722	24814.04
517.925	25280.98
518.127	25389.52
518.329	25592.27
518.531	25250.26
518.733	25956.81
518.935	26202.57
519.136	26335.68
519.338	26372.55
519.54	26427.84
519.742	26827.2
519.944	26798.52
520.146	26978.75
520.348	27535.79
520.55	27435.44
520.752	27453.87
520.954	27875.76
521.155	27865.52
521.357	28168.62
521.559	28209.57
521.761	28420.52
521.963	28416.42
522.164	28436.9
522.366	28492.19
522.568	28787.1
522.77	28783.01
522.971	29301.14
523.173	29206.94
523.375	29381.01
523.576	29272.47
523.778	29497.75
523.98	29538.71
524.181	29501.84
524.383	29655.44
524.584	29669.78
524.786	30060.94
524.988	29893.01
525.189	30050.7
525.391	30087.56
525.592	30267.78
525.794	30099.85
525.995	30464.39
526.197	30450.05
526.398	30292.36
526.6	30626.18
526.801	30566.79
527.003	30804.35
527.204	30474.63
527.406	30853.5
527.607	30773.63
527.808	30765.44
528.01	30433.67
528.211	30501.25
528.412	31316.34
528.614	31056.25
528.815	30847.36
529.016	30933.37
529.218	30484.87
529.419	30751.1
529.62	30722.43
529.822	30628.23
530.023	30998.91
530.224	30560.64
530.425	30828.93
530.626	30450.05
530.828	30488.96
531.029	30970.24
531.23	30540.16
531.431	30280.07
531.632	30630.27
531.833	30480.77
532.035	30241.16
532.236	30187.91
532.437	30755.2
532.638	30054.79
532.839	30095.75
533.04	30491.01
533.241	30050.7
533.442	30300.55
533.643	30103.95
533.844	30019.98
534.045	30267.78
534.246	29727.12
534.447	29897.1
534.648	29919.63
534.849	30149
535.05	29747.6
535.251	29727.12
535.451	29819.28
535.652	30151.05
535.853	29809.04
536.054	29352.34
536.255	29731.22
536.456	29270.42
536.657	29809.04
536.857	29628.82
537.058	29493.65
537.259	29338.01
537.46	29649.3
537.66	29464.98
537.861	29448.6
538.062	29231.51
538.263	29442.45
538.463	28928.41
538.664	29100.44
538.865	29323.67
539.065	29032.86
539.266	29006.23
539.466	29180.31
539.667	28840.35
539.868	29278.61
540.068	29047.19
540.269	29108.63
540.469	29161.88
540.67	29059.48
540.87	29026.71
541.071	28991.9
541.271	28914.08
541.472	28895.64
541.672	28791.2
541.873	28772.77
542.073	28213.67
542.274	29071.77
542.474	28762.53
542.675	28709.28
542.875	28731.81
543.075	28821.92
543.276	28465.57
543.476	28852.64
543.676	28709.28
543.877	28602.78
544.077	28602.78
544.277	28543.39
544.478	28567.97
544.678	28787.1
544.878	28420.52
545.078	28887.45
545.279	28432.8
545.479	28617.12
545.679	28768.67
545.879	28430.76
546.079	28537.25
546.28	28494.24
546.48	28268.97
546.68	28672.42
546.88	28615.07
547.08	28506.53
547.28	28416.42
547.48	28322.21
547.68	28537.25
547.88	28449.19
548.081	28662.18
548.281	28508.58
548.481	28316.07
548.681	28514.72
548.881	28789.15
549.081	28473.76
549.28	28328.36
549.48	28477.86
549.68	28866.97
549.88	28916.12
550.08	28211.62
550.28	28754.33
550.48	28764.57
550.68	28723.62
550.88	28455.33
551.08	28451.24
551.279	28570.02
551.479	28363.17
551.679	28826.01
551.879	28826.01
552.079	29219.22
552.278	28653.98
552.478	28594.59
552.678	28436.9
552.878	28807.58
553.077	28998.04
553.277	28676.51
553.477	29055.39
553.676	28676.51
553.876	28772.77
554.076	28512.67
554.275	28774.81
554.475	28555.68
554.674	28830.11
554.874	28936.6
555.074	29004.19
555.273	29247.9
555.473	28879.26
555.672	28791.2
555.872	28926.36
556.071	28985.76
556.271	28979.61
556.47	28660.13
556.67	28772.77
556.869	28594.59
557.068	28934.56
557.268	29096.35
557.467	29348.25
557.667	29184.41
557.866	28899.74
558.065	28717.47
558.265	29077.91
558.464	29039
558.663	29327.77
558.863	28389.8
559.062	29444.5
559.261	28735.9
559.461	29344.15
559.66	28797.34
559.859	28576.16
560.058	28916.12
560.258	29112.73
560.457	29049.24
560.656	29206.94
560.855	29133.21
561.054	29012.38
561.253	28955.04
561.453	28975.52
561.652	28930.46
561.851	29110.68
562.05	29165.98
562.249	29270.42
562.448	29395.35
562.647	29090.2
562.846	28897.69
563.045	29034.91
563.244	29208.98
563.443	29163.93
563.642	28842.4
563.841	29053.34
564.04	28975.52
564.239	29503.89
564.438	28881.31
564.637	29036.95
564.836	29161.88
565.035	28901.79
565.234	28774.81
565.432	28791.2
565.631	28688.8
565.83	28957.08
566.029	28758.43
566.228	28815.77
566.427	28567.97
566.625	28469.67
566.824	28348.84
567.023	28520.87
567.222	28203.43
567.42	28664.22
567.619	28479.91
567.818	28221.86
568.016	28232.1
568.215	28193.19
568.414	27955.63
568.612	28404.13
568.811	27849.13
569.01	28033.45
569.208	27750.83
569.407	27955.63
569.605	27543.99
569.804	27826.6
570.002	27584.94
570.201	27234.74
570.4	27314.61
570.598	27539.89
570.797	27259.32
570.995	27617.71
571.193	27279.8
571.392	27627.95
571.59	27247.03
571.789	27019.71
571.987	27320.76
572.186	27369.91
572.384	26849.72
572.582	27154.87
572.781	26995.13
572.979	26714.56
573.177	26628.54
573.376	27134.39
573.574	26679.74
573.772	26722.75
573.971	26438.08
574.169	26296.77
574.367	26243.52
574.565	26284.48
574.763	26247.62
574.962	25893.32
575.16	26005.96
575.358	25897.42
575.556	25749.96
575.754	25878.99
575.952	25704.91
576.151	25827.79
576.349	25240.02
576.547	25637.33
576.745	25635.28
576.943	25559.5
577.141	25334.23
577.339	25364.95
577.537	25256.4
577.735	25323.99
577.933	24879.58
578.131	25203.16
578.329	24928.73
578.527	24623.58
578.725	24699.36
578.923	24793.56
579.121	24656.35
579.319	24379.87
579.516	24697.31
579.714	24435.17
579.912	24510.94
580.11	24009.19
580.308	24283.62
580.506	24156.64
580.704	23730.67
580.901	23880.17
581.099	24263.14
581.297	23804.39
581.495	23818.73
581.692	23976.42
581.89	23634.41
582.088	23800.3
582.285	23757.29
582.483	23679.47
582.681	23761.39
582.878	23597.55
583.076	23276.02
583.274	23747.05
583.471	23052.79
583.669	23237.11
583.866	23214.58
584.064	23466.48
584.262	22796.79
584.459	23009.78
584.657	23196.15
584.854	22819.32
585.052	22716.92
585.249	22819.32
585.447	22745.59
585.644	22561.28
585.841	22886.9
586.039	22667.77
586.236	22614.52
586.434	22276.61
586.631	22211.07
586.828	22166.02
587.026	22360.58
587.223	22184.45
587.42	22004.23
587.618	22133.25
587.815	22346.24
588.012	21928.45
588.21	22092.29
588.407	22139.4
588.604	21744.14
588.801	21854.73
588.999	21688.84
589.196	21715.47
589.393	21944.84
589.59	21627.4
589.787	21645.84
589.984	21656.07
590.182	21352.98
590.379	21742.09
590.576	21119.51
590.773	21586.44
590.97	21506.57
591.167	21578.25
591.364	21084.69
591.561	21172.75
591.758	21158.42
591.955	20982.29
592.152	21549.58
592.349	21105.17
592.546	21094.93
592.743	21080.6
592.94	20916.76
593.137	21172.75
593.334	21043.73
593.531	20773.4
593.727	20843.03
593.924	21199.38
594.121	20615.71
594.318	21084.69
594.515	20634.14
594.712	20836.89
594.908	20501.02
595.105	20711.96
595.302	20853.27
595.499	20836.89
595.696	20802.07
595.892	20726.3
596.089	20730.39
596.286	20800.02
596.482	20824.6
596.679	20472.35
596.876	20716.06
597.072	20761.11
597.269	20759.06
597.466	20652.57
597.662	20589.08
597.859	20746.78
598.055	20722.2
598.252	20773.4
598.448	20601.37
598.645	20800.02
598.841	20785.69
599.038	20642.33
599.234	20879.89
599.431	20562.46
599.627	20853.27
599.824	21035.54
600.02	20957.72
600.217	20404.77
600.413	20562.46
600.609	20927
600.806	20834.84
601.002	20773.4
601.198	20593.18
601.395	20546.08
601.591	20785.69
601.787	20660.76
601.984	20707.87
602.18	20855.32
602.376	21113.36
602.572	21144.08
602.769	21043.73
602.965	20822.55
603.161	21172.75
603.357	21078.55
603.553	21250.58
603.75	21015.06
603.946	21115.41
604.142	21269.01
604.338	20818.46
604.534	21131.79
604.73	21131.79
604.926	21178.9
605.122	21762.57
605.318	21234.19
605.514	21676.55
605.71	21516.81
605.906	21699.08
606.102	21666.31
606.298	21744.14
606.494	21694.99
606.69	21672.46
606.886	21824.01
607.082	21621.26
607.278	21912.07
607.474	21649.93
607.67	21856.78
607.866	21932.55
608.062	22131.2
608.257	21993.99
608.453	22221.31
608.649	22170.12
608.845	22227.46
609.041	22010.37
609.236	22460.93
609.432	22462.97
609.628	22512.13
609.824	22145.54
610.019	22446.59
610.215	22583.8
610.411	22559.23
610.606	22647.29
610.802	22737.4
610.998	22493.69
611.193	22741.5
611.389	22649.34
611.584	22450.69
611.78	22653.44
611.976	22725.11
612.171	22995.45
612.367	23071.22
612.562	22870.52
612.758	22698.49
612.953	23038.45
613.149	22991.35
613.344	23024.12
613.539	23382.51
613.735	23009.78
613.93	22977.01
614.126	22852.09
614.321	23466.48
614.517	23329.27
614.712	23210.48
614.907	23167.48
615.103	23300.59
615.298	23071.22
615.493	23536.11
615.688	23081.46
615.884	23677.42
616.079	23073.27
616.274	23140.85
616.47	23362.03
616.665	23630.32
616.86	23181.81
617.055	23118.32
617.25	23390.7
617.445	23325.17
617.641	23065.08
617.836	23509.49
618.031	22979.06
618.226	23282.16
618.421	23220.72
618.616	23749.1
618.811	22909.43
619.006	23341.55
619.201	23147
619.396	23083.51
619.591	22759.93
619.786	23157.24
619.981	22632.96
620.176	22692.35
620.371	22465.02
620.566	22749.69
620.761	22548.99
620.956	22897.14
621.151	22491.65
621.346	22282.75
621.541	22239.75
621.735	22655.48
621.93	21959.17
622.125	22303.23
622.32	22047.24
622.515	22094.34
622.709	21969.41
622.904	21824.01
623.099	21817.86
623.294	21815.82
623.488	21365.26
623.683	21664.27
623.878	21322.26
624.072	21492.24
624.267	21326.35
624.462	21156.37
624.656	21150.23
624.851	20998.68
625.046	20896.28
625.24	20613.66
625.435	20773.4
625.629	20621.85
625.824	20570.65
626.018	20447.77
626.213	20038.18
626.407	20468.25
626.602	20124.19
626.796	20062.76
626.991	19925.54
627.185	19876.39
627.38	19976.74
627.574	19851.81
627.768	19733.03
627.963	19294.77
628.157	19311.15
628.352	19569.19
628.546	19116.59
628.74	19511.85
628.935	19165.74
629.129	19348.01
629.323	18807.35
629.517	18797.11
629.712	18721.34
629.906	18911.8
630.1	18434.62
630.294	18620.99
630.489	18528.83
630.683	18371.13
630.877	17990.21
631.071	18199.1
631.265	18195.01
631.459	18125.38
631.653	18070.08
631.848	17633.86
632.042	18186.82
632.236	17734.21
632.43	17832.52
632.624	17719.88
632.818	17494.6
633.012	17357.39
633.206	17285.71
633.4	17246.8
633.594	17193.55
633.788	16953.94
633.982	17101.39
634.176	16904.79
634.369	16833.11
634.563	16646.74
634.757	16443.99
634.951	16575.06
635.145	16714.33
635.339	16552.54
635.533	16349.79
635.726	16304.73
635.92	15958.63
636.114	15835.75
636.308	15772.26
636.501	15942.24
636.695	15807.08
636.889	15909.47
637.083	15409.77
637.276	15321.71
637.47	15407.72
637.664	15317.61
637.857	15274.6
638.051	15116.91
638.244	15237.74
638.438	15030.9
638.632	14735.99
638.825	14940.79
639.019	14695.03
639.212	14623.35
639.406	14744.18
639.599	14385.79
639.793	14629.49
639.986	14324.35
640.18	14318.2
640.373	14109.31
640.567	13978.24
640.76	14183.04
640.954	14127.74
641.147	13849.22
641.34	13963.9
641.534	13687.43
641.727	13664.9
641.92	13521.54
642.114	13480.58
642.307	13447.82
642.5	13351.56
642.694	13087.37
642.887	12771.99
643.08	13193.87
643.273	12976.78
643.467	12939.92
643.66	12671.64
643.853	12745.36
644.046	12591.77
644.239	12589.72
644.432	12505.75
644.626	12350.1
644.819	12333.72
645.012	12262.04
645.205	12014.24
645.398	12239.51
645.591	11991.71
645.784	11768.48
645.977	11596.45
646.17	11768.48
646.363	11731.62
646.556	11467.43
646.749	11688.61
646.942	11479.72
647.135	11465.38
647.328	11541.16
647.521	11180.71
647.714	11246.25
647.907	11066.03
648.099	11080.36
648.292	11229.87
648.485	10934.96
648.678	11059.88
648.871	10779.31
649.064	10734.26
649.256	10767.03
649.449	10693.3
649.642	10590.9
649.835	10357.43
650.027	10482.36
650.22	10451.64
650.413	10295.99
650.605	10398.39
650.798	10308.28
650.991	10123.96
651.183	10275.51
651.376	10074.81
651.568	9853.63
651.761	9859.77
651.954	9908.93
652.146	9779.9
652.339	9892.54
652.531	9820.86
652.724	9706.18
652.916	9812.67
653.109	9818.82
653.301	9810.62
653.494	9468.61
653.686	9482.95
653.879	9485
654.071	9333.45
654.263	9265.86
654.456	9274.06
654.648	9280.2
654.84	9267.91
655.033	9030.35
655.225	8995.53
655.417	8864.46
655.61	8970.96
655.802	9112.27
655.994	8766.16
656.186	8936.14
656.379	8766.16
656.571	8633.04
656.763	8651.47
656.955	8727.25
657.148	8569.55
657.34	8471.25
657.532	8508.12
657.724	8401.62
657.916	8381.14
658.108	8354.52
658.3	8446.68
658.492	8209.11
658.684	8041.18
658.876	8149.72
659.068	8135.39
659.26	7832.29
659.452	8073.95
659.644	7910.11
659.836	7985.88
660.028	7877.34
660.22	7768.8
660.412	7903.96
660.604	7684.83
660.796	7572.19
660.988	7860.96
661.18	7529.19
661.372	7410.4
661.563	7656.16
661.755	7357.16
661.947	7230.18
662.139	7330.53
662.331	7387.88
662.522	7178.98
662.714	7328.49
662.906	7348.97
663.097	7082.73
663.289	6972.14
663.481	7027.43
663.673	7027.43
663.864	7004.91
664.056	6841.07
664.247	7009
664.439	6726.38
664.631	6955.76
664.822	6683.38
665.014	6697.71
665.205	6703.86
665.397	6699.76
665.588	6634.22
665.78	6636.27
665.971	6748.91
666.163	6513.39
666.354	6515.44
666.546	6374.13
666.737	6439.67
666.929	6435.57
667.12	6363.89
667.311	6523.63
667.503	6284.02
667.694	6195.96
667.885	6247.16
668.077	6273.78
668.268	6144.76
668.459	6255.35
668.651	6144.76
668.842	6208.25
669.033	6105.85
669.224	5907.2
669.416	5989.11
669.607	6042.36
669.798	5952.25
669.989	5950.2
670.18	6001.4
670.371	5944.06
670.563	5915.39
670.754	5929.72
670.945	5700.35
671.136	5761.79
671.327	5739.26
671.518	5757.69
671.709	5739.26
671.9	5575.42
672.091	5585.66
672.282	5798.65
672.473	5583.62
672.664	5651.2
672.855	5528.32
673.046	5567.23
673.237	5485.31
673.428	5567.23
673.619	5645.06
673.809	5352.2
674	5552.9
674.191	5518.08
674.382	5413.63
674.573	5346.05
674.764	5444.35
674.954	5405.44
675.145	5276.42
675.336	5364.48
675.527	5423.87
675.717	5223.17
675.908	5198.6
676.099	5161.73
676.289	5473.03
676.48	5122.82
676.671	5276.42
676.861	5354.24
677.052	5237.51
677.243	5194.5
677.433	5208.84
677.624	5214.98
677.814	5110.54
678.005	5124.87
678.195	5128.97
678.386	5118.73
678.576	4973.32
678.767	5088.01
678.957	5157.64
679.148	5069.58
679.338	5176.07
679.529	5051.14
679.719	4928.27
679.909	5171.97
680.1	5022.47
680.29	5088.01
680.481	4963.08
680.671	5012.23
680.861	4770.57
681.052	5141.25
681.242	4985.61
681.432	5010.18
681.622	4879.11
681.813	4911.88
682.003	4963.08
682.193	4905.74
682.383	4973.32
682.573	4985.61
682.764	4840.2
682.954	4870.92
683.144	5055.24
683.334	4905.74
683.524	4789
683.714	4897.55
683.904	4864.78
684.094	4905.74
684.284	4903.69
684.474	4897.55
684.664	4879.11
684.854	4893.45
685.044	4719.37
685.234	4748.04
685.424	4897.55
685.614	4819.72
685.804	4723.47
685.994	4731.66
686.184	4770.57
686.374	4727.57
686.564	4805.39
686.753	4864.78
686.943	4621.07
687.133	4809.48
687.323	4707.09
687.513	4789
687.702	4678.41
687.892	4702.99
688.082	4780.81
688.272	4739.85
688.461	4559.63
688.651	4674.32
688.841	4698.89
689.03	4750.09
689.22	4674.32
689.41	4684.56
689.599	4664.08
689.789	4383.51
689.979	4561.68
690.168	4545.3
690.358	4629.26
690.547	4692.75
690.737	4553.49
690.926	4522.77
691.116	4524.82
691.305	4508.43
691.495	4436.75
691.684	4526.86
691.874	4420.37
692.063	4496.14
692.252	4502.29
692.442	4442.9
692.631	4455.19
692.82	4446.99
693.01	4438.8
693.199	4479.76
693.388	4358.93
693.578	4485.9
693.767	4410.13
693.956	4387.6
694.146	4326.16
694.335	4315.92
694.524	4332.31
694.713	4338.45
694.902	4281.11
695.092	4358.93
695.281	4166.42
695.47	4334.36
695.659	4313.88
695.848	4279.06
696.037	4317.97
696.226	4301.59
696.415	4215.57
696.604	4215.57
696.793	4225.81
696.982	4291.35
697.171	4281.11
697.36	4080.41
697.549	4076.31
697.738	4160.28
697.927	4160.28
698.116	4191
698.305	4127.51
698.494	4191
698.683	4203.29
698.872	4131.61
699.061	4119.32
699.25	4027.16
699.438	4178.71
699.627	4184.85
699.816	4018.97
700.005	4043.54
700.193	4002.58
700.382	4086.55
700.571	3990.3
700.76	4012.82
700.948	4023.06
701.137	4174.61
701.326	4043.54
701.514	3887.9
701.703	3912.47
701.892	3859.23
702.08	3947.29
702.269	3978.01
702.457	4041.5
702.646	3924.76
702.834	3871.51
703.023	3830.55
703.212	3900.19
703.4	3744.54
703.589	3824.41
703.777	3728.16
703.965	3683.1
704.154	3834.65
704.342	3658.53
704.531	3769.12
704.719	3789.6
704.907	3789.6
705.096	3644.19
705.284	3654.43
705.472	3627.81
705.661	3697.44
705.849	3679.01
706.037	3707.68
706.226	3717.92
706.414	3652.38
706.602	3552.03
706.79	3556.13
706.979	3660.57
707.167	3572.51
707.355	3658.53
707.543	3543.84
707.731	3572.51
707.919	3502.88
708.107	3601.18
708.296	3611.42
708.484	3494.69
708.672	3461.92
708.86	3488.54
709.048	3441.44
709.236	3570.46
709.424	3423.01
709.612	3357.47
709.8	3351.33
709.988	3461.92
710.176	3431.2
710.364	3429.15
710.551	3365.67
710.739	3410.72
710.927	3398.43
711.115	3355.43
711.303	3322.66
711.491	3382.05
711.679	3179.3
711.866	3246.88
712.054	3285.8
712.242	3199.78
712.43	3304.23
712.617	3207.97
712.805	3259.17
712.993	3207.97
713.181	3064.61
713.368	3216.16
713.556	3257.12
713.744	3257.12
713.931	3113.77
714.119	3248.93
714.306	3095.33
714.494	3085.09
714.682	3095.33
714.869	3076.9
715.057	3150.63
715.244	2964.26
715.432	3167.01
715.619	3121.96
715.807	3109.67
715.994	2994.98
716.182	3044.13
716.369	3025.7
716.556	3027.75
716.744	3044.13
716.931	2958.12
717.119	2986.79
717.306	2964.26
717.493	2970.41
717.681	2968.36
717.868	2757.42
718.055	3060.52
718.242	2882.35
718.43	2847.53
718.617	2855.72
718.804	2761.52
718.991	2921.26
719.179	2868.01
719.366	2880.3
719.553	2884.39
719.74	2724.65
719.927	2872.11
720.114	2743.08
720.301	2749.23
720.488	2738.99
720.676	2630.45
720.863	2702.12
721.05	2769.71
721.237	2700.08
721.424	2595.63
721.611	2720.56
721.798	2700.08
721.985	2622.25
722.172	2620.21
722.358	2636.59
722.545	2620.21
722.732	2577.2
722.919	2646.83
723.106	2665.26
723.293	2798.38
723.48	2507.57
723.667	2560.81
723.853	2618.16
724.04	2673.45
724.227	2507.57
724.414	2478.9
724.6	2540.33
724.787	2603.82
724.974	2495.28
725.161	2462.51
725.347	2347.83
725.534	2413.36
725.72	2392.88
725.907	2595.63
726.094	2442.03
726.28	2517.81
726.467	2448.18
726.653	2313.01
726.84	2419.5
727.027	2474.8
727.213	2462.51
727.4	2448.18
727.586	2358.07
727.773	2267.95
727.959	2407.22
728.145	2384.69
728.332	2380.59
728.518	2325.3
728.705	2294.58
728.891	2274.1
729.077	2278.19
729.264	2114.36
729.45	2360.11
729.636	2331.44
729.823	2290.48
730.009	2249.52
730.195	2356.02
730.382	2204.47
730.568	2339.63
730.754	2327.35
730.94	2200.37
731.126	2237.24
731.313	2349.87
731.499	2290.48
731.685	2302.77
731.871	2243.38
732.057	2290.48
732.243	2163.51
732.429	2169.65
732.615	2270
732.801	2143.03
732.987	2147.12
733.173	2085.69
733.359	2118.45
733.545	2161.46
733.731	2134.84
733.917	2206.52
734.103	2044.73
734.289	2329.39
734.475	2065.21
734.661	2110.26
734.847	2163.51
735.033	2145.08
735.219	2061.11
735.404	2208.56
735.59	2163.51
735.776	2161.46
735.962	2052.92
736.148	2149.17
736.333	2075.45
736.519	2052.92
736.705	2036.53
736.89	1962.81
737.076	1973.05
737.262	1971
737.447	1930.04
737.633	1872.7
737.819	2130.74
738.004	2005.81
738.19	2007.86
738.375	1946.42
738.561	1921.85
738.747	1993.53
738.932	1735.48
739.118	1989.43
739.303	2003.77
739.489	1962.81
739.674	1987.38
739.859	1760.06
740.045	1815.35
740.23	1952.57
740.416	1872.7
740.601	1864.5
740.786	1872.7
740.972	1872.7
741.157	1866.55
741.342	1723.2
741.528	1762.11
741.713	1878.84
741.898	1676.09
742.084	1846.07
742.269	1811.26
742.454	1741.63
742.639	1837.88
742.824	1694.52
743.01	1772.35
743.195	1901.37
743.38	1708.86
743.565	1733.43
743.75	1815.35
743.935	1641.28
744.12	1649.47
744.305	1719.1
744.49	1741.63
744.675	1708.86
744.86	1745.72
745.045	1725.24
745.23	1626.94
745.415	1598.27
745.6	1655.61
745.785	1545.02
745.97	1610.56
746.155	1637.18
746.34	1583.93
746.525	1622.84
746.71	1530.69
746.895	1555.26
747.079	1456.96
747.264	1442.62
747.449	1545.02
747.634	1612.6
747.819	1483.58
748.003	1520.45
748.188	1588.03
748.373	1577.79
748.557	1479.49
748.742	1405.76
748.927	1418.05
749.111	1469.25
749.296	1432.38
749.481	1405.76
749.665	1375.04
749.85	1325.89
750.034	1438.53
750.219	1366.85
750.404	1399.62
750.588	1448.77
750.773	1334.08
750.957	1401.66
751.141	1309.51
751.326	1383.23
751.51	1274.69
751.695	1358.66
751.879	1258.31
752.064	1336.13
752.248	1278.79
752.432	1264.45
752.617	1352.51
752.801	1268.55
752.985	1334.08
753.17	1362.75
753.354	1213.25
753.538	1196.87
753.722	1252.16
753.907	1205.06
754.091	1188.68
754.275	1315.65
754.459	1207.11
754.643	1123.14
754.828	1176.39
755.012	1229.63
755.196	1168.2
755.38	1119.04
755.564	1192.77
755.748	1137.48
755.932	1106.76
756.116	1071.94
756.3	1145.67
756.484	1090.37
756.668	1094.47
756.852	1184.58
757.036	1086.28
757.22	1043.27
757.404	1112.9
757.588	1069.89
757.772	1006.41
757.956	1051.46
758.14	1100.61
758.323	1045.32
758.507	1100.61
758.691	992.07
758.875	1037.13
759.059	1012.55
759.242	1090.37
759.426	987.97
759.61	1055.56
759.794	955.21
759.977	971.59
760.161	1119.04
760.345	1127.24
760.528	965.45
760.712	938.82
760.895	1039.17
761.079	959.3
761.263	1037.13
761.446	840.52
761.63	910.15
761.813	1024.84
761.997	940.87
762.18	848.71
762.364	887.62
762.547	834.38
762.731	918.34
762.914	873.29
763.098	832.33
763.281	930.63
763.464	817.99
763.648	887.62
763.831	987.97
764.015	893.77
764.198	955.21
764.381	846.66
764.564	910.15
764.748	934.73
764.931	817.99
765.114	863.05
765.297	826.18
765.481	830.28
765.664	807.75
765.847	848.71
766.03	824.14
766.213	848.71
766.397	850.76
766.58	848.71
766.763	817.99
766.946	867.14
767.129	760.65
767.312	795.47
767.495	807.75
767.678	797.51
767.861	758.6
768.044	809.8
768.227	830.28
768.41	684.87
768.593	717.64
768.776	766.79
768.959	709.45
769.142	817.99
769.324	777.03
769.507	795.47
769.69	770.89
769.873	822.09
770.056	824.14
770.239	748.36
770.421	758.6
770.604	750.41
770.787	768.84
770.97	684.87
771.152	727.88
771.335	777.03
771.518	709.45
771.7	772.94
771.883	746.31
772.066	656.2
772.248	760.65
772.431	783.18
772.613	793.42
772.796	668.49
772.978	691.02
773.161	754.51
773.343	725.83
773.526	727.88
773.708	721.74
773.891	693.07
774.073	678.73
774.256	668.49
774.438	686.92
774.621	562
774.803	691.02
774.985	598.86
775.168	768.84
775.35	627.53
775.532	641.87
775.715	641.87
775.897	611.15
776.079	570.19
776.261	703.31
776.444	586.57
776.626	629.58
776.808	629.58
776.99	586.57
777.173	701.26
777.355	576.33
777.537	635.72
777.719	607.05
777.901	475.98
778.083	580.43
778.265	545.61
778.447	645.96
778.629	541.52
778.811	578.38
778.993	555.85
779.175	623.44
779.357	568.14
779.539	539.47
779.721	498.51
779.903	637.77
780.085	502.61
780.267	549.71
780.449	541.52
780.631	570.19
780.812	531.28
780.994	451.41
781.176	527.18
781.358	570.19
781.54	441.17
781.721	553.8
781.903	471.89
782.085	484.17
782.267	512.85
782.448	435.02
782.63	512.85
782.812	490.32
782.993	525.13
783.175	541.52
783.357	430.93
783.538	422.73
783.72	455.5
783.901	422.73
784.083	459.6
784.264	512.85
784.446	406.35
784.627	467.79
784.809	467.79
784.99	488.27
785.172	381.78
785.353	432.97
785.535	512.85
785.716	447.31
785.897	371.54
786.079	457.55
786.26	475.98
786.441	373.58
786.623	383.82
786.804	398.16
786.985	381.78
787.167	359.25
787.348	406.35
787.529	377.68
787.71	406.35
787.891	432.97
788.073	338.77
788.254	359.25
788.435	357.2
788.616	451.41
788.797	336.72
788.978	369.49
789.159	324.43
789.34	424.78
789.522	277.33
789.703	346.96
789.884	262.99
790.065	389.97
790.246	324.43
790.427	344.91
790.607	430.93
790.788	344.91
790.969	271.19
791.15	359.25
791.331	318.29
791.512	250.71
791.693	353.1
791.874	373.58
792.054	353.1
792.235	293.71
792.416	258.9
792.597	332.62
792.778	312.14
792.958	316.24
793.139	365.39
793.32	342.86
793.5	260.95
793.681	310.1
793.862	332.62
794.042	316.24
794.223	316.24
794.404	168.79
794.584	260.95
794.765	248.66
794.945	314.19
795.126	383.82
795.306	275.28
795.487	332.62
795.667	279.38
795.848	326.48
796.028	320.34
796.209	179.03
796.389	310.1
796.57	283.47
796.75	238.42
796.93	209.75
797.111	287.57
797.291	262.99
797.471	332.62
797.652	277.33
797.832	234.32
798.012	293.71
798.192	291.66
798.373	183.12
798.553	226.13
798.733	277.33
798.913	209.75
799.093	291.66
799.274	238.42
799.454	262.99
799.634	252.75
799.814	254.8
799.994	332.62
800.174	283.47
800.354	254.8
800.534	254.8
800.714	234.32
800.894	205.65
801.074	172.88
801.254	291.66
801.434	176.98
801.614	219.99
801.794	226.13
801.974	889.67
802.154	211.79
802.334	222.03
802.514	252.75
802.693	187.22
802.873	209.75
803.053	269.14
803.233	283.47
803.413	275.28
803.592	189.27
803.772	224.08
803.952	189.27
804.131	197.46
804.311	226.13
804.491	303.95
804.67	121.68
804.85	131.92
805.03	213.84
805.209	283.47
805.389	168.79
805.568	144.21
805.748	205.65
805.928	168.79
806.107	222.03
806.287	187.22
806.466	250.71
806.646	185.17
806.825	222.03
807.004	230.23
807.184	201.55
807.363	185.17
807.543	111.44
807.722	195.41
807.901	193.36
808.081	217.94
808.26	109.4
808.439	224.08
808.619	217.94
808.798	185.17
808.977	140.12
809.156	217.94
809.336	162.64
809.515	250.71
809.694	275.28
809.873	146.26
810.052	193.36
810.231	166.74
810.411	144.21
810.59	248.66
810.769	119.64
810.948	189.27
811.127	117.59
811.306	152.4
811.485	174.93
811.664	213.84
811.843	179.03
812.022	185.17
812.201	127.83
812.38	179.03
812.559	103.25
812.737	209.75
812.916	185.17
813.095	176.98
813.274	103.25
813.453	154.45
813.632	127.83
813.811	213.84
813.989	136.02
814.168	193.36
814.347	166.74
814.526	129.88
814.704	203.6
814.883	254.8
815.062	185.17
815.24	88.92
815.419	45.91
815.598	176.98
815.776	56.15
815.955	62.29
816.133	78.68
816.312	191.31
816.49	172.88
816.669	109.4
816.847	138.07
817.026	146.26
817.204	64.34
817.383	146.26
817.561	164.69
817.74	131.92
817.918	185.17
818.097	119.64
818.275	154.45
818.453	113.49
818.632	160.59
818.81	127.83
818.988	111.44
819.167	136.02
819.345	123.73
819.523	185.17
819.701	80.72
819.879	129.88
820.058	62.29
820.236	154.45
820.414	119.64
820.592	111.44
820.77	129.88
820.948	86.87
821.127	111.44
821.305	115.54
821.483	117.59
821.661	185.17
821.839	138.07
822.017	39.76
822.195	93.01
822.373	111.44
822.551	41.81
822.729	119.64
822.907	154.45
823.085	123.73
823.262	86.87
823.44	95.06
823.618	107.35
823.796	119.64
823.974	138.07
824.152	107.35
824.329	74.58
824.507	144.21
824.685	115.54
824.863	86.87
825.04	90.96
825.218	86.87
825.396	86.87
825.574	54.1
825.751	80.72
825.929	127.83
826.107	70.48
826.284	205.65
826.462	181.07
826.639	99.16
826.817	54.1
826.994	144.21
827.172	50
827.349	176.98
827.527	99.16
827.704	17.24
827.882	125.78
828.059	174.93
828.237	62.29
828.414	138.07
828.591	107.35
828.769	105.3
828.946	66.39
829.124	127.83
829.301	146.26
829.478	154.45
829.655	154.45
829.833	103.25
830.01	27.48
830.187	90.96
830.364	121.68
830.542	95.06
830.719	144.21
830.896	66.39
831.073	105.3
831.25	119.64
831.427	127.83
831.604	54.1
831.782	140.12
831.959	160.59
832.136	62.29
832.313	113.49
832.49	45.91
832.667	127.83
832.844	80.72
833.021	195.41
833.198	97.11
833.374	103.25
833.551	125.78
833.728	107.35
833.905	95.06
834.082	50
834.259	41.81
834.436	99.16
834.612	88.92
834.789	78.68
834.966	119.64
835.143	136.02
835.319	78.68
835.496	86.87
835.673	103.25
835.85	111.44
836.026	72.53
836.203	86.87
836.38	76.63
836.556	95.06
836.733	78.68
836.909	123.73
837.086	29.52
837.262	23.38
837.439	97.11
837.616	33.62
837.792	99.16
837.968	70.48
838.145	41.81
838.321	60.24
838.498	125.78
838.674	25.43
838.851	136.02
839.027	113.49
839.203	43.86
839.38	131.92
839.556	31.57
839.732	37.72
839.909	21.33
840.085	154.45
840.261	39.76
840.437	78.68
840.614	-7.34
840.79	60.24
840.966	111.44
841.142	37.72
841.318	129.88
841.494	41.81
841.671	45.91
841.847	56.15
842.023	95.06
842.199	176.98
842.375	64.34
842.551	31.57
842.727	93.01
842.903	123.73
843.079	52.05
843.255	58.2
843.431	50
843.607	88.92
843.783	101.2
843.959	97.11
844.134	29.52
844.31	152.4
844.486	62.29
844.662	45.91
844.838	37.72
845.013	54.1
845.189	154.45
845.365	62.29
845.541	80.72
845.716	78.68
845.892	123.73
846.068	54.1
846.244	37.72
846.419	13.14
846.595	50
846.77	62.29
846.946	121.68
847.122	31.57
847.297	0.85
847.473	45.91
847.648	76.63
847.824	93.01
847.999	-1.19
848.175	23.38
848.35	95.06
848.526	193.36
848.701	148.31
848.876	138.07
849.052	103.25
849.227	58.2
849.403	-7.34
849.578	127.83
849.753	35.67
849.929	70.48
850.104	39.76
850.279	74.58
850.454	72.53
850.63	64.34
850.805	146.26
850.98	31.57
851.155	117.59
851.33	152.4
851.505	-11.43
851.681	60.24
851.856	62.29
852.031	72.53
852.206	95.06
852.381	88.92
852.556	103.25
852.731	76.63
852.906	152.4
853.081	70.48
853.256	129.88
853.431	62.29
853.606	-25.77
853.781	-3.24
853.956	-40.11
854.131	21.33
854.305	54.1
854.48	27.48
854.655	25.43
854.83	33.62
855.005	19.29
855.18	58.2
855.354	-40.11
855.529	29.52
855.704	86.87
855.879	99.16
856.053	35.67
856.228	107.35
856.403	74.58
856.577	80.72
856.752	45.91
856.926	66.39
857.101	0.85
857.276	86.87
857.45	29.52
857.625	70.48
857.799	105.3
857.974	58.2
858.148	-44.2
858.323	64.34
858.497	58.2
858.672	33.62
858.846	33.62
859.02	39.76
859.195	99.16
859.369	33.62
859.543	119.64
859.718	31.57
859.892	58.2
860.066	13.14
860.241	-27.82
860.415	37.72
860.589	-42.15
860.763	41.81
860.938	70.48
861.112	45.91
861.286	-56.49
861.46	62.29
861.634	29.52
861.808	84.82
861.982	21.33
862.157	80.72
862.331	-52.39
862.505	-23.72
862.679	4.95
862.853	-40.11
863.027	17.24
863.201	148.31
863.375	-23.72
863.549	35.67
863.722	62.29
863.896	45.91
864.07	17.24
864.244	25.43
864.418	97.11
864.592	54.1
864.766	37.72
864.939	62.29
865.113	78.68
865.287	109.4
865.461	35.67
865.634	62.29
865.808	66.39
865.982	88.92
866.156	23.38
866.329	78.68
866.503	29.52
866.676	35.67
866.85	25.43
867.024	37.72
867.197	50
867.371	70.48
867.544	148.31
867.718	13.14
867.891	72.53
868.065	-7.34
868.238	62.29
868.412	123.73
868.585	45.91
868.759	54.1
868.932	56.15
869.105	-17.58
869.279	25.43
869.452	64.34
869.625	-23.72
869.799	41.81
869.972	62.29
870.145	45.91
870.319	80.72
870.492	54.1
870.665	64.34
870.838	17.24
871.011	-85.16
871.185	97.11
871.358	105.3
871.531	-46.25
871.704	-3.24
871.877	31.57
872.05	-5.29
872.223	21.33
872.396	121.68
872.569	39.76
872.742	-48.3
872.915	62.29
873.088	-19.63
873.261	86.87
873.434	29.52
873.607	29.52
873.78	29.52
873.953	-25.77
874.126	13.14
874.299	121.68
874.471	66.39
874.644	0.85
874.817	50
874.99	97.11
875.163	-42.15
875.335	97.11
875.508	35.67
875.681	54.1
875.853	60.24
876.026	58.2
876.199	43.86
876.371	103.25
876.544	17.24
876.717	-17.58
876.889	74.58
877.062	-13.48
877.234	-13.48
877.407	13.14
877.579	25.43
877.752	29.52
877.924	37.72
878.097	-11.43
878.269	58.2
878.442	39.76
878.614	-3.24
878.786	58.2
878.959	66.39
879.131	62.29
879.303	47.96
879.476	45.91
879.648	4.95
879.82	29.52
879.993	54.1
880.165	-11.43
880.337	-44.2
880.509	0.85
880.681	-11.43
880.854	4.95
881.026	86.87
881.198	86.87
881.37	23.38
881.542	62.29
881.714	37.72
881.886	45.91
882.058	9.05
882.23	21.33
882.402	41.81
882.574	13.14
882.746	66.39
882.918	105.3
883.09	0.85
883.262	-13.48
883.434	-44.2
883.606	39.76
883.778	50
883.95	107.35
884.122	86.87
884.293	95.06
884.465	2.9
884.637	70.48
884.809	-3.24
884.98	54.1
885.152	45.91
885.324	99.16
885.496	41.81
885.667	-31.91
885.839	58.2
886.011	47.96
886.182	82.77
886.354	50
886.525	58.2
886.697	50
886.869	15.19
887.04	136.02
887.212	82.77
887.383	52.05
887.555	-13.48
887.726	31.57
887.897	29.52
888.069	-3.24
888.24	80.72
888.412	39.76
888.583	0.85
888.754	50
888.926	-27.82
889.097	35.67
889.268	54.1
889.44	88.92
889.611	-19.63
889.782	4.95
889.953	41.81
890.125	29.52
890.296	-3.24
890.467	19.29
890.638	37.72
890.809	37.72
890.98	7
891.151	72.53
891.323	86.87
891.494	-25.77
891.665	39.76
891.836	-3.24
892.007	37.72
892.178	54.1
892.349	11.09
892.52	11.09
892.691	4.95
892.862	54.1
893.032	54.1
893.203	23.38
893.374	56.15
893.545	11.09
893.716	-68.78
893.887	21.33
894.057	-46.25
894.228	82.77
894.399	-38.06
894.57	74.58
894.74	-9.39
894.911	-3.24
895.082	136.02
895.253	-7.34
895.423	-3.24
895.594	45.91
895.764	54.1
895.935	29.52
896.106	-7.34
896.276	70.48
896.447	80.72
896.617	-36.01
896.788	11.09
896.958	-11.43
897.129	35.67
897.299	33.62
897.47	86.87
897.64	58.2
897.81	-48.3
897.981	4.95
898.151	-27.82
898.322	-13.48
898.492	13.14
898.662	4.95
898.832	13.14
899.003	82.77
899.173	31.57
899.343	-62.63
899.513	78.68
