Data from USB4F104151__47__14-29-54-059.txt Node

Date: Thu Mar 13 14:29:54 EDT 2025
User: louis
Spectrometer: USB4F10415
Trigger mode: 4
Integration Time (sec): 2.500000E-2
Scans to average: 1
Electric dark correction enabled: true
Nonlinearity correction enabled: false
Boxcar width: 0
XAxis mode: Wavelengths
Number of Pixels in Spectrum: 3648
>>>>>Begin Spectral Data<<<<<
178.204	-181.25
178.424	-181.25
178.644	-181.25
178.864	-128
179.084	-199.68
179.304	41.98
179.524	13.31
179.744	-9.22
179.964	89.09
180.184	21.5
180.404	-31.74
180.624	-74.75
180.844	37.89
181.064	-54.27
181.283	-9.22
181.503	-31.74
181.723	7.17
181.943	-68.61
182.163	31.74
182.383	-62.46
182.602	23.55
182.822	41.98
183.042	9.22
183.262	27.65
183.482	-52.22
183.701	13.31
183.921	54.27
184.141	-3.07
184.361	52.22
184.58	39.94
184.8	-48.13
185.02	-29.7
185.239	21.5
185.459	33.79
185.679	46.08
185.898	-37.89
186.118	64.51
186.338	-15.36
186.557	15.36
186.777	-80.89
186.997	-9.22
187.216	-44.03
187.436	76.8
187.655	21.5
187.875	21.5
188.095	-41.98
188.314	19.46
188.534	64.51
188.753	-1.02
188.973	1.02
189.192	25.6
189.412	29.7
189.631	-39.94
189.851	-1.02
190.07	39.94
190.29	-11.26
190.509	17.41
190.729	-50.18
190.948	48.13
191.168	111.61
191.387	50.18
191.607	5.12
191.826	23.55
192.045	5.12
192.265	84.99
192.484	-35.84
192.704	-17.41
192.923	46.08
193.142	132.09
193.362	-19.46
193.581	21.5
193.8	-15.36
194.02	33.79
194.239	19.46
194.458	27.65
194.678	-1.02
194.897	17.41
195.116	-27.65
195.335	-39.94
195.555	95.23
195.774	-3.07
195.993	50.18
196.212	5.12
196.432	-50.18
196.651	-5.12
196.87	-3.07
197.089	97.28
197.308	1.02
197.528	13.31
197.747	-35.84
197.966	9.22
198.185	95.23
198.404	9.22
198.623	41.98
198.842	62.46
199.062	39.94
199.281	37.89
199.5	1.02
199.719	-1.02
199.938	37.89
200.157	44.03
200.376	62.46
200.595	-35.84
200.814	13.31
201.033	70.65
201.252	41.98
201.471	41.98
201.69	-9.22
201.909	25.6
202.128	68.61
202.347	-17.41
202.566	-74.75
202.785	-11.26
203.004	-44.03
203.223	78.85
203.442	11.26
203.661	15.36
203.879	39.94
204.098	119.81
204.317	9.22
204.536	66.56
204.755	60.42
204.974	111.61
205.193	39.94
205.411	103.42
205.63	46.08
205.849	37.89
206.068	13.31
206.287	-27.65
206.505	9.22
206.724	29.7
206.943	37.89
207.162	-1.02
207.381	5.12
207.599	15.36
207.818	23.55
208.037	-52.22
208.255	-33.79
208.474	41.98
208.693	87.04
208.911	-11.26
209.13	78.85
209.349	13.31
209.567	7.17
209.786	105.47
210.005	7.17
210.223	46.08
210.442	-52.22
210.661	46.08
210.879	60.42
211.098	54.27
211.316	15.36
211.535	66.56
211.753	-19.46
211.972	64.51
212.191	-25.6
212.409	37.89
212.628	27.65
212.846	-19.46
213.065	41.98
213.283	91.13
213.502	41.98
213.72	15.36
213.938	5.12
214.157	-9.22
214.375	29.7
214.594	29.7
214.812	93.18
215.031	11.26
215.249	-11.26
215.467	50.18
215.686	29.7
215.904	78.85
216.122	-35.84
216.341	13.31
216.559	37.89
216.778	-19.46
216.996	5.12
217.214	-58.37
217.432	-27.65
217.651	-39.94
217.869	-19.46
218.087	13.31
218.306	-11.26
218.524	27.65
218.742	-68.61
218.96	27.65
219.179	9.22
219.397	78.85
219.615	-9.22
219.833	-3.07
220.051	-7.17
220.27	41.98
220.488	54.27
220.706	5.12
220.924	21.5
221.142	-48.13
221.36	-72.7
221.578	64.51
221.796	-3.07
222.015	48.13
222.233	5.12
222.451	9.22
222.669	-13.31
222.887	17.41
223.105	-27.65
223.323	3.07
223.541	-39.94
223.759	39.94
223.977	52.22
224.195	107.52
224.413	58.37
224.631	-25.6
224.849	78.85
225.067	66.56
225.285	-44.03
225.503	-29.7
225.721	-17.41
225.939	23.55
226.157	-7.17
226.375	121.85
226.592	-44.03
226.81	-25.6
227.028	5.12
227.246	23.55
227.464	11.26
227.682	50.18
227.9	-5.12
228.117	-17.41
228.335	46.08
228.553	7.17
228.771	-9.22
228.989	21.5
229.206	-1.02
229.424	-7.17
229.642	-50.18
229.86	-39.94
230.077	48.13
230.295	-11.26
230.513	111.61
230.731	33.79
230.948	142.33
231.166	103.42
231.384	17.41
231.601	-27.65
231.819	87.04
232.037	50.18
232.254	17.41
232.472	-5.12
232.689	-1.02
232.907	-1.02
233.125	39.94
233.342	-11.26
233.56	-3.07
233.777	-33.79
233.995	1.02
234.213	64.51
234.43	95.23
234.648	48.13
234.865	9.22
235.083	50.18
235.3	-27.65
235.518	70.65
235.735	-3.07
235.953	-7.17
236.17	-15.36
236.388	39.94
236.605	31.74
236.822	7.17
237.04	7.17
237.257	29.7
237.475	5.12
237.692	5.12
237.909	-23.55
238.127	37.89
238.344	37.89
238.562	50.18
238.779	-50.18
238.996	-3.07
239.214	-15.36
239.431	154.62
239.648	-72.7
239.865	-15.36
240.083	19.46
240.3	-35.84
240.517	-19.46
240.735	56.32
240.952	25.6
241.169	52.22
241.386	3.07
241.603	54.27
241.821	21.5
242.038	23.55
242.255	15.36
242.472	-39.94
242.689	99.33
242.907	5.12
243.124	-19.46
243.341	5.12
243.558	-46.08
243.775	-17.41
243.992	-9.22
244.209	37.89
244.426	48.13
244.643	97.28
244.86	-17.41
245.078	39.94
245.295	-7.17
245.512	68.61
245.729	21.5
245.946	54.27
246.163	23.55
246.38	-9.22
246.597	-17.41
246.814	-15.36
247.031	46.08
247.248	13.31
247.464	13.31
247.681	-3.07
247.898	-41.98
248.115	-25.6
248.332	-11.26
248.549	13.31
248.766	89.09
248.983	64.51
249.2	82.94
249.417	-19.46
249.633	7.17
249.85	66.56
250.067	-27.65
250.284	-11.26
250.501	-11.26
250.717	54.27
250.934	-76.8
251.151	17.41
251.368	17.41
251.585	23.55
251.801	5.12
252.018	-56.32
252.235	68.61
252.451	29.7
252.668	-11.26
252.885	9.22
253.102	-35.84
253.318	31.74
253.535	3.07
253.752	-27.65
253.968	7.17
254.185	3.07
254.401	54.27
254.618	-7.17
254.835	-27.65
255.051	80.89
255.268	31.74
255.484	62.46
255.701	-128
255.917	66.56
256.134	-25.6
256.351	5.12
256.567	19.46
256.784	21.5
257	-29.7
257.217	128
257.433	46.08
257.65	-3.07
257.866	-9.22
258.082	-27.65
258.299	-11.26
258.515	62.46
258.732	66.56
258.948	-29.7
259.165	-7.17
259.381	37.89
259.597	3.07
259.814	-3.07
260.03	-44.03
260.246	-21.5
260.463	84.99
260.679	46.08
260.895	-27.65
261.112	-7.17
261.328	21.5
261.544	-15.36
261.761	62.46
261.977	21.5
262.193	-35.84
262.409	19.46
262.626	-3.07
262.842	25.6
263.058	-19.46
263.274	46.08
263.49	27.65
263.707	41.98
263.923	91.13
264.139	-46.08
264.355	-3.07
264.571	1.02
264.787	76.8
265.004	111.61
265.22	-76.8
265.436	3.07
265.652	62.46
265.868	7.17
266.084	-44.03
266.3	70.65
266.516	-31.74
266.732	78.85
266.948	13.31
267.164	-9.22
267.38	29.7
267.596	33.79
267.812	46.08
268.028	9.22
268.244	-46.08
268.46	64.51
268.676	-11.26
268.892	-1.02
269.108	17.41
269.324	17.41
269.54	1.02
269.756	-1.02
269.972	39.94
270.188	-33.79
270.403	-15.36
270.619	7.17
270.835	48.13
271.051	46.08
271.267	-19.46
271.483	5.12
271.698	11.26
271.914	33.79
272.13	-21.5
272.346	-33.79
272.562	-19.46
272.777	29.7
272.993	-15.36
273.209	113.66
273.425	-3.07
273.64	19.46
273.856	11.26
274.072	13.31
274.287	13.31
274.503	7.17
274.719	58.37
274.934	-44.03
275.15	-15.36
275.366	46.08
275.581	-7.17
275.797	-11.26
276.012	-54.27
276.228	-37.89
276.444	-15.36
276.659	62.46
276.875	-50.18
277.09	13.31
277.306	60.42
277.521	31.74
277.737	-11.26
277.952	21.5
278.168	-56.32
278.383	64.51
278.599	37.89
278.814	74.75
279.03	5.12
279.245	82.94
279.461	1.02
279.676	-5.12
279.892	-37.89
280.107	-48.13
280.322	-15.36
280.538	121.85
280.753	41.98
280.969	1.02
281.184	-35.84
281.399	95.23
281.615	46.08
281.83	-66.56
282.045	19.46
282.26	-19.46
282.476	-48.13
282.691	29.7
282.906	-50.18
283.122	29.7
283.337	-23.55
283.552	21.5
283.767	95.23
283.983	-44.03
284.198	37.89
284.413	33.79
284.628	74.75
284.843	-31.74
285.058	37.89
285.274	33.79
285.489	-46.08
285.704	23.55
285.919	-46.08
286.134	29.7
286.349	-56.32
286.564	-21.5
286.779	41.98
286.995	21.5
287.21	-23.55
287.425	-7.17
287.64	35.84
287.855	1.02
288.07	-3.07
288.285	37.89
288.5	17.41
288.715	123.9
288.93	15.36
289.145	41.98
289.36	37.89
289.575	31.74
289.79	11.26
290.004	-15.36
290.219	76.8
290.434	72.7
290.649	-19.46
290.864	27.65
291.079	21.5
291.294	-41.98
291.509	-11.26
291.724	-35.84
291.938	-41.98
292.153	52.22
292.368	-41.98
292.583	-7.17
292.798	-39.94
293.012	54.27
293.227	13.31
293.442	56.32
293.657	-11.26
293.871	-5.12
294.086	11.26
294.301	113.66
294.516	48.13
294.73	-1.02
294.945	87.04
295.16	-11.26
295.374	54.27
295.589	41.98
295.804	-52.22
296.018	5.12
296.233	-11.26
296.447	-5.12
296.662	44.03
296.877	91.13
297.091	37.89
297.306	15.36
297.52	3.07
297.735	-1.02
297.949	-11.26
298.164	-11.26
298.378	72.7
298.593	15.36
298.807	23.55
299.022	-25.6
299.236	89.09
299.451	-11.26
299.665	-9.22
299.88	80.89
300.094	37.89
300.309	-35.84
300.523	82.94
300.737	-1.02
300.952	7.17
301.166	5.12
301.381	13.31
301.595	19.46
301.809	46.08
302.024	37.89
302.238	-23.55
302.452	87.04
302.667	41.98
302.881	37.89
303.095	95.23
303.309	68.61
303.524	21.5
303.738	31.74
303.952	56.32
304.166	-74.75
304.381	-7.17
304.595	68.61
304.809	39.94
305.023	41.98
305.237	-19.46
305.452	9.22
305.666	78.85
305.88	50.18
306.094	29.7
306.308	-9.22
306.522	27.65
306.736	15.36
306.95	44.03
307.164	35.84
307.379	-52.22
307.593	99.33
307.807	33.79
308.021	-3.07
308.235	17.41
308.449	-33.79
308.663	-41.98
308.877	41.98
309.091	25.6
309.305	-11.26
309.519	-68.61
309.733	-39.94
309.947	-23.55
310.161	37.89
310.374	-17.41
310.588	95.23
310.802	-35.84
311.016	-11.26
311.23	70.65
311.444	-44.03
311.658	60.42
311.872	70.65
312.085	-7.17
312.299	95.23
312.513	7.17
312.727	62.46
312.941	-13.31
313.154	62.46
313.368	58.37
313.582	54.27
313.796	46.08
314.009	35.84
314.223	9.22
314.437	33.79
314.651	-19.46
314.864	-25.6
315.078	58.37
315.292	50.18
315.505	64.51
315.719	23.55
315.933	-35.84
316.146	-60.42
316.36	17.41
316.573	31.74
316.787	70.65
317.001	-11.26
317.214	-39.94
317.428	25.6
317.641	-76.8
317.855	101.37
318.068	48.13
318.282	39.94
318.495	46.08
318.709	13.31
318.922	-1.02
319.136	179.2
319.349	128
319.563	39.94
319.776	37.89
319.99	9.22
320.203	64.51
320.417	13.31
320.63	17.41
320.843	84.99
321.057	21.5
321.27	15.36
321.483	25.6
321.697	29.7
321.91	-62.46
322.124	-27.65
322.337	115.71
322.55	15.36
322.763	-1.02
322.977	62.46
323.19	39.94
323.403	17.41
323.617	21.5
323.83	74.75
324.043	13.31
324.256	119.81
324.469	-62.46
324.683	9.22
324.896	109.57
325.109	39.94
325.322	7.17
325.535	39.94
325.748	99.33
325.962	15.36
326.175	-35.84
326.388	27.65
326.601	48.13
326.814	-11.26
327.027	-44.03
327.24	62.46
327.453	5.12
327.666	82.94
327.879	-15.36
328.092	70.65
328.305	13.31
328.518	31.74
328.731	23.55
328.944	91.13
329.157	48.13
329.37	54.27
329.583	82.94
329.796	64.51
330.009	11.26
330.222	-9.22
330.435	-3.07
330.648	7.17
330.861	-27.65
331.073	54.27
331.286	33.79
331.499	35.84
331.712	3.07
331.925	-3.07
332.138	41.98
332.35	39.94
332.563	33.79
332.776	7.17
332.989	-17.41
333.202	29.7
333.414	23.55
333.627	19.46
333.84	-44.03
334.053	50.18
334.265	-3.07
334.478	-121.85
334.691	46.08
334.903	29.7
335.116	-60.42
335.329	-17.41
335.541	41.98
335.754	113.66
335.966	54.27
336.179	11.26
336.392	-3.07
336.604	25.6
336.817	78.85
337.029	-15.36
337.242	-15.36
337.454	46.08
337.667	68.61
337.88	113.66
338.092	-1.02
338.305	29.7
338.517	-17.41
338.729	91.13
338.942	13.31
339.154	-11.26
339.367	50.18
339.579	-15.36
339.792	-5.12
340.004	48.13
340.217	66.56
340.429	37.89
340.641	37.89
340.854	-11.26
341.066	31.74
341.278	54.27
341.491	68.61
341.703	37.89
341.915	9.22
342.128	-19.46
342.34	89.09
342.552	3.07
342.764	-1.02
342.977	13.31
343.189	70.65
343.401	58.37
343.613	-25.6
343.826	84.99
344.038	-41.98
344.25	-72.7
344.462	-17.41
344.674	152.57
344.886	-27.65
345.099	21.5
345.311	74.75
345.523	17.41
345.735	44.03
345.947	-3.07
346.159	23.55
346.371	91.13
346.583	-1.02
346.795	97.28
347.007	50.18
347.219	37.89
347.431	9.22
347.643	140.29
347.855	17.41
348.067	123.9
348.279	-19.46
348.491	39.94
348.703	72.7
348.915	29.7
349.127	-25.6
349.339	15.36
349.551	-1.02
349.763	37.89
349.975	-1.02
350.187	89.09
350.399	70.65
350.61	72.7
350.822	101.37
351.034	54.27
351.246	-70.65
351.458	23.55
351.669	54.27
351.881	15.36
352.093	-7.17
352.305	50.18
352.517	72.7
352.728	82.94
352.94	19.46
353.152	-11.26
353.363	-93.18
353.575	17.41
353.787	23.55
353.999	-1.02
354.21	62.46
354.422	27.65
354.633	62.46
354.845	-3.07
355.057	70.65
355.268	21.5
355.48	109.57
355.692	27.65
355.903	70.65
356.115	97.28
356.326	-23.55
356.538	80.89
356.749	39.94
356.961	33.79
357.172	15.36
357.384	-3.07
357.595	97.28
357.807	41.98
358.018	1.02
358.23	82.94
358.441	25.6
358.653	41.98
358.864	13.31
359.075	37.89
359.287	70.65
359.498	13.31
359.709	74.75
359.921	17.41
360.132	58.37
360.344	15.36
360.555	-3.07
360.766	23.55
360.977	-19.46
361.189	27.65
361.4	-1.02
361.611	54.27
361.823	54.27
362.034	107.52
362.245	37.89
362.456	15.36
362.667	103.42
362.879	-3.07
363.09	-41.98
363.301	54.27
363.512	62.46
363.723	70.65
363.935	13.31
364.146	33.79
364.357	54.27
364.568	72.7
364.779	-52.22
364.99	27.65
365.201	13.31
365.412	95.23
365.623	15.36
365.834	15.36
366.045	1.02
366.256	21.5
366.467	62.46
366.678	-1.02
366.889	37.89
367.1	25.6
367.311	80.89
367.522	15.36
367.733	31.74
367.944	78.85
368.155	17.41
368.366	107.52
368.577	39.94
368.788	56.32
368.999	17.41
369.209	5.12
369.42	105.47
369.631	99.33
369.842	21.5
370.053	62.46
370.264	31.74
370.474	-17.41
370.685	80.89
370.896	95.23
371.107	95.23
371.317	91.13
371.528	-23.55
371.739	29.7
371.95	9.22
372.16	23.55
372.371	9.22
372.582	41.98
372.792	64.51
373.003	41.98
373.214	-31.74
373.424	13.31
373.635	21.5
373.846	97.28
374.056	15.36
374.267	70.65
374.477	-11.26
374.688	25.6
374.898	46.08
375.109	37.89
375.319	89.09
375.53	103.42
375.74	48.13
375.951	-19.46
376.161	44.03
376.372	99.33
376.582	56.32
376.793	-9.22
377.003	29.7
377.214	-7.17
377.424	46.08
377.635	50.18
377.845	5.12
378.055	93.18
378.266	13.31
378.476	37.89
378.686	-27.65
378.897	13.31
379.107	78.85
379.317	33.79
379.528	-19.46
379.738	-41.98
379.948	23.55
380.158	-5.12
380.369	78.85
380.579	54.27
380.789	62.46
380.999	62.46
381.21	-7.17
381.42	107.52
381.63	-35.84
381.84	78.85
382.05	48.13
382.261	74.75
382.471	-1.02
382.681	46.08
382.891	62.46
383.101	9.22
383.311	-11.26
383.521	11.26
383.731	7.17
383.941	64.51
384.151	33.79
384.361	-17.41
384.571	60.42
384.781	56.32
384.991	66.56
385.201	56.32
385.411	76.8
385.621	50.18
385.831	31.74
386.041	46.08
386.251	7.17
386.461	-3.07
386.671	64.51
386.881	39.94
387.091	-46.08
387.301	125.95
387.511	-7.17
387.72	89.09
387.93	50.18
388.14	-35.84
388.35	46.08
388.56	95.23
388.769	117.76
388.979	-41.98
389.189	9.22
389.399	46.08
389.609	99.33
389.818	21.5
390.028	56.32
390.238	138.24
390.447	13.31
390.657	29.7
390.867	7.17
391.076	17.41
391.286	37.89
391.496	41.98
391.705	-17.41
391.915	111.61
392.125	-19.46
392.334	62.46
392.544	166.91
392.753	1.02
392.963	1.02
393.172	78.85
393.382	80.89
393.591	35.84
393.801	-23.55
394.01	97.28
394.22	23.55
394.429	48.13
394.639	84.99
394.848	60.42
395.058	21.5
395.267	13.31
395.477	21.5
395.686	87.04
395.895	11.26
396.105	99.33
396.314	119.81
396.524	91.13
396.733	48.13
396.942	140.29
397.152	76.8
397.361	142.33
397.57	113.66
397.78	37.89
397.989	111.61
398.198	148.48
398.407	46.08
398.617	62.46
398.826	62.46
399.035	37.89
399.244	211.96
399.453	93.18
399.663	39.94
399.872	87.04
400.081	46.08
400.29	107.52
400.499	21.5
400.708	95.23
400.917	29.7
401.127	5.12
401.336	76.8
401.545	138.24
401.754	72.7
401.963	164.86
402.172	113.66
402.381	39.94
402.59	128
402.799	87.04
403.008	136.19
403.217	156.67
403.426	121.85
403.635	152.57
403.844	115.71
404.053	177.15
404.262	121.85
404.471	261.12
404.68	146.43
404.888	103.42
405.097	146.43
405.306	89.09
405.515	146.43
405.724	164.86
405.933	136.19
406.142	160.77
406.35	265.21
406.559	154.62
406.768	193.53
406.977	160.77
407.185	181.25
407.394	234.49
407.603	95.23
407.812	185.34
408.02	211.96
408.229	187.39
408.438	228.35
408.646	234.49
408.855	197.63
409.064	281.6
409.272	203.77
409.481	228.35
409.69	234.49
409.898	279.55
410.107	316.41
410.315	336.89
410.524	283.64
410.733	332.79
410.941	361.47
411.15	422.91
411.358	367.61
411.567	375.8
411.775	396.28
411.984	414.71
412.192	513.02
412.401	441.34
412.609	517.11
412.818	537.59
413.026	527.35
413.234	545.78
413.443	431.1
413.651	502.78
413.86	490.49
414.068	676.85
414.276	668.66
414.485	607.22
414.693	691.19
414.901	742.39
415.11	635.89
415.318	832.5
415.526	676.85
415.734	807.92
415.943	881.65
416.151	879.6
416.359	824.31
416.567	879.6
416.776	904.18
416.984	996.34
417.192	1053.68
417.4	1057.78
417.608	938.99
417.817	1037.3
418.025	1080.3
418.233	1158.13
418.441	1176.56
418.649	1170.41
418.857	1338.35
419.065	1309.68
419.273	1375.21
419.481	1403.88
419.689	1410.03
419.897	1438.7
420.105	1496.04
420.313	1555.43
420.521	1655.78
420.729	1711.08
420.937	1688.55
421.145	1807.33
421.353	1854.44
421.561	2069.47
421.769	2085.86
421.977	2085.86
422.185	2083.81
422.393	2194.4
422.601	2348
422.809	2241.5
423.017	2356.19
423.224	2524.12
423.432	2468.83
423.64	2577.37
423.848	2653.14
424.056	2599.9
424.263	2972.63
424.471	2888.66
424.679	2929.62
424.887	3118.03
425.094	3218.38
425.302	3234.77
425.51	3462.09
425.718	3367.88
425.925	3490.76
426.133	3746.76
426.341	3896.26
426.548	3838.92
426.756	3996.61
426.964	3980.23
427.171	4232.13
427.379	4428.73
427.586	4363.2
427.794	4621.24
428.001	4942.77
428.209	4985.78
428.417	4830.13
428.624	5184.43
428.832	5262.26
429.039	5321.65
429.247	5125.04
429.454	5688.23
429.662	6081.44
429.869	5600.17
430.076	6140.83
430.284	5944.23
430.491	6067.11
430.699	6552.48
430.906	6558.62
431.114	6636.44
431.321	6871.96
431.528	6874.01
431.736	7295.89
431.943	7639.95
432.15	7515.02
432.358	7594.89
432.565	8180.61
432.772	7828.36
432.979	8487.81
433.187	8594.3
433.394	8575.87
433.601	9122.68
433.808	9210.74
434.016	8940.41
434.223	9511.79
434.43	10140.52
434.637	9671.53
434.844	10345.31
435.052	10566.49
435.259	10699.61
435.466	10511.2
435.673	10498.91
435.88	11107.16
436.087	11670.35
436.294	11778.89
436.501	11596.62
436.708	11604.81
436.915	12323.65
437.122	12768.06
437.329	12421.95
437.537	13105.98
437.743	13286.2
437.95	13191.99
438.157	14119.72
438.364	14263.08
438.571	14142.25
438.778	14388
438.985	15850.25
439.192	15151.9
439.399	15495.96
439.606	15143.7
439.813	15987.47
440.02	16986.88
440.227	16558.85
440.433	16470.79
440.64	17056.51
440.847	16935.68
441.054	17259.26
441.261	18356.97
441.467	18164.46
441.674	18735.84
441.881	19178.2
442.088	19231.45
442.294	18848.48
442.501	19624.66
442.708	19802.83
442.914	20507.34
443.121	21322.43
443.328	20751.04
443.534	22438.57
443.741	21807.8
443.948	21613.24
444.154	23179.93
444.361	23042.72
444.568	22895.27
444.774	23204.51
444.981	23337.63
445.187	23833.24
445.394	24945.28
445.6	24322.7
445.807	27236.96
446.013	25778.81
446.22	26581.61
446.426	27490.91
446.633	27564.64
446.839	28301.9
447.046	27421.28
447.252	28842.57
447.459	28940.87
447.665	28596.81
447.871	29870.65
448.078	31408.67
448.284	29962.81
448.491	30798.38
448.697	31801.88
448.903	32182.8
449.11	32604.69
449.316	32053.78
449.522	32547.34
449.728	33370.63
449.935	33425.92
450.141	33190.41
450.347	33946.11
450.553	33415.68
450.76	33425.92
450.966	34968.04
451.172	34198.01
451.378	34990.57
451.584	34460.15
451.791	35312.1
451.997	35162.6
452.203	35764.7
452.409	35856.86
452.615	35277.29
452.821	33968.63
453.027	33782.27
453.233	36088.28
453.44	34351.6
453.646	34916.84
453.852	34576.88
454.058	35494.37
454.264	34146.81
454.47	35011.05
454.676	33534.46
454.882	35117.54
455.088	32057.88
455.294	32152.09
455.5	32817.68
455.705	33311.24
455.911	31986.2
456.117	31330.85
456.323	31191.59
456.529	29295.17
456.735	30313.01
456.941	30159.41
457.147	29213.25
457.352	28422.73
457.558	28007
457.764	28195.41
457.97	27353.69
458.176	26704.49
458.381	26825.32
458.587	25387.64
458.793	25514.62
458.999	24068.75
459.204	25981.56
459.41	25199.23
459.616	23466.65
459.821	23411.35
460.027	23153.31
460.233	22848.16
460.438	21756.6
460.644	22051.5
460.85	20947.65
461.055	20531.91
461.261	20394.7
461.466	18926.3
461.672	18334.44
461.878	19606.23
462.083	18322.15
462.289	18008.81
462.494	17654.51
462.7	17031.93
462.905	16773.89
463.111	17228.54
463.316	17361.66
463.522	16913.15
463.727	16943.87
463.932	16810.75
464.138	16429.83
464.343	16796.42
464.549	16200.46
464.754	16642.82
464.959	16417.54
465.165	16341.77
465.37	15772.43
465.575	15336.21
465.781	15821.58
465.986	16048.91
466.191	15121.18
466.397	14754.59
466.602	14299.94
466.807	14859.04
467.012	14879.52
467.218	14711.58
467.423	14709.54
467.628	14496.55
467.833	15110.94
468.038	14541.6
468.244	14234.41
468.449	14840.61
468.654	14336.81
468.859	14306.09
469.064	13970.22
469.269	13443.89
469.474	13597.49
469.679	13964.07
469.885	13271.86
470.09	13773.61
470.295	13765.42
470.5	13103.93
470.705	13364.02
470.91	12794.68
471.115	12815.16
471.32	13101.88
471.525	12935.99
471.73	12643.14
471.935	12532.54
472.139	12006.22
472.344	12161.86
472.549	12168.01
472.754	11959.11
472.959	11850.57
473.164	11391.83
473.369	11479.89
473.574	11801.42
473.778	11639.63
473.983	11576.14
474.188	11510.61
474.393	11037.53
474.598	10984.28
474.802	10888.03
475.007	10632.03
475.212	10802.01
475.417	10531.68
475.621	10310.5
475.826	10505.06
476.031	10130.28
476.235	10003.3
476.44	10220.39
476.645	10058.6
476.849	10138.47
477.054	9857.9
477.259	10003.3
477.463	9728.88
477.668	9591.66
477.872	9552.75
478.077	9425.78
478.282	9141.11
478.486	9259.89
478.691	9024.37
478.895	9229.17
479.1	9085.81
479.304	9081.72
479.509	8956.79
479.713	8934.26
479.918	8858.49
480.122	8754.04
480.326	8655.74
480.531	8729.47
480.735	8569.73
480.94	8592.25
481.144	8930.17
481.348	8340.35
481.553	8512.38
481.757	8164.23
481.961	8459.13
482.166	8627.07
482.37	8455.04
482.574	8307.59
482.778	8369.02
482.983	8426.37
483.187	8444.8
483.391	8344.45
483.595	8291.2
483.8	8131.46
484.004	8174.47
484.208	8364.93
484.412	8366.98
484.616	8311.68
484.821	8260.48
485.025	8057.73
485.229	8403.84
485.433	8264.58
485.637	8240
485.841	8158.08
486.045	8168.32
486.249	8280.96
486.453	8100.74
486.657	8182.66
486.861	8225.67
487.065	8123.27
487.269	8242.05
487.473	7902.09
487.677	8242.05
487.881	8213.38
488.085	8242.05
488.289	8086.4
488.493	8092.55
488.697	8305.54
488.901	8110.98
489.105	8194.95
489.309	8356.74
489.512	8289.15
489.716	8321.92
489.92	8352.64
490.124	8221.57
490.328	8391.55
490.531	8020.87
490.735	8379.26
490.939	8276.87
491.143	8338.3
491.346	8280.96
491.55	8194.95
491.754	8543.1
491.958	8430.46
492.161	8463.23
492.365	8516.48
492.569	8336.26
492.772	8362.88
492.976	8500.09
493.18	8649.6
493.383	8610.68
493.587	8639.36
493.79	8731.51
493.994	8797.05
494.197	8815.48
494.401	8586.11
494.605	8645.5
494.808	8897.4
495.012	8878.97
495.215	8971.13
495.419	9108.34
495.622	8952.7
495.825	9038.71
496.029	9198.45
496.232	9300.85
496.436	9241.46
496.639	9341.81
496.843	9323.38
497.046	9618.29
497.249	9673.58
497.453	9821.03
497.656	9747.31
497.859	9708.4
498.063	9878.38
498.266	10081.13
498.469	10021.74
498.673	10015.59
498.876	10416.99
499.079	10457.95
499.282	10335.07
499.485	10601.31
499.689	10621.79
499.892	10718.04
500.095	10683.23
500.298	10781.53
500.501	11008.86
500.705	11187.03
500.908	11522.9
501.111	11338.58
501.314	11326.29
501.517	11557.71
501.72	11778.89
501.923	11737.93
502.126	11995.98
502.329	12094.28
502.532	11979.59
502.735	12104.52
502.938	12571.46
503.141	12327.75
503.344	12731.2
503.547	12747.58
503.75	12753.73
503.953	12907.32
504.156	13300.53
504.359	13118.26
504.562	13161.27
504.765	13744.94
504.968	13595.44
505.17	13878.06
505.373	13982.51
505.576	13990.7
505.779	14146.34
505.982	14154.54
506.185	14500.64
506.387	14492.45
506.59	14725.92
506.793	14842.65
506.996	14900
507.198	15377.17
507.401	14965.53
507.604	15356.69
507.807	15862.54
508.009	15987.47
508.212	15897.36
508.415	16153.35
508.617	16200.46
508.82	16114.44
509.022	16202.5
509.225	16765.7
509.428	16837.38
509.63	17189.63
509.833	17025.79
510.035	17351.42
510.238	17349.37
510.44	17482.49
510.643	17971.95
510.845	17875.7
511.048	18111.21
511.25	18371.3
511.453	18340.58
511.655	18959.07
511.858	18553.57
512.06	19079.9
512.262	19012.32
512.465	18828
512.667	19567.32
512.87	19700.44
513.072	19720.92
513.274	19935.95
513.477	20280.01
513.679	20370.12
513.881	20376.27
514.084	20570.82
514.286	20708.04
514.488	20781.76
514.69	21394.11
514.893	21398.2
515.095	21697.2
515.297	21842.61
515.499	21863.09
515.701	22348.46
515.904	22473.39
516.106	22708.9
516.308	22807.2
516.51	22813.35
516.712	22643.37
516.914	23167.65
517.116	23513.75
517.318	23687.83
517.52	23859.86
517.722	23653.02
517.925	23872.15
518.127	24228.49
518.329	24324.75
518.531	24406.67
518.733	24924.8
518.935	24949.38
519.136	25102.98
519.338	25432.7
519.54	25297.53
519.742	25547.39
519.944	25827.96
520.146	25989.75
520.348	25999.99
520.55	26348.14
520.752	26249.84
520.954	26757.74
521.155	26520.17
521.357	26755.69
521.559	27155.04
521.761	27107.94
521.963	27392.61
522.164	27232.86
522.366	27284.06
522.568	27568.73
522.77	27503.2
522.971	28254.8
523.173	27662.94
523.375	28273.23
523.576	28015.19
523.778	27961.94
523.98	28056.15
524.181	28306
524.383	28387.92
524.584	28738.12
524.786	28756.55
524.988	28607.05
525.189	29004.36
525.391	28897.86
525.592	29033.03
525.794	29235.78
525.995	28947.01
526.197	29067.84
526.398	29260.35
526.6	29092.42
526.801	29282.88
527.003	29297.22
527.204	29401.66
527.406	29565.5
527.607	29352.51
527.808	29526.59
528.01	29293.12
528.211	29098.56
528.412	29385.28
528.614	29704.76
528.815	29823.54
529.016	29831.74
529.218	29203.01
529.419	29131.33
529.62	29356.61
529.822	29493.82
530.023	29407.81
530.224	29274.69
530.425	29424.19
530.626	29231.68
530.828	29221.44
531.029	29846.07
531.23	28934.73
531.431	29372.99
531.632	29409.86
531.833	29143.62
532.035	29184.58
532.236	29280.83
532.437	29305.41
532.638	28824.14
532.839	29469.25
533.04	29395.52
533.241	28740.17
533.442	29035.08
533.643	28729.93
533.844	28899.91
534.045	28949.06
534.246	28858.95
534.447	28758.6
534.648	28674.63
534.849	28811.85
535.05	28557.9
535.251	28734.03
535.451	28518.99
535.652	28441.17
535.853	28500.56
536.054	28738.12
536.255	28531.28
536.456	28213.84
536.657	29004.36
536.857	28308.05
537.058	28480.08
537.259	28416.59
537.46	28504.65
537.66	28136.02
537.861	28451.41
538.062	28414.54
538.263	28338.77
538.463	28101.2
538.664	28332.62
538.865	27873.88
539.065	27914.84
539.266	27714.14
539.466	28265.04
539.667	27699.8
539.868	28306
540.068	27814.49
540.269	27900.5
540.469	27875.93
540.67	27671.13
540.87	27847.26
541.071	27847.26
541.271	27992.66
541.472	27830.87
541.672	27433.57
541.873	27421.28
542.073	27275.87
542.274	27923.03
542.474	27294.3
542.675	27605.59
542.875	27714.14
543.075	27542.11
543.276	27277.92
543.476	27693.66
543.676	27314.78
543.877	27476.57
544.077	27648.6
544.277	27568.73
544.478	27212.38
544.678	27748.95
544.878	27349.6
545.078	27488.86
545.279	27468.38
545.479	27337.31
545.679	27226.72
545.879	27361.89
546.079	27705.95
546.28	27380.32
546.48	26870.37
546.68	27056.74
546.88	27755.1
547.08	27413.09
547.28	27495
547.48	27236.96
547.68	27374.17
547.88	27146.85
548.081	27388.51
548.281	26868.33
548.481	27177.57
548.681	27196
548.881	27568.73
549.081	27497.05
549.28	27071.07
549.48	27673.18
549.68	27419.23
549.88	27523.68
550.08	27066.98
550.28	27251.3
550.48	27275.87
550.68	27300.45
550.88	27595.35
551.08	27069.03
551.279	27746.9
551.479	26911.33
551.679	27435.61
551.879	27196
552.079	27433.57
552.278	27419.23
552.478	27492.96
552.678	27738.71
552.878	28043.86
553.077	27464.28
553.277	27103.84
553.477	27634.27
553.676	27079.27
553.876	27574.88
554.076	27230.82
554.275	27529.82
554.475	27282.02
554.674	27744.86
554.874	27560.54
555.074	27601.5
555.273	27644.51
555.473	27865.69
555.672	27662.94
555.872	27595.35
556.071	27888.21
556.271	27949.65
556.47	27550.3
556.67	27478.62
556.869	27619.93
557.068	27978.33
557.268	27576.92
557.467	27753.05
557.667	27744.86
557.866	27953.75
558.065	27607.64
558.265	28043.86
558.464	27599.45
558.663	27781.72
558.863	27378.27
559.062	28074.58
559.261	27327.07
559.461	28207.7
559.66	27513.44
559.859	27908.69
560.058	27564.64
560.258	27767.38
560.457	27656.79
560.656	27832.92
560.855	27802.2
561.054	28080.72
561.253	27566.68
561.453	28193.36
561.652	27847.26
561.851	27681.37
562.05	27568.73
562.249	27849.3
562.448	27787.86
562.647	27904.6
562.846	27900.5
563.045	27695.71
563.244	27646.55
563.443	28015.19
563.642	27441.76
563.841	27777.62
564.04	27325.02
564.239	27812.44
564.438	27325.02
564.637	27707.99
564.836	27695.71
565.035	27380.32
565.234	27482.72
565.432	27136.61
565.631	27269.73
565.83	27609.69
566.029	27388.51
566.228	27038.31
566.427	27095.65
566.625	27091.55
566.824	26710.63
567.023	27316.83
567.222	26808.93
567.42	27183.71
567.619	26948.2
567.818	26976.87
568.016	26823.27
568.215	27081.31
568.414	26806.89
568.612	26892.9
568.811	27069.03
569.01	26501.74
569.208	26262.13
569.407	26727.02
569.605	26190.45
569.804	26182.26
570.002	26503.79
570.201	26485.36
570.4	26233.46
570.598	26167.92
570.797	25860.73
570.995	26149.49
571.193	25555.58
571.392	26159.73
571.59	25809.53
571.789	25885.3
571.987	25719.42
572.186	25596.54
572.384	25776.76
572.582	25866.87
572.781	25666.17
572.979	25389.69
573.177	25588.35
573.376	25635.45
573.574	25336.45
573.772	25254.53
573.971	25301.63
574.169	25127.55
574.367	25145.98
574.565	25227.9
574.763	24570.51
574.962	25078.4
575.16	24509.07
575.358	24613.51
575.556	24394.38
575.754	24584.84
575.952	24300.17
576.151	24451.72
576.349	24629.9
576.547	24183.44
576.745	24248.97
576.943	24160.91
577.141	24109.71
577.339	23956.11
577.537	23947.92
577.735	23691.93
577.933	23798.42
578.131	23870.1
578.329	23523.99
578.527	23616.15
578.725	23548.57
578.923	23855.76
579.121	23468.7
579.319	23421.59
579.516	23644.82
579.714	23108.26
579.912	23261.85
580.11	23300.76
580.308	23390.88
580.506	23237.28
580.704	22663.85
580.901	23272.09
581.099	23106.21
581.297	23175.84
581.495	22721.19
581.692	22887.07
581.89	22801.06
582.088	23112.35
582.285	22551.21
582.483	22594.22
582.681	22452.91
582.878	22487.72
583.076	22098.61
583.274	22334.12
583.471	22205.1
583.669	22323.88
583.866	22094.51
584.064	22256.3
584.262	21918.39
584.459	22194.86
584.657	22082.22
584.854	22188.72
585.052	21703.35
585.249	21979.82
585.447	21940.91
585.644	21430.97
585.841	21715.64
586.039	21789.36
586.236	21381.82
586.434	21441.21
586.631	21392.06
586.828	21209.79
587.026	21224.12
587.223	21310.14
587.42	20951.74
587.618	21088.96
587.815	21115.58
588.012	20976.32
588.21	20853.44
588.407	21002.94
588.604	20968.13
588.801	20935.36
588.999	21066.43
589.196	21105.34
589.393	20886.21
589.59	20705.99
589.787	20757.19
589.984	20548.29
590.182	20431.56
590.379	20679.36
590.576	20476.62
590.773	20869.83
590.97	20490.95
591.167	20247.24
591.364	20204.24
591.561	20421.32
591.758	20462.28
591.955	20316.87
592.152	20449.99
592.349	20044.49
592.546	20280.01
592.743	20312.78
592.94	19921.62
593.137	20177.61
593.334	20179.66
593.531	19911.38
593.727	20089.55
593.924	20017.87
594.121	19903.18
594.318	19970.77
594.515	19657.43
594.712	20069.07
594.908	19665.62
595.105	20024.01
595.302	19796.69
595.499	19923.66
595.696	19876.56
595.892	19673.81
596.089	19747.54
596.286	19636.95
596.482	19862.22
596.679	19978.96
596.876	19804.88
597.072	19587.8
597.269	19649.24
597.466	19587.8
597.662	19788.5
597.859	19518.17
598.055	19641.04
598.252	19649.24
598.448	19778.26
598.645	19626.71
598.841	19845.84
599.038	19917.52
599.234	19749.59
599.431	19344.09
599.627	19616.47
599.824	19782.35
600.02	19489.49
600.217	19530.45
600.413	19518.17
600.609	19567.32
600.806	19649.24
601.002	19690.2
601.198	19548.89
601.395	19657.43
601.591	19700.44
601.787	19616.47
601.984	19606.23
602.18	20026.06
602.376	19663.57
602.572	19794.64
602.769	19661.52
602.965	19731.15
603.161	19970.77
603.357	19929.81
603.553	19948.24
603.75	20040.4
603.946	20087.5
604.142	20255.43
604.338	20048.59
604.534	20189.9
604.73	19944.14
604.926	20165.32
605.122	20366.03
605.318	20069.07
605.514	20163.28
605.71	20048.59
605.906	20200.14
606.102	20599.49
606.298	20460.23
606.494	20456.14
606.69	20480.71
606.886	20363.98
607.082	20187.85
607.278	20677.32
607.474	20339.4
607.67	20488.9
607.866	20228.81
608.062	20755.14
608.257	20656.84
608.453	20749
608.649	20570.82
608.845	20726.47
609.041	20853.44
609.236	20943.55
609.432	20890.31
609.628	21271.23
609.824	21025.47
610.019	20865.73
610.215	21101.25
610.411	21326.52
610.606	21496.5
610.802	21033.66
610.998	21287.61
611.193	21095.1
611.389	21328.57
611.584	21351.1
611.78	21263.04
611.976	21289.66
612.171	21347
612.367	21248.7
612.562	21314.23
612.758	20986.56
612.953	21416.63
613.149	21635.77
613.344	21293.76
613.539	21586.61
613.735	21574.33
613.93	21729.97
614.126	21811.89
614.321	21883.57
614.517	21686.97
614.712	21885.62
614.907	21594.81
615.103	21707.44
615.298	21650.1
615.493	22184.62
615.688	21615.29
615.884	22295.21
616.079	21789.36
616.274	22131.37
616.47	21789.36
616.665	21938.87
616.86	21707.44
617.055	21584.57
617.25	21932.72
617.445	21748.4
617.641	21781.17
617.836	21885.62
618.031	21613.24
618.226	21967.54
618.421	21803.7
618.616	22108.85
618.811	21697.2
619.006	21613.24
619.201	21652.15
619.396	21551.8
619.591	21279.42
619.786	21775.03
619.981	21191.36
620.176	21811.89
620.371	21242.56
620.566	21551.8
620.761	21291.71
620.956	21320.38
621.151	21084.86
621.346	21228.22
621.541	20705.99
621.735	21295.8
621.93	20562.63
622.125	20947.65
622.32	20640.45
622.515	20648.64
622.709	20523.72
622.904	20415.18
623.099	20296.39
623.294	20280.01
623.488	20048.59
623.683	20257.48
623.878	20024.01
624.072	20216.52
624.267	19823.31
624.462	19989.2
624.656	19755.73
624.851	19983.06
625.046	19700.44
625.24	19538.65
625.435	19722.96
625.629	19364.57
625.824	19282.65
626.018	19370.71
626.213	18784.99
626.407	19030.75
626.602	18768.61
626.796	19077.85
626.991	18914.02
627.185	18791.14
627.38	18631.4
627.574	18641.64
627.768	18326.25
627.963	18348.78
628.157	17953.52
628.352	18229.99
628.546	17853.17
628.74	18379.5
628.935	17890.03
629.129	18031.34
629.323	17699.57
629.517	17869.55
629.712	17763.06
629.906	17578.74
630.1	17519.35
630.294	17265.4
630.489	17236.73
630.683	17369.85
630.877	16941.82
631.071	17040.12
631.265	17132.28
631.459	17021.69
631.653	16874.24
631.848	17017.6
632.042	16685.83
632.236	16644.87
632.43	16608
632.624	16585.47
632.818	16362.25
633.012	16186.12
633.206	16196.36
633.4	16110.35
633.594	16081.67
633.788	16108.3
633.982	15780.62
634.176	16032.52
634.369	15932.17
634.563	15706.9
634.757	15610.64
634.951	15604.5
635.145	15676.18
635.339	15416.08
635.533	15201.05
635.726	15276.82
635.92	14975.77
636.114	15233.82
636.308	14988.06
636.501	14877.47
636.695	14961.44
636.889	14644
637.083	14576.42
637.276	14373.67
637.47	14701.34
637.664	14242.6
637.857	14402.34
638.051	14312.23
638.244	13949.74
638.438	14125.86
638.632	14084.91
638.825	13849.39
639.019	13538.1
639.212	13648.69
639.406	13632.3
639.599	13396.79
639.793	13507.38
639.986	13296.44
640.18	13501.23
640.373	13085.5
640.567	13026.11
640.76	13228.85
640.954	12972.86
641.147	13060.92
641.34	12755.77
641.534	12712.77
641.727	12743.49
641.92	12604.22
642.114	12507.97
642.307	12643.14
642.5	12278.6
642.694	12456.77
642.887	12223.3
643.08	12366.66
643.273	12051.27
643.467	12024.65
643.66	11955.02
643.853	11850.57
644.046	11801.42
644.239	11721.55
644.432	11918.15
644.626	11541.33
644.819	11574.1
645.012	11539.28
645.205	11477.84
645.398	11295.57
645.591	11238.23
645.784	11015
645.977	11178.84
646.17	11289.43
646.363	11019.1
646.556	10591.07
646.749	11025.24
646.942	10840.92
647.135	10681.18
647.328	10898.27
647.521	10441.57
647.714	10455.9
647.907	10507.1
648.099	10298.21
648.292	10572.64
648.485	10081.13
648.678	10195.81
648.871	10085.22
649.064	9993.06
649.256	10177.38
649.449	9851.75
649.642	9786.22
649.835	9855.85
650.027	9636.72
650.22	9845.61
650.413	9687.92
650.605	9706.35
650.798	9665.39
650.991	9474.93
651.183	9364.34
651.376	9296.75
651.568	9468.78
651.761	9296.75
651.954	9110.39
652.146	9288.56
652.339	9143.16
652.531	9134.96
652.724	8909.69
652.916	8708.99
653.109	8958.84
653.301	8827.77
653.494	8852.34
653.686	8758.14
653.879	8917.88
654.071	8713.08
654.263	8735.61
654.456	8778.62
654.648	8598.4
654.84	8485.76
655.033	8549.25
655.225	8432.51
655.417	8598.4
655.61	8508.29
655.802	8455.04
655.994	8309.63
656.186	8377.22
656.379	7891.85
656.571	8129.41
656.763	8147.84
656.955	8117.12
657.148	8012.68
657.34	8018.82
657.532	8059.78
657.724	7961.48
657.916	8041.35
658.108	7836.55
658.3	7771.02
658.492	7795.59
658.684	7605.13
658.876	7617.42
659.068	7459.73
659.26	7383.95
659.452	7523.21
659.644	7435.15
659.836	7349.14
660.028	7281.55
660.22	7238.55
660.412	7302.03
660.604	7349.14
660.796	7273.36
660.988	7287.7
661.18	7150.48
661.372	7091.09
661.563	7121.81
661.755	6976.41
661.947	6923.16
662.139	6939.54
662.331	6828.95
662.522	6722.46
662.714	6699.93
662.906	6701.98
663.097	6841.24
663.289	6628.25
663.481	6501.28
663.673	6564.76
663.864	6556.57
664.056	6486.94
664.247	6370.21
664.439	6542.24
664.631	6486.94
664.822	6413.21
665.014	6423.45
665.205	6239.14
665.397	6257.57
665.588	6265.76
665.78	6030.24
665.971	6056.87
666.163	6120.35
666.354	5970.85
666.546	5798.82
666.737	5897.13
666.929	5991.33
667.12	5866.41
667.311	5929.89
667.503	5809.06
667.694	5890.98
667.885	5704.62
668.077	5819.3
668.268	5661.61
668.459	5706.66
668.651	5618.6
668.842	5753.77
669.033	5735.34
669.224	5469.1
669.416	5583.79
669.607	5503.92
669.798	5469.1
669.989	5497.77
670.18	5465
670.371	5426.09
670.563	5368.75
670.754	5422
670.945	5309.36
671.136	5389.23
671.327	5358.51
671.518	5223.34
671.709	5192.62
671.9	5381.04
672.091	5145.52
672.282	5213.1
672.473	5192.62
672.664	5200.82
672.855	5209.01
673.046	5168.05
673.237	5108.66
673.428	5045.17
673.619	5006.26
673.809	5057.46
674	5092.27
674.191	5051.31
674.382	4914.1
674.573	4998.07
674.764	4852.66
674.954	4867
675.145	4977.59
675.336	4766.65
675.527	4789.17
675.717	4842.42
675.908	4764.6
676.099	4924.34
676.289	4660.15
676.48	4803.51
676.671	4592.57
676.861	4711.35
677.052	4815.8
677.243	4660.15
677.433	4633.53
677.624	4760.5
677.814	4578.23
678.005	4752.31
678.195	4613.05
678.386	4780.98
678.576	4740.02
678.767	4651.96
678.957	4668.34
679.148	4639.67
679.338	4567.99
679.529	4580.28
679.719	4406.2
679.909	4705.21
680.1	4506.56
680.29	4481.98
680.481	4539.32
680.671	4567.99
680.861	4377.53
681.052	4453.31
681.242	4537.27
681.432	4391.87
681.622	4432.83
681.813	4490.17
682.003	4209.6
682.193	4316.09
682.383	4406.2
682.573	4461.5
682.764	4322.24
682.954	4336.57
683.144	4365.25
683.334	4291.52
683.524	4211.65
683.714	4389.82
683.904	4283.33
684.094	4322.24
684.284	4182.98
684.474	4379.58
684.664	4312
684.854	4481.98
685.044	4301.76
685.234	4348.86
685.424	4264.89
685.614	4209.6
685.804	4330.43
685.994	4240.32
686.184	4176.83
686.374	4144.06
686.564	4305.85
686.753	4215.74
686.943	4166.59
687.133	4264.89
687.323	4090.82
687.513	4297.66
687.702	4264.89
687.892	4168.64
688.082	4086.72
688.272	4086.72
688.461	4006.85
688.651	4144.06
688.841	3961.8
689.03	3900.36
689.22	4072.39
689.41	4002.75
689.599	4092.87
689.789	3945.41
689.979	4066.24
690.168	4107.2
690.358	4086.72
690.547	3976.13
690.737	4199.36
690.926	4045.76
691.116	3994.56
691.305	4088.77
691.495	4082.63
691.684	3957.7
691.874	3863.49
692.063	3978.18
692.252	3904.45
692.442	3963.84
692.631	3834.82
692.82	3814.34
693.01	3873.73
693.199	3765.19
693.388	3816.39
693.578	3800.01
693.767	3898.31
693.956	3935.17
694.146	3783.62
694.335	3904.45
694.524	3916.74
694.713	3834.82
694.902	3795.91
695.092	3859.4
695.281	3765.19
695.47	3851.21
695.659	3816.39
695.848	3896.26
696.037	3765.19
696.226	3816.39
696.415	3738.57
696.604	3851.21
696.793	3832.77
696.982	3924.93
697.171	3800.01
697.36	3793.86
697.549	3570.63
697.738	3636.17
697.927	3754.95
698.116	3675.08
698.305	3597.26
698.494	3724.23
698.683	3765.19
698.872	3654.6
699.061	3720.14
699.25	3707.85
699.438	3707.85
699.627	3740.61
699.816	3740.61
700.005	3570.63
700.193	3705.8
700.382	3644.36
700.571	3529.67
700.76	3623.88
700.948	3740.61
701.137	3576.78
701.326	3677.13
701.514	3482.57
701.703	3611.59
701.892	3597.26
702.08	3650.5
702.269	3617.74
702.457	3595.21
702.646	3591.11
702.834	3515.34
703.023	3419.08
703.212	3587.02
703.4	3468.24
703.589	3445.71
703.777	3488.71
703.965	3486.67
704.154	3378.12
704.342	3433.42
704.531	3449.8
704.719	3318.73
704.907	3429.32
705.096	3341.26
705.284	3367.88
705.472	3515.34
705.661	3414.99
705.849	3445.71
706.037	3404.75
706.226	3150.8
706.414	3408.84
706.602	3365.84
706.79	3351.5
706.979	3363.79
707.167	3288.01
707.355	3273.68
707.543	3283.92
707.731	3339.21
707.919	3316.69
708.107	3216.33
708.296	3158.99
708.484	3322.83
708.672	3242.96
708.86	3175.38
709.048	3175.38
709.236	3163.09
709.424	3232.72
709.612	3144.66
709.8	3093.46
709.988	3158.99
710.176	3077.07
710.364	3142.61
710.551	3126.22
710.739	3150.8
710.927	3161.04
711.115	3089.36
711.303	3175.38
711.491	3060.69
711.679	3007.44
711.866	3042.26
712.054	3099.6
712.242	3005.39
712.43	3052.5
712.617	2917.33
712.805	2980.82
712.993	3007.44
713.181	2841.56
713.368	2950.1
713.556	2925.52
713.744	2819.03
713.931	2997.2
714.119	2874.32
714.306	2896.85
714.494	3019.73
714.682	2993.11
714.869	2921.43
715.057	2837.46
715.244	2855.89
715.432	2827.22
715.619	2790.36
715.807	2849.75
715.994	2796.5
716.182	2759.64
716.369	2716.63
716.556	2870.23
716.744	2839.51
716.931	2784.21
717.119	2810.84
717.306	2757.59
717.493	2726.87
717.681	2763.73
717.868	2794.45
718.055	2714.58
718.242	2667.48
718.43	2831.32
718.617	2698.2
718.804	2679.77
718.991	2667.48
719.179	2700.25
719.366	2567.13
719.553	2757.59
719.74	2702.29
719.927	2573.27
720.114	2616.28
720.301	2597.85
720.488	2548.7
720.676	2528.22
720.863	2579.42
721.05	2575.32
721.237	2563.03
721.424	2560.98
721.611	2489.31
721.798	2411.48
721.985	2595.8
722.172	2397.15
722.358	2472.92
722.545	2593.75
722.732	2544.6
722.919	2479.07
723.106	2339.8
723.293	2454.49
723.48	2413.53
723.667	2368.48
723.853	2507.74
724.04	2464.73
724.227	2446.3
724.414	2427.87
724.6	2356.19
724.787	2380.76
724.974	2415.58
725.161	2405.34
725.347	2249.69
725.534	2272.22
725.72	2454.49
725.907	2401.24
726.094	2315.23
726.28	2298.84
726.467	2311.13
726.653	2323.42
726.84	2415.58
727.027	2319.32
727.213	2331.61
727.4	2331.61
727.586	2358.24
727.773	2276.32
727.959	2208.73
728.145	2208.73
728.332	2233.31
728.518	2253.79
728.705	2253.79
728.891	2208.73
729.077	2298.84
729.264	2247.65
729.45	2245.6
729.636	2257.89
729.823	2073.57
730.009	2208.73
730.195	2335.71
730.382	2135.01
730.568	2048.99
730.754	2192.35
730.94	2175.97
731.126	2171.87
731.313	2079.71
731.499	2092
731.685	2067.42
731.871	2055.14
732.057	2014.18
732.243	2118.62
732.429	2114.53
732.615	2112.48
732.801	2040.8
732.987	2071.52
733.173	2016.23
733.359	2053.09
733.545	2014.18
733.731	1965.03
733.917	2118.62
734.103	2012.13
734.289	2048.99
734.475	2020.32
734.661	2034.66
734.847	1926.11
735.033	2030.56
735.219	1971.17
735.404	1962.98
735.59	2012.13
735.776	1805.28
735.962	1950.69
736.148	1946.59
736.333	2057.18
736.519	1864.68
736.705	1901.54
736.89	1905.63
737.076	1848.29
737.262	1958.88
737.447	1903.59
737.633	1864.68
737.819	1897.44
738.004	1827.81
738.19	1809.38
738.375	1889.25
738.561	1940.45
738.747	1780.71
738.932	1749.99
739.118	1854.44
739.303	1797.09
739.489	1811.43
739.674	1940.45
739.859	1752.04
740.045	1766.37
740.23	1694.69
740.416	1721.32
740.601	1733.61
740.786	1760.23
740.972	1833.96
741.157	1741.8
741.342	1637.35
741.528	1717.22
741.713	1729.51
741.898	1743.85
742.084	1700.84
742.269	1645.54
742.454	1778.66
742.639	1715.17
742.824	1680.36
743.01	1610.73
743.195	1694.69
743.38	1723.37
743.565	1635.3
743.75	1661.93
743.935	1537
744.12	1745.89
744.305	1561.58
744.49	1422.31
744.675	1584.1
744.86	1514.47
745.045	1590.25
745.23	1530.86
745.415	1471.47
745.6	1514.47
745.785	1530.86
745.97	1594.34
746.155	1448.94
746.34	1500.14
746.525	1389.55
746.71	1475.56
746.895	1438.7
747.079	1493.99
747.264	1457.13
747.449	1547.24
747.634	1426.41
747.819	1448.94
748.003	1432.55
748.188	1293.29
748.373	1356.78
748.557	1375.21
748.742	1364.97
748.927	1463.27
749.111	1422.31
749.296	1401.83
749.481	1358.83
749.665	1311.72
749.85	1367.02
750.034	1360.88
750.219	1309.68
750.404	1332.2
750.588	1238
750.773	1266.67
750.957	1301.48
751.141	1164.27
751.326	1252.33
751.51	1180.65
751.695	1250.28
751.879	1197.04
752.064	1295.34
752.248	1260.52
752.432	1289.2
752.617	1276.91
752.801	1244.14
752.985	1166.32
753.17	1225.71
753.354	1096.69
753.538	1268.72
753.722	1203.18
753.907	1229.81
754.091	1217.52
754.275	1180.65
754.459	1119.21
754.643	1111.02
754.828	1184.75
755.012	1119.21
755.196	1096.69
755.38	1027.06
755.564	979.95
755.748	1094.64
755.932	996.34
756.116	1102.83
756.3	1096.69
756.484	1004.53
756.668	1008.62
756.852	947.19
757.036	1070.06
757.22	1061.87
757.404	930.8
757.588	990.19
757.772	1002.48
757.956	889.84
758.14	1043.44
758.323	1004.53
758.507	988.14
758.691	967.67
758.875	893.94
759.059	990.19
759.242	902.13
759.426	889.84
759.61	916.47
759.794	828.4
759.977	869.36
760.161	926.71
760.345	979.95
760.528	895.99
760.712	898.03
760.895	863.22
761.079	898.03
761.263	801.78
761.446	818.16
761.63	871.41
761.813	875.51
761.997	889.84
762.18	766.96
762.364	873.46
762.547	801.78
762.731	848.88
762.914	873.46
763.098	783.35
763.281	773.11
763.464	816.12
763.648	791.54
763.831	717.81
764.015	889.84
764.198	859.12
764.381	748.53
764.564	850.93
764.748	785.4
764.931	723.96
765.114	838.64
765.297	850.93
765.481	828.4
765.664	857.07
765.847	783.35
766.03	793.59
766.213	752.63
766.397	809.97
766.58	816.12
766.763	674.81
766.946	775.16
767.129	726
767.312	775.16
767.495	781.3
767.678	637.94
767.861	801.78
768.044	689.14
768.227	742.39
768.41	773.11
768.593	734.2
768.776	668.66
768.959	742.39
769.142	728.05
769.324	689.14
769.507	711.67
769.69	660.47
769.873	691.19
770.056	805.88
770.239	717.81
770.421	799.73
770.604	701.43
770.787	713.72
770.97	697.33
771.152	627.7
771.335	754.68
771.518	717.81
771.7	730.1
771.883	848.88
772.066	652.28
772.248	783.35
772.431	689.14
772.613	711.67
772.796	685.05
772.978	746.48
773.161	678.9
773.343	680.95
773.526	646.13
773.708	578.55
773.891	553.98
774.073	680.95
774.256	642.04
774.438	703.48
774.621	588.79
774.803	582.65
774.985	654.33
775.168	644.09
775.35	611.32
775.532	695.29
775.715	498.68
775.897	644.09
776.079	635.89
776.261	517.11
776.444	570.36
776.626	535.54
776.808	455.67
776.99	551.93
777.173	513.02
777.355	582.65
777.537	586.74
777.719	541.69
777.901	472.06
778.083	429.05
778.265	472.06
778.447	576.5
778.629	541.69
778.811	484.34
778.993	539.64
779.175	601.08
779.357	517.11
779.539	484.34
779.721	549.88
779.903	578.55
780.085	472.06
780.267	515.06
780.449	500.73
780.631	496.63
780.812	496.63
780.994	508.92
781.176	504.82
781.358	515.06
781.54	455.67
781.721	461.82
781.903	474.1
782.085	394.23
782.267	480.25
782.448	496.63
782.63	449.53
782.812	427
782.993	519.16
783.175	488.44
783.357	381.95
783.538	357.37
783.72	365.56
783.901	465.91
784.083	463.86
784.264	408.57
784.446	357.37
784.627	396.28
784.809	433.15
784.99	361.47
785.172	461.82
785.353	398.33
785.535	453.63
785.716	398.33
785.897	357.37
786.079	365.56
786.26	357.37
786.441	418.81
786.623	295.93
786.804	334.84
786.985	326.65
787.167	367.61
787.348	295.93
787.529	304.12
787.71	377.85
787.891	316.41
788.073	383.99
788.254	357.37
788.435	355.32
788.616	351.23
788.797	263.16
788.978	353.27
789.159	324.6
789.34	375.8
789.522	386.04
789.703	340.99
789.884	357.37
790.065	295.93
790.246	365.56
790.427	275.45
790.607	343.03
790.788	285.69
790.969	250.88
791.15	312.32
791.331	291.84
791.512	308.22
791.693	222.2
791.874	271.36
792.054	388.09
792.235	283.64
792.416	242.68
792.597	310.27
792.778	300.03
792.958	318.46
793.139	254.97
793.32	252.92
793.5	226.3
793.681	326.65
793.862	234.49
794.042	252.92
794.223	226.3
794.404	222.2
794.584	285.69
794.765	203.77
794.945	261.12
795.126	295.93
795.306	279.55
795.487	226.3
795.667	216.06
795.848	234.49
796.028	238.59
796.209	312.32
796.389	306.17
796.57	228.35
796.75	222.2
796.93	193.53
797.111	267.26
797.291	226.3
797.471	259.07
797.652	250.88
797.832	168.96
798.012	291.84
798.192	181.25
798.373	236.54
798.553	177.15
798.733	211.96
798.913	234.49
799.093	177.15
799.274	234.49
799.454	230.4
799.634	160.77
799.814	175.1
799.994	203.77
800.174	220.16
800.354	144.38
800.534	144.38
800.714	187.39
800.894	250.88
801.074	136.19
801.254	220.16
801.434	259.07
801.614	201.72
801.794	136.19
801.974	859.12
802.154	185.34
802.334	158.72
802.514	181.25
802.693	185.34
802.873	95.23
803.053	187.39
803.233	177.15
803.413	140.29
803.592	130.05
803.772	105.47
803.952	173.05
804.131	226.3
804.311	171.01
804.491	209.92
804.67	154.62
804.85	140.29
805.03	132.09
805.209	211.96
805.389	148.48
805.568	168.96
805.748	146.43
805.928	220.16
806.107	220.16
806.287	136.19
806.466	193.53
806.646	89.09
806.825	117.76
807.004	183.29
807.184	121.85
807.363	177.15
807.543	166.91
807.722	87.04
807.901	173.05
808.081	193.53
808.26	62.46
808.439	136.19
808.619	238.59
808.798	168.96
808.977	138.24
809.156	218.11
809.336	121.85
809.515	181.25
809.694	162.81
809.873	144.38
810.052	175.1
810.231	144.38
810.411	78.85
810.59	224.25
810.769	87.04
810.948	132.09
811.127	132.09
811.306	84.99
811.485	121.85
811.664	95.23
811.843	197.63
812.022	111.61
812.201	113.66
812.38	128
812.559	95.23
812.737	144.38
812.916	144.38
813.095	37.89
813.274	74.75
813.453	146.43
813.632	166.91
813.811	125.95
813.989	93.18
814.168	101.37
814.347	35.84
814.526	95.23
814.704	187.39
814.883	113.66
815.062	56.32
815.24	168.96
815.419	123.9
815.598	105.47
815.776	39.94
815.955	140.29
816.133	111.61
816.312	95.23
816.49	72.7
816.669	46.08
816.847	44.03
817.026	175.1
817.204	103.42
817.383	74.75
817.561	76.8
817.74	132.09
817.918	136.19
818.097	107.52
818.275	87.04
818.453	89.09
818.632	89.09
818.81	111.61
818.988	144.38
819.167	144.38
819.345	66.56
819.523	82.94
819.701	105.47
819.879	160.77
820.058	101.37
820.236	111.61
820.414	82.94
820.592	117.76
820.77	87.04
820.948	105.47
821.127	-11.26
821.305	97.28
821.483	132.09
821.661	128
821.839	107.52
822.017	15.36
822.195	99.33
822.373	123.9
822.551	54.27
822.729	162.81
822.907	-3.07
823.085	123.9
823.262	41.98
823.44	101.37
823.618	101.37
823.796	78.85
823.974	78.85
824.152	25.6
824.329	58.37
824.507	109.57
824.685	113.66
824.863	171.01
825.04	39.94
825.218	87.04
825.396	21.5
825.574	74.75
825.751	41.98
825.929	89.09
826.107	54.27
826.284	87.04
826.462	66.56
826.639	58.37
826.817	95.23
826.994	107.52
827.172	13.31
827.349	103.42
827.527	17.41
827.704	70.65
827.882	115.71
828.059	46.08
828.237	27.65
828.414	130.05
828.591	5.12
828.769	25.6
828.946	21.5
829.124	95.23
829.301	33.79
829.478	62.46
829.655	107.52
829.833	37.89
830.01	-84.99
830.187	87.04
830.364	-17.41
830.542	78.85
830.719	140.29
830.896	87.04
831.073	103.42
831.25	87.04
831.427	66.56
831.604	89.09
831.782	-17.41
831.959	21.5
832.136	58.37
832.313	-23.55
832.49	-1.02
832.667	39.94
832.844	-11.26
833.021	70.65
833.198	-7.17
833.374	13.31
833.551	50.18
833.728	103.42
833.905	123.9
834.082	-35.84
834.259	-15.36
834.436	68.61
834.612	50.18
834.789	62.46
834.966	111.61
835.143	70.65
835.319	41.98
835.496	87.04
835.673	111.61
835.85	121.85
836.026	74.75
836.203	17.41
836.38	-9.22
836.556	-25.6
836.733	-7.17
836.909	68.61
837.086	70.65
837.262	87.04
837.439	29.7
837.616	5.12
837.792	72.7
837.968	-9.22
838.145	33.79
838.321	29.7
838.498	52.22
838.674	19.46
838.851	39.94
839.027	-17.41
839.203	31.74
839.38	39.94
839.556	17.41
839.732	95.23
839.909	1.02
840.085	119.81
840.261	-21.5
840.437	-3.07
840.614	58.37
840.79	5.12
840.966	21.5
841.142	25.6
841.318	-68.61
841.494	46.08
841.671	95.23
841.847	56.32
842.023	5.12
842.199	103.42
842.375	48.13
842.551	25.6
842.727	-1.02
842.903	87.04
843.079	-60.42
843.255	109.57
843.431	54.27
843.607	37.89
843.783	-21.5
843.959	21.5
844.134	-15.36
844.31	70.65
844.486	48.13
844.662	23.55
844.838	-46.08
845.013	31.74
845.189	-23.55
845.365	-15.36
845.541	9.22
845.716	44.03
845.892	7.17
846.068	-9.22
846.244	5.12
846.419	-35.84
846.595	-31.74
846.77	21.5
846.946	87.04
847.122	21.5
847.297	35.84
847.473	72.7
847.648	13.31
847.824	27.65
847.999	-19.46
848.175	70.65
848.35	97.28
848.526	105.47
848.701	1.02
848.876	56.32
849.052	39.94
849.227	27.65
849.403	5.12
849.578	-13.31
849.753	1.02
849.929	23.55
850.104	-7.17
850.279	54.27
850.454	11.26
850.63	111.61
850.805	62.46
850.98	9.22
851.155	29.7
851.33	13.31
851.505	-21.5
851.681	111.61
851.856	-27.65
852.031	52.22
852.206	82.94
852.381	-19.46
852.556	-31.74
852.731	-1.02
852.906	17.41
853.081	48.13
853.256	-25.6
853.431	-41.98
853.606	15.36
853.781	11.26
853.956	-44.03
854.131	41.98
854.305	13.31
854.48	-66.56
854.655	29.7
854.83	-44.03
855.005	29.7
855.18	-9.22
855.354	3.07
855.529	37.89
855.704	9.22
855.879	33.79
856.053	-19.46
856.228	21.5
856.403	-35.84
856.577	-35.84
856.752	-27.65
856.926	82.94
857.101	97.28
857.276	-15.36
857.45	-31.74
857.625	105.47
857.799	-35.84
857.974	-7.17
858.148	5.12
858.323	-17.41
858.497	33.79
858.672	19.46
858.846	27.65
859.02	-33.79
859.195	-44.03
859.369	31.74
859.543	-27.65
859.718	-25.6
859.892	-56.32
860.066	-11.26
860.241	-3.07
860.415	-3.07
860.589	74.75
860.763	9.22
860.938	-31.74
861.112	41.98
861.286	-56.32
861.46	103.42
861.634	-25.6
861.808	-31.74
861.982	-9.22
862.157	-35.84
862.331	-31.74
862.505	13.31
862.679	78.85
862.853	11.26
863.027	-3.07
863.201	62.46
863.375	-21.5
863.549	37.89
863.722	29.7
863.896	117.76
864.07	21.5
864.244	37.89
864.418	52.22
864.592	-41.98
864.766	46.08
864.939	46.08
865.113	62.46
865.287	62.46
865.461	1.02
865.634	-3.07
865.808	-74.75
865.982	-123.9
866.156	-80.89
866.329	-15.36
866.503	39.94
866.676	23.55
866.85	29.7
867.024	-23.55
867.197	62.46
867.371	48.13
867.544	15.36
867.718	-27.65
867.891	-9.22
868.065	-11.26
868.238	17.41
868.412	-3.07
868.585	-27.65
868.759	11.26
868.932	-19.46
869.105	44.03
869.279	-1.02
869.452	50.18
869.625	58.37
869.799	21.5
869.972	-1.02
870.145	-35.84
870.319	-7.17
870.492	-39.94
870.665	33.79
870.838	54.27
871.011	5.12
871.185	-23.55
871.358	-84.99
871.531	-3.07
871.704	-29.7
871.877	21.5
872.05	-58.37
872.223	-99.33
872.396	5.12
872.569	-33.79
872.742	-27.65
872.915	-9.22
873.088	-5.12
873.261	17.41
873.434	-9.22
873.607	7.17
873.78	9.22
873.953	-52.22
874.126	-39.94
874.299	15.36
874.471	19.46
874.644	39.94
874.817	-11.26
874.99	70.65
875.163	-19.46
875.335	35.84
875.508	-80.89
875.681	78.85
875.853	64.51
876.026	13.31
876.199	37.89
876.371	-17.41
876.544	-76.8
876.717	-35.84
876.889	-11.26
877.062	5.12
877.234	-9.22
877.407	39.94
877.579	-44.03
877.752	-39.94
877.924	-35.84
878.097	54.27
878.269	1.02
878.442	5.12
878.614	5.12
878.786	23.55
878.959	17.41
879.131	3.07
879.303	-31.74
879.476	17.41
879.648	23.55
879.82	31.74
879.993	37.89
880.165	7.17
880.337	9.22
880.509	7.17
880.681	-68.61
880.854	23.55
881.026	-31.74
881.198	138.24
881.37	62.46
881.542	68.61
881.714	-74.75
881.886	-41.98
882.058	1.02
882.23	41.98
882.402	21.5
882.574	17.41
882.746	-27.65
882.918	87.04
883.09	-1.02
883.262	5.12
883.434	-23.55
883.606	-35.84
883.778	-68.61
883.95	54.27
884.122	-80.89
884.293	-19.46
884.465	35.84
884.637	41.98
884.809	-17.41
884.98	-33.79
885.152	-29.7
885.324	-27.65
885.496	-27.65
885.667	17.41
885.839	1.02
886.011	113.66
886.182	17.41
886.354	21.5
886.525	-33.79
886.697	21.5
886.869	-60.42
887.04	-50.18
887.212	-9.22
887.383	64.51
887.555	-33.79
887.726	13.31
887.897	37.89
888.069	-68.61
888.24	-27.65
888.412	15.36
888.583	37.89
888.754	-35.84
888.926	-56.32
889.097	-29.7
889.268	-27.65
889.44	21.5
889.611	-56.32
889.782	-9.22
889.953	-33.79
890.125	19.46
890.296	-48.13
890.467	-9.22
890.638	29.7
890.809	17.41
890.98	11.26
891.151	9.22
891.323	3.07
891.494	37.89
891.665	-41.98
891.836	-3.07
892.007	-39.94
892.178	-35.84
892.349	-9.22
892.52	-11.26
892.691	-52.22
892.862	-60.42
893.032	62.46
893.203	-1.02
893.374	17.41
893.545	-9.22
893.716	-25.6
893.887	37.89
894.057	-23.55
894.228	50.18
894.399	-60.42
894.57	3.07
894.74	-21.5
894.911	21.5
895.082	-9.22
895.253	-19.46
895.423	-23.55
895.594	64.51
895.764	-68.61
895.935	-35.84
896.106	1.02
896.276	-35.84
896.447	-15.36
896.617	-7.17
896.788	15.36
896.958	-19.46
897.129	-23.55
897.299	11.26
897.47	54.27
897.64	50.18
897.81	-3.07
897.981	-15.36
898.151	-76.8
898.322	84.99
898.492	7.17
898.662	-21.5
898.832	-27.65
899.003	-17.41
899.173	33.79
899.343	-54.27
899.513	-44.03
