Data from USB4F104151__183__14-32-51-708.txt Node

Date: Thu Mar 13 14:32:51 EDT 2025
User: louis
Spectrometer: USB4F10415
Trigger mode: 4
Integration Time (sec): 2.500000E-2
Scans to average: 1
Electric dark correction enabled: true
Nonlinearity correction enabled: false
Boxcar width: 0
XAxis mode: Wavelengths
Number of Pixels in Spectrum: 3648
>>>>>Begin Spectral Data<<<<<
178.204	-146.09
178.424	-146.09
178.644	-146.09
178.864	-150.18
179.084	-139.94
179.304	-25.26
179.524	-27.31
179.744	17.75
179.964	9.56
180.184	-29.35
180.404	5.46
180.624	44.37
180.844	5.46
181.064	-62.12
181.283	27.99
181.503	-33.45
181.723	66.9
181.943	-23.21
182.163	38.23
182.383	60.76
182.602	54.61
182.822	81.24
183.042	46.42
183.262	79.19
183.482	17.75
183.701	-19.11
183.921	38.23
184.141	-53.93
184.361	66.9
184.58	81.24
184.8	-39.59
185.02	66.9
185.239	7.51
185.459	-45.74
185.679	21.85
185.898	-35.5
186.118	75.09
186.338	-10.92
186.557	87.38
186.777	-19.11
186.997	64.85
187.216	56.66
187.436	25.94
187.655	62.8
187.875	13.65
188.095	-23.21
188.314	32.08
188.534	73.04
188.753	-17.07
188.973	89.43
189.192	17.75
189.412	58.71
189.631	38.23
189.851	7.51
190.07	122.2
190.29	-19.11
190.509	54.61
190.729	32.08
190.948	75.09
191.168	62.8
191.387	38.23
191.607	-27.31
191.826	-66.22
192.045	79.19
192.265	13.65
192.484	-8.87
192.704	71
192.923	9.56
193.142	95.57
193.362	79.19
193.581	152.92
193.8	27.99
194.02	46.42
194.239	-21.16
194.458	68.95
194.678	-0.68
194.897	-27.31
195.116	-53.93
195.335	83.28
195.555	19.8
195.774	15.7
195.993	17.75
196.212	5.46
196.432	64.85
196.651	-25.26
196.87	-39.59
197.089	38.23
197.308	38.23
197.528	-23.21
197.747	25.94
197.966	79.19
198.185	64.85
198.404	81.24
198.623	32.08
198.842	48.47
199.062	93.52
199.281	21.85
199.5	81.24
199.719	1.37
199.938	103.76
200.157	116.05
200.376	54.61
200.595	15.7
200.814	-8.87
201.033	38.23
201.252	64.85
201.471	-27.31
201.69	21.85
201.909	-8.87
202.128	58.71
202.347	38.23
202.566	-10.92
202.785	-19.11
203.004	13.65
203.223	97.62
203.442	-25.26
203.661	-35.5
203.879	62.8
204.098	81.24
204.317	-2.73
204.536	-12.97
204.755	27.99
204.974	11.61
205.193	-68.27
205.411	75.09
205.63	40.28
205.849	13.65
206.068	54.61
206.287	44.37
206.505	30.04
206.724	32.08
206.943	-25.26
207.162	36.18
207.381	-2.73
207.599	66.9
207.818	56.66
208.037	-25.26
208.255	17.75
208.474	-2.73
208.693	-17.07
208.911	79.19
209.13	118.1
209.349	99.67
209.567	38.23
209.786	126.29
210.005	-15.02
210.223	54.61
210.442	-6.83
210.661	5.46
210.879	46.42
211.098	1.37
211.316	34.13
211.535	81.24
211.753	-68.27
211.972	21.85
212.191	1.37
212.409	-43.69
212.628	87.38
212.846	15.7
213.065	-19.11
213.283	64.85
213.502	34.13
213.72	30.04
213.938	87.38
214.157	-31.4
214.375	56.66
214.594	7.51
214.812	38.23
215.031	34.13
215.249	5.46
215.467	30.04
215.686	79.19
215.904	21.85
216.122	-82.6
216.341	1.37
216.559	-21.16
216.778	-15.02
216.996	62.8
217.214	38.23
217.432	-0.68
217.651	38.23
217.869	30.04
218.087	58.71
218.306	13.65
218.524	25.94
218.742	-62.12
218.96	27.99
219.179	-8.87
219.397	64.85
219.615	128.34
219.833	17.75
220.051	-27.31
220.27	64.85
220.488	95.57
220.706	71
220.924	-64.17
221.142	-0.68
221.36	71
221.578	-10.92
221.796	116.05
222.015	-6.83
222.233	13.65
222.451	21.85
222.669	-41.64
222.887	-8.87
223.105	-82.6
223.323	32.08
223.541	38.23
223.759	68.95
223.977	118.1
224.195	38.23
224.413	50.52
224.631	81.24
224.849	30.04
225.067	93.52
225.285	19.8
225.503	17.75
225.721	-37.55
225.939	38.23
226.157	-47.79
226.375	120.15
226.592	44.37
226.81	58.71
227.028	5.46
227.246	116.05
227.464	46.42
227.682	91.48
227.9	-0.68
228.117	71
228.335	-0.68
228.553	46.42
228.771	79.19
228.989	13.65
229.206	21.85
229.424	15.7
229.642	-35.5
229.86	87.38
230.077	85.33
230.295	120.15
230.513	77.14
230.731	54.61
230.948	54.61
231.166	91.48
231.384	34.13
231.601	13.65
231.819	95.57
232.037	-103.08
232.254	-92.84
232.472	9.56
232.689	-0.68
232.907	7.51
233.125	-15.02
233.342	25.94
233.56	-10.92
233.777	1.37
233.995	17.75
234.213	38.23
234.43	79.19
234.648	48.47
234.865	15.7
235.083	-0.68
235.3	-33.45
235.518	109.91
235.735	73.04
235.953	23.89
236.17	13.65
236.388	-2.73
236.605	38.23
236.822	-0.68
237.04	38.23
237.257	5.46
237.475	36.18
237.692	23.89
237.909	-21.16
238.127	5.46
238.344	11.61
238.562	-2.73
238.779	3.41
238.996	52.56
239.214	-45.74
239.431	71
239.648	-8.87
239.865	128.34
240.083	83.28
240.3	-2.73
240.517	21.85
240.735	83.28
240.952	81.24
241.169	30.04
241.386	60.76
241.603	56.66
241.821	-15.02
242.038	23.89
242.255	75.09
242.472	-43.69
242.689	40.28
242.907	95.57
243.124	54.61
243.341	-33.45
243.558	9.56
243.775	32.08
243.992	-0.68
244.209	71
244.426	103.76
244.643	-51.88
244.86	58.71
245.078	75.09
245.295	25.94
245.512	60.76
245.729	9.56
245.946	105.81
246.163	30.04
246.38	62.8
246.597	-15.02
246.814	32.08
247.031	118.1
247.248	58.71
247.464	75.09
247.681	75.09
247.898	105.81
248.115	130.39
248.332	-33.45
248.549	27.99
248.766	130.39
248.983	103.76
249.2	23.89
249.417	36.18
249.633	34.13
249.85	101.72
250.067	42.32
250.284	5.46
250.501	62.8
250.717	15.7
250.934	15.7
251.151	42.32
251.368	13.65
251.585	-27.31
251.801	42.32
252.018	-19.11
252.235	109.91
252.451	-68.27
252.668	-41.64
252.885	105.81
253.102	25.94
253.318	19.8
253.535	-19.11
253.752	66.9
253.968	54.61
254.185	30.04
254.401	52.56
254.618	30.04
254.835	71
255.051	99.67
255.268	15.7
255.484	13.65
255.701	42.32
255.917	87.38
256.134	-6.83
256.351	-25.26
256.567	5.46
256.784	30.04
257	3.41
257.217	13.65
257.433	-2.73
257.65	66.9
257.866	-10.92
258.082	-43.69
258.299	-8.87
258.515	46.42
258.732	50.52
258.948	38.23
259.165	60.76
259.381	30.04
259.597	-60.07
259.814	-31.4
260.03	-12.97
260.246	71
260.463	99.67
260.679	54.61
260.895	-15.02
261.112	87.38
261.328	36.18
261.544	34.13
261.761	75.09
261.977	13.65
262.193	-33.45
262.409	71
262.626	-2.73
262.842	66.9
263.058	5.46
263.274	46.42
263.49	87.38
263.707	73.04
263.923	89.43
264.139	97.62
264.355	71
264.571	25.94
264.787	-39.59
265.004	103.76
265.22	9.56
265.436	21.85
265.652	89.43
265.868	105.81
266.084	-58.03
266.3	25.94
266.516	-25.26
266.732	36.18
266.948	32.08
267.164	-23.21
267.38	71
267.596	71
267.812	46.42
268.028	19.8
268.244	32.08
268.46	64.85
268.676	15.7
268.892	46.42
269.108	7.51
269.324	105.81
269.54	62.8
269.756	56.66
269.972	23.89
270.188	-35.5
270.403	-19.11
270.619	5.46
270.835	58.71
271.051	30.04
271.267	5.46
271.483	-8.87
271.698	52.56
271.914	54.61
272.13	-2.73
272.346	46.42
272.562	23.89
272.777	34.13
272.993	64.85
273.209	25.94
273.425	32.08
273.64	-55.98
273.856	30.04
274.072	-23.21
274.287	21.85
274.503	-15.02
274.719	66.9
274.934	-23.21
275.15	-25.26
275.366	58.71
275.581	1.37
275.797	75.09
276.012	9.56
276.228	66.9
276.444	21.85
276.659	161.11
276.875	-10.92
277.09	27.99
277.306	5.46
277.521	89.43
277.737	9.56
277.952	46.42
278.168	9.56
278.383	138.58
278.599	34.13
278.814	40.28
279.03	122.2
279.245	79.19
279.461	46.42
279.676	-60.07
279.892	44.37
280.107	46.42
280.322	-2.73
280.538	46.42
280.753	-33.45
280.969	-0.68
281.184	32.08
281.399	114
281.615	21.85
281.83	38.23
282.045	-2.73
282.26	38.23
282.476	19.8
282.691	32.08
282.906	1.37
283.122	62.8
283.337	103.76
283.552	5.46
283.767	-66.22
283.983	-27.31
284.198	13.65
284.413	15.7
284.628	46.42
284.843	62.8
285.058	71
285.274	44.37
285.489	-15.02
285.704	30.04
285.919	9.56
286.134	-2.73
286.349	-19.11
286.564	9.56
286.779	9.56
286.995	-39.59
287.21	-35.5
287.425	11.61
287.64	73.04
287.855	62.8
288.07	25.94
288.285	56.66
288.5	46.42
288.715	-2.73
288.93	-10.92
289.145	21.85
289.36	79.19
289.575	5.46
289.79	13.65
290.004	-33.45
290.219	66.9
290.434	7.51
290.649	79.19
290.864	-41.64
291.079	30.04
291.294	85.33
291.509	40.28
291.724	21.85
291.938	-8.87
292.153	17.75
292.368	13.65
292.583	21.85
292.798	81.24
293.012	46.42
293.227	23.89
293.442	9.56
293.657	-45.74
293.871	87.38
294.086	9.56
294.301	62.8
294.516	95.57
294.73	120.15
294.945	5.46
295.16	-31.4
295.374	79.19
295.589	1.37
295.804	9.56
296.018	95.57
296.233	144.72
296.447	46.42
296.662	50.52
296.877	50.52
297.091	87.38
297.306	75.09
297.52	54.61
297.735	62.8
297.949	34.13
298.164	91.48
298.378	-8.87
298.593	62.8
298.807	-17.07
299.022	23.89
299.236	116.05
299.451	-10.92
299.665	1.37
299.88	73.04
300.094	-45.74
300.309	-25.26
300.523	73.04
300.737	42.32
300.952	13.65
301.166	23.89
301.381	27.99
301.595	38.23
301.809	-6.83
302.024	83.28
302.238	-23.21
302.452	111.96
302.667	83.28
302.881	38.23
303.095	62.8
303.309	62.8
303.524	-35.5
303.738	64.85
303.952	30.04
304.166	81.24
304.381	-31.4
304.595	79.19
304.809	11.61
305.023	23.89
305.237	-2.73
305.452	7.51
305.666	73.04
305.88	62.8
306.094	-17.07
306.308	-2.73
306.522	-6.83
306.736	21.85
306.95	34.13
307.164	48.47
307.379	-29.35
307.593	38.23
307.807	46.42
308.021	5.46
308.235	-10.92
308.449	-25.26
308.663	30.04
308.877	77.14
309.091	58.71
309.305	-2.73
309.519	38.23
309.733	5.46
309.947	-31.4
310.161	-19.11
310.374	97.62
310.588	136.53
310.802	-2.73
311.016	71
311.23	75.09
311.444	-21.16
311.658	73.04
311.872	83.28
312.085	124.24
312.299	30.04
312.513	62.8
312.727	40.28
312.941	-2.73
313.154	25.94
313.368	38.23
313.582	38.23
313.796	-25.26
314.009	13.65
314.223	73.04
314.437	146.77
314.651	87.38
314.864	-23.21
315.078	-4.78
315.292	36.18
315.505	13.65
315.719	7.51
315.933	5.46
316.146	79.19
316.36	-27.31
316.573	23.89
316.787	71
317.001	21.85
317.214	9.56
317.428	68.95
317.641	17.75
317.855	-4.78
318.068	11.61
318.282	40.28
318.495	58.71
318.709	75.09
318.922	50.52
319.136	99.67
319.349	60.76
319.563	23.89
319.776	89.43
319.99	21.85
320.203	30.04
320.417	79.19
320.63	62.8
320.843	144.72
321.057	64.85
321.27	25.94
321.483	25.94
321.697	134.48
321.91	50.52
322.124	-43.69
322.337	34.13
322.55	13.65
322.763	83.28
322.977	-15.02
323.19	54.61
323.403	105.81
323.617	-33.45
323.83	103.76
324.043	30.04
324.256	44.37
324.469	32.08
324.683	83.28
324.896	-23.21
325.109	77.14
325.322	-35.5
325.535	79.19
325.748	13.65
325.962	-43.69
326.175	85.33
326.388	87.38
326.601	38.23
326.814	87.38
327.027	64.85
327.24	42.32
327.453	13.65
327.666	87.38
327.879	81.24
328.092	97.62
328.305	48.47
328.518	75.09
328.731	15.7
328.944	-6.83
329.157	81.24
329.37	-33.45
329.583	120.15
329.796	42.32
330.009	30.04
330.222	71
330.435	103.76
330.648	13.65
330.861	48.47
331.073	46.42
331.286	56.66
331.499	23.89
331.712	58.71
331.925	34.13
332.138	62.8
332.35	32.08
332.563	23.89
332.776	54.61
332.989	30.04
333.202	85.33
333.414	71
333.627	62.8
333.84	17.75
334.053	42.32
334.265	40.28
334.478	21.85
334.691	-45.74
334.903	85.33
335.116	-0.68
335.329	62.8
335.541	120.15
335.754	60.76
335.966	5.46
336.179	50.52
336.392	58.71
336.604	17.75
336.817	36.18
337.029	58.71
337.242	-2.73
337.454	79.19
337.667	23.89
337.88	91.48
338.092	54.61
338.305	34.13
338.517	-6.83
338.729	-19.11
338.942	114
339.154	30.04
339.367	-66.22
339.579	73.04
339.792	42.32
340.004	54.61
340.217	54.61
340.429	34.13
340.641	48.47
340.854	1.37
341.066	-6.83
341.278	60.76
341.491	134.48
341.703	3.41
341.915	54.61
342.128	54.61
342.34	68.95
342.552	-10.92
342.764	73.04
342.977	-35.5
343.189	54.61
343.401	7.51
343.613	75.09
343.826	1.37
344.038	3.41
344.25	71
344.462	46.42
344.674	111.96
344.886	77.14
345.099	103.76
345.311	66.9
345.523	17.75
345.735	-17.07
345.947	1.37
346.159	54.61
346.371	30.04
346.583	23.89
346.795	109.91
347.007	-2.73
347.219	46.42
347.431	60.76
347.643	71
347.855	71
348.067	120.15
348.279	-6.83
348.491	71
348.703	21.85
348.915	46.42
349.127	-2.73
349.339	15.7
349.551	-17.07
349.763	25.94
349.975	7.51
350.187	136.53
350.399	75.09
350.61	71
350.822	48.47
351.034	-8.87
351.246	17.75
351.458	79.19
351.669	58.71
351.881	138.58
352.093	9.56
352.305	75.09
352.517	-2.73
352.728	130.39
352.94	40.28
353.152	-45.74
353.363	-19.11
353.575	34.13
353.787	120.15
353.999	38.23
354.21	118.1
354.422	81.24
354.633	-10.92
354.845	48.47
355.057	62.8
355.268	9.56
355.48	136.53
355.692	-31.4
355.903	1.37
356.115	-62.12
356.326	-10.92
356.538	60.76
356.749	136.53
356.961	111.96
357.172	-2.73
357.384	66.9
357.595	124.24
357.807	73.04
358.018	79.19
358.23	85.33
358.441	17.75
358.653	-0.68
358.864	73.04
359.075	40.28
359.287	42.32
359.498	25.94
359.709	79.19
359.921	42.32
360.132	13.65
360.344	25.94
360.555	7.51
360.766	3.41
360.977	7.51
361.189	40.28
361.4	-37.55
361.611	46.42
361.823	50.52
362.034	64.85
362.245	5.46
362.456	40.28
362.667	56.66
362.879	38.23
363.09	58.71
363.301	-29.35
363.512	21.85
363.723	17.75
363.935	-19.11
364.146	38.23
364.357	60.76
364.568	66.9
364.779	11.61
364.99	34.13
365.201	-12.97
365.412	103.76
365.623	9.56
365.834	46.42
366.045	-17.07
366.256	46.42
366.467	91.48
366.678	38.23
366.889	107.86
367.1	50.52
367.311	25.94
367.522	25.94
367.733	107.86
367.944	103.76
368.155	30.04
368.366	79.19
368.577	46.42
368.788	54.61
368.999	11.61
369.209	87.38
369.42	169.3
369.631	111.96
369.842	42.32
370.053	46.42
370.264	83.28
370.474	19.8
370.685	46.42
370.896	-2.73
371.107	89.43
371.317	46.42
371.528	-15.02
371.739	79.19
371.95	-51.88
372.16	79.19
372.371	27.99
372.582	27.99
372.792	50.52
373.003	48.47
373.214	66.9
373.424	50.52
373.635	-10.92
373.846	87.38
374.056	62.8
374.267	32.08
374.477	34.13
374.688	-60.07
374.898	52.56
375.109	40.28
375.319	-41.64
375.53	46.42
375.74	17.75
375.951	58.71
376.161	64.85
376.372	83.28
376.582	15.7
376.793	-51.88
377.003	89.43
377.214	-10.92
377.424	-19.11
377.635	56.66
377.845	21.85
378.055	89.43
378.266	38.23
378.476	73.04
378.686	97.62
378.897	64.85
379.107	107.86
379.317	56.66
379.528	19.8
379.738	79.19
379.948	11.61
380.158	75.09
380.369	81.24
380.579	-39.59
380.789	32.08
380.999	-53.93
381.21	23.89
381.42	99.67
381.63	9.56
381.84	97.62
382.05	77.14
382.261	71
382.471	9.56
382.681	62.8
382.891	122.2
383.101	25.94
383.311	-0.68
383.521	-4.78
383.731	25.94
383.941	130.39
384.151	-31.4
384.361	73.04
384.571	-8.87
384.781	54.61
384.991	111.96
385.201	62.8
385.411	-10.92
385.621	75.09
385.831	83.28
386.041	54.61
386.251	71
386.461	101.72
386.671	-33.45
386.881	95.57
387.091	73.04
387.301	89.43
387.511	87.38
387.72	64.85
387.93	48.47
388.14	-27.31
388.35	-51.88
388.56	91.48
388.769	114
388.979	111.96
389.189	38.23
389.399	-10.92
389.609	62.8
389.818	30.04
390.028	50.52
390.238	114
390.447	-27.31
390.657	87.38
390.867	83.28
391.076	66.9
391.286	95.57
391.496	46.42
391.705	23.89
391.915	146.77
392.125	171.35
392.334	-10.92
392.544	120.15
392.753	73.04
392.963	21.85
393.172	89.43
393.382	66.9
393.591	107.86
393.801	146.77
394.01	83.28
394.22	64.85
394.429	21.85
394.639	50.52
394.848	46.42
395.058	54.61
395.267	95.57
395.477	32.08
395.686	140.63
395.895	146.77
396.105	120.15
396.314	130.39
396.524	56.66
396.733	91.48
396.942	132.44
397.152	161.11
397.361	165.2
397.57	46.42
397.78	58.71
397.989	103.76
398.198	161.11
398.407	40.28
398.617	73.04
398.826	87.38
399.035	66.9
399.244	146.77
399.453	42.32
399.663	142.68
399.872	136.53
400.081	122.2
400.29	62.8
400.499	136.53
400.708	138.58
400.917	99.67
401.127	79.19
401.336	118.1
401.545	193.87
401.754	134.48
401.963	197.97
402.172	95.57
402.381	60.76
402.59	118.1
402.799	111.96
403.008	66.9
403.217	144.72
403.426	122.2
403.635	111.96
403.844	148.82
404.053	169.3
404.262	89.43
404.471	157.01
404.68	122.2
404.888	152.92
405.097	179.54
405.306	193.87
405.515	238.93
405.724	144.72
405.933	193.87
406.142	202.07
406.35	214.35
406.559	138.58
406.768	206.16
406.977	286.03
407.185	234.83
407.394	273.75
407.603	148.82
407.812	152.92
408.02	214.35
408.229	259.41
408.438	183.63
408.646	214.35
408.855	281.94
409.064	202.07
409.272	226.64
409.481	290.13
409.69	308.56
409.898	294.22
410.107	224.59
410.315	374.1
410.524	337.23
410.733	345.42
410.941	290.13
411.15	386.38
411.358	488.78
411.567	296.27
411.775	390.48
411.984	398.67
412.192	458.06
412.401	478.54
412.609	513.36
412.818	509.26
413.026	488.78
413.234	435.53
413.443	527.69
413.651	472.4
413.86	546.12
414.068	566.6
414.276	693.58
414.485	556.36
414.693	724.3
414.901	806.22
415.11	671.05
415.318	613.71
415.526	691.53
415.734	838.98
415.943	818.5
416.151	808.27
416.359	816.46
416.567	845.13
416.776	898.38
416.984	931.14
417.192	955.72
417.4	972.1
417.608	886.09
417.817	1082.69
418.025	1195.33
418.233	1193.28
418.441	1068.36
418.649	1258.82
418.857	1250.63
419.065	1340.74
419.273	1236.29
419.481	1408.32
419.689	1471.81
419.897	1457.47
420.105	1504.57
420.313	1520.96
420.521	1676.6
420.729	1633.6
420.937	1783.1
421.145	1735.99
421.353	1856.83
421.561	1922.36
421.769	2004.28
421.977	2051.38
422.185	2084.15
422.393	2155.83
422.601	2321.71
422.809	2327.86
423.017	2176.31
423.224	2397.49
423.432	2497.84
423.64	2424.11
423.848	2700.59
424.056	2630.96
424.263	2815.27
424.471	2770.22
424.679	2987.3
424.887	2966.82
425.094	3155.24
425.302	3118.37
425.51	3228.96
425.718	3446.05
425.925	3437.86
426.133	3585.31
426.341	3810.59
426.548	3931.42
426.756	3802.4
426.964	3994.9
427.171	4132.12
427.379	4265.24
427.586	4420.88
427.794	4445.46
428.001	4594.96
428.209	4924.68
428.417	4719.89
428.624	5065.99
428.832	5076.23
429.039	4979.98
429.247	5029.13
429.454	5596.42
429.662	5911.8
429.869	5561.6
430.076	5989.63
430.284	5600.51
430.491	6092.02
430.699	6364.4
430.906	6431.99
431.114	6565.11
431.321	6718.7
431.528	6771.95
431.736	7331.05
431.943	7427.3
432.15	7195.88
432.358	7306.47
432.565	7662.82
432.772	7787.74
432.979	8144.09
433.187	8385.75
433.394	8398.04
433.601	8873.17
433.808	8971.47
434.016	9008.33
434.223	9184.46
434.43	9641.15
434.637	9522.37
434.844	10341.56
435.052	10427.57
435.259	10362.04
435.466	10437.81
435.673	10384.57
435.88	11107.5
436.087	11402.41
436.294	11455.65
436.501	11252.91
436.708	11508.9
436.915	11869.34
437.122	12313.75
437.329	12311.71
437.537	12899.47
437.743	12862.61
437.95	12829.84
438.157	13649.03
438.364	13728.9
438.571	13937.79
438.778	14109.82
438.985	15354.99
439.192	14554.23
439.399	15213.68
439.606	14943.35
439.813	15742.05
440.02	16763.99
440.227	16184.41
440.433	16082.02
440.64	16661.59
440.847	16524.38
441.054	17079.38
441.261	18031.68
441.467	17661
441.674	18295.87
441.881	19004.47
442.088	18730.04
442.294	18381.88
442.501	19213.36
442.708	19455.02
442.914	20388.89
443.121	21148.69
443.328	20356.13
443.534	21941.25
443.741	21189.65
443.948	20993.04
444.154	22379.52
444.361	22199.3
444.568	22533.12
444.774	22721.53
444.981	22916.09
445.187	23770.09
445.394	24175.59
445.6	24568.8
445.807	26375.11
446.013	25418.71
446.22	25981.9
446.426	26602.43
446.633	26659.77
446.839	28144.55
447.046	26676.16
447.252	28388.26
447.459	28470.18
447.665	28019.63
447.871	29305.75
448.078	30770.05
448.284	29373.33
448.491	30180.23
448.697	30989.18
448.903	31417.21
449.11	31902.57
449.316	31312.76
449.522	31945.58
449.728	32779.11
449.935	32719.71
450.141	32746.34
450.347	33194.84
450.553	32600.93
450.76	32840.54
450.966	34030.41
451.172	33526.61
451.378	34448.2
451.584	33885.01
451.791	34931.52
451.997	34239.31
452.203	35027.77
452.409	35156.8
452.615	34988.86
452.821	33506.13
453.027	33069.92
453.233	34757.44
453.44	33436.5
453.646	33915.73
453.852	33964.88
454.058	34581.32
454.264	33526.61
454.47	34337.61
454.676	33227.61
454.882	34657.09
455.088	31738.74
455.294	32072.56
455.5	32496.49
455.705	32594.79
455.911	31372.15
456.117	31179.64
456.323	30522.24
456.529	28593.06
456.735	29868.94
456.941	29117.34
457.147	28566.43
457.352	27753.39
457.558	27356.08
457.764	27687.85
457.97	27079.61
458.176	26741.69
458.381	26241.99
458.587	25549.78
458.793	25166.81
458.999	23784.43
459.204	25439.19
459.41	24955.86
459.616	23254
459.821	22776.83
460.027	23049.21
460.233	22703.1
460.438	21419.02
460.644	21896.2
460.85	20710.43
461.055	20231.2
461.261	20317.22
461.466	18965.56
461.672	17955.91
461.878	19637.29
462.083	18263.1
462.289	17867.84
462.494	17697.86
462.7	16847.96
462.905	16577.62
463.111	17042.51
463.316	16942.16
463.522	16702.55
463.727	16495.71
463.932	16682.07
464.138	16415.83
464.343	16493.66
464.549	16401.5
464.754	16598.1
464.959	16462.94
465.165	16452.7
465.37	15711.33
465.575	15176.81
465.781	15760.48
465.986	15901.79
466.191	15127.66
466.397	14836.85
466.602	14453.88
466.807	14752.88
467.012	14916.72
467.218	14775.41
467.423	14709.88
467.628	14695.54
467.833	14988.4
468.038	14636.15
468.244	14075.01
468.449	14888.05
468.654	14441.59
468.859	14034.05
469.064	14144.64
469.269	13587.59
469.474	13696.13
469.679	13988.99
469.885	13415.56
470.09	13679.75
470.295	13526.15
470.5	13132.94
470.705	13491.34
470.91	12862.61
471.115	12960.91
471.32	13083.79
471.525	13145.23
471.73	12764.31
471.935	12856.47
472.139	12270.75
472.344	12299.42
472.549	12305.56
472.754	12229.79
472.959	11941.02
473.164	11605.16
473.369	11463.85
473.574	12000.41
473.778	11885.73
473.983	11467.94
474.188	11812
474.393	11162.8
474.598	11154.6
474.802	11107.5
475.007	10759.35
475.212	10894.51
475.417	10562.74
475.621	10794.16
475.826	10626.23
476.031	10216.63
476.235	10149.05
476.44	10294.46
476.645	10198.2
476.849	10431.67
477.054	10077.37
477.259	9876.67
477.463	9821.38
477.668	9657.54
477.872	9985.21
478.077	9721.02
478.282	9362.63
478.486	9217.22
478.691	9336.01
478.895	9417.93
479.1	9311.43
479.304	9114.83
479.509	8828.11
479.713	9018.57
479.918	8912.08
480.122	8781.01
480.326	8936.65
480.531	8852.69
480.735	8647.89
480.94	8621.27
481.144	9125.07
481.348	8457.43
481.553	8688.85
481.757	8647.89
481.961	8617.17
482.166	8813.77
482.37	8565.97
482.574	8494.29
482.778	8543.44
482.983	8697.04
483.187	8559.83
483.391	8692.94
483.595	8498.39
483.8	8205.53
484.004	8635.6
484.208	8721.62
484.412	8541.4
484.616	8613.07
484.821	8647.89
485.025	8424.66
485.229	8484.05
485.433	8404.18
485.637	8559.83
485.841	8479.96
486.045	8502.48
486.249	8600.79
486.453	8586.45
486.657	8459.48
486.861	8707.28
487.065	8428.76
487.269	8385.75
487.473	8326.36
487.677	8463.57
487.881	8500.44
488.085	8545.49
488.289	8441.04
488.493	8447.19
488.697	8418.52
488.901	8400.09
489.105	8537.3
489.309	8465.62
489.512	8639.7
489.716	8381.65
489.92	8795.34
490.124	8477.91
490.328	8959.18
490.531	8336.6
490.735	8770.77
490.939	8756.43
491.143	8705.23
491.346	8494.29
491.55	8854.73
491.754	8758.48
491.958	8647.89
492.161	8801.49
492.365	8776.91
492.569	8719.57
492.772	8697.04
492.976	8910.03
493.18	8735.95
493.383	8860.88
493.587	9004.24
493.79	9077.96
493.994	8944.84
494.197	9217.22
494.401	9200.84
494.605	9206.98
494.808	9272.52
495.012	9327.82
495.215	9467.08
495.419	9585.86
495.622	9561.28
495.825	9469.12
496.029	9690.31
496.232	9790.66
496.436	9768.13
496.639	10073.28
496.843	10138.81
497.046	10228.92
497.249	10198.2
497.453	10257.59
497.656	10282.17
497.859	10437.81
498.063	10534.07
498.266	10871.98
498.469	10726.58
498.673	10810.54
498.876	10931.37
499.079	11041.96
499.282	10990.77
499.485	11222.19
499.689	11240.62
499.892	11523.24
500.095	11617.44
500.298	11842.72
500.501	11441.32
500.705	11807.91
500.908	12080.28
501.111	12031.13
501.314	12364.95
501.517	12274.84
501.72	12477.59
501.923	12399.77
502.126	12715.16
502.329	12932.24
502.532	13014.16
502.735	13020.3
502.938	13456.52
503.141	13337.74
503.344	13358.22
503.547	13513.86
503.75	13773.96
503.953	13909.12
504.156	14161.02
504.359	14001.28
504.562	14251.13
504.765	14650.49
504.968	14630.01
505.17	14890.1
505.373	14849.14
505.576	15058.03
505.779	15207.53
505.982	15389.8
506.185	15907.94
506.387	15516.78
506.59	15965.28
506.793	16131.17
506.996	15985.76
507.198	16510.04
507.401	16581.72
507.604	16454.75
507.807	17099.86
508.009	17130.58
508.212	16950.35
508.415	17290.32
508.617	17425.48
508.82	17773.64
509.022	17488.97
509.225	17886.28
509.428	18089.03
509.63	18269.25
509.833	18134.08
510.035	18793.53
510.238	18727.99
510.44	19070
510.643	19309.61
510.845	19354.67
511.048	19213.36
511.25	19444.78
511.453	19778.6
511.655	20151.33
511.858	20194.34
512.06	20362.27
512.262	20493.34
512.465	20608.03
512.667	20890.65
512.87	20974.61
513.072	21386.25
513.274	21640.2
513.477	21488.65
513.679	21758.99
513.881	22115.33
514.084	22041.6
514.286	22168.58
514.488	22277.12
514.69	23180.28
514.893	22877.18
515.095	22938.62
515.297	23364.59
515.499	23299.06
515.701	23950.31
515.904	24372.19
516.106	23993.32
516.308	24130.53
516.51	24576.99
516.712	24624.09
516.914	24634.33
517.116	25183.19
517.318	25656.27
517.52	25480.14
517.722	25555.92
517.925	25777.1
518.127	25693.13
518.329	26221.51
518.531	26049.48
518.733	26745.79
518.935	26727.36
519.136	26483.65
519.338	27388.85
519.54	27098.04
519.742	27351.99
519.944	27231.16
520.146	27820.97
520.348	27900.84
520.55	27859.88
520.752	28144.55
520.954	28644.26
521.155	28224.42
521.357	28996.51
521.559	28900.25
521.761	29262.74
521.963	29383.57
522.164	29215.64
522.366	29541.27
522.568	29707.15
522.77	29819.79
522.971	29823.89
523.173	29950.86
523.375	30249.86
523.576	30354.31
523.778	30348.17
523.98	30456.71
524.181	30753.66
524.383	30651.27
524.584	30839.68
524.786	30518.15
524.988	30917.5
525.189	31304.57
525.391	31107.96
525.592	30921.6
525.794	31304.57
525.995	31488.88
526.197	31419.25
526.398	31675.25
526.6	31443.83
526.801	31597.43
527.003	31611.76
527.204	31744.88
527.406	31576.95
527.607	32117.61
527.808	32123.76
528.01	31363.96
528.211	31945.58
528.412	32285.54
528.614	31961.97
528.815	32111.47
529.016	32148.33
529.218	32144.23
529.419	32379.75
529.62	31921.01
529.822	32301.93
530.023	31984.49
530.224	31921.01
530.425	32342.89
530.626	31695.73
530.828	31644.53
531.029	32519.01
531.23	31830.9
531.431	32115.56
531.632	32306.02
531.833	32144.23
532.035	32076.65
532.236	32023.4
532.437	32562.02
532.638	31728.5
532.839	31988.59
533.04	32019.31
533.241	31335.29
533.442	32267.11
533.643	32021.36
533.844	31847.28
534.045	32322.41
534.246	31501.17
534.447	31961.97
534.648	31648.63
534.849	31855.47
535.05	31574.9
535.251	31837.04
535.451	31550.32
535.652	31931.25
535.853	31726.45
536.054	31961.97
536.255	31916.91
536.456	31685.49
536.657	31925.1
536.857	31701.87
537.058	31335.29
537.259	31474.55
537.46	31488.88
537.66	31034.24
537.861	31353.72
538.062	31226.74
538.263	31294.33
538.463	31472.5
538.664	31187.83
538.865	31085.43
539.065	31400.82
539.266	30851.97
539.466	31333.24
539.667	30737.28
539.868	31593.33
540.068	31155.07
540.269	31064.96
540.469	31419.25
540.67	31087.48
540.87	31048.57
541.071	30960.51
541.271	31296.38
541.472	31028.09
541.672	30757.76
541.873	30825.34
542.073	30563.2
542.274	31390.58
542.474	30786.43
542.675	30585.73
542.875	31171.45
543.075	30958.46
543.276	30708.61
543.476	31335.29
543.676	30995.32
543.877	31036.28
544.077	30724.99
544.277	30651.27
544.478	31054.72
544.678	31261.56
544.878	30870.4
545.078	30745.47
545.279	30528.39
545.479	30460.8
545.679	30864.25
545.879	30708.61
546.079	30606.21
546.28	30626.69
546.48	30788.48
546.68	30614.4
546.88	30780.29
547.08	30913.41
547.28	30659.46
547.48	30425.99
547.68	30952.32
547.88	30446.47
548.081	30753.66
548.281	30724.99
548.481	30688.13
548.681	30573.44
548.881	30864.25
549.081	30903.17
549.28	30733.18
549.48	30720.9
549.68	30862.21
549.88	31232.89
550.08	30561.15
550.28	30724.99
550.48	30714.75
550.68	30882.69
550.88	30540.68
551.08	30704.51
551.279	31056.76
551.479	30411.65
551.679	30768
551.879	30679.94
552.079	30724.99
552.278	30747.52
552.478	31011.71
552.678	30774.14
552.878	30929.79
553.077	30788.48
553.277	30198.66
553.477	31200.12
553.676	30737.28
553.876	30665.6
554.076	30923.65
554.275	30913.41
554.475	30393.22
554.674	30737.28
554.874	30704.51
555.074	30811.01
555.273	30897.02
555.473	30901.12
555.672	31007.61
555.872	30837.63
556.071	30942.08
556.271	31124.35
556.47	31036.28
556.67	30579.59
556.869	30856.06
557.068	31019.9
557.268	30796.67
557.467	31185.79
557.667	30829.44
557.866	30866.3
558.065	31030.14
558.265	30813.06
558.464	30552.96
558.663	31001.47
558.863	30825.34
559.062	30864.25
559.261	30970.75
559.461	31183.74
559.66	30811.01
559.859	30722.94
560.058	30622.59
560.258	31087.48
560.457	30559.11
560.656	31036.28
560.855	30913.41
561.054	30993.28
561.253	30829.44
561.453	31128.44
561.652	30905.21
561.851	30770.05
562.05	30749.57
562.249	30655.36
562.448	30983.04
562.647	30518.15
562.846	30972.8
563.045	30935.93
563.244	30399.37
563.443	30987.13
563.642	30663.55
563.841	30716.8
564.04	30335.88
564.239	30851.97
564.438	30591.87
564.637	30577.54
564.836	30528.39
565.035	29838.22
565.234	30577.54
565.432	30278.54
565.631	30417.8
565.83	30309.25
566.029	30303.11
566.228	30456.71
566.427	30325.64
566.625	30090.12
566.824	30094.22
567.023	30178.18
567.222	29811.6
567.42	30180.23
567.619	30000.01
567.818	29936.52
568.016	30004.11
568.215	30309.25
568.414	29666.19
568.612	30137.23
568.811	29750.16
569.01	29739.92
569.208	29524.88
569.407	29875.09
569.605	29520.79
569.804	29918.09
570.002	29248.41
570.201	29467.54
570.4	29461.4
570.598	29393.81
570.797	29268.89
570.995	29402
571.193	29137.82
571.392	29475.73
571.59	28994.46
571.789	29062.04
571.987	28922.78
572.186	28998.55
572.384	28523.43
572.582	28986.27
572.781	28679.07
572.979	28558.24
573.177	28636.06
573.376	28634.02
573.574	28201.9
573.772	28928.92
573.971	28281.77
574.169	28222.37
574.367	28136.36
574.565	28085.16
574.763	28048.3
574.962	28181.42
575.16	27745.2
575.358	27956.14
575.556	27556.78
575.754	28021.67
575.952	27728.81
576.151	27450.29
576.349	27208.63
576.547	27800.49
576.745	27319.22
576.943	27501.49
577.141	27317.17
577.339	27509.68
577.537	27431.86
577.735	27202.49
577.933	27034.55
578.131	26958.78
578.329	27149.24
578.527	26803.13
578.725	26930.11
578.923	26784.7
579.121	26694.59
579.319	26588.1
579.516	26883
579.714	26749.89
579.912	26616.77
580.11	26452.93
580.308	26336.2
580.506	26358.72
580.704	26004.42
580.901	26076.1
581.099	26624.96
581.297	25973.7
581.495	25973.7
581.692	25981.9
581.89	25807.82
582.088	26059.72
582.285	25793.48
582.483	25865.16
582.681	25562.06
582.878	25676.75
583.076	25447.38
583.274	25875.4
583.471	25492.43
583.669	25508.82
583.866	25258.96
584.064	25306.07
584.262	24843.23
584.459	25365.46
584.657	24910.81
584.854	25183.19
585.052	24689.63
585.249	25117.65
585.447	24861.66
585.644	24685.53
585.841	24972.25
586.039	24652.77
586.236	24517.6
586.434	24515.55
586.631	24636.38
586.828	24431.58
587.026	24691.68
587.223	24628.19
587.42	24329.19
587.618	24370.15
587.815	24134.63
588.012	23809
588.21	23886.82
588.407	24323.04
588.604	24099.81
588.801	23729.13
588.999	23886.82
589.196	23602.16
589.393	23847.91
589.59	23704.56
589.787	23827.43
589.984	23651.31
590.182	23405.55
590.379	23565.29
590.576	23245.81
590.773	23389.17
590.97	23309.3
591.167	23477.23
591.364	22866.94
591.561	23127.03
591.758	22813.69
591.955	22969.33
592.152	23464.94
592.349	22987.77
592.546	22907.9
592.743	22703.1
592.94	22535.17
593.137	22957.05
593.334	22680.57
593.531	22533.12
593.727	22856.7
593.924	22551.55
594.121	22512.64
594.318	22703.1
594.515	22197.25
594.712	22731.77
594.908	22359.04
595.105	22578.17
595.302	22248.45
595.499	22320.13
595.696	22617.08
595.892	21951.49
596.089	22428.67
596.286	22090.76
596.482	22395.9
596.679	22223.87
596.876	22287.36
597.072	21951.49
597.269	22166.53
597.466	21906.44
597.662	21939.21
597.859	22154.24
598.055	22197.25
598.252	21603.34
598.448	21912.58
598.645	21799.94
598.841	21885.96
599.038	21931.01
599.234	21896.2
599.431	21689.35
599.627	21849.1
599.824	21892.1
600.02	21974.02
600.217	21912.58
600.413	21828.62
600.609	21693.45
600.806	21783.56
601.002	21851.14
601.198	21597.2
601.395	21650.44
601.591	21877.77
601.787	21824.52
601.984	21595.15
602.18	21842.95
602.376	21586.96
602.572	21509.13
602.769	21650.44
602.965	21347.34
603.161	21689.35
603.357	21769.23
603.553	21617.68
603.75	21713.93
603.946	21550.09
604.142	21974.02
604.338	21416.97
604.534	21457.93
604.73	21546
604.926	21468.17
605.122	21646.35
605.318	21558.28
605.514	21402.64
605.71	21754.89
605.906	21738.51
606.102	21414.93
606.298	21546
606.494	21937.16
606.69	21416.97
606.886	21720.07
607.082	21480.46
607.278	21763.08
607.474	21373.97
607.67	21629.96
607.866	21488.65
608.062	21677.07
608.257	21433.36
608.453	21505.04
608.649	21640.2
608.845	21892.1
609.041	21525.52
609.236	21859.34
609.432	21595.15
609.628	21763.08
609.824	21877.77
610.019	21584.91
610.215	21869.58
610.411	21879.82
610.606	21652.49
610.802	22006.79
610.998	21969.93
611.193	22115.33
611.389	21863.43
611.584	21953.54
611.78	21738.51
611.976	22160.39
612.171	21994.5
612.367	21924.87
612.562	21849.1
612.758	21654.54
612.953	21963.78
613.149	22086.66
613.344	21943.3
613.539	22004.74
613.735	22008.84
613.93	22244.35
614.126	22014.98
614.321	21914.63
614.517	21976.07
614.712	22080.52
614.907	22010.89
615.103	22160.39
615.298	21658.63
615.493	22139.91
615.688	21754.89
615.884	22242.31
616.079	22000.65
616.274	22248.45
616.47	22064.13
616.665	22055.94
616.86	21730.31
617.055	21906.44
617.25	22150.15
617.445	22039.56
617.641	21558.28
617.836	21771.27
618.031	21832.71
618.226	21933.06
618.421	21836.81
618.616	22244.35
618.811	21840.9
619.006	22006.79
619.201	21470.22
619.396	21771.27
619.591	21355.54
619.786	21648.4
619.981	21228.56
620.176	21801.99
620.371	21240.85
620.566	21404.69
620.761	21455.89
620.956	21283.86
621.151	21054.48
621.346	21275.66
621.541	20841.5
621.735	21109.78
621.93	20722.71
622.125	20823.06
622.32	20405.28
622.515	20532.25
622.709	20710.43
622.904	20282.4
623.099	20421.66
623.294	20085.79
623.488	20419.61
623.683	20360.22
623.878	19842.09
624.072	19846.18
624.267	19817.51
624.462	19704.87
624.656	19409.97
624.851	19622.95
625.046	19360.81
625.24	19350.57
625.435	19291.18
625.629	19366.96
625.824	19133.49
626.018	19199.02
626.213	18936.88
626.407	18881.59
626.602	18543.67
626.796	18824.25
626.991	18709.56
627.185	18789.43
627.38	18572.35
627.574	18687.03
627.768	18240.58
627.963	18158.66
628.157	18029.63
628.352	17937.48
628.546	18078.79
628.74	18052.16
628.935	17740.87
629.129	17679.43
629.323	17667.14
629.517	17515.59
629.712	17388.62
629.906	17519.69
630.1	17089.62
630.294	17724.49
630.489	17065.04
630.683	17194.06
630.877	17101.9
631.071	16774.23
631.265	16882.77
631.459	16866.39
631.653	16749.65
631.848	16602.2
632.042	16428.12
632.236	16450.65
632.43	16260.19
632.624	16229.47
632.818	16067.68
633.012	16168.03
633.206	15914.08
633.4	16186.46
633.594	15793.25
633.788	16000.1
633.982	15776.87
634.176	15848.55
634.369	15584.36
634.563	15680.61
634.757	15379.56
634.951	15645.8
635.145	15303.79
635.339	15316.08
635.533	15318.12
635.726	15295.6
635.92	14929.01
636.114	15142
636.308	15029.36
636.501	14867.57
636.695	14720.12
636.889	14529.66
637.083	14644.34
637.276	14357.63
637.47	14304.38
637.664	14089.34
637.857	14365.82
638.051	14257.28
638.244	14197.88
638.438	14163.07
638.632	14109.82
638.825	13829.25
639.019	13759.62
639.212	13798.53
639.406	13663.36
639.599	13624.45
639.793	13522.06
639.986	13292.68
640.18	13407.37
640.373	13378.7
640.567	13194.38
640.76	13243.53
640.954	12934.29
641.147	13032.59
641.34	12997.77
641.534	12780.69
641.727	12887.18
641.92	12874.9
642.114	12457.11
642.307	12547.22
642.5	12563.61
642.694	12412.06
642.887	12301.47
643.08	12295.32
643.273	12227.74
643.467	12156.06
643.66	11949.22
643.853	11707.55
644.046	11588.77
644.239	11992.22
644.432	11816.1
644.626	11744.42
644.819	11562.15
645.012	11826.34
645.205	11789.47
645.398	11627.68
645.591	11547.81
645.784	11459.75
645.977	11125.93
646.17	11330.73
646.363	11244.71
646.556	10972.33
646.749	11044.01
646.942	11216.04
647.135	10951.85
647.328	11019.44
647.521	10755.25
647.714	10499.25
647.907	10613.94
648.099	10757.3
648.292	10454.2
648.485	10646.71
648.678	10321.08
648.871	10484.92
649.064	10263.74
649.256	10380.47
649.449	10300.6
649.642	10294.46
649.835	9985.21
650.027	10165.43
650.22	9934.01
650.413	9934.01
650.605	9942.21
650.798	9991.36
650.991	9692.35
651.183	9749.7
651.376	9604.29
651.568	9884.86
651.761	9696.45
651.954	9446.6
652.146	9413.83
652.339	9487.56
652.531	9270.47
652.724	9172.17
652.916	9198.79
653.109	9213.13
653.301	9225.42
653.494	9118.92
653.686	9016.52
653.879	9024.72
654.071	9004.24
654.263	8926.41
654.456	8940.75
654.648	8860.88
654.84	8772.82
655.033	8764.62
655.225	8672.47
655.417	8582.35
655.61	8582.35
655.802	8697.04
655.994	8402.13
656.186	8531.16
656.379	8314.07
656.571	8373.46
656.763	8381.65
656.955	8170.71
657.148	8256.73
657.34	8066.27
657.532	8101.08
657.724	7924.96
657.916	8037.59
658.108	8021.21
658.3	8072.41
658.492	7935.2
658.684	7683.3
658.876	8027.35
659.068	7658.72
659.26	7884
659.452	7632.1
659.644	7834.85
659.836	7365.86
660.028	7593.19
660.22	7478.5
660.412	7439.59
660.604	7423.2
660.796	7492.83
660.988	7357.67
661.18	7187.69
661.372	7441.64
661.563	7214.31
661.755	7363.81
661.947	7324.9
662.139	7150.82
662.331	6968.56
662.522	6993.13
662.714	7101.67
662.906	7050.47
663.097	6857.96
663.289	6919.4
663.481	6898.92
663.673	6886.64
663.864	6608.11
664.056	6659.31
664.247	6778.09
664.439	6567.15
664.631	6640.88
664.822	6806.77
665.014	6669.55
665.205	6550.77
665.397	6681.84
665.588	6440.18
665.78	6323.44
665.971	6180.09
666.163	6362.36
666.354	6329.59
666.546	6395.12
666.737	6470.9
666.929	6264.05
667.12	6034.68
667.311	6274.29
667.503	6190.33
667.694	6120.7
667.885	5969.15
668.077	5985.53
668.268	5897.47
668.459	6028.54
668.651	5940.47
668.842	5975.29
669.033	5879.04
669.224	5850.36
669.416	5895.42
669.607	5862.65
669.798	5647.62
669.989	5887.23
670.18	5739.77
670.371	5788.93
670.563	5565.7
670.754	5567.74
670.945	5571.84
671.136	5661.95
671.327	5545.22
671.518	5653.76
671.709	5539.07
671.9	5596.42
672.091	5491.97
672.282	5510.4
672.473	5455.11
672.664	5328.13
672.855	5336.32
673.046	5192.97
673.237	5463.3
673.428	5233.93
673.619	5330.18
673.809	5274.88
674	5313.8
674.191	5317.89
674.382	5317.89
674.573	5250.31
674.764	5244.17
674.954	5242.12
675.145	5297.41
675.336	5055.75
675.527	5141.77
675.717	5020.94
675.908	5072.14
676.099	5178.63
676.289	5094.66
676.48	5213.45
676.671	4961.55
676.861	4945.16
677.052	5094.66
677.243	5020.94
677.433	4930.83
677.624	4928.78
677.814	5008.65
678.005	5045.51
678.195	4920.59
678.386	4762.89
678.576	4883.72
678.767	4871.44
678.957	4777.23
679.148	4906.25
679.338	4873.48
679.529	4826.38
679.719	4785.42
679.909	5002.51
680.1	4824.33
680.29	4758.8
680.481	4635.92
680.671	4748.56
680.861	4723.98
681.052	4723.98
681.242	4683.02
681.432	4578.58
681.622	4597.01
681.813	4603.15
682.003	4670.73
682.193	4742.41
682.383	4736.27
682.573	4662.54
682.764	4498.7
682.954	4691.21
683.144	4584.72
683.334	4519.18
683.524	4535.57
683.714	4633.87
683.904	4478.23
684.094	4519.18
684.284	4476.18
684.474	4529.42
684.664	4554
684.854	4543.76
685.044	4531.47
685.234	4533.52
685.424	4422.93
685.614	4252.95
685.804	4343.06
685.994	4369.68
686.184	4347.15
686.374	4400.4
686.564	4406.55
686.753	4453.65
686.943	4255
687.133	4355.35
687.323	4314.39
687.513	4314.39
687.702	4134.17
687.892	4326.68
688.082	4265.24
688.272	4240.66
688.461	4218.13
688.651	4267.28
688.841	4068.63
689.03	4072.73
689.22	4103.45
689.41	4220.18
689.599	4177.17
689.789	4138.26
689.979	4199.7
690.168	4097.3
690.358	4070.68
690.547	3892.51
690.737	4042.01
690.926	4125.97
691.116	3933.47
691.305	4085.02
691.495	4158.74
691.684	3988.76
691.874	4025.62
692.063	3937.56
692.252	4080.92
692.442	4013.34
692.631	3996.95
692.82	3964.18
693.01	3773.72
693.199	3908.89
693.388	3945.75
693.578	3714.33
693.767	3888.41
693.956	3859.74
694.146	3810.59
694.335	3726.62
694.524	3826.97
694.713	3720.48
694.902	3685.66
695.092	4035.86
695.281	3695.9
695.47	3720.48
695.659	3732.76
695.848	3679.52
696.037	3597.6
696.226	3560.73
696.415	3671.33
696.604	3740.96
696.793	3747.1
696.982	3726.62
697.171	3654.94
697.36	3613.98
697.549	3628.32
697.738	3609.89
697.927	3472.67
698.116	3585.31
698.305	3515.68
698.494	3429.66
698.683	3388.71
698.872	3441.95
699.061	3521.82
699.25	3411.23
699.438	3560.73
699.627	3507.49
699.816	3523.87
700.005	3437.86
700.193	3360.03
700.382	3423.52
700.571	3513.63
700.76	3294.5
700.948	3560.73
701.137	3310.88
701.326	3374.37
701.514	3343.65
701.703	3327.27
701.892	3378.47
702.08	3413.28
702.269	3407.14
702.457	3294.5
702.646	3390.75
702.834	3087.65
703.023	3329.31
703.212	3314.98
703.4	3228.96
703.589	3161.38
703.777	3276.07
703.965	3110.18
704.154	3155.24
704.342	3089.7
704.531	3228.96
704.719	3091.75
704.907	3175.72
705.096	3130.66
705.284	3114.28
705.472	3169.57
705.661	3165.48
705.849	3093.8
706.037	3114.28
706.226	3134.76
706.414	3134.76
706.602	3069.22
706.79	3077.41
706.979	2940.2
707.167	3030.31
707.355	2948.39
707.543	2948.39
707.731	3052.84
707.919	3030.31
708.107	2972.97
708.296	2889
708.484	2938.15
708.672	2958.63
708.86	2925.86
709.048	3044.65
709.236	2831.66
709.424	2852.14
709.612	2809.13
709.8	2915.62
709.988	2899.24
710.176	2917.67
710.364	2893.1
710.551	2843.95
710.739	2872.62
710.927	2956.58
711.115	2694.44
711.303	2819.37
711.491	2856.23
711.679	2770.22
711.866	2790.7
712.054	2843.95
712.242	2657.58
712.43	2880.81
712.617	2692.4
712.805	2762.03
712.993	2678.06
713.181	2757.93
713.368	2743.6
713.556	2680.11
713.744	2571.57
713.931	2749.74
714.119	2729.26
714.306	2643.24
714.494	2659.63
714.682	2583.85
714.869	2514.22
715.057	2571.57
715.244	2659.63
715.432	2565.42
715.619	2620.72
715.807	2661.68
715.994	2651.44
716.182	2557.23
716.369	2503.98
716.556	2565.42
716.744	2424.11
716.931	2430.26
717.119	2579.76
717.306	2579.76
717.493	2528.56
717.681	2393.39
717.868	2434.35
718.055	2528.56
718.242	2471.22
718.43	2366.77
718.617	2403.63
718.804	2336.05
718.991	2383.15
719.179	2430.26
719.366	2399.54
719.553	2372.91
719.74	2393.39
719.927	2331.95
720.114	2340.15
720.301	2309.43
720.488	2260.27
720.676	2274.61
720.863	2323.76
721.05	2331.95
721.237	2166.07
721.424	2374.96
721.611	2311.47
721.798	2262.32
721.985	2356.53
722.172	2184.5
722.358	2168.12
722.545	2254.13
722.732	2274.61
722.919	2278.71
723.106	2301.23
723.293	2229.56
723.48	2266.42
723.667	2135.35
723.853	2231.6
724.04	2204.98
724.227	2102.58
724.414	2096.44
724.6	2127.16
724.787	2237.75
724.974	2118.97
725.161	2092.34
725.347	2069.81
725.534	2217.27
725.72	2121.01
725.907	1975.61
726.094	2098.49
726.28	2100.53
726.467	2053.43
726.653	2129.2
726.84	2035
727.027	2196.79
727.213	2159.92
727.4	2200.88
727.586	2082.1
727.773	2082.1
727.959	2061.62
728.145	1971.51
728.332	1973.56
728.518	1969.46
728.705	2037.05
728.891	2127.16
729.077	1971.51
729.264	2006.33
729.45	1908.02
729.636	2135.35
729.823	2078.01
730.009	1998.13
730.195	2071.86
730.382	1946.94
730.568	1973.56
730.754	1998.13
730.94	1936.7
731.126	2022.71
731.313	1991.99
731.499	1953.08
731.685	1912.12
731.871	1883.45
732.057	1899.83
732.243	1957.18
732.429	1893.69
732.615	1895.74
732.801	1971.51
732.987	1910.07
733.173	1824.06
733.359	1865.02
733.545	1887.54
733.731	1717.56
733.917	1897.78
734.103	1785.15
734.289	1953.08
734.475	1811.77
734.661	1865.02
734.847	1828.15
735.033	1840.44
735.219	1826.11
735.404	1713.47
735.59	1848.63
735.776	1779
735.962	1754.43
736.148	1842.49
736.333	1828.15
736.519	1799.48
736.705	1703.23
736.89	1848.63
737.076	1819.96
737.262	1721.66
737.447	1748.28
737.633	1946.94
737.819	1783.1
738.004	1662.27
738.19	1652.03
738.375	1774.91
738.561	1621.31
738.747	1723.71
738.932	1580.35
739.118	1721.66
739.303	1684.8
739.489	1684.8
739.674	1627.45
739.859	1652.03
740.045	1627.45
740.23	1662.27
740.416	1525.05
740.601	1723.71
740.786	1600.83
740.972	1617.21
741.157	1553.73
741.342	1674.56
741.528	1586.49
741.713	1588.54
741.898	1619.26
742.084	1557.82
742.269	1680.7
742.454	1545.53
742.639	1611.07
742.824	1619.26
743.01	1555.77
743.195	1662.27
743.38	1498.43
743.565	1469.76
743.75	1529.15
743.935	1465.66
744.12	1576.25
744.305	1430.85
744.49	1441.09
744.675	1498.43
744.86	1473.85
745.045	1498.43
745.23	1383.74
745.415	1447.23
745.6	1447.23
745.785	1400.13
745.97	1465.66
746.155	1350.98
746.34	1393.98
746.525	1422.66
746.71	1338.69
746.895	1365.31
747.079	1398.08
747.264	1373.5
747.449	1445.18
747.634	1254.72
747.819	1381.7
748.003	1273.15
748.188	1297.73
748.373	1291.59
748.557	1324.35
748.742	1250.63
748.927	1187.14
749.111	1219.91
749.296	1303.87
749.481	1258.82
749.665	1230.15
749.85	1289.54
750.034	1162.56
750.219	1203.52
750.404	1111.36
750.588	1244.48
750.773	1103.17
750.957	1250.63
751.141	1168.71
751.326	1195.33
751.51	1080.64
751.695	1086.79
751.879	1094.98
752.064	1121.6
752.248	1086.79
752.432	1193.28
752.617	1201.48
752.801	1129.8
752.985	1144.13
753.17	1099.08
753.354	1094.98
753.538	1025.35
753.722	1078.6
753.907	1004.87
754.091	1017.16
754.275	1127.75
754.459	965.96
754.643	1017.16
754.828	1002.82
755.012	1013.06
755.196	1078.6
755.38	1008.97
755.564	986.44
755.748	947.53
755.932	1058.12
756.116	1027.4
756.3	984.39
756.484	972.1
756.668	1008.97
756.852	916.81
757.036	943.43
757.22	931.14
757.404	836.94
757.588	922.95
757.772	910.66
757.956	873.8
758.14	976.2
758.323	886.09
758.507	927.05
758.691	847.18
758.875	898.38
759.059	933.19
759.242	855.37
759.426	937.29
759.61	918.86
759.794	857.42
759.977	873.8
760.161	836.94
760.345	933.19
760.528	871.75
760.712	808.27
760.895	863.56
761.079	759.11
761.263	750.92
761.446	806.22
761.63	789.83
761.813	812.36
761.997	736.59
762.18	826.7
762.364	824.65
762.547	808.27
762.731	820.55
762.914	720.2
763.098	769.35
763.281	814.41
763.464	849.22
763.648	785.74
763.831	750.92
764.015	832.84
764.198	773.45
764.381	685.39
764.564	656.72
764.748	820.55
764.931	771.4
765.114	732.49
765.297	722.25
765.481	693.58
765.664	742.73
765.847	734.54
766.03	693.58
766.213	699.72
766.397	701.77
766.58	656.72
766.763	755.02
766.946	677.2
767.129	656.72
767.312	669
767.495	726.35
767.678	652.62
767.861	746.83
768.044	703.82
768.227	636.24
768.41	750.92
768.593	623.95
768.776	800.07
768.959	683.34
769.142	734.54
769.324	619.85
769.507	720.2
769.69	568.65
769.873	677.2
770.056	757.07
770.239	701.77
770.421	703.82
770.604	687.43
770.787	664.91
770.97	722.25
771.152	650.57
771.335	589.13
771.518	660.81
771.7	648.52
771.883	752.97
772.066	611.66
772.248	644.43
772.431	628.04
772.613	621.9
772.796	597.32
772.978	578.89
773.161	728.39
773.343	621.9
773.526	580.94
773.708	513.36
773.891	578.89
774.073	564.56
774.256	628.04
774.438	738.63
774.621	558.41
774.803	535.89
774.985	601.42
775.168	570.7
775.35	603.47
775.532	619.85
775.715	535.89
775.897	464.21
776.079	484.69
776.261	611.66
776.444	558.41
776.626	566.6
776.808	626
776.99	499.02
777.173	556.36
777.355	537.93
777.537	521.55
777.719	464.21
777.901	499.02
778.083	484.69
778.265	470.35
778.447	550.22
778.629	468.3
778.811	523.6
778.993	513.36
779.175	484.69
779.357	435.53
779.539	456.01
779.721	380.24
779.903	480.59
780.085	458.06
780.267	480.59
780.449	447.82
780.631	494.93
780.812	472.4
780.994	476.49
781.176	431.44
781.358	417.1
781.54	488.78
781.721	472.4
781.903	537.93
782.085	359.76
782.267	402.77
782.448	394.58
782.63	464.21
782.812	370
782.993	513.36
783.175	410.96
783.357	490.83
783.538	431.44
783.72	378.19
783.901	456.01
784.083	398.67
784.264	337.23
784.446	370
784.627	316.75
784.809	365.9
784.99	390.48
785.172	351.57
785.353	357.71
785.535	361.81
785.716	324.94
785.897	316.75
786.079	300.37
786.26	351.57
786.441	343.38
786.623	279.89
786.804	357.71
786.985	367.95
787.167	357.71
787.348	349.52
787.529	347.47
787.71	357.71
787.891	337.23
788.073	294.22
788.254	228.69
788.435	408.91
788.616	374.1
788.797	259.41
788.978	308.56
789.159	357.71
789.34	245.07
789.522	304.46
789.703	320.85
789.884	267.6
790.065	279.89
790.246	351.57
790.427	331.09
790.607	361.81
790.788	279.89
790.969	257.36
791.15	308.56
791.331	193.87
791.512	302.42
791.693	243.03
791.874	259.41
792.054	341.33
792.235	255.31
792.416	228.69
792.597	228.69
792.778	288.08
792.958	300.37
793.139	226.64
793.32	267.6
793.5	251.22
793.681	343.38
793.862	286.03
794.042	202.07
794.223	185.68
794.404	251.22
794.584	222.55
794.765	259.41
794.945	277.84
795.126	292.18
795.306	382.29
795.487	216.4
795.667	243.03
795.848	275.79
796.028	245.07
796.209	281.94
796.389	269.65
796.57	157.01
796.75	152.92
796.93	157.01
797.111	236.88
797.291	218.45
797.471	275.79
797.652	249.17
797.832	177.49
798.012	236.88
798.192	189.78
798.373	193.87
798.553	214.35
798.733	193.87
798.913	111.96
799.093	185.68
799.274	154.96
799.454	267.6
799.634	167.25
799.814	269.65
799.994	283.99
800.174	243.03
800.354	169.3
800.534	152.92
800.714	181.59
800.894	161.11
801.074	130.39
801.254	71
801.434	236.88
801.614	202.07
801.794	148.82
801.974	900.42
802.154	146.77
802.334	245.07
802.514	210.26
802.693	210.26
802.873	210.26
803.053	245.07
803.233	161.11
803.413	128.34
803.592	243.03
803.772	152.92
803.952	62.8
804.131	157.01
804.311	134.48
804.491	204.11
804.67	79.19
804.85	179.54
805.03	243.03
805.209	177.49
805.389	103.76
805.568	87.38
805.748	105.81
805.928	77.14
806.107	195.92
806.287	103.76
806.466	230.74
806.646	218.45
806.825	128.34
807.004	87.38
807.184	144.72
807.363	185.68
807.543	193.87
807.722	163.15
807.901	226.64
808.081	193.87
808.26	48.47
808.439	93.52
808.619	159.06
808.798	177.49
808.977	169.3
809.156	208.21
809.336	91.48
809.515	226.64
809.694	81.24
809.873	138.58
810.052	165.2
810.231	169.3
810.411	103.76
810.59	130.39
810.769	120.15
810.948	128.34
811.127	103.76
811.306	38.23
811.485	146.77
811.664	234.83
811.843	167.25
812.022	105.81
812.201	79.19
812.38	171.35
812.559	48.47
812.737	152.92
812.916	75.09
813.095	107.86
813.274	171.35
813.453	103.76
813.632	130.39
813.811	66.9
813.989	30.04
814.168	136.53
814.347	95.57
814.526	193.87
814.704	130.39
814.883	144.72
815.062	89.43
815.24	83.28
815.419	116.05
815.598	62.8
815.776	128.34
815.955	73.04
816.133	52.56
816.312	95.57
816.49	5.46
816.669	140.63
816.847	87.38
817.026	136.53
817.204	169.3
817.383	73.04
817.561	23.89
817.74	19.8
817.918	167.25
818.097	152.92
818.275	66.9
818.453	81.24
818.632	54.61
818.81	103.76
818.988	68.95
819.167	-17.07
819.345	114
819.523	71
819.701	62.8
819.879	83.28
820.058	95.57
820.236	58.71
820.414	136.53
820.592	105.81
820.77	-0.68
820.948	95.57
821.127	66.9
821.305	91.48
821.483	36.18
821.661	75.09
821.839	1.37
822.017	128.34
822.195	42.32
822.373	79.19
822.551	134.48
822.729	95.57
822.907	42.32
823.085	103.76
823.262	62.8
823.44	87.38
823.618	71
823.796	68.95
823.974	73.04
824.152	-25.26
824.329	25.94
824.507	54.61
824.685	128.34
824.863	111.96
825.04	66.9
825.218	52.56
825.396	83.28
825.574	105.81
825.751	169.3
825.929	1.37
826.107	48.47
826.284	87.38
826.462	144.72
826.639	83.28
826.817	38.23
826.994	103.76
827.172	21.85
827.349	179.54
827.527	73.04
827.704	114
827.882	118.1
828.059	60.76
828.237	120.15
828.414	157.01
828.591	9.56
828.769	15.7
828.946	83.28
829.124	124.24
829.301	111.96
829.478	46.42
829.655	122.2
829.833	128.34
830.01	32.08
830.187	25.94
830.364	50.52
830.542	1.37
830.719	73.04
830.896	126.29
831.073	52.56
831.25	111.96
831.427	79.19
831.604	66.9
831.782	23.89
831.959	56.66
832.136	62.8
832.313	25.94
832.49	103.76
832.667	75.09
832.844	13.65
833.021	64.85
833.198	79.19
833.374	95.57
833.551	36.18
833.728	58.71
833.905	75.09
834.082	30.04
834.259	19.8
834.436	120.15
834.612	83.28
834.789	21.85
834.966	73.04
835.143	73.04
835.319	-15.02
835.496	161.11
835.673	109.91
835.85	132.44
836.026	46.42
836.203	77.14
836.38	91.48
836.556	30.04
836.733	-8.87
836.909	81.24
837.086	75.09
837.262	25.94
837.439	9.56
837.616	21.85
837.792	58.71
837.968	38.23
838.145	64.85
838.321	-60.07
838.498	66.9
838.674	54.61
838.851	75.09
839.027	73.04
839.203	19.8
839.38	52.56
839.556	23.89
839.732	36.18
839.909	-68.27
840.085	107.86
840.261	66.9
840.437	64.85
840.614	-6.83
840.79	38.23
840.966	40.28
841.142	64.85
841.318	36.18
841.494	42.32
841.671	13.65
841.847	48.47
842.023	17.75
842.199	124.24
842.375	25.94
842.551	-6.83
842.727	5.46
842.903	38.23
843.079	21.85
843.255	103.76
843.431	17.75
843.607	9.56
843.783	-35.5
843.959	97.62
844.134	13.65
844.31	81.24
844.486	38.23
844.662	-25.26
844.838	21.85
845.013	99.67
845.189	73.04
845.365	3.41
845.541	19.8
845.716	5.46
845.892	93.52
846.068	77.14
846.244	38.23
846.419	120.15
846.595	-55.98
846.77	52.56
846.946	-10.92
847.122	25.94
847.297	-19.11
847.473	142.68
847.648	-51.88
847.824	56.66
847.999	-15.02
848.175	21.85
848.35	87.38
848.526	48.47
848.701	-72.36
848.876	87.38
849.052	56.66
849.227	-43.69
849.403	44.37
849.578	30.04
849.753	13.65
849.929	91.48
850.104	-33.45
850.279	-10.92
850.454	9.56
850.63	-12.97
850.805	5.46
850.98	64.85
851.155	118.1
851.33	66.9
851.505	-0.68
851.681	111.96
851.856	71
852.031	-8.87
852.206	83.28
852.381	38.23
852.556	34.13
852.731	34.13
852.906	66.9
853.081	36.18
853.256	46.42
853.431	-2.73
853.606	-0.68
853.781	-19.11
853.956	15.7
854.131	-35.5
854.305	42.32
854.48	21.85
854.655	9.56
854.83	-43.69
855.005	1.37
855.18	36.18
855.354	21.85
855.529	7.51
855.704	-2.73
855.879	62.8
856.053	-19.11
856.228	50.52
856.403	-12.97
856.577	5.46
856.752	-23.21
856.926	-10.92
857.101	-53.93
857.276	-90.79
857.45	-25.26
857.625	30.04
857.799	13.65
857.974	64.85
858.148	11.61
858.323	-74.41
858.497	54.61
858.672	-8.87
858.846	25.94
859.02	83.28
859.195	9.56
859.369	46.42
859.543	-21.16
859.718	13.65
859.892	40.28
860.066	-31.4
860.241	-10.92
860.415	30.04
860.589	13.65
860.763	46.42
860.938	5.46
861.112	75.09
861.286	38.23
861.46	15.7
861.634	-23.21
861.808	9.56
861.982	-37.55
862.157	-84.65
862.331	-33.45
862.505	7.51
862.679	-92.84
862.853	-2.73
863.027	-8.87
863.201	38.23
863.375	21.85
863.549	27.99
863.722	58.71
863.896	-35.5
864.07	-35.5
864.244	13.65
864.418	-43.69
864.592	64.85
864.766	-35.5
864.939	-25.26
865.113	75.09
865.287	38.23
865.461	46.42
865.634	-17.07
865.808	-23.21
865.982	25.94
866.156	-35.5
866.329	11.61
866.503	-6.83
866.676	17.75
866.85	-2.73
867.024	-17.07
867.197	1.37
867.371	17.75
867.544	-49.83
867.718	25.94
867.891	-25.26
868.065	-19.11
868.238	54.61
868.412	7.51
868.585	-15.02
868.759	-41.64
868.932	38.23
869.105	-27.31
869.279	27.99
869.452	-27.31
869.625	27.99
869.799	34.13
869.972	-15.02
870.145	42.32
870.319	54.61
870.492	-10.92
870.665	-15.02
870.838	-25.26
871.011	-76.46
871.185	34.13
871.358	3.41
871.531	15.7
871.704	-51.88
871.877	30.04
872.05	-43.69
872.223	-115.37
872.396	-15.02
872.569	19.8
872.742	-19.11
872.915	42.32
873.088	7.51
873.261	32.08
873.434	-31.4
873.607	5.46
873.78	-0.68
873.953	-84.65
874.126	25.94
874.299	-17.07
874.471	-4.78
874.644	25.94
874.817	17.75
874.99	75.09
875.163	-0.68
875.335	-19.11
875.508	9.56
875.681	-25.26
875.853	66.9
876.026	73.04
876.199	-15.02
876.371	-0.68
876.544	34.13
876.717	48.47
876.889	-10.92
877.062	19.8
877.234	-8.87
877.407	-17.07
877.579	9.56
877.752	46.42
877.924	34.13
878.097	116.05
878.269	34.13
878.442	23.89
878.614	46.42
878.786	-19.11
878.959	23.89
879.131	17.75
879.303	-51.88
879.476	-4.78
879.648	-4.78
879.82	-19.11
879.993	-25.26
880.165	-43.69
880.337	-4.78
880.509	-10.92
880.681	38.23
880.854	15.7
881.026	38.23
881.198	83.28
881.37	15.7
881.542	32.08
881.714	-6.83
881.886	13.65
882.058	13.65
882.23	25.94
882.402	-10.92
882.574	-39.59
882.746	38.23
882.918	107.86
883.09	15.7
883.262	7.51
883.434	17.75
883.606	-10.92
883.778	-60.07
883.95	46.42
884.122	-8.87
884.293	7.51
884.465	54.61
884.637	58.71
884.809	-27.31
884.98	91.48
885.152	-8.87
885.324	23.89
885.496	62.8
885.667	3.41
885.839	-39.59
886.011	58.71
886.182	23.89
886.354	-10.92
886.525	5.46
886.697	19.8
886.869	-4.78
887.04	-8.87
887.212	1.37
887.383	75.09
887.555	34.13
887.726	-60.07
887.897	-76.46
888.069	-27.31
888.24	-35.5
888.412	62.8
888.583	-72.36
888.754	-27.31
888.926	-31.4
889.097	15.7
889.268	-47.79
889.44	38.23
889.611	-27.31
889.782	-19.11
889.953	-60.07
890.125	81.24
890.296	21.85
890.467	44.37
890.638	-10.92
890.809	5.46
890.98	-8.87
891.151	13.65
891.323	13.65
891.494	15.7
891.665	5.46
891.836	-27.31
892.007	7.51
892.178	30.04
892.349	-31.4
892.52	7.51
892.691	91.48
892.862	21.85
893.032	-58.03
893.203	19.8
893.374	5.46
893.545	-21.16
893.716	-66.22
893.887	30.04
894.057	-15.02
894.228	32.08
894.399	34.13
894.57	-0.68
894.74	42.32
894.911	-10.92
895.082	-31.4
895.253	-2.73
895.423	-29.35
895.594	-0.68
895.764	17.75
895.935	9.56
896.106	1.37
896.276	56.66
896.447	-21.16
896.617	-33.45
896.788	-2.73
896.958	-27.31
897.129	-113.32
897.299	-113.32
897.47	-6.83
897.64	79.19
897.81	30.04
897.981	5.46
898.151	-94.89
898.322	58.71
898.492	-53.93
898.662	-45.74
898.832	-2.73
899.003	-23.21
899.173	79.19
899.343	-25.26
899.513	-70.31
