Data from USB4F104151__231__14-34-01-988.txt Node

Date: Thu Mar 13 14:34:01 EDT 2025
User: louis
Spectrometer: USB4F10415
Trigger mode: 4
Integration Time (sec): 2.500000E-2
Scans to average: 1
Electric dark correction enabled: true
Nonlinearity correction enabled: false
Boxcar width: 0
XAxis mode: Wavelengths
Number of Pixels in Spectrum: 3648
>>>>>Begin Spectral Data<<<<<
178.204	-105.81
178.424	-105.81
178.644	-105.81
178.864	-122.2
179.084	-183.63
179.304	-9.56
179.524	12.97
179.744	-9.56
179.964	2.73
180.184	12.97
180.404	19.11
180.624	-30.04
180.844	-13.65
181.064	-30.04
181.283	27.31
181.503	12.97
181.723	4.78
181.943	-89.43
182.163	107.18
182.383	37.55
182.602	76.46
182.822	53.93
183.042	51.88
183.262	66.22
183.482	58.03
183.701	43.69
183.921	41.64
184.141	10.92
184.361	47.79
184.58	0.68
184.8	27.31
185.02	-25.94
185.239	45.74
185.459	51.88
185.679	64.17
185.898	-9.56
186.118	35.5
186.338	25.26
186.557	39.59
186.777	-5.46
186.997	58.03
187.216	76.46
187.436	74.41
187.655	86.7
187.875	80.55
188.095	121.51
188.314	74.41
188.534	62.12
188.753	35.5
188.973	35.5
189.192	92.84
189.412	23.21
189.631	55.98
189.851	98.99
190.07	-1.37
190.29	84.65
190.509	62.12
190.729	-5.46
190.948	8.87
191.168	148.14
191.387	109.22
191.607	76.46
191.826	94.89
192.045	94.89
192.265	70.31
192.484	-1.37
192.704	15.02
192.923	-5.46
193.142	125.61
193.362	55.98
193.581	113.32
193.8	45.74
194.02	74.41
194.239	103.08
194.458	92.84
194.678	35.5
194.897	4.78
195.116	115.37
195.335	43.69
195.555	78.51
195.774	64.17
195.993	39.59
196.212	96.94
196.432	33.45
196.651	-5.46
196.87	43.69
197.089	68.27
197.308	88.75
197.528	96.94
197.747	19.11
197.966	-3.41
198.185	154.28
198.404	51.88
198.623	27.31
198.842	-5.46
199.062	178.86
199.281	53.93
199.5	64.17
199.719	55.98
199.938	72.36
200.157	23.21
200.376	129.7
200.595	47.79
200.814	43.69
201.033	-5.46
201.252	96.94
201.471	80.55
201.69	111.27
201.909	21.16
202.128	60.07
202.347	133.8
202.566	125.61
202.785	47.79
203.004	29.35
203.223	125.61
203.442	101.03
203.661	19.11
203.879	94.89
204.098	60.07
204.317	-9.56
204.536	131.75
204.755	-9.56
204.974	94.89
205.193	119.46
205.411	113.32
205.63	-11.61
205.849	43.69
206.068	37.55
206.287	68.27
206.505	109.22
206.724	33.45
206.943	78.51
207.162	51.88
207.381	144.04
207.599	2.73
207.818	10.92
208.037	68.27
208.255	141.99
208.474	31.4
208.693	62.12
208.911	107.18
209.13	58.03
209.349	76.46
209.567	88.75
209.786	62.12
210.005	98.99
210.223	129.7
210.442	35.5
210.661	64.17
210.879	74.41
211.098	39.59
211.316	98.99
211.535	68.27
211.753	47.79
211.972	-13.65
212.191	60.07
212.409	88.75
212.628	2.73
212.846	-13.65
213.065	101.03
213.283	125.61
213.502	117.42
213.72	76.46
213.938	68.27
214.157	72.36
214.375	-9.56
214.594	51.88
214.812	60.07
215.031	53.93
215.249	-13.65
215.467	-21.85
215.686	64.17
215.904	23.21
216.122	39.59
216.341	68.27
216.559	51.88
216.778	10.92
216.996	55.98
217.214	58.03
217.432	-46.42
217.651	-5.46
217.869	35.5
218.087	23.21
218.306	6.83
218.524	12.97
218.742	-5.46
218.96	39.59
219.179	-21.85
219.397	29.35
219.615	68.27
219.833	84.65
220.051	78.51
220.27	117.42
220.488	88.75
220.706	66.22
220.924	10.92
221.142	-1.37
221.36	62.12
221.578	76.46
221.796	68.27
222.015	37.55
222.233	35.5
222.451	6.83
222.669	19.11
222.887	37.55
223.105	49.83
223.323	35.5
223.541	2.73
223.759	92.84
223.977	2.73
224.195	35.5
224.413	64.17
224.631	96.94
224.849	37.55
225.067	121.51
225.285	68.27
225.503	53.93
225.721	15.02
225.939	31.4
226.157	121.51
226.375	96.94
226.592	74.41
226.81	35.5
227.028	96.94
227.246	62.12
227.464	39.59
227.682	39.59
227.9	35.5
228.117	80.55
228.335	10.92
228.553	49.83
228.771	43.69
228.989	8.87
229.206	43.69
229.424	39.59
229.642	6.83
229.86	27.31
230.077	84.65
230.295	109.22
230.513	135.85
230.731	76.46
230.948	49.83
231.166	78.51
231.384	98.99
231.601	39.59
231.819	131.75
232.037	4.78
232.254	-50.52
232.472	82.6
232.689	45.74
232.907	37.55
233.125	25.26
233.342	64.17
233.56	35.5
233.777	29.35
233.995	51.88
234.213	53.93
234.43	66.22
234.648	94.89
234.865	2.73
235.083	12.97
235.3	72.36
235.518	62.12
235.735	113.32
235.953	47.79
236.17	51.88
236.388	-5.46
236.605	51.88
236.822	94.89
237.04	58.03
237.257	41.64
237.475	2.73
237.692	141.99
237.909	43.69
238.127	45.74
238.344	-11.61
238.562	78.51
238.779	45.74
238.996	62.12
239.214	41.64
239.431	84.65
239.648	0.68
239.865	141.99
240.083	-25.94
240.3	35.5
240.517	60.07
240.735	15.02
240.952	113.32
241.169	101.03
241.386	78.51
241.603	35.5
241.821	62.12
242.038	84.65
242.255	29.35
242.472	29.35
242.689	76.46
242.907	31.4
243.124	113.32
243.341	47.79
243.558	49.83
243.775	-19.8
243.992	-19.8
244.209	64.17
244.426	53.93
244.643	82.6
244.86	2.73
245.078	76.46
245.295	43.69
245.512	109.22
245.729	25.26
245.946	86.7
246.163	15.02
246.38	4.78
246.597	10.92
246.814	51.88
247.031	8.87
247.248	101.03
247.464	103.08
247.681	109.22
247.898	19.11
248.115	68.27
248.332	70.31
248.549	51.88
248.766	101.03
248.983	86.7
249.2	35.5
249.417	78.51
249.633	68.27
249.85	66.22
250.067	19.11
250.284	-13.65
250.501	101.03
250.717	76.46
250.934	51.88
251.151	55.98
251.368	12.97
251.585	76.46
251.801	-46.42
252.018	29.35
252.235	88.75
252.451	35.5
252.668	-52.56
252.885	68.27
253.102	60.07
253.318	-7.51
253.535	-1.37
253.752	68.27
253.968	39.59
254.185	10.92
254.401	-34.13
254.618	29.35
254.835	-5.46
255.051	109.22
255.268	27.31
255.484	-5.46
255.701	35.5
255.917	47.79
256.134	21.16
256.351	90.79
256.567	55.98
256.784	29.35
257	21.16
257.217	127.66
257.433	109.22
257.65	49.83
257.866	10.92
258.082	35.5
258.299	2.73
258.515	109.22
258.732	101.03
258.948	60.07
259.165	70.31
259.381	62.12
259.597	41.64
259.814	-5.46
260.03	76.46
260.246	92.84
260.463	125.61
260.679	68.27
260.895	15.02
261.112	-3.41
261.328	17.07
261.544	10.92
261.761	101.03
261.977	68.27
262.193	-56.66
262.409	23.21
262.626	86.7
262.842	39.59
263.058	31.4
263.274	35.5
263.49	-25.94
263.707	-5.46
263.923	68.27
264.139	-19.8
264.355	47.79
264.571	111.27
264.787	27.31
265.004	74.41
265.22	68.27
265.436	135.85
265.652	47.79
265.868	76.46
266.084	19.11
266.3	84.65
266.516	-21.85
266.732	86.7
266.948	37.55
267.164	29.35
267.38	31.4
267.596	84.65
267.812	119.46
268.028	72.36
268.244	27.31
268.46	92.84
268.676	12.97
268.892	84.65
269.108	60.07
269.324	92.84
269.54	2.73
269.756	86.7
269.972	23.21
270.188	84.65
270.403	-1.37
270.619	51.88
270.835	12.97
271.051	78.51
271.267	39.59
271.483	62.12
271.698	35.5
271.914	72.36
272.13	103.08
272.346	96.94
272.562	10.92
272.777	98.99
272.993	39.59
273.209	2.73
273.425	-27.99
273.64	58.03
273.856	109.22
274.072	31.4
274.287	-66.9
274.503	78.51
274.719	53.93
274.934	129.7
275.15	27.31
275.366	29.35
275.581	-46.42
275.797	15.02
276.012	70.31
276.228	51.88
276.444	47.79
276.659	12.97
276.875	43.69
277.09	68.27
277.306	86.7
277.521	60.07
277.737	10.92
277.952	10.92
278.168	17.07
278.383	51.88
278.599	47.79
278.814	76.46
279.03	47.79
279.245	60.07
279.461	-13.65
279.676	12.97
279.892	19.11
280.107	51.88
280.322	27.31
280.538	168.62
280.753	-56.66
280.969	23.21
281.184	78.51
281.399	92.84
281.615	41.64
281.83	84.65
282.045	51.88
282.26	-3.41
282.476	43.69
282.691	72.36
282.906	-9.56
283.122	76.46
283.337	19.11
283.552	17.07
283.767	51.88
283.983	135.85
284.198	23.21
284.413	125.61
284.628	94.89
284.843	98.99
285.058	-25.94
285.274	84.65
285.489	6.83
285.704	51.88
285.919	29.35
286.134	8.87
286.349	98.99
286.564	92.84
286.779	148.14
286.995	-5.46
287.21	-1.37
287.425	84.65
287.64	29.35
287.855	41.64
288.07	-21.85
288.285	31.4
288.5	115.37
288.715	23.21
288.93	43.69
289.145	60.07
289.36	35.5
289.575	101.03
289.79	72.36
290.004	62.12
290.219	45.74
290.434	60.07
290.649	6.83
290.864	55.98
291.079	-75.09
291.294	43.69
291.509	10.92
291.724	62.12
291.938	-9.56
292.153	94.89
292.368	-42.32
292.583	43.69
292.798	62.12
293.012	45.74
293.227	31.4
293.442	60.07
293.657	53.93
293.871	158.38
294.086	92.84
294.301	119.46
294.516	90.79
294.73	31.4
294.945	21.16
295.16	6.83
295.374	98.99
295.589	74.41
295.804	-11.61
296.018	113.32
296.233	139.94
296.447	125.61
296.662	6.83
296.877	125.61
297.091	-1.37
297.306	68.27
297.52	6.83
297.735	64.17
297.949	51.88
298.164	70.31
298.378	25.26
298.593	78.51
298.807	33.45
299.022	150.18
299.236	64.17
299.451	68.27
299.665	37.55
299.88	4.78
300.094	39.59
300.309	76.46
300.523	133.8
300.737	74.41
300.952	105.13
301.166	45.74
301.381	39.59
301.595	19.11
301.809	86.7
302.024	101.03
302.238	15.02
302.452	158.38
302.667	76.46
302.881	96.94
303.095	80.55
303.309	68.27
303.524	-30.04
303.738	37.55
303.952	45.74
304.166	43.69
304.381	-25.94
304.595	72.36
304.809	-3.41
305.023	51.88
305.237	-13.65
305.452	55.98
305.666	92.84
305.88	84.65
306.094	53.93
306.308	133.8
306.522	64.17
306.736	92.84
306.95	33.45
307.164	80.55
307.379	37.55
307.593	66.22
307.807	101.03
308.021	84.65
308.235	76.46
308.449	6.83
308.663	10.92
308.877	162.47
309.091	76.46
309.305	62.12
309.519	10.92
309.733	144.04
309.947	47.79
310.161	72.36
310.374	60.07
310.588	51.88
310.802	84.65
311.016	-21.85
311.23	33.45
311.444	78.51
311.658	27.31
311.872	121.51
312.085	55.98
312.299	10.92
312.513	115.37
312.727	43.69
312.941	-21.85
313.154	47.79
313.368	55.98
313.582	37.55
313.796	8.87
314.009	19.11
314.223	6.83
314.437	4.78
314.651	68.27
314.864	43.69
315.078	-5.46
315.292	76.46
315.505	53.93
315.719	74.41
315.933	29.35
316.146	35.5
316.36	-25.94
316.573	127.66
316.787	62.12
317.001	-5.46
317.214	-11.61
317.428	96.94
317.641	68.27
317.855	109.22
318.068	55.98
318.282	-3.41
318.495	111.27
318.709	96.94
318.922	51.88
319.136	107.18
319.349	62.12
319.563	27.31
319.776	70.31
319.99	-54.61
320.203	111.27
320.417	29.35
320.63	84.65
320.843	84.65
321.057	15.02
321.27	76.46
321.483	92.84
321.697	92.84
321.91	78.51
322.124	103.08
322.337	123.56
322.55	43.69
322.763	105.13
322.977	92.84
323.19	4.78
323.403	60.07
323.617	51.88
323.83	80.55
324.043	37.55
324.256	47.79
324.469	12.97
324.683	96.94
324.896	37.55
325.109	76.46
325.322	109.22
325.535	76.46
325.748	51.88
325.962	78.51
326.175	84.65
326.388	51.88
326.601	23.21
326.814	62.12
327.027	21.16
327.24	96.94
327.453	15.02
327.666	62.12
327.879	92.84
328.092	127.66
328.305	86.7
328.518	80.55
328.731	-21.85
328.944	76.46
329.157	64.17
329.37	84.65
329.583	92.84
329.796	29.35
330.009	-21.85
330.222	39.59
330.435	21.16
330.648	84.65
330.861	29.35
331.073	43.69
331.286	76.46
331.499	60.07
331.712	-21.85
331.925	72.36
332.138	76.46
332.35	121.51
332.563	76.46
332.776	168.62
332.989	60.07
333.202	-9.56
333.414	35.5
333.627	76.46
333.84	113.32
334.053	-21.85
334.265	119.46
334.478	70.31
334.691	82.6
334.903	103.08
335.116	53.93
335.329	68.27
335.541	105.13
335.754	141.99
335.966	10.92
336.179	119.46
336.392	43.69
336.604	-1.37
336.817	84.65
337.029	92.84
337.242	37.55
337.454	15.02
337.667	21.16
337.88	55.98
338.092	152.23
338.305	33.45
338.517	27.31
338.729	86.7
338.942	60.07
339.154	31.4
339.367	-21.85
339.579	70.31
339.792	12.97
340.004	98.99
340.217	76.46
340.429	12.97
340.641	-38.23
340.854	-9.56
341.066	101.03
341.278	39.59
341.491	115.37
341.703	84.65
341.915	-21.85
342.128	68.27
342.34	84.65
342.552	-5.46
342.764	78.51
342.977	68.27
343.189	109.22
343.401	2.73
343.613	10.92
343.826	55.98
344.038	4.78
344.25	107.18
344.462	76.46
344.674	92.84
344.886	55.98
345.099	72.36
345.311	55.98
345.523	53.93
345.735	43.69
345.947	111.27
346.159	68.27
346.371	31.4
346.583	25.26
346.795	199.34
347.007	70.31
347.219	37.55
347.431	58.03
347.643	76.46
347.855	78.51
348.067	137.9
348.279	27.31
348.491	133.8
348.703	68.27
348.915	51.88
349.127	82.6
349.339	158.38
349.551	60.07
349.763	119.46
349.975	10.92
350.187	76.46
350.399	96.94
350.61	53.93
350.822	29.35
351.034	43.69
351.246	29.35
351.458	133.8
351.669	55.98
351.881	35.5
352.093	62.12
352.305	64.17
352.517	76.46
352.728	19.11
352.94	39.59
353.152	88.75
353.363	80.55
353.575	94.89
353.787	137.9
353.999	98.99
354.21	96.94
354.422	109.22
354.633	78.51
354.845	23.21
355.057	43.69
355.268	92.84
355.48	101.03
355.692	88.75
355.903	72.36
356.115	64.17
356.326	-38.23
356.538	119.46
356.749	109.22
356.961	45.74
357.172	80.55
357.384	101.03
357.595	133.8
357.807	78.51
358.018	39.59
358.23	33.45
358.441	94.89
358.653	66.22
358.864	76.46
359.075	-7.51
359.287	-9.56
359.498	62.12
359.709	84.65
359.921	62.12
360.132	72.36
360.344	41.64
360.555	10.92
360.766	76.46
360.977	27.31
361.189	51.88
361.4	51.88
361.611	58.03
361.823	141.99
362.034	68.27
362.245	70.31
362.456	37.55
362.667	6.83
362.879	92.84
363.09	70.31
363.301	68.27
363.512	21.16
363.723	64.17
363.935	117.42
364.146	82.6
364.357	45.74
364.568	27.31
364.779	10.92
364.99	158.38
365.201	37.55
365.412	111.27
365.623	43.69
365.834	133.8
366.045	10.92
366.256	96.94
366.467	76.46
366.678	39.59
366.889	109.22
367.1	21.16
367.311	94.89
367.522	10.92
367.733	55.98
367.944	43.69
368.155	111.27
368.366	72.36
368.577	150.18
368.788	125.61
368.999	72.36
369.209	49.83
369.42	12.97
369.631	168.62
369.842	19.11
370.053	139.94
370.264	92.84
370.474	-5.46
370.685	113.32
370.896	109.22
371.107	162.47
371.317	51.88
371.528	76.46
371.739	35.5
371.95	-38.23
372.16	107.18
372.371	78.51
372.582	76.46
372.792	92.84
373.003	62.12
373.214	37.55
373.424	125.61
373.635	47.79
373.846	117.42
374.056	109.22
374.267	76.46
374.477	78.51
374.688	39.59
374.898	-15.7
375.109	35.5
375.319	35.5
375.53	51.88
375.74	92.84
375.951	103.08
376.161	103.08
376.372	133.8
376.582	-7.51
376.793	72.36
377.003	10.92
377.214	43.69
377.424	213.67
377.635	131.75
377.845	133.8
378.055	101.03
378.266	-5.46
378.476	55.98
378.686	68.27
378.897	94.89
379.107	68.27
379.317	43.69
379.528	111.27
379.738	141.99
379.948	76.46
380.158	72.36
380.369	39.59
380.579	43.69
380.789	82.6
380.999	64.17
381.21	37.55
381.42	68.27
381.63	45.74
381.84	123.56
382.05	113.32
382.261	62.12
382.471	58.03
382.681	47.79
382.891	211.62
383.101	55.98
383.311	70.31
383.521	21.16
383.731	154.28
383.941	92.84
384.151	113.32
384.361	86.7
384.571	98.99
384.781	105.13
384.991	127.66
385.201	125.61
385.411	92.84
385.621	125.61
385.831	35.5
386.041	-11.61
386.251	84.65
386.461	84.65
386.671	76.46
386.881	115.37
387.091	76.46
387.301	174.76
387.511	-56.66
387.72	117.42
387.93	92.84
388.14	-3.41
388.35	45.74
388.56	35.5
388.769	162.47
388.979	60.07
389.189	12.97
389.399	88.75
389.609	117.42
389.818	101.03
390.028	70.31
390.238	115.37
390.447	68.27
390.657	144.04
390.867	55.98
391.076	37.55
391.286	96.94
391.496	111.27
391.705	74.41
391.915	101.03
392.125	86.7
392.334	62.12
392.544	133.8
392.753	162.47
392.963	10.92
393.172	53.93
393.382	70.31
393.591	117.42
393.801	166.57
394.01	144.04
394.22	88.75
394.429	68.27
394.639	144.04
394.848	123.56
395.058	133.8
395.267	23.21
395.477	150.18
395.686	80.55
395.895	150.18
396.105	156.33
396.314	131.75
396.524	129.7
396.733	74.41
396.942	121.51
397.152	170.66
397.361	148.14
397.57	172.71
397.78	176.81
397.989	180.9
398.198	109.22
398.407	55.98
398.617	168.62
398.826	27.31
399.035	27.31
399.244	207.53
399.453	182.95
399.663	78.51
399.872	129.7
400.081	84.65
400.29	189.1
400.499	88.75
400.708	203.43
400.917	111.27
401.127	78.51
401.336	107.18
401.545	160.42
401.754	141.99
401.963	199.34
402.172	94.89
402.381	133.8
402.59	176.81
402.799	135.85
403.008	236.2
403.217	215.72
403.426	135.85
403.635	191.14
403.844	129.7
404.053	201.38
404.262	191.14
404.471	156.33
404.68	170.66
404.888	213.67
405.097	174.76
405.306	232.1
405.515	232.1
405.724	203.43
405.933	277.16
406.142	268.97
406.35	207.53
406.559	281.25
406.768	141.99
406.977	340.65
407.185	322.21
407.394	307.88
407.603	197.29
407.812	326.31
408.02	283.3
408.229	232.1
408.438	314.02
408.646	256.68
408.855	277.16
409.064	264.87
409.272	252.58
409.481	316.07
409.69	320.17
409.898	279.21
410.107	316.07
410.315	334.5
410.524	379.56
410.733	469.67
410.941	434.85
411.15	453.28
411.358	514.72
411.567	518.82
411.775	469.67
411.984	527.01
412.192	563.87
412.401	584.35
412.609	580.26
412.818	627.36
413.026	594.59
413.234	676.51
413.443	617.12
413.651	604.83
413.86	668.32
414.068	817.82
414.276	785.05
414.485	701.09
414.693	799.39
414.901	740
415.11	815.77
415.318	866.97
415.526	952.99
415.734	891.55
415.943	846.49
416.151	1024.67
416.359	887.45
416.567	1034.91
416.776	1215.13
416.984	1151.64
417.192	1112.73
417.4	1260.18
417.608	1149.59
417.817	1329.81
418.025	1247.9
418.233	1440.4
418.441	1317.53
418.649	1432.21
418.857	1520.28
419.065	1596.05
419.273	1563.28
419.481	1747.6
419.689	1733.26
419.897	1798.8
420.105	1860.24
420.313	1860.24
420.521	1927.82
420.729	2028.17
420.937	2050.7
421.145	2001.55
421.353	2257.54
421.561	2357.89
421.769	2427.53
421.977	2437.77
422.185	2525.83
422.393	2642.56
422.601	2771.58
422.809	2765.44
423.017	2839.17
423.224	2828.93
423.432	3019.39
423.64	2996.86
423.848	3371.64
424.056	3101.31
424.263	3418.74
424.471	3318.39
424.679	3418.74
424.887	3838.58
425.094	3828.34
425.302	3883.63
425.51	3975.79
425.718	4108.91
425.925	4121.2
426.133	4262.51
426.341	4735.59
426.548	4688.48
426.756	4504.17
426.964	4823.65
427.171	5116.51
427.379	5255.77
427.586	5354.07
427.794	5354.07
428.001	5651.03
428.209	5923.41
428.417	5919.31
428.624	6220.36
428.832	6199.88
429.039	6238.8
429.247	6171.21
429.454	6781.51
429.662	7285.31
429.869	6656.58
430.076	7332.41
430.284	7092.8
430.491	7510.58
430.699	7748.15
430.906	7776.82
431.114	7817.78
431.321	7809.59
431.528	8313.39
431.736	8864.29
431.943	9140.77
432.15	8997.41
432.358	9019.94
432.565	9529.88
432.772	9617.94
432.979	9974.29
433.187	10082.83
433.394	10162.7
433.601	10795.53
433.808	10899.97
434.016	10856.97
434.223	11188.74
434.43	11827.7
434.637	11739.64
434.844	12515.82
435.052	12698.09
435.259	12605.93
435.466	12730.86
435.673	12659.18
435.88	13564.38
436.087	13963.73
436.294	14178.77
436.501	13828.57
436.708	14305.74
436.915	14488.01
437.122	15264.19
437.329	15024.58
437.537	15477.18
437.743	15870.39
437.95	15684.03
438.157	16501.17
438.364	17115.56
438.571	16853.42
438.778	17344.93
438.985	18528.66
439.192	17918.36
439.399	18428.31
439.606	17934.74
439.813	19212.68
440.02	20236.66
440.227	19986.81
440.433	19589.5
440.64	20334.96
440.847	20382.07
441.054	20466.03
441.261	22229.34
441.467	21576.03
441.674	22061.4
441.881	23265.61
442.088	22954.32
442.294	22798.67
442.501	23130.44
442.708	23988.54
442.914	24553.78
443.121	25768.23
443.328	24813.87
443.534	27007.25
443.741	26108.19
443.948	25561.38
444.154	27568.39
444.361	27427.08
444.568	27699.46
444.774	27517.19
444.981	27965.7
445.187	28416.25
445.394	29620.45
445.6	29679.85
445.807	32157.89
446.013	30970.07
446.22	31334.6
446.426	32901.3
446.633	32796.85
446.839	34156.71
447.046	32377.02
447.252	34300.06
447.459	34332.83
447.665	34023.59
447.871	35772.55
448.078	37044.34
448.284	35633.29
448.491	36806.78
448.697	37771.37
448.903	38467.68
449.11	38860.89
449.316	37902.44
449.522	38408.29
449.728	39583.82
449.935	39911.5
450.141	39678.03
450.347	41052.22
450.553	39376.98
450.76	40321.09
450.966	41457.71
451.172	40429.63
451.378	42197.03
451.584	41050.17
451.791	41812.01
451.997	42172.46
452.203	42604.58
452.409	42467.36
452.615	42350.63
452.821	40917.05
453.027	40333.38
453.233	42510.37
453.44	40857.66
453.646	40929.34
453.852	41293.88
454.058	42393.64
454.264	40579.14
454.47	42016.81
454.676	40398.91
454.882	41988.14
455.088	38420.58
455.294	38957.14
455.5	39272.53
455.705	39993.42
455.911	38641.76
456.117	37613.68
456.323	37148.79
456.529	35387.53
456.735	36710.52
456.941	35913.86
457.147	35029.14
457.352	33802.41
457.558	33937.57
457.764	33476.78
457.97	32923.83
458.176	32303.29
458.381	32362.68
458.587	30634.2
458.793	30619.86
458.999	29094.13
459.204	31181.01
459.41	30316.76
459.616	28016.9
459.821	28129.53
460.027	28199.16
460.233	27629.83
460.438	26022.17
460.644	26784.02
460.85	25317.67
461.055	24920.37
461.261	24662.32
461.466	22933.84
461.672	22536.53
461.878	23851.33
462.083	22481.24
462.289	22079.83
462.494	21709.15
462.7	20599.15
462.905	20185.46
463.111	20881.77
463.316	20808.05
463.522	20517.23
463.727	20416.88
463.932	20451.7
464.138	20191.61
464.343	20291.96
464.549	19769.72
464.754	20201.85
464.959	20095.35
465.165	20099.45
465.37	19065.22
465.575	18563.47
465.781	19417.47
465.986	19253.64
466.191	18665.87
466.397	18295.19
466.602	17426.85
466.807	18121.11
467.012	18246.04
467.218	17889.69
467.423	17615.26
467.628	17963.42
467.833	18246.04
468.038	17920.41
468.244	17344.93
468.449	17725.85
468.654	17287.59
468.859	17287.59
469.064	17072.55
469.269	16402.86
469.474	16757.16
469.679	16855.47
469.885	16458.16
470.09	16511.41
470.295	16503.21
470.5	15995.32
470.705	16091.57
470.91	16052.66
471.115	15890.87
471.32	16042.42
471.525	15952.31
471.73	15657.4
471.935	15290.82
472.139	15143.36
472.344	15202.75
472.549	14883.27
472.754	15012.29
472.959	14576.08
473.164	14119.38
473.369	13830.62
473.574	14365.14
473.778	14479.82
473.983	14074.32
474.188	13894.1
474.393	13593.05
474.598	13400.54
474.802	13566.43
475.007	13369.82
475.212	13378.01
475.417	12917.22
475.621	13064.68
475.826	12980.71
476.031	12757.48
476.235	12628.46
476.44	12765.67
476.645	12300.78
476.849	12356.08
477.054	12284.4
477.259	12212.72
477.463	12149.23
477.668	11778.55
477.872	12007.92
478.077	11561.47
478.282	11375.1
478.486	11280.89
478.691	11235.84
478.895	11186.69
479.1	11332.09
479.304	11256.32
479.509	10697.22
479.713	11123.2
479.918	10736.13
480.122	10660.36
480.326	10820.1
480.531	10768.9
480.735	10816.01
480.94	10498.57
481.144	11057.67
481.348	10375.69
481.553	10514.95
481.757	10367.5
481.961	10408.46
482.166	10648.07
482.37	10447.37
482.574	10177.04
482.778	10299.92
482.983	10482.19
483.187	10285.58
483.391	10531.34
483.595	10310.16
483.8	10131.98
484.004	10166.8
484.208	10379.79
484.412	10396.17
484.616	10408.46
484.821	10484.23
485.025	10267.15
485.229	10394.12
485.433	10275.34
485.637	10514.95
485.841	10232.33
486.045	10312.21
486.249	10408.46
486.453	10113.55
486.657	10252.81
486.861	10160.66
487.065	10062.35
487.269	10336.78
487.473	9927.19
487.677	10463.76
487.881	10359.31
488.085	10088.98
488.289	10254.86
488.493	10142.22
488.697	10482.19
488.901	10316.3
489.105	10146.32
489.309	10213.9
489.512	10369.55
489.716	10447.37
489.92	10482.19
490.124	10160.66
490.328	10598.92
490.531	10236.43
490.735	10408.46
490.939	10314.25
491.143	10486.28
491.346	10500.62
491.55	10449.42
491.754	10439.18
491.958	10555.91
492.161	10592.78
492.365	10627.59
492.569	10709.51
492.772	10701.32
492.976	10676.74
493.18	10889.73
493.383	10940.93
493.587	11031.04
493.79	11184.64
493.994	10981.89
494.197	10988.03
494.401	11217.41
494.605	11119.1
494.808	11323.9
495.012	11250.17
495.215	11452.92
495.419	11545.08
495.622	11315.71
495.825	11573.75
496.029	11749.88
496.232	11786.74
496.436	11702.78
496.639	12259.82
496.843	11962.87
497.046	12071.41
497.249	12394.99
497.453	12198.38
497.656	12591.59
497.859	12579.31
498.063	12675.56
498.266	12798.44
498.469	12775.91
498.673	13089.25
498.876	13208.03
499.079	13248.99
499.282	13324.77
499.485	13627.87
499.689	13769.18
499.892	13756.89
500.095	13724.12
500.298	14117.33
500.501	13953.49
500.705	14338.51
500.908	14494.16
501.111	14563.79
501.314	14662.09
501.517	14887.37
501.72	15043.01
501.923	15002.05
502.126	15215.04
502.329	15681.98
502.532	15591.87
502.735	15913.4
502.938	16056.76
503.141	15923.64
503.344	16419.25
503.547	16599.47
503.75	16540.08
503.953	16626.09
504.156	16955.82
504.359	16765.35
504.562	17146.28
504.765	17609.12
504.968	17586.59
505.17	17615.26
505.373	17607.07
505.576	18047.38
505.779	18205.08
505.982	18688.4
506.185	18778.51
506.387	19028.36
506.59	19040.65
506.793	19095.94
506.996	19122.57
507.198	19792.25
507.401	19886.46
507.604	19718.53
507.807	20173.17
508.009	20341.11
508.212	20799.85
508.415	20740.46
508.617	20742.51
508.82	20947.31
509.022	21084.52
509.225	21473.63
509.428	21786.97
509.63	21952.86
509.833	21862.75
510.035	22481.24
510.238	22563.15
510.44	22673.74
510.643	23236.94
510.845	23284.04
511.048	23073.1
511.25	23525.7
511.453	23628.1
511.655	24404.28
511.858	24232.25
512.06	24179
512.262	24686.9
512.465	24783.15
512.667	25119.02
512.87	24996.14
513.072	25026.86
513.274	25899.3
513.477	26147.1
513.679	26007.84
513.881	26339.61
514.084	26806.55
514.286	26638.61
514.488	26962.19
514.69	27564.29
514.893	27496.71
515.095	27560.2
515.297	27799.81
515.499	28164.35
515.701	28303.61
515.904	28653.81
516.106	28874.99
516.308	29087.98
516.51	29303.02
516.712	29321.45
516.914	29761.76
517.116	30054.62
517.318	30517.47
517.52	30232.8
517.722	30251.23
517.925	31080.66
518.127	31310.03
518.329	31566.02
518.531	31437
518.733	31891.65
518.935	31891.65
519.136	32155.84
519.338	32657.59
519.54	32614.59
519.742	32780.47
519.944	32868.53
520.146	33439.92
520.348	33429.68
520.55	33464.49
520.752	33831.08
520.954	34441.37
521.155	33708.2
521.357	34652.31
521.559	34670.75
521.761	35160.21
521.963	35291.28
522.164	35037.33
522.366	35235.98
522.568	35666.06
522.77	35860.62
522.971	35840.14
523.173	35717.26
523.375	36253.83
523.576	36345.98
523.778	36139.14
523.98	36876.41
524.181	36509.82
524.383	36907.13
524.584	37288.05
524.786	37107.83
524.988	37148.79
525.189	37202.03
525.391	37513.33
525.592	37537.9
525.794	37570.67
525.995	37638.25
526.197	37847.15
526.398	37531.76
526.6	37929.06
526.801	37767.27
527.003	38238.31
527.204	38344.8
527.406	38115.43
527.607	38502.5
527.808	38412.38
528.01	38015.08
528.211	38004.84
528.412	38903.9
528.614	38520.93
528.815	38379.62
529.016	38654.04
529.218	38557.79
529.419	38410.34
529.62	38570.08
529.822	38619.23
530.023	38377.57
530.224	38404.19
530.425	38369.38
530.626	38328.42
530.828	37902.44
531.029	38983.77
531.23	38568.03
531.431	38406.24
531.632	38738.01
531.833	38449.25
532.035	38725.72
532.236	38588.51
532.437	38746.2
532.638	38305.89
532.839	38631.52
533.04	38342.75
533.241	38082.66
533.442	38596.7
533.643	38348.9
533.844	38291.55
534.045	38484.06
534.246	37877.86
534.447	38273.12
534.648	38076.52
534.849	37927.02
535.05	38187.11
535.251	38287.46
535.451	38140
535.652	37884.01
535.853	38324.32
536.054	38113.38
536.255	38039.65
536.456	37640.3
536.657	38203.49
536.857	37681.26
537.058	38025.32
537.259	38107.24
537.46	37959.78
537.66	37914.73
537.861	37654.64
538.062	37668.97
538.263	37554.29
538.463	37572.72
538.664	37658.73
538.865	37677.16
539.065	37691.5
539.266	37064.82
539.466	38129.76
539.667	37402.74
539.868	38025.32
540.068	37281.91
540.269	37453.94
540.469	37765.23
540.67	37412.98
540.87	37210.23
541.071	37226.61
541.271	37623.92
541.472	37582.96
541.672	37202.03
541.873	37324.91
542.073	37228.66
542.274	37544.05
542.474	37318.77
542.675	37199.99
542.875	37390.45
543.075	36946.04
543.276	36720.76
543.476	37666.92
543.676	37195.89
543.877	37384.3
544.077	37269.62
544.277	37156.98
544.478	37286
544.678	37257.33
544.878	37060.73
545.078	37134.45
545.279	36817.02
545.479	36610.17
545.679	37380.21
545.879	37279.86
546.079	36913.27
546.28	37091.44
546.48	36339.84
546.68	36911.22
546.88	36849.78
547.08	36700.28
547.28	37042.29
547.48	36644.99
547.68	37101.68
547.88	36628.6
548.081	36878.46
548.281	36718.71
548.481	36921.46
548.681	37019.77
548.881	36866.17
549.081	36802.68
549.28	36796.54
549.48	37120.12
549.68	36618.36
549.88	37187.7
550.08	36888.7
550.28	37023.86
550.48	36933.75
550.68	36999.29
550.88	36847.74
551.08	37191.8
551.279	37019.77
551.479	36837.5
551.679	36896.89
551.879	36802.68
552.079	37036.15
552.278	36935.8
552.478	36864.12
552.678	36784.25
552.878	36970.61
553.077	36937.85
553.277	36425.85
553.477	37202.03
553.676	37025.91
553.876	36984.95
554.076	36855.93
554.275	37105.78
554.475	36747.39
554.674	36984.95
554.874	36966.52
555.074	36968.57
555.273	37331.06
555.473	36917.37
555.672	37279.86
555.872	37148.79
556.071	37343.34
556.271	37341.3
556.47	37308.53
556.67	37202.03
556.869	37167.22
557.068	37382.26
557.268	36962.42
557.467	37281.91
557.667	37392.5
557.866	37404.78
558.065	37220.47
558.265	36876.41
558.464	36833.4
558.663	37183.6
558.863	36892.79
559.062	37816.43
559.261	37197.94
559.461	37109.88
559.66	36880.5
559.859	37267.57
560.058	36749.43
560.258	37615.72
560.457	37032.05
560.656	37281.91
560.855	37120.12
561.054	37208.18
561.253	36739.19
561.453	37009.53
561.652	37556.33
561.851	37019.77
562.05	37341.3
562.249	36522.11
562.448	37277.81
562.647	37003.38
562.846	37359.73
563.045	36755.58
563.244	36630.65
563.443	36884.6
563.642	36128.9
563.841	37003.38
564.04	36769.91
564.239	36933.75
564.438	36610.17
564.637	36812.92
564.836	36847.74
565.035	36649.08
565.234	36626.56
565.432	36653.18
565.631	36487.29
565.83	36350.08
566.029	36419.71
566.228	36470.91
566.427	36280.45
566.625	36032.64
566.824	36350.08
567.023	36583.55
567.222	35958.92
567.42	36741.24
567.619	36042.88
567.818	36087.94
568.016	35958.92
568.215	36210.82
568.414	35877
568.612	35827.85
568.811	35621
569.01	36016.26
569.208	35408.01
569.407	35698.83
569.605	35373.2
569.804	35831.94
570.002	35385.49
570.201	35408.01
570.4	35233.94
570.598	34926.74
570.797	35018.9
570.995	35291.28
571.193	35025.04
571.392	35373.2
571.59	34680.99
571.789	35432.59
571.987	34777.24
572.186	34832.54
572.384	34676.89
572.582	34846.87
572.781	34764.95
572.979	34199.71
573.177	34594.97
573.376	34336.93
573.574	34676.89
573.772	34281.63
573.971	34150.56
574.169	34142.37
574.367	33751.21
574.565	34234.53
574.763	33945.76
574.962	33497.26
575.16	33540.27
575.358	33495.21
575.556	33401
575.754	33913
575.952	33530.03
576.151	33581.23
576.349	33077.43
576.547	33274.03
576.745	32975.03
576.943	33071.28
577.141	32696.5
577.339	33003.7
577.537	32903.35
577.735	32800.95
577.933	32417.98
578.131	32659.64
578.329	32612.54
578.527	32149.7
578.725	32641.21
578.923	32336.06
579.121	31922.37
579.319	32172.22
579.516	32403.64
579.714	32170.18
579.912	32262.33
580.11	32014.53
580.308	31887.56
580.506	31557.83
580.704	31359.18
580.901	31639.75
581.099	31951.04
581.297	31455.43
581.495	31465.67
581.692	31150.29
581.89	30941.39
582.088	31246.54
582.285	30789.84
582.483	31693
582.681	31072.46
582.878	30927.06
583.076	30685.4
583.274	30894.29
583.471	30611.67
583.669	30882
583.866	30486.75
584.064	30783.7
584.262	30347.48
584.459	30417.11
584.657	30189.79
584.854	30294.24
585.052	29892.83
585.249	29817.06
585.447	30193.89
585.644	29868.26
585.841	29552.87
586.039	30011.62
586.236	29862.11
586.434	29845.73
586.631	29573.35
586.828	29348.07
587.026	29389.03
587.223	29542.63
587.42	29333.74
587.618	29401.32
587.815	29368.55
588.012	28795.12
588.21	29130.99
588.407	29184.24
588.604	28895.47
588.801	28723.44
588.999	29190.38
589.196	28838.13
589.393	28629.24
589.59	28424.44
589.787	28436.73
589.984	28584.18
590.182	28436.73
590.379	28657.91
590.576	28309.75
590.773	28555.51
590.97	28178.68
591.167	28197.12
591.364	28158.2
591.561	28231.93
591.758	27855.11
591.955	28150.01
592.152	28313.85
592.349	27715.84
592.546	27932.93
592.743	28197.12
592.94	27666.69
593.137	27844.87
593.334	27885.83
593.531	27222.28
593.727	27670.79
593.924	27263.24
594.121	27246.86
594.318	27496.71
594.515	27257.1
594.712	27615.49
594.908	27144.46
595.105	27181.32
595.302	27056.4
595.499	27005.2
595.696	27371.78
595.892	26962.19
596.089	27169.04
596.286	27189.52
596.482	26906.9
596.679	26976.53
596.876	26753.3
597.072	26820.88
597.269	26943.76
597.466	26558.74
597.662	26876.18
597.859	26665.24
598.055	26997.01
598.252	26824.98
598.448	26816.79
598.645	26591.51
598.841	26452.25
599.038	26806.55
599.234	26769.68
599.431	26777.87
599.627	26444.06
599.824	26837.27
600.02	26532.12
600.217	26528.02
600.413	26161.44
600.609	26143
600.806	26421.53
601.002	26517.78
601.198	26390.81
601.395	26294.55
601.591	26362.14
601.787	26599.7
601.984	26351.9
602.18	26870.03
602.376	26171.68
602.572	26444.06
602.769	26294.55
602.965	26312.99
603.161	26493.21
603.357	26235.16
603.553	26149.15
603.75	26781.97
603.946	26390.81
604.142	26466.58
604.338	26026.27
604.534	26358.04
604.73	26278.17
604.926	26339.61
605.122	26331.42
605.318	26308.89
605.514	26392.86
605.71	26321.18
605.906	26560.79
606.102	26196.25
606.298	26605.84
606.494	26337.56
606.69	26331.42
606.886	26605.84
607.082	26224.92
607.278	26716.44
607.474	26499.35
607.67	26317.08
607.866	26321.18
608.062	26644.76
608.257	26327.32
608.453	26274.07
608.649	26798.35
608.845	26601.75
609.041	26409.24
609.236	26958.1
609.432	26603.8
609.628	26804.5
609.824	26652.95
610.019	26573.08
610.215	26480.92
610.411	26751.25
610.606	26442.01
610.802	26788.11
610.998	26837.27
611.193	26796.31
611.389	26994.96
611.584	26896.66
611.78	26622.23
611.976	26919.18
612.171	27181.32
612.367	26954
612.562	26827.03
612.758	26618.13
612.953	26599.7
613.149	26962.19
613.344	26685.72
613.539	27392.26
613.735	26513.69
613.93	27189.52
614.126	26937.62
614.321	27060.49
614.517	26736.91
614.712	27148.56
614.907	27332.87
615.103	27392.26
615.298	26798.35
615.493	27359.5
615.688	27103.5
615.884	27277.58
616.079	26878.22
616.274	27273.48
616.47	27048.21
616.665	27197.71
616.86	26814.74
617.055	27056.4
617.25	26853.65
617.445	26972.43
617.641	26898.7
617.836	27193.61
618.031	26452.25
618.226	26857.74
618.421	26808.59
618.616	27048.21
618.811	26614.04
619.006	27164.94
619.201	26308.89
619.396	26534.17
619.591	26337.56
619.786	26515.73
619.981	26257.69
620.176	26267.93
620.371	25852.19
620.566	26040.61
620.761	25997.6
620.956	26056.99
621.151	25676.07
621.346	26001.69
621.541	25577.76
621.735	25874.72
621.93	25377.06
622.125	25340.2
622.32	24936.75
622.515	25159.98
622.709	25180.46
622.904	25293.1
623.099	24820.02
623.294	24740.15
623.488	24707.38
623.683	24979.76
623.878	24109.37
624.072	24619.31
624.267	24353.08
624.462	24158.52
624.656	24103.23
624.851	24209.72
625.046	23767.36
625.24	24166.71
625.435	23644.48
625.629	23392.58
625.824	23605.57
626.018	23929.15
626.213	23060.81
626.407	23091.53
626.602	22997.32
626.796	23228.74
626.991	22870.35
627.185	22985.04
627.38	22792.53
627.574	22718.8
627.768	22341.97
627.963	22221.14
628.157	22008.15
628.352	22272.34
628.546	21707.1
628.74	22131.03
628.935	21825.89
629.129	21827.93
629.323	21494.11
629.517	21565.79
629.712	21516.64
629.906	21477.73
630.1	21082.47
630.294	21320.04
630.489	20734.32
630.683	20998.51
630.877	20912.49
631.071	20662.64
631.265	20775.28
631.459	20578.67
631.653	20523.38
631.848	20758.89
632.042	20142.46
632.236	20367.73
632.43	20068.73
632.624	20078.97
632.818	20128.12
633.012	19949.95
633.206	19566.98
633.4	19736.96
633.594	19442.05
633.788	19421.57
633.982	19306.88
634.176	19362.18
634.369	19229.06
634.563	19145.09
634.757	18895.24
634.951	18870.67
635.145	18753.93
635.339	18657.68
635.533	18698.64
635.726	18774.41
635.92	18018.71
636.114	18346.39
636.308	18532.75
636.501	18422.16
636.695	18104.73
636.889	17586.59
637.083	17865.11
637.276	17721.76
637.47	17549.73
637.664	17709.47
637.857	17887.64
638.051	17437.09
638.244	17174.95
638.438	17285.54
638.632	17179.04
638.825	17193.38
639.019	16851.37
639.212	16710.06
639.406	16931.24
639.599	16656.81
639.793	16628.14
639.986	16404.91
640.18	16304.56
640.373	16347.57
640.567	16282.03
640.76	16236.98
640.954	16042.42
641.147	15878.58
641.34	15681.98
641.534	15794.62
641.727	15620.54
641.92	15591.87
642.114	15698.36
642.307	15362.5
642.5	15284.67
642.694	15208.9
642.887	15102.4
643.08	15174.08
643.273	15159.75
643.467	14989.77
643.66	14694.86
643.853	14692.81
644.046	14541.26
644.239	14559.69
644.432	14578.12
644.626	14381.52
644.819	14447.05
645.012	14141.91
645.205	14014.93
645.398	14285.26
645.591	14154.19
645.784	14016.98
645.977	13703.64
646.17	14031.32
646.363	13789.66
646.556	13734.36
646.749	13517.28
646.942	13881.81
647.135	13273.57
647.328	13470.17
647.521	13283.81
647.714	13152.74
647.907	13214.18
648.099	13068.77
648.292	13150.69
648.485	12929.51
648.678	12909.03
648.871	12673.51
649.064	12577.26
649.256	12702.18
649.449	12560.88
649.642	12335.6
649.835	12444.14
650.027	12378.61
650.22	12167.67
650.413	12153.33
650.605	12120.56
650.798	12202.48
650.991	12020.21
651.183	12186.1
651.376	11815.41
651.568	11962.87
651.761	11817.46
651.954	11823.61
652.146	11536.89
652.339	11532.79
652.531	11567.61
652.724	11436.54
652.916	11366.91
653.109	11360.77
653.301	11250.17
653.494	11276.8
653.686	11104.77
653.879	11024.9
654.071	11170.3
654.263	11147.78
654.456	11039.23
654.648	11002.37
654.84	10887.68
655.033	10846.73
655.225	10752.52
655.417	10635.78
655.61	10508.81
655.802	10648.07
655.994	10390.03
656.186	10519.05
656.379	10355.21
656.571	10344.97
656.763	10316.3
656.955	10361.36
657.148	10213.9
657.34	10226.19
657.532	9910.8
657.724	10127.89
657.916	9867.8
658.108	10007.06
658.3	9861.65
658.492	9673.24
658.684	9714.2
658.876	9593.37
659.068	9716.25
659.26	9470.49
659.452	9488.92
659.644	9568.79
659.836	9423.39
660.028	9558.55
660.22	9196.06
660.412	9081.38
660.604	8968.74
660.796	9114.14
660.988	9357.85
661.18	8940.07
661.372	9116.19
661.563	9028.13
661.755	8817.19
661.947	8872.48
662.139	8849.96
662.331	8714.79
662.522	8761.89
662.714	8600.1
662.906	8600.1
663.097	8462.89
663.289	8606.25
663.481	8755.75
663.673	8481.32
663.864	8262.19
664.056	8436.27
664.247	8456.75
664.439	8172.08
664.631	8483.37
664.822	8200.75
665.014	8198.7
665.205	8088.11
665.397	8038.96
665.588	8180.27
665.78	8254
665.971	8002.1
666.163	7977.52
666.354	7879.22
666.546	7819.83
666.737	7995.95
666.929	7682.61
667.12	7801.4
667.311	7717.43
667.503	7539.26
667.694	7490.1
667.885	7639.61
668.077	7520.82
668.268	7465.53
668.459	7549.5
668.651	7289.4
668.842	7215.68
669.033	7197.24
669.224	7109.18
669.416	7326.27
669.607	7119.42
669.798	7246.4
669.989	7385.66
670.18	6955.58
670.371	7266.88
670.563	7062.08
670.754	7047.74
670.945	6963.78
671.136	6926.91
671.327	7107.13
671.518	6720.07
671.709	6939.2
671.9	6894.15
672.091	6828.61
672.282	6746.69
672.473	6632.01
672.664	6791.75
672.855	6664.77
673.046	6720.07
673.237	6646.34
673.428	6560.33
673.619	6683.2
673.809	6578.76
674	6632.01
674.191	6642.25
674.382	6541.89
674.573	6431.3
674.764	6480.46
674.954	6507.08
675.145	6482.5
675.336	6396.49
675.527	6320.71
675.717	6398.54
675.908	6431.3
676.099	6347.34
676.289	6255.18
676.48	6216.27
676.671	6177.36
676.861	6263.37
677.052	6187.6
677.243	6165.07
677.433	6062.67
677.624	6091.34
677.814	6056.53
678.005	6095.44
678.195	6068.81
678.386	6079.05
678.576	5947.98
678.767	5915.22
678.957	6134.35
679.148	6074.96
679.338	6068.81
679.529	6048.33
679.719	5829.2
679.909	6165.07
680.1	5890.64
680.29	5837.39
680.481	5835.35
680.671	5790.29
680.861	5773.91
681.052	5990.99
681.242	5792.34
681.432	5859.92
681.622	5796.43
681.813	5655.12
682.003	5849.68
682.193	5851.73
682.383	5710.42
682.573	5696.08
682.764	5761.62
682.954	5710.42
683.144	5583.45
683.334	5677.65
683.524	5614.16
683.714	5624.4
683.904	5593.69
684.094	5704.28
684.284	5618.26
684.474	5601.88
684.664	5528.15
684.854	5569.11
685.044	5384.79
685.234	5530.2
685.424	5550.68
685.614	5605.97
685.804	5354.07
685.994	5454.42
686.184	5536.34
686.374	5579.35
686.564	5352.02
686.753	5362.26
686.943	5266.01
687.133	5315.16
687.323	5442.14
687.513	5358.17
687.702	5368.41
687.892	5284.44
688.082	5216.86
688.272	5286.49
688.461	5182.04
688.651	5270.11
688.841	5163.61
689.03	5304.92
689.22	5048.93
689.41	5376.6
689.599	5022.3
689.789	5100.12
689.979	5149.28
690.168	5212.76
690.358	5065.31
690.547	5040.73
690.737	5034.59
690.926	5151.32
691.116	4887.14
691.305	5167.71
691.495	4971.1
691.684	4950.62
691.874	4991.58
692.063	4930.14
692.252	4924
692.442	4913.76
692.631	4866.66
692.82	4811.36
693.01	4854.37
693.199	4835.94
693.388	4713.06
693.578	4729.44
693.767	4711.01
693.956	4616.8
694.146	4745.83
694.335	4729.44
694.524	4715.11
694.713	4528.74
694.902	4825.7
695.092	4659.81
695.281	4725.35
695.47	4516.45
695.659	4713.06
695.848	4649.57
696.037	4819.55
696.226	4616.8
696.415	4543.08
696.604	4651.62
696.793	4510.31
696.982	4547.17
697.171	4340.33
697.36	4520.55
697.549	4594.28
697.738	4377.19
697.927	4455.01
698.116	4524.65
698.305	4442.73
698.494	4418.15
698.683	4369
698.872	4485.73
699.061	4369
699.25	4452.97
699.438	4475.49
699.627	4434.53
699.816	4389.48
700.005	4239.98
700.193	4280.94
700.382	4375.14
700.571	4235.88
700.76	4176.49
700.948	4205.16
701.137	4199.02
701.326	4225.64
701.514	4237.93
701.703	4190.83
701.892	4115.05
702.08	4139.63
702.269	4110.96
702.457	4010.61
702.646	4151.92
702.834	4106.86
703.023	4029.04
703.212	3930.73
703.4	4135.53
703.589	4057.71
703.777	4123.24
703.965	4168.3
704.154	4020.85
704.342	3959.41
704.531	3994.22
704.719	3897.97
704.907	4102.76
705.096	4000.37
705.284	3881.58
705.472	3930.73
705.661	3873.39
705.849	3902.06
706.037	3986.03
706.226	3926.64
706.414	3824.24
706.602	3846.77
706.79	3959.41
706.979	3910.26
707.167	3850.86
707.355	3795.57
707.543	3803.76
707.731	3965.55
707.919	3713.65
708.107	3689.07
708.296	3641.97
708.484	3887.73
708.672	3781.23
708.86	3631.73
709.048	3682.93
709.236	3770.99
709.424	3695.22
709.612	3543.67
709.8	3615.35
709.988	3691.12
710.176	3748.47
710.364	3467.89
710.551	3652.21
710.739	3582.58
710.927	3623.54
711.115	3539.57
711.303	3508.85
711.491	3402.36
711.679	3465.85
711.866	3740.27
712.054	3467.89
712.242	3510.9
712.43	3476.09
712.617	3400.31
712.805	3656.31
712.993	3388.02
713.181	3242.62
713.368	3299.96
713.556	3435.13
713.744	3285.62
713.931	3451.51
714.119	3379.83
714.306	3304.06
714.494	3357.3
714.682	3385.97
714.869	3287.67
715.057	3236.47
715.244	3213.95
715.432	3293.82
715.619	3232.38
715.807	3238.52
715.994	3252.86
716.182	3222.14
716.369	3230.33
716.556	3259
716.744	3132.03
716.931	3117.69
717.119	3086.97
717.306	3273.34
717.493	3185.27
717.681	3230.33
717.868	2984.57
718.055	3117.69
718.242	3156.6
718.43	3101.31
718.617	3091.07
718.804	3107.45
718.991	3158.65
719.179	3101.31
719.366	3011.2
719.553	3005.05
719.74	2976.38
719.927	3095.16
720.114	3043.96
720.301	2923.13
720.488	3031.68
720.676	3050.11
720.863	2986.62
721.05	3025.53
721.237	2943.61
721.424	2996.86
721.611	3000.96
721.798	2984.57
721.985	2927.23
722.172	2722.43
722.358	2790.02
722.545	2919.04
722.732	2812.54
722.919	2916.99
723.106	2853.5
723.293	2777.73
723.48	2724.48
723.667	2943.61
723.853	2855.55
724.04	2853.5
724.227	2732.67
724.414	2714.24
724.6	2656.9
724.787	2980.48
724.974	2722.43
725.161	2644.61
725.347	2704
725.534	2740.86
725.72	2808.45
725.907	2742.91
726.094	2642.56
726.28	2740.86
726.467	2624.13
726.653	2525.83
726.84	2634.37
727.027	2730.62
727.213	2656.9
727.4	2708.1
727.586	2656.9
727.773	2665.09
727.959	2660.99
728.145	2572.93
728.332	2570.88
728.518	2624.13
728.705	2685.57
728.891	2579.08
729.077	2591.36
729.264	2534.02
729.45	2587.27
729.636	2550.4
729.823	2560.64
730.009	2544.26
730.195	2519.68
730.382	2499.2
730.568	2579.08
730.754	2488.96
730.94	2466.44
731.126	2484.87
731.313	2450.05
731.499	2435.72
731.685	2550.4
731.871	2470.53
732.057	2534.02
732.243	2437.77
732.429	2460.29
732.615	2466.44
732.801	2550.4
732.987	2425.48
733.173	2480.77
733.359	2372.23
733.545	2433.67
733.731	2398.85
733.917	2460.29
734.103	2427.53
734.289	2431.62
734.475	2413.19
734.661	2382.47
734.847	2321.03
735.033	2312.84
735.219	2296.46
735.404	2386.57
735.59	2273.93
735.776	2321.03
735.962	2288.26
736.148	2351.75
736.333	2255.5
736.519	2243.21
736.705	2278.02
736.89	2251.4
737.076	2314.89
737.262	2132.62
737.447	2232.97
737.633	2194.06
737.819	2239.11
738.004	2232.97
738.19	2153.1
738.375	2239.11
738.561	2196.11
738.747	2228.87
738.932	2118.28
739.118	2171.53
739.303	2138.76
739.489	2134.67
739.674	2230.92
739.859	2165.39
740.045	2155.15
740.23	2192.01
740.416	2085.51
740.601	2120.33
740.786	2038.41
740.972	2044.56
741.157	2140.81
741.342	2036.36
741.528	2069.13
741.713	2067.08
741.898	2067.08
742.084	1870.48
742.269	2038.41
742.454	1960.59
742.639	2001.55
742.824	1882.77
743.01	2034.32
743.195	2181.77
743.38	1878.67
743.565	2056.84
743.75	2028.17
743.935	1923.73
744.12	1936.01
744.305	1862.29
744.49	1931.92
744.675	1968.78
744.86	1952.4
745.045	1919.63
745.23	1796.75
745.415	1962.64
745.6	1921.68
745.785	1815.18
745.97	1927.82
746.155	1790.61
746.34	1878.67
746.525	1856.14
746.71	1704.59
746.895	1761.94
747.079	1686.16
747.264	1804.94
747.449	1770.13
747.634	1811.09
747.819	1710.74
748.003	1745.55
748.188	1723.02
748.373	1700.5
748.557	1682.07
748.742	1698.45
748.927	1784.46
749.111	1755.79
749.296	1663.63
749.481	1663.63
749.665	1583.76
749.85	1608.34
750.034	1645.2
750.219	1583.76
750.404	1577.62
750.588	1675.92
750.773	1571.47
750.957	1567.38
751.141	1442.45
751.326	1594
751.51	1452.69
751.695	1434.26
751.879	1501.84
752.064	1579.67
752.248	1469.08
752.432	1493.65
752.617	1387.16
752.801	1503.89
752.985	1434.26
753.17	1493.65
753.354	1317.53
753.538	1391.25
753.722	1505.94
753.907	1421.97
754.091	1385.11
754.275	1440.4
754.459	1395.35
754.643	1352.34
754.828	1321.62
755.012	1395.35
755.196	1366.68
755.38	1325.72
755.564	1321.62
755.748	1297.05
755.932	1389.21
756.116	1245.85
756.3	1288.86
756.484	1172.12
756.668	1305.24
756.852	1247.9
757.036	1219.22
757.22	1274.52
757.404	1256.09
757.588	1194.65
757.772	1241.75
757.956	1231.51
758.14	1190.55
758.323	1118.87
758.507	1120.92
758.691	1182.36
758.875	1141.4
759.059	1159.83
759.242	1190.55
759.426	1149.59
759.61	1098.39
759.794	1120.92
759.977	1110.68
760.161	1125.02
760.345	1012.38
760.528	1088.15
760.712	1112.73
760.895	1108.63
761.079	1127.07
761.263	979.61
761.446	1145.5
761.63	1172.12
761.813	1051.29
761.997	1028.76
762.18	1006.24
762.364	1051.29
762.547	998.04
762.731	1000.09
762.914	985.76
763.098	1075.87
763.281	946.84
763.464	1059.48
763.648	905.88
763.831	1096.35
764.015	957.08
764.198	985.76
764.381	971.42
764.564	944.8
764.748	991.9
764.931	998.04
765.114	969.37
765.297	1020.57
765.481	979.61
765.664	1002.14
765.847	903.84
766.03	1051.29
766.213	952.99
766.397	946.84
766.58	916.12
766.763	946.84
766.946	1002.14
767.129	907.93
767.312	899.74
767.495	936.6
767.678	930.46
767.861	944.8
768.044	844.45
768.227	969.37
768.41	887.45
768.593	834.21
768.776	881.31
768.959	934.56
769.142	936.6
769.324	961.18
769.507	936.6
769.69	885.41
769.873	914.08
770.056	928.41
770.239	828.06
770.421	881.31
770.604	895.64
770.787	881.31
770.97	813.73
771.152	799.39
771.335	907.93
771.518	828.06
771.7	803.49
771.883	873.12
772.066	797.34
772.248	889.5
772.431	733.86
772.613	785.05
772.796	823.97
772.978	742.05
773.161	772.77
773.343	805.53
773.526	723.62
773.708	805.53
773.891	760.48
774.073	797.34
774.256	846.49
774.438	828.06
774.621	746.14
774.803	830.11
774.985	789.15
775.168	721.57
775.35	707.23
775.532	658.08
775.715	780.96
775.897	703.14
776.079	760.48
776.261	742.05
776.444	719.52
776.626	694.94
776.808	748.19
776.99	682.66
777.173	680.61
777.355	682.66
777.537	707.23
777.719	645.79
777.901	725.66
778.083	617.12
778.265	613.03
778.447	721.57
778.629	637.6
778.811	623.27
778.993	660.13
779.175	764.57
779.357	580.26
779.539	574.11
779.721	645.79
779.903	692.9
780.085	604.83
780.267	670.37
780.449	619.17
780.631	670.37
780.812	600.74
780.994	584.35
781.176	592.55
781.358	641.7
781.54	518.82
781.721	635.55
781.903	641.7
782.085	570.02
782.267	563.87
782.448	547.49
782.63	557.73
782.812	531.11
782.993	559.78
783.175	502.43
783.357	504.48
783.538	527.01
783.72	553.63
783.901	508.58
784.083	514.72
784.264	488.1
784.446	445.09
784.627	492.2
784.809	527.01
784.99	404.13
785.172	518.82
785.353	498.34
785.535	432.8
785.716	395.94
785.897	412.32
786.079	441
786.26	445.09
786.441	447.14
786.623	404.13
786.804	426.66
786.985	514.72
787.167	512.67
787.348	373.41
787.529	512.67
787.71	486.05
787.891	469.67
788.073	424.61
788.254	404.13
788.435	477.86
788.616	395.94
788.797	377.51
788.978	332.45
789.159	397.99
789.34	412.32
789.522	359.08
789.703	379.56
789.884	473.76
790.065	404.13
790.246	453.28
790.427	397.99
790.607	436.9
790.788	367.27
790.969	354.98
791.15	326.31
791.331	346.79
791.512	293.54
791.693	334.5
791.874	389.8
792.054	447.14
792.235	365.22
792.416	287.4
792.597	338.6
792.778	395.94
792.958	373.41
793.139	334.5
793.32	354.98
793.5	289.45
793.681	447.14
793.862	363.17
794.042	373.41
794.223	299.69
794.404	305.83
794.584	297.64
794.765	297.64
794.945	264.87
795.126	318.12
795.306	389.8
795.487	338.6
795.667	260.77
795.848	291.49
796.028	322.21
796.209	314.02
796.389	367.27
796.57	320.17
796.75	311.97
796.93	273.06
797.111	256.68
797.291	340.65
797.471	281.25
797.652	330.41
797.832	314.02
798.012	354.98
798.192	182.95
798.373	268.97
798.553	318.12
798.733	297.64
798.913	228.01
799.093	369.32
799.274	299.69
799.454	223.91
799.634	297.64
799.814	283.3
799.994	275.11
800.174	279.21
800.354	256.68
800.534	236.2
800.714	287.4
800.894	285.35
801.074	219.82
801.254	281.25
801.434	221.86
801.614	230.06
801.794	262.82
801.974	993.95
802.154	232.1
802.334	303.78
802.514	275.11
802.693	211.62
802.873	176.81
803.053	268.97
803.233	219.82
803.413	242.34
803.592	307.88
803.772	242.34
803.952	195.24
804.131	176.81
804.311	211.62
804.491	314.02
804.67	205.48
804.85	187.05
805.03	215.72
805.209	228.01
805.389	185
805.568	232.1
805.748	234.15
805.928	236.2
806.107	187.05
806.287	158.38
806.466	178.86
806.646	127.66
806.825	234.15
807.004	240.3
807.184	166.57
807.363	234.15
807.543	154.28
807.722	154.28
807.901	234.15
808.081	264.87
808.26	185
808.439	234.15
808.619	150.18
808.798	174.76
808.977	101.03
809.156	207.53
809.336	232.1
809.515	207.53
809.694	125.61
809.873	242.34
810.052	168.62
810.231	225.96
810.411	164.52
810.59	168.62
810.769	191.14
810.948	240.3
811.127	117.42
811.306	123.56
811.485	219.82
811.664	289.45
811.843	174.76
812.022	228.01
812.201	203.43
812.38	144.04
812.559	121.51
812.737	170.66
812.916	111.27
813.095	162.47
813.274	201.38
813.453	168.62
813.632	225.96
813.811	232.1
813.989	76.46
814.168	170.66
814.347	101.03
814.526	172.71
814.704	178.86
814.883	174.76
815.062	133.8
815.24	135.85
815.419	127.66
815.598	232.1
815.776	80.55
815.955	213.67
816.133	135.85
816.312	178.86
816.49	207.53
816.669	127.66
816.847	121.51
817.026	209.58
817.204	158.38
817.383	141.99
817.561	29.35
817.74	117.42
817.918	176.81
818.097	139.94
818.275	176.81
818.453	176.81
818.632	174.76
818.81	101.03
818.988	176.81
819.167	123.56
819.345	68.27
819.523	117.42
819.701	166.57
819.879	170.66
820.058	166.57
820.236	150.18
820.414	123.56
820.592	117.42
820.77	176.81
820.948	92.84
821.127	92.84
821.305	82.6
821.483	109.22
821.661	193.19
821.839	185
822.017	113.32
822.195	90.79
822.373	168.62
822.551	121.51
822.729	176.81
822.907	51.88
823.085	137.9
823.262	121.51
823.44	96.94
823.618	144.04
823.796	127.66
823.974	76.46
824.152	76.46
824.329	55.98
824.507	88.75
824.685	166.57
824.863	144.04
825.04	84.65
825.218	146.09
825.396	53.93
825.574	158.38
825.751	141.99
825.929	141.99
826.107	133.8
826.284	125.61
826.462	84.65
826.639	53.93
826.817	101.03
826.994	150.18
827.172	92.84
827.349	166.57
827.527	27.31
827.704	92.84
827.882	166.57
828.059	68.27
828.237	125.61
828.414	84.65
828.591	74.41
828.769	129.7
828.946	33.45
829.124	98.99
829.301	135.85
829.478	82.6
829.655	101.03
829.833	121.51
830.01	45.74
830.187	96.94
830.364	78.51
830.542	162.47
830.719	139.94
830.896	111.27
831.073	105.13
831.25	53.93
831.427	150.18
831.604	113.32
831.782	94.89
831.959	141.99
832.136	21.16
832.313	133.8
832.49	76.46
832.667	55.98
832.844	105.13
833.021	70.31
833.198	117.42
833.374	133.8
833.551	53.93
833.728	78.51
833.905	37.55
834.082	-19.8
834.259	150.18
834.436	45.74
834.612	43.69
834.789	197.29
834.966	92.84
835.143	105.13
835.319	51.88
835.496	101.03
835.673	117.42
835.85	197.29
836.026	15.02
836.203	150.18
836.38	105.13
836.556	84.65
836.733	8.87
836.909	101.03
837.086	-13.65
837.262	55.98
837.439	23.21
837.616	107.18
837.792	76.46
837.968	96.94
838.145	90.79
838.321	88.75
838.498	107.18
838.674	117.42
838.851	105.13
839.027	68.27
839.203	23.21
839.38	144.04
839.556	51.88
839.732	64.17
839.909	156.33
840.085	64.17
840.261	8.87
840.437	37.55
840.614	76.46
840.79	201.38
840.966	150.18
841.142	117.42
841.318	105.13
841.494	119.46
841.671	129.7
841.847	60.07
842.023	23.21
842.199	72.36
842.375	119.46
842.551	21.16
842.727	-5.46
842.903	121.51
843.079	92.84
843.255	66.22
843.431	19.11
843.607	68.27
843.783	68.27
843.959	45.74
844.134	-5.46
844.31	154.28
844.486	55.98
844.662	43.69
844.838	101.03
845.013	131.75
845.189	84.65
845.365	125.61
845.541	19.11
845.716	31.4
845.892	101.03
846.068	37.55
846.244	60.07
846.419	125.61
846.595	2.73
846.77	-56.66
846.946	92.84
847.122	76.46
847.297	55.98
847.473	119.46
847.648	0.68
847.824	125.61
847.999	-21.85
848.175	21.16
848.35	84.65
848.526	92.84
848.701	76.46
848.876	84.65
849.052	74.41
849.227	64.17
849.403	64.17
849.578	41.64
849.753	35.5
849.929	68.27
850.104	33.45
850.279	-17.75
850.454	127.66
850.63	109.22
850.805	92.84
850.98	68.27
851.155	55.98
851.33	64.17
851.505	-42.32
851.681	105.13
851.856	6.83
852.031	76.46
852.206	150.18
852.381	29.35
852.556	43.69
852.731	31.4
852.906	49.83
853.081	92.84
853.256	94.89
853.431	72.36
853.606	-13.65
853.781	45.74
853.956	-11.61
854.131	55.98
854.305	-42.32
854.48	21.16
854.655	2.73
854.83	2.73
855.005	-1.37
855.18	35.5
855.354	111.27
855.529	123.56
855.704	-21.85
855.879	76.46
856.053	45.74
856.228	98.99
856.403	15.02
856.577	-3.41
856.752	-17.75
856.926	58.03
857.101	90.79
857.276	-36.18
857.45	45.74
857.625	12.97
857.799	45.74
857.974	-17.75
858.148	-5.46
858.323	27.31
858.497	51.88
858.672	66.22
858.846	37.55
859.02	53.93
859.195	45.74
859.369	4.78
859.543	47.79
859.718	47.79
859.892	17.07
860.066	35.5
860.241	35.5
860.415	23.21
860.589	45.74
860.763	66.22
860.938	4.78
861.112	96.94
861.286	10.92
861.46	92.84
861.634	43.69
861.808	51.88
861.982	15.02
862.157	19.11
862.331	2.73
862.505	-13.65
862.679	19.11
862.853	35.5
863.027	27.31
863.201	152.23
863.375	10.92
863.549	74.41
863.722	76.46
863.896	53.93
864.07	-7.51
864.244	33.45
864.418	64.17
864.592	53.93
864.766	92.84
864.939	94.89
865.113	51.88
865.287	96.94
865.461	27.31
865.634	101.03
865.808	62.12
865.982	-1.37
866.156	-40.28
866.329	0.68
866.503	-5.46
866.676	23.21
866.85	-85.33
867.024	27.31
867.197	53.93
867.371	53.93
867.544	31.4
867.718	-30.04
867.891	88.75
868.065	2.73
868.238	101.03
868.412	6.83
868.585	64.17
868.759	45.74
868.932	43.69
869.105	10.92
869.279	88.75
869.452	60.07
869.625	37.55
869.799	10.92
869.972	-30.04
870.145	-13.65
870.319	90.79
870.492	49.83
870.665	-30.04
870.838	55.98
871.011	-5.46
871.185	64.17
871.358	-13.65
871.531	-42.32
871.704	82.6
871.877	23.21
872.05	-13.65
872.223	-36.18
872.396	105.13
872.569	27.31
872.742	-54.61
872.915	-1.37
873.088	-17.75
873.261	23.21
873.434	68.27
873.607	58.03
873.78	43.69
873.953	31.4
874.126	76.46
874.299	39.59
874.471	76.46
874.644	19.11
874.817	101.03
874.99	72.36
875.163	2.73
875.335	-5.46
875.508	-3.41
875.681	72.36
875.853	-17.75
876.026	-13.65
876.199	49.83
876.371	-13.65
876.544	10.92
876.717	47.79
876.889	-9.56
877.062	27.31
877.234	-3.41
877.407	2.73
877.579	29.35
877.752	109.22
877.924	78.51
878.097	62.12
878.269	70.31
878.442	127.66
878.614	43.69
878.786	0.68
878.959	41.64
879.131	12.97
879.303	-21.85
879.476	-1.37
879.648	92.84
879.82	21.16
879.993	92.84
880.165	-52.56
880.337	-97.62
880.509	-21.85
880.681	-21.85
880.854	-11.61
881.026	31.4
881.198	60.07
881.37	27.31
881.542	10.92
881.714	29.35
881.886	70.31
882.058	27.31
882.23	-30.04
882.402	76.46
882.574	49.83
882.746	27.31
882.918	70.31
883.09	51.88
883.262	41.64
883.434	2.73
883.606	-38.23
883.778	-15.7
883.95	33.45
884.122	29.35
884.293	103.08
884.465	-1.37
884.637	35.5
884.809	25.26
884.98	21.16
885.152	64.17
885.324	21.16
885.496	12.97
885.667	19.11
885.839	-25.94
886.011	51.88
886.182	2.73
886.354	2.73
886.525	-30.04
886.697	64.17
886.869	37.55
887.04	68.27
887.212	39.59
887.383	74.41
887.555	17.07
887.726	-21.85
887.897	62.12
888.069	53.93
888.24	72.36
888.412	-5.46
888.583	2.73
888.754	49.83
888.926	-44.37
889.097	0.68
889.268	-9.56
889.44	-19.8
889.611	10.92
889.782	23.21
889.953	-54.61
890.125	45.74
890.296	43.69
890.467	23.21
890.638	6.83
890.809	15.02
890.98	45.74
891.151	53.93
891.323	96.94
891.494	23.21
891.665	6.83
891.836	-23.89
892.007	10.92
892.178	64.17
892.349	10.92
892.52	-19.8
892.691	29.35
892.862	76.46
893.032	12.97
893.203	-19.8
893.374	19.11
893.545	76.46
893.716	-30.04
893.887	2.73
894.057	-9.56
894.228	10.92
894.399	4.78
894.57	43.69
894.74	55.98
894.911	23.21
895.082	41.64
895.253	-21.85
895.423	43.69
895.594	123.56
895.764	66.22
895.935	-13.65
896.106	68.27
896.276	-66.9
896.447	92.84
896.617	15.02
896.788	55.98
896.958	8.87
897.129	10.92
897.299	15.02
897.47	27.31
897.64	51.88
897.81	23.21
897.981	62.12
898.151	66.22
898.322	43.69
898.492	43.69
898.662	27.31
898.832	41.64
899.003	-38.23
899.173	84.65
899.343	-5.46
899.513	8.87
