Data from USB4F104151__107__14-31-04-463.txt Node

Date: Thu Mar 13 14:31:04 EDT 2025
User: louis
Spectrometer: USB4F10415
Trigger mode: 4
Integration Time (sec): 2.500000E-2
Scans to average: 1
Electric dark correction enabled: true
Nonlinearity correction enabled: false
Boxcar width: 0
XAxis mode: Wavelengths
Number of Pixels in Spectrum: 3648
>>>>>Begin Spectral Data<<<<<
178.204	-98.81
178.424	-98.81
178.644	-98.81
178.864	-109.05
179.084	-193.02
179.304	-33.28
179.524	15.87
179.744	-27.14
179.964	-20.99
180.184	38.4
180.404	5.63
180.624	15.87
180.844	30.21
181.064	-49.66
181.283	-10.75
181.503	9.73
181.723	26.11
181.943	-59.9
182.163	71.17
182.383	-18.94
182.602	50.69
182.822	112.13
183.042	83.45
183.262	-41.47
183.482	5.63
183.701	89.6
183.921	7.68
184.141	-68.09
184.361	120.32
184.58	65.02
184.8	-10.75
185.02	13.82
185.239	17.92
185.459	24.06
185.679	95.74
185.898	-0.51
186.118	46.59
186.338	95.74
186.557	52.74
186.777	87.55
186.997	-2.56
187.216	-6.66
187.436	52.74
187.655	99.84
187.875	114.17
188.095	5.63
188.314	56.83
188.534	95.74
188.753	32.26
188.973	26.11
189.192	89.6
189.412	30.21
189.631	42.5
189.851	38.4
190.07	97.79
190.29	-68.09
190.509	13.82
190.729	5.63
190.948	87.55
191.168	183.81
191.387	81.41
191.607	30.21
191.826	28.16
192.045	30.21
192.265	46.59
192.484	38.4
192.704	32.26
192.923	-49.66
193.142	132.61
193.362	1.54
193.581	42.5
193.8	26.11
194.02	71.17
194.239	-45.57
194.458	71.17
194.678	-16.9
194.897	75.26
195.116	7.68
195.335	44.54
195.555	56.83
195.774	-43.52
195.993	48.64
196.212	28.16
196.432	-6.66
196.651	7.68
196.87	46.59
197.089	48.64
197.308	22.02
197.528	54.78
197.747	32.26
197.966	81.41
198.185	67.07
198.404	-6.66
198.623	48.64
198.842	52.74
199.062	95.74
199.281	73.21
199.5	-4.61
199.719	-6.66
199.938	87.55
200.157	32.26
200.376	32.26
200.595	62.98
200.814	79.36
201.033	71.17
201.252	103.93
201.471	22.02
201.69	65.02
201.909	48.64
202.128	46.59
202.347	-6.66
202.566	34.3
202.785	19.97
203.004	50.69
203.223	155.13
203.442	75.26
203.661	50.69
203.879	24.06
204.098	105.98
204.317	1.54
204.536	136.7
204.755	58.88
204.974	40.45
205.193	48.64
205.411	38.4
205.63	22.02
205.849	22.02
206.068	-0.51
206.287	-2.56
206.505	95.74
206.724	24.06
206.943	-47.62
207.162	48.64
207.381	-4.61
207.599	-0.51
207.818	71.17
208.037	95.74
208.255	13.82
208.474	46.59
208.693	9.73
208.911	46.59
209.13	9.73
209.349	22.02
209.567	42.5
209.786	77.31
210.005	73.21
210.223	83.45
210.442	15.87
210.661	95.74
210.879	77.31
211.098	-12.8
211.316	-18.94
211.535	73.21
211.753	46.59
211.972	32.26
212.191	-0.51
212.409	50.69
212.628	65.02
212.846	32.26
213.065	81.41
213.283	15.87
213.502	62.98
213.72	5.63
213.938	50.69
214.157	69.12
214.375	42.5
214.594	48.64
214.812	75.26
215.031	32.26
215.249	42.5
215.467	83.45
215.686	69.12
215.904	69.12
216.122	103.93
216.341	99.84
216.559	54.78
216.778	105.98
216.996	54.78
217.214	-35.33
217.432	48.64
217.651	71.17
217.869	-8.7
218.087	24.06
218.306	-55.81
218.524	83.45
218.742	-18.94
218.96	34.3
219.179	71.17
219.397	-41.47
219.615	112.13
219.833	22.02
220.051	3.58
220.27	128.51
220.488	97.79
220.706	9.73
220.924	-8.7
221.142	-0.51
221.36	46.59
221.578	81.41
221.796	46.59
222.015	-10.75
222.233	-0.51
222.451	93.69
222.669	-18.94
222.887	95.74
223.105	-59.9
223.323	62.98
223.541	19.97
223.759	46.59
223.977	26.11
224.195	79.36
224.413	1.54
224.631	13.82
224.849	-8.7
225.067	91.65
225.285	30.21
225.503	103.93
225.721	-27.14
225.939	-16.9
226.157	-14.85
226.375	120.32
226.592	32.26
226.81	95.74
227.028	161.28
227.246	62.98
227.464	30.21
227.682	101.89
227.9	58.88
228.117	32.26
228.335	69.12
228.553	32.26
228.771	5.63
228.989	62.98
229.206	103.93
229.424	5.63
229.642	15.87
229.86	-33.28
230.077	56.83
230.295	40.45
230.513	65.02
230.731	13.82
230.948	87.55
231.166	132.61
231.384	32.26
231.601	-8.7
231.819	62.98
232.037	54.78
232.254	-14.85
232.472	42.5
232.689	-6.66
232.907	30.21
233.125	52.74
233.342	-2.56
233.56	-20.99
233.777	-0.51
233.995	-0.51
234.213	79.36
234.43	56.83
234.648	56.83
234.865	65.02
235.083	-16.9
235.3	-18.94
235.518	56.83
235.735	122.37
235.953	79.36
236.17	40.45
236.388	40.45
236.605	11.78
236.822	95.74
237.04	32.26
237.257	105.98
237.475	24.06
237.692	22.02
237.909	97.79
238.127	89.6
238.344	60.93
238.562	114.17
238.779	-33.28
238.996	30.21
239.214	-0.51
239.431	83.45
239.648	-35.33
239.865	67.07
240.083	38.4
240.3	30.21
240.517	62.98
240.735	48.64
240.952	112.13
241.169	95.74
241.386	71.17
241.603	81.41
241.821	9.73
242.038	77.31
242.255	-16.9
242.472	30.21
242.689	54.78
242.907	48.64
243.124	13.82
243.341	44.54
243.558	26.11
243.775	17.92
243.992	-70.14
244.209	95.74
244.426	140.8
244.643	22.02
244.86	1.54
245.078	7.68
245.295	9.73
245.512	22.02
245.729	40.45
245.946	30.21
246.163	58.88
246.38	46.59
246.597	58.88
246.814	13.82
247.031	17.92
247.248	22.02
247.464	48.64
247.681	46.59
247.898	38.4
248.115	67.07
248.332	-8.7
248.549	32.26
248.766	54.78
248.983	52.74
249.2	54.78
249.417	48.64
249.633	46.59
249.85	148.99
250.067	38.4
250.284	89.6
250.501	42.5
250.717	157.18
250.934	-0.51
251.151	9.73
251.368	13.82
251.585	42.5
251.801	67.07
252.018	-59.9
252.235	105.98
252.451	3.58
252.668	62.98
252.885	128.51
253.102	9.73
253.318	46.59
253.535	17.92
253.752	42.5
253.968	30.21
254.185	-0.51
254.401	40.45
254.618	89.6
254.835	54.78
255.051	32.26
255.268	32.26
255.484	46.59
255.701	60.93
255.917	40.45
256.134	-18.94
256.351	73.21
256.567	-16.9
256.784	114.17
257	-43.52
257.217	44.54
257.433	93.69
257.65	89.6
257.866	83.45
258.082	7.68
258.299	17.92
258.515	34.3
258.732	-23.04
258.948	46.59
259.165	56.83
259.381	-31.23
259.597	52.74
259.814	67.07
260.03	44.54
260.246	38.4
260.463	24.06
260.679	75.26
260.895	5.63
261.112	108.03
261.328	60.93
261.544	38.4
261.761	148.99
261.977	99.84
262.193	-47.62
262.409	79.36
262.626	75.26
262.842	56.83
263.058	42.5
263.274	-0.51
263.49	-33.28
263.707	73.21
263.923	91.65
264.139	-8.7
264.355	73.21
264.571	99.84
264.787	-18.94
265.004	40.45
265.22	38.4
265.436	17.92
265.652	5.63
265.868	62.98
266.084	5.63
266.3	44.54
266.516	5.63
266.732	24.06
266.948	-0.51
267.164	19.97
267.38	50.69
267.596	87.55
267.812	161.28
268.028	42.5
268.244	11.78
268.46	32.26
268.676	73.21
268.892	54.78
269.108	-14.85
269.324	13.82
269.54	48.64
269.756	71.17
269.972	54.78
270.188	71.17
270.403	34.3
270.619	103.93
270.835	13.82
271.051	54.78
271.267	-8.7
271.483	42.5
271.698	95.74
271.914	50.69
272.13	1.54
272.346	-33.28
272.562	32.26
272.777	97.79
272.993	24.06
273.209	69.12
273.425	50.69
273.64	97.79
273.856	79.36
274.072	46.59
274.287	-14.85
274.503	38.4
274.719	65.02
274.934	46.59
275.15	34.3
275.366	-25.09
275.581	-29.18
275.797	24.06
276.012	-8.7
276.228	40.45
276.444	136.7
276.659	71.17
276.875	17.92
277.09	-8.7
277.306	46.59
277.521	3.58
277.737	105.98
277.952	103.93
278.168	71.17
278.383	120.32
278.599	7.68
278.814	83.45
279.03	24.06
279.245	122.37
279.461	22.02
279.676	40.45
279.892	-59.9
280.107	-2.56
280.322	89.6
280.538	-10.75
280.753	28.16
280.969	116.22
281.184	67.07
281.399	89.6
281.615	71.17
281.83	-2.56
282.045	-20.99
282.26	11.78
282.476	79.36
282.691	15.87
282.906	65.02
283.122	89.6
283.337	79.36
283.552	189.95
283.767	15.87
283.983	13.82
284.198	50.69
284.413	163.33
284.628	-10.75
284.843	-2.56
285.058	71.17
285.274	13.82
285.489	-37.38
285.704	5.63
285.919	138.75
286.134	46.59
286.349	65.02
286.564	128.51
286.779	67.07
286.995	7.68
287.21	40.45
287.425	42.5
287.64	-20.99
287.855	-2.56
288.07	46.59
288.285	108.03
288.5	32.26
288.715	62.98
288.93	-18.94
289.145	91.65
289.36	-8.7
289.575	87.55
289.79	5.63
290.004	46.59
290.219	95.74
290.434	22.02
290.649	48.64
290.864	5.63
291.079	81.41
291.294	46.59
291.509	46.59
291.724	22.02
291.938	19.97
292.153	50.69
292.368	38.4
292.583	54.78
292.798	3.58
293.012	114.17
293.227	105.98
293.442	32.26
293.657	46.59
293.871	81.41
294.086	46.59
294.301	108.03
294.516	155.13
294.73	40.45
294.945	24.06
295.16	22.02
295.374	95.74
295.589	67.07
295.804	-14.85
296.018	124.41
296.233	65.02
296.447	38.4
296.662	-27.14
296.877	71.17
297.091	62.98
297.306	-18.94
297.52	38.4
297.735	17.92
297.949	91.65
298.164	81.41
298.378	71.17
298.593	81.41
298.807	17.92
299.022	13.82
299.236	15.87
299.451	-49.66
299.665	103.93
299.88	15.87
300.094	48.64
300.309	26.11
300.523	81.41
300.737	5.63
300.952	165.37
301.166	19.97
301.381	62.98
301.595	58.88
301.809	22.02
302.024	1.54
302.238	62.98
302.452	97.79
302.667	116.22
302.881	87.55
303.095	79.36
303.309	62.98
303.524	7.68
303.738	30.21
303.952	-31.23
304.166	65.02
304.381	-27.14
304.595	89.6
304.809	46.59
305.023	144.89
305.237	-37.38
305.452	87.55
305.666	54.78
305.88	40.45
306.094	62.98
306.308	42.5
306.522	108.03
306.736	32.26
306.95	73.21
307.164	-0.51
307.379	65.02
307.593	122.37
307.807	24.06
308.021	-0.51
308.235	120.32
308.449	30.21
308.663	60.93
308.877	65.02
309.091	26.11
309.305	24.06
309.519	-23.04
309.733	38.4
309.947	19.97
310.161	54.78
310.374	67.07
310.588	79.36
310.802	50.69
311.016	34.3
311.23	71.17
311.444	56.83
311.658	40.45
311.872	89.6
312.085	13.82
312.299	36.35
312.513	46.59
312.727	79.36
312.941	22.02
313.154	-18.94
313.368	50.69
313.582	22.02
313.796	26.11
314.009	-2.56
314.223	89.6
314.437	-10.75
314.651	40.45
314.864	79.36
315.078	38.4
315.292	-2.56
315.505	17.92
315.719	73.21
315.933	48.64
316.146	-4.61
316.36	44.54
316.573	87.55
316.787	87.55
317.001	22.02
317.214	-6.66
317.428	91.65
317.641	9.73
317.855	48.64
318.068	62.98
318.282	56.83
318.495	71.17
318.709	54.78
318.922	5.63
319.136	99.84
319.349	179.71
319.563	91.65
319.776	124.41
319.99	54.78
320.203	-8.7
320.417	-25.09
320.63	7.68
320.843	126.46
321.057	62.98
321.27	13.82
321.483	105.98
321.697	52.74
321.91	-18.94
322.124	95.74
322.337	38.4
322.55	32.26
322.763	40.45
322.977	62.98
323.19	13.82
323.403	120.32
323.617	62.98
323.83	65.02
324.043	30.21
324.256	91.65
324.469	99.84
324.683	81.41
324.896	26.11
325.109	105.98
325.322	95.74
325.535	79.36
325.748	65.02
325.962	56.83
326.175	22.02
326.388	62.98
326.601	5.63
326.814	-0.51
327.027	62.98
327.24	148.99
327.453	62.98
327.666	44.54
327.879	60.93
328.092	26.11
328.305	110.08
328.518	28.16
328.731	13.82
328.944	58.88
329.157	56.83
329.37	-16.9
329.583	-33.28
329.796	85.5
330.009	17.92
330.222	95.74
330.435	128.51
330.648	136.7
330.861	34.3
331.073	81.41
331.286	101.89
331.499	69.12
331.712	-31.23
331.925	-10.75
332.138	54.78
332.35	73.21
332.563	-16.9
332.776	46.59
332.989	48.64
333.202	71.17
333.414	62.98
333.627	30.21
333.84	5.63
334.053	46.59
334.265	-10.75
334.478	-2.56
334.691	93.69
334.903	101.89
335.116	-10.75
335.329	26.11
335.541	65.02
335.754	73.21
335.966	1.54
336.179	-70.14
336.392	85.5
336.604	40.45
336.817	95.74
337.029	87.55
337.242	38.4
337.454	3.58
337.667	103.93
337.88	36.35
338.092	105.98
338.305	30.21
338.517	13.82
338.729	83.45
338.942	159.23
339.154	-49.66
339.367	42.5
339.579	132.61
339.792	9.73
340.004	54.78
340.217	28.16
340.429	89.6
340.641	-43.52
340.854	58.88
341.066	56.83
341.278	71.17
341.491	103.93
341.703	97.79
341.915	-20.99
342.128	48.64
342.34	40.45
342.552	97.79
342.764	132.61
342.977	73.21
343.189	7.68
343.401	42.5
343.613	-49.66
343.826	75.26
344.038	-16.9
344.25	112.13
344.462	13.82
344.674	83.45
344.886	-41.47
345.099	62.98
345.311	108.03
345.523	36.35
345.735	22.02
345.947	71.17
346.159	87.55
346.371	97.79
346.583	50.69
346.795	163.33
347.007	48.64
347.219	11.78
347.431	38.4
347.643	155.13
347.855	50.69
348.067	71.17
348.279	34.3
348.491	46.59
348.703	71.17
348.915	56.83
349.127	-37.38
349.339	97.79
349.551	-2.56
349.763	87.55
349.975	46.59
350.187	42.5
350.399	46.59
350.61	38.4
350.822	81.41
351.034	71.17
351.246	97.79
351.458	95.74
351.669	15.87
351.881	48.64
352.093	81.41
352.305	101.89
352.517	42.5
352.728	114.17
352.94	95.74
353.152	157.18
353.363	93.69
353.575	-14.85
353.787	1.54
353.999	56.83
354.21	52.74
354.422	81.41
354.633	87.55
354.845	22.02
355.057	67.07
355.268	58.88
355.48	54.78
355.692	56.83
355.903	97.79
356.115	73.21
356.326	67.07
356.538	46.59
356.749	108.03
356.961	60.93
357.172	60.93
357.384	83.45
357.595	185.85
357.807	15.87
358.018	79.36
358.23	97.79
358.441	46.59
358.653	62.98
358.864	46.59
359.075	40.45
359.287	99.84
359.498	42.5
359.709	128.51
359.921	54.78
360.132	36.35
360.344	75.26
360.555	44.54
360.766	142.85
360.977	-27.14
361.189	110.08
361.4	87.55
361.611	58.88
361.823	132.61
362.034	79.36
362.245	46.59
362.456	91.65
362.667	17.92
362.879	13.82
363.09	30.21
363.301	32.26
363.512	81.41
363.723	40.45
363.935	38.4
364.146	95.74
364.357	-0.51
364.568	73.21
364.779	5.63
364.99	151.04
365.201	22.02
365.412	142.85
365.623	15.87
365.834	46.59
366.045	42.5
366.256	65.02
366.467	58.88
366.678	103.93
366.889	38.4
367.1	114.17
367.311	40.45
367.522	24.06
367.733	40.45
367.944	112.13
368.155	22.02
368.366	56.83
368.577	79.36
368.788	50.69
368.999	81.41
369.209	1.54
369.42	116.22
369.631	157.18
369.842	83.45
370.053	22.02
370.264	110.08
370.474	17.92
370.685	13.82
370.896	112.13
371.107	71.17
371.317	79.36
371.528	56.83
371.739	118.27
371.95	112.13
372.16	50.69
372.371	-133.63
372.582	-10.75
372.792	110.08
373.003	112.13
373.214	89.6
373.424	79.36
373.635	-6.66
373.846	73.21
374.056	62.98
374.267	-23.04
374.477	56.83
374.688	30.21
374.898	108.03
375.109	71.17
375.319	46.59
375.53	163.33
375.74	42.5
375.951	62.98
376.161	48.64
376.372	50.69
376.582	67.07
376.793	46.59
377.003	87.55
377.214	1.54
377.424	40.45
377.635	65.02
377.845	83.45
378.055	93.69
378.266	79.36
378.476	62.98
378.686	5.63
378.897	30.21
379.107	120.32
379.317	153.09
379.528	62.98
379.738	71.17
379.948	38.4
380.158	48.64
380.369	157.18
380.579	71.17
380.789	26.11
380.999	103.93
381.21	99.84
381.42	54.78
381.63	-18.94
381.84	120.32
382.05	112.13
382.261	194.05
382.471	103.93
382.681	46.59
382.891	91.65
383.101	105.98
383.311	22.02
383.521	38.4
383.731	95.74
383.941	95.74
384.151	120.32
384.361	40.45
384.571	28.16
384.781	40.45
384.991	95.74
385.201	87.55
385.411	124.41
385.621	89.6
385.831	62.98
386.041	103.93
386.251	58.88
386.461	28.16
386.671	79.36
386.881	226.81
387.091	62.98
387.301	54.78
387.511	22.02
387.72	124.41
387.93	114.17
388.14	54.78
388.35	87.55
388.56	196.09
388.769	95.74
388.979	46.59
389.189	5.63
389.399	132.61
389.609	99.84
389.818	73.21
390.028	77.31
390.238	17.92
390.447	95.74
390.657	99.84
390.867	52.74
391.076	46.59
391.286	114.17
391.496	89.6
391.705	62.98
391.915	105.98
392.125	103.93
392.334	65.02
392.544	165.37
392.753	32.26
392.963	77.31
393.172	87.55
393.382	79.36
393.591	87.55
393.801	87.55
394.01	124.41
394.22	136.7
394.429	103.93
394.639	83.45
394.848	144.89
395.058	142.85
395.267	56.83
395.477	185.85
395.686	167.42
395.895	79.36
396.105	155.13
396.314	108.03
396.524	116.22
396.733	108.03
396.942	148.99
397.152	93.69
397.361	185.85
397.57	95.74
397.78	163.33
397.989	151.04
398.198	253.44
398.407	136.7
398.617	142.85
398.826	136.7
399.035	108.03
399.244	175.61
399.453	110.08
399.663	185.85
399.872	138.75
400.081	204.28
400.29	175.61
400.499	65.02
400.708	126.46
400.917	173.57
401.127	126.46
401.336	48.64
401.545	292.35
401.754	187.9
401.963	194.05
402.172	181.76
402.381	122.37
402.59	189.95
402.799	196.09
403.008	157.18
403.217	194.05
403.426	157.18
403.635	138.75
403.844	134.65
404.053	144.89
404.262	108.03
404.471	218.62
404.68	185.85
404.888	202.24
405.097	144.89
405.306	153.09
405.515	204.28
405.724	196.09
405.933	214.52
406.142	230.91
406.35	163.33
406.559	194.05
406.768	259.58
406.977	275.96
407.185	163.33
407.394	271.87
407.603	206.33
407.812	329.21
408.02	298.49
408.229	329.21
408.438	253.44
408.646	296.44
408.855	382.46
409.064	357.88
409.272	450.04
409.481	337.4
409.69	318.97
409.898	392.7
410.107	378.36
410.315	407.03
410.524	419.32
410.733	441.85
410.941	429.56
411.15	488.95
411.358	513.53
411.567	509.43
411.775	550.39
411.984	423.42
412.192	585.21
412.401	560.63
412.609	591.35
412.818	630.26
413.026	628.21
413.234	646.65
413.443	673.27
413.651	663.03
413.86	660.98
414.068	775.67
414.276	718.33
414.485	751.09
414.693	833.01
414.901	900.59
415.11	919.03
415.318	923.12
415.526	890.35
415.734	914.93
415.943	1086.96
416.151	1029.62
416.359	982.51
416.567	1158.64
416.776	1170.93
416.984	1234.41
417.192	1302
417.4	1236.46
417.608	1191.41
417.817	1322.48
418.025	1361.39
418.233	1478.12
418.441	1447.4
418.649	1490.41
418.857	1611.24
419.065	1639.91
419.273	1580.52
419.481	1703.4
419.689	1832.42
419.897	1875.43
420.105	1889.76
420.313	1871.33
420.521	2051.55
420.729	2029.03
420.937	2137.57
421.145	2160.1
421.353	2239.97
421.561	2461.15
421.769	2366.94
421.977	2641.37
422.185	2465.24
422.393	2717.14
422.601	2913.75
422.809	2880.98
423.017	2991.57
423.224	3003.86
423.432	3089.87
423.64	3007.95
423.848	3368.4
424.056	3298.77
424.263	3487.18
424.471	3552.71
424.679	3554.76
424.887	3667.4
425.094	3896.77
425.302	3958.21
425.51	3999.17
425.718	4238.78
425.925	4179.39
426.133	4480.44
426.341	4724.15
426.548	5029.3
426.756	4871.61
426.964	4912.57
427.171	5377.45
427.379	5402.03
427.586	5506.48
427.794	5615.02
428.001	5838.25
428.209	6133.15
428.417	5965.22
428.624	6462.88
428.832	6475.17
429.039	6290.85
429.247	6409.63
429.454	7232.91
429.662	7523.73
429.869	6849.94
430.076	7517.58
430.284	7312.78
430.491	7536.01
430.699	8099.2
430.906	7986.57
431.114	8158.6
431.321	8332.67
431.528	8721.79
431.736	9219.44
431.943	9551.21
432.15	9215.35
432.358	9295.22
432.565	9833.83
432.772	9887.08
432.979	10485.09
433.187	10524
433.394	10550.62
433.601	11396.43
433.808	11238.74
434.016	11304.28
434.223	11713.87
434.43	12365.12
434.637	12121.42
434.844	12772.67
435.052	13190.45
435.259	13221.17
435.466	13282.61
435.673	13190.45
435.88	13892.91
436.087	14804.25
436.294	14652.7
436.501	14241.06
436.708	14656.8
436.915	15162.65
437.122	15637.78
437.329	15652.11
437.537	16137.48
437.743	16188.68
437.95	16047.37
438.157	17208.57
438.364	17773.81
438.571	17624.31
438.778	17994.99
438.985	19176.67
439.192	18588.9
439.399	19430.62
439.606	18644.2
439.813	19887.31
440.02	21134.53
440.227	20649.16
440.433	20380.87
440.64	21193.92
440.847	21042.37
441.054	21867.7
441.261	22918.31
441.467	22537.38
441.674	23227.55
441.881	23876.76
442.088	23743.64
442.294	23764.12
442.501	24069.26
442.708	24669.32
442.914	25527.42
443.121	26866.79
443.328	26276.98
443.534	27970.65
443.741	27321.44
443.948	26791.02
444.154	28816.46
444.361	28664.91
444.568	28511.31
444.774	28730.44
444.981	29150.28
445.187	30045.24
445.394	30671.92
445.6	30796.84
445.807	33278.98
446.013	32017.43
446.22	32726.03
446.426	33850.36
446.633	34597.87
446.839	35349.48
447.046	34020.34
447.252	35818.46
447.459	35683.3
447.665	35826.65
447.871	37182.41
448.078	38677.43
448.284	37157.83
448.491	37626.82
448.697	39459.75
448.903	39932.83
449.11	40323.99
449.316	39599.01
449.522	40373.14
449.728	41096.08
449.935	41558.92
450.141	41724.8
450.347	42558.33
450.553	40907.66
450.76	41765.76
450.966	42982.26
451.172	42650.49
451.378	43713.38
451.584	42642.29
451.791	44127.07
451.997	43897.7
452.203	44450.65
452.409	44530.52
452.615	44252
452.821	42269.56
453.027	42353.53
453.233	44305.24
453.44	42523.51
453.646	43377.51
453.852	43406.19
454.058	43864.93
454.264	42556.28
454.47	43527.02
454.676	42691.44
454.882	44094.3
455.088	40213.4
455.294	40680.34
455.5	41599.88
455.705	41462.66
455.911	39883.68
456.117	39302.06
456.323	38611.89
456.529	36461.52
456.735	38370.23
456.941	37487.56
457.147	36731.86
457.352	35662.82
457.558	35285.99
457.764	35261.41
457.97	34509.81
458.176	33717.25
458.381	34186.23
458.587	32267.28
458.793	32562.19
458.999	30399.54
459.204	32543.76
459.41	32025.62
459.616	29776.95
459.821	29752.38
460.027	29580.35
460.233	29076.55
460.438	27858.01
460.644	28058.71
460.85	26602.6
461.055	26303.6
461.261	26461.29
461.466	24013.97
461.672	23276.7
461.878	25007.23
462.083	23745.69
462.289	23258.27
462.494	22781.09
462.7	21724.34
462.905	21320.89
463.111	22000.82
463.316	22133.93
463.522	21529.78
463.727	21578.93
463.932	21701.81
464.138	21232.83
464.343	21488.82
464.549	20466.89
464.754	21337.27
464.959	21394.62
465.165	20907.2
465.37	20120.78
465.575	19823.83
465.781	20491.46
465.986	20657.35
466.191	19739.86
466.397	19252.44
466.602	18365.67
466.807	19055.84
467.012	19141.85
467.218	19274.97
467.423	18593
467.628	18869.47
467.833	19760.34
468.038	18865.38
468.244	18203.88
468.449	18789.6
468.654	18388.2
468.859	18529.51
469.064	18349.29
469.269	17827.06
469.474	17712.37
469.679	18115.82
469.885	17368.31
470.09	17511.67
470.295	17585.4
470.5	17186.04
470.705	17341.69
470.91	16874.75
471.115	16749.82
471.32	16835.84
471.525	16866.56
471.73	16561.41
471.935	16313.61
472.139	15858.96
472.344	15916.3
472.549	15918.35
472.754	15711.5
472.959	15514.9
473.164	15326.49
473.369	14791.97
473.574	15267.1
473.778	15136.03
473.983	14914.84
474.188	14970.14
474.393	14325.03
474.598	14619.94
474.802	14130.47
475.007	14116.14
475.212	14249.25
475.417	13686.06
475.621	13651.25
475.826	13571.38
476.031	13600.05
476.235	13319.48
476.44	13499.7
476.645	13145.4
476.849	13215.03
477.054	12963.13
477.259	12803.39
477.463	12737.85
477.668	12467.52
477.872	12662.08
478.077	12494.15
478.282	12080.46
478.486	12164.42
478.691	12057.93
478.895	12033.35
479.1	11861.32
479.304	11959.63
479.509	11507.02
479.713	11758.92
479.918	11400.53
480.122	11226.45
480.326	11662.67
480.531	11601.23
480.735	11476.3
480.94	11425.11
481.144	11586.9
481.348	11056.47
481.553	11232.6
481.757	11060.57
481.961	10976.6
482.166	11396.43
482.37	11128.15
482.574	11099.48
482.778	10880.35
482.983	11210.07
483.187	10896.73
483.391	11107.67
483.595	10980.7
483.8	10968.41
484.004	11126.1
484.208	11191.64
484.412	10900.83
484.616	11023.7
484.821	11087.19
485.025	10970.46
485.229	11267.41
485.433	10909.02
485.637	10976.6
485.841	10786.14
486.045	10949.98
486.249	11066.71
486.453	10925.4
486.657	10839.39
486.861	10804.57
487.065	10880.35
487.269	10825.05
487.473	10896.73
487.677	10984.79
487.881	11152.73
488.085	10906.97
488.289	11042.14
488.493	10954.07
488.697	10917.21
488.901	11005.27
489.105	10937.69
489.309	11150.68
489.512	10837.34
489.716	11019.61
489.92	11099.48
490.124	11181.4
490.328	11298.13
490.531	11277.65
490.735	11179.35
490.939	11152.73
491.143	10972.5
491.346	11171.16
491.55	11378
491.754	11115.86
491.958	11246.93
492.161	11226.45
492.365	11519.31
492.569	11255.12
492.772	11603.28
492.976	11654.48
493.18	11482.45
493.383	11803.98
493.587	11593.04
493.79	11933
493.994	11398.48
494.197	11693.39
494.401	11838.8
494.605	11873.61
494.808	12297.54
495.012	12199.24
495.215	12264.77
495.419	12406.08
495.622	12410.18
495.825	12434.75
496.029	12483.91
496.232	12635.46
496.436	12645.7
496.639	12866.88
496.843	12827.96
497.046	13112.63
497.249	13231.41
497.453	13382.96
497.656	13331.76
497.859	13448.5
498.063	13559.09
498.266	13880.62
498.469	13839.66
498.673	14019.88
498.876	14124.33
499.079	14294.31
499.282	14003.5
499.485	14538.02
499.689	14595.36
499.892	14798.11
500.095	14869.79
500.298	15168.79
500.501	15007
500.705	15439.12
500.908	15533.33
501.111	15525.14
501.314	15875.34
501.517	16065.8
501.72	16223.5
501.923	16108.81
502.126	16442.63
502.329	16721.15
502.532	16989.44
502.735	17073.4
502.938	16960.77
503.141	17267.96
503.344	17708.27
503.547	17433.85
503.75	17782
503.953	18150.64
504.156	18152.68
504.359	18314.47
504.562	18457.83
504.765	18873.57
504.968	18959.58
505.17	19508.44
505.373	19221.72
505.576	19481.81
505.779	19932.37
505.982	19598.55
506.185	20147.4
506.387	20309.19
506.59	20241.61
506.793	20870.34
506.996	20640.97
507.198	21324.99
507.401	21288.12
507.604	21132.48
507.807	22060.21
508.009	21992.62
508.212	22232.24
508.415	22262.96
508.617	22774.95
508.82	22697.13
509.022	22666.41
509.225	23399.58
509.428	23512.22
509.63	23737.49
509.833	23837.84
510.035	24239.25
510.238	24208.53
510.44	24417.42
510.643	24781.96
510.845	24992.9
511.048	24829.06
511.25	25402.49
511.453	25678.97
511.655	26256.5
511.858	26213.49
512.06	26160.24
512.262	26541.16
512.465	26408.05
512.667	26666.09
512.87	27001.96
513.072	27454.56
513.274	27718.75
513.477	28015.7
513.679	28410.96
513.881	28517.45
514.084	28820.55
514.286	28843.08
514.488	28888.14
514.69	29566.01
514.893	29525.05
515.095	29570.11
515.297	30127.16
515.499	30231.6
515.701	30596.14
515.904	31036.45
516.106	31075.37
516.308	31462.43
516.51	31507.49
516.712	31542.3
516.914	32103.45
517.116	32713.74
517.318	32785.42
517.52	33098.76
517.722	32535.57
517.925	32816.14
518.127	33485.83
518.329	33881.08
518.531	33764.35
518.733	34012.15
518.935	34335.73
519.136	34253.81
519.338	34831.34
519.54	34823.15
519.742	35372
519.944	35296.23
520.146	36017.11
520.348	36180.95
520.55	36469.72
520.752	36056.03
520.954	37104.59
521.155	36244.44
521.357	37145.55
521.559	37415.88
521.761	37526.47
521.963	38024.12
522.164	38063.04
522.366	37913.53
522.568	38497.2
522.77	38093.75
522.971	38865.84
523.173	38419.38
523.375	38779.82
523.576	38833.07
523.778	38843.31
523.98	39445.41
524.181	39390.12
524.383	39648.16
524.584	39459.75
524.786	39826.34
524.988	39545.76
525.189	40303.51
525.391	40612.76
525.592	40463.25
525.794	40463.25
525.995	40586.13
526.197	40461.21
526.398	40475.54
526.6	40651.67
526.801	41073.55
527.003	41020.3
527.204	40704.91
527.406	41155.47
527.607	41329.55
527.808	41464.71
528.01	40842.13
528.211	41438.09
528.412	42109.82
528.614	41550.73
528.815	41122.7
529.016	41618.31
529.218	41966.46
529.419	41671.56
529.62	41560.97
529.822	41659.27
530.023	41737.09
530.224	41907.07
530.425	41638.79
530.626	41251.72
530.828	41214.86
531.029	42087.29
531.23	41503.62
531.431	41563.01
531.632	41802.63
531.833	41984.9
532.035	41812.87
532.236	41544.58
532.437	41741.19
532.638	41372.55
532.839	41663.36
533.04	41905.02
533.241	41347.98
533.442	41837.44
533.643	41755.52
533.844	41452.42
534.045	41364.36
534.246	41055.12
534.447	41481.1
534.648	41317.26
534.849	40876.94
535.05	40639.38
535.251	41341.83
535.451	40954.77
535.652	41298.83
535.853	41014.16
536.054	41419.66
536.255	40983.44
536.456	40889.23
536.657	41300.87
536.857	41323.4
537.058	41143.18
537.259	41110.41
537.46	41048.97
537.66	40969.1
537.861	41106.32
538.062	40883.09
538.263	40854.42
538.463	40901.52
538.664	41077.65
538.865	40803.22
539.065	40938.38
539.266	39859.1
539.466	40909.71
539.667	40459.16
539.868	41139.08
540.068	40666
540.269	40516.5
540.469	40706.96
540.67	40496.02
540.87	40379.29
541.071	40625.04
541.271	40569.75
541.472	40819.6
541.672	40219.55
541.873	40364.95
542.073	40090.52
542.274	40815.51
542.474	40168.35
542.675	40074.14
542.875	40936.34
543.075	40133.53
543.276	39850.91
543.476	40530.84
543.676	40070.04
543.877	40526.74
544.077	40262.55
544.277	40442.77
544.478	39943.07
544.678	40004.51
544.878	40274.84
545.078	40205.21
545.279	40158.11
545.479	40016.8
545.679	39943.07
545.879	40225.69
546.079	39791.52
546.28	40438.68
546.48	39852.96
546.68	40141.72
546.88	40088.48
547.08	40250.27
547.28	40240.03
547.48	39588.77
547.68	39805.86
547.88	40006.56
548.081	40045.47
548.281	40379.29
548.481	39879.58
548.681	40344.47
548.881	40280.99
549.081	39740.32
549.28	40053.66
549.48	40389.53
549.68	40250.27
549.88	40500.12
550.08	39965.6
550.28	39979.93
550.48	40428.44
550.68	40377.24
550.88	39803.81
551.08	39938.97
551.279	40295.32
551.479	39803.81
551.679	40113.05
551.879	39920.54
552.079	40039.33
552.278	39898.02
552.478	39797.66
552.678	40133.53
552.878	40305.56
553.077	39984.03
553.277	39979.93
553.477	40657.81
553.676	40264.6
553.876	40397.72
554.076	39928.73
554.275	40422.3
554.475	39812
554.674	40156.06
554.874	40231.83
555.074	40010.65
555.273	40045.47
555.473	40573.84
555.672	40459.16
555.872	40242.07
556.071	40084.38
556.271	40455.06
556.47	39842.72
556.67	40190.87
556.869	40246.17
557.068	40330.14
557.268	39873.44
557.467	39918.49
557.667	40457.11
557.866	40262.55
558.065	40080.28
558.265	39873.44
558.464	39857.06
558.663	40549.27
558.863	39498.66
559.062	40831.89
559.261	40006.56
559.461	40848.27
559.66	39705.51
559.859	39992.22
560.058	39781.28
560.258	40338.33
560.457	39844.77
560.656	40201.11
560.855	40151.96
561.054	40436.63
561.253	39869.34
561.453	39869.34
561.652	40207.26
561.851	40590.23
562.05	39812
562.249	39543.72
562.448	39986.08
562.647	39732.13
562.846	39773.09
563.045	39799.71
563.244	39836.58
563.443	40407.96
563.642	39416.74
563.841	39996.32
564.04	39541.67
564.239	40074.14
564.438	39715.75
564.637	39791.52
564.836	39556
565.035	39265.19
565.234	39850.91
565.432	39230.38
565.631	39599.01
565.83	39502.76
566.029	39318.44
566.228	39050.16
566.427	39291.82
566.625	39388.07
566.824	39037.87
567.023	39521.19
567.222	38896.56
567.42	39306.15
567.619	39044.01
567.818	38921.13
568.016	38642.61
568.215	39433.13
568.414	38745.01
568.612	38980.53
568.811	38333.37
569.01	38929.33
569.208	38333.37
569.407	38501.3
569.605	37931.97
569.804	38620.08
570.002	38212.54
570.201	38351.8
570.4	38149.05
570.598	38034.36
570.797	38087.61
570.995	37792.7
571.193	37499.84
571.392	38175.67
571.59	37841.85
571.789	37610.43
571.987	37782.46
572.186	37608.39
572.384	37735.36
572.582	37391.3
572.781	37620.67
572.979	37080.01
573.177	37325.77
573.376	37460.93
573.574	37204.94
573.772	37082.06
573.971	36809.68
574.169	36568.02
574.367	36723.66
574.565	36774.86
574.763	36371.41
574.962	36651.98
575.16	36453.33
575.358	36660.18
575.556	36039.64
575.754	36525.01
575.952	35668.96
576.151	36340.69
576.349	35892.19
576.547	35867.61
576.745	35787.74
576.943	35920.86
577.141	35775.45
577.339	35744.73
577.537	35390.44
577.735	35509.22
577.933	35406.82
578.131	35472.35
578.329	35044.33
578.527	34962.41
578.725	34888.68
578.923	35052.52
579.121	34935.79
579.319	34923.5
579.516	35048.43
579.714	34438.13
579.912	34495.47
580.11	34204.66
580.308	34417.65
580.506	34214.9
580.704	33948.67
580.901	34358.26
581.099	34259.96
581.297	33807.36
581.495	33768.44
581.692	33905.66
581.89	33891.32
582.088	34061.3
582.285	33846.27
582.483	33795.07
582.681	33975.29
582.878	33182.73
583.076	33059.85
583.274	33432.58
583.471	32869.39
583.669	33252.36
583.866	33088.52
584.064	33252.36
584.262	32570.38
584.459	33455.11
584.657	32513.04
584.854	32629.77
585.052	32752.65
585.249	32633.87
585.447	32717.84
585.644	32205.84
585.841	32582.67
586.039	32470.03
586.236	31888.41
586.434	32070.68
586.631	32021.53
586.828	32173.08
587.026	31847.45
587.223	31869.98
587.42	31749.15
587.618	32138.26
587.815	31587.36
588.012	31589.41
588.21	31317.03
588.407	31781.92
588.604	31562.78
588.801	30927.91
588.999	30774.31
589.196	31163.43
589.393	31142.95
589.59	31011.88
589.787	30934.06
589.984	30825.51
590.182	30546.99
590.379	30614.57
590.576	30364.72
590.773	30772.27
590.97	30542.89
591.167	30788.65
591.364	30092.34
591.561	30540.85
591.758	29922.36
591.955	30147.64
592.152	30471.22
592.349	30256.18
592.546	30428.21
592.743	30123.06
592.94	29791.29
593.137	29766.71
593.334	30073.91
593.531	29334.59
593.727	29881.4
593.924	29887.54
594.121	29508.67
594.318	29801.53
594.515	29555.77
594.712	29762.62
594.908	29324.35
595.105	29633.6
595.302	29289.54
595.499	29434.94
595.696	28972.1
595.892	28990.53
596.089	29156.42
596.286	29330.5
596.482	29051.97
596.679	29056.07
596.876	29285.44
597.072	29051.97
597.269	28978.25
597.466	28736.59
597.662	28654.67
597.859	28847.18
598.055	28875.85
598.252	28570.7
598.448	28881.99
598.645	28726.35
598.841	28419.15
599.038	28759.11
599.234	28619.85
599.431	28181.59
599.627	28169.3
599.824	28413.01
600.02	28331.09
600.217	28091.48
600.413	28087.38
600.609	28472.4
600.806	27798.62
601.002	28347.47
601.198	28478.54
601.395	28333.14
601.591	28177.49
601.787	28355.66
601.984	28040.28
602.18	28460.11
602.376	27923.54
602.572	28021.84
602.769	28361.81
602.965	28081.24
603.161	28044.37
603.357	27720.79
603.553	28191.83
603.75	27792.47
603.946	27759.7
604.142	28169.3
604.338	27628.63
604.534	27872.34
604.73	27655.26
604.926	27694.17
605.122	27735.13
605.318	27771.99
605.514	27587.68
605.71	27604.06
605.906	27735.13
606.102	27681.88
606.298	27634.78
606.494	27606.11
606.69	27380.83
606.886	27759.7
607.082	27198.56
607.278	27913.3
607.474	27323.49
607.67	27782.23
607.866	27505.76
608.062	27728.98
608.257	27567.2
608.453	27737.18
608.649	27780.18
608.845	27583.58
609.041	27608.15
609.236	27806.81
609.432	27507.8
609.628	27690.07
609.824	27647.07
610.019	27489.37
610.215	27339.87
610.411	28165.2
610.606	27741.27
610.802	27860.05
610.998	27845.72
611.193	28030.04
611.389	27497.56
611.584	27632.73
611.78	27464.8
611.976	27581.53
612.171	28105.81
612.367	27757.66
612.562	27780.18
612.758	27532.38
612.953	27358.3
613.149	27798.62
613.344	27561.05
613.539	28167.25
613.735	27481.18
613.93	27761.75
614.126	27495.52
614.321	28077.14
614.517	27755.61
614.712	27903.06
614.907	27333.73
615.103	27798.62
615.298	27157.6
615.493	27638.87
615.688	27268.19
615.884	27753.56
616.079	27298.91
616.274	27884.63
616.47	27378.78
616.665	27503.71
616.86	27350.11
617.055	27272.29
617.25	27237.47
617.445	27595.87
617.641	26719.34
617.836	27442.27
618.031	27307.1
618.226	27286.62
618.421	27260
618.616	27356.25
618.811	26580.07
619.006	27057.25
619.201	26743.91
619.396	27024.48
619.591	26688.62
619.786	26707.05
619.981	26281.07
620.176	26715.24
620.371	26297.45
620.566	26106.99
620.761	26270.83
620.956	26369.13
621.151	25597.05
621.346	26502.25
621.541	25511.03
621.735	25779.32
621.93	25627.77
622.125	25709.69
622.32	25252.99
622.515	25302.14
622.709	24978.56
622.904	25099.39
623.099	24861.83
623.294	24951.94
623.488	24816.77
623.683	24904.84
623.878	24601.74
624.072	24689.8
624.267	24405.13
624.462	24763.53
624.656	24276.11
624.851	24257.68
625.046	23774.36
625.24	23913.62
625.435	23544.98
625.629	23643.29
625.824	23248.03
626.018	23540.89
626.213	23274.65
626.407	23139.49
626.602	22783.14
626.796	23051.42
626.991	22891.68
627.185	22842.53
627.38	22580.39
627.574	22437.03
627.768	22305.96
627.963	22363.31
628.157	22404.27
628.352	22416.55
628.546	21970.1
628.74	22138.03
628.935	21644.47
629.129	21941.43
629.323	21615.8
629.517	21503.16
629.712	21472.44
629.906	21462.2
630.1	21112
630.294	21011.65
630.489	21034.18
630.683	20919.49
630.877	20733.12
631.071	20557
631.265	20688.07
631.459	20606.15
631.653	20012.24
631.848	20344.01
632.042	20413.64
632.236	20225.23
632.43	19811.54
632.624	20085.97
632.818	19848.4
633.012	19535.06
633.206	19490.01
633.4	19586.26
633.594	19264.73
633.788	19166.43
633.982	19158.24
634.176	19477.72
634.369	19201.24
634.563	18912.48
634.757	18920.67
634.951	18701.54
635.145	18945.25
635.339	18773.22
635.533	18689.25
635.726	18572.52
635.92	18175.21
636.114	18189.55
636.308	18257.13
636.501	18357.48
636.695	17966.32
636.889	17556.72
637.083	17544.44
637.276	17609.97
637.47	17724.66
637.664	17566.96
637.857	17573.11
638.051	17380.6
638.244	17065.21
638.438	16884.99
638.632	17044.73
638.825	16889.09
639.019	16932.09
639.212	16674.05
639.406	16891.13
639.599	16755.97
639.793	16510.21
639.986	16284.94
640.18	16622.85
640.373	16346.37
640.567	16256.26
640.76	16004.36
640.954	16094.47
641.147	15998.22
641.34	15670.54
641.534	15668.5
641.727	15695.12
641.92	15547.67
642.114	15439.12
642.307	15660.31
642.5	15418.64
642.694	14820.64
642.887	14941.47
643.08	15217.94
643.273	14925.08
643.467	14886.17
643.66	14759.2
643.853	14673.18
644.046	14492.96
644.239	14562.59
644.432	14300.45
644.626	14445.86
644.819	14521.63
645.012	14263.59
645.205	14386.47
645.398	14204.2
645.591	13921.58
645.784	13962.54
645.977	13722.93
646.17	13851.95
646.363	13667.63
646.556	13620.53
646.749	13612.34
646.942	13698.35
647.135	13231.41
647.328	13395.25
647.521	13309.24
647.714	12858.68
647.907	13008.19
648.099	13051.19
648.292	12989.75
648.485	12969.27
648.678	12850.49
648.871	12649.79
649.064	12524.86
649.256	12674.37
649.449	12633.41
649.642	12545.34
649.835	12285.25
650.027	12395.84
650.22	12289.35
650.413	12289.35
650.605	12236.1
650.798	12133.7
650.991	12055.88
651.183	11930.95
651.376	11863.37
651.568	11941.19
651.761	11754.83
651.954	11744.59
652.146	11674.96
652.339	11781.45
652.531	11576.66
652.724	11595.09
652.916	11277.65
653.109	11480.4
653.301	11306.32
653.494	11421.01
653.686	11175.25
653.879	11212.12
654.071	11044.18
654.263	10751.32
654.456	10968.41
654.648	11089.24
654.84	10724.7
655.033	10706.27
655.225	10870.11
655.417	10605.92
655.61	10743.13
655.802	10567.01
655.994	10368.35
656.186	10640.73
656.379	10411.36
656.571	10474.85
656.763	10278.24
656.955	10311.01
657.148	10454.37
657.34	10380.64
657.532	9823.59
657.724	9885.03
657.916	9969
658.108	9852.27
658.3	9837.93
658.492	9717.1
658.684	9704.81
658.876	9805.16
659.068	9612.65
659.26	9547.12
659.452	9622.89
659.644	9692.52
659.836	9524.59
660.028	9606.51
660.22	9149.81
660.412	9452.91
660.604	9160.05
660.796	9336.18
660.988	9115
661.18	9162.1
661.372	9033.08
661.563	9104.76
661.755	8861.05
661.947	8807.8
662.139	8779.13
662.331	8664.44
662.522	8582.53
662.714	8899.96
662.906	8607.1
663.097	8469.89
663.289	8369.54
663.481	8586.62
663.673	8498.56
663.864	8213.89
664.056	8357.25
664.247	8430.98
664.439	8156.55
664.631	8277.38
664.822	8193.41
665.014	8107.4
665.205	8117.64
665.397	8113.54
665.588	8138.12
665.78	7933.32
665.971	7984.52
666.163	7986.57
666.354	7980.42
666.546	7857.54
666.737	7736.71
666.929	7587.21
667.12	7728.52
667.311	7683.47
667.503	7697.8
667.694	7611.79
667.885	7640.46
668.077	7390.61
668.268	7548.3
668.459	7357.84
668.651	7292.3
668.842	7427.47
669.033	7493.01
669.224	7294.35
669.416	7513.49
669.607	7269.78
669.798	7095.7
669.989	7411.09
670.18	7165.33
670.371	7196.05
670.563	7007.64
670.754	7103.89
670.945	7210.39
671.136	7011.73
671.327	6976.92
671.518	6829.46
671.709	7034.26
671.9	6913.43
672.091	6788.5
672.282	6794.65
672.473	6743.45
672.664	6878.62
672.855	6612.38
673.046	6684.06
673.237	6765.98
673.428	6682.01
673.619	6593.95
673.809	6612.38
674	6522.27
674.191	6634.91
674.382	6497.69
674.573	6559.13
674.764	6497.69
674.954	6636.95
675.145	6413.73
675.336	6383.01
675.527	6512.03
675.717	6542.75
675.908	6264.22
676.099	6360.48
676.289	6419.87
676.48	6145.44
676.671	6247.84
676.861	6272.42
677.052	6186.4
677.243	6167.97
677.433	6196.64
677.624	6231.46
677.814	6233.5
678.005	6127.01
678.195	6190.5
678.386	6147.49
678.576	5840.29
678.767	5805.48
678.957	6073.76
679.148	6114.72
679.338	6118.82
679.529	6059.43
679.719	5914.02
679.909	6053.28
680.1	5983.65
680.29	5932.45
680.481	5944.74
680.671	5946.79
680.861	6034.85
681.052	5930.41
681.242	5971.36
681.432	5944.74
681.622	5881.25
681.813	5760.42
682.003	5936.55
682.193	5862.82
682.383	5946.79
682.573	5909.93
682.764	5733.8
682.954	5737.9
683.144	5721.51
683.334	5678.51
683.524	5782.95
683.714	5731.75
683.904	5748.14
684.094	5658.03
684.284	5690.79
684.474	5664.17
684.664	5586.35
684.854	5709.22
685.044	5641.64
685.234	5475.76
685.424	5510.57
685.614	5522.86
685.804	5592.49
685.994	5555.63
686.184	5592.49
686.374	5488.04
686.564	5539.24
686.753	5518.76
686.943	5428.65
687.133	5445.04
687.323	5258.67
687.513	5479.85
687.702	5291.44
687.892	5281.2
688.082	5322.16
688.272	5340.59
688.461	5248.43
688.651	5268.91
688.841	5193.14
689.03	5293.49
689.22	5060.02
689.41	5207.47
689.599	5029.3
689.789	5014.96
689.979	5201.33
690.168	4982.2
690.358	5094.83
690.547	5006.77
690.737	5027.25
690.926	4951.48
691.116	4914.61
691.305	5006.77
691.495	4996.53
691.684	4775.35
691.874	5006.77
692.063	4955.57
692.252	4785.59
692.442	4867.51
692.631	4748.73
692.82	4765.11
693.01	4830.65
693.199	4777.4
693.388	4642.23
693.578	4838.84
693.767	4775.35
693.956	4720.06
694.146	4670.9
694.335	4488.64
694.524	4683.19
694.713	4613.56
694.902	4588.99
695.092	4511.16
695.281	4556.22
695.47	4642.23
695.659	4564.41
695.848	4535.74
696.037	4609.47
696.226	4529.59
696.415	4472.25
696.604	4445.63
696.793	4445.63
696.982	4404.67
697.171	4423.1
697.36	4398.52
697.549	4349.37
697.738	4363.71
697.927	4355.52
698.116	4240.83
698.305	4351.42
698.494	4298.17
698.683	4310.46
698.872	4179.39
699.061	4226.5
699.25	4156.86
699.438	4136.38
699.627	4232.64
699.816	4175.3
700.005	4216.26
700.193	4130.24
700.382	4101.57
700.571	4076.99
700.76	3966.4
700.948	4175.3
701.137	4099.52
701.326	4068.8
701.514	4144.58
701.703	3954.12
701.892	4079.04
702.08	4171.2
702.269	4087.23
702.457	4003.27
702.646	3945.92
702.834	3954.12
703.023	3876.29
703.212	4111.81
703.4	3999.17
703.589	3847.62
703.777	3954.12
703.965	3950.02
704.154	3952.07
704.342	3974.6
704.531	3745.22
704.719	3757.51
704.907	3947.97
705.096	3769.8
705.284	3925.44
705.472	3753.41
705.661	3710.41
705.849	3749.32
706.037	3741.13
706.226	3642.82
706.414	3808.71
706.602	3741.13
706.79	3724.74
706.979	3618.25
707.167	3614.15
707.355	3741.13
707.543	3663.3
707.731	3700.17
707.919	3583.43
708.107	3530.19
708.296	3671.5
708.484	3446.22
708.672	3530.19
708.86	3556.81
709.048	3444.17
709.236	3491.27
709.424	3700.17
709.612	3601.87
709.8	3515.85
709.988	3388.88
710.176	3515.85
710.364	3429.84
710.551	3524.04
710.739	3489.23
710.927	3460.56
711.115	3468.75
711.303	3552.71
711.491	3253.71
711.679	3347.92
711.866	3382.73
712.054	3339.73
712.242	3446.22
712.43	3331.53
712.617	3278.29
712.805	3304.91
712.993	3237.33
713.181	3235.28
713.368	3405.26
713.556	3313.1
713.744	3136.98
713.931	3255.76
714.119	3214.8
714.306	3300.81
714.494	3229.13
714.682	3118.54
714.869	3065.3
715.057	3118.54
715.244	3102.16
715.432	3292.62
715.619	3059.15
715.807	3169.74
715.994	3061.2
716.182	3005.91
716.369	3112.4
716.556	3079.63
716.744	2964.95
716.931	3026.39
717.119	3089.87
717.306	3020.24
717.493	3012.05
717.681	2962.9
717.868	2917.84
718.055	2932.18
718.242	2938.32
718.43	2987.47
718.617	2926.04
718.804	2880.98
718.991	2948.56
719.179	2938.32
719.366	2880.98
719.553	2919.89
719.74	2758.1
719.927	2913.75
720.114	2876.88
720.301	2772.44
720.488	2711
720.676	2782.68
720.863	2766.29
721.05	2831.83
721.237	2790.87
721.424	2811.35
721.611	2907.6
721.798	2711
721.985	2784.73
722.172	2708.95
722.358	2659.8
722.545	2733.53
722.732	2678.23
722.919	2758.1
723.106	2708.95
723.293	2604.5
723.48	2659.8
723.667	2528.73
723.853	2678.23
724.04	2657.75
724.227	2641.37
724.414	2639.32
724.6	2610.65
724.787	2586.07
724.974	2692.57
725.161	2575.83
725.347	2553.31
725.534	2608.6
725.72	2500.06
725.907	2682.33
726.094	2594.26
726.28	2495.96
726.467	2522.59
726.653	2500.06
726.84	2555.35
727.027	2643.42
727.213	2483.67
727.4	2504.15
727.586	2569.69
727.773	2438.62
727.959	2473.43
728.145	2446.81
728.332	2520.54
728.518	2364.89
728.705	2473.43
728.891	2418.14
729.077	2592.22
729.264	2348.51
729.45	2366.94
729.636	2432.47
729.823	2426.33
730.009	2389.47
730.195	2426.33
730.382	2446.81
730.568	2332.12
730.754	2366.94
730.94	2250.21
731.126	2371.04
731.313	2391.52
731.499	2344.41
731.685	2399.71
731.871	2389.47
732.057	2489.82
732.243	2354.65
732.429	2305.5
732.615	2276.83
732.801	2258.4
732.987	2246.11
733.173	2252.25
733.359	2311.64
733.545	2344.41
733.731	2246.11
733.917	2209.25
734.103	2340.32
734.289	2274.78
734.475	2274.78
734.661	2190.81
734.847	2266.59
735.033	2252.25
735.219	2299.36
735.404	2139.62
735.59	2188.77
735.776	2199.01
735.962	2131.42
736.148	2098.66
736.333	2184.67
736.519	2221.53
736.705	2145.76
736.89	2221.53
737.076	2160.1
737.262	2151.9
737.447	2084.32
737.633	2016.74
737.819	2063.84
738.004	1967.59
738.19	2022.88
738.375	2094.56
738.561	2147.81
738.747	2069.98
738.932	2086.37
739.118	2110.94
739.303	1932.77
739.489	2045.41
739.674	1963.49
739.859	2041.31
740.045	2080.22
740.23	1979.87
740.416	1830.37
740.601	1949.15
740.786	1914.34
740.972	1885.67
741.157	1846.76
741.342	1768.93
741.528	1820.13
741.713	1783.27
741.898	1949.15
742.084	1881.57
742.269	1883.62
742.454	1998.31
742.639	1881.57
742.824	1871.33
743.01	1719.78
743.195	1848.8
743.38	1846.76
743.565	1807.84
743.75	1834.47
743.935	1752.55
744.12	1824.23
744.305	1746.41
744.49	1791.46
744.675	1822.18
744.86	1689.06
745.045	1824.23
745.23	1744.36
745.415	1711.59
745.6	1783.27
745.785	1693.16
745.97	1670.63
746.155	1777.12
746.34	1711.59
746.525	1711.59
746.71	1717.73
746.895	1670.63
747.079	1652.2
747.264	1525.22
747.449	1633.77
747.634	1693.16
747.819	1582.57
748.003	1592.81
748.188	1609.19
748.373	1445.35
748.557	1580.52
748.742	1553.9
748.927	1572.33
749.111	1580.52
749.296	1474.03
749.481	1498.6
749.665	1541.61
749.85	1588.71
750.034	1498.6
750.219	1521.13
750.404	1474.03
750.588	1476.07
750.773	1435.11
750.957	1416.68
751.141	1383.91
751.326	1320.43
751.51	1275.37
751.695	1398.25
751.879	1465.83
752.064	1332.72
752.248	1406.44
752.432	1416.68
752.617	1457.64
752.801	1357.29
752.985	1310.19
753.17	1373.68
753.354	1338.86
753.538	1320.43
753.722	1269.23
753.907	1277.42
754.091	1234.41
754.275	1353.2
754.459	1258.99
754.643	1273.32
754.828	1248.75
755.012	1191.41
755.196	1168.88
755.38	1177.07
755.564	1205.74
755.748	1164.78
755.932	1203.69
756.116	1154.54
756.3	1099.25
756.484	1175.02
756.668	1220.08
756.852	1115.63
757.036	1234.41
757.22	1091.06
757.404	1062.38
757.588	1103.34
757.772	1154.54
757.956	1089.01
758.14	1080.82
758.323	1119.73
758.507	1033.71
758.691	1037.81
758.875	1103.34
759.059	1066.48
759.242	1089.01
759.426	1070.58
759.61	1025.52
759.794	968.18
759.977	1082.86
760.161	1072.62
760.345	1023.47
760.528	1015.28
760.712	1000.94
760.895	1056.24
761.079	982.51
761.263	951.79
761.446	955.89
761.63	1009.14
761.813	1068.53
761.997	974.32
762.18	964.08
762.364	968.18
762.547	867.83
762.731	955.89
762.914	867.83
763.098	845.3
763.281	919.03
763.464	886.26
763.648	945.65
763.831	820.72
764.015	947.7
764.198	1023.47
764.381	941.55
764.564	867.83
764.748	931.31
764.931	908.79
765.114	898.55
765.297	769.52
765.481	859.63
765.664	914.93
765.847	767.48
766.03	914.93
766.213	812.53
766.397	857.59
766.58	851.44
766.763	833.01
766.946	876.02
767.129	890.35
767.312	833.01
767.495	841.2
767.678	900.59
767.861	751.09
768.044	867.83
768.227	826.87
768.41	865.78
768.593	837.11
768.776	703.99
768.959	890.35
769.142	916.98
769.324	734.71
769.507	835.06
769.69	787.96
769.873	767.48
770.056	867.83
770.239	808.44
770.421	873.97
770.604	790
770.787	775.67
770.97	683.51
771.152	783.86
771.335	775.67
771.518	769.52
771.7	738.8
771.883	792.05
772.066	685.56
772.248	765.43
772.431	787.96
772.613	777.72
772.796	720.37
772.978	783.86
773.161	783.86
773.343	697.85
773.526	663.03
773.708	736.76
773.891	603.64
774.073	642.55
774.256	718.33
774.438	710.13
774.621	744.95
774.803	648.69
774.985	644.6
775.168	728.56
775.35	620.02
775.532	714.23
775.715	638.45
775.897	650.74
776.079	628.21
776.261	620.02
776.444	646.65
776.626	673.27
776.808	693.75
776.99	677.37
777.173	638.45
777.355	718.33
777.537	640.5
777.719	665.08
777.901	677.37
778.083	671.22
778.265	595.45
778.447	515.58
778.629	562.68
778.811	587.26
778.993	579.06
779.175	613.88
779.357	628.21
779.539	468.47
779.721	605.69
779.903	622.07
780.085	607.73
780.267	538.1
780.449	609.78
780.631	640.5
780.812	497.14
780.994	615.93
781.176	480.76
781.358	558.58
781.54	589.3
781.721	568.82
781.903	568.82
782.085	415.23
782.267	556.54
782.448	476.66
782.63	491
782.812	562.68
782.993	456.19
783.175	488.95
783.357	517.62
783.538	497.14
783.72	513.53
783.901	458.23
784.083	423.42
784.264	445.95
784.446	443.9
784.627	456.19
784.809	493.05
784.99	398.84
785.172	517.62
785.353	439.8
785.535	421.37
785.716	386.55
785.897	345.59
786.079	390.65
786.26	507.38
786.441	390.65
786.623	370.17
786.804	386.55
786.985	499.19
787.167	472.57
787.348	423.42
787.529	482.81
787.71	456.19
787.891	466.42
788.073	464.38
788.254	388.6
788.435	480.76
788.616	466.42
788.797	255.48
788.978	447.99
789.159	316.92
789.34	321.02
789.522	318.97
789.703	302.59
789.884	366.07
790.065	415.23
790.246	435.71
790.427	415.23
790.607	345.59
790.788	447.99
790.969	353.79
791.15	341.5
791.331	316.92
791.512	312.83
791.693	278.01
791.874	267.77
792.054	351.74
792.235	404.99
792.416	390.65
792.597	267.77
792.778	374.27
792.958	302.59
793.139	359.93
793.32	316.92
793.5	259.58
793.681	278.01
793.862	325.12
794.042	288.25
794.223	316.92
794.404	275.96
794.584	228.86
794.765	333.31
794.945	259.58
795.126	308.73
795.306	308.73
795.487	239.1
795.667	286.2
795.848	284.16
796.028	300.54
796.209	216.57
796.389	333.31
796.57	267.77
796.75	245.24
796.93	251.39
797.111	312.83
797.291	267.77
797.471	351.74
797.652	259.58
797.832	247.29
798.012	353.79
798.192	196.09
798.373	267.77
798.553	284.16
798.733	239.1
798.913	235
799.093	308.73
799.274	222.72
799.454	210.43
799.634	259.58
799.814	261.63
799.994	228.86
800.174	226.81
800.354	261.63
800.534	163.33
800.714	239.1
800.894	286.2
801.074	224.76
801.254	292.35
801.434	210.43
801.614	239.1
801.794	210.43
801.974	804.34
802.154	157.18
802.334	284.16
802.514	239.1
802.693	271.87
802.873	126.46
803.053	255.48
803.233	202.24
803.413	259.58
803.592	103.93
803.772	181.76
803.952	196.09
804.131	214.52
804.311	224.76
804.491	206.33
804.67	144.89
804.85	146.94
805.03	169.47
805.209	243.2
805.389	212.48
805.568	235
805.748	140.8
805.928	192
806.107	204.28
806.287	210.43
806.466	177.66
806.646	120.32
806.825	278.01
807.004	140.8
807.184	155.13
807.363	226.81
807.543	159.23
807.722	138.75
807.901	259.58
808.081	247.29
808.26	130.56
808.439	212.48
808.619	214.52
808.798	116.22
808.977	157.18
809.156	175.61
809.336	212.48
809.515	146.94
809.694	171.52
809.873	116.22
810.052	224.76
810.231	243.2
810.411	202.24
810.59	189.95
810.769	112.13
810.948	210.43
811.127	151.04
811.306	81.41
811.485	204.28
811.664	218.62
811.843	183.81
812.022	153.09
812.201	159.23
812.38	138.75
812.559	214.52
812.737	153.09
812.916	138.75
813.095	161.28
813.274	210.43
813.453	181.76
813.632	161.28
813.811	153.09
813.989	73.21
814.168	169.47
814.347	40.45
814.526	183.81
814.704	177.66
814.883	222.72
815.062	130.56
815.24	146.94
815.419	204.28
815.598	175.61
815.776	65.02
815.955	169.47
816.133	118.27
816.312	171.52
816.49	192
816.669	179.71
816.847	116.22
817.026	87.55
817.204	116.22
817.383	136.7
817.561	75.26
817.74	105.98
817.918	142.85
818.097	60.93
818.275	132.61
818.453	153.09
818.632	83.45
818.81	124.41
818.988	144.89
819.167	134.65
819.345	126.46
819.523	95.74
819.701	103.93
819.879	97.79
820.058	167.42
820.236	122.37
820.414	54.78
820.592	99.84
820.77	93.69
820.948	105.98
821.127	134.65
821.305	144.89
821.483	97.79
821.661	95.74
821.839	148.99
822.017	120.32
822.195	79.36
822.373	122.37
822.551	187.9
822.729	185.85
822.907	95.74
823.085	140.8
823.262	175.61
823.44	136.7
823.618	130.56
823.796	95.74
823.974	73.21
824.152	132.61
824.329	71.17
824.507	112.13
824.685	177.66
824.863	83.45
825.04	132.61
825.218	161.28
825.396	105.98
825.574	38.4
825.751	65.02
825.929	140.8
826.107	30.21
826.284	114.17
826.462	99.84
826.639	91.65
826.817	46.59
826.994	124.41
827.172	87.55
827.349	202.24
827.527	116.22
827.704	124.41
827.882	62.98
828.059	103.93
828.237	95.74
828.414	136.7
828.591	32.26
828.769	95.74
828.946	83.45
829.124	89.6
829.301	95.74
829.478	91.65
829.655	103.93
829.833	38.4
830.01	65.02
830.187	60.93
830.364	91.65
830.542	144.89
830.719	87.55
830.896	54.78
831.073	116.22
831.25	155.13
831.427	46.59
831.604	62.98
831.782	46.59
831.959	97.79
832.136	17.92
832.313	122.37
832.49	13.82
832.667	105.98
832.844	60.93
833.021	161.28
833.198	138.75
833.374	87.55
833.551	52.74
833.728	42.5
833.905	73.21
834.082	62.98
834.259	144.89
834.436	112.13
834.612	81.41
834.789	173.57
834.966	114.17
835.143	65.02
835.319	140.8
835.496	99.84
835.673	75.26
835.85	93.69
836.026	103.93
836.203	105.98
836.38	30.21
836.556	99.84
836.733	56.83
836.909	97.79
837.086	58.88
837.262	81.41
837.439	-0.51
837.616	42.5
837.792	58.88
837.968	46.59
838.145	73.21
838.321	62.98
838.498	71.17
838.674	69.12
838.851	103.93
839.027	48.64
839.203	5.63
839.38	151.04
839.556	128.51
839.732	46.59
839.909	62.98
840.085	103.93
840.261	26.11
840.437	60.93
840.614	58.88
840.79	77.31
840.966	60.93
841.142	67.07
841.318	13.82
841.494	112.13
841.671	-20.99
841.847	56.83
842.023	5.63
842.199	5.63
842.375	114.17
842.551	9.73
842.727	69.12
842.903	112.13
843.079	50.69
843.255	71.17
843.431	138.75
843.607	30.21
843.783	69.12
843.959	91.65
844.134	50.69
844.31	-8.7
844.486	30.21
844.662	62.98
844.838	22.02
845.013	95.74
845.189	50.69
845.365	-18.94
845.541	5.63
845.716	79.36
845.892	65.02
846.068	81.41
846.244	77.31
846.419	56.83
846.595	30.21
846.77	-27.14
846.946	87.55
847.122	1.54
847.297	28.16
847.473	17.92
847.648	81.41
847.824	58.88
847.999	19.97
848.175	50.69
848.35	81.41
848.526	38.4
848.701	93.69
848.876	50.69
849.052	79.36
849.227	5.63
849.403	7.68
849.578	36.35
849.753	46.59
849.929	75.26
850.104	13.82
850.279	95.74
850.454	116.22
850.63	40.45
850.805	54.78
850.98	46.59
851.155	9.73
851.33	71.17
851.505	75.26
851.681	52.74
851.856	54.78
852.031	62.98
852.206	17.92
852.381	-6.66
852.556	17.92
852.731	87.55
852.906	17.92
853.081	95.74
853.256	71.17
853.431	79.36
853.606	26.11
853.781	40.45
853.956	28.16
854.131	89.6
854.305	5.63
854.48	26.11
854.655	22.02
854.83	13.82
855.005	40.45
855.18	19.97
855.354	-43.52
855.529	87.55
855.704	67.07
855.879	30.21
856.053	-66.05
856.228	22.02
856.403	22.02
856.577	56.83
856.752	-51.71
856.926	17.92
857.101	17.92
857.276	32.26
857.45	3.58
857.625	81.41
857.799	38.4
857.974	54.78
858.148	-74.24
858.323	5.63
858.497	42.5
858.672	-14.85
858.846	40.45
859.02	34.3
859.195	-2.56
859.369	71.17
859.543	28.16
859.718	95.74
859.892	13.82
860.066	26.11
860.241	-2.56
860.415	38.4
860.589	46.59
860.763	58.88
860.938	50.69
861.112	48.64
861.286	54.78
861.46	87.55
861.634	42.5
861.808	46.59
861.982	81.41
862.157	71.17
862.331	-39.42
862.505	5.63
862.679	-14.85
862.853	-18.94
863.027	-20.99
863.201	54.78
863.375	1.54
863.549	40.45
863.722	58.88
863.896	32.26
864.07	-35.33
864.244	7.68
864.418	1.54
864.592	79.36
864.766	-2.56
864.939	99.84
865.113	1.54
865.287	32.26
865.461	30.21
865.634	136.7
865.808	71.17
865.982	50.69
866.156	17.92
866.329	-27.14
866.503	34.3
866.676	65.02
866.85	32.26
867.024	-10.75
867.197	26.11
867.371	32.26
867.544	71.17
867.718	-14.85
867.891	79.36
868.065	15.87
868.238	9.73
868.412	22.02
868.585	42.5
868.759	17.92
868.932	1.54
869.105	-16.9
869.279	-14.85
869.452	22.02
869.625	38.4
869.799	62.98
869.972	34.3
870.145	62.98
870.319	-39.42
870.492	-0.51
870.665	30.21
870.838	60.93
871.011	32.26
871.185	22.02
871.358	15.87
871.531	52.74
871.704	9.73
871.877	7.68
872.05	87.55
872.223	-4.61
872.396	91.65
872.569	103.93
872.742	-41.47
872.915	46.59
873.088	38.4
873.261	17.92
873.434	19.97
873.607	32.26
873.78	67.07
873.953	11.78
874.126	62.98
874.299	-29.18
874.471	-27.14
874.644	7.68
874.817	54.78
874.99	81.41
875.163	13.82
875.335	-16.9
875.508	22.02
875.681	-0.51
875.853	38.4
876.026	13.82
876.199	54.78
876.371	79.36
876.544	-74.24
876.717	38.4
876.889	-16.9
877.062	-2.56
877.234	1.54
877.407	-27.14
877.579	11.78
877.752	48.64
877.924	62.98
878.097	30.21
878.269	7.68
878.442	81.41
878.614	5.63
878.786	-4.61
878.959	30.21
879.131	22.02
879.303	-43.52
879.476	50.69
879.648	38.4
879.82	-16.9
879.993	22.02
880.165	-29.18
880.337	26.11
880.509	38.4
880.681	7.68
880.854	40.45
881.026	81.41
881.198	46.59
881.37	-6.66
881.542	83.45
881.714	50.69
881.886	-82.43
882.058	38.4
882.23	36.35
882.402	62.98
882.574	-51.71
882.746	-47.62
882.918	19.97
883.09	-27.14
883.262	-2.56
883.434	42.5
883.606	13.82
883.778	-37.38
883.95	112.13
884.122	71.17
884.293	48.64
884.465	-74.24
884.637	67.07
884.809	-10.75
884.98	42.5
885.152	-27.14
885.324	9.73
885.496	32.26
885.667	73.21
885.839	17.92
886.011	9.73
886.182	-6.66
886.354	-8.7
886.525	65.02
886.697	50.69
886.869	-0.51
887.04	-33.28
887.212	30.21
887.383	99.84
887.555	26.11
887.726	13.82
887.897	-16.9
888.069	87.55
888.24	54.78
888.412	-16.9
888.583	22.02
888.754	22.02
888.926	-35.33
889.097	46.59
889.268	5.63
889.44	-10.75
889.611	-43.52
889.782	-27.14
889.953	3.58
890.125	91.65
890.296	-2.56
890.467	13.82
890.638	28.16
890.809	36.35
890.98	-84.48
891.151	81.41
891.323	19.97
891.494	24.06
891.665	-23.04
891.836	-35.33
892.007	71.17
892.178	38.4
892.349	-59.9
892.52	-33.28
892.691	-27.14
892.862	-10.75
893.032	-29.18
893.203	-14.85
893.374	3.58
893.545	38.4
893.716	7.68
893.887	7.68
894.057	-43.52
894.228	38.4
894.399	22.02
894.57	30.21
894.74	75.26
894.911	24.06
895.082	-0.51
895.253	-23.04
895.423	13.82
895.594	-2.56
895.764	5.63
895.935	-2.56
896.106	56.83
896.276	-43.52
896.447	40.45
896.617	15.87
896.788	17.92
896.958	71.17
897.129	-6.66
897.299	-16.9
897.47	134.65
897.64	32.26
897.81	22.02
897.981	-43.52
898.151	-88.57
898.322	81.41
898.492	-10.75
898.662	19.97
898.832	-33.28
899.003	-25.09
899.173	-47.62
899.343	13.82
899.513	-10.75
