Data from USB4F104151__306__14-35-02-421.txt Node

Date: Thu Mar 13 14:35:02 EDT 2025
User: louis
Spectrometer: USB4F10415
Trigger mode: 4
Integration Time (sec): 2.500000E-2
Scans to average: 1
Electric dark correction enabled: true
Nonlinearity correction enabled: false
Boxcar width: 0
XAxis mode: Wavelengths
Number of Pixels in Spectrum: 3648
>>>>>Begin Spectral Data<<<<<
178.204	-162.13
178.424	-162.13
178.644	-162.13
178.864	-139.6
179.084	-180.56
179.304	5.8
179.524	-0.34
179.744	-29.01
179.964	89.77
180.184	-14.68
180.404	-61.78
180.624	-43.35
180.844	22.19
181.064	-6.49
181.283	-31.06
181.503	22.19
181.723	46.76
181.943	-14.68
182.163	116.39
182.383	11.95
182.602	20.14
182.822	50.86
183.042	75.43
183.262	50.86
183.482	-0.34
183.701	-20.82
183.921	-31.06
184.141	-49.49
184.361	32.43
184.58	-10.58
184.8	38.57
185.02	-4.44
185.239	30.38
185.459	-6.49
185.679	-35.16
185.898	-59.73
186.118	54.95
186.338	59.05
186.557	50.86
186.777	-72.02
186.997	-12.63
187.216	-14.68
187.436	75.43
187.655	9.9
187.875	71.34
188.095	30.38
188.314	-14.68
188.534	100.01
188.753	52.91
188.973	-6.49
189.192	136.87
189.412	46.76
189.631	-12.63
189.851	20.14
190.07	-12.63
190.29	1.71
190.509	42.67
190.729	22.19
190.948	67.24
191.168	61.1
191.387	20.14
191.607	-10.58
191.826	28.33
192.045	-10.58
192.265	-37.2
192.484	-16.73
192.704	-22.87
192.923	-20.82
193.142	91.82
193.362	-18.77
193.581	65.19
193.8	54.95
194.02	124.58
194.239	42.67
194.458	-2.39
194.678	-4.44
194.897	-4.44
195.116	7.85
195.335	18.09
195.555	75.43
195.774	46.76
195.993	7.85
196.212	28.33
196.432	-45.4
196.651	18.09
196.87	26.28
197.089	136.87
197.308	44.71
197.528	13.99
197.747	-94.55
197.966	28.33
198.185	79.53
198.404	-4.44
198.623	38.57
198.842	104.11
199.062	79.53
199.281	-12.63
199.5	59.05
199.719	32.43
199.938	71.34
200.157	9.9
200.376	97.96
200.595	63.15
200.814	38.57
201.033	-6.49
201.252	28.33
201.471	9.9
201.69	26.28
201.909	26.28
202.128	75.43
202.347	44.71
202.566	9.9
202.785	-10.58
203.004	-10.58
203.223	110.25
203.442	18.09
203.661	3.75
203.879	36.52
204.098	18.09
204.317	42.67
204.536	91.82
204.755	36.52
204.974	34.47
205.193	1.71
205.411	108.2
205.63	26.28
205.849	97.96
206.068	44.71
206.287	-4.44
206.505	-14.68
206.724	-14.68
206.943	3.75
207.162	34.47
207.381	18.09
207.599	-14.68
207.818	59.05
208.037	18.09
208.255	-37.2
208.474	-61.78
208.693	13.99
208.911	75.43
209.13	22.19
209.349	30.38
209.567	42.67
209.786	-6.49
210.005	13.99
210.223	34.47
210.442	34.47
210.661	42.67
210.879	9.9
211.098	-37.2
211.316	-37.2
211.535	30.38
211.753	-18.77
211.972	89.77
212.191	-43.35
212.409	87.72
212.628	11.95
212.846	1.71
213.065	38.57
213.283	61.1
213.502	52.91
213.72	-67.92
213.938	-59.73
214.157	26.28
214.375	-22.87
214.594	-20.82
214.812	3.75
215.031	9.9
215.249	42.67
215.467	83.63
215.686	9.9
215.904	50.86
216.122	46.76
216.341	34.47
216.559	-14.68
216.778	20.14
216.996	7.85
217.214	9.9
217.432	50.86
217.651	22.19
217.869	20.14
218.087	50.86
218.306	26.28
218.524	42.67
218.742	3.75
218.96	26.28
219.179	1.71
219.397	59.05
219.615	102.06
219.833	3.75
220.051	20.14
220.27	26.28
220.488	36.52
220.706	46.76
220.924	36.52
221.142	13.99
221.36	20.14
221.578	93.87
221.796	1.71
222.015	38.57
222.233	48.81
222.451	63.15
222.669	-12.63
222.887	57
223.105	52.91
223.323	26.28
223.541	-39.25
223.759	5.8
223.977	9.9
224.195	132.78
224.413	91.82
224.631	91.82
224.849	42.67
225.067	59.05
225.285	-45.4
225.503	57
225.721	-72.02
225.939	50.86
226.157	-31.06
226.375	73.39
226.592	11.95
226.81	67.24
227.028	75.43
227.246	163.5
227.464	34.47
227.682	-29.01
227.9	13.99
228.117	59.05
228.335	-20.82
228.553	42.67
228.771	34.47
228.989	-2.39
229.206	-47.44
229.424	-2.39
229.642	-14.68
229.86	-16.73
230.077	67.24
230.295	102.06
230.513	50.86
230.731	36.52
230.948	87.72
231.166	69.29
231.384	20.14
231.601	26.28
231.819	61.1
232.037	-78.16
232.254	3.75
232.472	100.01
232.689	46.76
232.907	63.15
233.125	9.9
233.342	18.09
233.56	-61.78
233.777	50.86
233.995	38.57
234.213	81.58
234.43	-18.77
234.648	22.19
234.865	59.05
235.083	69.29
235.3	11.95
235.518	42.67
235.735	83.63
235.953	9.9
236.17	40.62
236.388	18.09
236.605	77.48
236.822	54.95
237.04	63.15
237.257	50.86
237.475	-0.34
237.692	-65.88
237.909	63.15
238.127	-31.06
238.344	59.05
238.562	67.24
238.779	1.71
238.996	26.28
239.214	-8.53
239.431	34.47
239.648	-8.53
239.865	75.43
240.083	34.47
240.3	-18.77
240.517	-104.79
240.735	-47.44
240.952	-12.63
241.169	102.06
241.386	57
241.603	26.28
241.821	26.28
242.038	34.47
242.255	32.43
242.472	-29.01
242.689	13.99
242.907	48.81
243.124	-2.39
243.341	-16.73
243.558	-80.21
243.775	-47.44
243.992	-18.77
244.209	48.81
244.426	46.76
244.643	126.63
244.86	28.33
245.078	-61.78
245.295	1.71
245.512	11.95
245.729	75.43
245.946	-6.49
246.163	44.71
246.38	36.52
246.597	77.48
246.814	-2.39
247.031	-67.92
247.248	30.38
247.464	22.19
247.681	36.52
247.898	79.53
248.115	-16.73
248.332	30.38
248.549	52.91
248.766	-26.96
248.983	32.43
249.2	11.95
249.417	26.28
249.633	50.86
249.85	87.72
250.067	-20.82
250.284	-8.53
250.501	22.19
250.717	26.28
250.934	-72.02
251.151	-51.54
251.368	28.33
251.585	36.52
251.801	63.15
252.018	-22.87
252.235	57
252.451	26.28
252.668	-37.2
252.885	-10.58
253.102	24.23
253.318	7.85
253.535	-6.49
253.752	5.8
253.968	-6.49
254.185	13.99
254.401	42.67
254.618	57
254.835	30.38
255.051	59.05
255.268	9.9
255.484	93.87
255.701	28.33
255.917	77.48
256.134	61.1
256.351	30.38
256.567	-20.82
256.784	-14.68
257	-6.49
257.217	52.91
257.433	26.28
257.65	-2.39
257.866	75.43
258.082	1.71
258.299	-12.63
258.515	5.8
258.732	-20.82
258.948	-12.63
259.165	18.09
259.381	-37.2
259.597	42.67
259.814	42.67
260.03	93.87
260.246	3.75
260.463	83.63
260.679	79.53
260.895	-4.44
261.112	26.28
261.328	26.28
261.544	22.19
261.761	75.43
261.977	-35.16
262.193	-22.87
262.409	44.71
262.626	5.8
262.842	5.8
263.058	-4.44
263.274	42.67
263.49	22.19
263.707	52.91
263.923	26.28
264.139	-31.06
264.355	42.67
264.571	9.9
264.787	59.05
265.004	-22.87
265.22	11.95
265.436	77.48
265.652	20.14
265.868	18.09
266.084	3.75
266.3	-2.39
266.516	59.05
266.732	112.3
266.948	54.95
267.164	34.47
267.38	1.71
267.596	1.71
267.812	136.87
268.028	-67.92
268.244	-47.44
268.46	18.09
268.676	-22.87
268.892	32.43
269.108	-39.25
269.324	114.34
269.54	-18.77
269.756	18.09
269.972	-20.82
270.188	50.86
270.403	-10.58
270.619	50.86
270.835	-43.35
271.051	46.76
271.267	-6.49
271.483	-6.49
271.698	50.86
271.914	26.28
272.13	71.34
272.346	-20.82
272.562	7.85
272.777	18.09
272.993	5.8
273.209	-14.68
273.425	52.91
273.64	-6.49
273.856	5.8
274.072	52.91
274.287	-29.01
274.503	42.67
274.719	50.86
274.934	34.47
275.15	-22.87
275.366	34.47
275.581	52.91
275.797	-4.44
276.012	18.09
276.228	38.57
276.444	91.82
276.659	59.05
276.875	9.9
277.09	59.05
277.306	-2.39
277.521	-49.49
277.737	20.14
277.952	110.25
278.168	-39.25
278.383	54.95
278.599	1.71
278.814	13.99
279.03	42.67
279.245	11.95
279.461	9.9
279.676	46.76
279.892	-43.35
280.107	22.19
280.322	-26.96
280.538	-14.68
280.753	52.91
280.969	24.23
281.184	18.09
281.399	85.67
281.615	1.71
281.83	112.3
282.045	-92.5
282.26	-2.39
282.476	-4.44
282.691	97.96
282.906	22.19
283.122	46.76
283.337	30.38
283.552	3.75
283.767	-6.49
283.983	71.34
284.198	16.04
284.413	77.48
284.628	13.99
284.843	1.71
285.058	-31.06
285.274	20.14
285.489	36.52
285.704	65.19
285.919	-14.68
286.134	28.33
286.349	44.71
286.564	-14.68
286.779	-10.58
286.995	40.62
287.21	1.71
287.425	34.47
287.64	-26.96
287.855	36.52
288.07	-12.63
288.285	44.71
288.5	110.25
288.715	50.86
288.93	85.67
289.145	13.99
289.36	95.91
289.575	30.38
289.79	95.91
290.004	36.52
290.219	118.44
290.434	75.43
290.649	134.82
290.864	11.95
291.079	-37.2
291.294	50.86
291.509	18.09
291.724	81.58
291.938	26.28
292.153	116.39
292.368	-22.87
292.583	5.8
292.798	34.47
293.012	20.14
293.227	30.38
293.442	95.91
293.657	5.8
293.871	73.39
294.086	89.77
294.301	73.39
294.516	61.1
294.73	40.62
294.945	-39.25
295.16	50.86
295.374	59.05
295.589	44.71
295.804	-35.16
296.018	85.67
296.233	34.47
296.447	30.38
296.662	38.57
296.877	-80.21
297.091	69.29
297.306	71.34
297.52	-39.25
297.735	26.28
297.949	87.72
298.164	5.8
298.378	-29.01
298.593	3.75
298.807	-12.63
299.022	-4.44
299.236	18.09
299.451	77.48
299.665	40.62
299.88	26.28
300.094	42.67
300.309	-6.49
300.523	44.71
300.737	-4.44
300.952	42.67
301.166	28.33
301.381	-20.82
301.595	46.76
301.809	79.53
302.024	38.57
302.238	9.9
302.452	83.63
302.667	34.47
302.881	63.15
303.095	59.05
303.309	-12.63
303.524	-10.58
303.738	11.95
303.952	34.47
304.166	69.29
304.381	-35.16
304.595	83.63
304.809	36.52
305.023	67.24
305.237	11.95
305.452	67.24
305.666	59.05
305.88	22.19
306.094	-24.92
306.308	20.14
306.522	46.76
306.736	118.44
306.95	61.1
307.164	40.62
307.379	71.34
307.593	75.43
307.807	59.05
308.021	-6.49
308.235	69.29
308.449	-10.58
308.663	11.95
308.877	87.72
309.091	50.86
309.305	67.24
309.519	-55.64
309.733	28.33
309.947	1.71
310.161	110.25
310.374	1.71
310.588	52.91
310.802	22.19
311.016	18.09
311.23	83.63
311.444	1.71
311.658	-12.63
311.872	52.91
312.085	50.86
312.299	28.33
312.513	134.82
312.727	-31.06
312.941	18.09
313.154	44.71
313.368	13.99
313.582	-14.68
313.796	-18.77
314.009	1.71
314.223	57
314.437	59.05
314.651	24.23
314.864	50.86
315.078	-26.96
315.292	87.72
315.505	34.47
315.719	91.82
315.933	59.05
316.146	38.57
316.36	73.39
316.573	5.8
316.787	46.76
317.001	54.95
317.214	-63.83
317.428	30.38
317.641	-26.96
317.855	20.14
318.068	42.67
318.282	38.57
318.495	71.34
318.709	75.43
318.922	81.58
319.136	1.71
319.349	151.21
319.563	40.62
319.776	48.81
319.99	18.09
320.203	22.19
320.417	30.38
320.63	11.95
320.843	67.24
321.057	11.95
321.27	-16.73
321.483	104.11
321.697	116.39
321.91	-14.68
322.124	34.47
322.337	83.63
322.55	-29.01
322.763	18.09
322.977	11.95
323.19	-29.01
323.403	18.09
323.617	-10.58
323.83	42.67
324.043	112.3
324.256	22.19
324.469	-31.06
324.683	18.09
324.896	36.52
325.109	7.85
325.322	-53.59
325.535	34.47
325.748	52.91
325.962	54.95
326.175	42.67
326.388	112.3
326.601	24.23
326.814	-18.77
327.027	20.14
327.24	28.33
327.453	-55.64
327.666	7.85
327.879	13.99
328.092	120.49
328.305	63.15
328.518	-43.35
328.731	-59.73
328.944	18.09
329.157	-18.77
329.37	77.48
329.583	77.48
329.796	67.24
330.009	13.99
330.222	79.53
330.435	50.86
330.648	71.34
330.861	11.95
331.073	46.76
331.286	20.14
331.499	42.67
331.712	-20.82
331.925	-14.68
332.138	18.09
332.35	91.82
332.563	-6.49
332.776	85.67
332.989	-39.25
333.202	30.38
333.414	-4.44
333.627	42.67
333.84	108.2
334.053	59.05
334.265	28.33
334.478	-6.49
334.691	46.76
334.903	-0.34
335.116	50.86
335.329	-10.58
335.541	9.9
335.754	106.15
335.966	-6.49
336.179	11.95
336.392	-22.87
336.604	28.33
336.817	34.47
337.029	48.81
337.242	104.11
337.454	95.91
337.667	26.28
337.88	83.63
338.092	26.28
338.305	13.99
338.517	9.9
338.729	65.19
338.942	34.47
339.154	75.43
339.367	26.28
339.579	9.9
339.792	1.71
340.004	34.47
340.217	69.29
340.429	69.29
340.641	34.47
340.854	9.9
341.066	71.34
341.278	52.91
341.491	61.1
341.703	9.9
341.915	-14.68
342.128	20.14
342.34	71.34
342.552	-16.73
342.764	89.77
342.977	26.28
343.189	67.24
343.401	-22.87
343.613	26.28
343.826	34.47
344.038	28.33
344.25	26.28
344.462	-18.77
344.674	26.28
344.886	77.48
345.099	11.95
345.311	-37.2
345.523	63.15
345.735	-10.58
345.947	-12.63
346.159	59.05
346.371	11.95
346.583	13.99
346.795	91.82
347.007	-31.06
347.219	50.86
347.431	-8.53
347.643	59.05
347.855	18.09
348.067	110.25
348.279	75.43
348.491	18.09
348.703	36.52
348.915	-0.34
349.127	-6.49
349.339	-22.87
349.551	34.47
349.763	40.62
349.975	3.75
350.187	52.91
350.399	59.05
350.61	48.81
350.822	-20.82
351.034	61.1
351.246	24.23
351.458	77.48
351.669	83.63
351.881	69.29
352.093	44.71
352.305	-12.63
352.517	75.43
352.728	44.71
352.94	13.99
353.152	54.95
353.363	22.19
353.575	69.29
353.787	67.24
353.999	34.47
354.21	104.11
354.422	83.63
354.633	52.91
354.845	42.67
355.057	59.05
355.268	71.34
355.48	42.67
355.692	-22.87
355.903	38.57
356.115	5.8
356.326	-86.36
356.538	83.63
356.749	-6.49
356.961	118.44
357.172	50.86
357.384	83.63
357.595	81.58
357.807	-2.39
358.018	1.71
358.23	28.33
358.441	24.23
358.653	-10.58
358.864	26.28
359.075	-65.88
359.287	9.9
359.498	52.91
359.709	102.06
359.921	5.8
360.132	71.34
360.344	79.53
360.555	-24.92
360.766	-10.58
360.977	26.28
361.189	52.91
361.4	22.19
361.611	28.33
361.823	57
362.034	81.58
362.245	73.39
362.456	44.71
362.667	36.52
362.879	50.86
363.09	42.67
363.301	61.1
363.512	65.19
363.723	95.91
363.935	-18.77
364.146	59.05
364.357	42.67
364.568	61.1
364.779	67.24
364.99	87.72
365.201	-12.63
365.412	83.63
365.623	-41.3
365.834	59.05
366.045	44.71
366.256	93.87
366.467	38.57
366.678	36.52
366.889	69.29
367.1	34.47
367.311	24.23
367.522	-20.82
367.733	42.67
367.944	120.49
368.155	54.95
368.366	91.82
368.577	44.71
368.788	108.2
368.999	-78.16
369.209	44.71
369.42	159.4
369.631	157.35
369.842	91.82
370.053	44.71
370.264	108.2
370.474	26.28
370.685	83.63
370.896	83.63
371.107	11.95
371.317	81.58
371.528	-2.39
371.739	46.76
371.95	77.48
372.16	112.3
372.371	13.99
372.582	28.33
372.792	9.9
373.003	83.63
373.214	67.24
373.424	85.67
373.635	34.47
373.846	75.43
374.056	-22.87
374.267	50.86
374.477	118.44
374.688	63.15
374.898	48.81
375.109	48.81
375.319	95.91
375.53	100.01
375.74	89.77
375.951	69.29
376.161	-4.44
376.372	140.97
376.582	67.24
376.793	38.57
377.003	61.1
377.214	-51.54
377.424	63.15
377.635	130.73
377.845	1.71
378.055	-2.39
378.266	-29.01
378.476	-4.44
378.686	69.29
378.897	120.49
379.107	91.82
379.317	13.99
379.528	124.58
379.738	65.19
379.948	9.9
380.158	61.1
380.369	34.47
380.579	50.86
380.789	-47.44
380.999	13.99
381.21	116.39
381.42	36.52
381.63	-47.44
381.84	73.39
382.05	48.81
382.261	95.91
382.471	120.49
382.681	116.39
382.891	83.63
383.101	108.2
383.311	-18.77
383.521	11.95
383.731	91.82
383.941	73.39
384.151	13.99
384.361	67.24
384.571	95.91
384.781	59.05
384.991	120.49
385.201	63.15
385.411	67.24
385.621	165.54
385.831	95.91
386.041	100.01
386.251	69.29
386.461	93.87
386.671	22.19
386.881	34.47
387.091	5.8
387.301	52.91
387.511	44.71
387.72	87.72
387.93	57
388.14	-16.73
388.35	77.48
388.56	147.11
388.769	93.87
388.979	59.05
389.189	85.67
389.399	67.24
389.609	71.34
389.818	26.28
390.028	69.29
390.238	116.39
390.447	-6.49
390.657	77.48
390.867	48.81
391.076	50.86
391.286	61.1
391.496	77.48
391.705	52.91
391.915	95.91
392.125	69.29
392.334	75.43
392.544	126.63
392.753	38.57
392.963	32.43
393.172	28.33
393.382	81.58
393.591	231.08
393.801	100.01
394.01	77.48
394.22	9.9
394.429	42.67
394.639	67.24
394.848	22.19
395.058	122.54
395.267	5.8
395.477	93.87
395.686	116.39
395.895	132.78
396.105	149.16
396.314	54.95
396.524	151.21
396.733	36.52
396.942	128.68
397.152	161.45
397.361	124.58
397.57	106.15
397.78	83.63
397.989	91.82
398.198	247.46
398.407	75.43
398.617	157.35
398.826	132.78
399.035	163.5
399.244	79.53
399.453	50.86
399.663	173.74
399.872	161.45
400.081	9.9
400.29	175.78
400.499	83.63
400.708	192.17
400.917	140.97
401.127	102.06
401.336	97.96
401.545	200.36
401.754	167.59
401.963	140.97
402.172	126.63
402.381	100.01
402.59	171.69
402.799	87.72
403.008	91.82
403.217	151.21
403.426	159.4
403.635	104.11
403.844	140.97
404.053	186.02
404.262	218.79
404.471	239.27
404.68	153.26
404.888	151.21
405.097	171.69
405.306	175.78
405.515	151.21
405.724	179.88
405.933	239.27
406.142	175.78
406.35	173.74
406.559	206.5
406.768	198.31
406.977	284.33
407.185	226.98
407.394	208.55
407.603	224.94
407.812	265.89
408.02	351.91
408.229	331.43
408.438	304.81
408.646	288.42
408.855	292.52
409.064	325.29
409.272	390.82
409.481	394.92
409.69	296.61
409.898	413.35
410.107	431.78
410.315	349.86
410.524	378.53
410.733	439.97
410.941	378.53
411.15	396.96
411.358	446.12
411.567	538.27
411.775	513.7
411.984	421.54
412.192	468.64
412.401	507.55
412.609	675.49
412.818	665.25
413.026	661.15
413.234	657.06
413.443	677.54
413.651	638.62
413.86	673.44
414.068	771.74
414.276	839.33
414.485	738.98
414.693	865.95
414.901	853.66
415.11	880.29
415.318	779.93
415.526	886.43
415.734	888.48
415.943	994.97
416.151	1037.98
416.359	956.06
416.567	1060.51
416.776	1064.6
416.984	1173.14
417.192	1250.97
417.4	1177.24
417.608	1146.52
417.817	1236.63
418.025	1277.59
418.233	1377.94
418.441	1379.99
418.649	1410.71
418.857	1582.74
419.065	1566.35
419.273	1529.49
419.481	1672.85
419.689	1746.58
419.897	1820.3
420.105	1937.04
420.313	2004.62
420.521	2035.34
420.729	1992.33
420.937	1992.33
421.145	2182.79
421.353	2266.76
421.561	2371.21
421.769	2426.5
421.977	2524.8
422.185	2530.95
422.393	2690.69
422.601	2832
422.809	2862.72
423.017	2811.52
423.224	2991.74
423.432	3135.1
423.64	3090.04
423.848	3501.69
424.056	3253.88
424.263	3516.02
424.471	3618.42
424.679	3516.02
424.887	3817.07
425.094	3974.77
425.302	3987.05
425.51	4154.99
425.718	4040.3
425.925	4261.48
426.133	4417.13
426.341	4656.74
426.548	4757.09
426.756	4857.44
426.964	4796
427.171	5064.29
427.379	5344.86
427.586	5383.77
427.794	5537.37
428.001	5809.75
428.209	6145.61
428.417	5914.19
428.624	6432.33
428.832	6334.03
429.039	6241.87
429.247	6405.7
429.454	7022.14
429.662	7085.63
429.869	6966.85
430.076	7489.08
430.284	7198.27
430.491	7382.59
430.699	7833.14
430.906	7802.42
431.114	7945.78
431.321	8306.22
431.528	8562.22
431.736	8853.03
431.943	9473.56
432.15	9174.56
432.358	9459.23
432.565	9610.78
432.772	9801.24
432.979	10135.06
433.187	10489.35
433.394	10348.04
433.601	10974.72
433.808	11081.22
434.016	11134.46
434.223	11490.81
434.43	12269.04
434.637	11906.55
434.844	12641.77
435.052	13100.51
435.259	12883.43
435.466	13037.03
435.673	12889.57
435.88	13768.15
436.087	14491.09
436.294	14470.61
436.501	14282.19
436.708	14333.39
436.915	14593.48
437.122	15463.87
437.329	15472.06
437.537	15728.06
437.743	16205.24
437.95	15914.42
438.157	16819.63
438.364	17567.13
438.571	17391.01
438.778	17636.77
438.985	18781.58
439.192	18449.81
439.399	18894.22
439.606	18353.55
439.813	19670.4
440.02	20854.12
440.227	20282.74
440.433	20151.67
440.64	20923.76
440.847	20458.87
441.054	21196.14
441.261	22519.12
441.467	22482.26
441.674	22850.89
441.881	23582.02
442.088	23477.57
442.294	23276.87
442.501	23690.56
442.708	24206.65
442.914	25361.7
443.121	26281.24
443.328	25650.47
443.534	27327.75
443.741	26678.55
443.948	26293.53
444.154	28323.07
444.361	28028.16
444.568	28343.55
444.774	27966.72
444.981	28685.56
445.187	29246.7
445.394	30614.74
445.6	30393.56
445.807	33113.27
446.013	31591.62
446.22	32267.45
446.426	33502.38
446.633	33684.65
446.839	34987.16
447.046	33442.99
447.252	35228.82
447.459	35464.33
447.665	35183.76
447.871	36881.53
448.078	38362.21
448.284	36304
448.491	37426.29
448.697	38759.52
448.903	39916.62
449.11	39152.73
449.316	38972.5
449.522	39746.64
449.728	40911.93
449.935	40744
450.141	40862.78
450.347	42095.66
450.553	40307.78
450.76	41432.11
450.966	42548.26
451.172	42005.55
451.378	43461.65
451.584	42605.6
451.791	43228.18
451.997	43338.77
452.203	43938.83
452.409	43949.07
452.615	43699.22
452.821	42144.81
453.027	41872.43
453.233	43951.12
453.44	42007.59
453.646	42675.23
453.852	42687.52
454.058	43367.44
454.264	41593.9
454.47	43052.06
454.676	41749.55
454.882	43338.77
455.088	39642.19
455.294	40348.74
455.5	40707.13
455.705	41174.07
455.911	39695.44
456.117	38866.01
456.323	38577.25
456.529	35978.37
456.735	37770.35
456.941	36689.02
457.147	36527.23
457.352	35126.42
457.558	34841.75
457.764	35093.65
457.97	34307.23
458.176	33293.49
458.381	33711.27
458.587	31988.93
458.793	31741.13
458.999	30035.17
459.204	32341.18
459.41	31368.4
459.616	29312.24
459.821	29154.54
460.027	29353.19
460.233	28235
460.438	27204.88
460.644	27317.51
460.85	25888.03
461.055	25752.87
461.261	25373.99
461.466	23704.9
461.672	23235.91
461.878	24884.53
462.083	22963.53
462.289	22642
462.494	22492.5
462.7	21376.36
462.905	21122.41
463.111	21708.13
463.316	21640.54
463.522	20948.33
463.727	21011.82
463.932	21126.5
464.138	21015.91
464.343	20983.15
464.549	20190.58
464.754	20612.46
464.959	20907.37
465.165	20794.73
465.37	19727.74
465.575	19031.43
465.781	20000.12
465.986	19973.5
466.191	19211.65
466.397	18650.51
466.602	17870.23
466.807	18773.39
467.012	18830.73
467.218	18355.6
467.423	18171.29
467.628	18394.51
467.833	19139.97
468.038	18304.4
468.244	17708.44
468.449	18460.05
468.654	18077.08
468.859	17651.1
469.064	17829.27
469.269	17059.24
469.474	17067.43
469.679	17376.67
469.885	16747.95
470.09	17024.42
470.295	17036.71
470.5	16549.29
470.705	16616.88
470.91	16207.28
471.115	16364.98
471.32	16563.63
471.525	16741.8
471.73	16203.19
471.935	15711.67
472.139	15181.25
472.344	15566.27
472.549	15197.63
472.754	15271.36
472.959	15062.47
473.164	14423.5
473.369	14407.12
473.574	14777.8
473.778	14650.83
473.983	14675.4
474.188	14452.17
474.393	14001.62
474.598	14286.29
474.802	13688.28
475.007	13528.54
475.212	13575.64
475.417	13250.02
475.621	13135.33
475.826	13432.29
476.031	13376.99
476.235	12854.76
476.44	12854.76
476.645	12621.29
476.849	12774.89
477.054	12520.94
477.259	12518.89
477.463	12502.51
477.668	12180.98
477.872	12250.61
478.077	12008.95
478.282	11734.52
478.486	11736.57
478.691	11380.22
478.895	11609.59
479.1	11595.26
479.304	11693.56
479.509	10901
479.713	11193.86
479.918	11068.93
480.122	10978.82
480.326	10880.52
480.531	11292.16
480.735	11134.46
480.94	10925.57
481.144	11068.93
481.348	10667.53
481.553	10866.18
481.757	10569.23
481.961	10784.26
482.166	10911.24
482.37	10837.51
482.574	10511.88
482.778	10464.78
482.983	10886.66
483.187	10722.82
483.391	10792.45
483.595	10442.25
483.8	10405.39
484.004	10528.27
484.208	10591.75
484.412	10675.72
484.616	10665.48
484.821	10565.13
485.025	10284.56
485.229	10503.69
485.433	10630.66
485.637	10692.1
485.841	10290.7
486.045	10421.77
486.249	10423.82
486.453	10401.29
486.657	10591.75
486.861	10311.18
487.065	10059.28
487.269	10733.06
487.473	10397.2
487.677	10429.96
487.881	10645
488.085	10434.06
488.289	10585.61
488.493	10309.13
488.697	10659.34
488.901	10503.69
489.105	10432.01
489.309	10634.76
489.512	10577.42
489.716	10475.02
489.92	10472.97
490.124	10315.28
490.328	10853.89
490.531	10573.32
490.735	10575.37
490.939	10638.86
491.143	10565.13
491.346	10896.9
491.55	10724.87
491.754	10800.65
491.958	10837.51
492.161	10929.67
492.365	11132.42
492.569	10782.21
492.772	10731.01
492.976	11003.39
493.18	10909.19
493.383	10907.14
493.587	11005.44
493.79	11304.45
493.994	11136.51
494.197	11253.25
494.401	11208.19
494.605	11396.6
494.808	11607.55
495.012	11605.5
495.215	11380.22
495.419	11855.35
495.622	11646.46
495.825	11855.35
496.029	11722.23
496.232	12039.67
496.436	11847.16
496.639	12477.93
496.843	12303.85
497.046	12412.4
497.249	12496.36
497.453	12670.44
497.656	12682.73
497.859	12660.2
498.063	12985.83
498.266	13149.67
498.469	13065.7
498.673	13286.88
498.876	13471.2
499.079	13430.24
499.282	13463.01
499.485	13813.21
499.689	13782.49
499.892	13995.48
500.095	14022.1
500.298	14278.1
500.501	14372.3
500.705	14505.42
500.908	14693.83
501.111	14829
501.314	15154.63
501.517	15148.48
501.72	15283.65
501.923	15205.83
502.126	15699.39
502.329	15680.96
502.532	15842.74
502.735	15861.18
502.938	16440.75
503.141	16180.66
503.344	16459.18
503.547	16526.77
503.75	16866.73
503.953	17071.53
504.156	17118.63
504.359	17100.2
504.562	17450.4
504.765	17773.98
504.968	17786.27
505.17	18011.54
505.373	18113.94
505.576	18339.22
505.779	18478.48
505.982	18623.89
506.185	19090.82
506.387	19074.44
506.59	19172.74
506.793	19481.99
506.996	19563.9
507.198	19934.59
507.401	20100.47
507.604	20055.42
507.807	20589.94
508.009	20440.43
508.212	20520.31
508.415	20989.29
508.617	21253.48
508.82	21519.71
509.022	21319.01
509.225	21783.9
509.428	21912.92
509.63	22211.93
509.833	22244.7
510.035	22744.4
510.238	22816.08
510.44	22893.9
510.643	23323.97
510.845	23655.75
511.048	23371.08
511.25	23774.53
511.453	24075.58
511.655	24864.05
511.858	24272.18
512.06	24698.16
512.262	24898.86
512.465	25003.31
512.667	25310.5
512.87	25527.59
513.072	25902.37
513.274	26127.64
513.477	26174.75
513.679	26572.05
513.881	26807.57
514.084	27049.23
514.286	27045.13
514.488	27346.19
514.69	27979.01
514.893	27589.89
515.095	27927.81
515.297	28493.05
515.499	28572.92
515.701	28726.52
515.904	29101.29
516.106	29215.98
516.308	29240.56
516.51	29605.09
516.712	29818.08
516.914	30153.95
517.116	30883.03
517.318	30604.5
517.52	30811.35
517.722	31089.87
517.925	31429.84
518.127	31732.93
518.329	32038.08
518.531	31577.29
518.733	32042.18
518.935	32574.65
519.136	32582.84
519.338	32861.37
519.54	33170.61
519.742	33125.55
519.944	33856.68
520.146	33649.83
520.348	33950.88
520.55	34038.95
520.752	34000.04
520.954	34829.46
521.155	34327.71
521.357	35040.4
521.559	34966.68
521.761	35689.61
521.963	35353.74
522.164	35462.29
522.366	35771.53
522.568	36209.79
522.77	36433.02
522.971	36680.83
523.173	36451.45
523.375	36807.8
523.576	36342.91
523.778	36949.11
523.98	37278.83
524.181	36813.94
524.383	37338.22
524.584	37442.67
524.786	37938.28
524.988	37438.58
525.189	38005.86
525.391	38286.43
525.592	38159.46
525.794	37987.43
525.995	38460.51
526.197	38270.05
526.398	38089.83
526.6	38474.85
526.801	38558.81
527.003	38704.22
527.204	38308.96
527.406	38800.47
527.607	38886.49
527.808	38956.12
528.01	38210.66
528.211	38632.54
528.412	39072.85
528.614	38933.59
528.815	39095.38
529.016	39085.14
529.218	38913.11
529.419	38870.11
529.62	39072.85
529.822	39085.14
530.023	38841.43
530.224	38970.46
530.425	38968.41
530.626	38743.13
530.828	38610.01
531.029	39210.07
531.23	39040.09
531.431	38593.63
531.632	38771.8
531.833	39107.67
532.035	39033.94
532.236	38712.41
532.437	38888.54
532.638	38689.88
532.839	38736.99
533.04	38579.29
533.241	38554.72
533.442	39263.32
533.643	38685.79
533.844	38478.94
534.045	38501.47
534.246	37966.95
534.447	38800.47
534.648	38655.07
534.849	38460.51
535.05	38255.71
535.251	38274.15
535.451	38003.81
535.652	37925.99
535.853	37948.52
536.054	37796.97
536.255	38083.69
536.456	37655.66
536.657	38003.81
536.857	37723.24
537.058	37880.94
537.259	37796.97
537.46	37575.79
537.66	37760.11
537.861	37821.55
538.062	37518.45
538.263	37723.24
538.463	37774.44
538.664	37239.92
538.865	37770.35
539.065	37903.46
539.266	37555.31
539.466	37592.17
539.667	37264.5
539.868	37428.34
540.068	37313.65
540.269	37321.84
540.469	37194.87
540.67	36940.92
540.87	37031.03
541.071	36889.72
541.271	37317.75
541.472	37401.71
541.672	37074.04
541.873	36957.3
542.073	36529.28
542.274	36949.11
542.474	36904.06
542.675	36856.95
542.875	36936.82
543.075	36656.25
543.276	36600.96
543.476	36908.15
543.676	36820.09
543.877	36527.23
544.077	36887.67
544.277	37039.22
544.478	36353.15
544.678	37024.89
544.878	36568.19
545.078	36598.91
545.279	36441.21
545.479	36410.5
545.679	36545.66
545.879	37018.74
546.079	36660.35
546.28	36437.12
546.48	36535.42
546.68	36580.48
546.88	36697.21
547.08	36664.44
547.28	36797.56
547.48	36246.66
547.68	36992.12
547.88	36478.08
548.081	36922.49
548.281	36648.06
548.481	36170.88
548.681	36873.34
548.881	36336.77
549.081	36727.93
549.28	36582.52
549.48	36842.62
549.68	36746.36
549.88	37182.58
550.08	36076.68
550.28	36809.85
550.48	36658.3
550.68	37022.84
550.88	36410.5
551.08	36695.16
551.279	36912.25
551.479	36293.76
551.679	37133.43
551.879	36779.13
552.079	36873.34
552.278	36631.68
552.478	36662.4
552.678	37110.9
552.878	36713.59
553.077	36902.01
553.277	36414.59
553.477	37276.79
553.676	37153.91
553.876	36781.18
554.076	36863.1
554.275	37018.74
554.475	36369.54
554.674	36830.33
554.874	36947.06
555.074	36779.13
555.273	37256.31
555.473	37282.93
555.672	36914.3
555.872	36902.01
556.071	37293.17
556.271	37186.68
556.47	37149.81
556.67	36693.11
556.869	37043.32
557.068	36965.49
557.268	36975.73
557.467	37039.22
557.667	37203.06
557.866	37160.05
558.065	37055.61
558.265	36990.07
558.464	36727.93
558.663	37459.06
558.863	36701.31
559.062	37307.51
559.261	37061.75
559.461	37536.88
559.66	36846.71
559.859	37020.79
560.058	36920.44
560.258	37336.18
560.457	36848.76
560.656	37104.76
560.855	36840.57
561.054	37106.8
561.253	36949.11
561.453	37153.91
561.652	36764.79
561.851	36705.4
562.05	37115
562.249	36779.13
562.448	37010.55
562.647	36758.65
562.846	37033.08
563.045	36596.86
563.244	36631.68
563.443	37368.94
563.642	36408.45
563.841	36770.94
564.04	36666.49
564.239	36824.18
564.438	36045.96
564.637	36668.54
564.836	36754.55
565.035	36430.97
565.234	36762.75
565.432	36351.1
565.631	36314.24
565.83	36709.5
566.029	36473.98
566.228	36193.41
566.427	36373.63
566.625	36021.38
566.824	35990.66
567.023	36549.76
567.222	35861.64
567.42	36377.73
567.619	35765.38
567.818	35738.76
568.016	35771.53
568.215	35988.61
568.414	35728.52
568.612	36080.77
568.811	35538.06
569.01	35757.19
569.208	35116.18
569.407	35548.3
569.605	35179.67
569.804	35374.22
570.002	34909.33
570.201	35130.51
570.4	34835.61
570.598	34851.99
570.797	34426.01
570.995	34749.59
571.193	34661.53
571.392	34751.64
571.59	34165.92
571.789	34469.02
571.987	34800.79
572.186	34196.64
572.384	34292.9
572.582	34417.82
572.781	34274.46
572.979	34389.15
573.177	34102.43
573.376	33907.88
573.574	33647.79
573.772	33748.14
573.971	33408.17
574.169	33799.33
574.367	33391.79
574.565	33680.55
574.763	33256.62
574.962	33186.99
575.16	33049.78
575.358	33131.7
575.556	32824.5
575.754	33131.7
575.952	32707.77
576.151	32836.79
576.349	32828.6
576.547	32441.53
576.745	32691.38
576.943	32580.79
577.141	32314.56
577.339	32136.38
577.537	32218.3
577.735	31923.4
577.933	32011.46
578.131	32185.54
578.329	31405.26
578.527	31380.68
578.725	31374.54
578.923	31642.82
579.121	31478.99
579.319	31114.45
579.516	31446.22
579.714	31263.95
579.912	31100.11
580.11	30977.23
580.308	31085.78
580.506	31141.07
580.704	30702.81
580.901	30557.4
581.099	31333.58
581.297	30366.94
581.495	30559.45
581.692	30713.05
581.89	29867.23
582.088	30334.17
582.285	29965.54
582.483	30268.64
582.681	30399.71
582.878	30094.56
583.076	29760.74
583.274	30145.76
583.471	29539.56
583.669	29721.83
583.866	29209.84
584.064	29629.67
584.262	29371.63
584.459	29447.4
584.657	29463.79
584.854	29816.04
585.052	28972.27
585.249	28876.02
585.447	29089.01
585.644	28890.35
585.841	28853.49
586.039	29263.08
586.236	28792.05
586.434	28718.32
586.631	28456.18
586.828	28312.83
587.026	28697.84
587.223	28421.37
587.42	28325.11
587.618	28456.18
587.815	28124.41
588.012	28179.71
588.21	28097.79
588.407	28499.19
588.604	27862.27
588.801	27944.19
588.999	27749.64
589.196	28005.63
589.393	27729.16
589.59	27694.34
589.787	27675.91
589.984	27593.99
590.182	27241.74
590.379	27772.16
590.576	27395.34
590.773	27456.78
590.97	27241.74
591.167	27626.76
591.364	26959.12
591.561	27301.13
591.758	27104.53
591.955	27159.82
592.152	27297.03
592.349	26938.64
592.546	26934.54
592.743	26742.03
592.94	26574.1
593.137	26885.39
593.334	27299.08
593.531	26678.55
593.727	26754.32
593.924	26989.84
594.121	26617.11
594.318	26768.66
594.515	26406.17
594.712	26498.33
594.908	26422.55
595.105	26068.25
595.302	26291.48
595.499	26402.07
595.696	26402.07
595.892	26174.75
596.089	26514.71
596.286	26127.64
596.482	26338.58
596.679	26285.34
596.876	26318.11
597.072	26367.26
597.269	26359.06
597.466	25957.66
597.662	25832.74
597.859	26119.45
598.055	26002.72
598.252	25949.47
598.448	25916.7
598.645	25830.69
598.841	25836.83
599.038	25804.06
599.234	25906.46
599.431	25740.58
599.627	25744.67
599.824	25937.18
600.02	25937.18
600.217	25974.05
600.413	25724.19
600.609	25881.89
600.806	26191.13
601.002	25830.69
601.198	25793.83
601.395	25775.39
601.591	25861.41
601.787	25836.83
601.984	25701.67
602.18	26389.78
602.376	25957.66
602.572	25914.66
602.769	26004.77
602.965	25812.26
603.161	25713.95
603.357	25689.38
603.553	25969.95
603.75	26092.83
603.946	25607.46
604.142	26271
604.338	25709.86
604.534	26117.4
604.73	25847.07
604.926	25756.96
605.122	26055.97
605.318	25922.85
605.514	25869.6
605.71	25898.27
605.906	26107.16
606.102	26076.44
606.298	26379.54
606.494	26053.92
606.69	26166.56
606.886	26135.84
607.082	25699.62
607.278	26152.22
607.474	26174.75
607.67	26293.53
607.866	25826.59
608.062	26418.46
608.257	25978.14
608.453	26141.98
608.649	26273.05
608.845	26195.23
609.041	26277.15
609.236	26275.1
609.432	26305.82
609.628	26561.81
609.824	26797.33
610.019	26287.39
610.215	26656.02
610.411	26592.53
610.606	26799.38
610.802	26508.57
610.998	26639.64
611.193	26733.84
611.389	26494.23
611.584	26692.88
611.78	26221.85
611.976	26420.5
612.171	26815.76
612.367	26645.78
612.562	26758.42
612.758	26506.52
612.953	26131.74
613.149	26821.91
613.344	26299.67
613.539	26950.93
613.735	26887.44
613.93	26887.44
614.126	26287.39
614.321	27043.09
614.517	26828.05
614.712	26443.03
614.907	26707.22
615.103	26787.09
615.298	26608.92
615.493	26782.99
615.688	26739.99
615.884	26869.01
616.079	26680.6
616.274	27161.87
616.47	26731.79
616.665	26826
616.86	26598.68
617.055	26553.62
617.25	26514.71
617.445	26795.28
617.641	26311.96
617.836	26625.3
618.031	26529.05
618.226	26723.6
618.421	26232.09
618.616	26590.48
618.811	26215.71
619.006	26672.4
619.201	26199.32
619.396	26311.96
619.591	25972
619.786	26082.59
619.981	25609.51
620.176	25974.05
620.371	25679.14
620.566	26031.39
620.761	25613.6
620.956	25996.57
621.151	25232.68
621.346	25322.79
621.541	24902.96
621.735	25396.52
621.93	24831.28
622.125	25154.86
622.32	24476.98
622.515	24833.33
622.709	24366.39
622.904	24526.13
623.099	24673.59
623.294	24462.65
623.488	24307
623.683	24522.04
623.878	24200.51
624.072	24382.77
624.267	24134.97
624.462	23801.15
624.656	23571.78
624.851	23831.87
625.046	23762.24
625.24	23539.01
625.435	23160.14
625.629	23164.23
625.824	23184.71
626.018	22949.2
626.213	22730.06
626.407	22719.82
626.602	22541.65
626.796	22928.72
626.991	22572.37
627.185	22361.43
627.38	22189.4
627.574	22209.88
627.768	21947.74
627.963	21945.69
628.157	21759.33
628.352	21876.06
628.546	21284.2
628.74	21759.33
628.935	21079.4
629.129	21044.59
629.323	21233
629.517	21048.68
629.712	21036.39
629.906	20948.33
630.1	20776.3
630.294	20495.73
630.489	20710.77
630.683	20712.81
630.877	20442.48
631.071	20241.78
631.265	20202.87
631.459	20335.99
631.653	19875.2
631.848	19838.33
632.042	19805.56
632.236	19778.94
632.43	19664.25
632.624	19748.22
632.818	19400.07
633.012	19441.03
633.206	19406.21
633.4	19154.31
633.594	18994.57
633.788	19168.65
633.982	18939.27
634.176	18820.49
634.369	18787.72
634.563	18769.29
634.757	18625.93
634.951	18695.57
635.145	18517.39
635.339	18398.61
635.533	18120.09
635.726	18240.92
635.92	17900.95
636.114	17808.79
636.308	17812.89
636.501	17743.26
636.695	17966.49
636.889	17628.57
637.083	17399.2
637.276	17462.69
637.47	16979.37
637.664	17380.77
637.857	17192.36
638.051	16993.7
638.244	16817.58
638.438	16684.46
638.632	16637.36
638.825	16594.35
639.019	16405.94
639.212	16475.57
639.406	16393.65
639.599	16139.7
639.793	15961.53
639.986	16182.71
640.18	16080.31
640.373	15779.26
640.567	15580.6
640.76	15789.5
640.954	15756.73
641.147	15357.38
641.34	15492.54
641.534	15150.53
641.727	15273.41
641.92	15218.11
642.114	15142.34
642.307	14996.93
642.5	14804.42
642.694	14622.16
642.887	14489.04
643.08	14781.9
643.273	14583.24
643.467	14558.67
643.66	14312.91
643.853	14364.11
644.046	14149.07
644.239	14034.39
644.432	14034.39
644.626	13895.13
644.819	13845.98
645.012	14081.49
645.205	13645.27
645.398	13776.34
645.591	13360.61
645.784	13436.38
645.977	13243.87
646.17	13241.82
646.363	13114.85
646.556	13061.6
646.749	13051.36
646.942	13239.78
647.135	12840.42
647.328	12781.03
647.521	12686.83
647.714	12570.09
647.907	12473.84
648.099	12522.99
648.292	12703.21
648.485	12703.21
648.678	12287.47
648.871	12228.08
649.064	12187.12
649.256	12275.18
649.449	11980.28
649.642	11890.17
649.835	11691.51
650.027	11857.4
650.22	11867.64
650.413	11798.01
650.605	11720.18
650.798	11505.15
650.991	11562.49
651.183	11476.48
651.376	11351.55
651.568	11382.27
651.761	11138.56
651.954	11310.59
652.146	11073.03
652.339	11144.7
652.531	11109.89
652.724	11011.59
652.916	10710.54
653.109	10683.91
653.301	10817.03
653.494	10812.93
653.686	10536.46
653.879	10743.3
654.071	10571.27
654.263	10550.79
654.456	10413.58
654.648	10333.71
654.84	10221.07
655.033	10137.1
655.225	10294.8
655.417	10130.96
655.61	10141.2
655.802	10036.75
655.994	10020.37
656.186	9930.26
656.379	10020.37
656.571	10143.25
656.763	9797.14
656.955	9739.8
657.148	9590.3
657.34	9754.13
657.532	9471.51
657.724	9621.02
657.916	9504.28
658.108	9350.68
658.3	9123.36
658.492	9336.35
658.684	9307.68
658.876	9203.23
659.068	9184.8
659.26	9023.01
659.452	9207.33
659.644	9096.74
659.836	8818.21
660.028	9129.5
660.22	8812.07
660.412	8865.32
660.604	8791.59
660.796	8615.46
660.988	8807.97
661.18	8439.34
661.372	8357.42
661.563	8605.22
661.755	8599.08
661.947	8390.19
662.139	8140.33
662.331	8373.8
662.522	8138.29
662.714	8160.81
662.906	8263.21
663.097	8076.85
663.289	8154.67
663.481	7890.48
663.673	7980.59
663.864	7972.4
664.056	7896.63
664.247	7929.39
664.439	7800.37
664.631	7718.45
664.822	8060.46
665.014	7681.59
665.205	7591.48
665.397	7450.17
665.588	7503.42
665.78	7726.64
665.971	7689.78
666.163	7493.18
666.354	7452.22
666.546	7294.52
666.737	7261.76
666.929	7296.57
667.12	7372.35
667.311	7177.79
667.503	7251.52
667.694	7286.33
667.885	7042.62
668.077	7124.54
668.268	7001.66
668.459	7026.24
668.651	6958.66
668.842	7005.76
669.033	6770.24
669.224	6979.14
669.416	6891.07
669.607	6823.49
669.798	6702.66
669.989	6858.31
670.18	6762.05
670.371	6456.9
670.563	6604.36
670.754	6553.16
670.945	6678.08
671.136	6719.04
671.327	6671.94
671.518	6663.75
671.709	6456.9
671.9	6565.45
672.091	6491.72
672.282	6319.69
672.473	6346.31
672.664	6268.49
672.855	6319.69
673.046	6401.61
673.237	6377.03
673.428	6264.4
673.619	6248.01
673.809	6088.27
674	6286.92
674.191	6325.83
674.382	6078.03
674.573	6268.49
674.764	6166.09
674.954	6168.14
675.145	5891.66
675.336	5989.97
675.527	5983.82
675.717	6106.7
675.908	6055.5
676.099	5959.25
676.289	6049.36
676.48	6073.93
676.671	5817.94
676.861	5983.82
677.052	6006.35
677.243	5881.42
677.433	5801.55
677.624	5924.43
677.814	5760.59
678.005	5793.36
678.195	5879.38
678.386	5752.4
678.576	5793.36
678.767	5838.42
678.957	5813.84
679.148	5951.06
679.338	5686.87
679.529	5686.87
679.719	5512.79
679.909	5828.18
680.1	5512.79
680.29	5703.25
680.481	5715.54
680.671	5817.94
680.861	5715.54
681.052	5641.81
681.242	5645.91
681.432	5609.05
681.622	5498.45
681.813	5492.31
682.003	5629.52
682.193	5635.67
682.383	5617.24
682.573	5748.31
682.764	5553.75
682.954	5566.04
683.144	5590.61
683.334	5678.68
683.524	5320.28
683.714	5453.4
683.904	5533.27
684.094	5484.12
684.284	5445.21
684.474	5510.74
684.664	5555.8
684.854	5561.94
685.044	5310.04
685.234	5420.63
685.424	5465.69
685.614	5228.12
685.804	5342.81
685.994	5344.86
686.184	5490.26
686.374	5363.29
686.564	5344.86
686.753	5271.13
686.943	5375.58
687.133	5326.43
687.323	5084.77
687.513	5246.55
687.702	5178.97
687.892	5117.53
688.082	5293.66
688.272	5193.31
688.461	5131.87
688.651	5146.2
688.841	5215.84
689.03	5199.45
689.22	5080.67
689.41	5203.55
689.599	5031.52
689.789	4951.65
689.979	5150.3
690.168	5015.13
690.358	5080.67
690.547	4904.54
690.737	4992.61
690.926	4886.11
691.116	4953.7
691.305	5043.81
691.495	4943.46
691.684	4886.11
691.874	4851.3
692.063	4859.49
692.252	4730.47
692.442	4826.72
692.631	4986.46
692.82	4867.68
693.01	4929.12
693.199	4683.36
693.388	4888.16
693.578	4769.38
693.767	4716.13
693.956	4572.77
694.146	4814.43
694.335	4722.27
694.524	4583.01
694.713	4675.17
694.902	4609.64
695.092	4615.78
695.281	4533.86
695.47	4796
695.659	4636.26
695.848	4572.77
696.037	4857.44
696.226	4716.13
696.415	4609.64
696.604	4572.77
696.793	4566.63
696.982	4537.96
697.171	4529.77
697.36	4564.58
697.549	4474.47
697.738	4566.63
697.927	4433.51
698.116	4468.33
698.305	4574.82
698.494	4437.61
698.683	4462.18
698.872	4476.52
699.061	4417.13
699.25	4433.51
699.438	4402.79
699.627	4310.63
699.816	4327.02
700.005	4376.17
700.193	4433.51
700.382	4351.59
700.571	4361.83
700.76	4372.07
700.948	4376.17
701.137	4241
701.326	4337.26
701.514	4300.39
701.703	4380.26
701.892	4220.52
702.08	4429.42
702.269	4281.96
702.457	4220.52
702.646	4179.56
702.834	4193.9
703.023	4200.04
703.212	4238.95
703.4	4105.84
703.589	4089.45
703.777	4247.15
703.965	4263.53
704.154	4132.46
704.342	3966.57
704.531	4150.89
704.719	4142.7
704.907	4195.95
705.096	4118.12
705.284	4132.46
705.472	4048.49
705.661	4044.4
705.849	4028.01
706.037	3950.19
706.226	4077.16
706.414	4062.83
706.602	3917.42
706.79	3993.2
706.979	3921.52
707.167	3802.74
707.355	3892.85
707.543	3866.22
707.731	4044.4
707.919	3878.51
708.107	3896.94
708.296	3911.28
708.484	3835.5
708.672	3884.66
708.86	3794.54
709.048	3878.51
709.236	3712.63
709.424	3774.07
709.612	3755.63
709.8	3681.91
709.988	3737.2
710.176	3726.96
710.364	3729.01
710.551	3606.13
710.739	3712.63
710.927	3706.48
711.115	3716.72
711.303	3608.18
711.491	3614.32
711.679	3540.6
711.866	3661.43
712.054	3712.63
712.242	3665.52
712.43	3786.35
712.617	3415.67
712.805	3585.65
712.993	3501.69
713.181	3458.68
713.368	3622.52
713.556	3659.38
713.744	3450.49
713.931	3630.71
714.119	3575.41
714.306	3548.79
714.494	3364.47
714.682	3432.05
714.869	3384.95
715.057	3389.05
715.244	3479.16
715.432	3550.84
715.619	3575.41
715.807	3417.72
715.994	3405.43
716.182	3427.96
716.369	3438.2
716.556	3473.01
716.744	3311.22
716.931	3384.95
717.119	3368.57
717.306	3280.5
717.493	3264.12
717.681	3298.94
717.868	3151.48
718.055	3270.26
718.242	3231.35
718.43	3335.8
718.617	3270.26
718.804	3313.27
718.991	3327.61
719.179	3280.5
719.366	3188.35
719.553	3221.11
719.74	3231.35
719.927	3274.36
720.114	3212.92
720.301	3131
720.488	3116.67
720.676	3180.15
720.863	3214.97
721.05	3149.43
721.237	3106.43
721.424	3221.11
721.611	3163.77
721.798	3180.15
721.985	3085.95
722.172	3108.48
722.358	3094.14
722.545	2997.88
722.732	3083.9
722.919	3036.8
723.106	3114.62
723.293	3010.17
723.48	3126.91
723.667	2915.97
723.853	2979.45
724.04	3057.28
724.227	3016.32
724.414	3053.18
724.6	2893.44
724.787	3112.57
724.974	2971.26
725.161	2905.73
725.347	2893.44
725.534	2846.34
725.72	2918.01
725.907	2979.45
726.094	2987.65
726.28	3061.37
726.467	2848.38
726.653	2788.99
726.84	2913.92
727.027	3057.28
727.213	2901.63
727.4	2870.91
727.586	2713.22
727.773	2901.63
727.959	2819.71
728.145	2813.57
728.332	2999.93
728.518	2741.89
728.705	2872.96
728.891	2735.74
729.077	2872.96
729.264	2823.81
729.45	2770.56
729.636	2807.42
729.823	2864.77
730.009	2821.76
730.195	2782.85
730.382	2823.81
730.568	2709.12
730.754	2623.11
730.94	2778.75
731.126	2702.98
731.313	2844.29
731.499	2756.22
731.685	2737.79
731.871	2680.45
732.057	2653.83
732.243	2762.37
732.429	2600.58
732.615	2799.23
732.801	2647.68
732.987	2627.2
733.173	2664.07
733.359	2598.53
733.545	2698.88
733.731	2692.74
733.917	2762.37
734.103	2657.92
734.289	2666.11
734.475	2616.96
734.661	2766.46
734.847	2465.41
735.033	2619.01
735.219	2602.63
735.404	2576
735.59	2559.62
735.776	2674.31
735.962	2528.9
736.148	2625.15
736.333	2616.96
736.519	2557.57
736.705	2522.76
736.89	2426.5
737.076	2590.34
737.262	2455.17
737.447	2504.32
737.633	2545.28
737.819	2567.81
738.004	2524.8
738.19	2385.54
738.375	2428.55
738.561	2483.84
738.747	2537.09
738.932	2352.77
739.118	2475.65
739.303	2389.64
739.489	2403.97
739.674	2397.83
739.859	2426.5
740.045	2254.47
740.23	2295.43
740.416	2305.67
740.601	2418.31
740.786	2268.81
740.972	2215.56
741.157	2311.82
741.342	2229.9
741.528	2313.86
741.713	2360.97
741.898	2238.09
742.084	2262.66
742.269	2223.75
742.454	2256.52
742.639	2240.14
742.824	2197.13
743.01	2238.09
743.195	2242.18
743.38	2188.94
743.565	2227.85
743.75	2172.55
743.935	2209.42
744.12	2127.5
744.305	2152.07
744.49	2107.02
744.675	2078.35
744.86	2076.3
745.045	2115.21
745.23	2182.79
745.415	2076.3
745.6	2188.94
745.785	2059.92
745.97	2209.42
746.155	2008.72
746.34	2082.44
746.525	1978
746.71	2018.96
746.895	2018.96
747.079	1871.5
747.264	1894.03
747.449	2039.44
747.634	2008.72
747.819	1910.41
748.003	1916.56
748.188	1855.12
748.373	1926.8
748.557	1877.65
748.742	1894.03
748.927	1828.49
749.111	1836.69
749.296	1730.19
749.481	1959.56
749.665	1773.2
749.85	1799.82
750.034	1746.58
750.219	1810.06
750.404	1777.3
750.588	1740.43
750.773	1736.34
750.957	1734.29
751.141	1728.14
751.326	1685.14
751.51	1617.55
751.695	1676.95
751.879	1722
752.064	1713.81
752.248	1705.62
752.432	1750.67
752.617	1621.65
752.801	1566.35
752.985	1631.89
753.17	1603.22
753.354	1613.46
753.538	1527.44
753.722	1468.05
753.907	1549.97
754.091	1478.29
754.275	1533.59
754.459	1533.59
754.643	1523.35
754.828	1439.38
755.012	1476.24
755.196	1441.43
755.38	1517.2
755.564	1521.3
755.748	1345.17
755.932	1484.44
756.116	1494.68
756.3	1398.42
756.484	1369.75
756.668	1361.56
756.852	1332.89
757.036	1361.56
757.22	1343.13
757.404	1283.74
757.588	1330.84
757.772	1404.57
757.956	1291.93
758.14	1296.02
758.323	1214.1
758.507	1250.97
758.691	1318.55
758.875	1246.87
759.059	1322.65
759.242	1193.62
759.426	1230.49
759.61	1353.37
759.794	1123.99
759.977	1123.99
760.161	1230.49
760.345	1226.39
760.528	1253.02
760.712	1242.78
760.895	1175.19
761.079	1195.67
761.263	1117.85
761.446	1105.56
761.63	1205.91
761.813	1177.24
761.997	1207.96
762.18	1091.23
762.364	1115.8
762.547	1132.19
762.731	1072.79
762.914	1167
763.098	1142.43
763.281	1107.61
763.464	1070.75
763.648	1183.38
763.831	1101.47
764.015	1054.36
764.198	1216.15
764.381	1123.99
764.564	1119.9
764.748	1083.03
764.931	1072.79
765.114	1091.23
765.297	1033.88
765.481	984.73
765.664	1074.84
765.847	1019.55
766.03	997.02
766.213	1046.17
766.397	1019.55
766.58	988.83
766.763	1052.31
766.946	1060.51
767.129	1060.51
767.312	960.16
767.495	968.35
767.678	986.78
767.861	911
768.044	927.39
768.227	1037.98
768.41	972.44
768.593	1017.5
768.776	978.59
768.959	861.85
769.142	1003.16
769.324	1001.12
769.507	1021.6
769.69	943.77
769.873	968.35
770.056	935.58
770.239	863.9
770.421	968.35
770.604	906.91
770.787	947.87
770.97	886.43
771.152	927.39
771.335	951.96
771.518	890.53
771.7	913.05
771.883	927.39
772.066	820.89
772.248	954.01
772.431	902.81
772.613	878.24
772.796	847.52
772.978	804.51
773.161	902.81
773.343	820.89
773.526	824.99
773.708	765.6
773.891	710.3
774.073	927.39
774.256	820.89
774.438	726.69
774.621	831.13
774.803	790.17
774.985	779.93
775.168	779.93
775.35	738.98
775.532	855.71
775.715	781.98
775.897	845.47
776.079	747.17
776.261	743.07
776.444	738.98
776.626	710.3
776.808	714.4
776.99	691.87
777.173	700.06
777.355	732.83
777.537	771.74
777.719	671.39
777.901	747.17
778.083	698.02
778.265	669.34
778.447	665.25
778.629	642.72
778.811	775.84
778.993	730.78
779.175	730.78
779.357	693.92
779.539	628.39
779.721	706.21
779.903	714.4
780.085	587.43
780.267	616.1
780.449	585.38
780.631	601.76
780.812	663.2
780.994	525.99
781.176	603.81
781.358	599.71
781.54	560.8
781.721	661.15
781.903	624.29
782.085	616.1
782.267	583.33
782.448	530.08
782.63	536.23
782.812	558.75
782.993	603.81
783.175	485.03
783.357	564.9
783.538	566.95
783.72	585.38
783.901	497.32
784.083	534.18
784.264	566.95
784.446	460.45
784.627	517.79
784.809	558.75
784.99	503.46
785.172	560.8
785.353	497.32
785.535	497.32
785.716	454.31
785.897	437.92
786.079	480.93
786.26	534.18
786.441	525.99
786.623	364.2
786.804	349.86
786.985	464.55
787.167	439.97
787.348	462.5
787.529	444.07
787.71	452.26
787.891	452.26
788.073	452.26
788.254	358.05
788.435	435.88
788.616	419.49
788.797	403.11
788.978	378.53
789.159	407.2
789.34	466.6
789.522	423.59
789.703	286.37
789.884	419.49
790.065	421.54
790.246	470.69
790.427	360.1
790.607	419.49
790.788	372.39
790.969	317.09
791.15	411.3
791.331	356.01
791.512	405.16
791.693	280.23
791.874	353.96
792.054	448.16
792.235	448.16
792.416	325.29
792.597	325.29
792.778	353.96
792.958	335.53
793.139	353.96
793.32	378.53
793.5	282.28
793.681	413.35
793.862	415.4
794.042	323.24
794.223	323.24
794.404	353.96
794.584	333.48
794.765	362.15
794.945	296.61
795.126	390.82
795.306	306.85
795.487	276.13
795.667	296.61
795.848	249.51
796.028	265.89
796.209	288.42
796.389	372.39
796.57	358.05
796.75	294.57
796.93	229.03
797.111	253.61
797.291	325.29
797.471	296.61
797.652	179.88
797.832	251.56
798.012	224.94
798.192	269.99
798.373	241.32
798.553	298.66
798.733	276.13
798.913	204.46
799.093	220.84
799.274	313
799.454	306.85
799.634	290.47
799.814	308.9
799.994	300.71
800.174	231.08
800.354	337.57
800.534	259.75
800.714	296.61
800.894	245.41
801.074	288.42
801.254	321.19
801.434	255.65
801.614	231.08
801.794	263.85
801.974	1019.55
802.154	253.61
802.334	214.7
802.514	259.75
802.693	269.99
802.873	245.41
803.053	353.96
803.233	183.98
803.413	245.41
803.592	216.74
803.772	214.7
803.952	198.31
804.131	181.93
804.311	243.37
804.491	206.5
804.67	239.27
804.85	145.06
805.03	251.56
805.209	194.22
805.389	136.87
805.568	263.85
805.748	218.79
805.928	231.08
806.107	173.74
806.287	259.75
806.466	239.27
806.646	100.01
806.825	126.63
807.004	206.5
807.184	190.12
807.363	247.46
807.543	231.08
807.722	171.69
807.901	304.81
808.081	315.05
808.26	140.97
808.439	126.63
808.619	167.59
808.798	151.21
808.977	153.26
809.156	257.7
809.336	143.02
809.515	226.98
809.694	165.54
809.873	206.5
810.052	200.36
810.231	67.24
810.411	186.02
810.59	278.18
810.769	143.02
810.948	202.41
811.127	71.34
811.306	134.82
811.485	247.46
811.664	183.98
811.843	202.41
812.022	134.82
812.201	175.78
812.38	173.74
812.559	108.2
812.737	165.54
812.916	128.68
813.095	132.78
813.274	181.93
813.453	132.78
813.632	181.93
813.811	104.11
813.989	190.12
814.168	124.58
814.347	95.91
814.526	120.49
814.704	208.55
814.883	188.07
815.062	110.25
815.24	102.06
815.419	69.29
815.598	165.54
815.776	157.35
815.955	75.43
816.133	124.58
816.312	91.82
816.49	157.35
816.669	100.01
816.847	194.22
817.026	151.21
817.204	93.87
817.383	136.87
817.561	138.92
817.74	173.74
817.918	147.11
818.097	130.73
818.275	149.16
818.453	190.12
818.632	159.4
818.81	77.48
818.988	140.97
819.167	124.58
819.345	61.1
819.523	157.35
819.701	132.78
819.879	71.34
820.058	151.21
820.236	116.39
820.414	57
820.592	118.44
820.77	104.11
820.948	116.39
821.127	77.48
821.305	124.58
821.483	124.58
821.661	124.58
821.839	106.15
822.017	30.38
822.195	85.67
822.373	116.39
822.551	118.44
822.729	100.01
822.907	38.57
823.085	151.21
823.262	147.11
823.44	91.82
823.618	126.63
823.796	18.09
823.974	102.06
824.152	93.87
824.329	104.11
824.507	22.19
824.685	124.58
824.863	65.19
825.04	116.39
825.218	128.68
825.396	28.33
825.574	110.25
825.751	97.96
825.929	132.78
826.107	1.71
826.284	59.05
826.462	134.82
826.639	44.71
826.817	50.86
826.994	157.35
827.172	50.86
827.349	108.2
827.527	118.44
827.704	69.29
827.882	140.97
828.059	44.71
828.237	7.85
828.414	9.9
828.591	26.28
828.769	9.9
828.946	69.29
829.124	153.26
829.301	77.48
829.478	75.43
829.655	75.43
829.833	-55.64
830.01	69.29
830.187	59.05
830.364	77.48
830.542	59.05
830.719	136.87
830.896	54.95
831.073	147.11
831.25	128.68
831.427	69.29
831.604	75.43
831.782	77.48
831.959	93.87
832.136	63.15
832.313	59.05
832.49	83.63
832.667	81.58
832.844	34.47
833.021	83.63
833.198	89.77
833.374	75.43
833.551	36.52
833.728	110.25
833.905	52.91
834.082	-22.87
834.259	100.01
834.436	100.01
834.612	91.82
834.789	87.72
834.966	120.49
835.143	71.34
835.319	63.15
835.496	116.39
835.673	46.76
835.85	50.86
836.026	63.15
836.203	73.39
836.38	93.87
836.556	46.76
836.733	71.34
836.909	65.19
837.086	44.71
837.262	44.71
837.439	30.38
837.616	30.38
837.792	67.24
837.968	-6.49
838.145	-45.4
838.321	93.87
838.498	95.91
838.674	190.12
838.851	128.68
839.027	59.05
839.203	34.47
839.38	61.1
839.556	26.28
839.732	106.15
839.909	104.11
840.085	9.9
840.261	40.62
840.437	44.71
840.614	-14.68
840.79	67.24
840.966	63.15
841.142	136.87
841.318	44.71
841.494	48.81
841.671	-29.01
841.847	48.81
842.023	-12.63
842.199	102.06
842.375	100.01
842.551	20.14
842.727	5.8
842.903	26.28
843.079	1.71
843.255	87.72
843.431	48.81
843.607	63.15
843.783	-26.96
843.959	61.1
844.134	-0.34
844.31	67.24
844.486	34.47
844.662	16.04
844.838	59.05
845.013	28.33
845.189	46.76
845.365	67.24
845.541	30.38
845.716	52.91
845.892	81.58
846.068	61.1
846.244	3.75
846.419	1.71
846.595	3.75
846.77	-10.58
846.946	75.43
847.122	28.33
847.297	95.91
847.473	63.15
847.648	18.09
847.824	42.67
847.999	-31.06
848.175	118.44
848.35	3.75
848.526	110.25
848.701	28.33
848.876	22.19
849.052	50.86
849.227	59.05
849.403	-20.82
849.578	52.91
849.753	30.38
849.929	48.81
850.104	-20.82
850.279	1.71
850.454	-16.73
850.63	18.09
850.805	112.3
850.98	79.53
851.155	9.9
851.33	-31.06
851.505	-57.68
851.681	93.87
851.856	-55.64
852.031	50.86
852.206	67.24
852.381	-31.06
852.556	-65.88
852.731	69.29
852.906	42.67
853.081	100.01
853.256	63.15
853.431	79.53
853.606	-26.96
853.781	-57.68
853.956	5.8
854.131	9.9
854.305	-12.63
854.48	73.39
854.655	30.38
854.83	26.28
855.005	-31.06
855.18	9.9
855.354	26.28
855.529	30.38
855.704	-16.73
855.879	75.43
856.053	-6.49
856.228	-33.11
856.403	-10.58
856.577	36.52
856.752	-10.58
856.926	13.99
857.101	34.47
857.276	-12.63
857.45	42.67
857.625	-12.63
857.799	26.28
857.974	-22.87
858.148	-10.58
858.323	30.38
858.497	38.57
858.672	46.76
858.846	-29.01
859.02	40.62
859.195	-45.4
859.369	48.81
859.543	63.15
859.718	13.99
859.892	16.04
860.066	-12.63
860.241	59.05
860.415	59.05
860.589	-6.49
860.763	30.38
860.938	-26.96
861.112	75.43
861.286	-53.59
861.46	-57.68
861.634	16.04
861.808	34.47
861.982	-6.49
862.157	-63.83
862.331	-10.58
862.505	-41.3
862.679	-10.58
862.853	32.43
863.027	9.9
863.201	11.95
863.375	26.28
863.549	-31.06
863.722	13.99
863.896	44.71
864.07	9.9
864.244	1.71
864.418	50.86
864.592	61.1
864.766	83.63
864.939	-47.44
865.113	75.43
865.287	-43.35
865.461	28.33
865.634	-4.44
865.808	-10.58
865.982	61.1
866.156	-45.4
866.329	18.09
866.503	-31.06
866.676	40.62
866.85	83.63
867.024	-20.82
867.197	30.38
867.371	50.86
867.544	1.71
867.718	36.52
867.891	-6.49
868.065	-88.4
868.238	-59.73
868.412	61.1
868.585	65.19
868.759	-26.96
868.932	-31.06
869.105	22.19
869.279	-53.59
869.452	-45.4
869.625	22.19
869.799	-55.64
869.972	-2.39
870.145	34.47
870.319	83.63
870.492	-14.68
870.665	34.47
870.838	-78.16
871.011	-92.5
871.185	-10.58
871.358	69.29
871.531	50.86
871.704	-6.49
871.877	-2.39
872.05	-39.25
872.223	28.33
872.396	54.95
872.569	9.9
872.742	-84.31
872.915	34.47
873.088	-41.3
873.261	-47.44
873.434	18.09
873.607	1.71
873.78	5.8
873.953	-45.4
874.126	-6.49
874.299	-12.63
874.471	11.95
874.644	-35.16
874.817	75.43
874.99	116.39
875.163	-24.92
875.335	-10.58
875.508	-6.49
875.681	46.76
875.853	50.86
876.026	-39.25
876.199	22.19
876.371	-6.49
876.544	-20.82
876.717	-31.06
876.889	-29.01
877.062	42.67
877.234	-45.4
877.407	9.9
877.579	-10.58
877.752	75.43
877.924	-10.58
878.097	9.9
878.269	42.67
878.442	-0.34
878.614	9.9
878.786	-0.34
878.959	42.67
879.131	9.9
879.303	-29.01
879.476	1.71
879.648	20.14
879.82	-18.77
879.993	9.9
880.165	-31.06
880.337	-80.21
880.509	-22.87
880.681	38.57
880.854	-63.83
881.026	48.81
881.198	11.95
881.37	18.09
881.542	-0.34
881.714	-0.34
881.886	-47.44
882.058	18.09
882.23	-59.73
882.402	-45.4
882.574	-22.87
882.746	63.15
882.918	87.72
883.09	106.15
883.262	-31.06
883.434	67.24
883.606	-53.59
883.778	-65.88
883.95	9.9
884.122	-4.44
884.293	-24.92
884.465	52.91
884.637	20.14
884.809	-76.12
884.98	20.14
885.152	-59.73
885.324	18.09
885.496	-39.25
885.667	-39.25
885.839	-49.49
886.011	-14.68
886.182	20.14
886.354	-14.68
886.525	-10.58
886.697	-4.44
886.869	-84.31
887.04	48.81
887.212	-24.92
887.383	52.91
887.555	-6.49
887.726	67.24
887.897	3.75
888.069	11.95
888.24	-41.3
888.412	30.38
888.583	-29.01
888.754	-22.87
888.926	-94.55
889.097	40.62
889.268	36.52
889.44	-14.68
889.611	-35.16
889.782	-61.78
889.953	18.09
890.125	18.09
890.296	24.23
890.467	13.99
890.638	-84.31
890.809	-53.59
890.98	-33.11
891.151	48.81
891.323	26.28
891.494	3.75
891.665	42.67
891.836	44.71
892.007	-43.35
892.178	28.33
892.349	11.95
892.52	18.09
892.691	50.86
892.862	20.14
893.032	-31.06
893.203	-80.21
893.374	-41.3
893.545	42.67
893.716	-45.4
893.887	-57.68
894.057	-47.44
894.228	-10.58
894.399	-14.68
894.57	-31.06
894.74	-67.92
894.911	-4.44
895.082	34.47
895.253	1.71
895.423	-2.39
895.594	67.24
895.764	3.75
895.935	-53.59
896.106	24.23
896.276	5.8
896.447	20.14
896.617	26.28
896.788	-0.34
896.958	-47.44
897.129	-29.01
897.299	-20.82
897.47	3.75
897.64	-2.39
897.81	18.09
897.981	-78.16
898.151	-72.02
898.322	-6.49
898.492	-0.34
898.662	-10.58
898.832	-10.58
899.003	67.24
899.173	38.57
899.343	-29.01
899.513	-31.06
