Data from USB4F104151__268__14-34-36-028.txt Node

Date: Thu Mar 13 14:34:36 EDT 2025
User: louis
Spectrometer: USB4F10415
Trigger mode: 4
Integration Time (sec): 2.500000E-2
Scans to average: 1
Electric dark correction enabled: true
Nonlinearity correction enabled: false
Boxcar width: 0
XAxis mode: Wavelengths
Number of Pixels in Spectrum: 3648
>>>>>Begin Spectral Data<<<<<
178.204	-204.97
178.424	-204.97
178.644	-204.97
178.864	-129.19
179.084	-184.49
179.304	-94.38
179.524	34.64
179.744	-34.99
179.964	46.93
180.184	-24.75
180.404	63.32
180.624	34.64
180.844	-22.7
181.064	-28.84
181.283	-30.89
181.503	-18.6
181.723	75.6
181.943	-28.84
182.163	-2.22
182.383	-6.31
182.602	63.32
182.822	36.69
183.042	12.12
183.262	-71.85
183.482	-2.22
183.701	-2.22
183.921	61.27
184.141	3.93
184.361	-10.41
184.58	-41.13
184.8	28.5
185.02	-10.41
185.239	1.88
185.459	1.88
185.679	18.26
185.898	-92.33
186.118	-0.17
186.338	36.69
186.557	34.64
186.777	-2.22
186.997	-28.84
187.216	-4.27
187.436	98.13
187.655	59.22
187.875	-14.51
188.095	-18.6
188.314	1.88
188.534	55.12
188.753	-12.46
188.973	79.7
189.192	28.5
189.412	42.84
189.631	53.08
189.851	-22.7
190.07	46.93
190.29	-43.18
190.509	34.64
190.729	-10.41
190.948	18.26
191.168	132.95
191.387	12.12
191.607	42.84
191.826	-16.55
192.045	16.21
192.265	-20.65
192.484	22.36
192.704	-37.03
192.923	-67.75
193.142	89.94
193.362	10.07
193.581	40.79
193.8	-18.6
194.02	53.08
194.239	-22.7
194.458	-4.27
194.678	24.4
194.897	38.74
195.116	3.93
195.335	-61.61
195.555	14.17
195.774	18.26
195.993	-6.31
196.212	-49.32
196.432	20.31
196.651	-22.7
196.87	-10.41
197.089	108.37
197.308	48.98
197.528	51.03
197.747	-6.31
197.966	-51.37
198.185	108.37
198.404	-14.51
198.623	3.93
198.842	-18.6
199.062	34.64
199.281	61.27
199.5	10.07
199.719	-69.8
199.938	10.07
200.157	22.36
200.376	53.08
200.595	100.18
200.814	75.6
201.033	-100.52
201.252	110.42
201.471	-18.6
201.69	-2.22
201.909	12.12
202.128	96.08
202.347	22.36
202.566	3.93
202.785	-30.89
203.004	-47.27
203.223	26.45
203.442	-6.31
203.661	1.88
203.879	-2.22
204.098	51.03
204.317	5.97
204.536	14.17
204.755	-26.79
204.974	71.51
205.193	38.74
205.411	116.56
205.63	71.51
205.849	110.42
206.068	42.84
206.287	16.21
206.505	42.84
206.724	-80.04
206.943	18.26
207.162	-14.51
207.381	-47.27
207.599	34.64
207.818	1.88
208.037	8.02
208.255	112.47
208.474	12.12
208.693	-14.51
208.911	22.36
209.13	-20.65
209.349	-47.27
209.567	28.5
209.786	85.84
210.005	-43.18
210.223	-12.46
210.442	-88.23
210.661	100.18
210.879	-45.23
211.098	34.64
211.316	53.08
211.535	71.51
211.753	10.07
211.972	36.69
212.191	20.31
212.409	-2.22
212.628	42.84
212.846	34.64
213.065	-6.31
213.283	59.22
213.502	16.21
213.72	-12.46
213.938	59.22
214.157	26.45
214.375	-39.08
214.594	-37.03
214.812	1.88
215.031	-12.46
215.249	12.12
215.467	-26.79
215.686	-30.89
215.904	79.7
216.122	10.07
216.341	10.07
216.559	34.64
216.778	12.12
216.996	46.93
217.214	22.36
217.432	-84.14
217.651	-75.95
217.869	-14.51
218.087	-30.89
218.306	44.88
218.524	34.64
218.742	36.69
218.96	59.22
219.179	26.45
219.397	-10.41
219.615	28.5
219.833	-26.79
220.051	18.26
220.27	71.51
220.488	61.27
220.706	-75.95
220.924	-28.84
221.142	5.97
221.36	30.55
221.578	-14.51
221.796	42.84
222.015	59.22
222.233	83.8
222.451	61.27
222.669	-47.27
222.887	108.37
223.105	-37.03
223.323	-30.89
223.541	-67.75
223.759	69.46
223.977	-28.84
224.195	1.88
224.413	-14.51
224.631	67.41
224.849	34.64
225.067	46.93
225.285	-53.42
225.503	-43.18
225.721	1.88
225.939	-34.99
226.157	30.55
226.375	94.04
226.592	-6.31
226.81	-8.36
227.028	38.74
227.246	67.41
227.464	-6.31
227.682	-12.46
227.9	51.03
228.117	16.21
228.335	-63.66
228.553	-26.79
228.771	-26.79
228.989	30.55
229.206	30.55
229.424	-22.7
229.642	38.74
229.86	5.97
230.077	32.6
230.295	55.12
230.513	36.69
230.731	143.19
230.948	53.08
231.166	51.03
231.384	44.88
231.601	-26.79
231.819	12.12
232.037	-55.47
232.254	-55.47
232.472	16.21
232.689	-14.51
232.907	79.7
233.125	24.4
233.342	-4.27
233.56	-26.79
233.777	18.26
233.995	-16.55
234.213	14.17
234.43	38.74
234.648	20.31
234.865	22.36
235.083	14.17
235.3	32.6
235.518	55.12
235.735	53.08
235.953	-30.89
236.17	-10.41
236.388	65.36
236.605	26.45
236.822	100.18
237.04	55.12
237.257	-2.22
237.475	-61.61
237.692	1.88
237.909	22.36
238.127	26.45
238.344	55.12
238.562	1.88
238.779	-18.6
238.996	-6.31
239.214	-6.31
239.431	85.84
239.648	-30.89
239.865	44.88
240.083	57.17
240.3	38.74
240.517	-55.47
240.735	-30.89
240.952	-20.65
241.169	22.36
241.386	51.03
241.603	-45.23
241.821	30.55
242.038	51.03
242.255	-49.32
242.472	-14.51
242.689	-18.6
242.907	145.24
243.124	-69.8
243.341	12.12
243.558	36.69
243.775	8.02
243.992	-16.55
244.209	-12.46
244.426	91.99
244.643	-2.22
244.86	1.88
245.078	1.88
245.295	3.93
245.512	53.08
245.729	-6.31
245.946	61.27
246.163	65.36
246.38	5.97
246.597	5.97
246.814	20.31
247.031	57.17
247.248	42.84
247.464	85.84
247.681	18.26
247.898	-6.31
248.115	24.4
248.332	-53.42
248.549	79.7
248.766	55.12
248.983	51.03
249.2	14.17
249.417	38.74
249.633	3.93
249.85	10.07
250.067	-18.6
250.284	69.46
250.501	53.08
250.717	59.22
250.934	-22.7
251.151	10.07
251.368	10.07
251.585	28.5
251.801	-61.61
252.018	-63.66
252.235	67.41
252.451	-14.51
252.668	-51.37
252.885	67.41
253.102	-45.23
253.318	10.07
253.535	-30.89
253.752	-26.79
253.968	1.88
254.185	-51.37
254.401	-22.7
254.618	12.12
254.835	26.45
255.051	42.84
255.268	38.74
255.484	34.64
255.701	-24.75
255.917	20.31
256.134	20.31
256.351	59.22
256.567	14.17
256.784	-30.89
257	-39.08
257.217	12.12
257.433	-10.41
257.65	20.31
257.866	18.26
258.082	10.07
258.299	-37.03
258.515	36.69
258.732	30.55
258.948	5.97
259.165	-0.17
259.381	46.93
259.597	46.93
259.814	59.22
260.03	1.88
260.246	51.03
260.463	-28.84
260.679	63.32
260.895	-12.46
261.112	-30.89
261.328	-39.08
261.544	-4.27
261.761	71.51
261.977	-6.31
262.193	-10.41
262.409	22.36
262.626	18.26
262.842	-43.18
263.058	-41.13
263.274	-41.13
263.49	40.79
263.707	20.31
263.923	-20.65
264.139	-18.6
264.355	26.45
264.571	59.22
264.787	24.4
265.004	53.08
265.22	26.45
265.436	30.55
265.652	-34.99
265.868	-37.03
266.084	3.93
266.3	42.84
266.516	-39.08
266.732	8.02
266.948	34.64
267.164	-37.03
267.38	59.22
267.596	141.14
267.812	85.84
268.028	67.41
268.244	-51.37
268.46	26.45
268.676	-4.27
268.892	30.55
269.108	-39.08
269.324	-37.03
269.54	42.84
269.756	83.8
269.972	3.93
270.188	67.41
270.403	3.93
270.619	14.17
270.835	-14.51
271.051	-22.7
271.267	46.93
271.483	-14.51
271.698	67.41
271.914	85.84
272.13	75.6
272.346	10.07
272.562	46.93
272.777	67.41
272.993	-45.23
273.209	-22.7
273.425	89.94
273.64	-55.47
273.856	69.46
274.072	-14.51
274.287	-88.23
274.503	116.56
274.719	51.03
274.934	14.17
275.15	-14.51
275.366	89.94
275.581	20.31
275.797	10.07
276.012	-24.75
276.228	28.5
276.444	-75.95
276.659	63.32
276.875	71.51
277.09	-34.99
277.306	83.8
277.521	65.36
277.737	10.07
277.952	36.69
278.168	18.26
278.383	-4.27
278.599	-47.27
278.814	79.7
279.03	51.03
279.245	10.07
279.461	-22.7
279.676	-18.6
279.892	-22.7
280.107	48.98
280.322	-47.27
280.538	3.93
280.753	-4.27
280.969	-2.22
281.184	-10.41
281.399	34.64
281.615	-24.75
281.83	44.88
282.045	1.88
282.26	75.6
282.476	83.8
282.691	69.46
282.906	-0.17
283.122	42.84
283.337	53.08
283.552	67.41
283.767	10.07
283.983	20.31
284.198	-18.6
284.413	18.26
284.628	-63.66
284.843	10.07
285.058	42.84
285.274	5.97
285.489	5.97
285.704	28.5
285.919	-37.03
286.134	-12.46
286.349	-14.51
286.564	57.17
286.779	75.6
286.995	28.5
287.21	-34.99
287.425	36.69
287.64	5.97
287.855	100.18
288.07	-57.51
288.285	55.12
288.5	22.36
288.715	87.89
288.93	-6.31
289.145	40.79
289.36	12.12
289.575	-6.31
289.79	75.6
290.004	30.55
290.219	1.88
290.434	-14.51
290.649	-37.03
290.864	59.22
291.079	63.32
291.294	44.88
291.509	34.64
291.724	36.69
291.938	42.84
292.153	-12.46
292.368	-30.89
292.583	26.45
292.798	-0.17
293.012	5.97
293.227	67.41
293.442	63.32
293.657	73.56
293.871	40.79
294.086	-0.17
294.301	-26.79
294.516	75.6
294.73	65.36
294.945	-53.42
295.16	-2.22
295.374	28.5
295.589	20.31
295.804	-37.03
296.018	1.88
296.233	61.27
296.447	-8.36
296.662	-28.84
296.877	10.07
297.091	44.88
297.306	-30.89
297.52	10.07
297.735	1.88
297.949	1.88
298.164	34.64
298.378	30.55
298.593	-24.75
298.807	-20.65
299.022	67.41
299.236	20.31
299.451	-102.57
299.665	-22.7
299.88	10.07
300.094	-18.6
300.309	-34.99
300.523	26.45
300.737	3.93
300.952	38.74
301.166	-77.99
301.381	67.41
301.595	42.84
301.809	10.07
302.024	59.22
302.238	38.74
302.452	69.46
302.667	-26.79
302.881	100.18
303.095	10.07
303.309	75.6
303.524	-14.51
303.738	-16.55
303.952	30.55
304.166	-8.36
304.381	-6.31
304.595	135
304.809	-12.46
305.023	-67.75
305.237	30.55
305.452	26.45
305.666	-47.27
305.88	36.69
306.094	-22.7
306.308	-2.22
306.522	18.26
306.736	-43.18
306.95	42.84
307.164	34.64
307.379	-24.75
307.593	145.24
307.807	73.56
308.021	63.32
308.235	20.31
308.449	-34.99
308.663	-43.18
308.877	116.56
309.091	26.45
309.305	14.17
309.519	-14.51
309.733	28.5
309.947	16.21
310.161	-0.17
310.374	18.26
310.588	14.17
310.802	10.07
311.016	32.6
311.23	-6.31
311.444	-6.31
311.658	67.41
311.872	-22.7
312.085	67.41
312.299	-2.22
312.513	3.93
312.727	61.27
312.941	32.6
313.154	69.46
313.368	-8.36
313.582	-20.65
313.796	-28.84
314.009	18.26
314.223	59.22
314.437	55.12
314.651	34.64
314.864	61.27
315.078	-80.04
315.292	-0.17
315.505	-39.08
315.719	75.6
315.933	-14.51
316.146	51.03
316.36	-63.66
316.573	26.45
316.787	12.12
317.001	46.93
317.214	1.88
317.428	46.93
317.641	-39.08
317.855	34.64
318.068	44.88
318.282	12.12
318.495	12.12
318.709	75.6
318.922	-37.03
319.136	75.6
319.349	85.84
319.563	67.41
319.776	30.55
319.99	-34.99
320.203	-10.41
320.417	42.84
320.63	18.26
320.843	91.99
321.057	-22.7
321.27	26.45
321.483	-10.41
321.697	20.31
321.91	22.36
322.124	104.28
322.337	-14.51
322.55	1.88
322.763	59.22
322.977	8.02
323.19	-6.31
323.403	53.08
323.617	22.36
323.83	-26.79
324.043	18.26
324.256	51.03
324.469	40.79
324.683	116.56
324.896	-22.7
325.109	-14.51
325.322	-39.08
325.535	77.65
325.748	110.42
325.962	-30.89
326.175	28.5
326.388	16.21
326.601	44.88
326.814	32.6
327.027	36.69
327.24	36.69
327.453	-59.56
327.666	40.79
327.879	-22.7
328.092	61.27
328.305	5.97
328.518	-10.41
328.731	-55.47
328.944	42.84
329.157	34.64
329.37	-37.03
329.583	18.26
329.796	18.26
330.009	1.88
330.222	118.61
330.435	55.12
330.648	42.84
330.861	-6.31
331.073	34.64
331.286	10.07
331.499	-4.27
331.712	-6.31
331.925	-6.31
332.138	3.93
332.35	1.88
332.563	-18.6
332.776	55.12
332.989	24.4
333.202	42.84
333.414	26.45
333.627	-20.65
333.84	-12.46
334.053	-47.27
334.265	-37.03
334.478	3.93
334.691	22.36
334.903	34.64
335.116	5.97
335.329	53.08
335.541	67.41
335.754	143.19
335.966	-73.9
336.179	12.12
336.392	-30.89
336.604	36.69
336.817	38.74
337.029	10.07
337.242	-34.99
337.454	1.88
337.667	34.64
337.88	53.08
338.092	30.55
338.305	63.32
338.517	-18.6
338.729	75.6
338.942	26.45
339.154	-4.27
339.367	24.4
339.579	12.12
339.792	-59.56
340.004	30.55
340.217	53.08
340.429	26.45
340.641	34.64
340.854	-28.84
341.066	-0.17
341.278	-22.7
341.491	83.8
341.703	34.64
341.915	14.17
342.128	53.08
342.34	26.45
342.552	-30.89
342.764	10.07
342.977	10.07
343.189	46.93
343.401	36.69
343.613	-14.51
343.826	14.17
344.038	-4.27
344.25	-4.27
344.462	5.97
344.674	94.04
344.886	-18.6
345.099	83.8
345.311	-82.09
345.523	-12.46
345.735	-4.27
345.947	51.03
346.159	24.4
346.371	-6.31
346.583	51.03
346.795	118.61
347.007	-32.94
347.219	77.65
347.431	-26.79
347.643	-43.18
347.855	44.88
348.067	42.84
348.279	71.51
348.491	-28.84
348.703	-18.6
348.915	26.45
349.127	18.26
349.339	-4.27
349.551	-53.42
349.763	65.36
349.975	10.07
350.187	42.84
350.399	94.04
350.61	139.09
350.822	-96.43
351.034	51.03
351.246	14.17
351.458	75.6
351.669	34.64
351.881	59.22
352.093	18.26
352.305	53.08
352.517	-30.89
352.728	75.6
352.94	-16.55
353.152	34.64
353.363	-63.66
353.575	-26.79
353.787	96.08
353.999	67.41
354.21	59.22
354.422	3.93
354.633	36.69
354.845	16.21
355.057	34.64
355.268	38.74
355.48	12.12
355.692	5.97
355.903	26.45
356.115	53.08
356.326	-53.42
356.538	18.26
356.749	51.03
356.961	55.12
357.172	-26.79
357.384	3.93
357.595	116.56
357.807	30.55
358.018	75.6
358.23	-6.31
358.441	104.28
358.653	26.45
358.864	-55.47
359.075	32.6
359.287	-37.03
359.498	61.27
359.709	30.55
359.921	20.31
360.132	-37.03
360.344	48.98
360.555	12.12
360.766	-14.51
360.977	-75.95
361.189	20.31
361.4	3.93
361.611	94.04
361.823	61.27
362.034	-2.22
362.245	67.41
362.456	42.84
362.667	59.22
362.879	38.74
363.09	28.5
363.301	-20.65
363.512	10.07
363.723	8.02
363.935	-22.7
364.146	83.8
364.357	8.02
364.568	28.5
364.779	42.84
364.99	44.88
365.201	12.12
365.412	1.88
365.623	26.45
365.834	94.04
366.045	38.74
366.256	-37.03
366.467	42.84
366.678	69.46
366.889	14.17
367.1	-32.94
367.311	20.31
367.522	34.64
367.733	-16.55
367.944	18.26
368.155	87.89
368.366	10.07
368.577	69.46
368.788	57.17
368.999	-12.46
369.209	-2.22
369.42	173.91
369.631	132.95
369.842	46.93
370.053	55.12
370.264	79.7
370.474	10.07
370.685	20.31
370.896	-12.46
371.107	65.36
371.317	79.7
371.528	30.55
371.739	44.88
371.95	94.04
372.16	-14.51
372.371	-20.65
372.582	-53.42
372.792	18.26
373.003	-47.27
373.214	12.12
373.424	128.85
373.635	-24.75
373.846	120.66
374.056	28.5
374.267	-71.85
374.477	149.33
374.688	-20.65
374.898	87.89
375.109	3.93
375.319	-20.65
375.53	137.04
375.74	28.5
375.951	98.13
376.161	46.93
376.372	44.88
376.582	18.26
376.793	-20.65
377.003	-61.61
377.214	53.08
377.424	100.18
377.635	36.69
377.845	96.08
378.055	34.64
378.266	30.55
378.476	20.31
378.686	3.93
378.897	-51.37
379.107	55.12
379.317	89.94
379.528	-43.18
379.738	44.88
379.948	20.31
380.158	-4.27
380.369	-2.22
380.579	-6.31
380.789	-43.18
380.999	51.03
381.21	112.47
381.42	61.27
381.63	10.07
381.84	61.27
382.05	51.03
382.261	57.17
382.471	42.84
382.681	3.93
382.891	96.08
383.101	22.36
383.311	63.32
383.521	16.21
383.731	8.02
383.941	71.51
384.151	-8.36
384.361	-28.84
384.571	51.03
384.781	51.03
384.991	61.27
385.201	32.6
385.411	34.64
385.621	10.07
385.831	55.12
386.041	61.27
386.251	69.46
386.461	18.26
386.671	-4.27
386.881	24.4
387.091	26.45
387.301	59.22
387.511	-34.99
387.72	59.22
387.93	55.12
388.14	-53.42
388.35	42.84
388.56	14.17
388.769	124.76
388.979	-45.23
389.189	-18.6
389.399	42.84
389.609	96.08
389.818	-30.89
390.028	22.36
390.238	22.36
390.447	26.45
390.657	85.84
390.867	28.5
391.076	-12.46
391.286	85.84
391.496	10.07
391.705	-2.22
391.915	59.22
392.125	40.79
392.334	112.47
392.544	38.74
392.753	51.03
392.963	1.88
393.172	55.12
393.382	81.75
393.591	157.52
393.801	12.12
394.01	83.8
394.22	44.88
394.429	83.8
394.639	14.17
394.848	61.27
395.058	67.41
395.267	96.08
395.477	-12.46
395.686	59.22
395.895	28.5
396.105	102.23
396.314	59.22
396.524	100.18
396.733	28.5
396.942	10.07
397.152	102.23
397.361	114.52
397.57	-39.08
397.78	59.22
397.989	51.03
398.198	190.29
398.407	102.23
398.617	38.74
398.826	42.84
399.035	42.84
399.244	173.91
399.453	20.31
399.663	102.23
399.872	85.84
400.081	42.84
400.29	40.79
400.499	46.93
400.708	112.47
400.917	100.18
401.127	77.65
401.336	22.36
401.545	44.88
401.754	114.52
401.963	46.93
402.172	55.12
402.381	94.04
402.59	87.89
402.799	122.71
403.008	145.24
403.217	126.8
403.426	91.99
403.635	85.84
403.844	110.42
404.053	116.56
404.262	184.15
404.471	124.76
404.68	67.41
404.888	135
405.097	145.24
405.306	167.76
405.515	69.46
405.724	132.95
405.933	118.61
406.142	124.76
406.35	198.48
406.559	139.09
406.768	184.15
406.977	204.63
407.185	130.9
407.394	218.96
407.603	114.52
407.812	175.95
408.02	233.3
408.229	132.95
408.438	178
408.646	102.23
408.855	178
409.064	186.19
409.272	204.63
409.481	243.54
409.69	218.96
409.898	241.49
410.107	347.98
410.315	298.83
410.524	321.36
410.733	337.74
410.941	268.11
411.15	409.42
411.358	307.02
411.567	358.22
411.775	311.12
411.984	337.74
412.192	393.04
412.401	376.66
412.609	395.09
412.818	386.9
413.026	358.22
413.234	462.67
413.443	501.58
413.651	358.22
413.86	569.16
414.068	628.56
414.276	644.94
414.485	567.12
414.693	587.6
414.901	673.61
415.11	661.32
415.318	681.8
415.526	667.47
415.734	634.7
415.943	628.56
416.151	739.15
416.359	747.34
416.567	698.19
416.776	710.47
416.984	890.7
417.192	835.4
417.4	841.54
417.608	862.02
417.817	872.26
418.025	966.47
418.233	952.13
418.441	976.71
418.649	989
418.857	1134.4
419.065	1165.12
419.273	1177.41
419.481	1224.51
419.689	1238.85
419.897	1300.29
420.105	1234.75
420.313	1312.58
420.521	1410.88
420.729	1480.51
420.937	1464.13
421.145	1525.57
421.353	1529.66
421.561	1625.92
421.769	1689.4
421.977	1750.84
422.185	1765.18
422.393	1867.58
422.601	1974.07
422.809	1935.16
423.017	2037.56
423.224	2090.81
423.432	2062.13
423.64	2172.72
423.848	2357.04
424.056	2311.99
424.263	2606.89
424.471	2514.73
424.679	2580.27
424.887	2590.51
425.094	2770.73
425.302	2697
425.51	2860.84
425.718	2889.51
425.925	3016.49
426.133	2983.72
426.341	3331.87
426.548	3462.94
426.756	3395.36
426.964	3430.18
427.171	3680.03
427.379	3665.69
427.586	3755.8
427.794	3649.31
428.001	4085.53
428.209	4319
428.417	4206.36
428.624	4411.15
428.832	4370.19
429.039	4415.25
429.247	4491.02
429.454	4796.17
429.662	5019.4
429.869	4800.27
430.076	5056.26
430.284	4908.81
430.491	5197.57
430.699	5650.18
430.906	5490.43
431.114	5617.41
431.321	5828.35
431.528	5932.79
431.736	6237.94
431.943	6538.99
432.15	6358.77
432.358	6582
432.565	7012.07
432.772	6792.94
432.979	7128.81
433.187	7216.87
433.394	7313.13
433.601	7790.3
433.808	7663.33
434.016	7735.01
434.223	8138.46
434.43	8718.03
434.637	8560.34
434.844	9023.18
435.052	8926.93
435.259	8988.36
435.466	9150.15
435.673	9006.8
435.88	9516.74
436.087	10112.7
436.294	10127.03
436.501	9891.52
436.708	10098.36
436.915	10217.15
437.122	10722.99
437.329	10708.66
437.537	11243.18
437.743	11337.38
437.95	11128.49
438.157	11708.07
438.364	12289.69
438.571	12132
438.778	12437.14
438.985	13274.76
439.192	12807.83
439.399	13463.18
439.606	13067.92
439.813	13756.04
440.02	14569.08
440.227	14206.59
440.433	13907.59
440.64	14732.92
440.847	14376.57
441.054	15031.92
441.261	15867.49
441.467	15427.18
441.674	15926.88
441.881	16311.9
442.088	16643.67
442.294	16004.71
442.501	16465.5
442.708	17092.18
442.914	17507.91
443.121	18540.09
443.328	17882.69
443.534	19037.75
443.741	18697.78
443.948	18376.25
444.154	19738.15
444.361	19637.8
444.568	19813.93
444.774	19768.87
444.981	20049.44
445.187	20379.17
445.394	21411.34
445.6	21413.39
445.807	23135.73
446.013	22003.21
446.22	22562.3
446.426	23350.77
446.633	23416.3
446.839	24438.24
447.046	23240.18
447.252	24704.48
447.459	24692.19
447.665	24651.23
447.871	25595.34
448.078	26619.33
448.284	25470.42
448.491	26174.92
448.697	26953.15
448.903	27596.21
449.11	27803.05
449.316	27514.29
449.522	28001.71
449.728	28605.86
449.935	28896.67
450.141	28865.95
450.347	29619.6
450.553	28618.14
450.76	28765.6
450.966	29902.22
451.172	29435.28
451.378	30424.45
451.584	29549.97
451.791	30659.97
451.997	30156.17
452.203	30875.01
452.409	31053.18
452.615	30629.25
452.821	29203.86
453.027	28992.92
453.233	30639.49
453.44	29291.93
453.646	29539.73
453.852	29826.45
454.058	30082.44
454.264	29097.37
454.47	30277
454.676	29382.04
454.882	30250.38
455.088	27655.6
455.294	27858.35
455.5	28665.25
455.705	28491.17
455.911	27805.1
456.117	27188.66
456.323	26906.04
456.529	25095.64
456.735	26609.09
456.941	25748.94
457.147	25138.65
457.352	24479.2
457.558	24094.18
457.764	24284.64
457.97	23725.55
458.176	23238.13
458.381	23090.68
458.587	21954.05
458.793	21906.95
458.999	20792.86
459.204	22459.9
459.41	21790.22
459.616	20121.12
459.821	20076.07
460.027	20108.83
460.233	19781.16
460.438	18767.41
460.644	19054.13
460.85	18179.65
461.055	17872.45
461.261	17854.02
461.466	16332.38
461.672	15844.96
461.878	17114.7
462.083	15926.88
462.289	15435.37
462.494	15406.7
462.7	14749.3
462.905	14354.04
463.111	14939.76
463.316	15115.89
463.522	14438.01
463.727	14429.82
463.932	14577.27
464.138	14255.74
464.343	14472.82
464.549	13952.64
464.754	14509.69
464.959	14472.82
465.165	14069.37
465.37	13502.09
465.575	13135.5
465.781	13608.58
465.986	13727.36
466.191	13088.4
466.397	12916.37
466.602	12355.22
466.807	12834.45
467.012	12883.6
467.218	12619.41
467.423	12689.04
467.628	12512.92
467.833	13041.29
468.038	12496.53
468.244	12308.12
468.449	12478.1
468.654	12189.34
468.859	12220.06
469.064	12076.7
469.269	11693.73
469.474	11677.35
469.679	11839.14
469.885	11798.18
470.09	11888.29
470.295	11513.51
470.5	11275.95
470.705	11480.74
470.91	10985.13
471.115	10921.65
471.32	11218.6
471.525	11081.39
471.73	10679.99
471.935	10712.75
472.139	10245.82
472.344	10516.15
472.549	10421.94
472.754	10274.49
472.959	10348.22
473.164	9918.14
473.369	9885.37
473.574	10049.21
473.778	10190.52
473.983	9764.54
474.188	9885.37
474.393	9377.48
474.598	9561.8
474.802	9381.57
475.007	9193.16
475.212	9262.79
475.417	8820.43
475.621	8922.83
475.826	8924.88
476.031	8779.47
476.235	8443.6
476.44	8824.53
476.645	8734.42
476.849	8408.79
477.054	8427.22
477.259	8308.44
477.463	8427.22
477.668	8095.45
477.872	8197.85
478.077	8154.84
478.282	7864.03
478.486	7857.89
478.691	7589.6
478.895	7935.71
479.1	7855.84
479.304	7747.3
479.509	7362.28
479.713	7528.16
479.918	7519.97
480.122	7272.17
480.326	7556.83
480.531	7481.06
480.735	7341.8
480.94	7292.65
481.144	7472.87
481.348	7253.73
481.553	7227.11
481.757	7227.11
481.961	6960.88
482.166	7212.78
482.37	7321.32
482.574	6944.49
482.778	7065.32
482.983	7153.38
483.187	7223.02
483.391	7169.77
483.595	6946.54
483.8	6891.24
484.004	7167.72
484.208	7286.5
484.412	7286.5
484.616	7114.47
484.821	7104.23
485.025	6860.52
485.229	7042.79
485.433	6915.82
485.637	7177.96
485.841	6940.4
486.045	6948.59
486.249	7016.17
486.453	6895.34
486.657	6975.21
486.861	7087.85
487.065	6919.92
487.269	6960.88
487.473	6858.48
487.677	7173.86
487.881	7110.38
488.085	6919.92
488.289	6932.2
488.493	6803.18
488.697	7145.19
488.901	6975.21
489.105	7034.6
489.309	7177.96
489.512	6932.2
489.716	6985.45
489.92	6915.82
490.124	6878.96
490.328	7020.27
490.531	7104.23
490.735	7040.75
490.939	6997.74
491.143	7128.81
491.346	6987.5
491.55	7102.18
491.754	7032.55
491.958	7204.58
492.161	7157.48
492.365	7124.71
492.569	7044.84
492.772	7126.76
492.976	7227.11
493.18	7261.93
493.383	7386.85
493.587	7382.76
493.79	7481.06
493.994	7255.78
494.197	7452.39
494.401	7505.63
494.605	7497.44
494.808	7579.36
495.012	7372.52
495.215	7556.83
495.419	7661.28
495.622	7546.59
495.825	7681.76
496.029	7714.53
496.232	7669.47
496.436	7792.35
496.639	7941.85
496.843	7988.96
497.046	8009.44
497.249	8138.46
497.453	8095.45
497.656	8238.81
497.859	8013.53
498.063	8513.24
498.266	8550.1
498.469	8529.62
498.673	8435.41
498.876	8890.06
499.079	8787.66
499.282	8632.02
499.485	8933.07
499.689	9029.32
499.892	9168.59
500.095	9180.87
500.298	9197.26
500.501	9172.68
500.705	9408.2
500.908	9479.88
501.111	9432.77
501.314	9385.67
501.517	9649.86
501.72	9811.65
501.923	9719.49
502.126	9916.09
502.329	10131.13
502.532	10190.52
502.735	10178.23
502.938	10407.61
503.141	10483.38
503.344	10610.36
503.547	10606.26
503.75	10712.75
503.953	10981.04
504.156	11005.61
504.359	11122.35
504.562	11208.36
504.765	11411.11
504.968	11495.08
505.17	11716.26
505.373	11701.92
505.576	11771.55
505.779	11613.86
505.982	11949.73
506.185	12261.02
506.387	12289.69
506.59	12304.03
506.793	12363.42
506.996	12459.67
507.198	12773.01
507.401	12785.3
507.604	13100.69
507.807	13303.43
508.009	13260.43
508.212	13581.96
508.415	13516.42
508.617	13584.01
508.82	13735.56
509.022	13641.35
509.225	14204.54
509.428	14147.2
509.63	14255.74
509.833	14577.27
510.035	14960.24
510.238	14589.56
510.44	14702.2
510.643	14831.22
510.845	15048.3
511.048	15300.2
511.25	15318.64
511.453	15404.65
511.655	16002.66
511.858	15619.69
512.06	15933.03
512.262	16088.67
512.465	16113.25
512.667	16598.62
512.87	16563.8
513.072	16465.5
513.274	16703.06
513.477	16973.39
513.679	17174.1
513.881	17522.25
514.084	17591.88
514.286	17364.56
514.488	17602.12
514.69	18187.84
514.893	18259.52
515.095	18351.68
515.297	18341.44
515.499	18466.36
515.701	18798.13
515.904	19086.9
516.106	19154.48
516.308	19242.54
516.51	19422.76
516.712	19539.5
516.914	19664.43
517.116	19889.7
517.318	20043.3
517.52	20141.6
517.722	20188.71
517.925	20538.91
518.127	20762.14
518.329	20819.48
518.531	20700.7
518.733	21233.17
518.935	21304.85
519.136	21161.49
519.338	21605.9
519.54	21870.09
519.742	21775.88
519.944	21822.98
520.146	22279.68
520.348	22394.37
520.55	22613.5
520.752	22425.09
520.954	22789.63
521.155	22777.34
521.357	23184.88
521.559	23182.84
521.761	23444.98
521.963	23467.5
522.164	23412.21
522.366	23424.5
522.568	23528.94
522.77	23635.44
522.971	23928.3
523.173	23842.28
523.375	24010.21
523.576	24077.8
523.778	24198.63
523.98	24432.1
524.181	24528.35
524.383	24298.98
524.584	24389.09
524.786	24520.16
524.988	24704.48
525.189	24964.57
525.391	25073.11
525.592	24565.21
525.794	24688.09
525.995	25062.87
526.197	25179.61
526.398	24743.39
526.6	25091.54
526.801	25165.27
527.003	25093.59
527.204	25198.04
527.406	25193.94
527.607	24966.62
527.808	25120.21
528.01	25193.94
528.211	25345.49
528.412	25513.42
528.614	25359.83
528.815	25097.69
529.016	25482.7
529.218	25091.54
529.419	25267.67
529.62	24788.44
529.822	25087.45
530.023	25136.6
530.224	24925.66
530.425	25030.1
530.626	24628.7
530.828	24815.07
531.029	25343.44
531.23	25069.01
531.431	24620.51
531.632	24944.09
531.833	24911.32
532.035	24813.02
532.236	24753.63
532.437	24966.62
532.638	24757.72
532.839	24288.74
533.04	24786.4
533.241	24190.44
533.442	25048.54
533.643	24190.44
533.844	23948.78
534.045	24358.37
534.246	23682.54
534.447	24229.35
534.648	24403.42
534.849	24081.89
535.05	24362.47
535.251	24114.66
535.451	23903.72
535.652	24075.75
535.853	23971.3
536.054	23817.71
536.255	23840.23
536.456	23592.43
536.657	23903.72
536.857	23692.78
537.058	23619.05
537.259	23778.79
537.46	23911.91
537.66	23395.82
537.861	23594.48
538.062	23709.16
538.263	23461.36
538.463	23426.54
538.664	23301.62
538.865	23277.04
539.065	23410.16
539.266	23270.9
539.466	23397.87
539.667	23127.54
539.868	23309.81
540.068	23164.4
540.269	23123.44
540.469	23076.34
540.67	22683.13
540.87	23008.76
541.071	22851.06
541.271	23119.35
541.472	22885.88
541.672	22906.36
541.873	22885.88
542.073	22468.09
542.274	23152.12
542.474	22910.46
542.675	22906.36
542.875	22955.51
543.075	22898.17
543.276	22291.97
543.476	22711.8
543.676	22689.28
543.877	23109.11
544.077	22834.68
544.277	22488.57
544.478	22777.34
544.678	22674.94
544.878	22513.15
545.078	22590.97
545.279	22316.54
545.479	22515.2
545.679	22523.39
545.879	22586.88
546.079	22623.74
546.28	22844.92
546.48	22554.11
546.68	22709.75
546.88	22732.28
547.08	22801.91
547.28	22732.28
547.48	22357.5
547.68	22535.68
547.88	22586.88
548.081	22787.58
548.281	22660.6
548.481	22386.18
548.681	22898.17
548.881	22889.98
549.081	22679.04
549.28	22603.26
549.48	22965.75
549.68	22799.87
549.88	22687.23
550.08	22939.13
550.28	22746.62
550.48	22459.9
550.68	23012.85
550.88	23006.71
551.08	22902.26
551.279	23219.7
551.479	22664.7
551.679	22928.89
551.879	22963.7
552.079	23016.95
552.278	22785.53
552.478	22973.94
552.678	23326.19
552.878	23473.65
553.077	22775.29
553.277	22883.83
553.477	23436.78
553.676	23135.73
553.876	23258.61
554.076	23242.23
554.275	23260.66
554.475	23008.76
554.674	23473.65
554.874	23354.86
555.074	23522.8
555.273	23528.94
555.473	23598.57
555.672	23242.23
555.872	23459.31
556.071	23694.83
556.271	23786.99
556.47	23586.29
556.67	23348.72
556.869	23490.03
557.068	23858.67
557.268	23608.81
557.467	23832.04
557.667	23748.07
557.866	23772.65
558.065	23643.63
558.265	23608.81
558.464	23791.08
558.663	23948.78
558.863	23623.15
559.062	23913.96
559.261	23731.69
559.461	24081.89
559.66	23786.99
559.859	23942.63
560.058	23569.9
560.258	23877.1
560.457	23834.09
560.656	24309.22
560.855	23889.38
561.054	24172
561.253	23594.48
561.453	23893.48
561.652	24049.13
561.851	24159.72
562.05	23694.83
562.249	23971.3
562.448	24231.4
562.647	24255.97
562.846	23743.98
563.045	23602.67
563.244	23414.26
563.443	24069.61
563.642	23823.85
563.841	23834.09
564.04	23580.14
564.239	23981.54
564.438	23645.68
564.637	23700.97
564.836	23774.7
565.035	23381.49
565.234	23920.1
565.432	23944.68
565.631	23512.56
565.83	23758.31
566.029	23465.46
566.228	23494.13
566.427	23664.11
566.625	23449.07
566.824	23340.53
567.023	23485.93
567.222	22836.73
567.42	23758.31
567.619	23125.49
567.818	23199.22
568.016	22863.35
568.215	22967.8
568.414	22832.63
568.612	23477.74
568.811	23246.32
569.01	22605.31
569.208	22502.91
569.407	23082.49
569.605	22758.91
569.804	22912.5
570.002	22840.82
570.201	22967.8
570.4	22146.56
570.598	22291.97
570.797	22154.76
570.995	22355.46
571.193	22179.33
571.392	22300.16
571.59	22056.45
571.789	22193.67
571.987	21888.52
572.186	21796.36
572.384	21763.59
572.582	21620.24
572.781	21685.77
572.979	21413.39
573.177	21653
573.376	21689.87
573.574	21337.62
573.772	21224.98
573.971	21345.81
574.169	21181.97
574.367	21181.97
574.565	20905.49
574.763	20907.54
574.962	21044.76
575.16	20669.98
575.358	20608.54
575.556	20622.87
575.754	20651.55
575.952	20489.76
576.151	20635.16
576.349	20278.82
576.547	20413.98
576.745	20231.71
576.943	20123.17
577.141	20268.58
577.339	20252.19
577.537	20151.84
577.735	20057.64
577.933	20031.01
578.131	19871.27
578.329	19756.58
578.527	19656.23
578.725	19404.33
578.923	19557.93
579.121	19695.14
579.319	19476.01
579.516	19508.78
579.714	19521.07
579.912	19402.29
580.11	19013.17
580.308	19183.15
580.506	19500.59
580.704	18775.61
580.901	18984.5
581.099	19181.1
581.297	18687.54
581.495	18732.6
581.692	19125.81
581.89	18538.04
582.088	18949.68
582.285	18499.13
582.483	18572.86
582.681	18626.11
582.878	18597.43
583.076	18284.09
583.274	18714.17
583.471	18134.59
583.669	18437.69
583.866	18406.97
584.064	18413.12
584.262	17972.8
584.459	18140.74
584.657	18034.24
584.854	18142.78
585.052	17847.88
585.249	17817.16
585.447	17835.59
585.644	17618.5
585.841	17839.69
586.039	18155.07
586.236	17534.54
586.434	17589.83
586.631	17649.22
586.828	17845.83
587.026	17595.98
587.223	17608.26
587.42	17423.95
587.618	17630.79
587.815	17163.86
588.012	17444.43
588.21	17253.97
588.407	17526.35
588.604	17450.57
588.801	17153.62
588.999	17456.71
589.196	17200.72
589.393	17079.89
589.59	17311.31
589.787	17364.56
589.984	17018.45
590.182	16942.67
590.379	17053.27
590.576	17026.64
590.773	17067.6
590.97	16891.48
591.167	16957.01
591.364	16606.81
591.561	16768.6
591.758	16625.24
591.955	16885.33
592.152	16825.94
592.349	16989.78
592.546	16860.76
592.743	16866.9
592.94	16569.94
593.137	16811.6
593.334	16914
593.531	16365.15
593.727	16711.25
593.924	16770.65
594.121	16526.94
594.318	17004.11
594.515	16762.45
594.712	16696.92
594.908	16787.03
595.105	16682.58
595.302	16756.31
595.499	16701.01
595.696	16852.56
595.892	16606.81
596.089	16707.16
596.286	16451.16
596.482	16674.39
596.679	16688.73
596.876	16938.58
597.072	16600.66
597.269	16868.95
597.466	16741.97
597.662	16799.32
597.859	16754.26
598.055	17086.03
598.252	16754.26
598.448	16885.33
598.645	16737.88
598.841	16809.56
599.038	16821.84
599.234	17018.45
599.431	16836.18
599.627	16989.78
599.824	17319.5
600.02	16590.42
600.217	16985.68
600.413	17047.12
600.609	17016.4
600.806	17018.45
601.002	17262.16
601.198	17149.52
601.395	17231.44
601.591	17393.23
601.787	17323.6
601.984	17432.14
602.18	17305.17
602.376	17495.63
602.572	17376.84
602.769	17626.7
602.965	17282.64
603.161	17663.56
603.357	17636.94
603.553	17663.56
603.75	17649.22
603.946	17460.81
604.142	18046.53
604.338	17688.14
604.534	17692.23
604.73	17788.49
604.926	18245.18
605.122	18169.41
605.318	18110.02
605.514	18163.26
605.71	18040.39
605.906	18343.49
606.102	18454.08
606.298	18531.9
606.494	18509.37
606.69	18644.54
606.886	18335.29
607.082	18638.39
607.278	18437.69
607.474	18335.29
607.67	18720.31
607.866	18609.72
608.062	18992.69
608.257	18751.03
608.453	18810.42
608.649	18949.68
608.845	18748.98
609.041	19105.33
609.236	18894.39
609.432	18978.36
609.628	19166.77
609.824	19095.09
610.019	19228.21
610.215	19303.98
610.411	19572.27
610.606	19410.48
610.802	19492.4
610.998	19346.99
611.193	19674.67
611.389	19727.91
611.584	19516.97
611.78	19293.74
611.976	19627.56
612.171	19838.5
612.367	19523.12
612.562	19387.95
612.758	19619.37
612.953	19766.82
613.149	19820.07
613.344	19768.87
613.539	20004.39
613.735	19580.46
613.93	19910.18
614.126	20123.17
614.321	20104.74
614.517	20119.07
614.712	19955.24
614.907	19918.37
615.103	20094.5
615.298	19555.88
615.493	20211.23
615.688	19891.75
615.884	20518.43
616.079	19805.74
616.274	20241.95
616.47	20225.57
616.665	20223.52
616.86	19940.9
617.055	20102.69
617.25	20006.44
617.445	20082.21
617.641	19826.21
617.836	20149.79
618.031	19686.95
618.226	20180.51
618.421	19994.15
618.616	20176.42
618.811	19803.69
619.006	20563.48
619.201	19897.89
619.396	20182.56
619.591	19711.53
619.786	20026.92
619.981	19430.96
620.176	19779.11
620.371	19260.98
620.566	19881.51
620.761	19396.14
620.956	19957.28
621.151	19308.08
621.346	19318.32
621.541	19310.13
621.735	19553.83
621.93	19187.25
622.125	19248.69
622.32	18968.12
622.515	19203.63
622.709	18669.11
622.904	18925.11
623.099	18771.51
623.294	18613.82
623.488	18542.14
623.683	18785.85
623.878	18181.7
624.072	18654.78
624.267	18435.64
624.462	18146.88
624.656	18157.12
624.851	18378.3
625.046	18273.85
625.24	18038.34
625.435	17731.14
625.629	17845.83
625.824	17727.05
626.018	17725
626.213	17487.43
626.407	17354.32
626.602	17350.22
626.796	17534.54
626.991	17139.28
627.185	17305.17
627.38	17196.62
627.574	17034.83
627.768	16764.5
627.963	16946.77
628.157	16492.12
628.352	16856.66
628.546	16549.46
628.74	16858.71
628.935	16473.69
629.129	16541.27
629.323	16359
629.517	16371.29
629.712	16254.56
629.906	16197.21
630.1	15896.16
630.294	16215.65
630.489	15748.71
630.683	15826.53
630.877	15869.54
631.071	15836.77
631.265	15541.86
631.459	15607.4
631.653	15390.31
631.848	15304.3
632.042	15337.07
632.236	15349.36
632.43	15191.66
632.624	15136.37
632.818	15027.82
633.012	15025.78
633.206	14904.95
633.4	14878.32
633.594	14556.79
633.788	14962.29
633.982	14681.72
634.176	14624.37
634.369	14446.2
634.563	14405.24
634.757	14214.78
634.951	14376.57
635.145	14243.45
635.339	14276.22
635.533	14009.98
635.726	13991.55
635.92	13743.75
636.114	13811.33
636.308	13631.11
636.501	13645.45
636.695	13747.84
636.889	13366.92
637.083	13618.82
637.276	13338.25
637.47	13201.04
637.664	13026.96
637.857	13203.08
638.051	13174.41
638.244	12871.31
638.438	12889.74
638.632	12852.88
638.825	12510.87
639.019	12598.93
639.212	12539.54
639.406	12433.05
639.599	12355.22
639.793	12441.24
639.986	12072.61
640.18	12134.04
640.373	12095.13
640.567	12013.21
640.76	11855.52
640.954	11785.89
641.147	11775.65
641.34	11781.79
641.534	11826.85
641.727	11331.24
641.92	11699.87
642.114	11429.54
642.307	11445.93
642.5	11318.95
642.694	11257.51
642.887	11171.5
643.08	11277.99
643.273	11136.68
643.467	11108.01
643.66	10888.88
643.853	10716.85
644.046	10618.55
644.239	10835.63
644.432	10516.15
644.626	10383.03
644.819	10528.44
645.012	10284.73
645.205	10577.59
645.398	10428.09
645.591	10211
645.784	10274.49
645.977	9985.72
646.17	10108.6
646.363	9873.09
646.556	9893.57
646.749	9912
646.942	9610.95
647.135	9719.49
647.328	9651.91
647.521	9625.28
647.714	9504.45
647.907	9500.36
648.099	9250.5
648.292	9604.8
648.485	9205.45
648.678	9307.85
648.871	9144.01
649.064	9160.39
649.256	9156.3
649.449	9035.47
649.642	9008.84
649.835	9068.23
650.027	9041.61
650.22	8857.29
650.413	8834.77
650.605	8736.46
650.798	8498.9
650.991	8539.86
651.183	8621.78
651.376	8578.77
651.568	8615.63
651.761	8638.16
651.954	8466.13
652.146	8320.73
652.339	8400.6
652.531	8238.81
652.724	8218.33
652.916	8023.77
653.109	8185.56
653.301	8259.29
653.494	8247
653.686	7948
653.879	8029.91
654.071	7876.32
654.263	7931.61
654.456	8017.63
654.648	7909.08
654.84	7788.25
655.033	7630.56
655.225	7816.93
655.417	7685.86
655.61	7452.39
655.802	7612.13
655.994	7573.22
656.186	7515.87
656.379	7417.57
656.571	7515.87
656.763	7180.01
656.955	7349.99
657.148	7294.69
657.34	7292.65
657.532	7104.23
657.724	7112.42
657.916	7216.87
658.108	6948.59
658.3	7053.03
658.492	7005.93
658.684	6862.57
658.876	6743.79
659.068	6870.76
659.26	6924.01
659.452	6924.01
659.644	6727.41
659.836	6901.48
660.028	6803.18
660.22	6559.47
660.412	6579.95
660.604	6469.36
660.796	6371.06
660.988	6530.8
661.18	6450.93
661.372	6371.06
661.563	6334.2
661.755	6215.41
661.947	6434.55
662.139	6166.26
662.331	6201.08
662.522	6092.54
662.714	6113.02
662.906	6010.62
663.097	5857.02
663.289	6053.62
663.481	5891.84
663.673	6024.95
663.864	5957.37
664.056	5791.48
664.247	5940.99
664.439	5773.05
664.631	5764.86
664.822	5883.64
665.014	5658.37
665.205	5590.78
665.397	5641.98
665.588	5547.78
665.78	5531.39
665.971	5613.31
666.163	5617.41
666.354	5601.02
666.546	5441.28
666.737	5594.88
666.929	5365.51
667.12	5351.17
667.311	5273.35
667.503	5199.62
667.694	5402.37
667.885	5398.27
668.077	5213.96
668.268	5207.81
668.459	5181.19
668.651	5160.71
668.842	5199.62
669.033	5222.15
669.224	5144.33
669.416	5220.1
669.607	5140.23
669.798	5158.66
669.989	5244.68
670.18	4982.54
670.371	5183.24
670.563	4943.63
670.754	4892.43
670.945	4873.99
671.136	4960.01
671.327	4873.99
671.518	4865.8
671.709	4812.56
671.9	4867.85
672.091	4917
672.282	4818.7
672.473	4640.53
672.664	4900.62
672.855	4822.8
673.046	4757.26
673.237	4824.84
673.428	4796.17
673.619	4802.32
673.809	4646.67
674	4742.92
674.191	4599.57
674.382	4548.37
674.573	4695.82
674.764	4603.66
674.954	4624.14
675.145	4622.09
675.336	4564.75
675.527	4648.72
675.717	4650.77
675.908	4396.82
676.099	4618
676.289	4552.46
676.48	4484.88
676.671	4501.26
676.861	4523.79
677.052	4548.37
677.243	4497.17
677.433	4491.02
677.624	4464.4
677.814	4486.93
678.005	4433.68
678.195	4499.22
678.386	4441.87
678.576	4278.04
678.767	4476.69
678.957	4501.26
679.148	4402.96
679.338	4294.42
679.529	4634.38
679.719	4382.48
679.909	4491.02
680.1	4351.76
680.29	4497.17
680.481	4343.57
680.671	4458.26
680.861	4431.63
681.052	4259.6
681.242	4353.81
681.432	4458.26
681.622	4282.13
681.813	4353.81
682.003	4409.11
682.193	4378.39
682.383	4376.34
682.573	4415.25
682.764	4286.23
682.954	4503.31
683.144	4382.48
683.334	4306.71
683.524	4247.32
683.714	4450.07
683.904	4271.89
684.094	4232.98
684.284	4165.4
684.474	4216.6
684.664	4228.88
684.854	4400.91
685.044	4364.05
685.234	4296.47
685.424	4419.35
685.614	4372.24
685.804	4327.19
685.994	4261.65
686.184	4298.52
686.374	4228.88
686.564	4319
686.753	4196.12
686.943	4239.12
687.133	4314.9
687.323	4198.17
687.513	4261.65
687.702	4220.69
687.892	4173.59
688.082	4204.31
688.272	4067.1
688.461	4044.57
688.651	4237.08
688.841	4245.27
689.03	4187.93
689.22	4157.21
689.41	4108.05
689.599	4144.92
689.789	4177.69
689.979	4159.25
690.168	4122.39
690.358	4052.76
690.547	4122.39
690.737	4081.43
690.926	4081.43
691.116	3964.7
691.305	4253.46
691.495	3856.15
691.684	3946.27
691.874	4114.2
692.063	3909.4
692.252	4136.73
692.442	3964.7
692.631	3968.79
692.82	3950.36
693.01	3993.37
693.199	4024.09
693.388	3925.79
693.578	3950.36
693.767	3899.16
693.956	3981.08
694.146	3985.18
694.335	3745.56
694.524	3940.12
694.713	3802.91
694.902	3913.5
695.092	3913.5
695.281	3925.79
695.47	3936.03
695.659	3788.57
695.848	3815.2
696.037	4056.86
696.226	3905.31
696.415	3833.63
696.604	3868.44
696.793	3825.43
696.982	3876.63
697.171	3788.57
697.36	3761.95
697.549	3843.87
697.738	3673.89
697.927	3675.93
698.116	3753.76
698.305	3802.91
698.494	3862.3
698.683	3757.85
698.872	3708.7
699.061	3723.04
699.25	3634.97
699.438	3770.14
699.627	3768.09
699.816	3780.38
700.005	3651.36
700.193	3667.74
700.382	3698.46
700.571	3673.89
700.76	3675.93
700.948	3811.1
701.137	3637.02
701.326	3616.54
701.514	3534.62
701.703	3553.06
701.892	3569.44
702.08	3698.46
702.269	3499.81
702.457	3583.77
702.646	3647.26
702.834	3479.33
703.023	3536.67
703.212	3618.59
703.4	3534.62
703.589	3516.19
703.777	3499.81
703.965	3393.31
704.154	3395.36
704.342	3583.77
704.531	3561.25
704.719	3491.62
704.907	3548.96
705.096	3448.61
705.284	3462.94
705.472	3434.27
705.661	3460.9
705.849	3503.9
706.037	3538.72
706.226	3303.2
706.414	3393.31
706.602	3444.51
706.79	3432.22
706.979	3329.83
707.167	3352.35
707.355	3360.55
707.543	3403.55
707.731	3475.23
707.919	3372.83
708.107	3219.24
708.296	3315.49
708.484	3409.7
708.672	3165.99
708.86	3286.82
709.048	3266.34
709.236	3317.54
709.424	3254.05
709.612	3258.15
709.8	3295.01
709.988	3233.57
710.176	3172.13
710.364	3174.18
710.551	3252
710.739	3151.65
710.927	3139.37
711.115	3116.84
711.303	3217.19
711.491	3127.08
711.679	3159.85
711.866	3133.22
712.054	3114.79
712.242	3114.79
712.43	3159.85
712.617	3202.85
712.805	2979.62
712.993	3104.55
713.181	3043.11
713.368	3100.45
713.556	3170.08
713.744	3006.25
713.931	3069.73
714.119	3018.54
714.306	3082.02
714.494	3049.25
714.682	3008.3
714.869	2926.38
715.057	3082.02
715.244	2785.07
715.432	2905.9
715.619	2856.75
715.807	2780.97
715.994	2953
716.182	2819.88
716.369	2895.66
716.556	2946.86
716.744	2893.61
716.931	2848.55
717.119	3018.54
717.306	2887.47
717.493	2823.98
717.681	2891.56
717.868	2789.16
718.055	2918.18
718.242	2848.55
718.43	2828.07
718.617	2828.07
718.804	2830.12
718.991	2750.25
719.179	2828.07
719.366	2688.81
719.553	2701.1
719.74	2764.59
719.927	2754.35
720.114	2656.04
720.301	2694.96
720.488	2697
720.676	2717.48
720.863	2754.35
721.05	2740.01
721.237	2574.13
721.424	2701.1
721.611	2590.51
721.798	2617.13
721.985	2643.76
722.172	2570.03
722.358	2633.52
722.545	2520.88
722.732	2574.13
722.919	2606.89
723.106	2543.41
723.293	2561.84
723.48	2533.17
723.667	2516.78
723.853	2551.6
724.04	2602.8
724.227	2547.5
724.414	2500.4
724.6	2512.69
724.787	2615.09
724.974	2467.63
725.161	2639.66
725.347	2455.34
725.534	2574.13
725.72	2479.92
725.907	2496.3
726.094	2557.74
726.28	2387.76
726.467	2508.59
726.653	2393.9
726.84	2518.83
727.027	2574.13
727.213	2385.71
727.4	2535.21
727.586	2516.78
727.773	2324.27
727.959	2422.58
728.145	2330.42
728.332	2508.59
728.518	2295.6
728.705	2352.95
728.891	2373.43
729.077	2338.61
729.264	2266.93
729.45	2324.27
729.636	2361.14
729.823	2271.03
730.009	2420.53
730.195	2291.51
730.382	2385.71
730.568	2465.58
730.754	2311.99
730.94	2256.69
731.126	2242.36
731.313	2320.18
731.499	2287.41
731.685	2324.27
731.871	2275.12
732.057	2365.23
732.243	2318.13
732.429	2230.07
732.615	2398
732.801	2322.23
732.987	2283.31
733.173	2225.97
733.359	2189.11
733.545	2211.64
733.731	2180.92
733.917	2320.18
734.103	2301.75
734.289	2195.25
734.475	2129.72
734.661	2203.44
734.847	2174.77
735.033	2283.31
735.219	2176.82
735.404	2092.85
735.59	2119.48
735.776	2133.81
735.962	2174.77
736.148	2248.5
736.333	2246.45
736.519	2060.09
736.705	2119.48
736.89	2103.09
737.076	2096.95
737.262	2027.32
737.447	2035.51
737.633	2025.27
737.819	2117.43
738.004	2035.51
738.19	2068.28
738.375	2008.89
738.561	2068.28
738.747	2002.74
738.932	2002.74
739.118	2076.47
739.303	1926.97
739.489	2015.03
739.674	1951.54
739.859	1994.55
740.045	2000.69
740.23	2004.79
740.416	1976.12
740.601	1926.97
740.786	1933.11
740.972	1861.43
741.157	1838.91
741.342	1797.95
741.528	1857.34
741.713	1922.87
741.898	1967.93
742.084	1886.01
742.269	1949.5
742.454	1847.1
742.639	1861.43
742.824	1869.62
743.01	1759.03
743.195	1797.95
743.38	1738.55
743.565	1855.29
743.75	1775.42
743.935	1816.38
744.12	1754.94
744.305	1773.37
744.49	1732.41
744.675	1742.65
744.86	1804.09
745.045	1716.03
745.23	1761.08
745.415	1812.28
745.6	1763.13
745.785	1634.11
745.97	1732.41
746.155	1683.26
746.34	1660.73
746.525	1644.35
746.71	1787.71
746.895	1677.12
747.079	1644.35
747.264	1560.38
747.449	1644.35
747.634	1552.19
747.819	1527.61
748.003	1681.21
748.188	1533.76
748.373	1529.66
748.557	1615.68
748.742	1525.57
748.927	1535.81
749.111	1509.18
749.296	1523.52
749.481	1535.81
749.665	1566.53
749.85	1533.76
750.034	1478.46
750.219	1496.89
750.404	1431.36
750.588	1435.46
750.773	1484.61
750.957	1410.88
751.141	1443.65
751.326	1388.35
751.51	1425.22
751.695	1494.85
751.879	1521.47
752.064	1394.5
752.248	1394.5
752.432	1341.25
752.617	1320.77
752.801	1380.16
752.985	1288
753.17	1312.58
753.354	1388.35
753.538	1365.82
753.722	1298.24
753.907	1199.94
754.091	1234.75
754.275	1296.19
754.459	1234.75
754.643	1259.33
754.828	1288
755.012	1253.19
755.196	1177.41
755.38	1218.37
755.564	1132.36
755.748	1165.12
755.932	1183.56
756.116	1165.12
756.3	1189.7
756.484	1107.78
756.668	1111.88
756.852	1113.92
757.036	1093.44
757.22	1077.06
757.404	1013.57
757.588	1124.16
757.772	1015.62
757.956	1111.88
758.14	1130.31
758.323	1148.74
758.507	1118.02
758.691	1001.29
758.875	1021.77
759.059	958.28
759.242	814.92
759.426	1050.44
759.61	943.94
759.794	984.9
759.977	1095.49
760.161	1103.68
760.345	1083.2
760.528	1042.25
760.712	1007.43
760.895	943.94
761.079	962.37
761.263	1019.72
761.446	952.13
761.63	1029.96
761.813	989
761.997	905.03
762.18	956.23
762.364	986.95
762.547	937.8
762.731	886.6
762.914	907.08
763.098	929.61
763.281	796.49
763.464	886.6
763.648	894.79
763.831	845.64
764.015	829.26
764.198	943.94
764.381	829.26
764.564	894.79
764.748	866.12
764.931	872.26
765.114	829.26
765.297	870.22
765.481	837.45
765.664	814.92
765.847	800.59
766.03	853.83
766.213	782.15
766.397	853.83
766.58	862.02
766.763	894.79
766.946	839.5
767.129	870.22
767.312	790.35
767.495	864.07
767.678	825.16
767.861	841.54
768.044	749.39
768.227	765.77
768.41	812.87
768.593	698.19
768.776	812.87
768.959	710.47
769.142	909.13
769.324	714.57
769.507	751.43
769.69	698.19
769.873	755.53
770.056	788.3
770.239	788.3
770.421	786.25
770.604	714.57
770.787	677.71
770.97	681.8
771.152	751.43
771.335	753.48
771.518	708.43
771.7	726.86
771.883	728.91
772.066	771.91
772.248	716.62
772.431	677.71
772.613	700.23
772.796	685.9
772.978	730.95
773.161	730.95
773.343	714.57
773.526	638.8
773.708	642.89
773.891	608.08
774.073	599.88
774.256	694.09
774.438	733
774.621	661.32
774.803	737.1
774.985	683.85
775.168	677.71
775.35	614.22
775.532	599.88
775.715	638.8
775.897	632.65
776.079	585.55
776.261	665.42
776.444	608.08
776.626	616.27
776.808	681.8
776.99	632.65
777.173	628.56
777.355	624.46
777.537	626.51
777.719	593.74
777.901	610.12
778.083	517.97
778.265	595.79
778.447	591.69
778.629	591.69
778.811	542.54
778.993	501.58
779.175	536.4
779.357	456.53
779.539	534.35
779.721	503.63
779.903	495.44
780.085	487.25
780.267	464.72
780.449	501.58
780.631	487.25
780.812	536.4
780.994	520.01
781.176	499.53
781.358	499.53
781.54	528.21
781.721	528.21
781.903	554.83
782.085	509.77
782.267	427.85
782.448	431.95
782.63	534.35
782.812	499.53
782.993	442.19
783.175	472.91
783.357	479.05
783.538	487.25
783.72	503.63
783.901	520.01
784.083	419.66
784.264	431.95
784.446	462.67
784.627	384.85
784.809	436.05
784.99	395.09
785.172	411.47
785.353	370.51
785.535	409.42
785.716	354.13
785.897	403.28
786.079	444.24
786.26	384.85
786.441	395.09
786.623	360.27
786.804	378.7
786.985	419.66
787.167	362.32
787.348	419.66
787.529	403.28
787.71	397.14
787.891	372.56
788.073	345.94
788.254	329.55
788.435	302.93
788.616	317.26
788.797	350.03
788.978	364.37
789.159	309.07
789.34	360.27
789.522	264.02
789.703	317.26
789.884	333.65
790.065	272.21
790.246	337.74
790.427	298.83
790.607	364.37
790.788	370.51
790.969	255.83
791.15	264.02
791.331	241.49
791.512	343.89
791.693	276.31
791.874	274.26
792.054	339.79
792.235	296.78
792.416	268.11
792.597	307.02
792.778	264.02
792.958	362.32
793.139	225.11
793.32	292.69
793.5	247.63
793.681	319.31
793.862	210.77
794.042	288.59
794.223	182.1
794.404	268.11
794.584	251.73
794.765	292.69
794.945	337.74
795.126	278.35
795.306	309.07
795.487	257.87
795.667	165.71
795.848	243.54
796.028	266.07
796.209	247.63
796.389	307.02
796.57	229.2
796.75	186.19
796.93	290.64
797.111	202.58
797.291	235.35
797.471	313.17
797.652	296.78
797.832	175.95
798.012	190.29
798.192	225.11
798.373	173.91
798.553	192.34
798.733	216.91
798.913	180.05
799.093	249.68
799.274	202.58
799.454	208.72
799.634	284.5
799.814	255.83
799.994	190.29
800.174	272.21
800.354	175.95
800.534	182.1
800.714	255.83
800.894	255.83
801.074	175.95
801.254	208.72
801.434	259.92
801.614	173.91
801.794	110.42
801.974	997.19
802.154	206.67
802.334	206.67
802.514	208.72
802.693	198.48
802.873	116.56
803.053	216.91
803.233	153.43
803.413	167.76
803.592	227.15
803.772	151.38
803.952	175.95
804.131	165.71
804.311	214.87
804.491	264.02
804.67	214.87
804.85	116.56
805.03	157.52
805.209	159.57
805.389	128.85
805.568	182.1
805.748	182.1
805.928	208.72
806.107	190.29
806.287	186.19
806.466	198.48
806.646	141.14
806.825	102.23
807.004	155.47
807.184	122.71
807.363	153.43
807.543	116.56
807.722	161.62
807.901	196.43
808.081	132.95
808.26	77.65
808.439	165.71
808.619	102.23
808.798	198.48
808.977	145.24
809.156	153.43
809.336	96.08
809.515	135
809.694	91.99
809.873	48.98
810.052	124.76
810.231	118.61
810.411	79.7
810.59	184.15
810.769	141.14
810.948	110.42
811.127	108.37
811.306	118.61
811.485	75.6
811.664	208.72
811.843	190.29
812.022	120.66
812.201	108.37
812.38	108.37
812.559	75.6
812.737	132.95
812.916	137.04
813.095	126.8
813.274	182.1
813.453	132.95
813.632	161.62
813.811	163.67
813.989	75.6
814.168	94.04
814.347	89.94
814.526	77.65
814.704	167.76
814.883	169.81
815.062	26.45
815.24	149.33
815.419	59.22
815.598	132.95
815.776	20.31
815.955	87.89
816.133	124.76
816.312	75.6
816.49	132.95
816.669	91.99
816.847	141.14
817.026	188.24
817.204	94.04
817.383	130.9
817.561	120.66
817.74	91.99
817.918	153.43
818.097	57.17
818.275	38.74
818.453	128.85
818.632	204.63
818.81	100.18
818.988	104.28
819.167	85.84
819.345	108.37
819.523	61.27
819.701	122.71
819.879	139.09
820.058	124.76
820.236	112.47
820.414	48.98
820.592	102.23
820.77	116.56
820.948	83.8
821.127	85.84
821.305	77.65
821.483	30.55
821.661	42.84
821.839	85.84
822.017	91.99
822.195	118.61
822.373	44.88
822.551	85.84
822.729	67.41
822.907	1.88
823.085	155.47
823.262	63.32
823.44	69.46
823.618	51.03
823.796	100.18
823.974	51.03
824.152	34.64
824.329	77.65
824.507	108.37
824.685	30.55
824.863	94.04
825.04	71.51
825.218	122.71
825.396	53.08
825.574	53.08
825.751	75.6
825.929	118.61
826.107	42.84
826.284	71.51
826.462	100.18
826.639	51.03
826.817	-0.17
826.994	83.8
827.172	-12.46
827.349	139.09
827.527	77.65
827.704	116.56
827.882	36.69
828.059	77.65
828.237	38.74
828.414	75.6
828.591	-8.36
828.769	75.6
828.946	20.31
829.124	65.36
829.301	165.71
829.478	75.6
829.655	77.65
829.833	83.8
830.01	51.03
830.187	12.12
830.364	69.46
830.542	108.37
830.719	100.18
830.896	69.46
831.073	67.41
831.25	77.65
831.427	143.19
831.604	-12.46
831.782	116.56
831.959	149.33
832.136	55.12
832.313	75.6
832.49	65.36
832.667	102.23
832.844	132.95
833.021	141.14
833.198	1.88
833.374	59.22
833.551	96.08
833.728	112.47
833.905	59.22
834.082	10.07
834.259	38.74
834.436	63.32
834.612	16.21
834.789	46.93
834.966	22.36
835.143	36.69
835.319	-22.7
835.496	46.93
835.673	100.18
835.85	63.32
836.026	110.42
836.203	-14.51
836.38	-2.22
836.556	-28.84
836.733	-34.99
836.909	135
837.086	67.41
837.262	-8.36
837.439	71.51
837.616	91.99
837.792	51.03
837.968	53.08
838.145	51.03
838.321	1.88
838.498	-45.23
838.674	42.84
838.851	51.03
839.027	-37.03
839.203	61.27
839.38	8.02
839.556	-2.22
839.732	55.12
839.909	53.08
840.085	85.84
840.261	-49.32
840.437	18.26
840.614	-75.95
840.79	120.66
840.966	42.84
841.142	3.93
841.318	36.69
841.494	20.31
841.671	53.08
841.847	16.21
842.023	5.97
842.199	36.69
842.375	48.98
842.551	36.69
842.727	14.17
842.903	126.8
843.079	5.97
843.255	-26.79
843.431	40.79
843.607	59.22
843.783	-2.22
843.959	55.12
844.134	61.27
844.31	59.22
844.486	-14.51
844.662	-30.89
844.838	1.88
845.013	110.42
845.189	26.45
845.365	-10.41
845.541	-37.03
845.716	67.41
845.892	12.12
846.068	-59.56
846.244	-14.51
846.419	10.07
846.595	-6.31
846.77	30.55
846.946	46.93
847.122	20.31
847.297	63.32
847.473	26.45
847.648	1.88
847.824	42.84
847.999	-20.65
848.175	-67.75
848.35	44.88
848.526	10.07
848.701	67.41
848.876	38.74
849.052	59.22
849.227	1.88
849.403	38.74
849.578	-30.89
849.753	18.26
849.929	18.26
850.104	-71.85
850.279	24.4
850.454	-22.7
850.63	36.69
850.805	38.74
850.98	10.07
851.155	-53.42
851.33	36.69
851.505	-6.31
851.681	51.03
851.856	-75.95
852.031	44.88
852.206	-47.27
852.381	-12.46
852.556	-75.95
852.731	-43.18
852.906	5.97
853.081	59.22
853.256	87.89
853.431	28.5
853.606	-6.31
853.781	18.26
853.956	8.02
854.131	20.31
854.305	-10.41
854.48	28.5
854.655	1.88
854.83	42.84
855.005	59.22
855.18	-41.13
855.354	30.55
855.529	110.42
855.704	22.36
855.879	20.31
856.053	-75.95
856.228	-6.31
856.403	8.02
856.577	67.41
856.752	3.93
856.926	-55.47
857.101	-34.99
857.276	18.26
857.45	12.12
857.625	20.31
857.799	26.45
857.974	5.97
858.148	-88.23
858.323	10.07
858.497	18.26
858.672	-6.31
858.846	-69.8
859.02	55.12
859.195	1.88
859.369	18.26
859.543	-26.79
859.718	20.31
859.892	-4.27
860.066	-24.75
860.241	-39.08
860.415	-39.08
860.589	-41.13
860.763	36.69
860.938	-39.08
861.112	-18.6
861.286	-28.84
861.46	42.84
861.634	-14.51
861.808	53.08
861.982	-47.27
862.157	-84.14
862.331	-77.99
862.505	-30.89
862.679	-49.32
862.853	-6.31
863.027	38.74
863.201	44.88
863.375	14.17
863.549	-6.31
863.722	30.55
863.896	8.02
864.07	-80.04
864.244	-55.47
864.418	59.22
864.592	22.36
864.766	-55.47
864.939	20.31
865.113	-14.51
865.287	42.84
865.461	-24.75
865.634	26.45
865.808	-0.17
865.982	42.84
866.156	-16.55
866.329	-63.66
866.503	89.94
866.676	75.6
866.85	-30.89
867.024	-32.94
867.197	69.46
867.371	-47.27
867.544	-4.27
867.718	-20.65
867.891	36.69
868.065	-57.51
868.238	-4.27
868.412	36.69
868.585	14.17
868.759	53.08
868.932	-22.7
869.105	16.21
869.279	12.12
869.452	-22.7
869.625	-2.22
869.799	-51.37
869.972	-39.08
870.145	26.45
870.319	-61.61
870.492	-2.22
870.665	-4.27
870.838	-86.19
871.011	-39.08
871.185	36.69
871.358	-47.27
871.531	12.12
871.704	-53.42
871.877	-4.27
872.05	-34.99
872.223	-55.47
872.396	1.88
872.569	-59.56
872.742	-98.47
872.915	-30.89
873.088	42.84
873.261	18.26
873.434	116.56
873.607	-10.41
873.78	5.97
873.953	-47.27
874.126	46.93
874.299	77.65
874.471	-112.81
874.644	-10.41
874.817	34.64
874.99	63.32
875.163	-39.08
875.335	-92.33
875.508	3.93
875.681	61.27
875.853	-34.99
876.026	-90.28
876.199	-30.89
876.371	18.26
876.544	26.45
876.717	-28.84
876.889	-34.99
877.062	28.5
877.234	-92.33
877.407	-26.79
877.579	-6.31
877.752	10.07
877.924	42.84
878.097	51.03
878.269	5.97
878.442	-6.31
878.614	-4.27
878.786	34.64
878.959	-55.47
879.131	-45.23
879.303	-26.79
879.476	-6.31
879.648	85.84
879.82	-43.18
879.993	-20.65
880.165	-47.27
880.337	-63.66
880.509	-53.42
880.681	-55.47
880.854	42.84
881.026	24.4
881.198	26.45
881.37	-47.27
881.542	-90.28
881.714	81.75
881.886	79.7
882.058	30.55
882.23	-6.31
882.402	5.97
882.574	55.12
882.746	28.5
882.918	42.84
883.09	-6.31
883.262	-102.57
883.434	-6.31
883.606	-51.37
883.778	-37.03
883.95	10.07
884.122	24.4
884.293	67.41
884.465	8.02
884.637	-20.65
884.809	-2.22
884.98	-26.79
885.152	14.17
885.324	-69.8
885.496	-63.66
885.667	-51.37
885.839	-26.79
886.011	14.17
886.182	77.65
886.354	-77.99
886.525	16.21
886.697	3.93
886.869	91.99
887.04	-26.79
887.212	-63.66
887.383	46.93
887.555	-14.51
887.726	-65.71
887.897	-24.75
888.069	-61.61
888.24	-65.71
888.412	20.31
888.583	-34.99
888.754	73.56
888.926	-39.08
889.097	-47.27
889.268	-47.27
889.44	-30.89
889.611	-90.28
889.782	14.17
889.953	-47.27
890.125	100.18
890.296	-10.41
890.467	53.08
890.638	-28.84
890.809	-28.84
890.98	-86.19
891.151	71.51
891.323	-45.23
891.494	-47.27
891.665	3.93
891.836	3.93
892.007	5.97
892.178	-39.08
892.349	12.12
892.52	20.31
892.691	-2.22
892.862	-4.27
893.032	-22.7
893.203	-18.6
893.374	73.56
893.545	34.64
893.716	1.88
893.887	32.6
894.057	57.17
894.228	-20.65
894.399	46.93
894.57	30.55
894.74	-37.03
894.911	-39.08
895.082	-88.23
895.253	-32.94
895.423	10.07
895.594	-32.94
895.764	-20.65
895.935	-20.65
896.106	55.12
896.276	51.03
896.447	-51.37
896.617	5.97
896.788	-116.9
896.958	-32.94
897.129	-45.23
897.299	-43.18
897.47	104.28
897.64	36.69
897.81	-12.46
897.981	3.93
898.151	14.17
898.322	34.64
898.492	48.98
898.662	-59.56
898.832	-77.99
899.003	-22.7
899.173	-30.89
899.343	5.97
899.513	-45.23
