Data from USB4F104151__3__14-28-21-560.txt Node

Date: Thu Mar 13 14:28:21 EDT 2025
User: louis
Spectrometer: USB4F10415
Trigger mode: 4
Integration Time (sec): 2.500000E-2
Scans to average: 1
Electric dark correction enabled: true
Nonlinearity correction enabled: false
Boxcar width: 0
XAxis mode: Wavelengths
Number of Pixels in Spectrum: 3648
>>>>>Begin Spectral Data<<<<<
178.204	-206.16
178.424	-206.16
178.644	-206.16
178.864	-140.63
179.084	-150.87
179.304	-15.7
179.524	-3.41
179.744	94.89
179.964	21.16
180.184	15.02
180.404	-34.13
180.624	-27.99
180.844	15.02
181.064	-19.8
181.283	0.68
181.503	-68.95
181.723	23.21
181.943	0.68
182.163	21.16
182.383	17.07
182.602	84.65
182.822	-60.76
183.042	64.17
183.262	41.64
183.482	-5.46
183.701	74.41
183.921	-23.89
184.141	-11.61
184.361	88.75
184.58	12.97
184.8	12.97
185.02	-50.52
185.239	23.21
185.459	78.51
185.679	31.4
185.898	51.88
186.118	17.07
186.338	43.69
186.557	115.37
186.777	-1.37
186.997	-83.28
187.216	37.55
187.436	74.41
187.655	-19.8
187.875	23.21
188.095	4.78
188.314	88.75
188.534	53.93
188.753	-17.75
188.973	27.31
189.192	62.12
189.412	-3.41
189.631	51.88
189.851	74.41
190.07	148.14
190.29	15.02
190.509	29.35
190.729	58.03
190.948	82.6
191.168	105.13
191.387	47.79
191.607	-58.71
191.826	15.02
192.045	6.83
192.265	23.21
192.484	105.13
192.704	-19.8
192.923	35.5
193.142	111.27
193.362	94.89
193.581	62.12
193.8	10.92
194.02	111.27
194.239	-7.51
194.458	53.93
194.678	25.26
194.897	70.31
195.116	37.55
195.335	15.02
195.555	43.69
195.774	-3.41
195.993	-66.9
196.212	-1.37
196.432	-19.8
196.651	-3.41
196.87	-34.13
197.089	135.85
197.308	23.21
197.528	94.89
197.747	-15.7
197.966	74.41
198.185	113.32
198.404	41.64
198.623	78.51
198.842	125.61
199.062	135.85
199.281	78.51
199.5	21.16
199.719	96.94
199.938	47.79
200.157	109.23
200.376	82.6
200.595	-13.65
200.814	119.46
201.033	-19.8
201.252	39.59
201.471	47.79
201.69	47.79
201.909	-34.13
202.128	111.27
202.347	23.21
202.566	-34.13
202.785	-11.61
203.004	29.35
203.223	127.66
203.442	70.31
203.661	-27.99
203.879	45.74
204.098	103.08
204.317	17.07
204.536	74.41
204.755	80.55
204.974	33.45
205.193	51.88
205.411	82.6
205.63	29.35
205.849	39.59
206.068	62.12
206.287	53.93
206.505	113.32
206.724	-7.51
206.943	92.84
207.162	-48.47
207.381	45.74
207.599	-7.51
207.818	12.97
208.037	21.16
208.255	127.66
208.474	4.78
208.693	58.03
208.911	23.21
209.13	90.79
209.349	70.31
209.567	74.41
209.786	55.98
210.005	41.64
210.223	0.68
210.442	21.16
210.661	80.55
210.879	27.31
211.098	37.55
211.316	41.64
211.535	45.74
211.753	64.17
211.972	21.16
212.191	-46.42
212.409	23.21
212.628	4.78
212.846	31.4
213.065	37.55
213.283	4.78
213.502	41.64
213.72	47.79
213.938	43.69
214.157	-38.23
214.375	51.88
214.594	25.26
214.812	43.69
215.031	29.35
215.249	25.26
215.467	55.98
215.686	-11.61
215.904	45.74
216.122	90.79
216.341	62.12
216.559	-11.61
216.778	113.32
216.996	62.12
217.214	31.4
217.432	29.35
217.651	21.16
217.869	12.97
218.087	-32.08
218.306	31.4
218.524	17.07
218.742	-19.8
218.96	0.68
219.179	4.78
219.397	137.9
219.615	53.93
219.833	96.94
220.051	23.21
220.27	107.18
220.488	90.79
220.706	39.59
220.924	-9.56
221.142	31.4
221.36	-23.89
221.578	58.03
221.796	12.97
222.015	53.93
222.233	29.35
222.451	62.12
222.669	-52.56
222.887	74.41
223.105	21.16
223.323	-23.89
223.541	12.97
223.759	72.36
223.977	27.31
224.195	119.46
224.413	15.02
224.631	29.35
224.849	-19.8
225.067	109.23
225.285	37.55
225.503	105.13
225.721	-17.75
225.939	98.99
226.157	103.08
226.375	148.14
226.592	-5.46
226.81	86.7
227.028	-11.61
227.246	62.12
227.464	0.68
227.682	37.55
227.9	-27.99
228.117	17.07
228.335	23.21
228.553	-19.8
228.771	29.35
228.989	86.7
229.206	70.31
229.424	72.36
229.642	45.74
229.86	94.89
230.077	123.56
230.295	-19.8
230.513	103.08
230.731	37.55
230.948	86.7
231.166	94.89
231.384	23.21
231.601	70.31
231.819	49.83
232.037	-48.47
232.254	-32.08
232.472	64.17
232.689	4.78
232.907	123.56
233.125	41.64
233.342	39.59
233.56	-36.18
233.777	58.03
233.995	78.51
234.213	23.21
234.43	17.07
234.648	105.13
234.865	29.35
235.083	80.55
235.3	6.83
235.518	115.37
235.735	105.13
235.953	53.93
236.17	15.02
236.388	45.74
236.605	-50.52
236.822	88.75
237.04	101.03
237.257	37.55
237.475	23.21
237.692	45.74
237.909	10.92
238.127	37.55
238.344	4.78
238.562	-1.37
238.779	-5.46
238.996	-30.04
239.214	37.55
239.431	76.46
239.648	-3.41
239.865	68.27
240.083	115.37
240.3	21.16
240.517	62.12
240.735	70.31
240.952	-15.7
241.169	113.32
241.386	0.68
241.603	72.36
241.821	6.83
242.038	-58.71
242.255	80.55
242.472	4.78
242.689	72.36
242.907	94.89
243.124	33.45
243.341	47.79
243.558	-19.8
243.775	-9.56
243.992	6.83
244.209	96.94
244.426	172.71
244.643	37.55
244.86	33.45
245.078	66.22
245.295	45.74
245.512	10.92
245.729	17.07
245.946	29.35
246.163	37.55
246.38	2.73
246.597	29.35
246.814	15.02
247.031	111.27
247.248	41.64
247.464	-3.41
247.681	121.51
247.898	60.07
248.115	-17.75
248.332	12.97
248.549	31.4
248.766	127.66
248.983	62.12
249.2	86.7
249.417	80.55
249.633	-7.51
249.85	-3.41
250.067	23.21
250.284	94.89
250.501	47.79
250.717	43.69
250.934	-48.47
251.151	51.88
251.368	45.74
251.585	39.59
251.801	-116.05
252.018	-50.52
252.235	39.59
252.451	43.69
252.668	21.16
252.885	12.97
253.102	51.88
253.318	45.74
253.535	-11.61
253.752	137.9
253.968	17.07
254.185	21.16
254.401	25.26
254.618	-1.37
254.835	94.89
255.051	135.85
255.268	43.69
255.484	39.59
255.701	-11.61
255.917	53.93
256.134	70.31
256.351	6.83
256.567	-32.08
256.784	21.16
257	-25.94
257.217	58.03
257.433	17.07
257.65	58.03
257.866	45.74
258.082	-42.32
258.299	27.31
258.515	49.83
258.732	23.21
258.948	-7.51
259.165	33.45
259.381	35.5
259.597	8.87
259.814	25.26
260.03	6.83
260.246	55.98
260.463	76.46
260.679	80.55
260.895	10.92
261.112	115.37
261.328	33.45
261.544	-36.18
261.761	41.64
261.977	53.93
262.193	-17.75
262.409	21.16
262.626	62.12
262.842	96.94
263.058	-23.89
263.274	82.6
263.49	148.14
263.707	107.18
263.923	27.31
264.139	8.87
264.355	82.6
264.571	78.51
264.787	41.64
265.004	94.89
265.22	25.26
265.436	31.4
265.652	53.93
265.868	82.6
266.084	8.87
266.3	23.21
266.516	-27.99
266.732	17.07
266.948	103.08
267.164	19.11
267.38	62.12
267.596	45.74
267.812	88.75
268.028	53.93
268.244	78.51
268.46	55.98
268.676	-36.18
268.892	76.46
269.108	29.35
269.324	6.83
269.54	-21.84
269.756	33.45
269.972	-52.56
270.188	25.26
270.403	6.83
270.619	10.92
270.835	-11.61
271.051	12.97
271.267	84.65
271.483	23.21
271.698	39.59
271.914	121.51
272.13	80.55
272.346	72.36
272.562	72.36
272.777	4.78
272.993	23.21
273.209	94.89
273.425	127.66
273.64	37.55
273.856	152.23
274.072	37.55
274.287	-91.48
274.503	86.7
274.719	62.12
274.934	41.64
275.15	-50.52
275.366	21.16
275.581	33.45
275.797	90.79
276.012	58.03
276.228	23.21
276.444	96.94
276.659	111.27
276.875	19.11
277.09	37.55
277.306	-3.41
277.521	-1.37
277.737	23.21
277.952	27.31
278.168	41.64
278.383	27.31
278.599	53.93
278.814	66.22
279.03	-11.61
279.245	8.87
279.461	58.03
279.676	66.22
279.892	-3.41
280.107	-5.46
280.322	-9.56
280.538	74.41
280.753	29.35
280.969	111.27
281.184	-9.56
281.399	121.51
281.615	64.17
281.83	98.99
282.045	0.68
282.26	27.31
282.476	-56.66
282.691	12.97
282.906	55.98
283.122	72.36
283.337	-21.84
283.552	33.45
283.767	70.31
283.983	88.75
284.198	2.73
284.413	70.31
284.628	-48.47
284.843	53.93
285.058	29.35
285.274	49.83
285.489	101.03
285.704	141.99
285.919	-13.65
286.134	98.99
286.349	47.79
286.564	-15.7
286.779	78.51
286.995	-5.46
287.21	78.51
287.425	86.7
287.64	37.55
287.855	4.78
288.07	-40.28
288.285	21.16
288.5	111.27
288.715	64.17
288.93	6.83
289.145	25.26
289.36	94.89
289.575	-64.85
289.79	74.41
290.004	-9.56
290.219	55.98
290.434	-7.51
290.649	10.92
290.864	21.16
291.079	23.21
291.294	88.75
291.509	72.36
291.724	94.89
291.938	21.16
292.153	45.74
292.368	74.41
292.583	-21.84
292.798	0.68
293.012	80.55
293.227	94.89
293.442	-3.41
293.657	107.18
293.871	37.55
294.086	78.51
294.301	43.69
294.516	27.31
294.73	-5.46
294.945	72.36
295.16	37.55
295.374	88.75
295.589	82.6
295.804	29.35
296.018	39.59
296.233	109.23
296.447	29.35
296.662	-9.56
296.877	66.22
297.091	47.79
297.306	29.35
297.52	41.64
297.735	45.74
297.949	119.46
298.164	15.02
298.378	-27.99
298.593	6.83
298.807	12.97
299.022	78.51
299.236	45.74
299.451	-3.41
299.665	109.23
299.88	121.51
300.094	25.26
300.309	31.4
300.523	53.93
300.737	41.64
300.952	-25.94
301.166	62.12
301.381	-30.04
301.595	12.97
301.809	-3.41
302.024	80.55
302.238	78.51
302.452	70.31
302.667	-17.75
302.881	68.27
303.095	62.12
303.309	78.51
303.524	-73.04
303.738	-3.41
303.952	107.18
304.166	29.35
304.381	-19.8
304.595	98.99
304.809	23.21
305.023	37.55
305.237	-30.04
305.452	41.64
305.666	70.31
305.88	176.81
306.094	49.83
306.308	74.41
306.522	121.51
306.736	51.88
306.95	-34.13
307.164	55.98
307.379	21.16
307.593	0.68
307.807	37.55
308.021	31.4
308.235	21.16
308.449	-17.75
308.663	39.59
308.877	96.94
309.091	21.16
309.305	92.84
309.519	-73.04
309.733	15.02
309.947	4.78
310.161	107.18
310.374	45.74
310.588	49.83
310.802	39.59
311.016	-1.37
311.23	49.83
311.444	4.78
311.658	53.93
311.872	86.7
312.085	62.12
312.299	39.59
312.513	37.55
312.727	78.51
312.941	58.03
313.154	-3.41
313.368	86.7
313.582	-3.41
313.796	47.79
314.009	29.35
314.223	78.51
314.437	-66.9
314.651	86.7
314.864	21.16
315.078	0.68
315.292	-1.37
315.505	41.64
315.719	-68.95
315.933	37.55
316.146	-32.08
316.36	41.64
316.573	137.9
316.787	68.27
317.001	88.75
317.214	51.88
317.428	29.35
317.641	4.78
317.855	55.98
318.068	35.5
318.282	86.7
318.495	68.27
318.709	43.69
318.922	-1.37
319.136	37.55
319.349	90.79
319.563	37.55
319.776	27.31
319.99	21.16
320.203	78.51
320.417	-3.41
320.63	68.27
320.843	66.22
321.057	111.27
321.27	88.75
321.483	29.35
321.697	111.27
321.91	29.35
322.124	98.99
322.337	53.93
322.55	-11.61
322.763	6.83
322.977	-11.61
323.19	6.83
323.403	58.03
323.617	8.87
323.83	78.51
324.043	-3.41
324.256	47.79
324.469	33.45
324.683	33.45
324.896	62.12
325.109	62.12
325.322	-13.65
325.535	119.46
325.748	35.5
325.962	27.31
326.175	72.36
326.388	49.83
326.601	-32.08
326.814	88.75
327.027	-5.46
327.24	101.03
327.453	70.31
327.666	103.08
327.879	117.42
328.092	66.22
328.305	90.79
328.518	33.45
328.731	25.26
328.944	23.21
329.157	25.26
329.37	70.31
329.583	135.85
329.796	39.59
330.009	12.97
330.222	33.45
330.435	74.41
330.648	111.27
330.861	-9.56
331.073	72.36
331.286	137.9
331.499	33.45
331.712	-9.56
331.925	64.17
332.138	-11.61
332.35	80.55
332.563	47.79
332.776	154.28
332.989	64.17
333.202	55.98
333.414	25.26
333.627	80.55
333.84	-1.37
334.053	33.45
334.265	10.92
334.478	96.94
334.691	86.7
334.903	72.36
335.116	29.35
335.329	94.89
335.541	-9.56
335.754	43.69
335.966	62.12
336.179	19.11
336.392	29.35
336.604	4.78
336.817	84.65
337.029	78.51
337.242	10.92
337.454	-9.56
337.667	23.21
337.88	-3.41
338.092	53.93
338.305	80.55
338.517	-32.08
338.729	39.59
338.942	76.46
339.154	15.02
339.367	45.74
339.579	47.79
339.792	35.5
340.004	70.31
340.217	92.84
340.429	6.83
340.641	41.64
340.854	68.27
341.066	-25.94
341.278	21.16
341.491	64.17
341.703	107.18
341.915	-87.38
342.128	47.79
342.34	35.5
342.552	78.51
342.764	21.16
342.977	127.66
343.189	29.35
343.401	-3.41
343.613	-34.13
343.826	55.98
344.038	8.87
344.25	148.14
344.462	23.21
344.674	103.08
344.886	53.93
345.099	6.83
345.311	15.02
345.523	82.6
345.735	45.74
345.947	27.31
346.159	-7.51
346.371	-11.61
346.583	19.11
346.795	139.94
347.007	96.94
347.219	27.31
347.431	55.98
347.643	135.85
347.855	6.83
348.067	78.51
348.279	29.35
348.491	88.75
348.703	113.32
348.915	21.16
349.127	21.16
349.339	98.99
349.551	103.08
349.763	94.89
349.975	64.17
350.187	58.03
350.399	78.51
350.61	78.51
350.822	78.51
351.034	119.46
351.246	94.89
351.458	82.6
351.669	4.78
351.881	23.21
352.093	-3.41
352.305	29.35
352.517	86.7
352.728	127.66
352.94	62.12
353.152	51.88
353.363	-19.8
353.575	70.31
353.787	84.65
353.999	37.55
354.21	64.17
354.422	33.45
354.633	55.98
354.845	29.35
355.057	62.12
355.268	72.36
355.48	25.26
355.692	-19.8
355.903	21.16
356.115	6.83
356.326	6.83
356.538	139.94
356.749	55.98
356.961	86.7
357.172	-23.89
357.384	72.36
357.595	141.99
357.807	45.74
358.018	31.4
358.23	111.27
358.441	135.85
358.653	49.83
358.864	53.93
359.075	-9.56
359.287	66.22
359.498	78.51
359.709	29.35
359.921	23.21
360.132	47.79
360.344	-3.41
360.555	49.83
360.766	119.46
360.977	62.12
361.189	66.22
361.4	55.98
361.611	78.51
361.823	19.11
362.034	31.4
362.245	15.02
362.456	51.88
362.667	146.09
362.879	21.16
363.09	72.36
363.301	94.89
363.512	113.32
363.723	86.7
363.935	47.79
364.146	29.35
364.357	62.12
364.568	-19.8
364.779	-56.66
364.99	68.27
365.201	70.31
365.412	53.93
365.623	-40.28
365.834	41.64
366.045	53.93
366.256	37.55
366.467	131.75
366.678	82.6
366.889	49.83
367.1	-9.56
367.311	160.42
367.522	-7.51
367.733	-5.46
367.944	92.84
368.155	29.35
368.366	33.45
368.577	111.27
368.788	37.55
368.999	105.13
369.209	80.55
369.42	45.74
369.631	144.04
369.842	33.45
370.053	90.79
370.264	131.75
370.474	78.51
370.685	55.98
370.896	47.79
371.107	131.75
371.317	80.55
371.528	47.79
371.739	113.32
371.95	58.03
372.16	64.17
372.371	-19.8
372.582	45.74
372.792	101.03
373.003	113.32
373.214	119.46
373.424	135.85
373.635	33.45
373.846	70.31
374.056	-23.89
374.267	121.51
374.477	107.18
374.688	53.93
374.898	144.04
375.109	37.55
375.319	31.4
375.53	64.17
375.74	45.74
375.951	53.93
376.161	84.65
376.372	121.51
376.582	94.89
376.793	98.99
377.003	51.88
377.214	-3.41
377.424	82.6
377.635	103.08
377.845	39.59
378.055	39.59
378.266	21.16
378.476	119.46
378.686	111.27
378.897	90.79
379.107	144.04
379.317	41.64
379.528	37.55
379.738	49.83
379.948	8.87
380.158	105.13
380.369	-5.46
380.579	86.7
380.789	111.27
380.999	-19.8
381.21	160.42
381.42	121.51
381.63	25.26
381.84	6.83
382.05	29.35
382.261	144.04
382.471	4.78
382.681	25.26
382.891	70.31
383.101	98.99
383.311	62.12
383.521	45.74
383.731	107.18
383.941	-3.41
384.151	78.51
384.361	72.36
384.571	70.31
384.781	90.79
384.991	137.9
385.201	74.41
385.411	-34.13
385.621	103.08
385.831	55.98
386.041	49.83
386.251	45.74
386.461	94.89
386.671	-3.41
386.881	94.89
387.091	103.08
387.301	96.94
387.511	119.46
387.72	103.08
387.93	111.27
388.14	35.5
388.35	113.32
388.56	64.17
388.769	86.7
388.979	72.36
389.189	12.97
389.399	105.13
389.609	88.75
389.818	101.03
390.028	127.66
390.238	121.51
390.447	47.79
390.657	4.78
390.867	45.74
391.076	86.7
391.286	107.18
391.496	60.07
391.705	113.32
391.915	103.08
392.125	107.18
392.334	41.64
392.544	113.32
392.753	78.51
392.963	-7.51
393.172	119.46
393.382	35.5
393.591	174.76
393.801	72.36
394.01	90.79
394.22	115.37
394.429	78.51
394.639	62.12
394.848	170.66
395.058	133.8
395.267	115.37
395.477	144.04
395.686	94.89
395.895	236.2
396.105	176.81
396.314	144.04
396.524	156.33
396.733	144.04
396.942	152.23
397.152	127.66
397.361	113.32
397.57	86.7
397.78	55.98
397.989	115.37
398.198	131.75
398.407	78.51
398.617	94.89
398.826	135.85
399.035	170.66
399.244	156.33
399.453	43.69
399.663	76.46
399.872	33.45
400.081	86.7
400.29	160.42
400.499	78.51
400.708	180.9
400.917	72.36
401.127	168.62
401.336	96.94
401.545	201.38
401.754	146.09
401.963	170.66
402.172	103.08
402.381	109.23
402.59	117.42
402.799	146.09
403.008	185
403.217	123.56
403.426	103.08
403.635	144.04
403.844	201.38
404.053	178.86
404.262	156.33
404.471	225.96
404.68	203.43
404.888	160.42
405.097	199.34
405.306	121.51
405.515	154.28
405.724	191.14
405.933	221.86
406.142	228.01
406.35	242.34
406.559	172.71
406.768	242.34
406.977	279.21
407.185	303.78
407.394	342.69
407.603	275.11
407.812	271.01
408.02	303.78
408.229	242.34
408.438	332.45
408.646	250.53
408.855	324.26
409.064	350.89
409.272	383.65
409.481	301.73
409.69	299.69
409.898	332.45
410.107	348.84
410.315	389.8
410.524	311.97
410.733	389.8
410.941	393.89
411.15	508.58
411.358	459.43
411.567	471.72
411.775	494.24
411.984	508.58
412.192	549.54
412.401	563.87
412.609	559.78
412.818	506.53
413.026	672.42
413.234	647.84
413.443	692.9
413.651	653.98
413.86	721.57
414.068	762.53
414.276	789.15
414.485	709.28
414.693	807.58
414.901	842.4
415.11	856.73
415.318	875.17
415.526	914.08
415.734	924.32
415.943	1112.73
416.151	1004.19
416.359	1030.81
416.567	1061.53
416.776	1133.21
416.984	1090.2
417.192	1211.03
417.4	1258.14
417.608	1192.6
417.817	1299.09
418.025	1372.82
418.233	1401.49
418.441	1454.74
418.649	1536.66
418.857	1512.08
419.065	1628.82
419.273	1594
419.481	1706.64
419.689	1806.99
419.897	1862.29
420.105	1872.53
420.313	1759.89
420.521	2212.49
420.729	1915.53
420.937	2103.95
421.145	2120.33
421.353	2288.26
421.561	2392.71
421.769	2335.37
421.977	2609.79
422.185	2523.78
422.393	2570.88
422.601	2824.83
422.809	2853.5
423.017	2810.5
423.224	2968.19
423.432	3019.39
423.64	3031.68
423.848	3240.57
424.056	3224.19
424.263	3601.01
424.471	3592.82
424.679	3637.88
424.887	3828.34
425.094	3986.03
425.302	3912.3
425.51	3953.26
425.718	3879.54
425.925	4280.94
426.133	4260.46
426.341	4575.84
426.548	4706.91
426.756	4862.56
426.964	4876.9
427.171	5239.39
427.379	5251.67
427.586	5292.63
427.794	5382.74
428.001	5632.6
428.209	6005.33
428.417	5698.13
428.624	6459.98
428.832	6234.7
429.039	6394.44
429.247	6304.33
429.454	6793.8
429.662	7338.55
429.869	6826.56
430.076	7303.74
430.284	7080.51
430.491	7402.04
430.699	7961.14
430.906	7746.1
431.114	7828.02
431.321	8167.98
431.528	8206.89
431.736	9056.8
431.943	9220.64
432.15	9183.77
432.358	9085.47
432.565	9660.95
432.772	9777.69
432.979	10050.07
433.187	10328.59
433.394	10312.21
433.601	11028.99
433.808	11069.95
434.016	11022.85
434.223	11436.54
434.43	12194.29
434.637	11764.22
434.844	12548.59
435.052	12720.62
435.259	12489.2
435.466	12898.79
435.673	12587.5
435.88	13468.13
436.087	14432.72
436.294	14236.11
436.501	13898.2
436.708	14350.8
436.915	14889.42
437.122	15231.43
437.329	15294.91
437.537	15813.05
437.743	15995.32
437.95	15813.05
438.157	16806.31
438.364	17117.61
438.571	17383.84
438.778	17461.66
438.985	19044.74
439.192	18203.03
439.399	18913.67
439.606	18338.19
439.813	19229.06
440.02	20762.99
440.227	20214.13
440.433	19904.89
440.64	20736.37
440.847	20384.12
441.054	20996.46
441.261	22427.99
441.467	22036.83
441.674	22548.82
441.881	23294.28
442.088	23177.54
442.294	23220.55
442.501	23707.97
442.708	24277.3
442.914	24981.81
443.121	26521.88
443.328	25110.83
443.534	27400.46
443.741	26540.31
443.948	25948.45
444.154	27795.71
444.361	27459.85
444.568	28012.8
444.774	28031.23
444.981	28143.87
445.187	28842.23
445.394	30157.02
445.6	30083.3
445.807	32837.81
446.013	31647.94
446.22	31910.08
446.426	33140.91
446.633	33362.09
446.839	34539.68
447.046	33005.75
447.252	34707.61
447.459	34957.46
447.665	34590.87
447.871	36419.71
448.078	37910.63
448.284	36219.01
448.491	37195.89
448.697	38756.44
448.903	39057.49
449.11	39266.39
449.316	38627.42
449.522	39221.33
449.728	40441.92
449.935	40529.98
450.141	40157.25
450.347	41734.19
450.553	40118.34
450.76	40937.53
450.966	41998.38
451.172	41599.02
451.378	42809.37
451.584	42053.67
451.791	42723.36
451.997	42553.38
452.203	43192.34
452.409	43274.26
452.615	43147.29
452.821	41498.67
453.027	41459.76
453.233	43327.51
453.44	41728.05
453.646	41971.75
453.852	42330.15
454.058	42790.94
454.264	41553.97
454.47	42688.54
454.676	41369.65
454.882	42262.57
455.088	38953.05
455.294	39852.11
455.5	40654.91
455.705	40892.47
455.911	39243.86
456.117	38500.45
456.323	38049.89
456.529	35522.7
456.735	37107.83
456.941	36169.86
457.147	36020.36
457.352	34879.64
457.558	34594.97
457.764	34445.47
457.97	34293.92
458.176	33466.54
458.381	33472.68
458.587	31654.09
458.793	31394
458.999	29929.7
459.204	32544.95
459.41	31049.94
459.616	29200.62
459.821	29180.14
460.027	28780.79
460.233	28498.17
460.438	27158.8
460.644	27314.44
460.85	25956.64
461.055	25645.35
461.261	25772.32
461.466	23570.75
461.672	23167.31
461.878	24609.08
462.083	22780.24
462.289	22581.59
462.494	22272.34
462.7	21346.66
462.905	20515.19
463.111	21389.67
463.316	21524.83
463.522	21186.92
463.727	20947.31
463.932	20959.59
464.138	20681.07
464.343	20730.22
464.549	20121.98
464.754	21006.7
464.959	20492.66
465.165	20506.99
465.37	19784.06
465.575	18971.02
465.781	20238.71
465.986	19980.67
466.191	19188.1
466.397	18925.96
466.602	18002.33
466.807	18837.9
467.012	18669.97
467.218	18416.02
467.423	18125.21
467.628	18373.01
467.833	18930.06
468.038	18383.25
468.244	17983.9
468.449	18813.32
468.654	17867.16
468.859	17969.56
469.064	17543.58
469.269	17187.24
469.474	17232.29
469.679	17762.72
469.885	17228.2
470.09	17346.98
470.295	17211.81
470.5	16513.45
470.705	16716.2
470.91	16236.98
471.115	16423.34
471.32	16437.68
471.525	16257.46
471.73	15874.49
471.935	16042.42
472.139	15362.5
472.344	15829.43
472.549	15550.91
472.754	15241.67
472.959	14901.7
473.164	14602.7
473.369	14379.47
473.574	15239.62
473.778	14809.54
473.983	14967.24
474.188	14488.01
474.393	13955.54
474.598	13881.81
474.802	14012.88
475.007	13867.48
475.212	13760.98
475.417	13191.65
475.621	13263.33
475.826	13484.51
476.031	13369.82
476.235	12937.7
476.44	13099.49
476.645	12493.29
476.849	12771.82
477.054	12808.68
477.259	12382.7
477.463	12583.4
477.668	12177.9
477.872	12276.21
478.077	11842.04
478.282	11717.11
478.486	11876.85
478.691	11780.6
478.895	11710.97
479.1	11573.75
479.304	11465.21
479.509	11276.8
479.713	11444.73
479.918	11133.44
480.122	10988.03
480.326	11072
480.531	11209.22
480.735	10885.64
480.94	10957.32
481.144	11133.44
481.348	10646.02
481.553	10969.6
481.757	10729.99
481.961	10693.13
482.166	10711.56
482.37	10908.16
482.574	10785.29
482.778	10734.09
482.983	10865.16
483.187	10750.47
483.391	10773
483.595	10689.03
483.8	10439.18
484.004	10590.73
484.208	10742.28
484.412	10654.22
484.616	10686.98
484.821	10752.52
485.025	10420.75
485.229	10633.74
485.433	10600.97
485.637	10426.89
485.841	10504.71
486.045	10455.56
486.249	10453.52
486.453	10312.21
486.657	10451.47
486.861	10738.18
487.065	10236.43
487.269	10521.1
487.473	10310.16
487.677	10607.11
487.881	10416.65
488.085	10543.63
488.289	10625.54
488.493	10387.98
488.697	10383.88
488.901	10541.58
489.105	10555.91
489.309	10473.99
489.512	10517
489.716	10457.61
489.92	10656.26
490.124	10443.28
490.328	10922.5
490.531	10764.81
490.735	10779.14
490.939	10828.29
491.143	10789.38
491.346	10789.38
491.55	10844.68
491.754	10779.14
491.958	11010.56
492.161	10844.68
492.365	10940.93
492.569	10983.94
492.772	11119.1
492.976	10922.5
493.18	11041.28
493.383	11160.06
493.587	11174.4
493.79	11538.94
493.994	11188.74
494.197	11325.95
494.401	11620.86
494.605	11315.71
494.808	11452.92
495.012	11774.45
495.215	11723.26
495.419	11786.74
495.622	11751.93
495.825	11858.42
496.029	11794.93
496.232	12311.02
496.436	11973.11
496.639	12351.98
496.843	12294.64
497.046	12622.31
497.249	12442.09
497.453	12708.33
497.656	12743.14
497.859	12693.99
498.063	12917.22
498.266	13359.58
498.469	13271.52
498.673	13160.93
498.876	13468.13
499.079	13509.08
499.282	13623.77
499.485	14189.01
499.689	14033.36
499.892	14250.45
500.095	14016.98
500.298	14385.62
500.501	14272.98
500.705	14725.58
500.908	14899.66
501.111	15096.26
501.314	15313.34
501.517	15303.11
501.72	15456.7
501.923	15135.17
502.126	15573.44
502.329	15935.93
502.532	15923.64
502.735	16155.06
502.938	16652.72
503.141	16339.38
503.344	16849.32
503.547	16640.43
503.75	17084.84
503.953	16945.58
504.156	17281.44
504.359	17445.28
504.562	17572.25
504.765	17910.17
504.968	17965.46
505.17	18514.32
505.373	18354.58
505.576	18428.31
505.779	18968.97
505.982	18684.3
506.185	19057.03
506.387	19038.6
506.59	19417.47
506.793	19949.95
506.996	19745.15
507.198	20334.96
507.401	20279.67
507.604	20621.68
507.807	20900.2
508.009	20840.81
508.212	21238.12
508.415	21381.48
508.617	21375.33
508.82	21748.06
509.022	21610.85
509.225	22260.05
509.428	22016.35
509.63	22038.87
509.833	22575.44
510.035	22921.55
510.238	22884.69
510.44	23243.08
510.643	23562.56
510.845	23787.84
511.048	23691.59
511.25	24150.33
511.453	24125.75
511.655	24998.19
511.858	24965.42
512.06	24860.98
512.262	25385.26
512.465	25135.4
512.667	25897.25
512.87	25690.4
513.072	25895.2
513.274	26511.64
513.477	26728.72
513.679	26708.24
513.881	26777.87
514.084	27285.77
514.286	27379.98
514.488	27764.99
514.69	28340.47
514.893	28487.93
515.095	28170.49
515.297	28252.41
515.499	28819.7
515.701	29051.12
515.904	29421.8
516.106	29532.39
516.308	30322.91
516.51	29987.04
516.712	29984.99
516.914	30564.57
517.116	30890.2
517.318	30832.85
517.52	31058.13
517.722	31197.39
517.925	31529.16
518.127	32211.14
518.329	32030.91
518.531	31758.53
518.733	32309.44
518.935	32884.92
519.136	32737.46
519.338	32970.93
519.54	33689.77
519.742	33753.26
519.944	33685.67
520.146	34005.16
520.348	34279.58
520.55	34523.29
520.752	34750.62
520.954	34965.65
521.155	35070.1
521.357	35250.32
521.559	35434.64
521.761	35944.58
521.963	35924.1
522.164	36042.88
522.366	36264.07
522.568	36419.71
522.77	36495.49
522.971	37030.01
523.173	36366.46
523.375	37136.5
523.576	36925.56
523.778	36618.36
523.98	37169.27
524.181	37253.23
524.383	37714.03
524.584	37865.58
524.786	37898.34
524.988	37300.34
525.189	38170.72
525.391	38312.03
525.592	38307.94
525.794	38633.57
525.995	38418.53
526.197	38574.17
526.398	38510.69
526.6	38684.76
526.801	38817.88
527.003	38983.77
527.204	38848.6
527.406	39114.84
527.607	39313.49
527.808	39319.63
528.01	38590.56
528.211	38756.44
528.412	40065.1
528.614	39669.84
528.815	39282.77
529.016	39774.28
529.218	39448.66
529.419	39379.03
529.62	39303.25
529.822	39047.25
530.023	39555.15
530.224	39532.62
530.425	39315.54
530.626	38817.88
530.828	39020.63
531.029	39528.53
531.23	39450.7
531.431	39247.96
531.632	39385.17
531.833	39477.33
532.035	39094.36
532.236	39573.58
532.437	39549.01
532.638	39012.44
532.839	38936.66
533.04	38957.14
533.241	38967.38
533.442	39942.22
533.643	39407.7
533.844	38998.1
534.045	39362.64
534.246	39061.59
534.447	39303.25
534.648	38520.93
534.849	38867.03
535.05	38735.96
535.251	38983.77
535.451	38226.02
535.652	39098.45
535.853	38922.33
536.054	38920.28
536.255	38897.75
536.456	38363.23
536.657	39151.7
536.857	38570.08
537.058	38451.3
537.259	38924.38
537.46	38639.71
537.66	38813.79
537.861	38213.73
538.062	38656.09
538.263	38514.78
538.463	38289.51
538.664	38277.22
538.865	38568.03
539.065	38103.14
539.266	38170.72
539.466	38269.03
539.667	37761.13
539.868	38608.99
540.068	38420.58
540.269	38037.61
540.469	38332.51
540.67	38025.32
540.87	37861.48
541.071	37929.06
541.271	38486.11
541.472	37847.15
541.672	38103.14
541.873	37845.1
542.073	37421.17
542.274	37976.17
542.474	38242.4
542.675	37617.77
542.875	37750.89
543.075	37814.38
543.276	37482.61
543.476	38090.85
543.676	37806.19
543.877	37943.4
544.077	38185.06
544.277	37642.35
544.478	37640.3
544.678	37767.27
544.878	37810.28
545.078	37533.81
545.279	37589.1
545.479	37138.55
545.679	37736.55
545.879	37453.94
546.079	37828.71
546.28	37392.5
546.48	37472.37
546.68	37820.52
546.88	37673.07
547.08	37767.27
547.28	37552.24
547.48	37693.55
547.68	37496.94
547.88	37283.95
548.081	37623.92
548.281	37566.57
548.481	37046.39
548.681	37783.66
548.881	37683.31
549.081	37533.81
549.28	37068.92
549.48	38029.41
549.68	37464.17
549.88	38080.61
550.08	37394.54
550.28	37531.76
550.48	37628.01
550.68	37724.27
550.88	37197.94
551.08	37259.38
551.279	37611.63
551.479	37431.41
551.679	37711.98
551.879	37359.73
552.079	37757.03
552.278	37625.96
552.478	37765.23
552.678	37503.09
552.878	37589.1
553.077	37562.48
553.277	37300.34
553.477	38010.98
553.676	37634.16
553.876	37681.26
554.076	37394.54
554.275	37331.06
554.475	37480.56
554.674	37527.66
554.874	37683.31
555.074	37347.44
555.273	37365.87
555.473	37814.38
555.672	37568.62
555.872	37529.71
556.071	37412.98
556.271	37767.27
556.47	37619.82
556.67	37193.84
556.869	37478.51
557.068	37568.62
557.268	37601.39
557.467	37224.56
557.667	37435.5
557.866	37619.82
558.065	37595.24
558.265	37046.39
558.464	37462.13
558.663	37890.15
558.863	37120.12
559.062	37830.76
559.261	37429.36
559.461	38033.51
559.66	36814.97
559.859	37228.66
560.058	37159.03
560.258	37136.5
560.457	37234.8
560.656	37484.65
560.855	37310.58
561.054	37681.26
561.253	37013.62
561.453	37126.26
561.652	37652.59
561.851	37648.49
562.05	37273.71
562.249	37296.24
562.448	37335.15
562.647	37451.89
562.846	36974.71
563.045	37472.37
563.244	37226.61
563.443	37742.7
563.642	37159.03
563.841	37249.14
564.04	37220.47
564.239	37554.29
564.438	37042.29
564.637	37193.84
564.836	36841.59
565.035	36673.66
565.234	36933.75
565.432	36610.17
565.631	36544.64
565.83	37202.03
566.029	36878.46
566.228	36802.68
566.427	36593.79
566.625	36774.01
566.824	36143.24
567.023	36530.3
567.222	36345.98
567.42	36472.96
567.619	36358.27
567.818	36112.52
568.016	36239.49
568.215	36497.53
568.414	36061.32
568.612	36317.31
568.811	36061.32
569.01	35922.05
569.208	36094.08
569.407	36419.71
569.605	35565.71
569.804	36092.04
570.002	35514.51
570.201	35987.59
570.4	35971.21
570.598	35246.22
570.797	35399.82
570.995	35313.81
571.193	35217.55
571.392	35494.03
571.59	35293.33
571.789	35207.31
571.987	35117.2
572.186	34832.54
572.384	34535.58
572.582	35201.17
572.781	34941.08
572.979	34506.91
573.177	34541.72
573.376	34943.13
573.574	34134.18
573.772	34424.99
573.971	34519.2
574.169	34279.58
574.367	34011.3
574.565	34033.83
574.763	33958.05
574.962	34189.47
575.16	33806.5
575.358	33980.58
575.556	33392.81
575.754	33968.29
575.952	33204.4
576.151	33716.39
576.349	33425.58
576.547	33257.65
576.745	33599.66
576.943	33456.3
577.141	33323.18
577.339	33022.13
577.537	33089.71
577.735	32850.1
577.933	32759.99
578.131	32911.54
578.329	32710.84
578.527	32712.89
578.725	32649.4
578.923	32479.42
579.121	32704.7
579.319	32145.6
579.516	32929.97
579.714	32483.51
579.912	32118.98
580.11	31922.37
580.308	32147.65
580.506	32118.98
580.704	31467.72
580.901	31736.01
581.099	32331.97
581.297	31797.45
581.495	31516.87
581.692	32073.92
581.89	31377.61
582.088	31365.32
582.285	31019.22
582.483	31588.55
582.681	31398.09
582.878	31187.15
583.076	31117.52
583.274	31273.17
583.471	30828.76
583.669	30798.04
583.866	30687.45
584.064	31193.29
584.262	30496.99
584.459	30791.89
584.657	30271.71
584.854	31019.22
585.052	30200.03
585.249	30382.3
585.447	30415.07
585.644	29833.44
585.841	30208.22
586.039	30357.72
586.236	29849.83
586.434	30347.48
586.631	29694.18
586.828	29915.36
587.026	29989.09
587.223	29704.42
587.42	29634.79
587.618	29653.22
587.815	29585.64
588.012	29429.99
588.21	29180.14
588.407	29446.38
588.604	29098.22
588.801	28836.08
588.999	29085.93
589.196	29157.61
589.393	29104.37
589.59	28860.66
589.787	28907.76
589.984	28481.78
590.182	28418.3
590.379	28784.88
590.576	28608.76
590.773	28256.51
590.97	28424.44
591.167	28633.33
591.364	28240.12
591.561	28680.44
591.758	28340.47
591.955	27881.73
592.152	28059.9
592.349	27676.93
592.546	27889.92
592.743	27846.91
592.94	27562.25
593.137	27906.3
593.334	28000.51
593.531	27560.2
593.727	27738.37
593.924	27582.73
594.121	27429.13
594.318	27296.01
594.515	27037.97
594.712	27412.74
594.908	27672.84
595.105	27834.63
595.302	27064.59
595.499	27474.18
595.696	27302.15
595.892	26941.71
596.089	27361.55
596.286	27212.04
596.482	27076.88
596.679	27013.39
596.876	26966.29
597.072	26870.03
597.269	27083.02
597.466	26591.51
597.662	26870.03
597.859	26712.34
598.055	26829.07
598.252	26755.35
598.448	26890.51
598.645	26898.7
598.841	26511.64
599.038	26663.19
599.234	26624.28
599.431	26186.01
599.627	26312.99
599.824	26339.61
600.02	26519.83
600.217	26689.81
600.413	26249.5
600.609	26407.19
600.806	26241.31
601.002	26562.84
601.198	26384.66
601.395	26509.59
601.591	26245.4
601.787	26538.26
601.984	26126.62
602.18	26607.89
602.376	26122.52
602.572	25989.41
602.769	26181.92
602.965	26151.2
603.161	26298.65
603.357	26396.95
603.553	26089.76
603.75	26376.47
603.946	25893.15
604.142	26417.43
604.338	25983.26
604.534	26581.27
604.73	26009.89
604.926	25831.71
605.122	26298.65
605.318	26079.52
605.514	26065.18
605.71	25956.64
605.906	26130.72
606.102	26327.32
606.298	26468.63
606.494	25932.06
606.69	26571.03
606.886	26331.42
607.082	26161.44
607.278	26566.93
607.474	26073.37
607.67	26571.03
607.866	26102.04
608.062	26661.14
608.257	26272.03
608.453	26358.04
608.649	26532.12
608.845	26341.66
609.041	26401.05
609.236	26523.93
609.432	26695.96
609.628	26581.27
609.824	26452.25
610.019	26796.31
610.215	26763.54
610.411	26843.41
610.606	26548.5
610.802	26331.42
610.998	26566.93
611.193	26655
611.389	26700.05
611.584	26568.98
611.78	26591.51
611.976	26788.11
612.171	26710.29
612.367	27152.65
612.562	26886.42
612.758	26448.15
612.953	26738.96
613.149	27234.57
613.344	26671.38
613.539	27072.78
613.735	26867.98
613.93	27050.25
614.126	26683.67
614.321	26976.53
614.517	27111.69
614.712	27054.35
614.907	27064.59
615.103	27418.89
615.298	26900.75
615.493	27361.55
615.688	26833.17
615.884	27537.67
616.079	26904.85
616.274	27310.35
616.47	27212.04
616.665	26915.09
616.86	26718.48
617.055	26943.76
617.25	26718.48
617.445	26898.7
617.641	26546.45
617.836	27138.32
618.031	26620.18
618.226	26949.9
618.421	27027.73
618.616	27066.64
618.811	26753.3
619.006	27113.74
619.201	26628.37
619.396	26427.67
619.591	26188.06
619.786	26992.91
619.981	25882.91
620.176	26530.07
620.371	26122.52
620.566	26095.9
620.761	26259.74
620.956	26317.08
621.151	25866.53
621.346	25997.6
621.541	25268.52
621.735	25723.17
621.93	25289
622.125	25487.65
622.32	25221.42
622.515	25192.75
622.709	25110.83
622.904	25043.24
623.099	24791.34
623.294	25084.2
623.488	24617.27
623.683	24783.15
623.878	24461.62
624.072	24535.35
624.267	24555.83
624.462	24092.99
624.656	24072.51
624.851	24422.71
625.046	23757.12
625.24	23980.35
625.435	23445.83
625.629	23341.38
625.824	23486.79
626.018	23347.53
626.213	22872.4
626.407	23312.71
626.602	22796.62
626.796	22843.73
626.991	22683.98
627.185	22661.46
627.38	22413.65
627.574	22438.23
627.768	22460.76
627.963	21940.57
628.157	22016.35
628.352	22436.18
628.546	21586.27
628.74	22303.06
628.935	21836.13
629.129	21653.86
629.323	21485.92
629.517	21533.03
629.712	21135.72
629.906	21205.35
630.1	21111.14
630.294	21229.93
630.489	20765.04
630.683	20973.93
630.877	20676.98
631.071	20490.61
631.265	20529.52
631.459	20257.14
631.653	20326.77
631.848	20371.83
632.042	20142.46
632.236	20156.79
632.43	19966.33
632.624	19886.46
632.818	19757.44
633.012	19714.43
633.206	19628.42
633.4	19648.89
633.594	19227.01
633.788	19351.94
633.982	19378.56
634.176	19102.09
634.369	18928.01
634.563	19126.66
634.757	18938.25
634.951	18835.85
635.145	18680.21
635.339	18706.83
635.533	18643.34
635.726	18356.63
635.92	17789.34
636.114	18176.41
636.308	18078.1
636.501	18135.45
636.695	17885.59
636.889	17623.45
637.083	17793.44
637.276	17772.96
637.47	17643.93
637.664	17162.66
637.857	17473.95
638.051	17244.58
638.244	16910.76
638.438	17115.56
638.632	17004.97
638.825	16929.19
639.019	16544.17
639.212	16306.61
639.406	16394.67
639.599	16490.93
639.793	16374.19
639.986	16204.21
640.18	16382.38
640.373	16083.38
640.567	15802.81
640.76	16257.46
640.954	15741.37
641.147	15555.01
641.34	15757.75
641.534	15583.68
641.727	15389.12
641.92	15536.57
642.114	15178.18
642.307	15325.63
642.5	14967.24
642.694	14774.73
642.887	14748.11
643.08	14922.18
643.273	14969.29
643.467	14522.83
643.66	14264.78
643.853	14557.64
644.046	14397.9
644.239	14176.72
644.432	14246.35
644.626	14027.22
644.819	14012.88
645.012	14156.24
645.205	14014.93
645.398	13791.7
645.591	13734.36
645.784	13656.54
645.977	13431.26
646.17	13550.04
646.363	13464.03
646.556	13212.13
646.749	13136.35
646.942	13279.71
647.135	12913.13
647.328	12902.89
647.521	13169.12
647.714	12820.97
647.907	12693.99
648.099	12939.75
648.292	12753.38
648.485	12618.22
648.678	12429.81
648.871	12378.61
649.064	12433.9
649.256	12513.77
649.449	12081.65
649.642	12145.14
649.835	12106.23
650.027	12132.85
650.22	11903.48
650.413	11954.68
650.605	11876.85
650.798	11768.31
650.991	11473.4
651.183	11661.82
651.376	11538.94
651.568	11637.24
651.761	11383.29
651.954	11624.95
652.146	11344.38
652.339	11268.61
652.531	11141.63
652.724	11133.44
652.916	10977.8
653.109	10902.02
653.301	10965.51
653.494	10994.18
653.686	10805.77
653.879	10594.83
654.071	10562.06
654.263	10783.24
654.456	10582.54
654.648	10549.77
654.84	10420.75
655.033	10371.6
655.225	10252.81
655.417	10160.66
655.61	10373.64
655.802	10263.05
655.994	10058.26
656.186	10060.31
656.379	10097.17
656.571	9919
656.763	9775.64
656.955	9931.28
657.148	9974.29
657.34	9886.23
657.532	9622.04
657.724	9724.44
657.916	9710.1
658.108	9660.95
658.3	9484.83
658.492	9579.03
658.684	9368.09
658.876	9323.04
659.068	9337.37
659.26	9148.96
659.452	9353.76
659.644	9105.95
659.836	8749.61
660.028	9189.92
660.22	8989.22
660.412	8970.79
660.604	8761.89
660.796	8954.4
660.988	8733.22
661.18	8704.55
661.372	8598.06
661.563	8706.6
661.755	8641.06
661.947	8477.23
662.139	8657.45
662.331	8401.45
662.522	8213.04
662.714	8229.42
662.906	8292.91
663.097	8299.05
663.289	8161.84
663.481	8043.06
663.673	8139.31
663.864	7936.56
664.056	8000.05
664.247	8018.48
664.439	7858.74
664.631	7854.64
664.822	7918.13
665.014	7825.97
665.205	7914.03
665.397	7662.13
665.588	7717.43
665.78	7641.65
665.971	7594.55
666.163	7631.41
666.354	7633.46
666.546	7236.16
666.737	7205.44
666.929	7346.75
667.12	7438.91
667.311	7420.47
667.503	7412.28
667.694	7264.83
667.885	6963.78
668.077	7352.89
668.268	7000.64
668.459	7078.46
668.651	7080.51
668.842	6922.82
669.033	6994.5
669.224	6853.19
669.416	6904.39
669.607	6781.51
669.798	6879.81
669.989	7002.69
670.18	6672.96
670.371	6822.47
670.563	6580.81
670.754	6765.12
670.945	6476.36
671.136	6607.43
671.327	6533.7
671.518	6634.05
671.709	6517.32
671.9	6566.47
672.091	6513.22
672.282	6529.61
672.473	6437.45
672.664	6361.67
672.855	6345.29
673.046	6296.14
673.237	6283.85
673.428	6271.56
673.619	6222.41
673.809	6206.03
674	6322.76
674.191	6191.69
674.382	6111.82
674.573	6017.61
674.764	6203.98
674.954	6167.12
675.145	6064.72
675.336	5993.04
675.527	5964.37
675.717	5878.35
675.908	5802.58
676.099	6040.14
676.289	5796.43
676.48	5976.66
676.671	5929.55
676.861	5904.98
677.052	5749.33
677.243	5661.27
677.433	5739.09
677.624	5833.3
677.814	5646.93
678.005	5751.38
678.195	5829.2
678.386	5507.67
678.576	5667.41
678.767	5583.45
678.957	5583.45
679.148	5667.41
679.338	5526.1
679.529	5503.57
679.719	5429.85
679.909	5648.98
680.1	5599.83
680.29	5511.77
680.481	5552.73
680.671	5497.43
680.861	5435.99
681.052	5216.86
681.242	5231.19
681.432	5497.43
681.622	5415.51
681.813	5345.88
682.003	5413.46
682.193	5272.15
682.383	5429.85
682.573	5452.38
682.764	5282.39
682.954	5347.93
683.144	5435.99
683.334	5087.84
683.524	5276.25
683.714	5239.39
683.904	5202.52
684.094	5411.42
684.284	5306.97
684.474	5341.79
684.664	5337.69
684.854	5190.24
685.044	5157.47
685.234	5050.97
685.424	5218.91
685.614	5202.52
685.804	5223
685.994	5136.99
686.184	5104.22
686.374	5079.65
686.564	5112.41
686.753	5042.78
686.943	4907.62
687.133	4921.95
687.323	4846.18
687.513	4940.38
687.702	4864.61
687.892	4840.03
688.082	4897.38
688.272	5036.64
688.461	4823.65
688.651	4833.89
688.841	4758.11
689.03	4944.48
689.22	4790.88
689.41	4878.94
689.599	4776.55
689.789	4942.43
689.979	4829.79
690.168	4588.13
690.358	4725.35
690.547	4700.77
690.737	4653.67
690.926	4776.55
691.116	4706.91
691.305	4780.64
691.495	4653.67
691.684	4657.76
691.874	4575.84
692.063	4532.84
692.252	4688.48
692.442	4702.82
692.631	4629.09
692.82	4510.31
693.01	4608.61
693.199	4536.93
693.388	4565.61
693.578	4481.64
693.767	4473.45
693.956	4485.73
694.146	4614.76
694.335	4455.01
694.524	4518.5
694.713	4551.27
694.902	4487.78
695.092	4518.5
695.281	4461.16
695.47	4385.38
695.659	4418.15
695.848	4401.77
696.037	4395.62
696.226	4489.83
696.415	4239.98
696.604	4446.82
696.793	4485.73
696.982	4395.62
697.171	4379.24
697.36	4309.61
697.549	4448.87
697.738	4207.21
697.927	4299.37
698.116	4278.89
698.305	4282.99
698.494	4239.98
698.683	4289.13
698.872	4334.18
699.061	4358.76
699.25	4215.4
699.438	4184.68
699.627	4244.07
699.816	4225.64
700.005	4235.88
700.193	4151.92
700.382	4215.4
700.571	4282.99
700.76	4125.29
700.948	4260.46
701.137	4092.52
701.326	4162.16
701.514	4184.68
701.703	4104.81
701.892	4158.06
702.08	4321.9
702.269	4133.48
702.457	4067.95
702.646	4092.52
702.834	4063.85
703.023	4102.76
703.212	4098.67
703.4	4151.92
703.589	3979.89
703.777	4059.76
703.965	3953.26
704.154	3963.5
704.342	3938.93
704.531	3949.17
704.719	4031.09
704.907	3914.35
705.096	3785.33
705.284	3822.19
705.472	3959.41
705.661	3955.31
705.849	4035.18
706.037	3902.06
706.226	3975.79
706.414	3758.71
706.602	3785.33
706.79	3928.69
706.979	3723.89
707.167	3867.25
707.355	3785.33
707.543	3787.38
707.731	3920.49
707.919	3633.78
708.107	3682.93
708.296	3770.99
708.484	3574.39
708.672	3803.76
708.86	3639.92
709.048	3660.4
709.236	3637.88
709.424	3713.65
709.612	3668.59
709.8	3592.82
709.988	3525.24
710.176	3668.59
710.364	3588.72
710.551	3578.48
710.739	3551.86
710.927	3537.52
711.115	3637.88
711.303	3445.37
711.491	3605.11
711.679	3492.47
711.866	3535.48
712.054	3553.91
712.242	3486.33
712.43	3521.14
712.617	3537.52
712.805	3281.53
712.993	3340.92
713.181	3332.73
713.368	3402.36
713.556	3367.54
713.744	3373.69
713.931	3469.94
714.119	3314.3
714.306	3330.68
714.494	3248.76
714.682	3232.38
714.869	3265.14
715.057	3275.38
715.244	3322.49
715.432	3383.93
715.619	3177.08
715.807	3332.73
715.994	3283.58
716.182	3232.38
716.369	3289.72
716.556	3113.6
716.744	3209.85
716.931	3254.91
717.119	3215.99
717.306	3281.53
717.493	3140.22
717.681	3142.27
717.868	3113.6
718.055	3043.96
718.242	3117.69
718.43	3127.93
718.617	3046.01
718.804	3005.05
718.991	3056.25
719.179	3076.73
719.366	3013.24
719.553	3121.79
719.74	3011.2
719.927	3037.82
720.114	2931.33
720.301	3125.88
720.488	2972.29
720.676	2830.98
720.863	2851.46
721.05	3029.63
721.237	2914.94
721.424	2873.98
721.611	3021.44
721.798	2880.13
721.985	2839.17
722.172	2740.86
722.358	2749.06
722.545	2943.61
722.732	2886.27
722.919	2871.93
723.106	2781.82
723.293	2798.21
723.48	2787.97
723.667	2843.26
723.853	2790.02
724.04	2773.63
724.227	2869.89
724.414	2687.62
724.6	2794.11
724.787	2646.66
724.974	2777.73
725.161	2671.23
725.347	2617.99
725.534	2650.75
725.72	2636.42
725.907	2613.89
726.094	2671.23
726.28	2538.12
726.467	2601.6
726.653	2488.96
726.84	2613.89
727.027	2660.99
727.213	2527.88
727.4	2593.41
727.586	2585.22
727.773	2595.46
727.959	2450.05
728.145	2548.36
728.332	2609.79
728.518	2462.34
728.705	2663.04
728.891	2472.58
729.077	2441.86
729.264	2503.3
729.45	2452.1
729.636	2462.34
729.823	2445.96
730.009	2405
730.195	2364.04
730.382	2507.4
730.568	2302.6
730.754	2361.99
730.94	2472.58
731.126	2445.96
731.313	2466.44
731.499	2400.9
731.685	2384.52
731.871	2405
732.057	2384.52
732.243	2349.7
732.429	2286.22
732.615	2353.8
732.801	2265.74
732.987	2380.42
733.173	2331.27
733.359	2200.2
733.545	2310.79
733.731	2312.84
733.917	2331.27
734.103	2282.12
734.289	2286.22
734.475	2224.78
734.661	2341.51
734.847	2359.94
735.033	2249.35
735.219	2249.35
735.404	2273.93
735.59	2273.93
735.776	2224.78
735.962	2103.95
736.148	2224.78
736.333	2202.25
736.519	2163.34
736.705	2136.71
736.89	2185.87
737.076	2146.95
737.262	2105.99
737.447	2067.08
737.633	2128.52
737.819	2167.43
738.004	2069.13
738.19	2065.04
738.375	2075.28
738.561	2284.17
738.747	2185.87
738.932	2005.64
739.118	2087.56
739.303	2032.27
739.489	2126.47
739.674	2075.28
739.859	2052.75
740.045	1979.02
740.23	1927.82
740.416	1933.97
740.601	1888.91
740.786	1997.45
740.972	1897.1
741.157	1946.25
741.342	1936.01
741.528	1925.77
741.713	1917.58
741.898	1837.71
742.084	1907.34
742.269	1806.99
742.454	1921.68
742.639	1878.67
742.824	1874.57
743.01	1893.01
743.195	1907.34
743.38	1800.85
743.565	1847.95
743.75	1870.48
743.935	1776.27
744.12	1983.12
744.305	1825.42
744.49	1778.32
744.675	1782.42
744.86	1806.99
745.045	1817.23
745.23	1778.32
745.415	1690.26
745.6	1718.93
745.785	1716.88
745.97	1757.84
746.155	1731.22
746.34	1739.41
746.525	1624.72
746.71	1815.18
746.895	1731.22
747.079	1624.72
747.264	1544.85
747.449	1622.67
747.634	1682.07
747.819	1657.49
748.003	1591.95
748.188	1573.52
748.373	1682.07
748.557	1561.23
748.742	1622.67
748.927	1561.23
749.111	1602.19
749.296	1553.04
749.481	1471.12
749.665	1526.42
749.85	1542.8
750.034	1503.89
750.219	1563.28
750.404	1430.16
750.588	1421.97
750.773	1378.97
750.957	1483.41
751.141	1503.89
751.326	1489.56
751.51	1462.93
751.695	1479.32
751.879	1417.88
752.064	1471.12
752.248	1358.49
752.432	1413.78
752.617	1399.45
752.801	1331.86
752.985	1292.95
753.17	1309.33
753.354	1331.86
753.538	1319.57
753.722	1170.07
753.907	1268.38
754.091	1258.14
754.275	1233.56
754.459	1239.7
754.643	1309.33
754.828	1241.75
755.012	1233.56
755.196	1200.79
755.38	1208.98
755.564	1159.83
755.748	1192.6
755.932	1149.59
756.116	1190.55
756.3	1243.8
756.484	1057.43
756.668	1217.18
756.852	1063.58
757.036	1110.68
757.22	1127.07
757.404	1036.95
757.588	1168.02
757.772	1170.07
757.956	1208.98
758.14	1032.86
758.323	1079.96
758.507	1100.44
758.691	1098.39
758.875	1102.49
759.059	1161.88
759.242	1053.34
759.426	1069.72
759.61	1061.53
759.794	1034.91
759.977	971.42
760.161	1057.43
760.345	1137.31
760.528	1092.25
760.712	1010.33
760.895	1110.68
761.079	1036.95
761.263	1045.15
761.446	828.06
761.63	963.23
761.813	1061.53
761.997	975.52
762.18	989.85
762.364	1008.28
762.547	920.22
762.731	905.88
762.914	971.42
763.098	864.93
763.281	946.84
763.464	1004.19
763.648	916.12
763.831	885.41
764.015	815.77
764.198	955.04
764.381	873.12
764.564	959.13
764.748	883.36
764.931	938.65
765.114	858.78
765.297	959.13
765.481	850.59
765.664	905.88
765.847	840.35
766.03	909.98
766.213	873.12
766.397	938.65
766.58	766.62
766.763	846.49
766.946	787.1
767.129	813.73
767.312	914.08
767.495	965.28
767.678	815.77
767.861	785.05
768.044	842.4
768.227	842.4
768.41	834.21
768.593	817.82
768.776	830.11
768.959	828.06
769.142	916.12
769.324	832.16
769.507	791.2
769.69	799.39
769.873	713.38
770.056	823.97
770.239	887.45
770.421	889.5
770.604	832.16
770.787	826.01
770.97	766.62
771.152	799.39
771.335	819.87
771.518	750.24
771.7	793.25
771.883	840.35
772.066	850.59
772.248	742.05
772.431	789.15
772.613	801.44
772.796	823.97
772.978	799.39
773.161	766.62
773.343	776.86
773.526	797.34
773.708	742.05
773.891	758.43
774.073	694.94
774.256	735.9
774.438	742.05
774.621	676.51
774.803	676.51
774.985	799.39
775.168	752.29
775.35	680.61
775.532	742.05
775.715	680.61
775.897	709.28
776.079	643.74
776.261	660.13
776.444	602.79
776.626	662.18
776.808	713.38
776.99	696.99
777.173	586.4
777.355	717.47
777.537	662.18
777.719	586.4
777.901	629.41
778.083	641.7
778.265	506.53
778.447	635.55
778.629	604.83
778.811	639.65
778.993	578.21
779.175	625.31
779.357	672.42
779.539	610.98
779.721	606.88
779.903	598.69
780.085	610.98
780.267	588.45
780.449	586.4
780.631	559.78
780.812	586.4
780.994	520.87
781.176	629.41
781.358	567.97
781.54	572.07
781.721	504.48
781.903	514.72
782.085	535.2
782.267	459.43
782.448	498.34
782.63	520.87
782.812	481.96
782.993	537.25
783.175	586.4
783.357	422.56
783.538	545.44
783.72	545.44
783.901	490.15
784.083	531.11
784.264	545.44
784.446	490.15
784.627	424.61
784.809	506.53
784.99	520.87
785.172	473.76
785.353	484
785.535	424.61
785.716	412.32
785.897	414.37
786.079	441
786.26	365.22
786.441	479.91
786.623	406.18
786.804	373.41
786.985	402.08
787.167	422.56
787.348	426.66
787.529	430.76
787.71	449.19
787.891	352.93
788.073	391.84
788.254	408.23
788.435	395.94
788.616	416.42
788.797	377.51
788.978	340.65
789.159	238.25
789.34	393.89
789.522	438.95
789.703	373.41
789.884	363.17
790.065	348.84
790.246	420.52
790.427	357.03
790.607	381.6
790.788	344.74
790.969	340.65
791.15	408.23
791.331	391.84
791.512	373.41
791.693	375.46
791.874	350.89
792.054	365.22
792.235	359.08
792.416	445.09
792.597	328.36
792.778	338.6
792.958	289.45
793.139	340.65
793.32	297.64
793.5	250.53
793.681	275.11
793.862	309.93
794.042	301.73
794.223	322.21
794.404	357.03
794.584	242.34
794.765	336.55
794.945	371.37
795.126	311.97
795.306	240.3
795.487	293.54
795.667	281.25
795.848	246.44
796.028	228.01
796.209	324.26
796.389	311.97
796.57	242.34
796.75	359.08
796.93	326.31
797.111	193.19
797.291	324.26
797.471	332.45
797.652	219.82
797.832	217.77
798.012	268.97
798.192	258.73
798.373	279.21
798.553	217.77
798.733	275.11
798.913	137.9
799.093	307.88
799.274	236.2
799.454	283.3
799.634	209.58
799.814	295.59
799.994	205.48
800.174	316.07
800.354	254.63
800.534	279.21
800.714	209.58
800.894	271.01
801.074	201.38
801.254	187.05
801.434	291.49
801.614	291.49
801.794	266.92
801.974	770.72
802.154	205.48
802.334	283.3
802.514	144.04
802.693	225.96
802.873	195.24
803.053	256.68
803.233	258.73
803.413	303.78
803.592	268.97
803.772	244.39
803.952	254.63
804.131	197.29
804.311	172.71
804.491	246.44
804.67	201.38
804.85	195.24
805.03	180.9
805.209	279.21
805.389	111.27
805.568	283.3
805.748	195.24
805.928	185
806.107	228.01
806.287	262.82
806.466	250.53
806.646	182.95
806.825	197.29
807.004	162.47
807.184	244.39
807.363	203.43
807.543	217.77
807.722	144.04
807.901	268.97
808.081	285.35
808.26	133.8
808.439	164.52
808.619	221.86
808.798	168.62
808.977	201.38
809.156	191.14
809.336	158.38
809.515	230.06
809.694	178.86
809.873	203.43
810.052	174.76
810.231	172.71
810.411	162.47
810.59	144.04
810.769	168.62
810.948	201.38
811.127	113.32
811.306	152.23
811.485	144.04
811.664	219.82
811.843	176.81
812.022	154.28
812.201	119.46
812.38	273.06
812.559	178.86
812.737	168.62
812.916	105.13
813.095	70.31
813.274	103.08
813.453	86.7
813.632	115.37
813.811	113.32
813.989	88.75
814.168	164.52
814.347	176.81
814.526	144.04
814.704	156.33
814.883	160.42
815.062	125.61
815.24	180.9
815.419	125.61
815.598	178.86
815.776	23.21
815.955	137.9
816.133	146.09
816.312	135.85
816.49	43.69
816.669	105.13
816.847	53.93
817.026	135.85
817.204	111.27
817.383	86.7
817.561	107.18
817.74	152.23
817.918	176.81
818.097	84.65
818.275	74.41
818.453	55.98
818.632	55.98
818.81	88.75
818.988	43.69
819.167	160.42
819.345	144.04
819.523	23.21
819.701	123.56
819.879	119.46
820.058	84.65
820.236	82.6
820.414	92.84
820.592	62.12
820.77	62.12
820.948	82.6
821.127	58.03
821.305	189.1
821.483	82.6
821.661	113.32
821.839	96.94
822.017	86.7
822.195	152.23
822.373	117.42
822.551	115.37
822.729	156.33
822.907	82.6
823.085	84.65
823.262	103.08
823.44	127.66
823.618	-11.61
823.796	84.65
823.974	88.75
824.152	64.17
824.329	78.51
824.507	70.31
824.685	111.27
824.863	141.99
825.04	64.17
825.218	84.65
825.396	117.42
825.574	98.99
825.751	55.98
825.929	90.79
826.107	103.08
826.284	37.55
826.462	185
826.639	62.12
826.817	98.99
826.994	96.94
827.172	115.37
827.349	172.71
827.527	103.08
827.704	94.89
827.882	98.99
828.059	45.74
828.237	88.75
828.414	37.55
828.591	23.21
828.769	25.26
828.946	17.07
829.124	88.75
829.301	129.7
829.478	158.38
829.655	60.07
829.833	78.51
830.01	94.89
830.187	58.03
830.364	103.08
830.542	72.36
830.719	66.22
830.896	105.13
831.073	111.27
831.25	146.09
831.427	74.41
831.604	90.79
831.782	82.6
831.959	197.29
832.136	107.18
832.313	86.7
832.49	115.37
832.667	94.89
832.844	2.73
833.021	129.7
833.198	84.65
833.374	64.17
833.551	62.12
833.728	103.08
833.905	98.99
834.082	60.07
834.259	39.59
834.436	70.31
834.612	-32.08
834.789	94.89
834.966	82.6
835.143	47.79
835.319	96.94
835.496	121.51
835.673	41.64
835.85	103.08
836.026	41.64
836.203	47.79
836.38	6.83
836.556	62.12
836.733	84.65
836.909	33.45
837.086	37.55
837.262	29.35
837.439	82.6
837.616	105.13
837.792	23.21
837.968	12.97
838.145	17.07
838.321	43.69
838.498	72.36
838.674	146.09
838.851	66.22
839.027	43.69
839.203	111.27
839.38	35.5
839.556	39.59
839.732	53.93
839.909	47.79
840.085	152.23
840.261	27.31
840.437	62.12
840.614	25.26
840.79	115.37
840.966	72.36
841.142	90.79
841.318	41.64
841.494	62.12
841.671	64.17
841.847	103.08
842.023	117.42
842.199	53.93
842.375	58.03
842.551	94.89
842.727	6.83
842.903	119.46
843.079	58.03
843.255	55.98
843.431	37.55
843.607	82.6
843.783	45.74
843.959	101.03
844.134	39.59
844.31	82.6
844.486	2.73
844.662	62.12
844.838	17.07
845.013	117.42
845.189	51.88
845.365	80.55
845.541	-32.08
845.716	41.64
845.892	119.46
846.068	12.97
846.244	6.83
846.419	23.21
846.595	-9.56
846.77	37.55
846.946	64.17
847.122	12.97
847.297	47.79
847.473	25.26
847.648	8.87
847.824	86.7
847.999	53.93
848.175	96.94
848.35	45.74
848.526	43.69
848.701	90.79
848.876	90.79
849.052	53.93
849.227	-19.8
849.403	-17.75
849.578	70.31
849.753	33.45
849.929	70.31
850.104	0.68
850.279	86.7
850.454	62.12
850.63	31.4
850.805	103.08
850.98	55.98
851.155	-30.04
851.33	72.36
851.505	66.22
851.681	76.46
851.856	-17.75
852.031	82.6
852.206	47.79
852.381	4.78
852.556	-7.51
852.731	70.31
852.906	78.51
853.081	66.22
853.256	123.56
853.431	84.65
853.606	39.59
853.781	27.31
853.956	27.31
854.131	107.18
854.305	21.16
854.48	-15.7
854.655	4.78
854.83	-9.56
855.005	21.16
855.18	25.26
855.354	15.02
855.529	10.92
855.704	31.4
855.879	94.89
856.053	6.83
856.228	82.6
856.403	25.26
856.577	86.7
856.752	-7.51
856.926	17.07
857.101	78.51
857.276	33.45
857.45	27.31
857.625	94.89
857.799	131.75
857.974	-32.08
858.148	-17.75
858.323	-11.61
858.497	-19.8
858.672	17.07
858.846	-101.72
859.02	66.22
859.195	-27.99
859.369	21.16
859.543	31.4
859.718	96.94
859.892	90.79
860.066	37.55
860.241	29.35
860.415	-60.76
860.589	12.97
860.763	107.18
860.938	-19.8
861.112	88.75
861.286	17.07
861.46	64.17
861.634	41.64
861.808	29.35
861.982	-32.08
862.157	6.83
862.331	-32.08
862.505	-3.41
862.679	-19.8
862.853	23.21
863.027	33.45
863.201	25.26
863.375	55.98
863.549	70.31
863.722	25.26
863.896	144.04
864.07	-66.9
864.244	70.31
864.418	115.37
864.592	-11.61
864.766	55.98
864.939	80.55
865.113	90.79
865.287	17.07
865.461	-11.61
865.634	41.64
865.808	17.07
865.982	15.02
866.156	-60.76
866.329	55.98
866.503	-11.61
866.676	72.36
866.85	15.02
867.024	115.37
867.197	39.59
867.371	98.99
867.544	37.55
867.718	-11.61
867.891	6.83
868.065	29.35
868.238	29.35
868.412	76.46
868.585	49.83
868.759	45.74
868.932	86.7
869.105	21.16
869.279	10.92
869.452	-60.76
869.625	55.98
869.799	37.55
869.972	4.78
870.145	-17.75
870.319	19.11
870.492	55.98
870.665	39.59
870.838	25.26
871.011	-46.42
871.185	53.93
871.358	-89.43
871.531	45.74
871.704	23.21
871.877	-66.9
872.05	21.16
872.223	37.55
872.396	41.64
872.569	37.55
872.742	-79.19
872.915	35.5
873.088	21.16
873.261	12.97
873.434	55.98
873.607	15.02
873.78	33.45
873.953	-79.19
874.126	-11.61
874.299	60.07
874.471	-9.56
874.644	-1.37
874.817	78.51
874.99	88.75
875.163	8.87
875.335	12.97
875.508	45.74
875.681	58.03
875.853	-17.75
876.026	-13.65
876.199	21.16
876.371	8.87
876.544	-30.04
876.717	58.03
876.889	12.97
877.062	98.99
877.234	-85.33
877.407	39.59
877.579	-40.28
877.752	-15.7
877.924	21.16
878.097	45.74
878.269	21.16
878.442	15.02
878.614	-5.46
878.786	-19.8
878.959	62.12
879.131	-9.56
879.303	27.31
879.476	12.97
879.648	-15.7
879.82	21.16
879.993	-89.43
880.165	-11.61
880.337	-38.23
880.509	39.59
880.681	-1.37
880.854	-3.41
881.026	10.92
881.198	39.59
881.37	-1.37
881.542	33.45
881.714	6.83
881.886	-36.18
882.058	80.55
882.23	29.35
882.402	39.59
882.574	27.31
882.746	70.31
882.918	70.31
883.09	72.36
883.262	-44.37
883.434	21.16
883.606	29.35
883.778	4.78
883.95	78.51
884.122	6.83
884.293	55.98
884.465	-13.65
884.637	-52.56
884.809	-3.41
884.98	119.46
885.152	53.93
885.324	62.12
885.496	-3.41
885.667	35.5
885.839	8.87
886.011	6.83
886.182	29.35
886.354	12.97
886.525	12.97
886.697	29.35
886.869	-27.99
887.04	58.03
887.212	-21.84
887.383	107.18
887.555	0.68
887.726	12.97
887.897	47.79
888.069	-17.75
888.24	45.74
888.412	-40.28
888.583	64.17
888.754	-15.7
888.926	-99.67
889.097	23.21
889.268	-48.47
889.44	21.16
889.611	-52.56
889.782	-23.89
889.953	-19.8
890.125	37.55
890.296	49.83
890.467	-128.34
890.638	4.78
890.809	4.78
890.98	-27.99
891.151	70.31
891.323	53.93
891.494	-13.65
891.665	8.87
891.836	33.45
892.007	-9.56
892.178	4.78
892.349	62.12
892.52	-19.8
892.691	6.83
892.862	21.16
893.032	41.64
893.203	55.98
893.374	58.03
893.545	78.51
893.716	-58.71
893.887	12.97
894.057	45.74
894.228	-25.94
894.399	-36.18
894.57	88.75
894.74	-17.75
894.911	21.16
895.082	43.69
895.253	8.87
895.423	23.21
895.594	47.79
895.764	0.68
895.935	37.55
896.106	35.5
896.276	-1.37
896.447	45.74
896.617	-9.56
896.788	-48.47
896.958	12.97
897.129	-17.75
897.299	-50.52
897.47	76.46
897.64	6.83
897.81	-40.28
897.981	4.78
898.151	33.45
898.322	-27.99
898.492	-11.61
898.662	6.83
898.832	19.11
899.003	80.55
899.173	-7.51
899.343	-75.09
899.513	-17.75
