Data from USB4F104151__7__14-28-25-609.txt Node

Date: Thu Mar 13 14:28:25 EDT 2025
User: louis
Spectrometer: USB4F10415
Trigger mode: 4
Integration Time (sec): 2.500000E-2
Scans to average: 1
Electric dark correction enabled: true
Nonlinearity correction enabled: false
Boxcar width: 0
XAxis mode: Wavelengths
Number of Pixels in Spectrum: 3648
>>>>>Begin Spectral Data<<<<<
178.204	-130.56
178.424	-130.56
178.644	-130.56
178.864	-134.65
179.084	-75.26
179.304	-32.26
179.524	20.99
179.744	-34.3
179.964	49.66
180.184	-77.31
180.404	-3.58
180.624	98.81
180.844	-48.64
181.064	-7.68
181.283	59.9
181.503	-32.26
181.723	6.66
181.943	-112.13
182.163	0.51
182.383	-56.83
182.602	94.72
182.822	80.38
183.042	-62.98
183.262	12.8
183.482	33.28
183.701	-11.78
183.921	49.66
184.141	-44.54
184.361	88.57
184.58	27.14
184.8	-7.68
185.02	98.81
185.239	74.24
185.459	80.38
185.679	18.94
185.898	-19.97
186.118	43.52
186.338	98.81
186.557	98.81
186.777	37.38
186.997	41.47
187.216	49.66
187.436	0.51
187.655	-11.78
187.875	25.09
188.095	16.9
188.314	45.57
188.534	113.15
188.753	43.52
188.973	43.52
189.192	20.99
189.412	-15.87
189.631	35.33
189.851	59.9
190.07	109.05
190.29	-42.5
190.509	61.95
190.729	78.33
190.948	74.24
191.168	174.59
191.387	59.9
191.607	-5.63
191.826	41.47
192.045	51.71
192.265	82.43
192.484	49.66
192.704	25.09
192.923	12.8
193.142	102.91
193.362	8.7
193.581	107.01
193.8	92.67
194.02	131.58
194.239	102.91
194.458	16.9
194.678	70.14
194.897	72.19
195.116	33.28
195.335	111.1
195.555	33.28
195.774	68.09
195.993	92.67
196.212	-13.82
196.432	-26.11
196.651	16.9
196.87	-30.21
197.089	92.67
197.308	68.09
197.528	41.47
197.747	57.86
197.966	23.04
198.185	135.68
198.404	2.56
198.623	94.72
198.842	33.28
199.062	37.38
199.281	139.77
199.5	49.66
199.719	18.94
199.938	86.53
200.157	-22.02
200.376	43.52
200.595	90.62
200.814	37.38
201.033	-22.02
201.252	61.95
201.471	43.52
201.69	49.66
201.909	131.58
202.128	6.66
202.347	-24.06
202.566	53.76
202.785	43.52
203.004	-11.78
203.223	166.4
203.442	117.25
203.661	49.66
203.879	41.47
204.098	68.09
204.317	57.86
204.536	121.34
204.755	2.56
204.974	117.25
205.193	102.91
205.411	123.39
205.63	92.67
205.849	-30.21
206.068	25.09
206.287	51.71
206.505	25.09
206.724	68.09
206.943	10.75
207.162	37.38
207.381	8.7
207.599	64
207.818	31.23
208.037	29.18
208.255	10.75
208.474	29.18
208.693	47.62
208.911	10.75
209.13	100.86
209.349	35.33
209.567	53.76
209.786	4.61
210.005	16.9
210.223	53.76
210.442	-7.68
210.661	70.14
210.879	98.81
211.098	43.52
211.316	57.86
211.535	57.86
211.753	0.51
211.972	64
212.191	-42.5
212.409	-7.68
212.628	68.09
212.846	94.72
213.065	119.29
213.283	131.58
213.502	31.23
213.72	94.72
213.938	47.62
214.157	43.52
214.375	4.61
214.594	107.01
214.812	10.75
215.031	-3.58
215.249	23.04
215.467	111.1
215.686	57.86
215.904	84.48
216.122	16.9
216.341	119.29
216.559	51.71
216.778	92.67
216.996	25.09
217.214	61.95
217.432	57.86
217.651	33.28
217.869	76.29
218.087	82.43
218.306	43.52
218.524	98.81
218.742	20.99
218.96	10.75
219.179	37.38
219.397	92.67
219.615	82.43
219.833	-7.68
220.051	55.81
220.27	49.66
220.488	61.95
220.706	68.09
220.924	-19.97
221.142	68.09
221.36	20.99
221.578	8.7
221.796	8.7
222.015	27.14
222.233	25.09
222.451	74.24
222.669	16.9
222.887	47.62
223.105	-36.35
223.323	2.56
223.541	-71.17
223.759	82.43
223.977	25.09
224.195	49.66
224.413	98.81
224.631	-5.63
224.849	49.66
225.067	76.29
225.285	78.33
225.503	4.61
225.721	-40.45
225.939	66.05
226.157	-9.73
226.375	131.58
226.592	-19.97
226.81	-11.78
227.028	86.53
227.246	139.77
227.464	14.85
227.682	12.8
227.9	43.52
228.117	37.38
228.335	68.09
228.553	8.7
228.771	90.62
228.989	14.85
229.206	74.24
229.424	53.76
229.642	-7.68
229.86	-19.97
230.077	70.14
230.295	-9.73
230.513	82.43
230.731	51.71
230.948	35.33
231.166	90.62
231.384	98.81
231.601	8.7
231.819	-7.68
232.037	64
232.254	35.33
232.472	41.47
232.689	33.28
232.907	121.34
233.125	16.9
233.342	49.66
233.56	16.9
233.777	-56.83
233.995	25.09
234.213	64
234.43	70.14
234.648	-13.82
234.865	43.52
235.083	-13.82
235.3	43.52
235.518	55.81
235.735	27.14
235.953	41.47
236.17	66.05
236.388	29.18
236.605	41.47
236.822	117.25
237.04	47.62
237.257	82.43
237.475	-22.02
237.692	64
237.909	33.28
238.127	12.8
238.344	49.66
238.562	150.01
238.779	94.72
238.996	109.05
239.214	-3.58
239.431	6.66
239.648	16.9
239.865	12.8
240.083	111.1
240.3	90.62
240.517	18.94
240.735	2.56
240.952	18.94
241.169	127.49
241.386	74.24
241.603	-7.68
241.821	-24.06
242.038	76.29
242.255	66.05
242.472	16.9
242.689	74.24
242.907	66.05
243.124	41.47
243.341	33.28
243.558	45.57
243.775	-36.35
243.992	49.66
244.209	33.28
244.426	55.81
244.643	43.52
244.86	25.09
245.078	-5.63
245.295	96.77
245.512	27.14
245.729	0.51
245.946	78.33
246.163	14.85
246.38	-46.59
246.597	41.47
246.814	0.51
247.031	-7.68
247.248	-5.63
247.464	78.33
247.681	-3.58
247.898	41.47
248.115	-3.58
248.332	8.7
248.549	84.48
248.766	72.19
248.983	115.2
249.2	-65.02
249.417	27.14
249.633	-11.78
249.85	57.86
250.067	37.38
250.284	66.05
250.501	127.49
250.717	66.05
250.934	-3.58
251.151	43.52
251.368	41.47
251.585	37.38
251.801	49.66
252.018	-52.74
252.235	98.81
252.451	49.66
252.668	18.94
252.885	43.52
253.102	37.38
253.318	82.43
253.535	8.7
253.752	41.47
253.968	8.7
254.185	12.8
254.401	35.33
254.618	49.66
254.835	33.28
255.051	18.94
255.268	61.95
255.484	53.76
255.701	2.56
255.917	88.57
256.134	-7.68
256.351	53.76
256.567	37.38
256.784	41.47
257	25.09
257.217	68.09
257.433	49.66
257.65	68.09
257.866	107.01
258.082	-36.35
258.299	45.57
258.515	35.33
258.732	39.42
258.948	66.05
259.165	43.52
259.381	80.38
259.597	23.04
259.814	43.52
260.03	107.01
260.246	41.47
260.463	82.43
260.679	84.48
260.895	59.9
261.112	152.06
261.328	37.38
261.544	8.7
261.761	184.83
261.977	43.52
262.193	33.28
262.409	49.66
262.626	57.86
262.842	16.9
263.058	45.57
263.274	49.66
263.49	8.7
263.707	76.29
263.923	76.29
264.139	-7.68
264.355	0.51
264.571	10.75
264.787	8.7
265.004	100.86
265.22	37.38
265.436	92.67
265.652	51.71
265.868	53.76
266.084	41.47
266.3	41.47
266.516	-81.41
266.732	49.66
266.948	121.34
267.164	27.14
267.38	125.44
267.596	84.48
267.812	111.1
268.028	49.66
268.244	-7.68
268.46	-22.02
268.676	49.66
268.892	86.53
269.108	43.52
269.324	100.86
269.54	31.23
269.756	78.33
269.972	20.99
270.188	96.77
270.403	27.14
270.619	25.09
270.835	74.24
271.051	90.62
271.267	-22.02
271.483	-36.35
271.698	35.33
271.914	66.05
272.13	39.42
272.346	14.85
272.562	70.14
272.777	68.09
272.993	100.86
273.209	33.28
273.425	49.66
273.64	-22.02
273.856	131.58
274.072	66.05
274.287	41.47
274.503	115.2
274.719	43.52
274.934	8.7
275.15	33.28
275.366	49.66
275.581	0.51
275.797	74.24
276.012	33.28
276.228	51.71
276.444	29.18
276.659	59.9
276.875	20.99
277.09	4.61
277.306	35.33
277.521	43.52
277.737	37.38
277.952	51.71
278.168	37.38
278.383	10.75
278.599	-54.78
278.814	64
279.03	119.29
279.245	133.63
279.461	72.19
279.676	92.67
279.892	8.7
280.107	-15.87
280.322	14.85
280.538	70.14
280.753	-11.78
280.969	-5.63
281.184	16.9
281.399	90.62
281.615	35.33
281.83	90.62
282.045	25.09
282.26	72.19
282.476	-19.97
282.691	100.86
282.906	25.09
283.122	57.86
283.337	49.66
283.552	45.57
283.767	18.94
283.983	107.01
284.198	55.81
284.413	39.42
284.628	-5.63
284.843	61.95
285.058	64
285.274	33.28
285.489	8.7
285.704	115.2
285.919	51.71
286.134	23.04
286.349	45.57
286.564	-30.21
286.779	16.9
286.995	33.28
287.21	25.09
287.425	47.62
287.64	10.75
287.855	23.04
288.07	-13.82
288.285	53.76
288.5	109.05
288.715	8.7
288.93	27.14
289.145	49.66
289.36	80.38
289.575	80.38
289.79	78.33
290.004	8.7
290.219	49.66
290.434	47.62
290.649	45.57
290.864	45.57
291.079	12.8
291.294	49.66
291.509	64
291.724	84.48
291.938	-5.63
292.153	45.57
292.368	82.43
292.583	92.67
292.798	84.48
293.012	117.25
293.227	49.66
293.442	43.52
293.657	68.09
293.871	70.14
294.086	66.05
294.301	59.9
294.516	139.77
294.73	39.42
294.945	41.47
295.16	2.56
295.374	59.9
295.589	61.95
295.804	57.86
296.018	59.9
296.233	135.68
296.447	0.51
296.662	76.29
296.877	115.2
297.091	78.33
297.306	57.86
297.52	12.8
297.735	90.62
297.949	55.81
298.164	84.48
298.378	109.05
298.593	33.28
298.807	23.04
299.022	68.09
299.236	135.68
299.451	51.71
299.665	-32.26
299.88	20.99
300.094	102.91
300.309	76.29
300.523	4.61
300.737	78.33
300.952	66.05
301.166	90.62
301.381	35.33
301.595	92.67
301.809	-77.31
302.024	14.85
302.238	66.05
302.452	66.05
302.667	41.47
302.881	119.29
303.095	68.09
303.309	23.04
303.524	47.62
303.738	41.47
303.952	18.94
304.166	45.57
304.381	2.56
304.595	-5.63
304.809	76.29
305.023	55.81
305.237	74.24
305.452	45.57
305.666	57.86
305.88	127.49
306.094	111.1
306.308	78.33
306.522	111.1
306.736	57.86
306.95	119.29
307.164	12.8
307.379	33.28
307.593	41.47
307.807	76.29
308.021	119.29
308.235	66.05
308.449	-38.4
308.663	-71.17
308.877	76.29
309.091	27.14
309.305	115.2
309.519	-52.74
309.733	129.53
309.947	-22.02
310.161	125.44
310.374	41.47
310.588	113.15
310.802	76.29
311.016	53.76
311.23	98.81
311.444	-93.69
311.658	6.66
311.872	43.52
312.085	37.38
312.299	39.42
312.513	45.57
312.727	33.28
312.941	12.8
313.154	33.28
313.368	10.75
313.582	41.47
313.796	84.48
314.009	41.47
314.223	115.2
314.437	35.33
314.651	133.63
314.864	41.47
315.078	25.09
315.292	72.19
315.505	66.05
315.719	49.66
315.933	76.29
316.146	90.62
316.36	-13.82
316.573	16.9
316.787	8.7
317.001	94.72
317.214	-11.78
317.428	61.95
317.641	25.09
317.855	-15.87
318.068	51.71
318.282	37.38
318.495	84.48
318.709	107.01
318.922	27.14
319.136	33.28
319.349	133.63
319.563	6.66
319.776	-19.97
319.99	68.09
320.203	20.99
320.417	98.81
320.63	80.38
320.843	123.39
321.057	41.47
321.27	49.66
321.483	76.29
321.697	64
321.91	8.7
322.124	70.14
322.337	53.76
322.55	12.8
322.763	-15.87
322.977	98.81
323.19	80.38
323.403	86.53
323.617	53.76
323.83	96.77
324.043	76.29
324.256	49.66
324.469	33.28
324.683	100.86
324.896	20.99
325.109	59.9
325.322	64
325.535	66.05
325.748	0.51
325.962	51.71
326.175	147.97
326.388	74.24
326.601	68.09
326.814	59.9
327.027	115.2
327.24	57.86
327.453	33.28
327.666	74.24
327.879	98.81
328.092	119.29
328.305	-11.78
328.518	23.04
328.731	102.91
328.944	59.9
329.157	66.05
329.37	139.77
329.583	111.1
329.796	90.62
330.009	43.52
330.222	53.76
330.435	-3.58
330.648	82.43
330.861	39.42
331.073	37.38
331.286	49.66
331.499	35.33
331.712	33.28
331.925	84.48
332.138	25.09
332.35	49.66
332.563	-7.68
332.776	66.05
332.989	51.71
333.202	25.09
333.414	23.04
333.627	66.05
333.84	74.24
334.053	33.28
334.265	51.71
334.478	0.51
334.691	41.47
334.903	49.66
335.116	-19.97
335.329	61.95
335.541	31.23
335.754	55.81
335.966	-40.45
336.179	90.62
336.392	35.33
336.604	70.14
336.817	78.33
337.029	-19.97
337.242	92.67
337.454	20.99
337.667	123.39
337.88	150.01
338.092	41.47
338.305	68.09
338.517	23.04
338.729	107.01
338.942	86.53
339.154	-19.97
339.367	2.56
339.579	57.86
339.792	25.09
340.004	59.9
340.217	90.62
340.429	119.29
340.641	18.94
340.854	70.14
341.066	90.62
341.278	41.47
341.491	98.81
341.703	109.05
341.915	8.7
342.128	86.53
342.34	51.71
342.552	45.57
342.764	66.05
342.977	68.09
343.189	82.43
343.401	92.67
343.613	-40.45
343.826	115.2
344.038	66.05
344.25	4.61
344.462	90.62
344.674	53.76
344.886	88.57
345.099	53.76
345.311	25.09
345.523	16.9
345.735	25.09
345.947	74.24
346.159	92.67
346.371	25.09
346.583	53.76
346.795	102.91
347.007	66.05
347.219	90.62
347.431	41.47
347.643	90.62
347.855	53.76
348.067	131.58
348.279	6.66
348.491	45.57
348.703	6.66
348.915	51.71
349.127	25.09
349.339	102.91
349.551	12.8
349.763	96.77
349.975	8.7
350.187	82.43
350.399	39.42
350.61	43.52
350.822	31.23
351.034	29.18
351.246	59.9
351.458	45.57
351.669	74.24
351.881	49.66
352.093	51.71
352.305	68.09
352.517	43.52
352.728	94.72
352.94	72.19
353.152	86.53
353.363	66.05
353.575	104.96
353.787	111.1
353.999	37.38
354.21	18.94
354.422	45.57
354.633	33.28
354.845	2.56
355.057	66.05
355.268	27.14
355.48	102.91
355.692	51.71
355.903	25.09
356.115	-9.73
356.326	86.53
356.538	68.09
356.749	35.33
356.961	12.8
357.172	82.43
357.384	66.05
357.595	107.01
357.807	66.05
358.018	25.09
358.23	55.81
358.441	160.25
358.653	68.09
358.864	35.33
359.075	61.95
359.287	16.9
359.498	98.81
359.709	27.14
359.921	76.29
360.132	84.48
360.344	107.01
360.555	-5.63
360.766	188.93
360.977	86.53
361.189	180.73
361.4	80.38
361.611	82.43
361.823	76.29
362.034	86.53
362.245	18.94
362.456	68.09
362.667	94.72
362.879	100.86
363.09	117.25
363.301	29.18
363.512	107.01
363.723	68.09
363.935	45.57
364.146	70.14
364.357	92.67
364.568	127.49
364.779	16.9
364.99	107.01
365.201	35.33
365.412	107.01
365.623	-17.92
365.834	49.66
366.045	74.24
366.256	160.25
366.467	45.57
366.678	29.18
366.889	98.81
367.1	49.66
367.311	123.39
367.522	-11.78
367.733	174.59
367.944	33.28
368.155	-19.97
368.366	111.1
368.577	141.82
368.788	80.38
368.999	74.24
369.209	98.81
369.42	143.87
369.631	98.81
369.842	20.99
370.053	82.43
370.264	72.19
370.474	18.94
370.685	37.38
370.896	82.43
371.107	98.81
371.317	0.51
371.528	70.14
371.739	119.29
371.95	4.61
372.16	172.54
372.371	61.95
372.582	33.28
372.792	139.77
373.003	125.44
373.214	74.24
373.424	90.62
373.635	82.43
373.846	78.33
374.056	49.66
374.267	8.7
374.477	84.48
374.688	59.9
374.898	92.67
375.109	90.62
375.319	49.66
375.53	131.58
375.74	61.95
375.951	43.52
376.161	37.38
376.372	57.86
376.582	76.29
376.793	74.24
377.003	57.86
377.214	31.23
377.424	31.23
377.635	86.53
377.845	35.33
378.055	98.81
378.266	0.51
378.476	55.81
378.686	51.71
378.897	59.9
379.107	123.39
379.317	68.09
379.528	20.99
379.738	59.9
379.948	27.14
380.158	123.39
380.369	61.95
380.579	143.87
380.789	-17.92
380.999	90.62
381.21	74.24
381.42	127.49
381.63	10.75
381.84	6.66
382.05	41.47
382.261	88.57
382.471	147.97
382.681	76.29
382.891	109.05
383.101	119.29
383.311	74.24
383.521	70.14
383.731	109.05
383.941	176.64
384.151	25.09
384.361	68.09
384.571	107.01
384.781	94.72
384.991	152.06
385.201	152.06
385.411	57.86
385.621	190.97
385.831	29.18
386.041	125.44
386.251	66.05
386.461	53.76
386.671	90.62
386.881	111.1
387.091	127.49
387.301	35.33
387.511	66.05
387.72	133.63
387.93	117.25
388.14	98.81
388.35	74.24
388.56	133.63
388.769	127.49
388.979	104.96
389.189	66.05
389.399	41.47
389.609	104.96
389.818	100.86
390.028	74.24
390.238	164.35
390.447	45.57
390.657	37.38
390.867	86.53
391.076	-15.87
391.286	129.53
391.496	111.1
391.705	86.53
391.915	160.25
392.125	137.73
392.334	147.97
392.544	92.67
392.753	152.06
392.963	61.95
393.172	123.39
393.382	98.81
393.591	188.93
393.801	82.43
394.01	180.73
394.22	66.05
394.429	41.47
394.639	141.82
394.848	100.86
395.058	76.29
395.267	70.14
395.477	152.06
395.686	143.87
395.895	238.08
396.105	160.25
396.314	68.09
396.524	143.87
396.733	10.75
396.942	143.87
397.152	133.63
397.361	90.62
397.57	117.25
397.78	139.77
397.989	131.58
398.198	174.59
398.407	131.58
398.617	158.21
398.826	170.49
399.035	174.59
399.244	164.35
399.453	123.39
399.663	100.86
399.872	145.92
400.081	129.53
400.29	158.21
400.499	96.77
400.708	141.82
400.917	211.45
401.127	152.06
401.336	197.12
401.545	201.21
401.754	145.92
401.963	190.97
402.172	102.91
402.381	170.49
402.59	141.82
402.799	123.39
403.008	158.21
403.217	238.08
403.426	158.21
403.635	100.86
403.844	182.78
404.053	156.16
404.262	188.93
404.471	215.55
404.68	156.16
404.888	229.88
405.097	213.5
405.306	207.36
405.515	172.54
405.724	201.21
405.933	276.99
406.142	215.55
406.35	248.32
406.559	205.31
406.768	188.93
406.977	236.03
407.185	252.41
407.394	332.28
407.603	268.8
407.812	264.7
408.02	408.06
408.229	219.64
408.438	309.76
408.646	287.23
408.855	256.51
409.064	410.11
409.272	279.04
409.481	367.1
409.69	336.38
409.898	371.19
410.107	410.11
410.315	420.35
410.524	479.74
410.733	416.25
410.941	479.74
411.15	453.11
411.358	619
411.567	637.43
411.775	514.55
411.984	598.52
412.192	594.42
412.401	606.71
412.609	608.76
412.818	684.53
413.026	666.1
413.234	707.06
413.443	672.25
413.651	633.33
413.86	766.45
414.068	829.94
414.276	862.71
414.485	786.93
414.693	846.32
414.901	950.77
415.11	1001.97
415.318	885.23
415.526	1012.21
415.734	1053.17
415.943	1141.23
416.151	1171.95
416.359	1229.29
416.567	1081.84
416.776	1141.23
416.984	1346.03
417.192	1319.4
417.4	1257.96
417.608	1376.75
417.817	1376.75
418.025	1450.47
418.233	1593.83
418.441	1444.33
418.649	1540.58
418.857	1712.61
419.065	1753.57
419.273	1788.39
419.481	1892.84
419.689	1864.16
419.897	1987.04
420.105	2015.71
420.313	2081.25
420.521	2030.05
420.729	2204.13
420.937	2245.09
421.145	2435.55
421.353	2474.46
421.561	2613.72
421.769	2742.74
421.977	2744.79
422.185	2744.79
422.393	2851.28
422.601	3064.27
422.809	3006.93
423.017	3219.92
423.224	3287.5
423.432	3301.84
423.64	3353.04
423.848	3713.48
424.056	3629.51
424.263	3789.25
424.471	3887.56
424.679	3793.35
424.887	4188.61
425.094	4166.08
425.302	4278.72
425.51	4325.82
425.718	4532.67
425.925	4563.39
426.133	4782.52
426.341	4981.17
426.548	5292.46
426.756	5288.37
426.964	5210.54
427.171	5452.2
427.379	5865.89
427.586	5826.98
427.794	6070.69
428.001	6121.89
428.209	6621.59
428.417	6424.99
428.624	6930.84
428.832	6885.78
429.039	6881.69
429.247	6939.03
429.454	7375.25
429.662	7901.58
429.869	7643.53
430.076	8098.18
430.284	7797.13
430.491	8208.77
430.699	8618.36
430.906	8601.98
431.114	8782.2
431.321	9036.15
431.528	9175.41
431.736	9689.45
431.943	10172.77
432.15	9890.15
432.358	10142.05
432.565	10516.83
432.772	10436.96
432.979	11034.97
433.187	11151.7
433.394	11297.11
433.601	12075.34
433.808	12069.19
434.016	11972.94
434.223	12546.37
434.43	13392.18
434.637	13003.07
434.844	13748.53
435.052	14045.48
435.259	13883.69
435.466	14225.7
435.673	13920.56
435.88	14807.33
436.087	15698.19
436.294	15640.85
436.501	15110.43
436.708	15704.34
436.915	16187.66
437.122	16615.68
437.329	16920.83
437.537	17428.73
437.743	17424.63
437.95	17420.53
438.157	18397.42
438.364	18882.78
438.571	18895.07
438.778	19022.05
438.985	20627.65
439.192	19837.14
439.399	20598.98
439.606	20123.85
439.813	21246.14
440.02	22401.19
440.227	22012.08
440.433	22018.22
440.64	22585.51
440.847	22405.29
441.054	23054.5
441.261	24594.57
441.467	24350.86
441.674	25055.36
441.881	25387.13
442.088	25645.18
442.294	24922.24
442.501	25915.51
442.708	26470.51
442.914	27596.89
443.121	28610.64
443.328	27861.08
443.534	29644.86
443.741	28670.03
443.948	28622.92
444.154	30519.34
444.361	30556.21
444.568	30554.16
444.774	30447.66
444.981	31014.95
445.187	31957.02
445.394	33290.24
445.6	32690.19
445.807	35594.21
446.013	34293.75
446.22	34572.27
446.426	36091.87
446.633	36276.18
446.839	37668.8
447.046	36243.41
447.252	37976
447.459	38166.46
447.665	38002.62
447.871	39552.93
448.078	41174.92
448.284	39501.73
448.491	41021.33
448.697	41971.58
448.903	42938.22
449.11	42743.67
449.316	42030.97
449.522	43052.91
449.728	43888.48
449.935	44472.15
450.141	44386.14
450.347	45377.36
450.553	43882.34
450.76	44463.96
450.966	45991.75
451.172	45277.01
451.378	46860.08
451.584	45434.7
451.791	46741.3
451.997	46626.62
452.203	47318.83
452.409	47527.72
452.615	47001.39
452.821	45078.35
453.027	45039.44
453.233	47146.8
453.44	45279.05
453.646	46292.8
453.852	46378.81
454.058	47005.49
454.264	45242.19
454.47	46274.37
454.676	45090.64
454.882	46649.14
455.088	42723.19
455.294	43487.08
455.5	43786.08
455.705	44537.69
455.911	42549.11
456.117	41852.8
456.323	41203.6
456.529	39061.42
456.735	41150.35
456.941	40132.51
457.147	39423.91
457.352	38270.9
457.558	38080.44
457.764	38062.01
457.97	37228.49
458.176	36300.76
458.381	36573.14
458.587	34377.72
458.793	34351.09
458.999	33142.79
459.204	34813.93
459.41	33902.59
459.616	32022.55
459.821	32217.11
460.027	31940.63
460.233	31100.97
460.438	29376.58
460.644	30048.31
460.85	28719.18
461.055	28219.47
461.261	28002.39
461.466	25761.91
461.672	25505.91
461.878	26986.6
462.083	25340.03
462.289	24543.37
462.494	24422.54
462.7	23406.75
462.905	22773.92
463.111	23525.53
463.316	23730.33
463.522	22988.96
463.727	22950.05
463.932	23074.98
464.138	22513.83
464.343	22872.23
464.549	22198.45
464.754	22687.91
464.959	22524.07
465.165	22163.63
465.37	21563.57
465.575	21082.3
465.781	21960.88
465.986	21469.37
466.191	20900.03
466.397	20617.41
466.602	19757.27
466.807	20324.55
467.012	20201.68
467.218	20027.6
467.423	20060.37
467.628	19943.63
467.833	20932.8
468.038	20216.01
468.244	19267.8
468.449	20232.4
468.654	19681.49
468.859	19478.74
469.064	19536.09
469.269	18573.54
469.474	18720.99
469.679	19165.4
469.885	18841.82
470.09	18727.14
470.295	18768.1
470.5	18125.04
470.705	18223.34
470.91	18010.35
471.115	17764.59
471.32	18202.86
471.525	17754.35
471.73	17455.35
471.935	17246.46
472.139	16726.27
472.344	17019.13
472.549	16713.98
472.754	16634.11
472.959	16378.12
473.164	15864.08
473.369	15589.65
473.574	16414.98
473.778	16013.58
473.983	16013.58
474.188	16138.51
474.393	15343.89
474.598	15388.95
474.802	15098.14
475.007	14821.66
475.212	15247.64
475.417	14299.43
475.621	14663.97
475.826	14442.79
476.031	14432.55
476.235	13889.84
476.44	14162.22
476.645	13900.08
476.849	13680.94
477.054	13756.72
477.259	13541.68
477.463	13564.21
477.668	13158.71
477.872	13386.04
478.077	13103.42
478.282	12771.65
478.486	12611.9
478.691	12706.11
478.895	12493.12
479.1	12521.79
479.304	12636.48
479.509	12124.49
479.713	12372.29
479.918	12290.37
480.122	11911.5
480.326	12183.88
480.531	12230.98
480.735	11954.51
480.94	11749.71
481.144	12134.73
481.348	11608.4
481.553	11958.6
481.757	11526.48
481.961	11626.83
482.166	11921.74
482.37	11843.92
482.574	11391.31
482.778	11559.25
482.983	11876.68
483.187	11602.25
483.391	11479.38
483.595	11399.51
483.8	11438.42
484.004	11579.73
484.208	11606.35
484.412	11422.03
484.616	11563.34
484.821	11600.21
485.025	11407.7
485.229	11489.62
485.433	11354.45
485.637	11546.96
485.841	11381.07
486.045	11204.95
486.249	11315.54
486.453	11315.54
486.657	11403.6
486.861	11592.02
487.065	11182.42
487.269	11358.55
487.473	11235.67
487.677	11411.79
487.881	11577.68
488.085	11553.1
488.289	11483.47
488.493	11477.33
488.697	11565.39
488.901	11405.65
489.105	11293.01
489.309	11403.6
489.512	11456.85
489.716	11333.97
489.92	11587.92
490.124	11266.39
490.328	11794.76
490.531	11342.16
490.735	11424.08
490.939	11778.38
491.143	11532.62
491.346	11290.96
491.55	11819.34
491.754	11616.59
491.958	11817.29
492.161	11657.55
492.365	11940.17
492.569	11786.57
492.772	11780.43
492.976	11983.18
493.18	12083.53
493.383	12124.49
493.587	12013.9
493.79	12427.59
493.994	12038.47
494.197	12116.3
494.401	12134.73
494.605	12413.25
494.808	12235.08
495.012	12452.16
495.215	12568.9
495.419	12726.59
495.622	12591.42
495.825	12845.37
496.029	12781.88
496.232	12994.87
496.436	13058.36
496.639	13304.12
496.843	13338.93
497.046	13543.73
497.249	13639.98
497.453	13664.56
497.656	13590.83
497.859	13709.61
498.063	13922.6
498.266	14158.12
498.469	14143.78
498.673	14399.78
498.876	14434.6
499.079	14717.22
499.282	14551.33
499.485	15012.12
499.689	14969.12
499.892	15182.1
500.095	15259.93
500.298	15384.85
500.501	15552.79
500.705	15765.78
500.908	15845.65
501.111	16140.55
501.314	16388.36
501.517	16509.19
501.72	16498.95
501.923	16374.02
502.126	16726.27
502.329	17162.49
502.532	17350.9
502.735	17062.14
502.938	17463.54
503.141	17492.21
503.344	18010.35
503.547	17910
503.75	17989.87
503.953	18295.02
504.156	18421.99
504.359	18743.52
504.562	18866.4
504.765	19345.62
504.968	19366.1
505.17	19546.33
505.373	19579.09
505.576	19957.97
505.779	20166.86
505.982	20056.27
506.185	20449.48
506.387	20721.86
506.59	20900.03
506.793	21321.91
506.996	21246.14
507.198	21708.98
507.401	21631.16
507.604	21969.07
507.807	22341.8
508.009	22208.69
508.212	22614.18
508.415	22775.97
508.617	23120.03
508.82	23175.33
509.022	23214.24
509.225	23732.37
509.428	23869.59
509.63	24103.06
509.833	24322.19
510.035	24838.28
510.238	24369.29
510.44	24836.23
510.643	25643.13
510.845	25389.18
511.048	25475.2
511.25	26198.13
511.453	26263.66
511.655	26921.06
511.858	26716.26
512.06	26824.81
512.262	27099.23
512.465	27172.96
512.667	27332.7
512.87	28043.35
513.072	27863.13
513.274	28274.77
513.477	28702.79
513.679	28840.01
513.881	29349.95
514.084	29575.23
514.286	29558.84
514.488	29286.47
514.69	30246.96
514.893	30631.98
515.095	30605.36
515.297	30992.42
515.499	30857.26
515.701	31246.37
515.904	31741.98
516.106	31911.96
516.308	31995.93
516.51	32454.67
516.712	32587.79
516.914	32493.58
517.116	33363.97
517.318	33587.2
517.52	33406.98
517.722	33685.5
517.925	33998.84
518.127	34449.39
518.329	34437.11
518.531	34295.8
518.733	34670.57
518.935	35526.63
519.136	35196.9
519.338	35753.95
519.54	35833.82
519.742	35809.25
519.944	36067.29
520.146	36904.91
520.348	36507.6
520.55	37271.5
520.752	37091.27
520.954	38084.54
521.155	37580.74
521.357	38236.09
521.559	38487.99
521.761	38864.81
521.963	38533.04
522.164	38518.71
522.366	38627.25
522.568	39124.91
522.77	39204.78
522.971	40015.77
523.173	39425.96
523.375	39794.59
523.576	39884.7
523.778	39704.48
523.98	40269.72
524.181	40550.29
524.383	40449.94
524.584	41244.55
524.786	41015.18
524.988	40245.15
525.189	41125.77
525.391	41131.92
525.592	41381.77
525.794	41473.93
525.995	41504.65
526.197	41351.05
526.398	41377.67
526.6	41924.48
526.801	41971.58
527.003	41811.84
527.204	41951.1
527.406	42377.08
527.607	41881.47
527.808	42592.12
528.01	41570.18
528.211	42047.36
528.412	42403.7
528.614	42473.34
528.815	42377.08
529.016	42534.77
529.218	41674.63
529.419	42366.84
529.62	42639.22
529.822	42323.83
530.023	42411.9
530.224	42735.48
530.425	42389.37
530.626	41684.87
530.828	41762.69
531.029	42952.56
531.23	41947.01
531.431	42012.54
531.632	42086.27
531.833	42481.53
532.035	42002.3
532.236	42123.13
532.437	42557.3
532.638	42080.13
532.839	42268.54
533.04	41934.72
533.241	41805.7
533.442	42565.49
533.643	41774.98
533.844	41971.58
534.045	41957.25
534.246	41349
534.447	41840.51
534.648	41762.69
534.849	42160
535.05	41015.18
535.251	41643.91
535.451	41340.81
535.652	41496.45
535.853	41314.19
536.054	41105.29
536.255	41693.06
536.456	40867.73
536.657	41934.72
536.857	41459.59
537.058	40837.01
537.259	41217.93
537.46	41410.44
537.66	40732.56
537.861	40882.06
538.062	40765.33
538.263	41322.38
538.463	40781.71
538.664	40613.78
538.865	40984.46
539.065	41334.67
539.266	40382.36
539.466	40701.84
539.667	40632.21
539.868	40951.7
540.068	41193.36
540.269	40707.99
540.469	40929.17
540.67	40583.06
540.87	40671.12
541.071	40597.4
541.271	40480.66
541.472	40308.63
541.672	40667.03
541.873	40214.43
542.073	40073.12
542.274	40331.16
542.474	40267.67
542.675	40179.61
542.875	40451.99
543.075	40236.95
543.276	40091.55
543.476	40159.13
543.676	39956.38
543.877	40036.25
544.077	40304.54
544.277	40273.82
544.478	39968.67
544.678	40368.02
544.878	39823.26
545.078	40327.06
545.279	39618.47
545.479	40036.25
545.679	39966.62
545.879	40064.92
546.079	40142.75
546.28	39942.05
546.48	39583.65
546.68	40159.13
546.88	40279.96
547.08	40169.37
547.28	39745.44
547.48	39600.04
547.68	39694.24
547.88	39552.93
548.081	40216.47
548.281	39765.92
548.481	39708.58
548.681	40404.89
548.881	40054.68
549.081	39516.07
549.28	39696.29
549.48	40204.19
549.68	40081.31
549.88	40525.72
550.08	39643.04
550.28	40038.3
550.48	40048.54
550.68	40306.58
550.88	39843.74
551.08	39872.42
551.279	40030.11
551.479	39755.68
551.679	40228.76
551.879	39983.01
552.079	40234.91
552.278	39968.67
552.478	40251.29
552.678	40085.4
552.878	40302.49
553.077	40304.54
553.277	39534.5
553.477	40624.02
553.676	39614.37
553.876	40179.61
554.076	40275.87
554.275	40282.01
554.475	39710.63
554.674	40040.35
554.874	40060.83
555.074	40306.58
555.273	40361.88
555.473	40593.3
555.672	40109.98
555.872	40066.97
556.071	40109.98
556.271	40402.84
556.47	40081.31
556.67	39921.57
556.869	40329.11
557.068	40163.23
557.268	39819.17
557.467	40243.1
557.667	40204.19
557.866	40361.88
558.065	40386.46
558.265	39985.05
558.464	40013.73
558.663	40824.72
558.863	40167.32
559.062	41138.06
559.261	39980.96
559.461	40826.77
559.66	39796.64
559.859	40509.33
560.058	39757.73
560.258	40052.64
560.457	39999.39
560.656	40976.27
560.855	40046.49
561.054	40181.66
561.253	40290.2
561.453	40048.54
561.652	40513.43
561.851	40331.16
562.05	39962.53
562.249	39827.36
562.448	40316.82
562.647	40181.66
562.846	40171.42
563.045	40032.16
563.244	39782.3
563.443	40259.48
563.642	39341.99
563.841	39921.57
564.04	39847.84
564.239	40009.63
564.438	39765.92
564.637	40087.45
564.836	40089.5
565.035	39471.01
565.234	39649.19
565.432	39313.32
565.631	39597.99
565.83	39720.87
566.029	39774.11
566.228	39489.45
566.427	39399.33
566.625	39032.75
566.824	38746.03
567.023	39581.6
567.222	38864.81
567.42	39100.33
567.619	39317.42
567.818	39172.01
568.016	39444.39
568.215	39106.48
568.414	39059.37
568.612	39229.35
568.811	38713.27
569.01	39108.52
569.208	38152.12
569.407	38866.86
569.605	38524.85
569.804	38725.55
570.002	38414.26
570.201	38610.87
570.4	38391.73
570.598	38285.24
570.797	37660.61
570.995	37920.7
571.193	37898.17
571.392	38049.72
571.59	37699.52
571.789	37730.24
571.987	37404.61
572.186	37552.07
572.384	37271.5
572.582	37414.85
572.781	37351.37
572.979	36835.28
573.177	37271.5
573.376	37296.07
573.574	36999.12
573.772	36839.37
573.971	36667.34
574.169	36468.69
574.367	36128.73
574.565	37181.38
574.763	36556.75
574.962	36505.55
575.16	36005.85
575.358	36460.5
575.556	36007.9
575.754	36331.48
575.952	35899.36
576.151	36313.05
576.349	35440.61
576.547	35645.41
576.745	35696.61
576.943	35524.58
577.141	35715.04
577.339	35373.03
577.537	35295.21
577.735	35368.93
577.933	34971.63
578.131	34922.48
578.329	34654.19
578.527	35012.59
578.725	34805.74
578.923	34959.34
579.121	34559.98
579.319	34703.34
579.516	34416.63
579.714	34197.49
579.912	34506.74
580.11	34203.64
580.308	34181.11
580.506	33910.78
580.704	33929.21
580.901	33857.53
581.099	34494.45
581.297	33472.51
581.495	33716.22
581.692	33769.47
581.89	33390.59
582.088	33701.89
582.285	33589.25
582.483	33361.92
582.681	33292.29
582.878	33548.29
583.076	32792.59
583.274	33243.14
583.471	32499.73
583.669	33247.24
583.866	32763.92
584.064	33048.58
584.262	32364.56
584.459	32765.96
584.657	32393.23
584.854	32587.79
585.052	31957.02
585.249	32270.36
585.447	32464.91
585.644	31840.28
585.841	31979.54
586.039	32124.95
586.236	31715.36
586.434	31690.78
586.631	31887.39
586.828	31528.99
587.026	32004.12
587.223	31381.54
587.42	31528.99
587.618	31569.95
587.815	31135.78
588.012	31189.03
588.21	31035.43
588.407	31182.88
588.604	31074.34
588.801	30928.94
588.999	30978.09
589.196	31062.05
589.393	31066.15
589.59	30480.43
589.787	30642.22
589.984	30826.54
590.182	30656.56
590.379	30292.02
590.576	30310.45
590.773	30283.83
590.97	30163
591.167	30320.69
591.364	29876.28
591.561	30152.76
591.758	30130.23
591.955	29743.16
592.152	30298.16
592.349	29575.23
592.546	29816.89
592.743	29886.52
592.94	29315.14
593.137	29689.91
593.334	30142.52
593.531	29243.46
593.727	29593.66
593.924	29646.91
594.121	29020.23
594.318	29558.84
594.515	29388.86
594.712	29321.28
594.908	29276.23
595.105	29429.82
595.302	28936.26
595.499	29106.24
595.696	29216.83
595.892	28946.5
596.089	29077.57
596.286	29108.29
596.482	29208.64
596.679	28684.36
596.876	28997.7
597.072	28807.24
597.269	28672.07
597.466	28641.35
597.662	28880.97
597.859	28764.23
598.055	28878.92
598.252	28684.36
598.448	28588.11
598.645	28469.33
598.841	28311.63
599.038	28510.28
599.234	28424.27
599.431	28022.87
599.627	28465.23
599.824	28627.02
600.02	28592.2
600.217	28610.64
600.413	28227.67
600.609	28162.13
600.806	28696.65
601.002	28541
601.198	28493.9
601.395	28178.51
601.591	28401.74
601.787	28530.76
601.984	28391.5
602.18	28729.42
602.376	28323.92
602.572	28432.46
602.769	28323.92
602.965	28123.22
603.161	28457.04
603.357	28557.39
603.553	28512.33
603.75	28612.68
603.946	28450.89
604.142	28647.5
604.338	28086.36
604.534	28567.63
604.73	28469.33
604.926	28125.27
605.122	28698.7
605.318	28487.76
605.514	28198.99
605.71	28285.01
605.906	28528.72
606.102	28307.54
606.298	28620.88
606.494	28407.89
606.69	28770.38
606.886	28805.19
607.082	28385.36
607.278	28790.86
607.474	28115.03
607.67	28688.46
607.866	28444.75
608.062	28989.51
608.257	28751.95
608.453	29245.51
608.649	28887.11
608.845	28614.73
609.041	28526.67
609.236	29044.8
609.432	28905.54
609.628	28983.37
609.824	29175.87
610.019	28651.59
610.215	28901.45
610.411	29063.24
610.606	29059.14
610.802	29462.59
610.998	29096
611.193	29136.96
611.389	29046.85
611.584	29046.85
611.78	29118.53
611.976	29440.06
612.171	29298.75
612.367	29550.65
612.562	29456.45
612.758	28989.51
612.953	29274.18
613.149	29732.92
613.344	29259.84
613.539	29483.07
613.735	29593.66
613.93	29352
614.126	29114.44
614.321	30060.6
614.517	29689.91
614.712	29544.51
614.907	29378.62
615.103	29665.34
615.298	29638.72
615.493	29907
615.688	29315.14
615.884	30148.66
616.079	29622.33
616.274	29960.25
616.47	29554.75
616.665	29575.23
616.86	29419.58
617.055	29567.04
617.25	29292.61
617.445	29833.27
617.641	29450.3
617.836	29636.67
618.031	29253.7
618.226	29429.82
618.421	29386.82
618.616	29612.09
618.811	29122.63
619.006	29851.7
619.201	28678.22
619.396	29147.2
619.591	28751.95
619.786	28883.02
619.981	28727.37
620.176	28960.84
620.371	28491.85
620.566	29038.66
620.761	28332.11
620.956	28559.44
621.151	28313.68
621.346	28663.88
621.541	28153.94
621.735	28379.21
621.93	27717.72
622.125	28031.06
622.32	27496.54
622.515	27777.11
622.709	27623.51
622.904	27588.7
623.099	27146.34
623.294	27383.9
623.488	26949.73
623.683	27146.34
623.878	26646.63
624.072	26802.28
624.267	26540.14
624.462	26407.02
624.656	26597.48
624.851	26513.52
625.046	26075.25
625.24	26302.57
625.435	25966.71
625.629	25766.01
625.824	25673.85
626.018	25753.72
626.213	24903.81
626.407	25530.49
626.602	25155.71
626.796	25229.44
626.991	25096.32
627.185	24995.97
627.38	24834.18
627.574	24553.61
627.768	24297.61
627.963	24385.68
628.157	24348.81
628.352	24180.88
628.546	24017.04
628.74	24092.82
628.935	23662.74
629.129	24086.67
629.323	23353.5
629.517	23750.81
629.712	23572.63
629.906	23085.22
630.1	23290.01
630.294	23165.09
630.489	23044.26
630.683	23271.58
630.877	22444.2
631.071	22505.64
631.265	22753.44
631.459	22436.01
631.653	22354.09
631.848	22667.43
632.042	22048.94
632.236	22161.58
632.43	21891.25
632.624	21825.71
632.818	21627.06
633.012	21502.14
633.206	21303.48
633.4	21657.78
633.594	21074.11
633.788	21383.35
633.982	21233.85
634.176	21080.25
634.369	21024.96
634.563	20877.51
634.757	20488.39
634.951	21010.62
635.145	20603.08
635.339	20402.38
635.533	20506.82
635.726	20185.29
635.92	19851.47
636.114	19906.77
636.308	19810.51
636.501	19830.99
636.695	19738.83
636.889	19308.76
637.083	19552.47
637.276	19294.43
637.47	19529.94
637.664	18794.72
637.857	19183.84
638.051	19093.72
638.244	18661.6
638.438	18647.27
638.632	18520.29
638.825	18227.43
639.019	18530.53
639.212	18415.85
639.406	18131.18
639.599	17924.33
639.793	18170.09
639.986	17789.17
640.18	17928.43
640.373	17676.53
640.567	17412.34
640.76	17465.59
640.954	17277.18
641.147	17139.96
641.34	17058.04
641.534	16992.51
641.727	17217.79
641.92	17010.94
642.114	16675.07
642.307	16646.4
642.5	16507.14
642.694	16488.71
642.887	16120.07
643.08	16457.99
643.273	16349.45
643.467	16294.15
643.66	15794.45
643.853	16017.68
644.046	15741.2
644.239	15548.69
644.432	15614.23
644.626	15757.58
644.819	15737.1
645.012	15454.48
645.205	15450.39
645.398	15231.26
645.591	14950.68
645.784	15155.48
645.977	14608.67
646.17	14860.57
646.363	14557.47
646.556	14575.91
646.749	14598.43
646.942	14590.24
647.135	14508.32
647.328	14102.82
647.521	14166.31
647.714	14012.71
647.907	14113.06
648.099	13717.81
648.292	13734.19
648.485	13818.16
648.678	13568.3
648.871	13652.27
649.064	13635.89
649.256	13672.75
649.449	13318.45
649.642	13478.19
649.835	13125.94
650.027	13052.22
650.22	13232.44
650.413	12927.29
650.605	12898.62
650.798	12869.95
650.991	12742.97
651.183	12724.54
651.376	12632.38
651.568	12568.9
651.761	12495.17
651.954	12521.79
652.146	12521.79
652.339	12458.31
652.531	12271.94
652.724	12360
652.916	11956.55
653.109	12222.79
653.301	11776.33
653.494	12183.88
653.686	11800.91
653.879	12101.96
654.071	11888.97
654.263	11811.15
654.456	11641.17
654.648	11841.87
654.84	11458.9
655.033	11411.79
655.225	11479.38
655.417	11415.89
655.61	11284.82
655.802	11276.63
655.994	11217.24
656.186	11430.23
656.379	10797.4
656.571	11100.5
656.763	10772.83
656.955	10838.36
657.148	10881.37
657.34	10963.29
657.532	10674.53
657.724	10678.62
657.916	10488.16
658.108	10475.87
658.3	10572.13
658.492	10563.93
658.684	10187.11
658.876	10215.78
659.068	10371.43
659.26	10010.98
659.452	10150.25
659.644	10191.2
659.836	9996.65
660.028	9994.6
660.22	9773.42
660.412	9832.81
660.604	9732.46
660.796	9726.32
660.988	9634.16
661.18	9568.62
661.372	9572.72
661.563	9677.16
661.755	9269.62
661.947	9539.95
662.139	9189.75
662.331	9517.42
662.522	9159.03
662.714	9236.85
662.906	8962.42
663.097	9109.88
663.289	8900.98
663.481	8786.3
663.673	8987
663.864	8839.55
664.056	8970.62
664.247	8765.82
664.439	8776.06
664.631	8716.67
664.822	8677.76
665.014	8583.55
665.205	8587.64
665.397	8460.67
665.588	8522.11
665.78	8270.21
665.971	8335.74
666.163	8477.05
666.354	8317.31
666.546	8032.65
666.737	8155.52
666.929	8077.7
667.12	8184.2
667.311	8188.29
667.503	7913.86
667.694	7987.59
667.885	7915.91
668.077	8012.17
668.268	7944.58
668.459	7930.25
668.651	7670.15
668.842	7627.15
669.033	7702.92
669.224	7588.24
669.416	7528.85
669.607	7610.76
669.798	7565.71
669.989	7653.77
670.18	7518.61
670.371	7408.01
670.563	7334.29
670.754	7379.34
670.945	7147.92
671.136	7315.86
671.327	7143.83
671.518	7356.82
671.709	7522.7
671.9	7285.14
672.091	7186.83
672.282	6971.8
672.473	6988.18
672.664	7006.61
672.855	6971.8
673.046	7092.63
673.237	7037.33
673.428	6850.97
673.619	7020.95
673.809	6891.93
674	6953.37
674.191	6914.45
674.382	6869.4
674.573	6783.38
674.764	6799.77
674.954	6588.83
675.145	6709.66
675.336	6621.59
675.527	6492.57
675.717	6668.7
675.908	6406.56
676.099	6658.46
676.289	6463.9
676.48	6513.05
676.671	6427.04
676.861	6443.42
677.052	6398.37
677.243	6429.09
677.433	6384.03
677.624	6558.11
677.814	6435.23
678.005	6343.07
678.195	6203.81
678.386	6416.8
678.576	6287.78
678.767	6384.03
678.957	6328.74
679.148	6455.71
679.338	6250.91
679.529	5921.19
679.719	6218.15
679.909	6291.87
680.1	6220.19
680.29	6181.28
680.481	6136.23
680.671	6177.19
680.861	5956.01
681.052	6089.12
681.242	6060.45
681.432	6089.12
681.622	6029.73
681.813	6039.97
682.003	5923.24
682.193	6128.03
682.383	6027.68
682.573	5949.86
682.764	6046.12
682.954	6119.84
683.144	5935.53
683.334	6007.2
683.524	5783.98
683.714	5958.05
683.904	5894.57
684.094	5884.33
684.284	5951.91
684.474	5843.37
684.664	5732.78
684.854	5816.74
685.044	5743.02
685.234	5767.59
685.424	5644.71
685.614	5761.45
685.804	5794.22
685.994	5757.35
686.184	5564.84
686.374	5575.08
686.564	5775.78
686.753	5634.47
686.943	5599.66
687.133	5638.57
687.323	5458.35
687.513	5835.17
687.702	5661.1
687.892	5556.65
688.082	5540.27
688.272	5513.64
688.461	5583.27
688.651	5521.84
688.841	5435.82
689.03	5466.54
689.22	5509.55
689.41	5554.6
689.599	5390.77
689.789	5398.96
689.979	5308.85
690.168	5403.05
690.358	5358
690.547	5312.94
690.737	5237.17
690.926	5153.2
691.116	5122.48
691.305	5394.86
691.495	5376.43
691.684	5269.94
691.874	5259.7
692.063	5310.89
692.252	5126.58
692.442	5261.74
692.631	5024.18
692.82	5128.63
693.01	5087.67
693.199	5112.24
693.388	5097.91
693.578	5050.8
693.767	5185.97
693.956	5081.52
694.146	5058.99
694.335	5071.28
694.524	4977.08
694.713	5173.68
694.902	5048.75
695.092	5069.23
695.281	4856.25
695.47	4917.68
695.659	4858.29
695.848	4739.51
696.037	4944.31
696.226	4958.64
696.415	4882.87
696.604	5009.84
696.793	4825.53
696.982	4911.54
697.171	4915.64
697.36	4872.63
697.549	4673.98
697.738	4745.66
697.927	4899.25
698.116	4788.66
698.305	4874.68
698.494	4721.08
698.683	4856.25
698.872	5005.75
699.061	4653.5
699.25	4792.76
699.438	4669.88
699.627	4624.83
699.816	4694.46
700.005	4628.92
700.193	4673.98
700.382	4741.56
700.571	4506.04
700.76	4620.73
700.948	4587.96
701.137	4661.69
701.326	4534.71
701.514	4614.59
701.703	4555.19
701.892	4501.95
702.08	4465.08
702.269	4514.24
702.457	4409.79
702.646	4581.82
702.834	4477.37
703.023	4420.03
703.212	4540.86
703.4	4422.08
703.589	4303.29
703.777	4370.88
703.965	4284.86
704.154	4354.49
704.342	4270.53
704.531	4456.89
704.719	4325.82
704.907	4334.01
705.096	4342.21
705.284	4221.38
705.472	4491.71
705.661	4295.1
705.849	4403.64
706.037	4385.21
706.226	4153.79
706.414	4368.83
706.602	4018.63
706.79	4338.11
706.979	4188.61
707.167	4233.66
707.355	4098.5
707.543	4063.68
707.731	4268.48
707.919	4164.03
708.107	4114.88
708.296	4178.37
708.484	4129.22
708.672	4174.27
708.86	3910.08
709.048	4075.97
709.236	3938.76
709.424	4002.24
709.612	4088.26
709.8	4053.44
709.988	3889.6
710.176	3973.57
710.364	3908.04
710.551	3867.08
710.739	3824.07
710.927	3774.92
711.115	3805.64
711.303	3932.61
711.491	3838.41
711.679	3682.76
711.866	3856.84
712.054	3774.92
712.242	3803.59
712.43	3850.69
712.617	3637.7
712.805	3869.12
712.993	3760.58
713.181	3596.75
713.368	3606.98
713.556	3916.23
713.744	3539.4
713.931	3862.98
714.119	3633.61
714.306	3776.97
714.494	3656.14
714.682	3627.46
714.869	3387.85
715.057	3631.56
715.244	3686.86
715.432	3514.83
715.619	3437
715.807	3574.22
715.994	3582.41
716.182	3623.37
716.369	3606.98
716.556	3443.15
716.744	3547.59
716.931	3353.04
717.119	3523.02
717.306	3606.98
717.493	3445.2
717.681	3383.76
717.868	3394
718.055	3531.21
718.242	3314.13
718.43	3334.61
718.617	3437
718.804	3391.95
718.991	3369.42
719.179	3305.93
719.366	3295.69
719.553	3426.76
719.74	3379.66
719.927	3320.27
720.114	3287.5
720.301	3162.58
720.488	3236.3
720.676	3174.86
720.863	3293.65
721.05	3197.39
721.237	3258.83
721.424	3170.77
721.611	3373.52
721.798	3031.51
721.985	3187.15
722.172	3187.15
722.358	3152.34
722.545	3117.52
722.732	3156.43
722.919	3199.44
723.106	3056.08
723.293	3142.1
723.48	3183.06
723.667	3049.94
723.853	3107.28
724.04	3072.47
724.227	3002.83
724.414	2974.16
724.6	2957.78
724.787	3056.08
724.974	3039.7
725.161	3015.12
725.347	2947.54
725.534	3045.84
725.72	2957.78
725.907	2898.39
726.094	2892.24
726.28	2871.76
726.467	2929.11
726.653	2910.68
726.84	2959.83
727.027	2900.44
727.213	2804.18
727.4	2925.01
727.586	2892.24
727.773	2884.05
727.959	2777.56
728.145	2929.11
728.332	2802.13
728.518	2867.67
728.705	2802.13
728.891	2830.8
729.077	2818.52
729.264	2779.61
729.45	2695.64
729.636	2839
729.823	2795.99
730.009	2746.84
730.195	2726.36
730.382	2843.09
730.568	2638.3
730.754	2720.21
730.94	2681.3
731.126	2712.02
731.313	2886.1
731.499	2699.73
731.685	2736.6
731.871	2644.44
732.057	2699.73
732.243	2644.44
732.429	2685.4
732.615	2626.01
732.801	2574.81
732.987	2576.86
733.173	2533.85
733.359	2664.92
733.545	2527.71
733.731	2566.62
733.917	2669.02
734.103	2515.42
734.289	2677.21
734.475	2476.51
734.661	2632.15
734.847	2589.14
735.033	2507.23
735.219	2548.19
735.404	2484.7
735.59	2388.44
735.776	2458.07
735.962	2548.19
736.148	2499.03
736.333	2464.22
736.519	2552.28
736.705	2406.88
736.89	2507.23
737.076	2474.46
737.262	2327
737.447	2361.82
737.633	2402.78
737.819	2331.1
738.004	2329.05
738.19	2257.37
738.375	2427.35
738.561	2355.68
738.747	2269.66
738.932	2281.95
739.118	2376.16
739.303	2173.41
739.489	2300.38
739.674	2238.94
739.859	2228.7
740.045	2290.14
740.23	2195.93
740.416	2075.1
740.601	2214.37
740.786	2187.74
740.972	2181.6
741.157	2116.06
741.342	2003.43
741.528	2152.93
741.713	2212.32
741.898	2093.54
742.084	2187.74
742.269	2173.41
742.454	2187.74
742.639	2107.87
742.824	2152.93
743.01	2107.87
743.195	2036.19
743.38	2167.26
743.565	2038.24
743.75	2107.87
743.935	2109.92
744.12	2200.03
744.305	1876.45
744.49	2064.86
744.675	1954.27
744.86	1978.85
745.045	1915.36
745.23	2017.76
745.415	2093.54
745.6	2028
745.785	1847.78
745.97	1886.69
746.155	1802.72
746.34	1925.6
746.525	1827.3
746.71	2036.19
746.895	1886.69
747.079	1882.6
747.264	1851.88
747.449	1872.36
747.634	1747.43
747.819	1763.81
748.003	1864.16
748.188	1755.62
748.373	1827.3
748.557	1731.05
748.742	1640.93
748.927	1749.48
749.111	1677.8
749.296	1720.81
749.481	1671.65
749.665	1681.89
749.85	1657.32
750.034	1704.42
750.219	1749.48
750.404	1661.41
750.588	1671.65
750.773	1548.78
750.957	1642.98
751.141	1612.26
751.326	1536.49
751.51	1565.16
751.695	1597.93
751.879	1626.6
752.064	1556.97
752.248	1548.78
752.432	1577.45
752.617	1520.1
752.801	1614.31
752.985	1454.57
753.17	1532.39
753.354	1466.86
753.538	1532.39
753.722	1485.29
753.907	1507.82
754.091	1425.9
754.275	1530.34
754.459	1339.88
754.643	1335.79
754.828	1475.05
755.012	1450.47
755.196	1368.56
755.38	1321.45
755.564	1452.52
755.748	1393.13
755.932	1411.56
756.116	1395.18
756.3	1309.16
756.484	1294.83
756.668	1376.75
756.852	1278.44
757.036	1264.11
757.22	1237.49
757.404	1303.02
757.588	1280.49
757.772	1180.14
757.956	1202.67
758.14	1294.83
758.323	1278.44
758.507	1174
758.691	1184.24
758.875	1165.81
759.059	1282.54
759.242	1262.06
759.426	1206.77
759.61	1165.81
759.794	1135.09
759.977	1186.29
760.161	1245.68
760.345	1192.43
760.528	1198.57
760.712	1188.33
760.895	1157.61
761.079	1057.26
761.263	1130.99
761.446	1061.36
761.63	1061.36
761.813	1155.57
761.997	1053.17
762.18	1038.83
762.364	1028.59
762.547	1051.12
762.731	1071.6
762.914	1112.56
763.098	999.92
763.281	1098.22
763.464	977.39
763.648	1049.07
763.831	1065.46
764.015	1042.93
764.198	1024.5
764.381	983.54
764.564	1006.06
764.748	1016.3
764.931	1016.3
765.114	1104.37
765.297	1059.31
765.481	1049.07
765.664	1049.07
765.847	926.19
766.03	1059.31
766.213	954.87
766.397	932.34
766.58	1001.97
766.763	1008.11
766.946	1018.35
767.129	897.52
767.312	969.2
767.495	940.53
767.678	963.06
767.861	1022.45
768.044	1022.45
768.227	967.15
768.41	944.63
768.593	1044.98
768.776	944.63
768.959	877.04
769.142	913.91
769.324	930.29
769.507	928.24
769.69	901.62
769.873	883.19
770.056	950.77
770.239	905.71
770.421	987.63
770.604	940.53
770.787	877.04
770.97	872.95
771.152	846.32
771.335	862.71
771.518	877.04
771.7	924.15
771.883	831.99
772.066	860.66
772.248	866.8
772.431	942.58
772.613	885.23
772.796	854.51
772.978	836.08
773.161	940.53
773.343	815.6
773.526	813.56
773.708	756.21
773.891	795.12
774.073	844.28
774.256	713.21
774.438	803.32
774.621	778.74
774.803	795.12
774.985	764.4
775.168	786.93
775.35	694.77
775.532	827.89
775.715	768.5
775.897	811.51
776.079	733.68
776.261	788.98
776.444	815.6
776.626	770.55
776.808	778.74
776.99	680.44
777.173	754.16
777.355	795.12
777.537	782.84
777.719	741.88
777.901	715.25
778.083	723.44
778.265	754.16
778.447	664.05
778.629	608.76
778.811	668.15
778.993	664.05
779.175	741.88
779.357	686.58
779.539	674.29
779.721	547.32
779.903	633.33
780.085	702.97
780.267	600.57
780.449	737.78
780.631	723.44
780.812	700.92
780.994	647.67
781.176	631.29
781.358	582.14
781.54	584.18
781.721	639.48
781.903	582.14
782.085	578.04
782.267	655.86
782.448	553.46
782.63	535.03
782.812	563.7
782.993	582.14
783.175	573.94
783.357	541.18
783.538	582.14
783.72	543.22
783.901	479.74
784.083	541.18
784.264	553.46
784.446	469.5
784.627	440.83
784.809	573.94
784.99	463.35
785.172	508.41
785.353	522.74
785.535	512.5
785.716	496.12
785.897	442.87
786.079	489.98
786.26	483.83
786.441	492.02
786.623	451.07
786.804	393.72
786.985	502.26
787.167	481.78
787.348	477.69
787.529	494.07
787.71	467.45
787.891	528.89
788.073	494.07
788.254	428.54
788.435	475.64
788.616	485.88
788.797	295.42
788.978	471.54
789.159	528.89
789.34	451.07
789.522	457.21
789.703	438.78
789.884	401.91
790.065	461.3
790.246	408.06
790.427	397.82
790.607	446.97
790.788	399.87
790.969	369.15
791.15	438.78
791.331	332.28
791.512	387.58
791.693	311.8
791.874	387.58
792.054	385.53
792.235	371.19
792.416	363
792.597	354.81
792.778	410.11
792.958	330.23
793.139	373.24
793.32	401.91
793.5	360.95
793.681	399.87
793.862	299.52
794.042	367.1
794.223	229.88
794.404	385.53
794.584	279.04
794.765	360.95
794.945	354.81
795.126	309.76
795.306	379.39
795.487	279.04
795.667	383.48
795.848	387.58
796.028	342.52
796.209	311.8
796.389	344.57
796.57	330.23
796.75	309.76
796.93	328.19
797.111	254.46
797.291	295.42
797.471	250.36
797.652	373.24
797.832	233.98
798.012	266.75
798.192	299.52
798.373	295.42
798.553	313.85
798.733	363
798.913	279.04
799.093	297.47
799.274	336.38
799.454	250.36
799.634	256.51
799.814	270.84
799.994	215.55
800.174	283.13
800.354	264.7
800.534	248.32
800.714	350.71
800.894	229.88
801.074	188.93
801.254	223.74
801.434	295.42
801.614	233.98
801.794	190.97
801.974	872.95
802.154	201.21
802.334	297.47
802.514	266.75
802.693	297.47
802.873	223.74
803.053	309.76
803.233	215.55
803.413	254.46
803.592	252.41
803.772	141.82
803.952	190.97
804.131	180.73
804.311	266.75
804.491	322.04
804.67	221.69
804.85	213.5
805.03	256.51
805.209	213.5
805.389	238.08
805.568	229.88
805.748	174.59
805.928	268.8
806.107	274.94
806.287	332.28
806.466	205.31
806.646	178.69
806.825	266.75
807.004	221.69
807.184	281.08
807.363	174.59
807.543	160.25
807.722	305.66
807.901	238.08
808.081	225.79
808.26	152.06
808.439	158.21
808.619	238.08
808.798	295.42
808.977	219.64
809.156	246.27
809.336	272.89
809.515	188.93
809.694	170.49
809.873	156.16
810.052	221.69
810.231	221.69
810.411	205.31
810.59	244.22
810.769	166.4
810.948	221.69
811.127	135.68
811.306	195.07
811.485	147.97
811.664	221.69
811.843	207.36
812.022	221.69
812.201	92.67
812.38	190.97
812.559	223.74
812.737	223.74
812.916	127.49
813.095	164.35
813.274	207.36
813.453	199.16
813.632	164.35
813.811	147.97
813.989	131.58
814.168	178.69
814.347	109.05
814.526	147.97
814.704	131.58
814.883	119.29
815.062	141.82
815.24	156.16
815.419	127.49
815.598	180.73
815.776	102.91
815.955	139.77
816.133	107.01
816.312	207.36
816.49	156.16
816.669	147.97
816.847	158.21
817.026	139.77
817.204	92.67
817.383	147.97
817.561	107.01
817.74	139.77
817.918	184.83
818.097	190.97
818.275	119.29
818.453	209.4
818.632	188.93
818.81	207.36
818.988	123.39
819.167	190.97
819.345	111.1
819.523	152.06
819.701	180.73
819.879	139.77
820.058	164.35
820.236	182.78
820.414	41.47
820.592	147.97
820.77	102.91
820.948	150.01
821.127	141.82
821.305	68.09
821.483	115.2
821.661	180.73
821.839	84.48
822.017	129.53
822.195	-3.58
822.373	88.57
822.551	152.06
822.729	150.01
822.907	152.06
823.085	92.67
823.262	90.62
823.44	90.62
823.618	33.28
823.796	90.62
823.974	131.58
824.152	104.96
824.329	82.43
824.507	98.81
824.685	117.25
824.863	80.38
825.04	107.01
825.218	158.21
825.396	16.9
825.574	135.68
825.751	115.2
825.929	188.93
826.107	104.96
826.284	125.44
826.462	131.58
826.639	107.01
826.817	82.43
826.994	78.33
827.172	92.67
827.349	156.16
827.527	86.53
827.704	86.53
827.882	147.97
828.059	158.21
828.237	74.24
828.414	70.14
828.591	37.38
828.769	66.05
828.946	66.05
829.124	82.43
829.301	193.02
829.478	111.1
829.655	107.01
829.833	49.66
830.01	57.86
830.187	82.43
830.364	35.33
830.542	190.97
830.719	145.92
830.896	127.49
831.073	25.09
831.25	82.43
831.427	131.58
831.604	82.43
831.782	115.2
831.959	68.09
832.136	43.52
832.313	193.02
832.49	98.81
832.667	64
832.844	57.86
833.021	98.81
833.198	131.58
833.374	31.23
833.551	139.77
833.728	92.67
833.905	125.44
834.082	90.62
834.259	123.39
834.436	147.97
834.612	45.57
834.789	74.24
834.966	43.52
835.143	115.2
835.319	-3.58
835.496	166.4
835.673	59.9
835.85	121.34
836.026	55.81
836.203	150.01
836.38	66.05
836.556	-60.93
836.733	68.09
836.909	76.29
837.086	82.43
837.262	23.04
837.439	57.86
837.616	33.28
837.792	57.86
837.968	20.99
838.145	33.28
838.321	135.68
838.498	66.05
838.674	76.29
838.851	70.14
839.027	-36.35
839.203	98.81
839.38	152.06
839.556	-11.78
839.732	117.25
839.909	59.9
840.085	39.42
840.261	12.8
840.437	94.72
840.614	31.23
840.79	25.09
840.966	64
841.142	84.48
841.318	20.99
841.494	53.76
841.671	88.57
841.847	74.24
842.023	66.05
842.199	59.9
842.375	66.05
842.551	82.43
842.727	74.24
842.903	180.73
843.079	12.8
843.255	94.72
843.431	39.42
843.607	66.05
843.783	-87.55
843.959	61.95
844.134	12.8
844.31	84.48
844.486	0.51
844.662	90.62
844.838	4.61
845.013	72.19
845.189	59.9
845.365	107.01
845.541	141.82
845.716	61.95
845.892	76.29
846.068	72.19
846.244	100.86
846.419	84.48
846.595	33.28
846.77	-7.68
846.946	147.97
847.122	37.38
847.297	39.42
847.473	150.01
847.648	35.33
847.824	59.9
847.999	12.8
848.175	94.72
848.35	82.43
848.526	123.39
848.701	113.15
848.876	37.38
849.052	43.52
849.227	66.05
849.403	141.82
849.578	45.57
849.753	82.43
849.929	115.2
850.104	-24.06
850.279	66.05
850.454	-46.59
850.63	86.53
850.805	2.56
850.98	70.14
851.155	18.94
851.33	57.86
851.505	-11.78
851.681	147.97
851.856	39.42
852.031	98.81
852.206	68.09
852.381	-7.68
852.556	27.14
852.731	66.05
852.906	16.9
853.081	70.14
853.256	57.86
853.431	41.47
853.606	-19.97
853.781	53.76
853.956	92.67
854.131	33.28
854.305	31.23
854.48	31.23
854.655	59.9
854.83	-7.68
855.005	-54.78
855.18	145.92
855.354	109.05
855.529	66.05
855.704	23.04
855.879	-15.87
856.053	-3.58
856.228	14.85
856.403	16.9
856.577	66.05
856.752	-15.87
856.926	29.18
857.101	-28.16
857.276	90.62
857.45	41.47
857.625	70.14
857.799	74.24
857.974	70.14
858.148	8.7
858.323	25.09
858.497	-9.73
858.672	84.48
858.846	68.09
859.02	51.71
859.195	35.33
859.369	0.51
859.543	107.01
859.718	90.62
859.892	-7.68
860.066	47.62
860.241	14.85
860.415	49.66
860.589	33.28
860.763	0.51
860.938	29.18
861.112	51.71
861.286	45.57
861.46	33.28
861.634	41.47
861.808	88.57
861.982	33.28
862.157	-1.54
862.331	25.09
862.505	43.52
862.679	66.05
862.853	2.56
863.027	37.38
863.201	78.33
863.375	-1.54
863.549	2.56
863.722	70.14
863.896	125.44
864.07	-22.02
864.244	39.42
864.418	18.94
864.592	16.9
864.766	37.38
864.939	16.9
865.113	12.8
865.287	31.23
865.461	-5.63
865.634	66.05
865.808	35.33
865.982	4.61
866.156	27.14
866.329	-28.16
866.503	43.52
866.676	8.7
866.85	41.47
867.024	-60.93
867.197	139.77
867.371	72.19
867.544	49.66
867.718	78.33
867.891	43.52
868.065	33.28
868.238	-40.45
868.412	16.9
868.585	41.47
868.759	53.76
868.932	37.38
869.105	0.51
869.279	10.75
869.452	27.14
869.625	4.61
869.799	-9.73
869.972	4.61
870.145	33.28
870.319	37.38
870.492	12.8
870.665	-7.68
870.838	4.61
871.011	-44.54
871.185	0.51
871.358	-46.59
871.531	27.14
871.704	-22.02
871.877	43.52
872.05	25.09
872.223	31.23
872.396	57.86
872.569	82.43
872.742	20.99
872.915	88.57
873.088	-58.88
873.261	16.9
873.434	25.09
873.607	51.71
873.78	59.9
873.953	-26.11
874.126	76.29
874.299	-11.78
874.471	-9.73
874.644	-67.07
874.817	45.57
874.99	57.86
875.163	-28.16
875.335	16.9
875.508	139.77
875.681	49.66
875.853	29.18
876.026	119.29
876.199	-56.83
876.371	35.33
876.544	20.99
876.717	-46.59
876.889	70.14
877.062	102.91
877.234	-65.02
877.407	-11.78
877.579	-7.68
877.752	33.28
877.924	31.23
878.097	162.3
878.269	47.62
878.442	-15.87
878.614	94.72
878.786	16.9
878.959	8.7
879.131	25.09
879.303	-44.54
879.476	-28.16
879.648	35.33
879.82	-5.63
879.993	-15.87
880.165	27.14
880.337	-1.54
880.509	33.28
880.681	-89.6
880.854	-56.83
881.026	2.56
881.198	74.24
881.37	0.51
881.542	0.51
881.714	78.33
881.886	4.61
882.058	-15.87
882.23	27.14
882.402	-40.45
882.574	49.66
882.746	53.76
882.918	29.18
883.09	14.85
883.262	-22.02
883.434	-13.82
883.606	-46.59
883.778	-19.97
883.95	111.1
884.122	31.23
884.293	98.81
884.465	12.8
884.637	41.47
884.809	-3.58
884.98	49.66
885.152	43.52
885.324	-17.92
885.496	-24.06
885.667	-19.97
885.839	4.61
886.011	90.62
886.182	27.14
886.354	66.05
886.525	43.52
886.697	51.71
886.869	102.91
887.04	25.09
887.212	59.9
887.383	133.63
887.555	27.14
887.726	47.62
887.897	-32.26
888.069	33.28
888.24	86.53
888.412	-13.82
888.583	90.62
888.754	0.51
888.926	20.99
889.097	8.7
889.268	-60.93
889.44	90.62
889.611	-22.02
889.782	12.8
889.953	68.09
890.125	78.33
890.296	49.66
890.467	-56.83
890.638	-32.26
890.809	66.05
890.98	-34.3
891.151	90.62
891.323	123.39
891.494	-7.68
891.665	20.99
891.836	57.86
892.007	43.52
892.178	4.61
892.349	-15.87
892.52	-24.06
892.691	-28.16
892.862	66.05
893.032	-28.16
893.203	-3.58
893.374	0.51
893.545	4.61
893.716	78.33
893.887	59.9
894.057	-44.54
894.228	-5.63
894.399	-48.64
894.57	12.8
894.74	-9.73
894.911	8.7
895.082	0.51
895.253	-13.82
895.423	27.14
895.594	74.24
895.764	-3.58
895.935	-26.11
896.106	-7.68
896.276	0.51
896.447	41.47
896.617	43.52
896.788	-73.21
896.958	-50.69
897.129	37.38
897.299	-44.54
897.47	113.15
897.64	94.72
897.81	51.71
897.981	2.56
898.151	-34.3
898.322	33.28
898.492	41.47
898.662	27.14
898.832	-24.06
899.003	47.62
899.173	-46.59
899.343	-30.21
899.513	55.81
