Data from USB4F104151__145__14-31-54-174.txt Node

Date: Thu Mar 13 14:31:54 EDT 2025
User: louis
Spectrometer: USB4F10415
Trigger mode: 4
Integration Time (sec): 2.500000E-2
Scans to average: 1
Electric dark correction enabled: true
Nonlinearity correction enabled: false
Boxcar width: 0
XAxis mode: Wavelengths
Number of Pixels in Spectrum: 3648
>>>>>Begin Spectral Data<<<<<
178.204	-208.89
178.424	-208.89
178.644	-208.89
178.864	-172.03
179.084	-94.21
179.304	26.62
179.524	-34.82
179.744	-51.2
179.964	30.72
180.184	88.06
180.404	20.48
180.624	-26.62
180.844	2.05
181.064	-96.25
181.283	65.54
181.503	0
181.723	-24.58
181.943	8.19
182.163	108.54
182.383	57.34
182.602	108.54
182.822	-24.58
183.042	83.97
183.262	26.62
183.482	-71.68
183.701	34.82
183.921	45.06
184.141	-6.14
184.361	22.53
184.58	40.96
184.8	20.48
185.02	102.4
185.239	61.44
185.459	73.73
185.679	61.44
185.898	4.1
186.118	96.25
186.338	75.77
186.557	47.1
186.777	6.14
186.997	83.97
187.216	34.82
187.436	83.97
187.655	83.97
187.875	55.3
188.095	34.82
188.314	96.25
188.534	83.97
188.753	-43.01
188.973	36.86
189.192	63.49
189.412	30.72
189.631	6.14
189.851	47.1
190.07	112.64
190.29	30.72
190.509	61.44
190.729	18.43
190.948	133.12
191.168	167.93
191.387	75.77
191.607	43.01
191.826	59.39
192.045	30.72
192.265	86.01
192.484	47.1
192.704	43.01
192.923	22.53
193.142	83.97
193.362	75.77
193.581	86.01
193.8	92.16
194.02	34.82
194.239	67.58
194.458	92.16
194.678	-12.29
194.897	108.54
195.116	67.58
195.335	16.38
195.555	28.67
195.774	18.43
195.993	92.16
196.212	16.38
196.432	86.01
196.651	83.97
196.87	83.97
197.089	75.77
197.308	49.15
197.528	116.73
197.747	57.34
197.966	67.58
198.185	47.1
198.404	71.68
198.623	75.77
198.842	102.4
199.062	106.49
199.281	63.49
199.5	88.06
199.719	63.49
199.938	38.91
200.157	71.68
200.376	75.77
200.595	77.82
200.814	59.39
201.033	32.77
201.252	20.48
201.471	88.06
201.69	18.43
201.909	75.77
202.128	83.97
202.347	126.97
202.566	75.77
202.785	67.58
203.004	116.73
203.223	96.25
203.442	10.24
203.661	-10.24
203.879	2.05
204.098	153.6
204.317	34.82
204.536	8.19
204.755	61.44
204.974	61.44
205.193	63.49
205.411	174.08
205.63	157.69
205.849	18.43
206.068	53.25
206.287	79.87
206.505	81.92
206.724	100.35
206.943	-2.05
207.162	86.01
207.381	73.73
207.599	79.87
207.818	36.86
208.037	18.43
208.255	-30.72
208.474	106.49
208.693	16.38
208.911	-47.1
209.13	6.14
209.349	57.34
209.567	51.2
209.786	26.62
210.005	51.2
210.223	61.44
210.442	-36.86
210.661	26.62
210.879	47.1
211.098	30.72
211.316	51.2
211.535	92.16
211.753	-55.3
211.972	34.82
212.191	-2.05
212.409	18.43
212.628	83.97
212.846	43.01
213.065	51.2
213.283	141.31
213.502	32.77
213.72	86.01
213.938	-12.29
214.157	26.62
214.375	38.91
214.594	6.14
214.812	20.48
215.031	-2.05
215.249	83.97
215.467	51.2
215.686	51.2
215.904	98.3
216.122	69.63
216.341	43.01
216.559	24.58
216.778	47.1
216.996	16.38
217.214	51.2
217.432	92.16
217.651	34.82
217.869	69.63
218.087	12.29
218.306	106.49
218.524	141.31
218.742	18.43
218.96	22.53
219.179	20.48
219.397	20.48
219.615	102.4
219.833	106.49
220.051	24.58
220.27	141.31
220.488	45.06
220.706	92.16
220.924	12.29
221.142	59.39
221.36	26.62
221.578	53.25
221.796	51.2
222.015	-36.86
222.233	36.86
222.451	26.62
222.669	-22.53
222.887	77.82
223.105	49.15
223.323	47.1
223.541	20.48
223.759	145.41
223.977	28.67
224.195	81.92
224.413	90.11
224.631	79.87
224.849	59.39
225.067	110.59
225.285	30.72
225.503	57.34
225.721	-43.01
225.939	20.48
226.157	57.34
226.375	161.79
226.592	-10.24
226.81	43.01
227.028	98.3
227.246	147.45
227.464	-32.77
227.682	69.63
227.9	38.91
228.117	75.77
228.335	79.87
228.553	51.2
228.771	86.01
228.989	30.72
229.206	75.77
229.424	-4.1
229.642	-6.14
229.86	-14.34
230.077	98.3
230.295	36.86
230.513	16.38
230.731	12.29
230.948	51.2
231.166	98.3
231.384	61.44
231.601	14.34
231.819	96.25
232.037	-4.1
232.254	14.34
232.472	-6.14
232.689	36.86
232.907	22.53
233.125	18.43
233.342	69.63
233.56	-18.43
233.777	14.34
233.995	-4.1
234.213	102.4
234.43	22.53
234.648	14.34
234.865	75.77
235.083	108.54
235.3	139.26
235.518	36.86
235.735	67.58
235.953	61.44
236.17	100.35
236.388	4.1
236.605	38.91
236.822	79.87
237.04	120.83
237.257	57.34
237.475	40.96
237.692	71.68
237.909	94.21
238.127	69.63
238.344	28.67
238.562	114.69
238.779	2.05
238.996	-47.1
239.214	18.43
239.431	67.58
239.648	51.2
239.865	126.97
240.083	49.15
240.3	137.21
240.517	36.86
240.735	-6.14
240.952	69.63
241.169	67.58
241.386	61.44
241.603	100.35
241.821	10.24
242.038	120.83
242.255	45.06
242.472	8.19
242.689	47.1
242.907	63.49
243.124	55.3
243.341	94.21
243.558	110.59
243.775	-12.29
243.992	-4.1
244.209	71.68
244.426	165.89
244.643	102.4
244.86	43.01
245.078	96.25
245.295	24.58
245.512	36.86
245.729	18.43
245.946	34.82
246.163	92.16
246.38	67.58
246.597	75.77
246.814	86.01
247.031	61.44
247.248	43.01
247.464	118.78
247.681	67.58
247.898	137.21
248.115	26.62
248.332	-14.34
248.549	141.31
248.766	40.96
248.983	112.64
249.2	18.43
249.417	100.35
249.633	-4.1
249.85	69.63
250.067	59.39
250.284	63.49
250.501	36.86
250.717	63.49
250.934	34.82
251.151	6.14
251.368	75.77
251.585	59.39
251.801	12.29
252.018	2.05
252.235	43.01
252.451	10.24
252.668	14.34
252.885	30.72
253.102	20.48
253.318	34.82
253.535	83.97
253.752	100.35
253.968	57.34
254.185	-24.58
254.401	147.45
254.618	59.39
254.835	26.62
255.051	151.55
255.268	77.82
255.484	43.01
255.701	-22.53
255.917	49.15
256.134	-8.19
256.351	4.1
256.567	61.44
256.784	75.77
257	-12.29
257.217	108.54
257.433	61.44
257.65	-8.19
257.866	59.39
258.082	112.64
258.299	96.25
258.515	30.72
258.732	75.77
258.948	126.97
259.165	20.48
259.381	4.1
259.597	-6.14
259.814	83.97
260.03	26.62
260.246	34.82
260.463	116.73
260.679	59.39
260.895	59.39
261.112	38.91
261.328	12.29
261.544	20.48
261.761	143.36
261.977	77.82
262.193	-47.1
262.409	120.83
262.626	92.16
262.842	49.15
263.058	6.14
263.274	110.59
263.49	92.16
263.707	59.39
263.923	40.96
264.139	-8.19
264.355	38.91
264.571	92.16
264.787	77.82
265.004	133.12
265.22	36.86
265.436	55.3
265.652	108.54
265.868	69.63
266.084	-6.14
266.3	122.88
266.516	-22.53
266.732	26.62
266.948	-51.2
267.164	126.97
267.38	-4.1
267.596	86.01
267.812	104.45
268.028	86.01
268.244	100.35
268.46	4.1
268.676	-40.96
268.892	34.82
269.108	77.82
269.324	30.72
269.54	4.1
269.756	124.93
269.972	-22.53
270.188	2.05
270.403	2.05
270.619	-43.01
270.835	22.53
271.051	88.06
271.267	55.3
271.483	96.25
271.698	53.25
271.914	59.39
272.13	45.06
272.346	51.2
272.562	59.39
272.777	116.73
272.993	77.82
273.209	14.34
273.425	53.25
273.64	-20.48
273.856	71.68
274.072	86.01
274.287	28.67
274.503	88.06
274.719	53.25
274.934	61.44
275.15	28.67
275.366	45.06
275.581	-10.24
275.797	26.62
276.012	10.24
276.228	14.34
276.444	26.62
276.659	86.01
276.875	10.24
277.09	30.72
277.306	83.97
277.521	67.58
277.737	22.53
277.952	133.12
278.168	116.73
278.383	104.45
278.599	94.21
278.814	61.44
279.03	34.82
279.245	118.78
279.461	36.86
279.676	2.05
279.892	59.39
280.107	-47.1
280.322	12.29
280.538	63.49
280.753	30.72
280.969	53.25
281.184	86.01
281.399	141.31
281.615	55.3
281.83	83.97
282.045	40.96
282.26	28.67
282.476	65.54
282.691	20.48
282.906	14.34
283.122	34.82
283.337	79.87
283.552	174.08
283.767	43.01
283.983	26.62
284.198	63.49
284.413	81.92
284.628	34.82
284.843	83.97
285.058	61.44
285.274	18.43
285.489	-14.34
285.704	14.34
285.919	-22.53
286.134	51.2
286.349	49.15
286.564	18.43
286.779	47.1
286.995	38.91
287.21	-28.67
287.425	14.34
287.64	16.38
287.855	38.91
288.07	129.02
288.285	126.97
288.5	104.45
288.715	67.58
288.93	124.93
289.145	22.53
289.36	79.87
289.575	59.39
289.79	135.17
290.004	49.15
290.219	51.2
290.434	12.29
290.649	24.58
290.864	30.72
291.079	124.93
291.294	92.16
291.509	49.15
291.724	-24.58
291.938	51.2
292.153	110.59
292.368	28.67
292.583	135.17
292.798	79.87
293.012	55.3
293.227	51.2
293.442	118.78
293.657	133.12
293.871	143.36
294.086	133.12
294.301	149.5
294.516	24.58
294.73	108.54
294.945	4.1
295.16	53.25
295.374	112.64
295.589	102.4
295.804	6.14
296.018	40.96
296.233	135.17
296.447	86.01
296.662	4.1
296.877	120.83
297.091	59.39
297.306	14.34
297.52	43.01
297.735	24.58
297.949	53.25
298.164	45.06
298.378	69.63
298.593	28.67
298.807	77.82
299.022	38.91
299.236	143.36
299.451	100.35
299.665	79.87
299.88	110.59
300.094	59.39
300.309	69.63
300.523	133.12
300.737	59.39
300.952	133.12
301.166	96.25
301.381	43.01
301.595	28.67
301.809	36.86
302.024	55.3
302.238	112.64
302.452	100.35
302.667	65.54
302.881	83.97
303.095	43.01
303.309	28.67
303.524	34.82
303.738	43.01
303.952	92.16
304.166	51.2
304.381	47.1
304.595	59.39
304.809	83.97
305.023	86.01
305.237	30.72
305.452	83.97
305.666	51.2
305.88	10.24
306.094	83.97
306.308	108.54
306.522	133.12
306.736	38.91
306.95	92.16
307.164	18.43
307.379	14.34
307.593	108.54
307.807	71.68
308.021	122.88
308.235	22.53
308.449	10.24
308.663	20.48
308.877	143.36
309.091	24.58
309.305	108.54
309.519	-8.19
309.733	131.07
309.947	47.1
310.161	51.2
310.374	81.92
310.588	51.2
310.802	108.54
311.016	75.77
311.23	77.82
311.444	34.82
311.658	10.24
311.872	67.58
312.085	20.48
312.299	-14.34
312.513	147.45
312.727	28.67
312.941	-30.72
313.154	40.96
313.368	102.4
313.582	67.58
313.796	116.73
314.009	96.25
314.223	83.97
314.437	88.06
314.651	108.54
314.864	20.48
315.078	-8.19
315.292	-14.34
315.505	45.06
315.719	26.62
315.933	43.01
316.146	124.93
316.36	75.77
316.573	96.25
316.787	94.21
317.001	92.16
317.214	22.53
317.428	30.72
317.641	61.44
317.855	63.49
318.068	45.06
318.282	53.25
318.495	102.4
318.709	71.68
318.922	45.06
319.136	153.6
319.349	73.73
319.563	12.29
319.776	77.82
319.99	34.82
320.203	67.58
320.417	75.77
320.63	22.53
320.843	163.84
321.057	65.54
321.27	-38.91
321.483	16.38
321.697	83.97
321.91	53.25
322.124	100.35
322.337	-22.53
322.55	124.93
322.763	26.62
322.977	75.77
323.19	-26.62
323.403	100.35
323.617	6.14
323.83	55.3
324.043	45.06
324.256	26.62
324.469	57.34
324.683	120.83
324.896	34.82
325.109	75.77
325.322	-18.43
325.535	71.68
325.748	86.01
325.962	12.29
326.175	36.86
326.388	131.07
326.601	18.43
326.814	55.3
327.027	100.35
327.24	18.43
327.453	12.29
327.666	86.01
327.879	55.3
328.092	83.97
328.305	55.3
328.518	83.97
328.731	124.93
328.944	22.53
329.157	53.25
329.37	45.06
329.583	83.97
329.796	94.21
330.009	67.58
330.222	67.58
330.435	86.01
330.648	43.01
330.861	51.2
331.073	75.77
331.286	100.35
331.499	55.3
331.712	43.01
331.925	24.58
332.138	67.58
332.35	129.02
332.563	55.3
332.776	65.54
332.989	20.48
333.202	88.06
333.414	110.59
333.627	110.59
333.84	30.72
334.053	118.78
334.265	57.34
334.478	20.48
334.691	108.54
334.903	57.34
335.116	92.16
335.329	61.44
335.541	88.06
335.754	116.73
335.966	86.01
336.179	59.39
336.392	96.25
336.604	141.31
336.817	143.36
337.029	43.01
337.242	59.39
337.454	51.2
337.667	100.35
337.88	122.88
338.092	47.1
338.305	51.2
338.517	61.44
338.729	96.25
338.942	104.45
339.154	59.39
339.367	86.01
339.579	147.45
339.792	-45.06
340.004	59.39
340.217	86.01
340.429	133.12
340.641	40.96
340.854	16.38
341.066	51.2
341.278	108.54
341.491	131.07
341.703	124.93
341.915	14.34
342.128	131.07
342.34	34.82
342.552	69.63
342.764	22.53
342.977	55.3
343.189	63.49
343.401	61.44
343.613	34.82
343.826	141.31
344.038	38.91
344.25	75.77
344.462	12.29
344.674	10.24
344.886	92.16
345.099	108.54
345.311	51.2
345.523	51.2
345.735	-4.1
345.947	14.34
346.159	71.68
346.371	59.39
346.583	92.16
346.795	108.54
347.007	83.97
347.219	61.44
347.431	-51.2
347.643	129.02
347.855	43.01
348.067	118.78
348.279	2.05
348.491	83.97
348.703	47.1
348.915	-6.14
349.127	43.01
349.339	57.34
349.551	32.77
349.763	149.5
349.975	28.67
350.187	102.4
350.399	57.34
350.61	40.96
350.822	-38.91
351.034	18.43
351.246	36.86
351.458	75.77
351.669	18.43
351.881	110.59
352.093	100.35
352.305	141.31
352.517	75.77
352.728	38.91
352.94	-2.05
353.152	83.97
353.363	108.54
353.575	55.3
353.787	108.54
353.999	96.25
354.21	184.32
354.422	75.77
354.633	77.82
354.845	26.62
355.057	55.3
355.268	20.48
355.48	110.59
355.692	26.62
355.903	69.63
356.115	67.58
356.326	116.73
356.538	190.46
356.749	73.73
356.961	172.03
357.172	22.53
357.384	71.68
357.595	219.13
357.807	59.39
358.018	34.82
358.23	61.44
358.441	200.7
358.653	67.58
358.864	71.68
359.075	47.1
359.287	124.93
359.498	124.93
359.709	45.06
359.921	20.48
360.132	100.35
360.344	94.21
360.555	28.67
360.766	92.16
360.977	135.17
361.189	145.41
361.4	57.34
361.611	135.17
361.823	108.54
362.034	133.12
362.245	75.77
362.456	92.16
362.667	124.93
362.879	43.01
363.09	79.87
363.301	137.21
363.512	12.29
363.723	65.54
363.935	38.91
364.146	100.35
364.357	65.54
364.568	135.17
364.779	65.54
364.99	124.93
365.201	-8.19
365.412	126.97
365.623	67.58
365.834	79.87
366.045	-55.3
366.256	149.5
366.467	55.3
366.678	79.87
366.889	30.72
367.1	108.54
367.311	83.97
367.522	217.08
367.733	129.02
367.944	122.88
368.155	92.16
368.366	108.54
368.577	116.73
368.788	92.16
368.999	57.34
369.209	133.12
369.42	124.93
369.631	186.37
369.842	75.77
370.053	59.39
370.264	114.69
370.474	-18.43
370.685	116.73
370.896	-36.86
371.107	141.31
371.317	141.31
371.528	92.16
371.739	153.6
371.95	92.16
372.16	38.91
372.371	26.62
372.582	83.97
372.792	67.58
373.003	67.58
373.214	-10.24
373.424	28.67
373.635	-16.38
373.846	71.68
374.056	86.01
374.267	79.87
374.477	120.83
374.688	45.06
374.898	34.82
375.109	92.16
375.319	112.64
375.53	88.06
375.74	126.97
375.951	147.45
376.161	81.92
376.372	112.64
376.582	38.91
376.793	143.36
377.003	59.39
377.214	88.06
377.424	71.68
377.635	45.06
377.845	18.43
378.055	53.25
378.266	51.2
378.476	4.1
378.686	100.35
378.897	81.92
379.107	141.31
379.317	100.35
379.528	116.73
379.738	75.77
379.948	30.72
380.158	86.01
380.369	145.41
380.579	77.82
380.789	49.15
380.999	65.54
381.21	18.43
381.42	102.4
381.63	88.06
381.84	100.35
382.05	59.39
382.261	104.45
382.471	141.31
382.681	32.77
382.891	149.5
383.101	165.89
383.311	61.44
383.521	133.12
383.731	108.54
383.941	157.69
384.151	129.02
384.361	43.01
384.571	124.93
384.781	88.06
384.991	153.6
385.201	98.3
385.411	122.88
385.621	110.59
385.831	116.73
386.041	86.01
386.251	47.1
386.461	112.64
386.671	110.59
386.881	108.54
387.091	63.49
387.301	118.78
387.511	51.2
387.72	110.59
387.93	67.58
388.14	106.49
388.35	18.43
388.56	81.92
388.769	129.02
388.979	100.35
389.189	98.3
389.399	-2.05
389.609	112.64
389.818	149.5
390.028	10.24
390.238	100.35
390.447	10.24
390.657	53.25
390.867	131.07
391.076	36.86
391.286	110.59
391.496	75.77
391.705	153.6
391.915	94.21
392.125	143.36
392.334	-40.96
392.544	110.59
392.753	143.36
392.963	116.73
393.172	79.87
393.382	126.97
393.591	180.22
393.801	47.1
394.01	165.89
394.22	194.56
394.429	143.36
394.639	63.49
394.848	100.35
395.058	157.69
395.267	108.54
395.477	198.65
395.686	77.82
395.895	137.21
396.105	92.16
396.314	190.46
396.524	120.83
396.733	108.54
396.942	149.5
397.152	159.74
397.361	124.93
397.57	137.21
397.78	157.69
397.989	204.8
398.198	194.56
398.407	149.5
398.617	178.17
398.826	174.08
399.035	165.89
399.244	182.27
399.453	167.93
399.663	208.89
399.872	212.99
400.081	112.64
400.29	151.55
400.499	206.84
400.708	223.23
400.917	159.74
401.127	165.89
401.336	167.93
401.545	280.57
401.754	149.5
401.963	243.71
402.172	151.55
402.381	184.32
402.59	198.65
402.799	256
403.008	208.89
403.217	204.8
403.426	182.27
403.635	157.69
403.844	178.17
404.053	182.27
404.262	247.8
404.471	258.04
404.68	235.52
404.888	219.13
405.097	198.65
405.306	270.33
405.515	315.39
405.724	225.28
405.933	346.11
406.142	299
406.35	323.58
406.559	305.15
406.768	333.82
406.977	346.11
407.185	346.11
407.394	364.54
407.603	321.53
407.812	337.91
408.02	352.25
408.229	321.53
408.438	419.83
408.646	358.39
408.855	419.83
409.064	452.6
409.272	436.22
409.481	438.27
409.69	428.03
409.898	444.41
410.107	514.04
410.315	444.41
410.524	403.45
410.733	518.14
410.941	540.66
411.15	591.86
411.358	641.01
411.567	655.35
411.775	651.25
411.984	684.02
412.192	757.75
412.401	698.36
412.609	790.52
412.818	864.24
413.026	874.48
413.234	911.35
413.443	878.58
413.651	886.77
413.86	808.95
414.068	1023.98
414.276	958.45
414.485	964.59
414.693	962.55
414.901	1159.15
415.11	1234.93
415.318	1101.81
415.526	1066.99
415.734	1228.78
415.943	1226.73
416.151	1282.03
416.359	1341.42
416.567	1421.29
416.776	1368.04
416.984	1501.16
417.192	1611.75
417.4	1550.31
417.608	1609.7
417.817	1601.51
418.025	1853.41
418.233	1861.6
418.441	1953.76
418.649	1961.95
418.857	2004.96
419.065	2148.32
419.273	2029.54
419.481	2181.09
419.689	2418.65
419.897	2367.45
420.105	2353.12
420.313	2465.75
420.521	2639.83
420.729	2715.61
420.937	2688.98
421.145	2887.64
421.353	2910.16
421.561	2987.99
421.769	3190.74
421.977	3352.52
422.185	3282.89
422.393	3592.14
422.601	3600.33
422.809	3639.24
423.017	3661.77
423.224	3862.47
423.432	4069.31
423.64	3944.39
423.848	4446.14
424.056	4280.25
424.263	4564.92
424.471	4708.28
424.679	4657.08
424.887	4990.9
425.094	5134.26
425.302	5117.87
425.51	5406.64
425.718	5527.47
425.925	5558.19
426.133	5769.13
426.341	6018.98
426.548	6344.61
426.756	6416.29
426.964	6447.01
427.171	6817.69
427.379	6903.7
427.586	7026.58
427.794	7270.29
428.001	7655.31
428.209	8062.85
428.417	7630.73
428.624	8548.22
428.832	8263.55
429.039	8384.38
429.247	8277.89
429.454	9107.32
429.662	9643.88
429.869	9078.65
430.076	9686.89
430.284	9586.54
430.491	10024.81
430.699	10530.66
430.906	10407.78
431.114	10536.8
431.321	10946.39
431.528	11431.76
431.736	11741
431.943	12578.62
432.15	12005.19
432.358	11890.51
432.565	12957.5
432.772	12764.99
432.979	13514.55
433.187	13674.29
433.394	14018.35
433.601	14634.78
433.808	14739.23
434.016	14739.23
434.223	15140.63
434.43	15949.58
434.637	15847.18
434.844	16815.87
435.052	17262.33
435.259	17198.84
435.466	16992
435.673	17069.82
435.88	18290.41
436.087	19207.9
436.294	18919.14
436.501	18613.99
436.708	19093.21
436.915	19609.3
437.122	20750.02
437.329	20487.88
437.537	21214.91
437.743	21520.06
437.95	21049.02
438.157	22286
438.364	23086.75
438.571	22945.44
438.778	23246.49
438.985	25075.33
439.192	24172.18
439.399	25386.62
439.606	24698.5
439.813	26132.08
440.02	27416.16
440.227	27123.3
440.433	26648.17
440.64	27561.56
440.847	27534.94
441.054	28067.41
441.261	30316.08
441.467	29589.05
441.674	30099
441.881	31331.87
442.088	31260.2
442.294	30959.14
442.501	31622.69
442.708	32628.24
442.914	33451.52
443.121	34631.15
443.328	34035.19
443.534	36126.17
443.741	35409.38
443.948	34954.73
444.154	37389.77
444.361	37313.99
444.568	37461.44
444.774	37244.36
444.981	38051.26
445.187	38268.34
445.394	40451.48
445.6	40091.04
445.807	43832.68
446.013	41751.94
446.22	42493.3
446.426	44164.45
446.633	44455.26
446.839	46198.08
447.046	43836.77
447.252	46515.51
447.459	46447.93
447.665	46388.54
447.871	48282.91
448.078	50283.78
448.284	47994.15
448.491	49163.54
448.697	50822.39
448.903	51242.23
449.11	51827.95
449.316	51504.37
449.522	52210.92
449.728	53454.03
449.935	52937.94
450.141	53599.44
450.347	54809.79
450.553	52868.31
450.76	53845.19
450.966	55196.85
451.172	54955.19
451.378	56751.26
451.584	55325.88
451.791	56364.2
451.997	56439.97
452.203	56888.48
452.409	57101.46
452.615	56868
452.821	55020.73
453.027	53966.02
453.233	57177.24
453.44	54924.47
453.646	55571.63
453.852	55626.93
454.058	56712.35
454.264	54678.72
454.47	55784.62
454.676	54387.91
454.882	56122.54
455.088	51494.13
455.294	52100.32
455.5	53443.79
455.705	53398.74
455.911	51625.2
456.117	50265.34
456.323	50330.88
456.529	47275.31
456.735	49321.23
456.941	47795.49
457.147	47109.43
457.352	45727.05
457.558	45419.85
457.764	45395.28
457.97	44496.22
458.176	43947.36
458.381	43543.91
458.587	41780.61
458.793	41688.45
458.999	39421.35
459.204	42052.99
459.41	41268.62
459.616	38518.2
459.821	38598.07
460.027	38630.83
460.233	37619.14
460.438	36011.48
460.644	36269.53
460.85	34551.28
461.055	33652.22
461.261	34076.15
461.466	31559.2
461.672	30340.66
461.878	32476.69
462.083	30461.49
462.289	29853.24
462.494	29621.82
462.7	28550.73
462.905	27735.64
463.111	28800.58
463.316	28663.37
463.522	28032.6
463.727	28223.06
463.932	28290.64
464.138	28102.23
464.343	28016.21
464.549	27022.95
464.754	27893.33
464.959	27940.44
465.165	27516.51
465.37	26480.24
465.575	25849.46
465.781	26752.62
465.986	26773.1
466.191	25953.91
466.397	25525.88
466.602	24129.17
466.807	25091.71
467.012	25314.94
467.218	25017.99
467.423	24915.59
467.628	25024.13
467.833	26113.65
468.038	24829.57
468.244	23983.76
468.449	25104
468.654	24321.68
468.859	24272.53
469.064	24196.75
469.269	22816.42
469.474	23469.72
469.679	23703.19
469.885	23013.02
470.09	23586.46
470.295	23074.46
470.5	22828.71
470.705	22834.85
470.91	22292.14
471.115	22251.18
471.32	22333.1
471.525	22267.56
471.73	21720.76
471.935	21612.21
472.139	20954.82
472.344	21141.18
472.549	20766.4
472.754	20909.76
472.959	20336.33
473.164	20178.64
473.369	19697.36
473.574	19945.17
473.778	20121.29
473.983	19842.77
474.188	19965.65
474.393	19171.04
474.598	19224.28
474.802	19050.21
475.007	18607.84
475.212	18788.07
475.417	18077.42
475.621	17995.5
475.826	18482.92
476.031	17905.39
476.235	17286.9
476.44	18102
476.645	17313.53
476.849	17639.15
477.054	17288.95
477.259	17149.69
477.463	17112.83
477.668	16762.62
477.872	16852.73
478.077	16561.92
478.282	16156.43
478.486	15701.78
478.691	15816.46
478.895	15914.77
479.1	15599.38
479.304	15941.39
479.509	15390.49
479.713	15644.43
479.918	15302.42
480.122	15087.39
480.326	15296.28
480.531	15351.57
480.735	15255.32
480.94	15038.23
481.144	15548.18
481.348	14602.02
481.553	15140.63
481.757	14606.11
481.961	14683.94
482.166	14952.22
482.37	14843.68
482.574	14655.26
482.778	14743.33
482.983	14997.28
483.187	14849.82
483.391	14575.39
483.595	14634.78
483.8	14530.34
484.004	14880.54
484.208	14894.88
484.412	14874.4
484.616	14929.69
484.821	14561.06
485.025	14743.33
485.229	14661.41
485.433	14743.33
485.637	14855.97
485.841	14624.54
486.045	14346.02
486.249	14829.34
486.453	14636.83
486.657	14454.56
486.861	14792.48
487.065	14673.7
487.269	14804.77
487.473	14239.53
487.677	14939.93
487.881	14976.8
488.085	14710.56
488.289	14661.41
488.493	14636.83
488.697	14716.7
488.901	14784.29
489.105	14610.21
489.309	14843.68
489.512	14823.2
489.716	14913.31
489.92	14874.4
490.124	14921.5
490.328	15025.95
490.531	14872.35
490.735	14929.69
490.939	14905.12
491.143	14794.53
491.346	15095.58
491.55	15275.8
491.754	15386.39
491.958	15427.35
492.161	15370.01
492.365	15167.26
492.569	15308.57
492.772	15447.83
492.976	15413.01
493.18	15654.67
493.383	15761.17
493.587	16039.69
493.79	15855.37
493.994	15730.45
494.197	15812.37
494.401	16232.2
494.605	16385.8
494.808	16545.54
495.012	16346.89
495.215	16609.03
495.419	16557.83
495.622	16795.39
495.825	16815.87
496.029	16711.42
496.232	17000.19
496.436	17213.18
496.639	17655.54
496.843	17288.95
497.046	17639.15
497.249	18259.69
497.453	17802.99
497.656	18446.05
497.859	18360.04
498.063	18429.67
498.266	18743.01
498.469	18747.11
498.673	19095.26
498.876	19410.65
499.079	19554.01
499.282	19384.02
499.485	19955.41
499.689	20100.81
499.892	20465.35
500.095	20395.72
500.298	20821.7
500.501	20614.85
500.705	21071.55
500.908	21313.21
501.111	21550.78
501.314	21731
501.517	21911.22
501.72	22312.62
501.923	22251.18
502.126	22496.94
502.329	23146.14
502.532	22951.59
502.735	22945.44
502.938	23758.49
503.141	24026.77
503.344	23914.13
503.547	24161.94
503.75	24323.72
503.953	24567.43
504.156	24800.9
504.359	25007.75
504.562	25243.26
504.765	25601.66
504.968	26175.09
505.17	26211.95
505.373	26556.01
505.576	26795.62
505.779	26988.13
505.982	27045.48
506.185	27614.81
506.387	27876.95
506.59	28024.4
506.793	28677.71
506.996	28509.77
507.198	29095.49
507.401	28804.68
507.604	29161.03
507.807	29892.15
508.009	29924.92
508.212	29998.65
508.415	30862.89
508.617	30604.85
508.82	31065.64
509.022	31036.97
509.225	31520.29
509.428	31850.01
509.63	32069.14
509.833	32620.05
510.035	32626.19
510.238	33080.84
510.44	33502.72
510.643	33922.55
510.845	33818.11
511.048	33834.49
511.25	34530.8
511.453	34899.44
511.655	36091.35
511.858	35669.47
512.06	35800.54
512.262	36113.88
512.465	36238.81
512.667	36457.94
512.87	36896.2
513.072	37121.48
513.274	37893.57
513.477	38059.45
513.679	38368.69
513.881	38837.68
514.084	38815.15
514.286	39034.28
514.488	39398.82
514.69	40336.79
514.893	40435.09
515.095	40623.51
515.297	40992.14
515.499	40807.83
515.701	41629.06
515.904	41713.03
516.106	42370.43
516.308	42564.98
516.51	42970.48
516.712	42933.62
516.914	43548.01
517.116	44174.69
517.318	43998.56
517.52	44346.72
517.722	44537.18
517.925	45325.64
518.127	45266.25
518.329	45776.2
518.531	45593.93
518.733	46353.72
518.935	46585.15
519.136	46703.93
519.338	47496.49
519.54	47625.51
519.742	47779.11
519.944	47824.17
520.146	48598.3
520.348	48796.95
520.55	48704.79
520.752	49091.86
520.954	49935.62
521.155	49427.73
521.357	50044.16
521.559	50322.69
521.761	51234.03
521.963	50552.06
522.164	50877.69
522.366	51264.75
522.568	51584.24
522.77	51864.81
522.971	52813.02
523.173	51852.52
523.375	52497.63
523.576	52321.51
523.778	52237.54
523.98	52722.91
524.181	52853.98
524.383	52911.32
524.584	53595.34
524.786	53664.97
524.988	53679.31
525.189	54115.53
525.391	54361.28
525.592	54385.86
525.794	54326.47
525.995	54680.77
526.197	54437.06
526.398	54613.18
526.6	54932.67
526.801	55229.62
527.003	55366.84
527.204	54959.29
527.406	56077.48
527.607	55295.16
527.808	55663.79
528.01	54914.23
528.211	55317.68
528.412	56458.4
528.614	55860.4
528.815	55667.89
529.016	56306.85
529.218	55661.74
529.419	55770.28
529.62	55721.13
529.822	55860.4
530.023	55852.2
530.224	55997.61
530.425	55792.81
530.626	55688.37
530.828	55340.21
531.029	56620.19
531.23	55995.56
531.431	55985.32
531.632	56229.03
531.833	56321.19
532.035	55860.4
532.236	55952.55
532.437	56282.28
532.638	56032.42
532.839	56106.15
533.04	56136.87
533.241	55817.39
533.442	56581.28
533.643	56112.3
533.844	56040.62
534.045	56204.45
534.246	55565.49
534.447	56243.37
534.648	55440.56
534.849	55844.01
535.05	55665.84
535.251	56253.61
535.451	55751.85
535.652	56163.49
535.853	55985.32
536.054	56118.44
536.255	55755.95
536.456	55565.49
536.657	56409.25
536.857	55334.07
537.058	55229.62
537.259	56083.62
537.46	55680.17
537.66	55477.43
537.861	55211.19
538.062	55649.45
538.263	55749.81
538.463	55436.47
538.664	55768.24
538.865	55317.68
539.065	55370.93
539.266	54981.82
539.466	55499.95
539.667	55286.96
539.868	55786.67
540.068	55172.28
540.269	55415.99
540.469	55592.11
540.67	54992.06
540.87	55030.97
541.071	55229.62
541.271	55366.84
541.472	55370.93
541.672	54822.08
541.873	54820.03
542.073	54181.06
542.274	55475.38
542.474	55375.03
542.675	54531.26
542.875	54996.15
543.075	54885.56
543.276	54312.13
543.476	55450.8
543.676	54899.9
543.877	54525.12
544.077	54656.19
544.277	54324.42
544.478	54768.83
544.678	54899.9
544.878	54484.16
545.078	55155.89
545.279	54656.19
545.479	54729.92
545.679	54637.76
545.879	54715.58
546.079	54858.94
546.28	54363.33
546.48	54326.47
546.68	54875.32
546.88	54574.27
547.08	55078.07
547.28	54965.43
547.48	54285.51
547.68	54580.42
547.88	54457.54
548.081	54947
548.281	54648
548.481	54844.6
548.681	54783.16
548.881	54811.84
549.081	54383.81
549.28	54529.22
549.48	54947
549.68	54854.84
549.88	54901.95
550.08	54400.19
550.28	54828.22
550.48	54639.81
550.68	54930.62
550.88	54324.42
551.08	54596.8
551.279	54924.47
551.479	54475.97
551.679	54926.52
551.879	54570.18
552.079	54658.24
552.278	54424.77
552.478	54844.6
552.678	54795.45
552.878	55207.09
553.077	54994.1
553.277	54566.08
553.477	54873.27
553.676	54727.87
553.876	54629.57
554.076	54678.72
554.275	54279.36
554.475	54394.05
554.674	55309.49
554.874	54625.47
555.074	54969.53
555.273	54721.72
555.473	54654.14
555.672	54301.89
555.872	54584.51
556.071	54475.97
556.271	54963.39
556.47	54381.76
556.67	54025.42
556.869	54549.7
557.068	54828.22
557.268	54467.78
557.467	54258.88
557.667	54824.12
557.866	54465.73
558.065	54582.46
558.265	54156.49
558.464	54396.1
558.663	54840.51
558.863	54324.42
559.062	54686.91
559.261	54275.27
559.461	55125.17
559.66	53982.41
559.859	54523.07
560.058	54414.53
560.258	54197.44
560.457	53857.48
560.656	54607.04
560.855	54179.01
561.054	54609.09
561.253	54262.98
561.453	54705.34
561.652	54334.66
561.851	54441.15
562.05	54140.1
562.249	53753.04
562.448	54693.05
562.647	54107.33
562.846	54109.38
563.045	54361.28
563.244	53859.53
563.443	54383.81
563.642	53710.03
563.841	53966.02
564.04	53929.16
564.239	54336.71
564.438	54021.32
564.637	54443.2
564.836	54097.09
565.035	53394.64
565.234	53927.11
565.432	53501.14
565.631	53134.55
565.83	53570.77
566.029	53425.36
566.228	53423.31
566.427	53165.27
566.625	53066.97
566.824	53046.49
567.023	53421.26
567.222	52655.32
567.42	53341.39
567.619	53089.49
567.818	52819.16
568.016	52944.09
568.215	53193.94
568.414	52829.4
568.612	53400.79
568.811	52612.32
569.01	52647.13
569.208	52131.04
569.407	52548.83
569.605	52278.5
569.804	52901.08
570.002	52135.14
570.201	52534.49
570.4	52008.17
570.598	51629.29
570.797	51668.2
570.995	52024.55
571.193	50986.23
571.392	51965.16
571.59	51459.31
571.789	51248.37
571.987	51358.96
572.186	51344.62
572.384	51199.22
572.582	51518.7
572.781	51434.74
572.979	50611.45
573.177	51066.1
573.376	50849.02
573.574	50507.01
573.772	51164.4
573.971	50515.2
574.169	50093.32
574.367	50072.84
574.565	50509.05
574.763	50156.8
574.962	50113.8
575.16	49915.14
575.358	50011.4
575.556	49622.28
575.754	50373.89
575.952	49198.35
576.151	49843.46
576.349	49286.42
576.547	49200.4
576.745	49061.14
576.943	49382.67
577.141	49153.3
577.339	49151.25
577.537	48930.07
577.735	48784.66
577.933	48768.28
578.131	48805.14
578.329	48270.62
578.527	48022.82
578.725	48016.68
578.923	48502.04
579.121	47867.17
579.319	47850.79
579.516	48004.39
579.714	47879.46
579.912	47715.62
580.11	47519.02
580.308	47547.69
580.506	47625.51
580.704	46923.06
580.901	47267.12
581.099	47648.04
581.297	47088.95
581.495	46828.85
581.692	47275.31
581.89	46806.33
582.088	47226.16
582.285	46439.74
582.483	46728.5
582.681	46572.86
582.878	46290.24
583.076	45978.95
583.274	46607.67
583.471	45833.54
583.669	45829.44
583.866	45387.08
584.064	45890.88
584.262	45579.59
584.459	45514.06
584.657	45321.55
584.854	45671.75
585.052	44873.04
585.249	45274.45
585.447	45448.52
585.644	44717.4
585.841	45280.59
586.039	44932.43
586.236	44229.98
586.434	44471.64
586.631	44086.62
586.828	44516.7
587.026	44522.84
587.223	44242.27
587.42	43957.6
587.618	43951.46
587.815	43656.55
588.012	43695.46
588.21	43519.34
588.407	43826.53
588.604	43896.16
588.801	43507.05
588.999	42966.38
589.196	43281.77
589.393	43629.93
589.59	42806.64
589.787	42831.22
589.984	42702.2
590.182	42356.09
590.379	42759.54
590.576	42442.1
590.773	42446.2
590.97	42655.09
591.167	42333.56
591.364	41713.03
591.561	42368.38
591.758	41903.49
591.955	42261.88
592.152	42278.27
592.349	41598.34
592.546	42114.43
592.743	41381.26
592.94	41055.63
593.137	41639.3
593.334	41461.13
593.531	40875.41
593.727	41346.44
593.924	41471.37
594.121	40584.6
594.318	41145.74
594.515	40449.43
594.712	41606.53
594.908	40656.28
595.105	40996.24
595.302	40564.12
595.499	40484.25
595.696	40641.94
595.892	40588.69
596.089	40592.79
596.286	40461.72
596.482	40371.61
596.679	40080.8
596.876	39824.8
597.072	39900.58
597.269	39945.63
597.466	39566.76
597.662	39787.94
597.859	39527.84
598.055	39542.18
598.252	39507.37
598.448	39599.52
598.645	39589.28
598.841	39007.66
599.038	39247.27
599.234	39239.08
599.431	38868.4
599.627	39239.08
599.824	39200.17
600.02	39058.86
600.217	39001.52
600.413	38907.31
600.609	38743.47
600.806	38333.88
601.002	38696.37
601.198	38417.85
601.395	38483.38
601.591	38421.94
601.787	38278.58
601.984	38264.25
602.18	38688.18
602.376	38182.33
602.572	38016.44
602.769	38309.3
602.965	37828.03
603.161	38047.16
603.357	38315.45
603.553	38096.31
603.75	37375.43
603.946	37899.71
604.142	38051.26
604.338	37545.41
604.534	37461.44
604.73	37217.74
604.926	37615.04
605.122	37690.82
605.318	37647.81
605.514	37582.27
605.71	37385.67
605.906	37440.96
606.102	37449.16
606.298	37789.12
606.494	37449.16
606.69	37377.48
606.886	37582.27
607.082	36988.36
607.278	37631.43
607.474	36691.41
607.67	37395.91
607.866	36804.05
608.062	37488.07
608.257	37144.01
608.453	37330.37
608.649	37225.93
608.845	36810.19
609.041	36992.46
609.236	37258.7
609.432	37082.57
609.628	37273.03
609.824	36943.31
610.019	37068.23
610.215	37223.88
610.411	37039.56
610.606	36922.83
610.802	36974.03
610.998	36904.4
611.193	37223.88
611.389	37047.75
611.584	36697.55
611.78	36769.23
611.976	36822.48
612.171	36918.73
612.367	36992.46
612.562	36681.17
612.758	36345.3
612.953	36599.25
613.149	37129.67
613.344	36247
613.539	36570.58
613.735	37014.99
613.93	36640.21
614.126	36580.82
614.321	36523.47
614.517	36707.79
614.712	36646.35
614.907	36343.25
615.103	36406.74
615.298	36558.29
615.493	36816.33
615.688	36472.28
615.884	36816.33
616.079	35972.57
616.274	36257.24
616.47	36412.88
616.665	36232.66
616.86	36206.04
617.055	36009.43
617.25	35849.69
617.445	36070.87
617.641	35321.32
617.836	36017.63
618.031	35618.27
618.226	35997.15
618.421	35784.16
618.616	36050.39
618.811	35444.2
619.006	35784.16
619.201	34668.01
619.396	35241.45
619.591	34692.59
619.786	34883.05
619.981	34698.73
620.176	34987.5
620.371	34479.6
620.566	34549.23
620.761	34334.2
620.956	34586.1
621.151	34313.72
621.346	34012.66
621.541	34004.47
621.735	33922.55
621.93	33656.32
622.125	33723.9
622.32	32859.66
622.515	33627.65
622.709	32937.48
622.904	32941.58
623.099	32783.88
623.294	33000.97
623.488	32419.35
623.683	32544.27
623.878	32132.63
624.072	32288.28
624.267	32275.99
624.462	31639.07
624.656	31491.62
624.851	31710.75
625.046	31190.56
625.24	31157.8
625.435	30875.18
625.629	31311.39
625.824	30615.08
626.018	30760.49
626.213	30002.74
626.407	30373.42
626.602	30062.13
626.796	30232.11
626.991	30074.42
627.185	29898.3
627.38	29249.09
627.574	29693.5
627.768	28980.81
627.963	29144.64
628.157	28878.41
628.352	28870.22
628.546	27934.29
628.74	29118.02
628.935	28235.35
629.129	28458.57
629.323	28200.53
629.517	27911.77
629.712	28264.02
629.906	27864.66
630.1	27270.75
630.294	27588.19
630.489	27197.03
630.683	27391.58
630.877	27231.84
631.071	26678.89
631.265	27008.61
631.459	26789.48
631.653	26492.52
631.848	26836.58
632.042	26183.28
632.236	26379.89
632.43	26117.75
632.624	26236.53
632.818	25724.54
633.012	25679.48
633.206	25904.76
633.4	25888.37
633.594	25054.85
633.788	25267.84
633.982	25216.64
634.176	25276.03
634.369	24598.15
634.563	24700.55
634.757	24669.83
634.951	24678.02
635.145	24206.99
635.339	24657.54
635.533	23897.75
635.726	24049.3
635.92	23854.74
636.114	23635.61
636.308	23281.31
636.501	23406.23
636.695	23561.88
636.889	23176.86
637.083	23072.42
637.276	23033.5
637.47	22935.2
637.664	22830.76
637.857	22832.8
638.051	22783.65
638.244	22415.02
638.438	22496.94
638.632	22224.56
638.825	21999.28
639.019	21931.7
639.212	21683.89
639.406	21933.75
639.599	21698.23
639.793	21802.68
639.986	21348.03
640.18	21616.31
640.373	21350.07
640.567	21253.82
640.76	20956.86
640.954	20745.92
641.147	20848.32
641.34	20541.13
641.534	20854.47
641.727	20375.24
641.92	20399.82
642.114	20272.84
642.307	19971.79
642.5	20082.38
642.694	19683.03
642.887	19672.79
643.08	19795.67
643.273	19433.18
643.467	19310.3
643.66	19306.2
643.853	19355.35
644.046	18841.31
644.239	18992.86
644.432	18960.09
644.626	18720.48
644.819	18669.28
645.012	18679.52
645.205	18452.2
645.398	18417.38
645.591	18226.92
645.784	18220.78
645.977	18304.74
646.17	18030.32
646.363	18151.15
646.556	17485.56
646.749	17723.12
646.942	17768.18
647.135	17147.64
647.328	17331.96
647.521	17309.43
647.714	17194.75
647.907	17065.72
648.099	17110.78
648.292	17139.45
648.485	17073.92
648.678	16670.47
648.871	16815.87
649.064	16545.54
649.256	16606.98
649.449	16598.79
649.642	16420.61
649.835	16226.06
650.027	16152.33
650.22	15970.06
650.413	16103.18
650.605	16307.98
650.798	16027.4
650.991	15650.58
651.183	15757.07
651.376	15707.92
651.568	15742.74
651.761	15521.56
651.954	15380.25
652.146	15208.22
652.339	15243.03
652.531	15187.74
652.724	14946.08
652.916	14825.25
653.109	14948.12
653.301	14931.74
653.494	14956.32
653.686	14198.57
653.879	14755.61
654.071	14577.44
654.263	14391.08
654.456	14413.6
654.648	14454.56
654.84	14141.22
655.033	14251.81
655.225	14067.5
655.417	13770.54
655.61	13881.13
655.802	13940.52
655.994	13768.49
656.186	13756.21
656.379	13578.03
656.571	13649.71
656.763	13422.39
656.955	13350.71
657.148	13528.88
657.34	13190.97
657.532	13133.62
657.724	12998.46
657.916	13248.31
658.108	12986.17
658.3	12887.87
658.492	12865.34
658.684	12902.2
658.876	12832.57
659.068	12543.81
659.26	12560.19
659.452	12560.19
659.644	12396.35
659.836	12476.23
660.028	12289.86
660.22	12007.24
660.412	12224.33
660.604	12242.76
660.796	12140.36
660.988	12261.19
661.18	11743.05
661.372	11835.21
661.563	11847.5
661.755	11671.37
661.947	11765.58
662.139	11566.93
662.331	11646.8
662.522	11487.06
662.714	11403.09
662.906	11247.44
663.097	11360.08
663.289	11224.92
663.481	11300.69
663.673	11020.12
663.864	11128.66
664.056	11020.12
664.247	11022.17
664.439	10964.82
664.631	10884.95
664.822	10774.36
665.014	10811.23
665.205	10692.44
665.397	10372.96
665.588	10409.83
665.78	10530.66
665.971	10350.43
666.163	10424.16
666.354	10430.3
666.546	10467.17
666.737	10057.57
666.929	10176.36
667.12	10071.91
667.311	10143.59
667.503	10018.66
667.694	9998.18
667.885	10000.23
668.077	9791.34
668.268	9766.76
668.459	9838.44
668.651	9740.14
668.842	9637.74
669.033	9742.19
669.224	9566.06
669.416	9758.57
669.607	9738.09
669.798	9463.66
669.989	9404.27
670.18	9451.38
670.371	9342.83
670.563	9373.55
670.754	9271.15
670.945	9131.89
671.136	9176.95
671.327	9103.22
671.518	8857.46
671.709	9017.21
671.9	9117.56
672.091	8949.62
672.282	9070.45
672.473	8753.02
672.664	8925.05
672.855	8826.75
673.046	8836.99
673.237	8761.21
673.428	8908.66
673.619	8615.8
673.809	8683.39
674	8562.56
674.191	8558.46
674.382	8550.27
674.573	8511.36
674.764	8296.32
674.954	8542.08
675.145	8310.66
675.336	8466.3
675.527	8318.85
675.717	8392.58
675.908	8261.51
676.099	8238.98
676.289	8232.83
676.48	8138.63
676.671	8124.29
676.861	8116.1
677.052	7851.91
677.243	8128.39
677.433	7944.07
677.624	8079.24
677.814	8015.75
678.005	8075.14
678.195	8013.7
678.386	7915.4
678.576	7788.43
678.767	7731.08
678.957	7821.19
679.148	7741.32
679.338	7851.91
679.529	7808.9
679.719	7720.84
679.909	7849.86
680.1	7673.74
680.29	7647.12
680.481	7780.23
680.671	7526.29
680.861	7534.48
681.052	7524.24
681.242	7557
681.432	7608.2
681.622	7479.18
681.813	7427.98
682.003	7483.28
682.193	7190.42
682.383	7339.92
682.573	7454.61
682.764	7399.31
682.954	7448.46
683.144	7470.99
683.334	7323.54
683.524	7313.3
683.714	7290.77
683.904	7081.88
684.094	7350.16
684.284	7206.8
684.474	7210.9
684.664	7153.55
684.854	6989.72
685.044	6999.96
685.234	7135.12
685.424	7067.54
685.614	6928.28
685.804	7090.07
685.994	6877.08
686.184	6983.57
686.374	6840.22
686.564	6829.98
686.753	6791.06
686.943	6762.39
687.133	6776.73
687.323	6715.29
687.513	6940.57
687.702	6600.6
687.892	6590.36
688.082	6641.56
688.272	6467.49
688.461	6410.14
688.651	6752.15
688.841	6571.93
689.03	6592.41
689.22	6514.59
689.41	6313.89
689.599	6457.25
689.789	6367.13
689.979	6424.48
690.168	6332.32
690.358	6285.22
690.547	6360.99
690.737	6221.73
690.926	6320.03
691.116	6203.3
691.305	6186.91
691.495	6174.63
691.684	6156.19
691.874	6080.42
692.063	6164.39
692.252	6051.75
692.442	6098.85
692.631	6006.69
692.82	6150.05
693.01	5932.97
693.199	5990.31
693.388	5728.17
693.578	5945.25
693.767	5910.44
693.956	5918.63
694.146	5844.9
694.335	5838.76
694.524	5826.47
694.713	5726.12
694.902	5687.21
695.092	5636.01
695.281	5674.92
695.47	5812.14
695.659	5613.48
695.848	5666.73
696.037	5664.68
696.226	5705.64
696.415	5482.41
696.604	5676.97
696.793	5418.93
696.982	5281.71
697.171	5390.25
697.36	5582.76
697.549	5246.9
697.738	5515.18
697.927	5337.01
698.116	5330.86
698.305	5337.01
698.494	5261.23
698.683	5294
698.872	5263.28
699.061	5240.75
699.25	5273.52
699.438	5164.98
699.627	5191.6
699.816	5212.08
700.005	5236.66
700.193	5117.87
700.382	5017.52
700.571	5081.01
700.76	5078.96
700.948	5169.07
701.137	4999.09
701.326	4992.95
701.514	5074.87
701.703	5087.15
701.892	4945.84
702.08	5021.62
702.269	4939.7
702.457	4849.59
702.646	4913.08
702.834	4728.76
703.023	4798.39
703.212	4818.87
703.4	4851.64
703.589	4829.11
703.777	4712.38
703.965	4638.65
704.154	4882.36
704.342	4673.46
704.531	4663.22
704.719	4612.03
704.907	4773.82
705.096	4636.6
705.284	4583.35
705.472	4556.73
705.661	4593.59
705.849	4497.34
706.037	4642.75
706.226	4515.77
706.414	4614.07
706.602	4444.09
706.79	4614.07
706.979	4351.93
707.167	4419.52
707.355	4339.65
707.543	4417.47
707.731	4368.32
707.919	4351.93
708.107	4331.45
708.296	4278.21
708.484	4245.44
708.672	4302.78
708.86	4190.14
709.048	4294.59
709.236	4196.29
709.424	4243.39
709.612	4294.59
709.8	4057.03
709.988	4274.11
710.176	4159.42
710.364	4108.23
710.551	3985.35
710.739	3950.53
710.927	4159.42
711.115	3999.68
711.303	4048.83
711.491	4034.5
711.679	3975.11
711.866	3913.67
712.054	3960.77
712.242	3936.2
712.43	4052.93
712.617	3934.15
712.805	3942.34
712.993	3811.27
713.181	3880.9
713.368	3958.72
713.556	3692.49
713.744	3680.2
713.931	3893.19
714.119	3657.67
714.306	3770.31
714.494	3803.08
714.682	3704.78
714.869	3674.06
715.057	3735.49
715.244	3633.1
715.432	3594.19
715.619	3672.01
715.807	3688.39
715.994	3645.38
716.182	3635.14
716.369	3608.52
716.556	3672.01
716.744	3581.9
716.931	3559.37
717.119	3518.41
717.306	3499.98
717.493	3446.73
717.681	3420.11
717.868	3444.68
718.055	3532.75
718.242	3549.13
718.43	3385.29
718.617	3504.07
718.804	3274.7
718.991	3280.85
719.179	3360.72
719.366	3282.89
719.553	3348.43
719.74	3354.57
719.927	3295.18
720.114	3401.68
720.301	3293.13
720.488	3282.89
720.676	3262.41
720.863	3217.36
721.05	3295.18
721.237	3241.93
721.424	3211.22
721.611	3266.51
721.798	3053.52
721.985	3123.15
722.172	3065.81
722.358	3125.2
722.545	3106.77
722.732	3219.41
722.919	3078.1
723.106	3119.06
723.293	3004.37
723.48	3147.73
723.667	3016.66
723.853	2971.6
724.04	3078.1
724.227	3037.14
724.414	2957.27
724.6	2910.16
724.787	3000.27
724.974	2969.55
725.161	3098.58
725.347	2877.4
725.534	2879.44
725.72	2951.12
725.907	2959.31
726.094	2873.3
726.28	2852.82
726.467	2813.91
726.653	2869.2
726.84	2850.77
727.027	2861.01
727.213	2828.24
727.4	2899.92
727.586	2840.53
727.773	2688.98
727.959	2699.22
728.145	2803.67
728.332	2830.29
728.518	2770.9
728.705	2760.66
728.891	2709.46
729.077	2633.69
729.264	2707.41
729.45	2738.13
729.636	2676.7
729.823	2672.6
730.009	2709.46
730.195	2619.35
730.382	2588.63
730.568	2598.87
730.754	2617.3
730.94	2639.83
731.126	2607.06
731.313	2602.97
731.499	2559.96
731.685	2557.91
731.871	2519
732.057	2705.37
732.243	2584.54
732.429	2699.22
732.615	2549.72
732.801	2648.02
732.987	2531.29
733.173	2510.81
733.359	2535.39
733.545	2519
733.731	2527.19
733.917	2484.19
734.103	2480.09
734.289	2521.05
734.475	2387.93
734.661	2447.32
734.847	2396.12
735.033	2342.88
735.219	2475.99
735.404	2504.67
735.59	2418.65
735.776	2490.33
735.962	2392.03
736.148	2385.88
736.333	2353.12
736.519	2387.93
736.705	2480.09
736.89	2314.2
737.076	2342.88
737.262	2285.53
737.447	2301.92
737.633	2263.01
737.819	2254.81
738.004	2189.28
738.19	2320.35
738.375	2238.43
738.561	2215.9
738.747	2150.37
738.932	2156.51
739.118	2254.81
739.303	2269.15
739.489	2256.86
739.674	2064.35
739.859	2220
740.045	2144.22
740.23	2146.27
740.416	2150.37
740.601	2193.37
740.786	2131.94
740.972	2172.89
741.157	2142.18
741.342	2183.13
741.528	2107.36
741.713	2086.88
741.898	2090.98
742.084	2054.11
742.269	2056.16
742.454	2109.41
742.639	2066.4
742.824	2084.83
743.01	1945.57
743.195	2074.59
743.38	1959.91
743.565	2050.02
743.75	1877.99
743.935	2017.25
744.12	1970.15
744.305	1894.37
744.49	1898.47
744.675	1877.99
744.86	1974.24
745.045	1955.81
745.23	1812.45
745.415	1933.28
745.6	1877.99
745.785	1847.27
745.97	1865.7
746.155	1898.47
746.34	1740.77
746.525	1837.03
746.71	1896.42
746.895	1832.93
747.079	1730.53
747.264	1697.77
747.449	1804.26
747.634	1767.4
747.819	1869.8
748.003	1705.96
748.188	1609.7
748.373	1771.49
748.557	1699.81
748.742	1722.34
748.927	1615.85
749.111	1701.86
749.296	1665
749.481	1632.23
749.665	1589.22
749.85	1638.38
750.034	1619.94
750.219	1648.61
750.404	1583.08
750.588	1544.17
750.773	1613.8
750.957	1480.68
751.141	1550.31
751.326	1605.61
751.51	1460.2
751.695	1476.59
751.879	1443.82
752.064	1531.88
752.248	1525.74
752.432	1566.7
752.617	1458.15
752.801	1517.54
752.985	1325.04
753.17	1568.74
753.354	1437.67
753.538	1331.18
753.722	1361.9
753.907	1341.42
754.091	1435.63
754.275	1361.9
754.459	1339.37
754.643	1312.75
754.828	1286.12
755.012	1263.6
755.196	1292.27
755.38	1327.08
755.564	1333.23
755.748	1230.83
755.932	1279.98
756.116	1247.21
756.3	1288.17
756.484	1279.98
756.668	1298.41
756.852	1239.02
757.036	1222.64
757.22	1198.06
757.404	1279.98
757.588	1230.83
757.772	1177.58
757.956	1210.35
758.14	1157.1
758.323	1142.77
758.507	1218.54
758.691	1112.05
758.875	1189.87
759.059	1193.97
759.242	1132.53
759.426	1243.12
759.61	1183.73
759.794	1097.71
759.977	1124.33
760.161	1206.25
760.345	1101.81
760.528	1085.42
760.712	1073.14
760.895	1110
761.079	1005.55
761.263	1042.42
761.446	1030.13
761.63	978.93
761.813	1177.58
761.997	1038.32
762.18	1099.76
762.364	1001.46
762.547	937.97
762.731	1028.08
762.914	962.55
763.098	1034.22
763.281	1015.79
763.464	987.12
763.648	1001.46
763.831	1007.6
764.015	989.17
764.198	1028.08
764.381	1083.38
764.564	1083.38
764.748	972.79
764.931	1011.7
765.114	972.79
765.297	1050.61
765.481	905.2
765.664	954.35
765.847	915.44
766.03	1093.62
766.213	946.16
766.397	974.83
766.58	950.26
766.763	929.78
766.946	1052.66
767.129	940.02
767.312	940.02
767.495	927.73
767.678	927.73
767.861	894.96
768.044	886.77
768.227	968.69
768.41	931.83
768.593	880.63
768.776	960.5
768.959	911.35
769.142	952.31
769.324	837.62
769.507	937.97
769.69	837.62
769.873	964.59
770.056	952.31
770.239	894.96
770.421	858.1
770.604	890.87
770.787	839.67
770.97	880.63
771.152	765.94
771.335	849.91
771.518	905.2
771.7	931.83
771.883	839.67
772.066	813.04
772.248	880.63
772.431	854
772.613	776.18
772.796	751.6
772.978	864.24
773.161	794.61
773.343	854
773.526	772.08
773.708	772.08
773.891	720.88
774.073	786.42
774.256	802.8
774.438	774.13
774.621	780.28
774.803	790.52
774.985	739.32
775.168	872.43
775.35	772.08
775.532	806.9
775.715	708.6
775.897	829.43
776.079	761.84
776.261	739.32
776.444	708.6
776.626	749.56
776.808	788.47
776.99	684.02
777.173	718.84
777.355	716.79
777.537	673.78
777.719	708.6
777.901	616.44
778.083	626.68
778.265	643.06
778.447	638.97
778.629	669.69
778.811	739.32
778.993	651.25
779.175	763.89
779.357	657.4
779.539	624.63
779.721	649.21
779.903	591.86
780.085	657.4
780.267	628.73
780.449	624.63
780.631	638.97
780.812	632.82
780.994	600.05
781.176	587.77
781.358	579.58
781.54	593.91
781.721	628.73
781.903	638.97
782.085	641.01
782.267	610.29
782.448	507.9
782.63	475.13
782.812	657.4
782.993	647.16
783.175	602.1
783.357	526.33
783.538	534.52
783.72	550.9
783.901	481.27
784.083	505.85
784.264	487.42
784.446	397.31
784.627	432.12
784.809	530.42
784.99	534.52
785.172	530.42
785.353	511.99
785.535	442.36
785.716	473.08
785.897	456.7
786.079	485.37
786.26	544.76
786.441	497.66
786.623	350.2
786.804	518.14
786.985	493.56
787.167	436.22
787.348	378.87
787.529	477.18
787.71	583.67
787.891	489.46
788.073	452.6
788.254	428.03
788.435	544.76
788.616	479.22
788.797	405.5
788.978	374.78
789.159	419.83
789.34	319.48
789.522	395.26
789.703	380.92
789.884	444.41
790.065	456.7
790.246	546.81
790.427	430.07
790.607	403.45
790.788	413.69
790.969	337.91
791.15	438.27
791.331	419.83
791.512	331.77
791.693	366.59
791.874	315.39
792.054	409.59
792.235	360.44
792.416	378.87
792.597	346.11
792.778	358.39
792.958	380.92
793.139	362.49
793.32	378.87
793.5	376.83
793.681	403.45
793.862	387.07
794.042	366.59
794.223	395.26
794.404	299
794.584	321.53
794.765	387.07
794.945	331.77
795.126	380.92
795.306	299
795.487	366.59
795.667	342.01
795.848	296.96
796.028	288.76
796.209	350.2
796.389	362.49
796.57	385.02
796.75	305.15
796.93	292.86
797.111	264.19
797.291	256
797.471	362.49
797.652	305.15
797.832	337.91
798.012	274.43
798.192	239.61
798.373	256
798.553	282.62
798.733	280.57
798.913	208.89
799.093	288.76
799.274	366.59
799.454	313.34
799.634	278.52
799.814	206.84
799.994	266.24
800.174	348.15
800.354	276.48
800.534	235.52
800.714	237.56
800.894	243.71
801.074	227.32
801.254	268.28
801.434	327.68
801.614	182.27
801.794	290.81
801.974	870.39
802.154	256
802.334	249.85
802.514	215.04
802.693	301.05
802.873	221.18
803.053	307.2
803.233	280.57
803.413	288.76
803.592	217.08
803.772	229.37
803.952	182.27
804.131	200.7
804.311	184.32
804.491	239.61
804.67	231.42
804.85	223.23
805.03	253.95
805.209	299
805.389	182.27
805.568	258.04
805.748	241.66
805.928	165.89
806.107	296.96
806.287	231.42
806.466	219.13
806.646	266.24
806.825	223.23
807.004	198.65
807.184	161.79
807.363	174.08
807.543	284.67
807.722	180.22
807.901	233.47
808.081	266.24
808.26	178.17
808.439	210.94
808.619	176.13
808.798	159.74
808.977	247.8
809.156	247.8
809.336	202.75
809.515	210.94
809.694	223.23
809.873	204.8
810.052	215.04
810.231	235.52
810.411	266.24
810.59	200.7
810.769	194.56
810.948	165.89
811.127	184.32
811.306	182.27
811.485	227.32
811.664	270.33
811.843	182.27
812.022	151.55
812.201	194.56
812.38	223.23
812.559	143.36
812.737	235.52
812.916	129.02
813.095	155.65
813.274	184.32
813.453	92.16
813.632	221.18
813.811	215.04
813.989	83.97
814.168	155.65
814.347	198.65
814.526	141.31
814.704	192.51
814.883	159.74
815.062	178.17
815.24	190.46
815.419	178.17
815.598	165.89
815.776	77.82
815.955	184.32
816.133	67.58
816.312	210.94
816.49	233.47
816.669	163.84
816.847	184.32
817.026	149.5
817.204	110.59
817.383	122.88
817.561	79.87
817.74	256
817.918	120.83
818.097	124.93
818.275	118.78
818.453	198.65
818.632	110.59
818.81	149.5
818.988	155.65
819.167	116.73
819.345	100.35
819.523	108.54
819.701	135.17
819.879	108.54
820.058	159.74
820.236	143.36
820.414	141.31
820.592	153.6
820.77	149.5
820.948	198.65
821.127	163.84
821.305	159.74
821.483	83.97
821.661	124.93
821.839	157.69
822.017	143.36
822.195	77.82
822.373	184.32
822.551	77.82
822.729	145.41
822.907	71.68
823.085	135.17
823.262	112.64
823.44	88.06
823.618	90.11
823.796	137.21
823.974	135.17
824.152	86.01
824.329	165.89
824.507	67.58
824.685	157.69
824.863	59.39
825.04	133.12
825.218	102.4
825.396	108.54
825.574	137.21
825.751	200.7
825.929	141.31
826.107	67.58
826.284	26.62
826.462	126.97
826.639	71.68
826.817	63.49
826.994	100.35
827.172	79.87
827.349	143.36
827.527	88.06
827.704	18.43
827.882	141.31
828.059	161.79
828.237	94.21
828.414	106.49
828.591	94.21
828.769	165.89
828.946	110.59
829.124	215.04
829.301	135.17
829.478	116.73
829.655	104.45
829.833	135.17
830.01	81.92
830.187	71.68
830.364	61.44
830.542	135.17
830.719	139.26
830.896	133.12
831.073	190.46
831.25	112.64
831.427	102.4
831.604	141.31
831.782	53.25
831.959	145.41
832.136	129.02
832.313	165.89
832.49	63.49
832.667	174.08
832.844	34.82
833.021	83.97
833.198	153.6
833.374	67.58
833.551	77.82
833.728	92.16
833.905	61.44
834.082	75.77
834.259	55.3
834.436	69.63
834.612	18.43
834.789	118.78
834.966	133.12
835.143	141.31
835.319	75.77
835.496	169.98
835.673	51.2
835.85	94.21
836.026	145.41
836.203	167.93
836.38	45.06
836.556	34.82
836.733	55.3
836.909	145.41
837.086	71.68
837.262	75.77
837.439	59.39
837.616	149.5
837.792	71.68
837.968	61.44
838.145	12.29
838.321	0
838.498	16.38
838.674	88.06
838.851	100.35
839.027	6.14
839.203	110.59
839.38	77.82
839.556	59.39
839.732	102.4
839.909	141.31
840.085	96.25
840.261	75.77
840.437	110.59
840.614	83.97
840.79	92.16
840.966	86.01
841.142	92.16
841.318	2.05
841.494	116.73
841.671	2.05
841.847	63.49
842.023	124.93
842.199	59.39
842.375	174.08
842.551	43.01
842.727	4.1
842.903	135.17
843.079	83.97
843.255	67.58
843.431	100.35
843.607	71.68
843.783	6.14
843.959	149.5
844.134	28.67
844.31	108.54
844.486	45.06
844.662	49.15
844.838	88.06
845.013	38.91
845.189	71.68
845.365	92.16
845.541	92.16
845.716	61.44
845.892	71.68
846.068	30.72
846.244	79.87
846.419	51.2
846.595	53.25
846.77	100.35
846.946	92.16
847.122	-22.53
847.297	32.77
847.473	135.17
847.648	-22.53
847.824	22.53
847.999	-20.48
848.175	92.16
848.35	40.96
848.526	26.62
848.701	59.39
848.876	120.83
849.052	63.49
849.227	63.49
849.403	55.3
849.578	118.78
849.753	104.45
849.929	120.83
850.104	2.05
850.279	36.86
850.454	73.73
850.63	-47.1
850.805	4.1
850.98	71.68
851.155	83.97
851.33	67.58
851.505	30.72
851.681	73.73
851.856	59.39
852.031	69.63
852.206	47.1
852.381	30.72
852.556	86.01
852.731	126.97
852.906	122.88
853.081	49.15
853.256	118.78
853.431	104.45
853.606	69.63
853.781	88.06
853.956	-40.96
854.131	71.68
854.305	-2.05
854.48	-14.34
854.655	10.24
854.83	2.05
855.005	36.86
855.18	59.39
855.354	2.05
855.529	92.16
855.704	45.06
855.879	-10.24
856.053	2.05
856.228	116.73
856.403	34.82
856.577	34.82
856.752	-51.2
856.926	83.97
857.101	69.63
857.276	30.72
857.45	2.05
857.625	63.49
857.799	71.68
857.974	53.25
858.148	10.24
858.323	18.43
858.497	38.91
858.672	53.25
858.846	2.05
859.02	65.54
859.195	24.58
859.369	51.2
859.543	34.82
859.718	116.73
859.892	69.63
860.066	28.67
860.241	-79.87
860.415	45.06
860.589	4.1
860.763	79.87
860.938	34.82
861.112	69.63
861.286	83.97
861.46	112.64
861.634	-36.86
861.808	18.43
861.982	20.48
862.157	22.53
862.331	38.91
862.505	14.34
862.679	2.05
862.853	26.62
863.027	4.1
863.201	47.1
863.375	-14.34
863.549	32.77
863.722	26.62
863.896	38.91
864.07	75.77
864.244	-18.43
864.418	40.96
864.592	43.01
864.766	-2.05
864.939	38.91
865.113	77.82
865.287	73.73
865.461	14.34
865.634	75.77
865.808	34.82
865.982	43.01
866.156	-2.05
866.329	24.58
866.503	4.1
866.676	83.97
866.85	43.01
867.024	18.43
867.197	45.06
867.371	43.01
867.544	12.29
867.718	-20.48
867.891	22.53
868.065	-6.14
868.238	26.62
868.412	71.68
868.585	-4.1
868.759	77.82
868.932	-49.15
869.105	14.34
869.279	59.39
869.452	-6.14
869.625	104.45
869.799	53.25
869.972	38.91
870.145	-12.29
870.319	36.86
870.492	-43.01
870.665	20.48
870.838	-28.67
871.011	6.14
871.185	53.25
871.358	-30.72
871.531	32.77
871.704	18.43
871.877	43.01
872.05	-22.53
872.223	12.29
872.396	-51.2
872.569	12.29
872.742	-10.24
872.915	18.43
873.088	12.29
873.261	34.82
873.434	51.2
873.607	2.05
873.78	114.69
873.953	26.62
874.126	38.91
874.299	-2.05
874.471	55.3
874.644	-57.34
874.817	77.82
874.99	75.77
875.163	-43.01
875.335	47.1
875.508	71.68
875.681	108.54
875.853	-55.3
876.026	75.77
876.199	10.24
876.371	12.29
876.544	71.68
876.717	30.72
876.889	34.82
877.062	43.01
877.234	-20.48
877.407	-10.24
877.579	14.34
877.752	20.48
877.924	14.34
878.097	20.48
878.269	69.63
878.442	-14.34
878.614	59.39
878.786	79.87
878.959	43.01
879.131	67.58
879.303	-34.82
879.476	45.06
879.648	92.16
879.82	30.72
879.993	-18.43
880.165	18.43
880.337	14.34
880.509	73.73
880.681	-43.01
880.854	12.29
881.026	18.43
881.198	71.68
881.37	-14.34
881.542	59.39
881.714	2.05
881.886	12.29
882.058	34.82
882.23	-22.53
882.402	65.54
882.574	-10.24
882.746	-4.1
882.918	26.62
883.09	43.01
883.262	45.06
883.434	0
883.606	10.24
883.778	12.29
883.95	45.06
884.122	-36.86
884.293	51.2
884.465	12.29
884.637	-63.49
884.809	-10.24
884.98	81.92
885.152	-4.1
885.324	79.87
885.496	34.82
885.667	4.1
885.839	-67.58
886.011	59.39
886.182	40.96
886.354	2.05
886.525	20.48
886.697	-14.34
886.869	-106.49
887.04	0
887.212	100.35
887.383	69.63
887.555	45.06
887.726	32.77
887.897	-24.58
888.069	-20.48
888.24	30.72
888.412	2.05
888.583	12.29
888.754	12.29
888.926	-4.1
889.097	71.68
889.268	16.38
889.44	30.72
889.611	2.05
889.782	-8.19
889.953	-47.1
890.125	38.91
890.296	-18.43
890.467	26.62
890.638	-14.34
890.809	45.06
890.98	4.1
891.151	69.63
891.323	88.06
891.494	67.58
891.665	10.24
891.836	22.53
892.007	100.35
892.178	92.16
892.349	40.96
892.52	12.29
892.691	-28.67
892.862	83.97
893.032	-28.67
893.203	20.48
893.374	14.34
893.545	67.58
893.716	59.39
893.887	75.77
894.057	30.72
894.228	69.63
894.399	-8.19
894.57	-2.05
894.74	18.43
894.911	10.24
895.082	67.58
895.253	-22.53
895.423	43.01
895.594	135.17
895.764	53.25
895.935	-34.82
896.106	24.58
896.276	63.49
896.447	-20.48
896.617	61.44
896.788	59.39
896.958	10.24
897.129	20.48
897.299	-47.1
897.47	67.58
897.64	30.72
897.81	-24.58
897.981	67.58
898.151	12.29
898.322	-40.96
898.492	12.29
898.662	36.86
898.832	59.39
899.003	110.59
899.173	-38.91
899.343	18.43
899.513	-6.14
