Data from USB4F104151__310__14-35-05-470.txt Node

Date: Thu Mar 13 14:35:05 EDT 2025
User: louis
Spectrometer: USB4F10415
Trigger mode: 4
Integration Time (sec): 2.500000E-2
Scans to average: 1
Electric dark correction enabled: true
Nonlinearity correction enabled: false
Boxcar width: 0
XAxis mode: Wavelengths
Number of Pixels in Spectrum: 3648
>>>>>Begin Spectral Data<<<<<
178.204	-207.53
178.424	-207.53
178.644	-207.53
178.864	-187.05
179.084	-127.66
179.304	-0.68
179.524	-0.68
179.744	-66.22
179.964	81.24
180.184	27.99
180.404	19.8
180.624	-23.21
180.844	11.61
181.064	-25.26
181.283	-23.21
181.503	-41.64
181.723	40.28
181.943	1.37
182.163	44.37
182.383	40.28
182.602	89.43
182.822	23.89
183.042	91.48
183.262	11.61
183.482	23.89
183.701	25.94
183.921	-19.11
184.141	1.37
184.361	-25.26
184.58	64.85
184.8	13.65
185.02	7.51
185.239	64.85
185.459	-17.07
185.679	-0.68
185.898	-72.36
186.118	11.61
186.338	42.32
186.557	73.04
186.777	15.7
186.997	23.89
187.216	9.56
187.436	44.37
187.655	38.23
187.875	48.47
188.095	-39.59
188.314	81.24
188.534	34.13
188.753	54.61
188.973	99.67
189.192	148.82
189.412	38.23
189.631	19.8
189.851	40.28
190.07	68.95
190.29	15.7
190.509	9.56
190.729	-21.16
190.948	111.96
191.168	191.83
191.387	89.43
191.607	5.46
191.826	56.66
192.045	40.28
192.265	-33.45
192.484	50.52
192.704	52.56
192.923	-21.16
193.142	81.24
193.362	23.89
193.581	116.05
193.8	-41.64
194.02	99.67
194.239	19.8
194.458	44.37
194.678	93.52
194.897	95.57
195.116	38.23
195.335	81.24
195.555	-23.21
195.774	40.28
195.993	5.46
196.212	32.08
196.432	27.99
196.651	-12.97
196.87	23.89
197.089	75.09
197.308	107.86
197.528	42.32
197.747	-23.21
197.966	-8.87
198.185	23.89
198.404	66.9
198.623	-21.16
198.842	-12.97
199.062	132.44
199.281	52.56
199.5	40.28
199.719	77.14
199.938	83.28
200.157	64.85
200.376	107.86
200.595	77.14
200.814	11.61
201.033	-17.07
201.252	83.28
201.471	19.8
201.69	68.95
201.909	97.62
202.128	50.52
202.347	81.24
202.566	81.24
202.785	-15.02
203.004	9.56
203.223	140.63
203.442	75.09
203.661	11.61
203.879	-17.07
204.098	79.19
204.317	-4.78
204.536	99.67
204.755	27.99
204.974	73.04
205.193	25.94
205.411	138.58
205.63	52.56
205.849	-15.02
206.068	-58.03
206.287	40.28
206.505	68.95
206.724	25.94
206.943	19.8
207.162	89.43
207.381	19.8
207.599	81.24
207.818	19.8
208.037	-25.26
208.255	48.47
208.474	48.47
208.693	122.2
208.911	54.61
209.13	-17.07
209.349	68.95
209.567	97.62
209.786	64.85
210.005	-8.87
210.223	23.89
210.442	-41.64
210.661	81.24
210.879	40.28
211.098	38.23
211.316	13.65
211.535	15.7
211.753	38.23
211.972	66.9
212.191	15.7
212.409	32.08
212.628	81.24
212.846	21.84
213.065	56.66
213.283	89.43
213.502	3.41
213.72	-55.98
213.938	101.72
214.157	-23.21
214.375	-15.02
214.594	-17.07
214.812	99.67
215.031	9.56
215.249	54.61
215.467	32.08
215.686	-41.64
215.904	99.67
216.122	50.52
216.341	114
216.559	-6.83
216.778	138.58
216.996	52.56
217.214	32.08
217.432	-0.68
217.651	-0.68
217.869	32.08
218.087	-17.07
218.306	48.47
218.524	52.56
218.742	17.75
218.96	83.28
219.179	89.43
219.397	-8.87
219.615	99.67
219.833	77.14
220.051	17.75
220.27	56.66
220.488	68.95
220.706	48.47
220.924	40.28
221.142	97.62
221.36	23.89
221.578	60.76
221.796	60.76
222.015	38.23
222.233	15.7
222.451	64.85
222.669	48.47
222.887	19.8
223.105	32.08
223.323	-0.68
223.541	122.2
223.759	52.56
223.977	97.62
224.195	144.72
224.413	89.43
224.631	32.08
224.849	-21.16
225.067	-4.78
225.285	64.85
225.503	-41.64
225.721	-0.68
225.939	40.28
226.157	56.66
226.375	99.67
226.592	50.52
226.81	-8.87
227.028	40.28
227.246	50.52
227.464	-10.92
227.682	-8.87
227.9	83.28
228.117	-0.68
228.335	38.23
228.553	-2.73
228.771	-17.07
228.989	1.37
229.206	9.56
229.424	7.51
229.642	25.94
229.86	15.7
230.077	85.33
230.295	54.61
230.513	140.63
230.731	91.48
230.948	-23.21
231.166	9.56
231.384	91.48
231.601	-84.65
231.819	97.62
232.037	40.28
232.254	85.33
232.472	-37.55
232.689	40.28
232.907	48.47
233.125	1.37
233.342	-4.78
233.56	-41.64
233.777	9.56
233.995	64.85
234.213	89.43
234.43	-15.02
234.648	50.52
234.865	36.18
235.083	34.13
235.3	58.71
235.518	48.47
235.735	85.33
235.953	77.14
236.17	83.28
236.388	17.75
236.605	91.48
236.822	23.89
237.04	146.77
237.257	91.48
237.475	-25.26
237.692	66.9
237.909	42.32
238.127	15.7
238.344	13.65
238.562	75.09
238.779	19.8
238.996	30.04
239.214	54.61
239.431	7.51
239.648	-6.83
239.865	124.24
240.083	77.14
240.3	25.94
240.517	-33.45
240.735	3.41
240.952	5.46
241.169	114
241.386	17.75
241.603	42.32
241.821	-15.02
242.038	118.1
242.255	48.47
242.472	-72.36
242.689	101.72
242.907	-4.78
243.124	83.28
243.341	19.8
243.558	-31.4
243.775	23.89
243.992	-10.92
244.209	-45.74
244.426	83.28
244.643	-4.78
244.86	40.28
245.078	58.71
245.295	23.89
245.512	42.32
245.729	17.75
245.946	40.28
246.163	46.42
246.38	-8.87
246.597	48.47
246.814	11.61
247.031	-0.68
247.248	46.42
247.464	7.51
247.681	48.47
247.898	9.56
248.115	114
248.332	40.28
248.549	66.9
248.766	17.75
248.983	15.7
249.2	48.47
249.417	50.52
249.633	23.89
249.85	107.86
250.067	66.9
250.284	93.52
250.501	109.91
250.717	36.18
250.934	17.75
251.151	-17.07
251.368	30.04
251.585	52.56
251.801	52.56
252.018	-10.92
252.235	48.47
252.451	-10.92
252.668	48.47
252.885	58.71
253.102	105.81
253.318	-17.07
253.535	7.51
253.752	48.47
253.968	-25.26
254.185	19.8
254.401	58.71
254.618	-4.78
254.835	42.32
255.051	19.8
255.268	-21.16
255.484	36.18
255.701	7.51
255.917	23.89
256.134	7.51
256.351	-19.11
256.567	48.47
256.784	114
257	1.37
257.217	34.13
257.433	64.85
257.65	15.7
257.866	89.43
258.082	32.08
258.299	-37.55
258.515	71
258.732	36.18
258.948	-74.41
259.165	7.51
259.381	3.41
259.597	62.8
259.814	42.32
260.03	48.47
260.246	-23.21
260.463	60.76
260.679	101.72
260.895	97.62
261.112	48.47
261.328	38.23
261.544	40.28
261.761	97.62
261.977	5.46
262.193	3.41
262.409	81.24
262.626	25.94
262.842	66.9
263.058	-41.64
263.274	79.19
263.49	101.72
263.707	75.09
263.923	-0.68
264.139	-53.93
264.355	40.28
264.571	66.9
264.787	7.51
265.004	46.42
265.22	1.37
265.436	23.89
265.652	95.57
265.868	85.33
266.084	-21.16
266.3	97.62
266.516	56.66
266.732	91.48
266.948	-10.92
267.164	9.56
267.38	23.89
267.596	7.51
267.812	81.24
268.028	-58.03
268.244	5.46
268.46	15.7
268.676	23.89
268.892	73.04
269.108	1.37
269.324	7.51
269.54	11.61
269.756	52.56
269.972	-4.78
270.188	11.61
270.403	-8.87
270.619	46.42
270.835	40.28
271.051	27.99
271.267	-70.31
271.483	-15.02
271.698	44.37
271.914	-10.92
272.13	23.89
272.346	23.89
272.562	40.28
272.777	75.09
272.993	7.51
273.209	17.75
273.425	-72.36
273.64	15.7
273.856	101.72
274.072	105.81
274.287	-12.97
274.503	75.09
274.719	40.28
274.934	27.99
275.15	1.37
275.366	99.67
275.581	9.56
275.797	44.37
276.012	-17.07
276.228	15.7
276.444	71
276.659	40.28
276.875	-35.5
277.09	54.61
277.306	73.04
277.521	27.99
277.737	-4.78
277.952	42.32
278.168	91.48
278.383	56.66
278.599	-19.11
278.814	40.28
279.03	81.24
279.245	1.37
279.461	-0.68
279.676	56.66
279.892	-4.78
280.107	64.85
280.322	-33.45
280.538	64.85
280.753	32.08
280.969	48.47
281.184	-29.35
281.399	15.7
281.615	40.28
281.83	89.43
282.045	-96.94
282.26	9.56
282.476	89.43
282.691	-47.79
282.906	134.48
283.122	32.08
283.337	-64.17
283.552	25.94
283.767	44.37
283.983	97.62
284.198	-17.07
284.413	97.62
284.628	-2.73
284.843	64.85
285.058	1.37
285.274	-6.83
285.489	40.28
285.704	9.56
285.919	-55.98
286.134	7.51
286.349	7.51
286.564	-23.21
286.779	126.29
286.995	52.56
287.21	23.89
287.425	38.23
287.64	52.56
287.855	23.89
288.07	-2.73
288.285	23.89
288.5	64.85
288.715	114
288.93	32.08
289.145	-8.87
289.36	68.95
289.575	17.75
289.79	23.89
290.004	64.85
290.219	40.28
290.434	-27.31
290.649	3.41
290.864	64.85
291.079	46.42
291.294	36.18
291.509	93.52
291.724	-8.87
291.938	17.75
292.153	103.76
292.368	-12.97
292.583	17.75
292.798	34.13
293.012	122.2
293.227	11.61
293.442	58.71
293.657	25.94
293.871	83.28
294.086	50.52
294.301	165.2
294.516	64.85
294.73	56.66
294.945	3.41
295.16	77.14
295.374	114
295.589	114
295.804	23.89
296.018	64.85
296.233	77.14
296.447	13.65
296.662	-10.92
296.877	40.28
297.091	-41.64
297.306	40.28
297.52	36.18
297.735	11.61
297.949	60.76
298.164	3.41
298.378	17.75
298.593	1.37
298.807	19.8
299.022	-66.22
299.236	1.37
299.451	32.08
299.665	-0.68
299.88	56.66
300.094	7.51
300.309	85.33
300.523	56.66
300.737	77.14
300.952	36.18
301.166	23.89
301.381	7.51
301.595	-58.03
301.809	7.51
302.024	85.33
302.238	19.8
302.452	73.04
302.667	105.81
302.881	81.24
303.095	114
303.309	50.52
303.524	105.81
303.738	-15.02
303.952	-17.07
304.166	25.94
304.381	-23.21
304.595	73.04
304.809	9.56
305.023	60.76
305.237	44.37
305.452	7.51
305.666	-41.64
305.88	101.72
306.094	56.66
306.308	38.23
306.522	85.33
306.736	116.05
306.95	60.76
307.164	23.89
307.379	40.28
307.593	27.99
307.807	75.09
308.021	87.38
308.235	7.51
308.449	11.61
308.663	-8.87
308.877	138.58
309.091	77.14
309.305	27.99
309.519	-29.35
309.733	124.24
309.947	-31.4
310.161	101.72
310.374	75.09
310.588	81.24
310.802	56.66
311.016	36.18
311.23	66.9
311.444	-25.26
311.658	83.28
311.872	15.7
312.085	48.47
312.299	56.66
312.513	81.24
312.727	97.62
312.941	118.1
313.154	40.28
313.368	66.9
313.582	58.71
313.796	-25.26
314.009	73.04
314.223	103.76
314.437	13.65
314.651	-37.55
314.864	34.13
315.078	-37.55
315.292	7.51
315.505	62.8
315.719	27.99
315.933	-21.16
316.146	23.89
316.36	36.18
316.573	21.84
316.787	68.95
317.001	60.76
317.214	48.47
317.428	25.94
317.641	34.13
317.855	-49.83
318.068	-33.45
318.282	81.24
318.495	73.04
318.709	-12.97
318.922	19.8
319.136	132.44
319.349	107.86
319.563	75.09
319.776	32.08
319.99	-37.55
320.203	25.94
320.417	11.61
320.63	64.85
320.843	52.56
321.057	17.75
321.27	23.89
321.483	73.04
321.697	15.7
321.91	71
322.124	-10.92
322.337	99.67
322.55	83.28
322.763	130.39
322.977	85.33
323.19	19.8
323.403	75.09
323.617	3.41
323.83	97.62
324.043	-23.21
324.256	85.33
324.469	-35.5
324.683	114
324.896	13.65
325.109	23.89
325.322	-25.26
325.535	50.52
325.748	73.04
325.962	75.09
326.175	40.28
326.388	58.71
326.601	50.52
326.814	40.28
327.027	40.28
327.24	93.52
327.453	-17.07
327.666	19.8
327.879	85.33
328.092	107.86
328.305	9.56
328.518	5.46
328.731	-6.83
328.944	48.47
329.157	66.9
329.37	42.32
329.583	128.34
329.796	66.9
330.009	7.51
330.222	-8.87
330.435	56.66
330.648	56.66
330.861	44.37
331.073	85.33
331.286	101.72
331.499	87.38
331.712	-41.64
331.925	-25.26
332.138	83.28
332.35	138.58
332.563	36.18
332.776	50.52
332.989	23.89
333.202	34.13
333.414	54.61
333.627	85.33
333.84	77.14
334.053	89.43
334.265	81.24
334.478	46.42
334.691	101.72
334.903	11.61
335.116	64.85
335.329	77.14
335.541	148.82
335.754	124.24
335.966	32.08
336.179	68.95
336.392	-31.4
336.604	-0.68
336.817	23.89
337.029	60.76
337.242	7.51
337.454	99.67
337.667	19.8
337.88	152.91
338.092	97.62
338.305	56.66
338.517	-0.68
338.729	134.48
338.942	32.08
339.154	1.37
339.367	58.71
339.579	56.66
339.792	46.42
340.004	60.76
340.217	42.32
340.429	79.19
340.641	48.47
340.854	54.61
341.066	64.85
341.278	89.43
341.491	75.09
341.703	81.24
341.915	-31.4
342.128	73.04
342.34	75.09
342.552	34.13
342.764	30.04
342.977	56.66
343.189	58.71
343.401	122.2
343.613	15.7
343.826	83.28
344.038	83.28
344.25	50.52
344.462	-29.35
344.674	95.57
344.886	13.65
345.099	23.89
345.311	95.57
345.523	32.08
345.735	-62.12
345.947	71
346.159	38.23
346.371	109.91
346.583	-17.07
346.795	179.54
347.007	25.94
347.219	62.8
347.431	36.18
347.643	99.67
347.855	32.08
348.067	101.72
348.279	-82.6
348.491	66.9
348.703	93.52
348.915	54.61
349.127	15.7
349.339	40.28
349.551	19.8
349.763	42.32
349.975	23.89
350.187	60.76
350.399	81.24
350.61	138.58
350.822	-17.07
351.034	56.66
351.246	42.32
351.458	81.24
351.669	32.08
351.881	83.28
352.093	130.39
352.305	54.61
352.517	42.32
352.728	109.91
352.94	-6.83
353.152	1.37
353.363	32.08
353.575	42.32
353.787	103.76
353.999	66.9
354.21	167.25
354.422	23.89
354.633	-45.74
354.845	32.08
355.057	25.94
355.268	130.39
355.48	136.53
355.692	7.51
355.903	7.51
356.115	19.8
356.326	68.95
356.538	60.76
356.749	48.47
356.961	91.48
357.172	81.24
357.384	-37.55
357.595	126.29
357.807	-15.02
358.018	32.08
358.23	77.14
358.441	-29.35
358.653	34.13
358.864	75.09
359.075	21.84
359.287	75.09
359.498	97.62
359.709	40.28
359.921	91.48
360.132	81.24
360.344	19.8
360.555	-0.68
360.766	66.9
360.977	-0.68
361.189	150.87
361.4	68.95
361.611	154.96
361.823	109.91
362.034	81.24
362.245	-33.45
362.456	73.04
362.667	77.14
362.879	58.71
363.09	7.51
363.301	-0.68
363.512	109.91
363.723	56.66
363.935	42.32
364.146	83.28
364.357	87.38
364.568	66.9
364.779	81.24
364.99	32.08
365.201	52.56
365.412	99.67
365.623	-12.97
365.834	46.42
366.045	91.48
366.256	11.61
366.467	116.05
366.678	83.28
366.889	56.66
367.1	89.43
367.311	38.23
367.522	-15.02
367.733	40.28
367.944	81.24
368.155	66.9
368.366	66.9
368.577	122.2
368.788	91.48
368.999	-2.73
369.209	27.99
369.42	140.63
369.631	97.62
369.842	64.85
370.053	23.89
370.264	114
370.474	32.08
370.685	99.67
370.896	-12.97
371.107	44.37
371.317	64.85
371.528	46.42
371.739	66.9
371.95	30.04
372.16	111.96
372.371	48.47
372.582	17.75
372.792	93.52
373.003	32.08
373.214	120.15
373.424	44.37
373.635	128.34
373.846	101.72
374.056	34.13
374.267	64.85
374.477	103.76
374.688	48.47
374.898	23.89
375.109	15.7
375.319	99.67
375.53	101.72
375.74	111.96
375.951	48.47
376.161	89.43
376.372	89.43
376.582	58.71
376.793	66.9
377.003	66.9
377.214	7.51
377.424	150.87
377.635	32.08
377.845	52.56
378.055	97.62
378.266	25.94
378.476	32.08
378.686	64.85
378.897	105.81
379.107	81.24
379.317	101.72
379.528	89.43
379.738	73.04
379.948	-55.98
380.158	105.81
380.369	-72.36
380.579	68.95
380.789	40.28
380.999	130.39
381.21	30.04
381.42	73.04
381.63	17.75
381.84	75.09
382.05	122.2
382.261	66.9
382.471	40.28
382.681	44.37
382.891	42.32
383.101	128.34
383.311	-4.78
383.521	-0.68
383.731	152.91
383.941	114
384.151	81.24
384.361	75.09
384.571	97.62
384.781	85.33
384.991	146.77
385.201	109.91
385.411	138.58
385.621	25.94
385.831	85.33
386.041	42.32
386.251	48.47
386.461	42.32
386.671	81.24
386.881	89.43
387.091	81.24
387.301	122.2
387.511	56.66
387.72	97.62
387.93	11.61
388.14	83.28
388.35	15.7
388.56	25.94
388.769	17.75
388.979	75.09
389.189	44.37
389.399	46.42
389.609	105.81
389.818	105.81
390.028	85.33
390.238	118.1
390.447	34.13
390.657	136.53
390.867	48.47
391.076	97.62
391.286	118.1
391.496	-23.21
391.705	101.72
391.915	122.2
392.125	224.59
392.334	75.09
392.544	130.39
392.753	107.86
392.963	85.33
393.172	81.24
393.382	40.28
393.591	165.2
393.801	130.39
394.01	114
394.22	109.91
394.429	105.81
394.639	154.96
394.848	99.67
395.058	122.2
395.267	40.28
395.477	122.2
395.686	93.52
395.895	138.58
396.105	157.01
396.314	101.72
396.524	109.91
396.733	62.8
396.942	163.15
397.152	124.24
397.361	150.87
397.57	105.81
397.78	89.43
397.989	120.15
398.198	181.59
398.407	107.86
398.617	152.91
398.826	138.58
399.035	114
399.244	150.87
399.453	73.04
399.663	163.15
399.872	163.15
400.081	32.08
400.29	187.73
400.499	105.81
400.708	124.24
400.917	132.44
401.127	126.29
401.336	171.35
401.545	232.79
401.754	118.1
401.963	154.96
402.172	120.15
402.381	66.9
402.59	97.62
402.799	150.87
403.008	197.97
403.217	148.82
403.426	91.48
403.635	109.91
403.844	134.48
404.053	124.24
404.262	204.11
404.471	214.35
404.68	159.06
404.888	175.44
405.097	148.82
405.306	193.87
405.515	146.77
405.724	146.77
405.933	169.3
406.142	189.78
406.35	290.13
406.559	195.92
406.768	216.4
406.977	187.73
407.185	333.14
407.394	230.74
407.603	220.5
407.812	216.4
408.02	261.46
408.229	298.32
408.438	300.37
408.646	251.22
408.855	351.57
409.064	318.8
409.272	376.14
409.481	312.66
409.69	351.57
409.898	406.86
410.107	372.05
410.315	378.19
410.524	398.67
410.733	435.53
410.941	462.16
411.15	410.96
411.358	462.16
411.567	490.83
411.775	509.26
411.984	582.99
412.192	597.32
412.401	531.79
412.609	613.71
412.818	664.91
413.026	662.86
413.234	669
413.443	654.67
413.651	632.14
413.86	687.43
414.068	763.21
414.276	798.03
414.485	795.98
414.693	861.51
414.901	908.62
415.11	822.6
415.318	949.57
415.526	843.08
415.734	1023.3
415.943	916.81
416.151	1119.56
416.359	1041.73
416.567	1051.97
416.776	1082.69
416.984	1197.38
417.192	1213.76
417.4	1238.34
417.608	1281.35
417.817	1277.25
418.025	1432.9
418.233	1398.08
418.441	1396.03
418.649	1574.21
418.857	1602.88
419.065	1768.76
419.273	1566.01
419.481	1727.8
419.689	1764.67
419.897	1981.75
420.105	2000.18
420.313	1953.08
420.521	2026.81
420.729	2080.05
420.937	2219.32
421.145	2198.84
421.353	2338.1
421.561	2444.59
421.769	2450.74
421.977	2581.81
422.185	2614.57
422.393	2800.94
422.601	2927.91
422.809	2825.51
423.017	3007.78
423.224	3085.61
423.432	3269.92
423.64	3173.67
423.848	3552.54
424.056	3304.74
424.263	3695.9
424.471	3622.17
424.679	3677.47
424.887	3908.89
425.094	3792.16
425.302	3939.61
425.51	4162.84
425.718	4275.48
425.925	4324.63
426.133	4545.81
426.341	4683.02
426.548	4898.06
426.756	4842.76
426.964	4943.11
427.171	5172.49
427.379	5375.24
427.586	5602.56
427.794	5668.09
428.001	6020.35
428.209	6130.94
428.417	6024.44
428.624	6548.72
428.832	6497.52
429.039	6511.86
429.247	6417.65
429.454	7195.88
429.662	7584.99
429.869	7144.68
430.076	7529.7
430.284	7384.29
430.491	7679.2
430.699	8162.52
430.906	8166.62
431.114	8305.88
431.321	8565.97
431.528	8717.52
431.736	9157.83
431.943	9684.16
432.15	9333.96
432.358	9553.09
432.565	10104
432.772	10169.53
432.979	10443.96
433.187	10405.05
433.394	10689.71
433.601	11574.44
433.808	11343.02
434.016	11177.13
434.223	11719.84
434.43	12827.79
434.637	12237.98
434.844	12926.1
435.052	13327.5
435.259	13427.85
435.466	13286.54
435.673	13307.02
435.88	13814.91
436.087	14851.19
436.294	14494.84
436.501	14531.7
436.708	14552.18
436.915	15250.54
437.122	15930.47
437.329	15846.5
437.537	16346.2
437.743	16614.49
437.95	16460.89
438.157	17531.98
438.364	17851.46
438.571	17798.21
438.778	17974.34
438.985	19600.43
439.192	18926.64
439.399	19581.99
439.606	19205.17
439.813	20194.34
440.02	21341.2
440.227	20628.51
440.433	20438.05
440.64	21570.57
440.847	21191.7
441.054	21617.68
441.261	23389.17
441.467	22934.52
441.674	23575.53
441.881	24214.5
442.088	24099.81
442.294	23782.38
442.501	24609.76
442.708	24845.27
442.914	25775.05
443.121	26815.42
443.328	26112.97
443.534	28302.25
443.741	27407.28
443.948	26629.06
444.154	28922.78
444.361	28644.26
444.568	29084.57
444.774	28787.61
444.981	29385.62
445.187	29950.86
445.394	31521.65
445.6	31183.74
445.807	33737.55
446.013	32609.12
446.22	32772.96
446.426	34714.44
446.633	34822.98
446.839	35785.52
447.046	34306.89
447.252	36481.83
447.459	36203.31
447.665	35906.35
447.871	38001.43
448.078	39336.7
448.284	37149.47
448.491	38294.28
448.697	39252.73
448.903	40850.15
449.11	40725.22
449.316	39793.4
449.522	40411.88
449.728	42130.13
449.935	42293.97
450.141	42371.79
450.347	43043.52
450.553	41698.01
450.76	42341.07
450.966	43268.8
451.172	42922.69
451.378	44368.56
451.584	43211.46
451.791	44036.79
451.997	44485.29
452.203	45034.15
452.409	45019.81
452.615	44626.6
452.821	42881.74
453.027	42691.27
453.233	44823.21
453.44	43176.64
453.646	43487.93
453.852	43733.69
454.058	44163.76
454.264	42959.56
454.47	44384.94
454.676	42812.1
454.882	44374.7
455.088	40495.85
455.294	41317.09
455.5	41583.32
455.705	42281.68
455.911	40694.5
456.117	40125.17
456.323	39326.46
456.529	37237.53
456.735	38935.3
456.941	37958.42
457.147	37159.71
457.352	36145.97
457.558	35568.44
457.764	35892.02
457.97	35117.89
458.176	34501.45
458.381	34247.5
458.587	32815.97
458.793	32527.21
458.999	30788.48
459.204	33137.5
459.41	32172.91
459.616	30024.59
459.821	30135.18
460.027	29983.63
460.233	29449.11
460.438	27984.81
460.644	28099.5
460.85	26764.22
461.055	26454.98
461.261	26256.32
461.466	24634.33
461.672	23667.69
461.878	25164.76
462.083	23731.18
462.289	23294.96
462.494	23043.06
462.7	22342.66
462.905	21603.34
463.111	22232.07
463.316	22254.59
463.522	21814.28
463.727	21593.1
463.932	21697.55
464.138	21283.86
464.343	21412.88
464.549	20685.85
464.754	21615.63
464.959	21304.34
465.165	21220.37
465.37	20098.08
465.575	19670.06
465.781	20194.34
465.986	20491.29
466.191	19852.33
466.397	19430.44
466.602	18371.65
466.807	19483.69
467.012	19373.1
467.218	19137.59
467.423	18814.01
467.628	19119.15
467.833	19846.18
468.038	18947.12
468.244	18504.76
468.449	18760.76
468.654	18613.31
468.859	18168.9
469.064	18177.09
469.269	17681.48
469.474	17652.81
469.679	18080.83
469.885	17654.86
470.09	17562.7
470.295	17353.8
470.5	17122.38
470.705	17355.85
470.91	16837.72
471.115	16620.63
471.32	16886.87
471.525	17022.03
471.73	16417.88
471.935	16415.83
472.139	15914.08
472.344	16108.64
472.549	15803.49
472.754	15451.24
472.959	15402.09
473.164	14945.39
473.369	14863.47
473.574	15375.47
473.778	15252.59
473.983	14972.02
474.188	15203.44
474.393	14554.23
474.598	14539.9
474.802	14081.15
475.007	14322.81
475.212	14232.7
475.417	13479.05
475.621	13550.73
475.826	13915.26
476.031	13483.14
476.235	13190.28
476.44	13380.75
476.645	13102.22
476.849	13048.97
477.054	13046.93
477.259	12844.18
477.463	12545.17
477.668	12407.96
477.872	12672.15
478.077	12446.87
478.282	12180.64
478.486	12084.38
478.691	12000.41
478.895	12002.46
479.1	11744.42
479.304	11752.61
479.509	11500.71
479.713	11893.92
479.918	11416.74
480.122	11095.21
480.326	11396.26
480.531	11322.54
480.735	11345.06
480.94	11132.08
481.144	11523.24
481.348	10927.28
481.553	11160.75
481.757	10927.28
481.961	10757.3
482.166	11125.93
482.37	11261.1
482.574	10839.22
482.778	10857.65
482.983	11099.31
483.187	11013.29
483.391	10953.9
483.595	10812.59
483.8	11003.05
484.004	11132.08
484.208	10988.72
484.412	11017.39
484.616	10820.78
484.821	11068.59
485.025	10785.97
485.229	10812.59
485.433	10837.17
485.637	10982.57
485.841	11019.44
486.045	10894.51
486.249	11084.97
486.453	10851.5
486.657	10663.09
486.861	10861.74
487.065	10615.99
487.269	10626.23
487.473	10738.87
487.677	10779.82
487.881	10861.74
488.085	10865.84
488.289	10667.19
488.493	10792.11
488.697	10837.17
488.901	10841.26
489.105	10626.23
489.309	10882.22
489.512	10910.89
489.716	10849.46
489.92	10919.09
490.124	11001.01
490.328	11318.44
490.531	10845.36
490.735	11111.6
490.939	11019.44
491.143	11183.27
491.346	10937.52
491.55	11140.27
491.754	11189.42
491.958	11228.33
492.161	11105.45
492.365	11134.12
492.569	11156.65
492.772	11179.18
492.976	11457.7
493.18	11599.01
493.383	11637.92
493.587	11629.73
493.79	11646.12
493.994	11433.13
494.197	11519.14
494.401	11805.86
494.605	11803.81
494.808	12016.8
495.012	12008.61
495.215	12172.44
495.419	12029.09
495.622	12297.37
495.825	12276.89
496.029	12340.38
496.232	12549.27
496.436	12649.62
496.639	12676.24
496.843	12666
497.046	13069.45
497.249	13044.88
497.453	13163.66
497.656	13089.93
497.859	13313.16
498.063	13198.48
498.266	13696.13
498.469	13548.68
498.673	13622.41
498.876	13905.03
499.079	14138.49
499.282	14040.19
499.485	14294.14
499.689	14175.36
499.892	14572.66
500.095	14736.5
500.298	15094.9
500.501	14974.06
500.705	15236.2
500.908	15293.55
501.111	15432.81
501.314	15578.22
501.517	15864.93
501.72	15729.77
501.923	15819.88
502.126	16063.58
502.329	16614.49
502.532	16510.04
502.735	16710.74
502.938	17028.18
503.141	16616.54
503.344	17499.21
503.547	17284.17
503.75	17419.34
503.953	17718.34
504.156	17851.46
504.359	18048.07
504.562	18177.09
504.765	18461.76
504.968	18551.87
505.17	18766.9
505.373	18576.44
505.576	19127.35
505.779	19407.92
505.982	19387.44
506.185	19876.9
506.387	19813.42
506.59	19893.29
506.793	20565.02
506.996	20173.86
507.198	21218.32
507.401	20935.7
507.604	21101.59
507.807	21451.79
508.009	21662.73
508.212	21668.87
508.415	21662.73
508.617	22291.46
508.82	22402.05
509.022	22039.56
509.225	22469.63
509.428	23194.61
509.63	23204.85
509.833	23170.04
510.035	23825.39
510.238	23565.29
510.44	23970.79
510.643	24423.39
510.845	24224.74
511.048	24277.99
511.25	24552.41
511.453	24660.96
511.655	25721.8
511.858	25342.93
512.06	25781.2
512.262	25983.94
512.465	25869.26
512.667	26731.45
512.87	26731.45
513.072	26809.28
513.274	27263.93
513.477	27585.46
513.679	27710.38
513.881	28142.5
514.084	27896.75
514.286	28009.39
514.488	28591.01
514.69	29514.64
514.893	29234.07
515.095	29084.57
515.297	29692.82
515.499	29787.02
515.701	29944.72
515.904	30151.56
516.106	30397.32
516.308	31191.93
516.51	31136.63
516.712	31011.71
516.914	31255.42
517.116	31855.47
517.318	32117.61
517.52	32109.42
517.722	32275.3
517.925	32648.04
518.127	33063.77
518.329	32996.19
518.531	33098.59
518.733	33377.11
518.935	33938.26
519.136	34059.09
519.338	34726.72
519.54	34442.06
519.742	34581.32
519.944	34560.84
520.146	35332.92
520.348	34976.58
520.55	35347.26
520.752	35429.18
520.954	36387.63
521.155	35697.46
521.357	36295.47
521.559	36631.33
521.761	37227.29
521.963	36686.63
522.164	36805.41
522.366	37235.49
522.568	37653.27
522.77	37585.69
522.971	37901.07
523.173	37471
523.375	38093.58
523.576	38021.91
523.778	38253.33
523.98	38556.42
524.181	38611.72
524.383	38677.26
524.584	39123.71
524.786	38820.61
524.988	38359.82
525.189	39318.27
525.391	39447.29
525.592	39762.68
525.794	39830.26
525.995	39652.09
526.197	39600.89
526.398	39793.4
526.6	39951.09
526.801	39906.04
527.003	40139.5
527.204	39992.05
527.406	40291.05
527.607	40391.4
527.808	40583.91
528.01	39641.85
528.211	40178.42
528.412	40760.04
528.614	40757.99
528.815	40641.26
529.016	40870.63
529.218	40469.23
529.419	40403.69
529.62	40522.47
529.822	40610.54
530.023	40411.88
530.224	40680.17
530.425	40467.18
530.626	40401.64
530.828	40284.91
531.029	40907.49
531.23	40635.11
531.431	40395.5
531.632	40932.07
531.833	40514.28
532.035	40153.84
532.236	40481.52
532.437	40719.08
532.638	40444.65
532.839	40801
533.04	40309.49
533.241	39897.84
533.442	40692.46
533.643	40434.41
533.844	40014.58
534.045	40545
534.246	39971.57
534.447	40127.22
534.648	39846.65
534.849	40272.62
535.05	39627.51
535.251	40041.2
535.451	39934.71
535.652	40094.45
535.853	39944.95
536.054	39830.26
536.255	40141.55
536.456	39324.41
536.657	40547.05
536.857	39688.95
537.058	39369.47
537.259	39777.01
537.46	39594.75
537.66	39412.48
537.861	39604.99
538.062	39256.83
538.263	39457.53
538.463	39201.54
538.664	39353.08
538.865	39770.87
539.065	39527.16
539.266	39332.61
539.466	39357.18
539.667	38896.39
539.868	39336.7
540.068	39246.59
540.269	38656.78
540.469	39516.92
540.67	39072.51
540.87	38959.87
541.071	39238.4
541.271	39195.39
541.472	38832.9
541.672	38978.31
541.873	38474.51
542.073	38064.91
542.274	39109.38
542.474	38490.89
542.675	38267.66
542.875	38824.71
543.075	38847.24
543.276	38429.45
543.476	38873.86
543.676	38427.4
543.877	38630.15
544.077	38816.52
544.277	38349.58
544.478	38671.11
544.678	38859.52
544.878	38497.03
545.078	38630.15
545.279	38474.51
545.479	38576.9
545.679	38685.45
545.879	38507.27
546.079	38591.24
546.28	38081.3
546.48	38161.17
546.68	38816.52
546.88	38384.4
547.08	38394.64
547.28	38267.66
547.48	38038.29
547.68	38474.51
547.88	38071.06
548.081	38415.12
548.281	38687.49
548.481	38314.76
548.681	38658.82
548.881	38327.05
549.081	38540.04
549.28	37927.7
549.48	38447.88
549.68	38769.41
549.88	38771.46
550.08	38142.74
550.28	38300.43
550.48	38378.25
550.68	39013.12
550.88	38314.76
551.08	38325
551.279	38593.29
551.479	38191.89
551.679	38777.61
551.879	38189.84
552.079	39009.03
552.278	38306.57
552.478	38902.53
552.678	38488.84
552.878	38994.69
553.077	38734.6
553.277	38339.34
553.477	38777.61
553.676	38382.35
553.876	38503.18
554.076	38232.85
554.275	38337.29
554.475	38290.19
554.674	38494.99
554.874	38626.06
555.074	38574.86
555.273	38744.84
555.473	38990.59
555.672	38753.03
555.872	38951.68
556.071	38736.65
556.271	38703.88
556.47	38490.89
556.67	38382.35
556.869	38466.31
557.068	38818.57
557.268	38880
557.467	38970.11
557.667	38521.61
557.866	38863.62
558.065	39086.85
558.265	38304.52
558.464	38656.78
558.663	38951.68
558.863	38320.91
559.062	39111.42
559.261	38793.99
559.461	38777.61
559.66	38028.05
559.859	39084.8
560.058	38777.61
560.258	38814.47
560.457	38331.15
560.656	38968.07
560.855	38724.36
561.054	38908.68
561.253	38310.67
561.453	38490.89
561.652	38769.41
561.851	39027.46
562.05	38787.85
562.249	38581
562.448	38769.41
562.647	38640.39
562.846	38560.52
563.045	38411.02
563.244	38259.47
563.443	38826.76
563.642	37989.14
563.841	38220.56
564.04	38275.85
564.239	38572.81
564.438	37927.7
564.637	38581
564.836	38646.54
565.035	37991.19
565.234	38292.24
565.432	37997.33
565.631	37974.8
565.83	38339.34
566.029	38114.06
566.228	37907.22
566.427	37876.5
566.625	37722.9
566.824	37657.37
567.023	37683.99
567.222	37215.01
567.42	38093.58
567.619	37401.37
567.818	37532.44
568.016	37704.47
568.215	37731.09
568.414	37247.77
568.612	37509.91
568.811	37237.53
569.01	37550.87
569.208	36852.51
569.407	37198.62
569.605	36561.7
569.804	37374.75
570.002	36401.96
570.201	36909.86
570.4	36682.53
570.598	36565.8
570.797	36311.85
570.995	36703.01
571.193	36404.01
571.392	36465.45
571.59	36211.5
571.789	35885.87
571.987	36553.51
572.186	36236.08
572.384	36072.24
572.582	35951.41
572.781	36213.55
572.979	35582.77
573.177	35412.79
573.376	35515.19
573.574	35498.81
573.772	35468.09
573.971	35208
574.169	35564.34
574.367	34702.15
574.565	35377.98
574.763	34796.35
574.962	35019.58
575.16	34679.62
575.358	34779.97
575.556	34460.49
575.754	34978.62
575.952	34536.26
576.151	34583.37
576.349	34065.23
576.547	34026.32
576.745	34235.21
576.943	34126.67
577.141	34177.87
577.339	33778.51
577.537	33794.9
577.735	33598.29
577.933	33411.93
578.131	33770.32
578.329	33436.5
578.527	33012.57
578.725	33467.22
578.923	33708.88
579.121	33063.77
579.319	33059.68
579.516	33287
579.714	33227.61
579.912	32973.66
580.11	32338.79
580.308	32637.8
580.506	32504.68
580.704	31896.43
580.901	32363.37
581.099	32795.49
581.297	32119.66
581.495	31878
581.692	32588.64
581.89	32093.04
582.088	32248.68
582.285	31796.08
582.483	32056.17
582.681	31771.5
582.878	31759.22
583.076	31521.65
583.274	31888.24
583.471	31634.29
583.669	31417.21
583.866	31140.73
584.064	31327.1
584.262	30966.65
584.459	31169.4
584.657	30849.92
584.854	31232.89
585.052	30706.56
585.249	30626.69
585.447	30724.99
585.644	30505.86
585.841	30872.45
586.039	30864.25
586.236	30563.2
586.434	30296.97
586.631	30241.67
586.828	30286.73
587.026	30092.17
587.223	29899.66
587.42	29567.89
587.618	30290.82
587.815	29305.75
588.012	29766.54
588.21	29864.85
588.407	30090.12
588.604	29496.21
588.801	29494.16
588.999	29762.45
589.196	29565.84
589.393	29404.05
589.59	29045.66
589.787	29193.11
589.984	29463.44
590.182	29049.75
590.379	28922.78
590.576	28945.31
590.773	28976.03
590.97	28908.44
591.167	29156.25
591.364	28580.77
591.561	28877.72
591.758	28568.48
591.955	28701.6
592.152	28531.62
592.349	28535.71
592.546	28646.3
592.743	28883.87
592.94	28287.91
593.137	28578.72
593.334	28769.18
593.531	28148.65
593.727	28236.71
593.924	28292.01
594.121	27827.12
594.318	28081.06
594.515	27835.31
594.712	27835.31
594.908	27933.61
595.105	28060.59
595.302	27679.66
595.499	27843.5
595.696	27827.12
595.892	27724.72
596.089	27999.15
596.286	27788.21
596.482	27659.18
596.679	27816.88
596.876	27317.17
597.072	27777.97
597.269	27188.15
597.466	27296.69
597.662	27446.19
597.859	27351.99
598.055	27827.12
598.252	27659.18
598.448	27194.29
598.645	27610.03
598.841	26872.76
599.038	27417.52
599.234	27265.97
599.431	27196.34
599.627	27186.1
599.824	27288.5
600.02	27214.77
600.217	27567.02
600.413	27339.7
600.609	27059.13
600.806	26985.4
601.002	27087.8
601.198	26692.54
601.395	26792.89
601.591	27190.2
601.787	27128.76
601.984	26938.3
602.18	26880.96
602.376	27397.04
602.572	27085.75
602.769	27120.57
602.965	27155.38
603.161	27118.52
603.357	27081.66
603.553	27315.12
603.75	27116.47
603.946	26846.14
604.142	27100.09
604.338	26592.19
604.534	27204.53
604.73	27114.42
604.926	27118.52
605.122	27018.17
605.318	26952.63
605.514	26926.01
605.71	26958.78
605.906	26944.44
606.102	27102.14
606.298	27122.62
606.494	27204.53
606.69	27165.62
606.886	27210.68
607.082	26803.13
607.278	27243.45
607.474	27292.6
607.67	27296.69
607.866	27139
608.062	27640.75
608.257	27122.62
608.453	26989.5
608.649	27278.26
608.845	27161.53
609.041	27052.98
609.236	27521.97
609.432	27110.33
609.628	27233.21
609.824	27245.49
610.019	27284.4
610.215	27157.43
610.411	27687.85
610.606	27167.67
610.802	27689.9
610.998	27454.39
611.193	27755.44
611.389	27548.59
611.584	27261.88
611.78	27622.32
611.976	27661.23
612.171	27495.35
612.367	27415.47
612.562	27589.55
612.758	26915.77
612.953	27079.61
613.149	27583.41
613.344	27317.17
613.539	27530.16
613.735	27646.9
613.93	27737.01
614.126	27171.77
614.321	27837.36
614.517	27421.62
614.712	27464.63
614.907	26985.4
615.103	27581.36
615.298	27474.87
615.493	27317.17
615.688	27272.12
615.884	27876.27
616.079	27190.2
616.274	27511.73
616.47	27536.31
616.665	27319.22
616.86	27411.38
617.055	27456.43
617.25	27270.07
617.445	27663.28
617.641	27132.86
617.836	27100.09
618.031	27159.48
618.226	27288.5
618.421	27327.41
618.616	27319.22
618.811	26739.65
619.006	27194.29
619.201	26647.49
619.396	27050.94
619.591	26940.35
619.786	26772.41
619.981	26540.99
620.176	26772.41
620.371	26545.09
620.566	26491.84
620.761	26328
620.956	26414.02
621.151	26049.48
621.346	26133.45
621.541	25936.84
621.735	26059.72
621.93	25437.14
622.125	25785.29
622.32	25328.59
622.515	25721.8
622.709	25512.91
622.904	25545.68
623.099	25324.5
623.294	24841.18
623.488	24921.05
623.683	24886.23
623.878	24798.17
624.072	24785.88
624.267	24484.83
624.462	24536.03
624.656	24251.36
624.851	24081.38
625.046	24198.12
625.24	24142.82
625.435	23901.16
625.629	24001.51
625.824	23780.33
626.018	23538.67
626.213	23174.13
626.407	23352.31
626.602	23051.25
626.796	23430.13
626.991	23294.96
627.185	23063.54
627.38	23196.66
627.574	22569.98
627.768	22653.95
627.963	22762.49
628.157	22408.19
628.352	22365.18
628.546	22201.35
628.74	22414.34
628.935	22004.74
629.129	21804.04
629.323	21998.6
629.517	21560.33
629.712	21611.53
629.906	21312.53
630.1	21005.33
630.294	21275.66
630.489	21189.65
630.683	21341.2
630.877	20730.9
631.071	20925.46
631.265	20890.65
631.459	20548.64
631.653	20470.81
631.848	20452.38
632.042	20491.29
632.236	20300.83
632.43	19868.71
632.624	20145.19
632.818	19733.54
633.012	20003.88
633.206	19813.42
633.4	19897.38
633.594	19495.98
633.788	19614.76
633.982	19440.68
634.176	19414.06
634.369	19113.01
634.563	19211.31
634.757	19104.82
634.951	19184.69
635.145	19115.06
635.339	18781.24
635.533	18551.87
635.726	18617.4
635.92	18297.92
636.114	18525.24
636.308	18246.72
636.501	18181.18
636.695	18420.8
636.889	18054.21
637.083	17921.09
637.276	17757.25
637.47	17931.33
637.664	17439.82
637.857	17486.92
638.051	17462.35
638.244	17284.17
638.438	17476.68
638.632	17212.49
638.825	17011.79
639.019	16874.58
639.212	16864.34
639.406	16708.69
639.599	16790.61
639.793	16682.07
639.986	16534.62
640.18	16497.75
640.373	16364.64
640.567	16198.75
640.76	16135.26
640.954	15952.99
641.147	15940.71
641.34	15768.68
641.534	15811.68
641.727	15473.77
641.92	15524.97
642.114	15709.29
642.307	15496.3
642.5	15430.76
642.694	15201.39
642.887	15170.67
643.08	15146.09
643.273	15127.66
643.467	15230.06
643.66	14783.6
643.853	14533.75
644.046	14572.66
644.239	14652.53
644.432	14503.03
644.626	14408.83
644.819	14195.84
645.012	14396.54
645.205	14052.48
645.398	14115.97
645.591	13741.19
645.784	13773.96
645.977	13681.8
646.17	14087.29
646.363	13612.17
646.556	13509.77
646.749	13534.34
646.942	13390.99
647.135	13261.96
647.328	13376.65
647.521	13225.1
647.714	13028.49
647.907	13048.97
648.099	13087.89
648.292	13057.17
648.485	12889.23
648.678	12633.24
648.871	12666
649.064	12567.7
649.256	12506.26
649.449	12627.09
649.642	12430.49
649.835	12289.18
650.027	12237.98
650.22	12156.06
650.413	12031.13
650.605	12139.68
650.798	11881.63
650.991	11812
651.183	11934.88
651.376	11783.33
651.568	11736.23
651.761	11615.4
651.954	11582.63
652.146	11592.87
652.339	11531.43
652.531	11553.96
652.724	11271.34
652.916	11166.89
653.109	11289.77
653.301	11209.9
653.494	11166.89
653.686	10802.35
653.879	10888.37
654.071	11005.1
654.263	10894.51
654.456	10677.43
654.648	10914.99
654.84	10540.21
655.033	10607.8
655.225	10642.61
655.417	10656.95
655.61	10362.04
655.802	10546.36
655.994	10280.12
656.186	10388.66
656.379	10140.86
656.571	10106.04
656.763	9995.45
656.955	9989.31
657.148	10138.81
657.34	9983.17
657.532	9895.1
657.724	9954.49
657.916	9780.42
658.108	9872.57
658.3	9635.01
658.492	9716.93
658.684	9553.09
658.876	9571.52
659.068	9454.79
659.26	9295.05
659.452	9387.21
659.644	9397.45
659.836	9362.63
660.028	9239.75
660.22	9034.96
660.412	9186.51
660.604	8959.18
660.796	9247.94
660.988	9211.08
661.18	8834.25
661.372	8799.44
661.563	8735.95
661.755	8864.97
661.947	8791.25
662.139	8682.7
662.331	8692.94
662.522	8572.11
662.714	8641.75
662.906	8400.09
663.097	8715.47
663.289	8322.26
663.481	8375.51
663.673	8215.77
663.864	8164.57
664.056	8107.23
664.247	8281.3
664.439	7998.68
664.631	8248.54
664.822	7963.87
665.014	8113.37
665.205	7994.59
665.397	7726.3
665.588	7986.4
665.78	7781.6
665.971	7867.61
666.163	7783.65
666.354	7820.51
666.546	7748.83
666.737	7654.62
666.929	7548.13
667.12	7443.68
667.311	7521.51
667.503	7404.77
667.694	7326.95
667.885	7537.89
668.077	7431.4
668.268	7216.36
668.459	7398.63
668.651	7247.08
668.842	7224.55
669.033	7142.63
669.224	7288.04
669.416	7150.82
669.607	7191.78
669.798	7101.67
669.989	7193.83
670.18	6874.35
670.371	6888.68
670.563	6888.68
670.754	6782.19
670.945	6839.53
671.136	6989.03
671.327	6841.58
671.518	6847.72
671.709	6784.24
671.9	6819.05
672.091	6694.13
672.282	6749.42
672.473	6759.66
672.664	6642.93
672.855	6669.55
673.046	6526.19
673.237	6771.95
673.428	6694.13
673.619	6429.94
673.809	6446.32
674	6520.05
674.191	6487.28
674.382	6462.71
674.573	6368.5
674.764	6403.32
674.954	6651.12
675.145	6282.49
675.336	6270.2
675.527	6235.38
675.717	6358.26
675.908	6202.61
676.099	6268.15
676.289	6227.19
676.48	6368.5
676.671	6202.61
676.861	6364.4
677.052	6149.37
677.243	5979.39
677.433	5958.91
677.624	6167.8
677.814	6219
678.005	6012.15
678.195	6065.4
678.386	6085.88
678.576	6055.16
678.767	6003.96
678.957	6022.39
679.148	6030.59
679.338	5934.33
679.529	6049.02
679.719	5989.63
679.909	6173.94
680.1	5899.52
680.29	6067.45
680.481	5965.05
680.671	5997.82
680.861	5758.21
681.052	5997.82
681.242	5668.09
681.432	5907.71
681.622	5743.87
681.813	5713.15
682.003	5709.05
682.193	5760.25
682.383	5870.84
682.573	5733.63
682.764	5917.95
682.954	5811.45
683.144	5891.32
683.334	5766.4
683.524	5876.99
683.714	5852.41
683.904	5618.94
684.094	5604.61
684.284	5725.44
684.474	5786.88
684.664	5614.85
684.854	5659.9
685.044	5586.18
685.234	5741.82
685.424	5666.05
685.614	5547.26
685.804	5633.28
685.994	5496.07
686.184	5606.66
686.374	5602.56
686.564	5508.35
686.753	5528.83
686.943	5356.8
687.133	5555.46
687.323	5471.49
687.513	5537.02
687.702	5422.34
687.892	5414.15
688.082	5365
688.272	5471.49
688.461	5436.67
688.651	5442.82
688.841	5389.57
689.03	5399.81
689.22	5410.05
689.41	5293.32
689.599	5221.64
689.789	5319.94
689.979	5311.75
690.168	5274.88
690.358	5111.05
690.547	5051.66
690.737	5229.83
690.926	5137.67
691.116	5137.67
691.305	5217.54
691.495	5045.51
691.684	4891.91
691.874	5047.56
692.063	5033.22
692.252	5123.34
692.442	5205.25
692.631	4832.52
692.82	5004.55
693.01	4941.07
693.199	4898.06
693.388	4916.49
693.578	4926.73
693.767	4939.02
693.956	4652.3
694.146	4971.79
694.335	4885.77
694.524	4846.86
694.713	4783.37
694.902	4676.88
695.092	4748.56
695.281	4701.45
695.47	4799.76
695.659	4642.06
695.848	4744.46
696.037	4824.33
696.226	4683.02
696.415	4752.65
696.604	4609.3
696.793	4627.73
696.982	4750.6
697.171	4766.99
697.36	4801.8
697.549	4633.87
697.738	4635.92
697.927	4494.61
698.116	4654.35
698.305	4703.5
698.494	4693.26
698.683	4453.65
698.872	4605.2
699.061	4576.53
699.25	4545.81
699.438	4584.72
699.627	4379.92
699.816	4439.31
700.005	4510.99
700.193	4388.11
700.382	4447.51
700.571	4476.18
700.76	4328.72
700.948	4517.14
701.137	4381.97
701.326	4371.73
701.514	4234.52
701.703	4261.14
701.892	4332.82
702.08	4357.39
702.269	4349.2
702.457	4324.63
702.646	4320.53
702.834	4263.19
703.023	4265.24
703.212	4275.48
703.4	4320.53
703.589	4113.69
703.777	4216.09
703.965	4199.7
704.154	4244.76
704.342	4203.8
704.531	4060.44
704.719	4173.08
704.907	4136.21
705.096	4113.69
705.284	4058.39
705.472	4136.21
705.661	3982.62
705.849	4195.61
706.037	4107.54
706.226	4029.72
706.414	3970.33
706.602	3894.55
706.79	4013.34
706.979	3859.74
707.167	3982.62
707.355	4111.64
707.543	3982.62
707.731	4070.68
707.919	3892.51
708.107	3886.36
708.296	3943.71
708.484	3759.39
708.672	3880.22
708.86	3915.03
709.048	3761.44
709.236	3818.78
709.424	3845.4
709.612	3743
709.8	3857.69
709.988	3775.77
710.176	3820.83
710.364	3779.87
710.551	3720.48
710.739	3716.38
710.927	3720.48
711.115	3906.84
711.303	3853.59
711.491	3783.96
711.679	3679.52
711.866	3726.62
712.054	3638.56
712.242	3738.91
712.43	3753.24
712.617	3595.55
712.805	3632.41
712.993	3591.45
713.181	3630.37
713.368	3579.17
713.556	3634.46
713.744	3673.37
713.931	3603.74
714.119	3458.34
714.306	3628.32
714.494	3525.92
714.682	3450.14
714.869	3573.02
715.057	3423.52
715.244	3464.48
715.432	3407.14
715.619	3470.62
715.807	3521.82
715.994	3431.71
716.182	3562.78
716.369	3470.62
716.556	3474.72
716.744	3382.56
716.931	3489.06
717.119	3472.67
717.306	3349.79
717.493	3329.31
717.681	3362.08
717.868	3419.43
718.055	3456.29
718.242	3247.4
718.43	3411.23
718.617	3392.8
718.804	3190.05
718.991	3304.74
719.179	3439.9
719.366	3278.12
719.553	3280.16
719.74	3216.68
719.927	3280.16
720.114	3239.2
720.301	3091.75
720.488	3231.01
720.676	3185.96
720.863	3284.26
721.05	3198.24
721.237	3128.61
721.424	3257.64
721.611	3099.94
721.798	3151.14
721.985	3077.41
722.172	3138.85
722.358	3104.04
722.545	3147.05
722.732	2999.59
722.919	3083.56
723.106	3048.74
723.293	3175.72
723.48	3097.89
723.667	3128.61
723.853	3026.22
724.04	3079.46
724.227	3083.56
724.414	3095.85
724.6	3038.5
724.787	3087.65
724.974	2999.59
725.161	2827.56
725.347	2985.26
725.534	3028.26
725.72	3108.13
725.907	3042.6
726.094	2923.82
726.28	2993.45
726.467	3015.98
726.653	2870.57
726.84	2809.13
727.027	2981.16
727.213	2800.94
727.4	2923.82
727.586	2825.51
727.773	2876.71
727.959	2989.35
728.145	2925.86
728.332	2813.23
728.518	2745.64
728.705	2815.27
728.891	2843.95
729.077	2817.32
729.264	2889
729.45	2800.94
729.636	2829.61
729.823	2739.5
730.009	2768.17
730.195	2792.75
730.382	2774.31
730.568	2727.21
730.754	2614.57
730.94	2813.23
731.126	2821.42
731.313	2630.96
731.499	2735.4
731.685	2811.18
731.871	2776.36
732.057	2772.27
732.243	2661.68
732.429	2714.92
732.615	2710.83
732.801	2620.72
732.987	2628.91
733.173	2774.31
733.359	2753.84
733.545	2651.44
733.731	2712.88
733.917	2616.62
734.103	2856.23
734.289	2747.69
734.475	2602.29
734.661	2719.02
734.847	2567.47
735.033	2479.41
735.219	2557.23
735.404	2653.48
735.59	2573.61
735.776	2665.77
735.962	2501.94
736.148	2590
736.333	2612.53
736.519	2579.76
736.705	2501.94
736.89	2733.36
737.076	2497.84
737.262	2458.93
737.447	2481.46
737.633	2424.11
737.819	2432.3
738.004	2555.18
738.19	2436.4
738.375	2450.74
738.561	2493.74
738.747	2354.48
738.932	2501.94
739.118	2499.89
739.303	2555.18
739.489	2385.2
739.674	2270.51
739.859	2387.25
740.045	2381.1
740.23	2409.78
740.416	2395.44
740.601	2391.34
740.786	2540.85
740.972	2352.43
741.157	2344.24
741.342	2348.34
741.528	2362.67
741.713	2346.29
741.898	2288.95
742.084	2338.1
742.269	2329.91
742.454	2301.23
742.639	2321.71
742.824	2204.98
743.01	2315.57
743.195	2450.74
743.38	2231.6
743.565	2305.33
743.75	2237.75
743.935	2182.45
744.12	2209.08
744.305	2059.57
744.49	2219.32
744.675	2194.74
744.86	2055.48
745.045	2080.05
745.23	2164.02
745.415	2088.25
745.6	2039.09
745.785	2024.76
745.97	2245.94
746.155	2170.16
746.34	1991.99
746.525	1959.22
746.71	2053.43
746.895	2002.23
747.079	2004.28
747.264	2024.76
747.449	1973.56
747.634	1973.56
747.819	2012.47
748.003	1975.61
748.188	1926.46
748.373	1924.41
748.557	1985.85
748.742	1885.5
748.927	1924.41
749.111	1887.54
749.296	1817.91
749.481	1785.15
749.665	1803.58
749.85	1805.63
750.034	1764.67
750.219	1748.28
750.404	1799.48
750.588	1850.68
750.773	1723.71
750.957	1705.28
751.141	1664.32
751.326	1754.43
751.51	1744.19
751.695	1779
751.879	1791.29
752.064	1936.7
752.248	1695.04
752.432	1680.7
752.617	1781.05
752.801	1776.95
752.985	1582.4
753.17	1613.12
753.354	1609.02
753.538	1656.12
753.722	1533.25
753.907	1570.11
754.091	1598.78
754.275	1563.97
754.459	1617.21
754.643	1555.77
754.828	1578.3
755.012	1482.05
755.196	1537.34
755.38	1447.23
755.564	1510.72
755.748	1475.9
755.932	1508.67
756.116	1455.42
756.3	1457.47
756.484	1393.98
756.668	1367.36
756.852	1418.56
757.036	1369.41
757.22	1262.91
757.404	1400.13
757.588	1355.07
757.772	1334.59
757.956	1260.87
758.14	1320.26
758.323	1224
758.507	1293.63
758.691	1336.64
758.875	1383.74
759.059	1330.5
759.242	1326.4
759.426	1277.25
759.61	1310.02
759.794	1170.76
759.977	1342.78
760.161	1406.27
760.345	1240.39
760.528	1293.63
760.712	1156.42
760.895	1258.82
761.079	1281.35
761.263	1205.57
761.446	1137.99
761.63	1215.81
761.813	1170.76
761.997	1250.63
762.18	1170.76
762.364	1164.61
762.547	1131.84
762.731	1199.43
762.914	1113.41
763.098	1039.69
763.281	1074.5
763.464	1056.07
763.648	1168.71
763.831	1133.89
764.015	1039.69
764.198	1084.74
764.381	1125.7
764.564	1129.8
764.748	1072.45
764.931	1117.51
765.114	1121.6
765.297	1148.23
765.481	1072.45
765.664	1105.22
765.847	1070.4
766.03	1041.73
766.213	984.39
766.397	1047.88
766.58	1011.01
766.763	976.2
766.946	1006.92
767.129	1006.92
767.312	1002.82
767.495	1097.03
767.678	974.15
767.861	943.43
768.044	963.91
768.227	1011.01
768.41	1015.11
768.593	1113.41
768.776	972.1
768.959	1033.54
769.142	1041.73
769.324	1011.01
769.507	957.77
769.69	898.38
769.873	900.42
770.056	1006.92
770.239	949.57
770.421	1021.25
770.604	900.42
770.787	861.51
770.97	943.43
771.152	955.72
771.335	912.71
771.518	859.46
771.7	965.96
771.883	879.94
772.066	916.81
772.248	841.03
772.431	875.85
772.613	894.28
772.796	871.75
772.978	992.58
773.161	949.57
773.343	935.24
773.526	920.9
773.708	847.18
773.891	705.87
774.073	884.04
774.256	843.08
774.438	853.32
774.621	822.6
774.803	826.7
774.985	804.17
775.168	836.94
775.35	841.03
775.532	779.59
775.715	752.97
775.897	863.56
776.079	789.83
776.261	900.42
776.444	736.59
776.626	748.87
776.808	769.35
776.99	757.07
777.173	757.07
777.355	703.82
777.537	838.98
777.719	716.11
777.901	740.68
778.083	757.07
778.265	695.63
778.447	718.15
778.629	695.63
778.811	714.06
778.993	728.39
779.175	798.03
779.357	605.52
779.539	691.53
779.721	724.3
779.903	709.96
780.085	724.3
780.267	761.16
780.449	738.63
780.631	716.11
780.812	617.8
780.994	568.65
781.176	638.28
781.358	654.67
781.54	681.29
781.721	632.14
781.903	673.1
782.085	601.42
782.267	648.52
782.448	531.79
782.63	523.6
782.812	539.98
782.993	531.79
783.175	605.52
783.357	580.94
783.538	537.93
783.72	509.26
783.901	566.6
784.083	515.41
784.264	636.24
784.446	507.21
784.627	558.41
784.809	580.94
784.99	537.93
785.172	476.49
785.353	539.98
785.535	515.41
785.716	456.01
785.897	378.19
786.079	468.3
786.26	537.93
786.441	564.56
786.623	486.73
786.804	472.4
786.985	466.25
787.167	474.45
787.348	384.34
787.529	458.06
787.71	474.45
787.891	466.25
788.073	482.64
788.254	447.82
788.435	472.4
788.616	449.87
788.797	343.38
788.978	458.06
789.159	378.19
789.34	433.49
789.522	365.9
789.703	386.38
789.884	394.58
790.065	312.66
790.246	437.58
790.427	453.97
790.607	501.07
790.788	423.25
790.969	380.24
791.15	410.96
791.331	380.24
791.512	335.18
791.693	261.46
791.874	320.85
792.054	441.68
792.235	331.09
792.416	312.66
792.597	345.42
792.778	374.1
792.958	384.34
793.139	290.13
793.32	294.22
793.5	335.18
793.681	435.53
793.862	355.66
794.042	331.09
794.223	388.43
794.404	331.09
794.584	359.76
794.765	292.18
794.945	310.61
795.126	408.91
795.306	314.7
795.487	335.18
795.667	273.75
795.848	370
796.028	269.65
796.209	294.22
796.389	318.8
796.57	320.85
796.75	298.32
796.93	245.07
797.111	261.46
797.291	308.56
797.471	298.32
797.652	318.8
797.832	247.12
798.012	294.22
798.192	220.5
798.373	202.07
798.553	343.38
798.733	269.65
798.913	232.79
799.093	281.94
799.274	265.55
799.454	273.75
799.634	304.46
799.814	351.57
799.994	298.32
800.174	271.7
800.354	259.41
800.534	171.35
800.714	228.69
800.894	210.26
801.074	212.31
801.254	251.22
801.434	279.89
801.614	308.56
801.794	245.07
801.974	943.43
802.154	306.51
802.334	269.65
802.514	204.11
802.693	294.22
802.873	210.26
803.053	304.46
803.233	281.94
803.413	202.07
803.592	263.51
803.772	122.2
803.952	255.31
804.131	283.98
804.311	187.73
804.491	290.13
804.67	195.92
804.85	230.74
805.03	240.98
805.209	277.84
805.389	195.92
805.568	232.79
805.748	191.83
805.928	179.54
806.107	329.04
806.287	228.69
806.466	220.5
806.646	240.98
806.825	191.83
807.004	220.5
807.184	212.31
807.363	173.39
807.543	191.83
807.722	187.73
807.901	204.11
808.081	228.69
808.26	187.73
808.439	363.86
808.619	171.35
808.798	197.97
808.977	226.64
809.156	232.79
809.336	187.73
809.515	146.77
809.694	126.29
809.873	138.58
810.052	189.78
810.231	228.69
810.411	181.59
810.59	304.46
810.769	187.73
810.948	224.59
811.127	124.24
811.306	181.59
811.485	187.73
811.664	206.16
811.843	138.58
812.022	165.2
812.201	175.44
812.38	200.02
812.559	181.59
812.737	183.63
812.916	173.39
813.095	152.91
813.274	179.54
813.453	279.89
813.632	167.25
813.811	271.7
813.989	206.16
814.168	187.73
814.347	89.43
814.526	173.39
814.704	247.12
814.883	154.96
815.062	60.76
815.24	197.97
815.419	171.35
815.598	240.98
815.776	138.58
815.955	175.44
816.133	173.39
816.312	159.06
816.49	177.49
816.669	220.5
816.847	73.04
817.026	124.24
817.204	126.29
817.383	175.44
817.561	111.96
817.74	214.35
817.918	142.68
818.097	134.48
818.275	173.39
818.453	132.44
818.632	150.87
818.81	122.2
818.988	114
819.167	85.33
819.345	220.5
819.523	111.96
819.701	130.39
819.879	187.73
820.058	122.2
820.236	75.09
820.414	116.05
820.592	13.65
820.77	79.19
820.948	142.68
821.127	66.9
821.305	140.63
821.483	71
821.661	150.87
821.839	152.91
822.017	75.09
822.195	105.81
822.373	116.05
822.551	83.28
822.729	144.72
822.907	146.77
823.085	109.91
823.262	142.68
823.44	77.14
823.618	107.86
823.796	195.92
823.974	34.13
824.152	89.43
824.329	64.85
824.507	150.87
824.685	122.2
824.863	122.2
825.04	105.81
825.218	179.54
825.396	44.37
825.574	150.87
825.751	165.2
825.929	122.2
826.107	50.52
826.284	128.34
826.462	146.77
826.639	56.66
826.817	116.05
826.994	179.54
827.172	48.47
827.349	163.15
827.527	109.91
827.704	105.81
827.882	77.14
828.059	116.05
828.237	58.71
828.414	99.67
828.591	36.18
828.769	105.81
828.946	40.28
829.124	97.62
829.301	130.39
829.478	9.56
829.655	118.1
829.833	130.39
830.01	58.71
830.187	118.1
830.364	101.72
830.542	157.01
830.719	122.2
830.896	48.47
831.073	99.67
831.25	124.24
831.427	60.76
831.604	48.47
831.782	81.24
831.959	95.57
832.136	25.94
832.313	114
832.49	68.95
832.667	89.43
832.844	77.14
833.021	91.48
833.198	105.81
833.374	54.61
833.551	146.77
833.728	40.28
833.905	163.15
834.082	105.81
834.259	60.76
834.436	101.72
834.612	124.24
834.789	140.63
834.966	85.33
835.143	48.47
835.319	34.13
835.496	64.85
835.673	161.11
835.85	132.44
836.026	81.24
836.203	34.13
836.38	66.9
836.556	-19.11
836.733	40.28
836.909	146.77
837.086	73.04
837.262	97.62
837.439	58.71
837.616	114
837.792	97.62
837.968	154.96
838.145	1.37
838.321	138.58
838.498	66.9
838.674	89.43
838.851	150.87
839.027	64.85
839.203	114
839.38	79.19
839.556	81.24
839.732	48.47
839.909	66.9
840.085	58.71
840.261	42.32
840.437	77.14
840.614	23.89
840.79	114
840.966	46.42
841.142	44.37
841.318	38.23
841.494	44.37
841.671	107.86
841.847	81.24
842.023	17.75
842.199	58.71
842.375	66.9
842.551	-39.59
842.727	32.08
842.903	128.34
843.079	-25.26
843.255	56.66
843.431	46.42
843.607	97.62
843.783	44.37
843.959	15.7
844.134	68.95
844.31	89.43
844.486	-15.02
844.662	42.32
844.838	-12.97
845.013	15.7
845.189	62.8
845.365	83.28
845.541	32.08
845.716	44.37
845.892	36.18
846.068	56.66
846.244	93.52
846.419	23.89
846.595	40.28
846.77	89.43
846.946	52.56
847.122	64.85
847.297	97.62
847.473	91.48
847.648	23.89
847.824	11.61
847.999	34.13
848.175	21.84
848.35	-37.55
848.526	89.43
848.701	73.04
848.876	89.43
849.052	130.39
849.227	64.85
849.403	-6.83
849.578	23.89
849.753	73.04
849.929	64.85
850.104	-78.51
850.279	89.43
850.454	73.04
850.63	85.33
850.805	81.24
850.98	5.46
851.155	-19.11
851.33	23.89
851.505	52.56
851.681	85.33
851.856	89.43
852.031	105.81
852.206	91.48
852.381	27.99
852.556	-17.07
852.731	44.37
852.906	71
853.081	32.08
853.256	40.28
853.431	75.09
853.606	75.09
853.781	32.08
853.956	38.23
854.131	50.52
854.305	-0.68
854.48	23.89
854.655	34.13
854.83	7.51
855.005	42.32
855.18	25.94
855.354	-23.21
855.529	105.81
855.704	32.08
855.879	-19.11
856.053	-0.68
856.228	79.19
856.403	-19.11
856.577	34.13
856.752	60.76
856.926	73.04
857.101	27.99
857.276	1.37
857.45	50.52
857.625	101.72
857.799	23.89
857.974	89.43
858.148	-19.11
858.323	68.95
858.497	48.47
858.672	-0.68
858.846	40.28
859.02	-4.78
859.195	81.24
859.369	-23.21
859.543	79.19
859.718	-10.92
859.892	-17.07
860.066	9.56
860.241	-4.78
860.415	15.7
860.589	-33.45
860.763	-41.64
860.938	36.18
861.112	46.42
861.286	15.7
861.46	85.33
861.634	32.08
861.808	85.33
861.982	48.47
862.157	23.89
862.331	-17.07
862.505	-33.45
862.679	-82.6
862.853	-41.64
863.027	7.51
863.201	97.62
863.375	-2.73
863.549	56.66
863.722	73.04
863.896	91.48
864.07	87.38
864.244	17.75
864.418	15.7
864.592	-33.45
864.766	1.37
864.939	52.56
865.113	-53.93
865.287	109.91
865.461	-49.83
865.634	1.37
865.808	-6.83
865.982	-49.83
866.156	25.94
866.329	-31.4
866.503	23.89
866.676	19.8
866.85	-25.26
867.024	17.75
867.197	56.66
867.371	58.71
867.544	19.8
867.718	-8.87
867.891	68.95
868.065	7.51
868.238	-15.02
868.412	83.28
868.585	64.85
868.759	15.7
868.932	-23.21
869.105	11.61
869.279	-49.83
869.452	-17.07
869.625	-6.83
869.799	34.13
869.972	-6.83
870.145	1.37
870.319	50.52
870.492	-58.03
870.665	3.41
870.838	50.52
871.011	97.62
871.185	32.08
871.358	11.61
871.531	85.33
871.704	-53.93
871.877	-0.68
872.05	9.56
872.223	-58.03
872.396	107.86
872.569	25.94
872.742	-31.4
872.915	-45.74
873.088	48.47
873.261	25.94
873.434	75.09
873.607	64.85
873.78	105.81
873.953	7.51
874.126	64.85
874.299	97.62
874.471	-6.83
874.644	3.41
874.817	-6.83
874.99	81.24
875.163	-25.26
875.335	68.95
875.508	-0.68
875.681	36.18
875.853	68.95
876.026	15.7
876.199	-0.68
876.371	64.85
876.544	-41.64
876.717	-21.16
876.889	52.56
877.062	34.13
877.234	-53.93
877.407	7.51
877.579	-2.73
877.752	-72.36
877.924	58.71
878.097	64.85
878.269	-21.16
878.442	42.32
878.614	3.41
878.786	81.24
878.959	44.37
879.131	50.52
879.303	36.18
879.476	21.84
879.648	93.52
879.82	40.28
879.993	-68.27
880.165	48.47
880.337	-64.17
880.509	17.75
880.681	-33.45
880.854	15.7
881.026	27.99
881.198	81.24
881.37	-33.45
881.542	58.71
881.714	-39.59
881.886	15.7
882.058	64.85
882.23	23.89
882.402	30.04
882.574	7.51
882.746	-66.22
882.918	60.76
883.09	60.76
883.262	93.52
883.434	-17.07
883.606	1.37
883.778	-39.59
883.95	87.38
884.122	9.56
884.293	75.09
884.465	64.85
884.637	58.71
884.809	-31.4
884.98	7.51
885.152	-33.45
885.324	-25.26
885.496	-33.45
885.667	-4.78
885.839	-66.22
886.011	81.24
886.182	56.66
886.354	-17.07
886.525	11.61
886.697	64.85
886.869	-47.79
887.04	48.47
887.212	64.85
887.383	64.85
887.555	48.47
887.726	30.04
887.897	9.56
888.069	-23.21
888.24	77.14
888.412	-25.26
888.583	17.75
888.754	-8.87
888.926	-0.68
889.097	-0.68
889.268	-55.98
889.44	3.41
889.611	15.7
889.782	-90.79
889.953	-29.35
890.125	32.08
890.296	1.37
890.467	17.75
890.638	-15.02
890.809	-45.74
890.98	-12.97
891.151	56.66
891.323	77.14
891.494	50.52
891.665	15.7
891.836	-8.87
892.007	-23.21
892.178	30.04
892.349	42.32
892.52	11.61
892.691	-8.87
892.862	40.28
893.032	-0.68
893.203	-4.78
893.374	40.28
893.545	-8.87
893.716	-41.64
893.887	52.56
894.057	-29.35
894.228	7.51
894.399	-62.12
894.57	-6.83
894.74	-17.07
894.911	73.04
895.082	40.28
895.253	32.08
895.423	-12.97
895.594	23.89
895.764	32.08
895.935	-119.46
896.106	38.23
896.276	11.61
896.447	87.38
896.617	15.7
896.788	32.08
896.958	-0.68
897.129	-6.83
897.299	-8.87
897.47	60.76
897.64	85.33
897.81	3.41
897.981	-19.11
898.151	-0.68
898.322	25.94
898.492	42.32
898.662	-41.64
898.832	60.76
899.003	34.13
899.173	60.76
899.343	46.42
899.513	-4.78
