Data from USB4F104151__133__14-31-42-802.txt Node

Date: Thu Mar 13 14:31:42 EDT 2025
User: louis
Spectrometer: USB4F10415
Trigger mode: 4
Integration Time (sec): 2.500000E-2
Scans to average: 1
Electric dark correction enabled: true
Nonlinearity correction enabled: false
Boxcar width: 0
XAxis mode: Wavelengths
Number of Pixels in Spectrum: 3648
>>>>>Begin Spectral Data<<<<<
178.204	-152.91
178.424	-152.91
178.644	-152.91
178.864	-154.96
179.084	-157.01
179.304	4.78
179.524	-7.51
179.744	-54.61
179.964	43.69
180.184	-19.8
180.404	23.21
180.624	35.5
180.844	37.55
181.064	-44.37
181.283	15.02
181.503	-81.24
181.723	47.79
181.943	-25.94
182.163	51.88
182.383	-23.89
182.602	115.37
182.822	76.46
183.042	8.87
183.262	-1.37
183.482	17.07
183.701	-42.32
183.921	-25.94
184.141	-7.51
184.361	115.37
184.58	15.02
184.8	2.73
185.02	15.02
185.239	17.07
185.459	23.21
185.679	15.02
185.898	-17.75
186.118	80.55
186.338	-5.46
186.557	90.79
186.777	60.07
186.997	-38.23
187.216	-34.13
187.436	72.36
187.655	6.83
187.875	47.79
188.095	-30.04
188.314	31.4
188.534	88.75
188.753	-23.89
188.973	23.21
189.192	64.17
189.412	96.94
189.631	-48.47
189.851	49.83
190.07	25.26
190.29	8.87
190.509	-7.51
190.729	-1.37
190.948	117.42
191.168	121.51
191.387	27.31
191.607	6.83
191.826	23.21
192.045	33.45
192.265	-38.23
192.484	25.26
192.704	51.88
192.923	-5.46
193.142	96.94
193.362	23.21
193.581	76.46
193.8	49.83
194.02	31.4
194.239	70.31
194.458	23.21
194.678	47.79
194.897	-9.56
195.116	-1.37
195.335	6.83
195.555	-15.7
195.774	-23.89
195.993	82.6
196.212	39.59
196.432	15.02
196.651	19.11
196.87	23.21
197.089	121.51
197.308	107.18
197.528	49.83
197.747	-48.47
197.966	51.88
198.185	115.37
198.404	8.87
198.623	19.11
198.842	6.83
199.062	88.75
199.281	96.94
199.5	15.02
199.719	103.08
199.938	0.68
200.157	25.26
200.376	43.69
200.595	76.46
200.814	43.69
201.033	-9.56
201.252	51.88
201.471	-7.51
201.69	25.26
201.909	31.4
202.128	88.75
202.347	109.23
202.566	31.4
202.785	-11.61
203.004	0.68
203.223	47.79
203.442	90.79
203.661	-21.85
203.879	74.41
204.098	101.03
204.317	-58.71
204.536	31.4
204.755	41.64
204.974	0.68
205.193	96.94
205.411	37.55
205.63	55.98
205.849	15.02
206.068	15.02
206.287	31.4
206.505	51.88
206.724	8.87
206.943	-7.51
207.162	8.87
207.381	-9.56
207.599	-30.04
207.818	39.59
208.037	21.16
208.255	15.02
208.474	121.51
208.693	129.7
208.911	-23.89
209.13	23.21
209.349	23.21
209.567	17.07
209.786	68.27
210.005	-42.32
210.223	92.84
210.442	0.68
210.661	29.35
210.879	-9.56
211.098	76.46
211.316	12.97
211.535	64.17
211.753	-21.85
211.972	60.07
212.191	49.83
212.409	-3.41
212.628	15.02
212.846	0.68
213.065	49.83
213.283	92.84
213.502	4.78
213.72	23.21
213.938	17.07
214.157	39.59
214.375	10.92
214.594	8.87
214.812	72.36
215.031	-13.65
215.249	47.79
215.467	-13.65
215.686	53.93
215.904	43.69
216.122	17.07
216.341	8.87
216.559	78.51
216.778	15.02
216.996	109.23
217.214	4.78
217.432	-62.8
217.651	-23.89
217.869	19.11
218.087	64.17
218.306	-42.32
218.524	58.03
218.742	-58.71
218.96	80.55
219.179	-11.61
219.397	-15.7
219.615	82.6
219.833	90.79
220.051	-13.65
220.27	-1.37
220.488	23.21
220.706	39.59
220.924	-32.08
221.142	25.26
221.36	33.45
221.578	82.6
221.796	76.46
222.015	27.31
222.233	-23.89
222.451	60.07
222.669	-64.85
222.887	-9.56
223.105	64.17
223.323	-17.75
223.541	21.16
223.759	49.83
223.977	-15.7
224.195	113.32
224.413	64.17
224.631	35.5
224.849	10.92
225.067	121.51
225.285	27.31
225.503	55.98
225.721	-34.13
225.939	105.13
226.157	0.68
226.375	146.09
226.592	27.31
226.81	6.83
227.028	70.31
227.246	47.79
227.464	31.4
227.682	121.51
227.9	2.73
228.117	8.87
228.335	88.75
228.553	39.59
228.771	37.55
228.989	47.79
229.206	-21.85
229.424	15.02
229.642	66.22
229.86	19.11
230.077	64.17
230.295	72.36
230.513	60.07
230.731	31.4
230.948	47.79
231.166	47.79
231.384	33.45
231.601	96.94
231.819	103.08
232.037	25.26
232.254	25.26
232.472	-42.32
232.689	15.02
232.907	162.47
233.125	41.64
233.342	-11.61
233.56	33.45
233.777	-15.7
233.995	43.69
234.213	94.89
234.43	-7.51
234.648	-17.75
234.865	17.07
235.083	148.14
235.3	-3.41
235.518	92.84
235.735	80.55
235.953	64.17
236.17	23.21
236.388	39.59
236.605	76.46
236.822	39.59
237.04	2.73
237.257	31.4
237.475	-46.42
237.692	-48.47
237.909	-42.32
238.127	105.13
238.344	92.84
238.562	-34.13
238.779	-30.04
238.996	-42.32
239.214	0.68
239.431	15.02
239.648	-25.94
239.865	39.59
240.083	0.68
240.3	117.42
240.517	6.83
240.735	23.21
240.952	115.37
241.169	82.6
241.386	55.98
241.603	-32.08
241.821	-1.37
242.038	43.69
242.255	-79.19
242.472	4.78
242.689	156.33
242.907	33.45
243.124	31.4
243.341	68.27
243.558	-58.71
243.775	25.26
243.992	-1.37
244.209	55.98
244.426	49.83
244.643	47.79
244.86	43.69
245.078	49.83
245.295	15.02
245.512	-1.37
245.729	-19.8
245.946	15.02
246.163	84.65
246.38	-48.47
246.597	25.26
246.814	2.73
247.031	0.68
247.248	141.99
247.464	-5.46
247.681	31.4
247.898	62.12
248.115	74.41
248.332	15.02
248.549	60.07
248.766	47.79
248.983	2.73
249.2	6.83
249.417	25.26
249.633	8.87
249.85	45.74
250.067	47.79
250.284	0.68
250.501	-30.04
250.717	41.64
250.934	23.21
251.151	43.69
251.368	43.69
251.585	2.73
251.801	-9.56
252.018	35.5
252.235	103.08
252.451	55.98
252.668	-1.37
252.885	55.98
253.102	76.46
253.318	60.07
253.535	45.74
253.752	43.69
253.968	43.69
254.185	-48.47
254.401	-1.37
254.618	105.13
254.835	-66.9
255.051	76.46
255.268	-60.76
255.484	8.87
255.701	4.78
255.917	82.6
256.134	-103.76
256.351	43.69
256.567	-3.41
256.784	45.74
257	47.79
257.217	84.65
257.433	66.22
257.65	53.93
257.866	82.6
258.082	-56.66
258.299	55.98
258.515	90.79
258.732	-3.41
258.948	27.31
259.165	121.51
259.381	-40.28
259.597	80.55
259.814	49.83
260.03	-3.41
260.246	72.36
260.463	115.37
260.679	-7.51
260.895	-1.37
261.112	88.75
261.328	17.07
261.544	-81.24
261.761	72.36
261.977	15.02
262.193	17.07
262.409	41.64
262.626	21.16
262.842	17.07
263.058	37.55
263.274	35.5
263.49	76.46
263.707	23.21
263.923	60.07
264.139	0.68
264.355	51.88
264.571	23.21
264.787	117.42
265.004	39.59
265.22	-44.37
265.436	88.75
265.652	107.18
265.868	-34.13
266.084	15.02
266.3	25.26
266.516	33.45
266.732	23.21
266.948	58.03
267.164	27.31
267.38	10.92
267.596	39.59
267.812	107.18
268.028	64.17
268.244	-9.56
268.46	121.51
268.676	-81.24
268.892	80.55
269.108	62.12
269.324	-32.08
269.54	17.07
269.756	88.75
269.972	-9.56
270.188	60.07
270.403	72.36
270.619	43.69
270.835	-17.75
271.051	25.26
271.267	-34.13
271.483	23.21
271.698	55.98
271.914	10.92
272.13	-38.23
272.346	10.92
272.562	23.21
272.777	15.02
272.993	-30.04
273.209	58.03
273.425	53.93
273.64	-9.56
273.856	45.74
274.072	19.11
274.287	-5.46
274.503	27.31
274.719	96.94
274.934	80.55
275.15	39.59
275.366	55.98
275.581	41.64
275.797	0.68
276.012	8.87
276.228	-5.46
276.444	10.92
276.659	12.97
276.875	33.45
277.09	21.16
277.306	39.59
277.521	-1.37
277.737	31.4
277.952	27.31
278.168	23.21
278.383	64.17
278.599	-32.08
278.814	15.02
279.03	19.11
279.245	82.6
279.461	-9.56
279.676	47.79
279.892	-42.32
280.107	-15.7
280.322	-9.56
280.538	31.4
280.753	-13.65
280.969	33.45
281.184	43.69
281.399	84.65
281.615	10.92
281.83	-3.41
282.045	17.07
282.26	23.21
282.476	49.83
282.691	78.51
282.906	31.4
283.122	121.51
283.337	-9.56
283.552	-17.75
283.767	74.41
283.983	68.27
284.198	31.4
284.413	33.45
284.628	6.83
284.843	0.68
285.058	84.65
285.274	37.55
285.489	-11.61
285.704	-5.46
285.919	43.69
286.134	39.59
286.349	17.07
286.564	6.83
286.779	144.04
286.995	27.31
287.21	47.79
287.425	39.59
287.64	43.69
287.855	-7.51
288.07	15.02
288.285	119.46
288.5	39.59
288.715	10.92
288.93	31.4
289.145	45.74
289.36	-1.37
289.575	125.61
289.79	47.79
290.004	-7.51
290.219	29.35
290.434	-23.89
290.649	-7.51
290.864	-7.51
291.079	8.87
291.294	45.74
291.509	82.6
291.724	58.03
291.938	-17.75
292.153	58.03
292.368	19.11
292.583	8.87
292.798	39.59
293.012	96.94
293.227	12.97
293.442	15.02
293.657	19.11
293.871	98.99
294.086	-5.46
294.301	90.79
294.516	74.41
294.73	31.4
294.945	19.11
295.16	25.26
295.374	43.69
295.589	74.41
295.804	-27.99
296.018	49.83
296.233	31.4
296.447	-5.46
296.662	-83.28
296.877	41.64
297.091	39.59
297.306	64.17
297.52	55.98
297.735	58.03
297.949	17.07
298.164	-1.37
298.378	76.46
298.593	-9.56
298.807	60.07
299.022	6.83
299.236	39.59
299.451	17.07
299.665	43.69
299.88	23.21
300.094	-17.75
300.309	15.02
300.523	43.69
300.737	76.46
300.952	-1.37
301.166	25.26
301.381	15.02
301.595	0.68
301.809	15.02
302.024	76.46
302.238	55.98
302.452	55.98
302.667	39.59
302.881	84.65
303.095	51.88
303.309	-9.56
303.524	12.97
303.738	80.55
303.952	-25.94
304.166	43.69
304.381	-15.7
304.595	33.45
304.809	-30.04
305.023	60.07
305.237	0.68
305.452	27.31
305.666	96.94
305.88	76.46
306.094	43.69
306.308	6.83
306.522	96.94
306.736	33.45
306.95	139.94
307.164	51.88
307.379	6.83
307.593	45.74
307.807	45.74
308.021	-23.89
308.235	51.88
308.449	25.26
308.663	-5.46
308.877	74.41
309.091	-17.75
309.305	82.6
309.519	-3.41
309.733	72.36
309.947	-9.56
310.161	45.74
310.374	12.97
310.588	41.64
310.802	31.4
311.016	23.21
311.23	31.4
311.444	-11.61
311.658	39.59
311.872	55.98
312.085	64.17
312.299	96.94
312.513	58.03
312.727	80.55
312.941	-25.94
313.154	-42.32
313.368	72.36
313.582	47.79
313.796	35.5
314.009	21.16
314.223	90.79
314.437	19.11
314.651	80.55
314.864	-34.13
315.078	23.21
315.292	6.83
315.505	31.4
315.719	21.16
315.933	41.64
316.146	25.26
316.36	47.79
316.573	55.98
316.787	92.84
317.001	31.4
317.214	-15.7
317.428	2.73
317.641	35.5
317.855	47.79
318.068	58.03
318.282	27.31
318.495	72.36
318.709	41.64
318.922	39.59
319.136	25.26
319.349	64.17
319.563	72.36
319.776	113.32
319.99	-25.94
320.203	72.36
320.417	-30.04
320.63	6.83
320.843	62.12
321.057	60.07
321.27	41.64
321.483	-7.51
321.697	92.84
321.91	64.17
322.124	37.55
322.337	41.64
322.55	12.97
322.763	6.83
322.977	82.6
323.19	-38.23
323.403	55.98
323.617	0.68
323.83	15.02
324.043	-23.89
324.256	-3.41
324.469	-75.09
324.683	47.79
324.896	82.6
325.109	80.55
325.322	25.26
325.535	76.46
325.748	37.55
325.962	-17.75
326.175	-25.94
326.388	-66.9
326.601	88.75
326.814	15.02
327.027	49.83
327.24	84.65
327.453	-34.13
327.666	31.4
327.879	96.94
328.092	64.17
328.305	25.26
328.518	2.73
328.731	41.64
328.944	47.79
329.157	35.5
329.37	6.83
329.583	111.27
329.796	21.16
330.009	-15.7
330.222	64.17
330.435	80.55
330.648	33.45
330.861	31.4
331.073	88.75
331.286	23.21
331.499	90.79
331.712	-75.09
331.925	39.59
332.138	10.92
332.35	49.83
332.563	31.4
332.776	80.55
332.989	-34.13
333.202	25.26
333.414	-3.41
333.627	94.89
333.84	-5.46
334.053	72.36
334.265	64.17
334.478	-7.51
334.691	41.64
334.903	88.75
335.116	-15.7
335.329	4.78
335.541	-27.99
335.754	43.69
335.966	-1.37
336.179	31.4
336.392	6.83
336.604	55.98
336.817	15.02
337.029	84.65
337.242	58.03
337.454	6.83
337.667	-3.41
337.88	-9.56
338.092	45.74
338.305	33.45
338.517	17.07
338.729	92.84
338.942	47.79
339.154	-34.13
339.367	23.21
339.579	31.4
339.792	15.02
340.004	60.07
340.217	6.83
340.429	23.21
340.641	39.59
340.854	0.68
341.066	17.07
341.278	113.32
341.491	90.79
341.703	47.79
341.915	21.16
342.128	-54.61
342.34	-19.8
342.552	-38.23
342.764	35.5
342.977	39.59
343.189	64.17
343.401	68.27
343.613	17.07
343.826	96.94
344.038	55.98
344.25	47.79
344.462	2.73
344.674	35.5
344.886	27.31
345.099	-40.28
345.311	66.22
345.523	-1.37
345.735	55.98
345.947	10.92
346.159	55.98
346.371	-32.08
346.583	-7.51
346.795	47.79
347.007	68.27
347.219	80.55
347.431	51.88
347.643	27.31
347.855	-46.42
348.067	90.79
348.279	23.21
348.491	-27.99
348.703	51.88
348.915	17.07
349.127	2.73
349.339	25.26
349.551	6.83
349.763	68.27
349.975	-23.89
350.187	-25.94
350.399	74.41
350.61	129.7
350.822	43.69
351.034	76.46
351.246	-9.56
351.458	12.97
351.669	76.46
351.881	92.84
352.093	35.5
352.305	41.64
352.517	4.78
352.728	76.46
352.94	19.11
353.152	60.07
353.363	-3.41
353.575	47.79
353.787	135.85
353.999	60.07
354.21	82.6
354.422	29.35
354.633	66.22
354.845	33.45
355.057	17.07
355.268	8.87
355.48	92.84
355.692	-52.56
355.903	-13.65
356.115	41.64
356.326	-1.37
356.538	21.16
356.749	19.11
356.961	55.98
357.172	0.68
357.384	-17.75
357.595	123.56
357.807	17.07
358.018	47.79
358.23	10.92
358.441	25.26
358.653	101.03
358.864	53.93
359.075	107.18
359.287	55.98
359.498	49.83
359.709	25.26
359.921	33.45
360.132	-25.94
360.344	23.21
360.555	15.02
360.766	43.69
360.977	39.59
361.189	55.98
361.4	68.27
361.611	64.17
361.823	84.65
362.034	49.83
362.245	-40.28
362.456	6.83
362.667	47.79
362.879	-23.89
363.09	25.26
363.301	23.21
363.512	113.32
363.723	90.79
363.935	90.79
364.146	60.07
364.357	23.21
364.568	27.31
364.779	15.02
364.99	-1.37
365.201	49.83
365.412	78.51
365.623	-5.46
365.834	66.22
366.045	78.51
366.256	0.68
366.467	33.45
366.678	66.22
366.889	80.55
367.1	19.11
367.311	25.26
367.522	19.11
367.733	70.31
367.944	23.21
368.155	58.03
368.366	80.55
368.577	103.08
368.788	-13.65
368.999	15.02
369.209	55.98
369.42	58.03
369.631	92.84
369.842	47.79
370.053	96.94
370.264	47.79
370.474	6.83
370.685	43.69
370.896	-7.51
371.107	113.32
371.317	47.79
371.528	125.61
371.739	33.45
371.95	141.99
372.16	64.17
372.371	-48.47
372.582	31.4
372.792	62.12
373.003	64.17
373.214	115.37
373.424	23.21
373.635	10.92
373.846	101.03
374.056	58.03
374.267	23.21
374.477	111.27
374.688	37.55
374.898	90.79
375.109	51.88
375.319	68.27
375.53	129.7
375.74	39.59
375.951	80.55
376.161	55.98
376.372	27.31
376.582	6.83
376.793	101.03
377.003	25.26
377.214	39.59
377.424	45.74
377.635	105.13
377.845	55.98
378.055	51.88
378.266	-13.65
378.476	72.36
378.686	10.92
378.897	64.17
379.107	23.21
379.317	88.75
379.528	58.03
379.738	113.32
379.948	15.02
380.158	39.59
380.369	72.36
380.579	92.84
380.789	-81.24
380.999	55.98
381.21	-30.04
381.42	60.07
381.63	39.59
381.84	72.36
382.05	-36.18
382.261	8.87
382.471	66.22
382.681	113.32
382.891	43.69
383.101	17.07
383.311	-11.61
383.521	33.45
383.731	72.36
383.941	80.55
384.151	47.79
384.361	66.22
384.571	-5.46
384.781	66.22
384.991	139.94
385.201	154.28
385.411	103.08
385.621	58.03
385.831	68.27
386.041	2.73
386.251	76.46
386.461	60.07
386.671	105.13
386.881	33.45
387.091	49.83
387.301	123.56
387.511	74.41
387.72	121.51
387.93	29.35
388.14	15.02
388.35	25.26
388.56	121.51
388.769	27.31
388.979	68.27
389.189	17.07
389.399	37.55
389.609	43.69
389.818	80.55
390.028	35.5
390.238	76.46
390.447	47.79
390.657	74.41
390.867	90.79
391.076	15.02
391.286	58.03
391.496	88.75
391.705	53.93
391.915	49.83
392.125	43.69
392.334	88.75
392.544	31.4
392.753	8.87
392.963	96.94
393.172	19.11
393.382	66.22
393.591	101.03
393.801	88.75
394.01	148.14
394.22	127.66
394.429	39.59
394.639	82.6
394.848	55.98
395.058	-23.89
395.267	80.55
395.477	80.55
395.686	156.33
395.895	66.22
396.105	197.29
396.314	41.64
396.524	55.98
396.733	31.4
396.942	80.55
397.152	94.89
397.361	105.13
397.57	131.75
397.78	117.42
397.989	80.55
398.198	195.24
398.407	55.98
398.617	0.68
398.826	68.27
399.035	74.41
399.244	129.7
399.453	23.21
399.663	82.6
399.872	96.94
400.081	58.03
400.29	166.57
400.499	60.07
400.708	109.23
400.917	80.55
401.127	88.75
401.336	55.98
401.545	166.57
401.754	111.27
401.963	64.17
402.172	55.98
402.381	150.18
402.59	82.6
402.799	170.66
403.008	49.83
403.217	191.14
403.426	60.07
403.635	84.65
403.844	156.33
404.053	121.51
404.262	162.47
404.471	176.81
404.68	90.79
404.888	137.9
405.097	109.23
405.306	82.6
405.515	205.48
405.724	152.23
405.933	178.86
406.142	223.91
406.35	154.28
406.559	178.86
406.768	213.67
406.977	268.97
407.185	162.47
407.394	162.47
407.603	158.38
407.812	254.63
408.02	283.3
408.229	215.72
408.438	221.86
408.646	223.91
408.855	217.77
409.064	279.21
409.272	279.21
409.481	363.17
409.69	228.01
409.898	221.86
410.107	359.08
410.315	342.69
410.524	352.93
410.733	336.55
410.941	377.51
411.15	385.7
411.358	365.22
411.567	393.89
411.775	350.89
411.984	490.15
412.192	418.47
412.401	463.52
412.609	465.57
412.818	508.58
413.026	553.63
413.234	524.96
413.443	576.16
413.651	584.35
413.86	586.4
414.068	746.14
414.276	711.33
414.485	615.07
414.693	666.27
414.901	653.98
415.11	778.91
415.318	717.47
415.526	789.15
415.734	768.67
415.943	846.49
416.151	932.51
416.359	850.59
416.567	940.7
416.776	957.08
416.984	1047.19
417.192	1010.33
417.4	1063.58
417.608	1096.35
417.817	1084.06
418.025	1131.16
418.233	1204.89
418.441	1182.36
418.649	1342.1
418.857	1424.02
419.065	1415.83
419.273	1419.92
419.481	1368.73
419.689	1571.47
419.897	1587.86
420.105	1606.29
420.313	1747.6
420.521	1798.8
420.729	1718.93
420.937	1847.95
421.145	1907.34
421.353	2050.7
421.561	2040.46
421.769	2085.51
421.977	2253.45
422.185	2235.02
422.393	2290.31
422.601	2468.49
422.809	2513.54
423.017	2355.85
423.224	2554.5
423.432	2593.41
423.64	2663.04
423.848	2976.38
424.056	2808.45
424.263	3029.63
424.471	3013.24
424.679	3056.25
424.887	3330.68
425.094	3369.59
425.302	3324.54
425.51	3539.57
425.718	3652.21
425.925	3670.64
426.133	3768.95
426.341	4045.42
426.548	4147.82
426.756	4063.85
426.964	4258.41
427.171	4346.47
427.379	4549.22
427.586	4627.04
427.794	4799.07
428.001	4842.08
428.209	5210.72
428.417	5132.89
428.624	5524.05
428.832	5376.6
429.039	5401.18
429.247	5403.22
429.454	5904.98
429.662	6369.87
429.869	5855.83
430.076	6412.87
430.284	6269.52
430.491	6357.58
430.699	6634.05
430.906	6767.17
431.114	6963.78
431.321	7133.76
431.528	7279.16
431.736	7735.86
431.943	7930.42
432.15	7977.52
432.358	7719.48
432.565	8477.23
432.772	8432.17
432.979	8763.94
433.187	8747.56
433.394	8845.86
433.601	9665.05
433.808	9511.45
434.016	9529.88
434.223	9841.17
434.43	10418.7
434.637	10185.23
434.844	10715.66
435.052	10816.01
435.259	10820.1
435.466	11176.45
435.673	11037.19
435.88	11504.12
436.087	12196.34
436.294	12347.89
436.501	12091.89
436.708	12270.06
436.915	12704.23
437.122	13031.91
437.329	13154.79
437.537	13511.13
437.743	13740.5
437.95	13763.03
438.157	14639.56
438.364	14924.23
438.571	14741.96
438.778	14838.22
438.985	16359.86
439.192	15616.44
439.399	16073.14
439.606	15661.5
439.813	16718.25
440.02	17801.63
440.227	17422.75
440.433	17310.11
440.64	17668.51
440.847	17392.03
441.054	18069.91
441.261	18999.69
441.467	18778.51
441.674	19607.94
441.881	20109.69
442.088	19945.85
442.294	19966.33
442.501	20287.86
442.708	20873.58
442.914	21711.2
443.121	22468.95
443.328	22022.49
443.534	23191.88
443.741	22552.91
443.948	22524.24
444.154	23650.63
444.361	23914.81
444.568	23839.04
444.774	23908.67
444.981	24230.2
445.187	24631.6
445.394	25848.1
445.6	25649.44
445.807	28217.6
446.013	27146.51
446.22	27453.7
446.426	28629.24
446.633	28698.87
446.839	29829.35
447.046	28358.91
447.252	30310.62
447.459	30009.57
447.665	29946.08
447.871	31205.58
448.078	32469.18
448.284	30804.18
448.491	31721.67
448.697	32909.49
448.903	33644.71
449.11	33538.22
449.316	33011.89
449.522	33779.88
449.728	34859.16
449.935	34635.93
450.141	34676.89
450.347	35702.92
450.553	34502.81
450.76	35070.1
450.966	36036.74
451.172	35514.51
451.378	36937.85
451.584	35735.69
451.791	36702.33
451.997	36847.74
452.203	37122.16
452.409	36974.71
452.615	37128.31
452.821	35467.41
453.027	35324.05
453.233	36790.39
453.44	35403.92
453.646	35938.44
453.852	35991.69
454.058	36687.99
454.264	35539.08
454.47	36169.86
454.676	35164.31
454.882	36425.85
455.088	33226.93
455.294	33970.34
455.5	34097.31
455.705	34842.77
455.911	33208.5
456.117	32889.01
456.323	32426.17
456.529	30642.39
456.735	31699.14
456.941	30826.71
457.147	30501.08
457.352	29417.71
457.558	29282.54
457.764	29346.03
457.97	28467.45
458.176	28006.66
458.381	27916.54
458.587	26984.72
458.793	26499.35
458.999	25202.99
459.204	26806.55
459.41	26001.69
459.616	24621.36
459.821	24688.95
460.027	24351.03
460.233	23632.19
460.438	22813.01
460.644	23023.95
460.85	21907.8
461.055	21225.83
461.261	21608.8
461.466	19822.97
461.672	19014.02
461.878	20420.98
462.083	18997.64
462.289	18565.52
462.494	18592.14
462.7	17762.72
462.905	17351.07
463.111	17387.94
463.316	17871.26
463.522	17672.6
463.727	17488.29
463.932	17631.65
464.138	17267.11
464.343	17566.11
464.549	16964.01
464.754	17414.56
464.959	17260.96
465.165	17090.98
465.37	16462.26
465.575	16052.66
465.781	16771.5
465.986	16679.34
466.191	16128.44
466.397	15841.72
466.602	14662.09
466.807	15448.51
467.012	15716.79
467.218	15440.32
467.423	15073.73
467.628	15423.94
467.833	15823.29
468.038	15141.32
468.244	14703.05
468.449	15184.32
468.654	14834.12
468.859	14672.33
469.064	14500.3
469.269	14014.93
469.474	14168.53
469.679	14277.07
469.885	14016.98
470.09	14025.17
470.295	13859.29
470.5	13840.86
470.705	13720.03
470.91	13445.6
471.115	13484.51
471.32	13490.65
471.525	13404.64
471.73	13246.94
471.935	13132.26
472.139	12534.25
472.344	12845.54
472.549	12777.96
472.754	12663.27
472.959	12327.41
473.164	11997.68
473.369	11663.86
473.574	12046.83
473.778	12007.92
473.983	11880.95
474.188	12059.12
474.393	11158.02
474.598	11706.87
474.802	11489.79
475.007	11264.51
475.212	11377.15
475.417	10942.98
475.621	10994.18
475.826	10918.4
476.031	10660.36
476.235	10580.49
476.44	10490.38
476.645	10357.26
476.849	10672.65
477.054	10508.81
477.259	10148.37
477.463	10117.65
477.668	9812.5
477.872	9720.34
478.077	9736.73
478.282	9546.26
478.486	9464.35
478.691	9452.06
478.895	9468.44
479.1	9589.27
479.304	9560.6
479.509	9325.08
479.713	9316.89
479.918	9148.96
480.122	8946.21
480.326	9271.84
480.531	9034.27
480.735	9134.62
480.94	8911.39
481.144	8884.77
481.348	8694.31
481.553	8794.66
481.757	8546.86
481.961	8813.09
482.166	8890.91
482.37	8901.15
482.574	8606.25
482.778	8770.08
482.983	8774.18
483.187	8653.35
483.391	8823.33
483.595	8849.96
483.8	8536.62
484.004	8536.62
484.208	8809
484.412	8626.73
484.616	8706.6
484.821	8518.18
485.025	8387.11
485.229	8690.21
485.433	8389.16
485.637	8555.05
485.841	8505.9
486.045	8612.39
486.249	8583.72
486.453	8487.47
486.657	8458.79
486.861	8397.35
487.065	8698.41
487.269	8378.92
487.473	8161.84
487.677	8577.58
487.881	8643.11
488.085	8315.44
488.289	8522.28
488.493	8534.57
488.697	8577.58
488.901	8505.9
489.105	8419.88
489.309	8534.57
489.512	8669.73
489.716	8581.67
489.92	8544.81
490.124	8507.94
490.328	8518.18
490.531	8370.73
490.735	8647.21
490.939	8505.9
491.143	8626.73
491.346	8542.76
491.55	8817.19
491.754	8800.8
491.958	8864.29
492.161	8651.3
492.365	8911.39
492.569	8882.72
492.772	8802.85
492.976	8952.35
493.18	9060.9
493.383	8985.12
493.587	8886.82
493.79	9042.46
493.994	8944.16
494.197	9157.15
494.401	9282.08
494.605	9165.34
494.808	9200.16
495.012	9087.52
495.215	9304.6
495.419	9429.53
495.622	9447.96
495.825	9337.37
496.029	9470.49
496.232	9687.57
496.436	9677.33
496.639	9972.24
496.843	9701.91
497.046	9955.86
497.249	9818.64
497.453	9970.19
497.656	10314.25
497.859	10275.34
498.063	10183.18
498.266	10473.99
498.469	10420.75
498.673	10490.38
498.876	10598.92
499.079	10949.12
499.282	10945.03
499.485	10953.22
499.689	10983.94
499.892	11160.06
500.095	11342.33
500.298	11667.96
500.501	11418.11
500.705	11631.1
500.908	11864.57
501.111	11809.27
501.314	11962.87
501.517	12055.03
501.72	12167.66
501.923	12265.97
502.126	12528.11
502.329	12343.79
502.532	12671.47
502.735	12517.87
502.938	12890.6
503.141	12925.41
503.344	13156.83
503.547	13025.76
503.75	13273.57
503.953	13500.89
504.156	13580.76
504.359	13617.63
504.562	13822.42
504.765	14047.7
504.968	14399.95
505.17	14318.03
505.373	14367.18
505.576	14576.08
505.779	14666.19
505.982	14926.28
506.185	15040.97
506.387	15061.44
506.59	15292.87
506.793	15456.7
506.996	15612.35
507.198	15950.26
507.401	15868.34
507.604	16052.66
507.807	16222.64
508.009	16640.43
508.212	16486.83
508.415	16601.52
508.617	16800.17
508.82	16787.88
509.022	16877.99
509.225	17451.42
509.428	17328.55
509.63	17621.41
509.833	17598.88
510.035	18203.03
510.238	18162.07
510.44	18350.48
510.643	18618.77
510.845	18839.95
511.048	18880.91
511.25	19081.61
511.453	18895.24
511.655	19847.55
511.858	19562.88
512.06	19700.09
512.262	19796.35
512.465	19806.59
512.667	19906.94
512.87	20519.28
513.072	20169.08
513.274	20734.32
513.477	21150.06
513.679	21137.77
513.881	21268.84
514.084	21637.47
514.286	21797.21
514.488	21895.52
514.69	22350.17
514.893	22196.57
515.095	22221.14
515.297	22813.01
515.499	22593.87
515.701	22878.54
515.904	23259.46
516.106	23230.79
516.308	23439.68
516.51	23890.24
516.712	24138.04
516.914	24258.87
517.116	24502.58
517.318	24330.55
517.52	24570.16
517.722	24602.93
517.925	24729.91
518.127	25256.23
518.329	25362.73
518.531	25147.69
518.733	25708.83
518.935	26073.37
519.136	25901.34
519.338	26345.75
519.54	26550.55
519.742	26652.95
519.944	26675.48
520.146	27232.52
520.348	26958.1
520.55	27130.12
520.752	27332.87
520.954	27803.91
521.155	27373.83
521.357	27959.55
521.559	27920.64
521.761	28252.41
521.963	28186.88
522.164	28352.76
522.366	28672.25
522.568	28772.6
522.77	28997.87
522.971	28942.58
523.173	28944.62
523.375	29071.6
523.576	28973.3
523.778	29112.56
523.98	29436.14
524.181	29419.75
524.383	29413.61
524.584	29858.02
524.786	29913.31
524.988	29688.04
525.189	30212.32
525.391	29980.9
525.592	29800.68
525.794	29935.84
525.995	30130.4
526.197	30034.14
526.398	30056.67
526.6	30738.65
526.801	30306.52
527.003	30267.61
527.204	30421.21
527.406	30593.24
527.607	30484.7
527.808	30615.77
528.01	30019.81
528.211	30746.84
528.412	31113.42
528.614	30537.94
528.815	30429.4
529.016	30621.91
529.218	30456.03
529.419	30425.31
529.62	30726.36
529.822	30308.57
530.023	30699.73
530.224	30009.57
530.425	30470.36
530.626	30128.35
530.828	29980.9
531.029	30738.65
531.23	30351.58
531.431	30114.02
531.632	30220.51
531.833	30322.91
532.035	30150.88
532.236	30347.48
532.437	30345.44
532.638	29642.98
532.839	29946.08
533.04	30349.53
533.241	29849.83
533.442	30175.45
533.643	30187.74
533.844	29690.09
534.045	29698.28
534.246	29698.28
534.447	29954.27
534.648	29413.61
534.849	29528.3
535.05	29434.09
535.251	29610.21
535.451	29583.59
535.652	29567.21
535.853	29251.82
536.054	29597.93
536.255	29612.26
536.456	29343.98
536.657	29716.71
536.857	29108.46
537.058	29161.71
537.259	29143.28
537.46	29219.05
537.66	29190.38
537.861	29231.34
538.062	29231.34
538.263	29243.63
538.463	29059.31
538.664	29149.42
538.865	28920.05
539.065	28672.25
539.266	28805.36
539.466	29319.4
539.667	28676.34
539.868	29122.8
540.068	28913.91
540.269	28741.88
540.469	28940.53
540.67	28623.09
540.87	28440.82
541.071	28793.08
541.271	28971.25
541.472	28786.93
541.672	28588.28
541.873	28645.62
542.073	28150.01
542.274	28616.95
542.474	28530.94
542.675	28365.05
542.875	28664.05
543.075	28469.5
543.276	27953.41
543.476	28489.98
543.676	28209.4
543.877	28575.99
544.077	28301.56
544.277	27932.93
544.478	28412.15
544.678	28268.8
544.878	28287.23
545.078	28213.5
545.279	28139.77
545.479	28420.34
545.679	28240.12
545.879	28410.11
546.079	28575.99
546.28	28078.33
546.48	28350.71
546.68	28152.06
546.88	28541.18
547.08	28365.05
547.28	28115.2
547.48	28172.54
547.68	28188.92
547.88	28182.78
548.081	28604.66
548.281	28348.67
548.481	28092.67
548.681	28487.93
548.881	28385.53
549.081	28555.51
549.28	28115.2
549.48	28283.13
549.68	28053.76
549.88	29022.45
550.08	28332.28
550.28	28154.11
550.48	28182.78
550.68	28629.24
550.88	28096.77
551.08	28016.9
551.279	28745.97
551.479	28242.17
551.679	28332.28
551.879	28348.67
552.079	28561.65
552.278	28512.5
552.478	28274.94
552.678	28424.44
552.878	28678.39
553.077	28551.41
553.277	28258.56
553.477	29155.57
553.676	28575.99
553.876	28283.13
554.076	28494.07
554.275	28479.74
554.475	28139.77
554.674	28774.64
554.874	28805.36
555.074	28250.36
555.273	28549.37
555.473	28813.55
555.672	28559.61
555.872	28840.18
556.071	28684.53
556.271	28725.49
556.47	28758.26
556.67	28539.13
556.869	28565.75
557.068	28768.5
557.268	28489.98
557.467	28678.39
557.667	28930.29
557.866	28842.23
558.065	28907.76
558.265	28774.64
558.464	28745.97
558.663	28881.14
558.863	28469.5
559.062	29483.24
559.261	28983.54
559.461	29143.28
559.66	28666.1
559.859	28948.72
560.058	28768.5
560.258	28885.23
560.457	28850.42
560.656	28991.73
560.855	28905.71
561.054	28985.58
561.253	28653.81
561.453	28829.94
561.652	29083.89
561.851	28981.49
562.05	28889.33
562.249	28915.95
562.448	29087.98
562.647	29016.3
562.846	28817.65
563.045	28852.47
563.244	28866.8
563.443	29227.24
563.642	28805.36
563.841	28678.39
564.04	28819.7
564.239	28924.15
564.438	28573.94
564.637	28952.82
564.836	28995.82
565.035	28735.73
565.234	28803.32
565.432	28573.94
565.631	28313.85
565.83	28596.47
566.029	28651.77
566.228	28453.11
566.427	28287.23
566.625	28041.47
566.824	28197.12
567.023	28268.8
567.222	28113.15
567.42	28391.67
567.619	28295.42
567.818	28356.86
568.016	28299.51
568.215	28244.22
568.414	28299.51
568.612	28283.13
568.811	27926.78
569.01	27861.25
569.208	27457.8
569.407	28014.85
569.605	27283.72
569.804	27818.24
570.002	27461.9
570.201	27574.53
570.4	27490.57
570.598	27177.23
570.797	27179.28
570.995	27062.54
571.193	27189.52
571.392	27257.1
571.59	26958.1
571.789	27197.71
571.987	27185.42
572.186	27044.11
572.384	26904.85
572.582	27031.82
572.781	26814.74
572.979	26589.46
573.177	26607.89
573.376	26556.69
573.574	26282.27
573.772	26290.46
573.971	26118.43
574.169	26243.35
574.367	26126.62
574.565	26474.77
574.763	25837.86
574.962	25887.01
575.16	25620.77
575.358	25966.88
575.556	25379.11
575.754	25833.76
575.952	25397.54
576.151	25475.37
576.349	25563.43
576.547	25137.45
576.745	25387.3
576.943	25139.5
577.141	25239.85
577.339	24951.09
577.537	24883.5
577.735	24746.29
577.933	24647.99
578.131	24666.42
578.329	24910.13
578.527	24510.77
578.725	24551.73
578.923	24639.79
579.121	24545.59
579.319	24303.93
579.516	24564.02
579.714	24396.09
579.912	24217.91
580.11	24260.92
580.308	24142.14
580.506	24291.64
580.704	23853.37
580.901	24138.04
581.099	23855.42
581.297	24068.41
581.495	23576.9
581.692	23609.67
581.89	23439.68
582.088	23613.76
582.285	23507.27
582.483	23513.41
582.681	23503.17
582.878	23318.85
583.076	23116.11
583.274	23380.29
583.471	23071.05
583.669	23026
583.866	22896.97
584.064	23208.26
584.262	22464.85
584.459	22792.53
584.657	22659.41
584.854	22577.49
585.052	22376.79
585.249	22540.63
585.447	22485.33
585.644	22223.19
585.841	22575.44
586.039	22442.32
586.236	21969.24
586.434	22137.18
586.631	22169.94
586.828	22286.68
587.026	21817.69
587.223	22247.77
587.42	21827.93
587.618	22008.15
587.815	21754.21
588.012	21774.69
588.21	22004.06
588.407	21901.66
588.604	21989.72
588.801	21752.16
588.999	21463.4
589.196	21684.58
589.393	21602.66
589.59	21780.83
589.787	21428.58
589.984	21215.59
590.182	21311.85
590.379	21522.79
590.576	21148.01
590.773	21352.8
590.97	21049.71
591.167	21469.54
591.364	21070.19
591.561	21043.56
591.758	21172.58
591.955	21217.64
592.152	21334.37
592.349	21010.79
592.546	21008.75
592.743	21041.51
592.94	20760.94
593.137	20973.93
593.334	20990.31
593.531	20545.91
593.727	20672.88
593.924	20820.33
594.121	20601.2
594.318	20740.46
594.515	20603.25
594.712	21047.66
594.908	20521.33
595.105	20797.81
595.302	20343.16
595.499	20697.45
595.696	20402.55
595.892	20496.75
596.089	20824.43
596.286	20453.75
596.482	20644.21
596.679	20584.82
596.876	20570.48
597.072	20410.74
597.269	20783.47
597.466	20275.57
597.662	20349.3
597.859	20511.09
598.055	20263.29
598.252	20394.36
598.448	20617.58
598.645	20480.37
598.841	20382.07
599.038	20263.29
599.234	20291.96
599.431	20238.71
599.627	20375.92
599.824	20736.37
600.02	20611.44
600.217	20439.41
600.413	20521.33
600.609	20380.02
600.806	20572.53
601.002	20584.82
601.198	20726.13
601.395	20564.34
601.591	20418.93
601.787	21037.42
601.984	20547.95
602.18	20820.33
602.376	20414.84
602.572	20803.95
602.769	20873.58
602.965	20584.82
603.161	21119.34
603.357	20875.63
603.553	21068.14
603.75	20889.96
603.946	20932.97
604.142	21170.54
604.338	21055.85
604.534	21123.43
604.73	21279.08
604.926	21088.62
605.122	21371.24
605.318	21490.02
605.514	21150.06
605.71	21191.02
605.906	21293.41
606.102	21500.26
606.298	21676.38
606.494	21494.11
606.69	21680.48
606.886	21457.25
607.082	21477.73
607.278	22036.83
607.474	21426.53
607.67	21793.12
607.866	21455.2
608.062	22098.27
608.257	21846.37
608.453	21764.45
608.649	21907.8
608.845	21936.48
609.041	22356.31
609.236	22288.73
609.432	22317.4
609.628	22116.7
609.824	21979.48
610.019	22008.15
610.215	22362.45
610.411	22610.26
610.606	22376.79
610.802	22409.56
610.998	22237.53
611.193	22352.21
611.389	22546.77
611.584	22239.58
611.78	22581.59
611.976	22587.73
612.171	22655.31
612.367	22475.09
612.562	22532.43
612.758	22604.11
612.953	22380.89
613.149	22856.01
613.344	22489.43
613.539	23347.53
613.735	23013.71
613.93	22905.17
614.126	22970.7
614.321	23091.53
614.517	22956.36
614.712	23048.52
614.907	22909.26
615.103	23318.85
615.298	23142.73
615.493	23374.15
615.688	23152.97
615.884	23425.35
616.079	23054.67
616.274	23275.85
616.47	23230.79
616.665	23109.96
616.86	22970.7
617.055	23132.49
617.25	23134.54
617.445	23234.89
617.641	22800.72
617.836	23507.27
618.031	22741.33
618.226	23114.06
618.421	22925.64
618.616	23415.11
618.811	22663.5
619.006	23269.7
619.201	22399.32
619.396	23150.92
619.591	22669.65
619.786	23011.66
619.981	22634.83
620.176	22647.12
620.371	22729.04
620.566	22413.65
620.761	22477.14
620.956	22645.07
621.151	22006.11
621.346	22116.7
621.541	22163.8
621.735	22571.35
621.93	21827.93
622.125	22008.15
622.32	21674.34
622.515	21963.1
622.709	21594.47
622.904	21803.36
623.099	21733.73
623.294	21490.02
623.488	21379.43
623.683	21430.63
623.878	21365.09
624.072	21246.31
624.267	21117.29
624.462	21098.86
624.656	20949.35
624.851	20973.93
625.046	20908.4
625.24	20734.32
625.435	20689.26
625.629	20736.37
625.824	20525.43
626.018	20371.83
626.213	20070.78
626.407	20535.67
626.602	19921.27
626.796	20318.58
626.991	19956.09
627.185	19859.84
627.38	19917.18
627.574	19784.06
627.768	19372.42
627.963	19472.77
628.157	19032.46
628.352	19292.55
628.546	18971.02
628.74	19147.14
628.935	18850.19
629.129	19032.46
629.323	18923.91
629.517	19026.31
629.712	18577.81
629.906	18545.04
630.1	18465.17
630.294	18643.34
630.489	18188.69
630.683	18284.95
630.877	17770.91
631.071	18198.93
631.265	18078.1
631.459	17740.19
631.653	17818.01
631.848	17861.02
632.042	17562.01
632.236	17901.98
632.43	17473.95
632.624	17656.22
632.818	17512.86
633.012	17351.07
633.206	17226.15
633.4	16953.77
633.594	16855.47
633.788	17062.31
633.982	17050.02
634.176	17054.12
634.369	16779.69
634.563	16673.2
634.757	16433.58
634.951	16357.81
635.145	16421.3
635.339	16441.78
635.533	16402.86
635.726	16372.14
635.92	15976.89
636.114	16032.18
636.308	16005.56
636.501	15856.06
636.695	15909.3
636.889	15718.84
637.083	15735.23
637.276	15372.74
637.47	15258.05
637.664	15290.82
637.857	15296.96
638.051	15147.46
638.244	15061.44
638.438	14686.67
638.632	14729.67
638.825	14744.01
639.019	14598.6
639.212	14606.8
639.406	14502.35
639.599	14391.76
639.793	14424.53
639.986	14211.54
640.18	14084.56
640.373	14336.46
640.567	13928.92
640.76	13855.19
640.954	13834.71
641.147	13695.45
641.34	13810.14
641.534	13586.91
641.727	13621.72
641.92	13543.9
642.114	13265.38
642.307	13365.73
642.5	13119.97
642.694	12825.06
642.887	13052.39
643.08	13029.86
643.273	12847.59
643.467	12863.97
643.66	12761.58
643.853	12882.41
644.046	12491.24
644.239	12409.33
644.432	12245.49
644.626	12294.64
644.819	12368.37
645.012	12157.43
645.205	12163.57
645.398	11938.29
645.591	11739.64
645.784	11653.62
645.977	11753.98
646.17	11749.88
646.363	11731.45
646.556	11469.31
646.749	11368.96
646.942	11446.78
647.135	11332.09
647.328	11420.16
647.521	11338.24
647.714	11098.63
647.907	10983.94
648.099	11135.49
648.292	10992.13
648.485	10953.22
648.678	10691.08
648.871	10719.75
649.064	10674.7
649.256	10793.48
649.449	10447.37
649.642	10312.21
649.835	10238.48
650.027	10281.49
650.22	10517
650.413	10154.51
650.605	10304.01
650.798	10209.81
650.991	10140.18
651.183	10105.36
651.376	9742.87
651.568	9962
651.761	9806.36
651.954	9845.27
652.146	9878.04
652.339	9632.28
652.531	9878.04
652.724	9480.73
652.916	9486.87
653.109	9552.41
653.301	9550.36
653.494	9310.75
653.686	9095.71
653.879	9421.34
654.071	9329.18
654.263	9093.66
654.456	9181.73
654.648	9181.73
654.84	9257.5
655.033	9017.89
655.225	8888.87
655.417	8983.07
655.61	8888.87
655.802	8690.21
655.994	8702.5
656.186	8806.95
656.379	8575.53
656.571	8665.64
656.763	8587.82
656.955	8366.64
657.148	8516.14
657.34	8469.03
657.532	8452.65
657.724	8391.21
657.916	8329.77
658.108	8221.23
658.3	8198.7
658.492	8299.05
658.684	7998
658.876	8086.06
659.068	8043.06
659.26	8055.34
659.452	7934.51
659.644	7842.35
659.836	7793.2
660.028	7971.38
660.22	7510.58
660.412	7801.4
660.604	7709.24
660.796	7563.83
660.988	7670.33
661.18	7584.31
661.372	7490.1
661.563	7563.83
661.755	7469.62
661.947	7160.38
662.139	7240.25
662.331	7133.76
662.522	7141.95
662.714	7209.53
662.906	7035.46
663.097	7103.04
663.289	7035.46
663.481	6955.58
663.673	6965.82
663.864	6906.43
664.056	6949.44
664.247	6834.75
664.439	6832.71
664.631	6865.47
664.822	6920.77
665.014	6662.73
665.205	6707.78
665.397	6429.26
665.588	6779.46
665.78	6494.79
665.971	6679.11
666.163	6576.71
666.354	6545.99
666.546	6396.49
666.737	6437.45
666.929	6355.53
667.12	6275.66
667.311	6193.74
667.503	6261.32
667.694	6269.52
667.885	6044.24
668.077	6093.39
668.268	6042.19
668.459	6232.65
668.651	6085.2
668.842	6007.38
669.033	6005.33
669.224	5923.41
669.416	5970.51
669.607	5898.83
669.798	5911.12
669.989	5857.87
670.18	5929.55
670.371	5786.19
670.563	5661.27
670.754	5841.49
670.945	5683.8
671.136	5679.7
671.327	5605.97
671.518	5751.38
671.709	5546.58
671.9	5663.32
672.091	5698.13
672.282	5599.83
672.473	5438.04
672.664	5438.04
672.855	5325.4
673.046	5562.97
673.237	5530.2
673.428	5538.39
673.619	5372.5
673.809	5513.81
674	5374.55
674.191	5450.33
674.382	5323.35
674.573	5196.38
674.764	5354.07
674.954	5292.63
675.145	5167.71
675.336	5220.95
675.527	5139.04
675.717	5216.86
675.908	5218.91
676.099	5093.98
676.289	5155.42
676.48	5089.89
676.671	5063.26
676.861	5161.56
677.052	5200.48
677.243	4956.77
677.433	4915.81
677.624	5063.26
677.814	5106.27
678.005	5087.84
678.195	5114.46
678.386	4948.58
678.576	4946.53
678.767	4821.6
678.957	5053.02
679.148	5071.45
679.338	5065.31
679.529	5022.3
679.719	4883.04
679.909	5116.51
680.1	4942.43
680.29	4973.15
680.481	4831.84
680.671	4981.34
680.861	4989.53
681.052	4919.9
681.242	4842.08
681.432	4940.38
681.622	4823.65
681.813	4866.66
682.003	4825.7
682.193	4762.21
682.383	4934.24
682.573	4946.53
682.764	4864.61
682.954	4831.84
683.144	4848.22
683.334	4825.7
683.524	5001.82
683.714	4854.37
683.904	4741.73
684.094	4842.08
684.284	4825.7
684.474	4702.82
684.664	4676.2
684.854	4760.16
685.044	4713.06
685.234	4680.29
685.424	4778.59
685.614	4708.96
685.804	4858.46
685.994	4719.2
686.184	4723.3
686.374	4891.23
686.564	4571.75
686.753	4758.11
686.943	4455.01
687.133	4569.7
687.323	4604.52
687.513	4659.81
687.702	4727.39
687.892	4631.14
688.082	4573.8
688.272	4635.24
688.461	4502.12
688.651	4543.08
688.841	4612.71
689.03	4668
689.22	4633.19
689.41	4559.46
689.599	4536.93
689.789	4631.14
689.979	4549.22
690.168	4518.5
690.358	4489.83
690.547	4645.48
690.737	4659.81
690.926	4438.63
691.116	4430.44
691.305	4502.12
691.495	4414.06
691.684	4428.39
691.874	4471.4
692.063	4352.62
692.252	4199.02
692.442	4405.86
692.631	4360.81
692.82	4420.2
693.01	4262.51
693.199	4422.25
693.388	4151.92
693.578	4219.5
693.767	4332.14
693.956	4276.84
694.146	4287.08
694.335	4389.48
694.524	4258.41
694.713	4434.53
694.902	4276.84
695.092	4309.61
695.281	4301.42
695.47	4194.92
695.659	4291.18
695.848	4215.4
696.037	4129.39
696.226	4158.06
696.415	4145.77
696.604	4166.25
696.793	4145.77
696.982	4307.56
697.171	4164.2
697.36	4205.16
697.549	4282.99
697.738	4006.51
697.927	4096.62
698.116	4110.96
698.305	4254.31
698.494	4100.72
698.683	4223.59
698.872	4031.09
699.061	3924.59
699.25	4078.19
699.438	3975.79
699.627	4135.53
699.816	4143.72
700.005	4004.46
700.193	3865.2
700.382	3900.02
700.571	4168.3
700.76	3930.73
700.948	4029.04
701.137	4135.53
701.326	3930.73
701.514	3811.95
701.703	3922.54
701.892	3828.34
702.08	3967.6
702.269	3875.44
702.457	3684.98
702.646	3844.72
702.834	3801.71
703.023	3781.23
703.212	3758.71
703.4	3709.55
703.589	3932.78
703.777	3770.99
703.965	3648.11
704.154	3693.17
704.342	3719.79
704.531	3664.5
704.719	3605.11
704.907	3756.66
705.096	3701.36
705.284	3773.04
705.472	3611.25
705.661	3687.03
705.849	3523.19
706.037	3658.35
706.226	3668.59
706.414	3433.08
706.602	3566.2
706.79	3578.48
706.979	3672.69
707.167	3652.21
707.355	3453.56
707.543	3449.46
707.731	3566.2
707.919	3431.03
708.107	3469.94
708.296	3388.02
708.484	3394.17
708.672	3504.76
708.86	3467.89
709.048	3408.5
709.236	3252.86
709.424	3420.79
709.612	3474.04
709.8	3394.17
709.988	3359.35
710.176	3308.15
710.364	3373.69
710.551	3324.54
710.739	3420.79
710.927	3287.67
711.115	3330.68
711.303	3390.07
711.491	3283.58
711.679	3256.95
711.866	3193.47
712.054	3340.92
712.242	3259
712.43	3297.91
712.617	3146.36
712.805	3046.01
712.993	3193.47
713.181	3220.09
713.368	3220.09
713.556	3230.33
713.744	3156.6
713.931	3242.62
714.119	3172.99
714.306	3039.87
714.494	3000.96
714.682	3154.55
714.869	3089.02
715.057	3082.88
715.244	3037.82
715.432	3029.63
715.619	2939.52
715.807	2984.57
715.994	2904.7
716.182	2960
716.369	2982.53
716.556	2890.37
716.744	2880.13
716.931	2927.23
717.119	2910.85
717.306	2947.71
717.493	2902.65
717.681	2845.31
717.868	2927.23
718.055	2929.28
718.242	2837.12
718.43	2851.46
718.617	2876.03
718.804	2880.13
718.991	2916.99
719.179	2822.78
719.366	2765.44
719.553	2779.78
719.74	2736.77
719.927	2792.06
720.114	2726.53
720.301	2693.76
720.488	2624.13
720.676	2792.06
720.863	2751.1
721.05	2726.53
721.237	2710.15
721.424	2710.15
721.611	2679.43
721.798	2513.54
721.985	2620.03
722.172	2540.16
722.358	2554.5
722.545	2753.15
722.732	2562.69
722.919	2675.33
723.106	2558.6
723.293	2491.01
723.48	2570.88
723.667	2562.69
723.853	2478.72
724.04	2505.35
724.227	2501.25
724.414	2552.45
724.6	2529.92
724.787	2581.12
724.974	2505.35
725.161	2464.39
725.347	2460.29
725.534	2472.58
725.72	2503.3
725.907	2407.05
726.094	2507.4
726.28	2435.72
726.467	2325.13
726.653	2292.36
726.84	2372.23
727.027	2402.95
727.213	2411.14
727.4	2382.47
727.586	2308.74
727.773	2228.87
727.959	2296.46
728.145	2226.82
728.332	2323.08
728.518	2267.78
728.705	2292.36
728.891	2216.58
729.077	2327.18
729.264	2286.22
729.45	2247.3
729.636	2222.73
729.823	2273.93
730.009	2316.94
730.195	2251.4
730.382	2327.18
730.568	2212.49
730.754	2185.87
730.94	2263.69
731.126	2179.72
731.313	2237.06
731.499	2198.15
731.685	2222.73
731.871	2241.16
732.057	2185.87
732.243	2198.15
732.429	2085.51
732.615	2108.04
732.801	2126.47
732.987	2108.04
733.173	2114.19
733.359	2036.36
733.545	2136.71
733.731	2202.25
733.917	2200.2
734.103	2128.52
734.289	2024.08
734.475	2026.12
734.661	2155.15
734.847	2103.95
735.033	2065.04
735.219	2071.18
735.404	2132.62
735.59	2026.12
735.776	1985.16
735.962	2050.7
736.148	2105.99
736.333	2001.55
736.519	2024.08
736.705	1966.73
736.89	2048.65
737.076	1958.54
737.262	2030.22
737.447	1974.92
737.633	1976.97
737.819	1987.21
738.004	2007.69
738.19	1913.49
738.375	1913.49
738.561	1866.38
738.747	1979.02
738.932	1792.66
739.118	1942.16
739.303	1911.44
739.489	1913.49
739.674	1909.39
739.859	1852.05
740.045	1860.24
740.23	1745.55
740.416	1827.47
740.601	1856.14
740.786	1817.23
740.972	1774.22
741.157	1727.12
741.342	1698.45
741.528	1825.42
741.713	1817.23
741.898	1739.41
742.084	1778.32
742.269	1727.12
742.454	1702.54
742.639	1786.51
742.824	1747.6
743.01	1645.2
743.195	1751.7
743.38	1663.63
743.565	1743.5
743.75	1671.83
743.935	1591.95
744.12	1680.02
744.305	1604.24
744.49	1673.87
744.675	1653.39
744.86	1587.86
745.045	1620.63
745.23	1542.8
745.415	1610.39
745.6	1694.35
745.785	1581.71
745.97	1659.54
746.155	1551
746.34	1612.43
746.525	1612.43
746.71	1571.47
746.895	1587.86
747.079	1571.47
747.264	1481.36
747.449	1591.95
747.634	1532.56
747.819	1585.81
748.003	1534.61
748.188	1485.46
748.373	1514.13
748.557	1477.27
748.742	1383.06
748.927	1491.6
749.111	1434.26
749.296	1456.79
749.481	1456.79
749.665	1323.67
749.85	1323.67
750.034	1403.54
750.219	1450.64
750.404	1276.57
750.588	1407.64
750.773	1317.53
750.957	1335.96
751.141	1307.29
751.326	1317.53
751.51	1272.47
751.695	1245.85
751.879	1292.95
752.064	1430.16
752.248	1229.46
752.432	1366.68
752.617	1278.62
752.801	1325.72
752.985	1204.89
753.17	1161.88
753.354	1178.26
753.538	1233.56
753.722	1151.64
753.907	1125.02
754.091	1163.93
754.275	1202.84
754.459	1129.11
754.643	1094.3
754.828	1094.3
755.012	1131.16
755.196	1153.69
755.38	1178.26
755.564	1145.5
755.748	1114.78
755.932	1055.39
756.116	1047.19
756.3	1088.15
756.484	1047.19
756.668	1096.35
756.852	1000.09
757.036	1057.43
757.22	1022.62
757.404	1010.33
757.588	1002.14
757.772	1106.59
757.956	961.18
758.14	1024.67
758.323	905.88
758.507	1008.28
758.691	893.6
758.875	1018.52
759.059	967.32
759.242	938.65
759.426	916.12
759.61	932.51
759.794	950.94
759.977	975.52
760.161	1071.77
760.345	948.89
760.528	948.89
760.712	907.93
760.895	916.12
761.079	866.97
761.263	936.6
761.446	850.59
761.63	916.12
761.813	860.83
761.997	799.39
762.18	905.88
762.364	940.7
762.547	844.45
762.731	893.6
762.914	897.69
763.098	811.68
763.281	834.21
763.464	862.88
763.648	795.29
763.831	826.01
764.015	729.76
764.198	838.3
764.381	840.35
764.564	762.53
764.748	772.77
764.931	760.48
765.114	776.86
765.297	793.25
765.481	776.86
765.664	815.77
765.847	844.45
766.03	871.07
766.213	778.91
766.397	817.82
766.58	764.58
766.763	809.63
766.946	760.48
767.129	760.48
767.312	793.25
767.495	744.1
767.678	744.1
767.861	797.34
768.044	721.57
768.227	752.29
768.41	760.48
768.593	789.15
768.776	756.38
768.959	752.29
769.142	787.1
769.324	680.61
769.507	692.9
769.69	742.05
769.873	756.38
770.056	709.28
770.239	645.79
770.421	664.22
770.604	746.14
770.787	676.51
770.97	811.68
771.152	733.86
771.335	682.66
771.518	653.98
771.7	821.92
771.883	785.05
772.066	762.53
772.248	658.08
772.431	752.29
772.613	737.95
772.796	674.46
772.978	686.75
773.161	645.79
773.343	694.94
773.526	590.5
773.708	649.89
773.891	527.01
774.073	637.6
774.256	666.27
774.438	678.56
774.621	606.88
774.803	694.94
774.985	592.55
775.168	676.51
775.35	647.84
775.532	668.32
775.715	588.45
775.897	576.16
776.079	580.26
776.261	596.64
776.444	596.64
776.626	604.83
776.808	535.2
776.99	508.58
777.173	563.87
777.355	547.49
777.537	522.91
777.719	527.01
777.901	445.09
778.083	576.16
778.265	578.21
778.447	676.51
778.629	484
778.811	539.3
778.993	527.01
779.175	465.57
779.357	467.62
779.539	490.15
779.721	504.48
779.903	563.87
780.085	518.82
780.267	600.74
780.449	598.69
780.631	555.68
780.812	500.39
780.994	533.15
781.176	416.42
781.358	445.09
781.54	490.15
781.721	547.49
781.903	508.58
782.085	490.15
782.267	449.19
782.448	500.39
782.63	400.04
782.812	404.13
782.993	524.96
783.175	494.24
783.357	510.63
783.538	449.19
783.72	410.28
783.901	465.57
784.083	359.08
784.264	408.23
784.446	318.12
784.627	379.56
784.809	424.61
784.99	434.85
785.172	393.89
785.353	434.85
785.535	424.61
785.716	383.65
785.897	385.7
786.079	369.32
786.26	342.69
786.441	385.7
786.623	348.84
786.804	340.65
786.985	391.84
787.167	441
787.348	266.92
787.529	383.65
787.71	410.28
787.891	375.46
788.073	367.27
788.254	363.17
788.435	383.65
788.616	293.54
788.797	285.35
788.978	359.08
789.159	320.17
789.34	293.54
789.522	336.55
789.703	334.5
789.884	344.74
790.065	322.21
790.246	328.36
790.427	246.44
790.607	279.21
790.788	338.6
790.969	338.6
791.15	297.64
791.331	283.3
791.512	318.12
791.693	230.06
791.874	281.25
792.054	359.08
792.235	328.36
792.416	213.67
792.597	285.35
792.778	311.97
792.958	314.02
793.139	328.36
793.32	236.2
793.5	187.05
793.681	260.77
793.862	240.3
794.042	350.89
794.223	215.72
794.404	264.87
794.584	182.95
794.765	236.2
794.945	250.53
795.126	277.16
795.306	285.35
795.487	244.39
795.667	230.06
795.848	168.62
796.028	291.49
796.209	283.3
796.389	248.49
796.57	240.3
796.75	244.39
796.93	285.35
797.111	162.47
797.291	203.43
797.471	314.02
797.652	205.48
797.832	195.24
798.012	291.49
798.192	191.14
798.373	154.28
798.553	191.14
798.733	283.3
798.913	174.76
799.093	213.67
799.274	223.91
799.454	377.51
799.634	187.05
799.814	211.62
799.994	260.77
800.174	254.63
800.354	187.05
800.534	127.66
800.714	187.05
800.894	90.79
801.074	141.99
801.254	281.25
801.434	195.24
801.614	197.29
801.794	176.81
801.974	834.21
802.154	211.62
802.334	191.14
802.514	185
802.693	250.53
802.873	135.85
803.053	203.43
803.233	191.14
803.413	162.47
803.592	211.62
803.772	101.03
803.952	215.72
804.131	187.05
804.311	178.86
804.491	283.3
804.67	166.57
804.85	168.62
805.03	205.48
805.209	154.28
805.389	146.09
805.568	152.23
805.748	115.37
805.928	98.99
806.107	232.1
806.287	139.94
806.466	232.1
806.646	215.72
806.825	133.8
807.004	182.95
807.184	170.66
807.363	141.99
807.543	187.05
807.722	176.81
807.901	174.76
808.081	191.14
808.26	72.36
808.439	172.71
808.619	156.33
808.798	133.8
808.977	244.39
809.156	156.33
809.336	76.46
809.515	260.77
809.694	94.89
809.873	129.7
810.052	129.7
810.231	168.62
810.411	131.75
810.59	230.06
810.769	113.32
810.948	72.36
811.127	92.84
811.306	127.66
811.485	146.09
811.664	219.82
811.843	133.8
812.022	148.14
812.201	80.55
812.38	178.86
812.559	72.36
812.737	139.94
812.916	160.42
813.095	113.32
813.274	154.28
813.453	39.59
813.632	154.28
813.811	129.7
813.989	135.85
814.168	129.7
814.347	55.98
814.526	109.23
814.704	199.34
814.883	148.14
815.062	158.38
815.24	109.23
815.419	60.07
815.598	182.95
815.776	113.32
815.955	109.23
816.133	-25.94
816.312	164.52
816.49	113.32
816.669	107.18
816.847	174.76
817.026	185
817.204	125.61
817.383	137.9
817.561	90.79
817.74	117.42
817.918	78.51
818.097	94.89
818.275	115.37
818.453	125.61
818.632	105.13
818.81	101.03
818.988	182.95
819.167	82.6
819.345	146.09
819.523	105.13
819.701	82.6
819.879	121.51
820.058	66.22
820.236	131.75
820.414	68.27
820.592	72.36
820.77	35.5
820.948	64.17
821.127	113.32
821.305	174.76
821.483	31.4
821.661	164.52
821.839	96.94
822.017	53.93
822.195	33.45
822.373	88.75
822.551	105.13
822.729	185
822.907	51.88
823.085	107.18
823.262	49.83
823.44	111.27
823.618	103.08
823.796	139.94
823.974	62.12
824.152	35.5
824.329	60.07
824.507	121.51
824.685	96.94
824.863	31.4
825.04	96.94
825.218	219.82
825.396	-25.94
825.574	117.42
825.751	154.28
825.929	115.37
826.107	68.27
826.284	86.7
826.462	125.61
826.639	19.11
826.817	68.27
826.994	137.9
827.172	96.94
827.349	162.47
827.527	60.07
827.704	23.21
827.882	33.45
828.059	-48.47
828.237	49.83
828.414	96.94
828.591	41.64
828.769	31.4
828.946	49.83
829.124	84.65
829.301	182.95
829.478	98.99
829.655	105.13
829.833	113.32
830.01	-25.94
830.187	76.46
830.364	72.36
830.542	80.55
830.719	33.45
830.896	43.69
831.073	31.4
831.25	64.17
831.427	158.38
831.604	43.69
831.782	121.51
831.959	121.51
832.136	76.46
832.313	211.62
832.49	-42.32
832.667	62.12
832.844	27.31
833.021	96.94
833.198	47.79
833.374	33.45
833.551	-1.37
833.728	55.98
833.905	39.59
834.082	-19.8
834.259	6.83
834.436	39.59
834.612	27.31
834.789	80.55
834.966	33.45
835.143	115.37
835.319	-30.04
835.496	96.94
835.673	96.94
835.85	55.98
836.026	47.79
836.203	70.31
836.38	-19.8
836.556	68.27
836.733	31.4
836.909	96.94
837.086	70.31
837.262	-23.89
837.439	23.21
837.616	15.02
837.792	55.98
837.968	6.83
838.145	25.26
838.321	47.79
838.498	121.51
838.674	33.45
838.851	76.46
839.027	47.79
839.203	-66.9
839.38	49.83
839.556	-1.37
839.732	47.79
839.909	55.98
840.085	70.31
840.261	-17.75
840.437	47.79
840.614	0.68
840.79	113.32
840.966	70.31
841.142	31.4
841.318	35.5
841.494	17.07
841.671	-38.23
841.847	2.73
842.023	6.83
842.199	31.4
842.375	135.85
842.551	-17.75
842.727	-42.32
842.903	98.99
843.079	-21.85
843.255	47.79
843.431	31.4
843.607	53.93
843.783	-1.37
843.959	25.26
844.134	49.83
844.31	98.99
844.486	47.79
844.662	25.26
844.838	8.87
845.013	19.11
845.189	39.59
845.365	6.83
845.541	23.21
845.716	55.98
845.892	-25.94
846.068	-1.37
846.244	66.22
846.419	-9.56
846.595	25.26
846.77	80.55
846.946	74.41
847.122	12.97
847.297	-9.56
847.473	150.18
847.648	-40.28
847.824	39.59
847.999	92.84
848.175	137.9
848.35	76.46
848.526	35.5
848.701	146.09
848.876	64.17
849.052	-5.46
849.227	-9.56
849.403	-36.18
849.578	-13.65
849.753	31.4
849.929	96.94
850.104	-38.23
850.279	88.75
850.454	8.87
850.63	31.4
850.805	115.37
850.98	-1.37
851.155	47.79
851.33	60.07
851.505	-60.76
851.681	80.55
851.856	-1.37
852.031	47.79
852.206	-3.41
852.381	23.21
852.556	101.03
852.731	51.88
852.906	33.45
853.081	47.79
853.256	141.99
853.431	64.17
853.606	-21.85
853.781	-42.32
853.956	-1.37
854.131	39.59
854.305	45.74
854.48	-15.7
854.655	6.83
854.83	-1.37
855.005	72.36
855.18	-48.47
855.354	12.97
855.529	47.79
855.704	25.26
855.879	23.21
856.053	-38.23
856.228	25.26
856.403	-48.47
856.577	84.65
856.752	2.73
856.926	2.73
857.101	82.6
857.276	17.07
857.45	62.12
857.625	60.07
857.799	68.27
857.974	15.02
858.148	-38.23
858.323	131.75
858.497	-54.61
858.672	12.97
858.846	6.83
859.02	70.31
859.195	43.69
859.369	-13.65
859.543	107.18
859.718	-66.9
859.892	72.36
860.066	35.5
860.241	-15.7
860.415	6.83
860.589	-7.51
860.763	51.88
860.938	4.78
861.112	72.36
861.286	-9.56
861.46	43.69
861.634	17.07
861.808	58.03
861.982	-25.94
862.157	-7.51
862.331	21.16
862.505	-9.56
862.679	55.98
862.853	23.21
863.027	-58.71
863.201	109.23
863.375	-68.95
863.549	39.59
863.722	25.26
863.896	39.59
864.07	-79.19
864.244	-32.08
864.418	23.21
864.592	92.84
864.766	88.75
864.939	-32.08
865.113	4.78
865.287	21.16
865.461	-50.52
865.634	21.16
865.808	2.73
865.982	-34.13
866.156	23.21
866.329	-1.37
866.503	10.92
866.676	-25.94
866.85	39.59
867.024	-25.94
867.197	64.17
867.371	-42.32
867.544	-66.9
867.718	19.11
867.891	58.03
868.065	6.83
868.238	27.31
868.412	76.46
868.585	55.98
868.759	19.11
868.932	-50.52
869.105	-52.56
869.279	-7.51
869.452	2.73
869.625	25.26
869.799	10.92
869.972	-15.7
870.145	-56.66
870.319	117.42
870.492	-46.42
870.665	15.02
870.838	23.21
871.011	-7.51
871.185	-50.52
871.358	-30.04
871.531	33.45
871.704	15.02
871.877	-48.47
872.05	-50.52
872.223	-17.75
872.396	53.93
872.569	76.46
872.742	-81.24
872.915	76.46
873.088	19.11
873.261	-66.9
873.434	19.11
873.607	62.12
873.78	113.32
873.953	-81.24
874.126	25.26
874.299	45.74
874.471	-30.04
874.644	45.74
874.817	80.55
874.99	58.03
875.163	-38.23
875.335	2.73
875.508	6.83
875.681	-25.94
875.853	-66.9
876.026	-27.99
876.199	41.64
876.371	35.5
876.544	-32.08
876.717	-9.56
876.889	23.21
877.062	41.64
877.234	-30.04
877.407	39.59
877.579	41.64
877.752	2.73
877.924	19.11
878.097	19.11
878.269	35.5
878.442	55.98
878.614	-9.56
878.786	-1.37
878.959	-46.42
879.131	43.69
879.303	-62.8
879.476	10.92
879.648	-23.89
879.82	41.64
879.993	-38.23
880.165	-17.75
880.337	10.92
880.509	-9.56
880.681	-32.08
880.854	-5.46
881.026	25.26
881.198	96.94
881.37	51.88
881.542	-42.32
881.714	31.4
881.886	-32.08
882.058	17.07
882.23	33.45
882.402	-23.89
882.574	96.94
882.746	39.59
882.918	103.08
883.09	-48.47
883.262	-34.13
883.434	-7.51
883.606	-42.32
883.778	-36.18
883.95	15.02
884.122	47.79
884.293	70.31
884.465	25.26
884.637	49.83
884.809	-5.46
884.98	6.83
885.152	39.59
885.324	25.26
885.496	-23.89
885.667	15.02
885.839	-15.7
886.011	31.4
886.182	-66.9
886.354	17.07
886.525	-17.75
886.697	-25.94
886.869	-15.7
887.04	19.11
887.212	53.93
887.383	92.84
887.555	17.07
887.726	-48.47
887.897	-46.42
888.069	35.5
888.24	8.87
888.412	39.59
888.583	47.79
888.754	-58.71
888.926	-75.09
889.097	-9.56
889.268	-25.94
889.44	66.22
889.611	-27.99
889.782	23.21
889.953	-62.8
890.125	101.03
890.296	12.97
890.467	-1.37
890.638	-9.56
890.809	-85.33
890.98	0.68
891.151	-7.51
891.323	47.79
891.494	19.11
891.665	2.73
891.836	8.87
892.007	-48.47
892.178	2.73
892.349	-25.94
892.52	27.31
892.691	15.02
892.862	-54.61
893.032	-5.46
893.203	-1.37
893.374	6.83
893.545	47.79
893.716	-48.47
893.887	-23.89
894.057	-15.7
894.228	6.83
894.399	-34.13
894.57	70.31
894.74	-1.37
894.911	62.12
895.082	-50.52
895.253	53.93
895.423	8.87
895.594	33.45
895.764	-38.23
895.935	-25.94
896.106	84.65
896.276	-17.75
896.447	8.87
896.617	0.68
896.788	-71
896.958	-1.37
897.129	-79.19
897.299	-73.04
897.47	47.79
897.64	55.98
897.81	72.36
897.981	-25.94
898.151	-77.14
898.322	33.45
898.492	-1.37
898.662	31.4
898.832	12.97
899.003	2.73
899.173	15.02
899.343	-25.94
899.513	-73.04
