Data from USB4F104151__222__14-33-54-140.txt Node

Date: Thu Mar 13 14:33:54 EDT 2025
User: louis
Spectrometer: USB4F10415
Trigger mode: 4
Integration Time (sec): 2.500000E-2
Scans to average: 1
Electric dark correction enabled: true
Nonlinearity correction enabled: false
Boxcar width: 0
XAxis mode: Wavelengths
Number of Pixels in Spectrum: 3648
>>>>>Begin Spectral Data<<<<<
178.204	-164.69
178.424	-164.69
178.644	-164.69
178.864	-142.16
179.084	-195.41
179.304	-90.96
179.524	56.49
179.744	5.29
179.964	36.01
180.184	-45.91
180.404	60.59
180.624	-33.62
180.844	-17.24
181.064	-45.91
181.283	21.67
181.503	-0.85
181.723	54.44
181.943	-17.24
182.163	17.58
182.383	-11.09
182.602	-13.14
182.822	29.87
183.042	19.63
183.262	50.35
183.482	62.63
183.701	5.29
183.921	15.53
184.141	-54.1
184.361	46.25
184.58	-2.9
184.8	11.43
185.02	17.58
185.239	85.16
185.459	-29.52
185.679	36.01
185.898	-33.62
186.118	68.78
186.338	15.53
186.557	36.01
186.777	-11.09
186.997	60.59
187.216	44.2
187.436	1.19
187.655	-47.96
187.875	52.39
188.095	-60.24
188.314	93.35
188.534	-33.62
188.753	76.97
188.973	60.59
189.192	48.3
189.412	27.82
189.631	7.34
189.851	-39.76
190.07	76.97
190.29	-13.14
190.509	27.82
190.729	29.87
190.948	64.68
191.168	89.26
191.387	11.43
191.607	-45.91
191.826	-23.38
192.045	68.78
192.265	29.87
192.484	-52.05
192.704	-41.81
192.923	-37.72
193.142	85.16
193.362	54.44
193.581	38.06
193.8	56.49
194.02	72.87
194.239	68.78
194.458	87.21
194.678	-11.09
194.897	64.68
195.116	52.39
195.335	111.78
195.555	31.91
195.774	76.97
195.993	97.45
196.212	56.49
196.432	-66.39
196.651	3.24
196.87	44.2
197.089	68.78
197.308	27.82
197.528	60.59
197.747	11.43
197.966	3.24
198.185	15.53
198.404	-13.14
198.623	27.82
198.842	36.01
199.062	54.44
199.281	97.45
199.5	-0.85
199.719	48.3
199.938	21.67
200.157	83.11
200.376	29.87
200.595	97.45
200.814	31.91
201.033	11.43
201.252	117.93
201.471	21.67
201.69	52.39
201.909	85.16
202.128	-62.29
202.347	64.68
202.566	36.01
202.785	19.63
203.004	15.53
203.223	109.74
203.442	60.59
203.661	-33.62
203.879	38.06
204.098	128.17
204.317	-0.85
204.536	-19.29
204.755	44.2
204.974	19.63
205.193	19.63
205.411	60.59
205.63	85.16
205.849	-13.14
206.068	56.49
206.287	-58.2
206.505	36.01
206.724	-4.95
206.943	-21.33
207.162	60.59
207.381	-2.9
207.599	36.01
207.818	23.72
208.037	29.87
208.255	-0.85
208.474	-2.9
208.693	44.2
208.911	-41.81
209.13	54.44
209.349	19.63
209.567	60.59
209.786	52.39
210.005	-21.33
210.223	29.87
210.442	-9.05
210.661	152.74
210.879	40.11
211.098	27.82
211.316	21.67
211.535	19.63
211.753	27.82
211.972	58.54
212.191	-15.19
212.409	29.87
212.628	60.59
212.846	19.63
213.065	-0.85
213.283	66.73
213.502	7.34
213.72	-7
213.938	101.55
214.157	-29.52
214.375	38.06
214.594	36.01
214.812	-19.29
215.031	29.87
215.249	7.34
215.467	25.77
215.686	38.06
215.904	64.68
216.122	5.29
216.341	13.48
216.559	85.16
216.778	60.59
216.996	40.11
217.214	31.91
217.432	81.07
217.651	-13.14
217.869	50.35
218.087	1.19
218.306	-39.76
218.524	31.91
218.742	-2.9
218.96	31.91
219.179	25.77
219.397	36.01
219.615	68.78
219.833	27.82
220.051	13.48
220.27	130.22
220.488	-17.24
220.706	7.34
220.924	36.01
221.142	19.63
221.36	60.59
221.578	-33.62
221.796	-29.52
222.015	11.43
222.233	-54.1
222.451	126.12
222.669	38.06
222.887	62.63
223.105	-33.62
223.323	21.67
223.541	7.34
223.759	36.01
223.977	-41.81
224.195	31.91
224.413	5.29
224.631	-45.91
224.849	21.67
225.067	72.87
225.285	-9.05
225.503	76.97
225.721	3.24
225.939	36.01
226.157	7.34
226.375	111.78
226.592	-29.52
226.81	87.21
227.028	101.55
227.246	128.17
227.464	40.11
227.682	48.3
227.9	56.49
228.117	111.78
228.335	-43.86
228.553	27.82
228.771	-4.95
228.989	-11.09
229.206	95.4
229.424	13.48
229.642	52.39
229.86	-37.72
230.077	48.3
230.295	7.34
230.513	36.01
230.731	11.43
230.948	76.97
231.166	160.94
231.384	19.63
231.601	-13.14
231.819	62.63
232.037	-58.2
232.254	-2.9
232.472	-4.95
232.689	15.53
232.907	52.39
233.125	52.39
233.342	11.43
233.56	29.87
233.777	-2.9
233.995	36.01
234.213	33.96
234.43	68.78
234.648	23.72
234.865	36.01
235.083	-33.62
235.3	31.91
235.518	-17.24
235.735	23.72
235.953	183.46
236.17	-60.24
236.388	-19.29
236.605	-13.14
236.822	50.35
237.04	50.35
237.257	107.69
237.475	52.39
237.692	76.97
237.909	76.97
238.127	17.58
238.344	52.39
238.562	136.36
238.779	-0.85
238.996	-70.48
239.214	13.48
239.431	-7
239.648	-2.9
239.865	13.48
240.083	-7
240.3	-23.38
240.517	48.3
240.735	-23.38
240.952	99.5
241.169	-9.05
241.386	-13.14
241.603	3.24
241.821	21.67
242.038	7.34
242.255	93.35
242.472	-103.25
242.689	36.01
242.907	21.67
243.124	13.48
243.341	31.91
243.558	48.3
243.775	83.11
243.992	-29.52
244.209	21.67
244.426	124.07
244.643	60.59
244.86	64.68
245.078	68.78
245.295	85.16
245.512	-7
245.729	-11.09
245.946	81.07
246.163	60.59
246.38	87.21
246.597	11.43
246.814	5.29
247.031	40.11
247.248	126.12
247.464	52.39
247.681	36.01
247.898	76.97
248.115	76.97
248.332	23.72
248.549	70.83
248.766	79.02
248.983	79.02
249.2	19.63
249.417	81.07
249.633	27.82
249.85	93.35
250.067	60.59
250.284	72.87
250.501	19.63
250.717	117.93
250.934	-2.9
251.151	-19.29
251.368	5.29
251.585	50.35
251.801	46.25
252.018	15.53
252.235	21.67
252.451	-4.95
252.668	44.2
252.885	62.63
253.102	11.43
253.318	42.15
253.535	-62.29
253.752	1.19
253.968	11.43
254.185	-33.62
254.401	81.07
254.618	60.59
254.835	1.19
255.051	109.74
255.268	93.35
255.484	56.49
255.701	29.87
255.917	54.44
256.134	-0.85
256.351	19.63
256.567	5.29
256.784	-27.48
257	-9.05
257.217	117.93
257.433	27.82
257.65	1.19
257.866	72.87
258.082	-37.72
258.299	-41.81
258.515	60.59
258.732	50.35
258.948	-17.24
259.165	21.67
259.381	29.87
259.597	19.63
259.814	-41.81
260.03	9.39
260.246	72.87
260.463	13.48
260.679	62.63
260.895	-9.05
261.112	87.21
261.328	-43.86
261.544	48.3
261.761	62.63
261.977	27.82
262.193	-21.33
262.409	48.3
262.626	31.91
262.842	70.83
263.058	48.3
263.274	-11.09
263.49	44.2
263.707	15.53
263.923	76.97
264.139	19.63
264.355	11.43
264.571	91.31
264.787	97.45
265.004	60.59
265.22	-13.14
265.436	-4.95
265.652	42.15
265.868	76.97
266.084	-9.05
266.3	13.48
266.516	-66.39
266.732	23.72
266.948	105.64
267.164	60.59
267.38	5.29
267.596	-9.05
267.812	46.25
268.028	52.39
268.244	-0.85
268.46	3.24
268.676	54.44
268.892	81.07
269.108	-84.82
269.324	36.01
269.54	-54.1
269.756	93.35
269.972	29.87
270.188	11.43
270.403	5.29
270.619	52.39
270.835	-9.05
271.051	-11.09
271.267	52.39
271.483	1.19
271.698	-11.09
271.914	21.67
272.13	25.77
272.346	68.78
272.562	-11.09
272.777	40.11
272.993	19.63
273.209	-23.38
273.425	19.63
273.64	-35.67
273.856	107.69
274.072	44.2
274.287	1.19
274.503	87.21
274.719	46.25
274.934	38.06
275.15	-13.14
275.366	38.06
275.581	13.48
275.797	58.54
276.012	19.63
276.228	23.72
276.444	58.54
276.659	101.55
276.875	-23.38
277.09	-13.14
277.306	13.48
277.521	81.07
277.737	42.15
277.952	60.59
278.168	5.29
278.383	40.11
278.599	76.97
278.814	72.87
279.03	48.3
279.245	70.83
279.461	-21.33
279.676	56.49
279.892	46.25
280.107	11.43
280.322	29.87
280.538	126.12
280.753	5.29
280.969	87.21
281.184	52.39
281.399	136.36
281.615	-78.68
281.83	50.35
282.045	27.82
282.26	31.91
282.476	17.58
282.691	60.59
282.906	44.2
283.122	95.4
283.337	-2.9
283.552	36.01
283.767	11.43
283.983	21.67
284.198	-23.38
284.413	38.06
284.628	-17.24
284.843	40.11
285.058	42.15
285.274	5.29
285.489	81.07
285.704	81.07
285.919	29.87
286.134	-43.86
286.349	72.87
286.564	27.82
286.779	5.29
286.995	54.44
287.21	46.25
287.425	62.63
287.64	89.26
287.855	70.83
288.07	-4.95
288.285	160.94
288.5	15.53
288.715	81.07
288.93	64.68
289.145	-52.05
289.36	36.01
289.575	11.43
289.79	48.3
290.004	-4.95
290.219	56.49
290.434	-13.14
290.649	25.77
290.864	66.73
291.079	-23.38
291.294	76.97
291.509	64.68
291.724	46.25
291.938	-21.33
292.153	134.31
292.368	-19.29
292.583	-54.1
292.798	83.11
293.012	25.77
293.227	-41.81
293.442	-4.95
293.657	117.93
293.871	52.39
294.086	29.87
294.301	109.74
294.516	5.29
294.73	54.44
294.945	-25.43
295.16	97.45
295.374	89.26
295.589	175.27
295.804	11.43
296.018	76.97
296.233	36.01
296.447	85.16
296.662	25.77
296.877	11.43
297.091	66.73
297.306	-15.19
297.52	7.34
297.735	113.83
297.949	52.39
298.164	52.39
298.378	-13.14
298.593	54.44
298.807	3.24
299.022	95.4
299.236	36.01
299.451	-7
299.665	-41.81
299.88	48.3
300.094	74.92
300.309	7.34
300.523	-21.33
300.737	-13.14
300.952	52.39
301.166	50.35
301.381	19.63
301.595	11.43
301.809	62.63
302.024	-19.29
302.238	31.91
302.452	111.78
302.667	44.2
302.881	44.2
303.095	101.55
303.309	105.64
303.524	11.43
303.738	-37.72
303.952	-2.9
304.166	-4.95
304.381	40.11
304.595	31.91
304.809	27.82
305.023	107.69
305.237	-7
305.452	19.63
305.666	68.78
305.88	76.97
306.094	46.25
306.308	27.82
306.522	109.74
306.736	44.2
306.95	40.11
307.164	-19.29
307.379	85.16
307.593	160.94
307.807	44.2
308.021	60.59
308.235	11.43
308.449	-31.57
308.663	3.24
308.877	54.44
309.091	76.97
309.305	68.78
309.519	-45.91
309.733	52.39
309.947	-33.62
310.161	9.39
310.374	58.54
310.588	44.2
310.802	-93.01
311.016	-0.85
311.23	19.63
311.444	15.53
311.658	70.83
311.872	81.07
312.085	15.53
312.299	54.44
312.513	60.59
312.727	66.73
312.941	15.53
313.154	44.2
313.368	23.72
313.582	-0.85
313.796	40.11
314.009	85.16
314.223	44.2
314.437	-39.76
314.651	101.55
314.864	-4.95
315.078	29.87
315.292	-25.43
315.505	62.63
315.719	23.72
315.933	56.49
316.146	31.91
316.36	42.15
316.573	7.34
316.787	44.2
317.001	62.63
317.214	15.53
317.428	3.24
317.641	-21.33
317.855	11.43
318.068	60.59
318.282	7.34
318.495	64.68
318.709	79.02
318.922	-9.05
319.136	76.97
319.349	107.69
319.563	-33.62
319.776	48.3
319.99	-25.43
320.203	29.87
320.417	36.01
320.63	93.35
320.843	52.39
321.057	107.69
321.27	38.06
321.483	93.35
321.697	46.25
321.91	40.11
322.124	19.63
322.337	38.06
322.55	-13.14
322.763	-64.34
322.977	79.02
323.19	-58.2
323.403	56.49
323.617	19.63
323.83	79.02
324.043	-29.52
324.256	27.82
324.469	-13.14
324.683	54.44
324.896	-11.09
325.109	76.97
325.322	33.96
325.535	38.06
325.748	107.69
325.962	27.82
326.175	72.87
326.388	60.59
326.601	48.3
326.814	-25.43
327.027	-2.9
327.24	60.59
327.453	29.87
327.666	48.3
327.879	36.01
328.092	95.4
328.305	-21.33
328.518	70.83
328.731	-13.14
328.944	29.87
329.157	-13.14
329.37	93.35
329.583	27.82
329.796	136.36
330.009	19.63
330.222	-0.85
330.435	27.82
330.648	29.87
330.861	44.2
331.073	158.89
331.286	29.87
331.499	21.67
331.712	11.43
331.925	70.83
332.138	-50
332.35	105.64
332.563	19.63
332.776	128.17
332.989	93.35
333.202	44.2
333.414	17.58
333.627	72.87
333.84	27.82
334.053	81.07
334.265	23.72
334.478	11.43
334.691	11.43
334.903	36.01
335.116	21.67
335.329	95.4
335.541	52.39
335.754	109.74
335.966	38.06
336.179	111.78
336.392	66.73
336.604	21.67
336.817	-21.33
337.029	44.2
337.242	11.43
337.454	19.63
337.667	68.78
337.88	101.55
338.092	76.97
338.305	19.63
338.517	19.63
338.729	68.78
338.942	48.3
339.154	-43.86
339.367	-37.72
339.579	52.39
339.792	23.72
340.004	-4.95
340.217	29.87
340.429	23.72
340.641	1.19
340.854	5.29
341.066	76.97
341.278	60.59
341.491	101.55
341.703	36.01
341.915	68.78
342.128	21.67
342.34	46.25
342.552	48.3
342.764	3.24
342.977	81.07
343.189	50.35
343.401	68.78
343.613	-0.85
343.826	3.24
344.038	48.3
344.25	11.43
344.462	64.68
344.674	97.45
344.886	15.53
345.099	15.53
345.311	68.78
345.523	72.87
345.735	-45.91
345.947	44.2
346.159	17.58
346.371	46.25
346.583	87.21
346.795	103.59
347.007	-4.95
347.219	81.07
347.431	42.15
347.643	97.45
347.855	52.39
348.067	117.93
348.279	-19.29
348.491	-17.24
348.703	72.87
348.915	95.4
349.127	-2.9
349.339	36.01
349.551	-21.33
349.763	-0.85
349.975	-35.67
350.187	103.59
350.399	25.77
350.61	79.02
350.822	62.63
351.034	52.39
351.246	54.44
351.458	-21.33
351.669	40.11
351.881	81.07
352.093	31.91
352.305	11.43
352.517	27.82
352.728	130.22
352.94	64.68
353.152	11.43
353.363	5.29
353.575	48.3
353.787	109.74
353.999	3.24
354.21	93.35
354.422	44.2
354.633	56.49
354.845	64.68
355.057	44.2
355.268	29.87
355.48	36.01
355.692	3.24
355.903	79.02
356.115	-33.62
356.326	-0.85
356.538	52.39
356.749	52.39
356.961	109.74
357.172	76.97
357.384	33.96
357.595	68.78
357.807	76.97
358.018	19.63
358.23	52.39
358.441	122.02
358.653	101.55
358.864	64.68
359.075	33.96
359.287	36.01
359.498	117.93
359.709	60.59
359.921	54.44
360.132	-35.67
360.344	50.35
360.555	3.24
360.766	-21.33
360.977	46.25
361.189	64.68
361.4	64.68
361.611	76.97
361.823	52.39
362.034	19.63
362.245	-0.85
362.456	158.89
362.667	60.59
362.879	44.2
363.09	105.64
363.301	101.55
363.512	48.3
363.723	-13.14
363.935	48.3
364.146	48.3
364.357	46.25
364.568	66.73
364.779	93.35
364.99	21.67
365.201	-4.95
365.412	38.06
365.623	1.19
365.834	76.97
366.045	56.49
366.256	3.24
366.467	117.93
366.678	76.97
366.889	-31.57
367.1	101.55
367.311	117.93
367.522	-19.29
367.733	27.82
367.944	60.59
368.155	-37.72
368.366	109.74
368.577	85.16
368.788	76.97
368.999	-17.24
369.209	40.11
369.42	113.83
369.631	146.6
369.842	-13.14
370.053	93.35
370.264	56.49
370.474	40.11
370.685	60.59
370.896	87.21
371.107	113.83
371.317	95.4
371.528	-13.14
371.739	46.25
371.95	101.55
372.16	76.97
372.371	3.24
372.582	36.01
372.792	93.35
373.003	70.83
373.214	70.83
373.424	54.44
373.635	62.63
373.846	115.88
374.056	15.53
374.267	79.02
374.477	70.83
374.688	11.43
374.898	-0.85
375.109	66.73
375.319	36.01
375.53	111.78
375.74	70.83
375.951	3.24
376.161	29.87
376.372	79.02
376.582	-7
376.793	31.91
377.003	124.07
377.214	60.59
377.424	31.91
377.635	11.43
377.845	-35.67
378.055	44.2
378.266	-4.95
378.476	31.91
378.686	109.74
378.897	-11.09
379.107	132.26
379.317	44.2
379.528	23.72
379.738	103.59
379.948	44.2
380.158	68.78
380.369	62.63
380.579	79.02
380.789	-0.85
380.999	93.35
381.21	85.16
381.42	103.59
381.63	76.97
381.84	52.39
382.05	109.74
382.261	150.7
382.471	76.97
382.681	36.01
382.891	97.45
383.101	3.24
383.311	-60.24
383.521	36.01
383.731	103.59
383.941	-11.09
384.151	-29.52
384.361	38.06
384.571	91.31
384.781	185.51
384.991	122.02
385.201	160.94
385.411	103.59
385.621	46.25
385.831	70.83
386.041	64.68
386.251	79.02
386.461	46.25
386.671	95.4
386.881	46.25
387.091	60.59
387.301	93.35
387.511	91.31
387.72	19.63
387.93	60.59
388.14	21.67
388.35	83.11
388.56	85.16
388.769	169.13
388.979	76.97
389.189	38.06
389.399	101.55
389.609	44.2
389.818	93.35
390.028	93.35
390.238	27.82
390.447	-17.24
390.657	70.83
390.867	36.01
391.076	-2.9
391.286	42.15
391.496	68.78
391.705	97.45
391.915	70.83
392.125	105.64
392.334	9.39
392.544	134.31
392.753	101.55
392.963	52.39
393.172	119.98
393.382	62.63
393.591	154.79
393.801	38.06
394.01	169.13
394.22	56.49
394.429	93.35
394.639	70.83
394.848	136.36
395.058	68.78
395.267	126.12
395.477	144.55
395.686	85.16
395.895	101.55
396.105	148.65
396.314	130.22
396.524	76.97
396.733	130.22
396.942	201.9
397.152	103.59
397.361	158.89
397.57	148.65
397.78	122.02
397.989	95.4
398.198	173.22
398.407	91.31
398.617	134.31
398.826	89.26
399.035	107.69
399.244	146.6
399.453	111.78
399.663	36.01
399.872	146.6
400.081	103.59
400.29	93.35
400.499	134.31
400.708	130.22
400.917	68.78
401.127	107.69
401.336	99.5
401.545	208.04
401.754	134.31
401.963	85.16
402.172	103.59
402.381	93.35
402.59	214.18
402.799	185.51
403.008	216.23
403.217	160.94
403.426	138.41
403.635	160.94
403.844	144.55
404.053	199.85
404.262	240.81
404.471	240.81
404.68	132.26
404.888	165.03
405.097	187.56
405.306	228.52
405.515	232.62
405.724	162.98
405.933	191.66
406.142	203.94
406.35	226.47
406.559	228.52
406.768	273.57
406.977	292.01
407.185	257.19
407.394	341.16
407.603	203.94
407.812	232.62
408.02	330.92
408.229	281.77
408.438	335.01
408.646	269.48
408.855	289.96
409.064	308.39
409.272	353.45
409.481	404.64
409.69	355.49
409.898	363.69
410.107	382.12
410.315	322.73
410.524	488.61
410.733	470.18
410.941	431.27
411.15	492.71
411.358	490.66
411.567	515.23
411.775	556.19
411.984	543.91
412.192	601.25
412.401	591.01
412.609	609.44
412.818	699.55
413.026	654.5
413.234	699.55
413.443	656.54
413.651	683.17
413.86	752.8
414.068	785.57
414.276	816.29
414.485	875.68
414.693	906.4
414.901	1004.7
415.11	939.16
415.318	910.49
415.526	980.12
415.734	1051.8
415.943	1029.27
416.151	1168.54
416.359	1105.05
416.567	1066.14
416.776	1143.96
416.984	1227.93
417.192	1285.27
417.4	1229.98
417.608	1318.04
417.817	1467.54
418.025	1500.31
418.233	1576.08
418.441	1453.2
418.649	1658
418.857	1717.39
419.065	1766.54
419.273	1709.2
419.481	1799.31
419.689	1928.33
419.897	1957
420.105	1981.58
420.313	2169.99
420.521	2165.9
420.729	2167.95
420.937	2243.72
421.145	2354.31
421.353	2329.74
421.561	2575.49
421.769	2567.3
421.977	2714.75
422.185	2636.93
422.393	2862.21
422.601	3026.04
422.809	3036.28
423.017	3075.2
423.224	3134.59
423.432	3214.46
423.64	3323
423.848	3652.72
424.056	3523.7
424.263	3755.12
424.471	3716.21
424.679	3834.99
424.887	4058.22
425.094	4140.14
425.302	4174.95
425.51	4385.9
425.718	4525.16
425.925	4488.29
426.133	4662.37
426.341	4965.47
426.548	5149.79
426.756	5149.79
426.964	5203.04
427.171	5438.55
427.379	5631.06
427.586	5774.42
427.794	6061.13
428.001	6122.57
428.209	6566.98
428.417	6530.12
428.624	6896.71
428.832	6892.61
429.039	6812.74
429.247	6857.79
429.454	7412.79
429.662	7992.37
429.869	7244.86
430.076	8023.09
430.284	7801.91
430.491	8121.39
430.699	8530.98
430.906	8567.85
431.114	8786.98
431.321	8891.43
431.528	9264.16
431.736	9772.05
431.943	10015.76
432.15	9823.25
432.358	9970.71
432.565	10474.51
432.772	10497.03
432.979	11158.53
433.187	11176.96
433.394	11355.13
433.601	11998.2
433.808	12291.06
434.016	12086.26
434.223	12653.55
434.43	13091.81
434.637	12946.41
434.844	13923.29
435.052	14052.31
435.259	13829.08
435.466	14214.1
435.673	14074.84
435.88	14765
436.087	15385.54
436.294	15590.33
436.501	15346.62
436.708	15516.61
436.915	15963.06
437.122	16669.61
437.329	16632.75
437.537	17202.08
437.743	17249.19
437.95	17544.09
438.157	18267.03
438.364	19004.3
438.571	18989.96
438.778	19094.41
438.985	20597.62
439.192	19757.95
439.399	20556.66
439.606	20009.85
439.813	21218.15
440.02	22428.5
440.227	21850.97
440.433	21748.57
440.64	22545.23
440.847	22061.91
441.054	23020.36
441.261	24292.15
441.467	23749.44
441.674	24505.14
441.881	25508.65
442.088	25492.26
442.294	25185.07
442.501	25557.8
442.708	26465.05
442.914	27151.12
443.121	28273.4
443.328	27753.22
443.534	29641.45
443.741	28795.64
443.948	28326.65
444.154	30616.28
444.361	30180.06
444.568	30522.07
444.774	30544.6
444.981	30765.78
445.187	31572.68
445.394	32813.75
445.6	32701.11
445.807	35685
446.013	33907.37
446.22	34914.97
446.426	36074.12
446.633	36244.1
446.839	37565.04
447.046	36037.25
447.252	37741.16
447.459	38308.45
447.665	37943.91
447.871	39811.66
448.078	40964.67
448.284	39424.59
448.491	40479.3
448.697	41613.87
448.903	42463.78
449.11	42496.55
449.316	41902.64
449.522	42908.19
449.728	44169.74
449.935	44075.53
450.141	44077.58
450.347	44892.67
450.553	43657.74
450.76	44218.89
450.966	45855.21
451.172	45021.69
451.378	46268.9
451.584	45339.13
451.791	46408.17
451.997	46258.66
452.203	46645.73
452.409	47331.8
452.615	46516.71
452.821	44882.43
453.027	44716.54
453.233	46684.64
453.44	44671.49
453.646	45320.7
453.852	45890.03
454.058	46447.08
454.264	44947.96
454.47	46191.08
454.676	44816.89
454.882	46496.23
455.088	42117.67
455.294	42981.91
455.5	43612.69
455.705	43534.87
455.911	42183.21
456.117	41423.41
456.323	40897.08
456.529	38959.7
456.735	40424
456.941	39518.8
457.147	39090.77
457.352	37358.19
457.558	37425.78
457.764	37681.77
457.97	36651.64
458.176	35740.3
458.381	36045.44
458.587	34247.33
458.793	34189.98
458.999	32045.76
459.204	34509.47
459.41	33774.25
459.616	31562.44
459.821	31464.14
460.027	31333.07
460.233	30599.9
460.438	29248.24
460.644	29569.77
460.85	28291.83
461.055	27546.37
461.261	27824.9
461.466	25643.81
461.672	24726.32
461.878	26387.22
462.083	24904.49
462.289	24066.88
462.494	24097.59
462.7	23192.39
462.905	22559.57
463.111	23163.72
463.316	23601.99
463.522	22680.4
463.727	22997.84
463.932	22612.82
464.138	22715.22
464.343	22348.63
464.549	21885.79
464.754	22825.81
464.959	22313.81
465.165	22260.57
465.37	21244.77
465.575	20716.4
465.781	21560.16
465.986	21807.97
466.191	20919.15
466.397	20534.13
466.602	19483.52
466.807	20349.81
467.012	20339.57
467.218	20167.54
467.423	19807.1
467.628	19839.87
467.833	20810.61
468.038	19977.08
468.244	19450.75
468.449	19915.64
468.654	19585.92
468.859	19188.61
469.064	19471.23
469.269	18408.34
469.474	18650
469.679	19250.05
469.885	18449.3
470.09	18836.36
470.295	18676.62
470.5	18197.4
470.705	18416.53
470.91	17783.71
471.115	17853.34
471.32	18004.89
471.525	17894.3
471.73	17466.27
471.935	17400.74
472.139	16837.55
472.344	17079.21
472.549	16745.39
472.754	16837.55
472.959	16464.82
473.164	15928.25
473.369	15655.87
473.574	16513.97
473.778	16102.32
473.983	15977.4
474.188	15641.53
474.393	15113.16
474.598	15600.57
474.802	15031.24
475.007	15178.69
475.212	15174.6
475.417	14470.09
475.621	14652.36
475.826	14650.32
476.031	13984.73
476.235	13790.17
476.44	14183.38
476.645	13904.85
476.849	14019.54
477.054	13796.31
477.259	13470.69
477.463	13411.29
477.668	13247.46
477.872	13413.34
478.077	13255.65
478.282	12973.03
478.486	12811.24
478.691	12628.97
478.895	12702.7
479.1	12678.12
479.304	12547.05
479.509	12180.46
479.713	12454.89
479.918	12149.75
480.122	11828.21
480.326	12162.03
480.531	12282.86
480.735	12086.26
480.94	11799.54
481.144	12112.88
481.348	12059.63
481.553	12041.2
481.757	11500.54
481.961	12012.53
482.166	12063.73
482.37	11914.23
482.574	11676.66
482.778	11721.72
482.983	11815.93
483.187	11664.38
483.391	11746.3
483.595	11615.23
483.8	11506.68
484.004	11674.62
484.208	11893.75
484.412	11768.82
484.616	11916.28
484.821	11717.62
485.025	11611.13
485.229	11602.94
485.433	11650.04
485.637	11703.29
485.841	11465.72
486.045	11392
486.249	11793.4
486.453	11324.41
486.657	11647.99
486.861	11701.24
487.065	11271.17
487.269	11496.44
487.473	11424.76
487.677	11672.57
487.881	11734.01
488.085	11455.48
488.289	11783.16
488.493	11639.8
488.697	11856.89
488.901	11502.59
489.105	11529.21
489.309	11811.83
489.512	11703.29
489.716	11674.62
489.92	11684.86
490.124	11529.21
490.328	11770.87
490.531	11697.14
490.735	11770.87
490.939	11762.68
491.143	11858.93
491.346	11781.11
491.55	11826.17
491.754	11916.28
491.958	12215.28
492.161	11987.96
492.365	12078.07
492.569	12028.92
492.772	12241.9
492.976	12090.35
493.18	12254.19
493.383	12381.17
493.587	12495.85
493.79	12637.16
493.994	12420.08
494.197	12647.4
494.401	12612.59
494.605	12841.96
494.808	13030.37
495.012	12993.51
495.215	12725.22
495.419	13108.19
495.622	12981.22
495.825	13239.26
496.029	13108.19
496.232	13646.81
496.436	13464.54
496.639	13859.8
496.843	13503.45
497.046	13978.58
497.249	13831.13
497.453	14218.19
497.656	14388.18
497.859	14134.23
498.063	14384.08
498.266	14611.4
498.469	14773.19
498.673	14865.35
498.876	14955.46
499.079	14980.04
499.282	14980.04
499.485	15573.95
499.689	15487.93
499.892	15621.05
500.095	15838.14
500.298	15899.58
500.501	15893.43
500.705	16309.17
500.908	16368.56
501.111	16579.5
501.314	16876.46
501.517	16937.9
501.72	17181.6
501.923	17134.5
502.126	17683.36
502.329	17656.73
502.532	17634.21
502.735	17814.43
502.938	18221.97
503.141	18119.57
503.344	18568.08
503.547	18766.73
503.75	18889.61
503.953	19055.5
504.156	19508.1
504.359	19256.2
504.562	19753.85
504.765	19768.19
504.968	19856.25
505.17	20358
505.373	20468.59
505.576	20687.73
505.779	20861.8
505.982	20857.71
506.185	21508.96
506.387	21521.25
506.59	21787.49
506.793	22358.87
506.996	21724
507.198	22700.88
507.401	22444.88
507.604	22782.8
507.807	23235.4
508.009	23321.41
508.212	23290.7
508.415	23601.99
508.617	24011.58
508.82	24210.23
509.022	23952.19
509.225	24726.32
509.428	25094.96
509.63	24888.11
509.833	24949.55
510.035	25635.62
510.238	25500.45
510.44	25678.63
510.643	26389.27
510.845	26483.48
511.048	26542.87
511.25	26860.3
511.453	26626.84
511.655	27904.77
511.858	27640.58
512.06	27362.06
512.262	28347.13
512.465	28111.61
512.667	28527.35
512.87	28934.9
513.072	28895.99
513.274	29403.88
513.477	29625.06
513.679	30005.98
513.881	29944.55
514.084	30649.05
514.286	30300.89
514.488	30413.53
514.69	31517.39
514.893	31531.72
515.095	31589.06
515.297	31943.36
515.499	31845.06
515.701	32539.32
515.904	32842.42
516.106	32647.86
516.308	33200.82
516.51	33370.8
516.712	33669.8
516.914	33931.94
517.116	34261.66
517.318	34314.91
517.52	34495.13
517.722	34826.9
517.925	35306.13
518.127	35678.86
518.329	35760.78
518.531	35666.57
518.733	36119.17
518.935	36772.47
519.136	36594.3
519.338	36809.34
519.54	36995.7
519.742	37382.77
519.944	37124.72
520.146	37913.19
520.348	38500.96
520.55	38087.27
520.752	38646.36
520.954	38853.21
521.155	38361.7
521.357	39428.69
521.559	39340.63
521.761	40075.85
521.963	39318.1
522.164	39645.77
522.366	40174.15
522.568	40806.97
522.77	40514.11
522.971	41488.95
523.173	40620.61
523.375	40903.23
523.576	41370.16
523.778	41237.05
523.98	41833
524.181	41445.94
524.383	42109.48
524.584	42105.38
524.786	42574.37
524.988	42140.2
525.189	42287.65
525.391	42832.41
525.592	42752.54
525.794	42893.85
525.995	42656.29
526.197	42998.3
526.398	42922.52
526.6	43186.71
526.801	43194.9
527.003	43549.2
527.204	43547.15
527.406	43702.8
527.607	43588.11
527.808	43950.6
528.01	43039.26
528.211	43176.47
528.412	44237.32
528.614	43983.37
528.815	43848.21
529.016	44261.9
529.218	44050.95
529.419	43969.04
529.62	43893.26
529.822	44208.65
530.023	43670.03
530.224	44292.61
530.425	44065.29
530.626	43442.71
530.828	43762.19
531.029	44593.67
531.23	43821.58
531.431	43850.25
531.632	43926.03
531.833	44220.94
532.035	43606.55
532.236	43817.49
532.437	44270.09
532.638	43694.61
532.839	43995.66
533.04	43749.9
533.241	43287.06
533.442	44003.85
533.643	43645.46
533.844	43567.63
534.045	43672.08
534.246	43391.51
534.447	43895.31
534.648	43350.55
534.849	43950.6
535.05	43459.09
535.251	43311.64
535.451	43008.54
535.652	43291.16
535.853	43475.48
536.054	43446.8
536.255	43483.67
536.456	42854.94
536.657	43602.45
536.857	43309.59
537.058	42750.49
537.259	43139.61
537.46	42908.19
537.66	43029.02
537.861	43162.14
538.062	42590.75
538.263	43190.81
538.463	42975.77
538.664	42934.81
538.865	42744.35
539.065	43155.99
539.266	42697.25
539.466	42760.73
539.667	42072.62
539.868	42744.35
540.068	42910.24
540.269	42539.55
540.469	42566.18
540.67	42404.39
540.87	42433.06
541.071	42138.15
541.271	42850.84
541.472	42408.48
541.672	42418.72
541.873	42226.21
542.073	41656.88
542.274	42603.04
542.474	42367.52
542.675	42002.99
542.875	42656.29
543.075	41882.16
543.276	41826.86
543.476	42586.66
543.676	42144.3
543.877	42283.56
544.077	41998.89
544.277	42078.76
544.478	42422.82
544.678	42086.95
544.878	42263.08
545.078	41984.55
545.279	41851.44
545.479	41880.11
545.679	42097.19
545.879	41845.29
546.079	42310.18
546.28	41865.77
546.48	41783.85
546.68	42183.21
546.88	42060.33
547.08	42156.58
547.28	41730.61
547.48	41624.11
547.68	42000.94
547.88	41581.1
548.081	42152.49
548.281	42041.9
548.481	41749.04
548.681	42019.37
548.881	41818.67
549.081	41828.91
549.28	41925.16
549.48	42254.89
549.68	42146.34
549.88	42527.27
550.08	41966.12
550.28	42545.7
550.48	41955.88
550.68	42377.76
550.88	41732.65
551.08	41767.47
551.279	42392.1
551.479	41454.13
551.679	42056.23
551.879	41787.95
552.079	42168.87
552.278	41959.98
552.478	42218.02
552.678	42072.62
552.878	42316.32
553.077	41982.51
553.277	42113.58
553.477	42629.66
553.676	42205.73
553.876	42168.87
554.076	42490.4
554.275	41878.06
554.475	41607.73
554.674	42148.39
554.874	42172.97
555.074	41693.74
555.273	42215.97
555.473	41982.51
555.672	42082.86
555.872	42082.86
556.071	42650.14
556.271	42301.99
556.47	41845.29
556.67	41873.96
556.869	41695.79
557.068	42328.61
557.268	41841.2
557.467	42295.85
557.667	42148.39
557.866	42236.45
558.065	42197.54
558.265	42082.86
558.464	42148.39
558.663	42547.75
558.863	41671.21
559.062	42416.68
559.261	41882.16
559.461	42467.87
559.66	41630.26
559.859	42193.45
560.058	41990.7
560.258	42213.93
560.457	41605.68
560.656	41822.76
560.855	42203.69
561.054	42336.8
561.253	41597.49
561.453	42103.34
561.652	41826.86
561.851	42414.63
562.05	42121.77
562.249	41523.76
562.448	42492.45
562.647	41804.33
562.846	42261.03
563.045	41996.84
563.244	41374.26
563.443	42021.42
563.642	41480.75
563.841	41663.02
564.04	41728.56
564.239	42261.03
564.438	41663.02
564.637	41738.8
564.836	41884.2
565.035	41515.57
565.234	41607.73
565.432	41669.17
565.631	41120.31
565.83	41435.7
566.029	41290.29
566.228	41642.54
566.427	41216.57
566.625	40901.18
566.824	40716.86
567.023	41314.87
567.222	40346.18
567.42	41185.85
567.619	41030.2
567.818	40776.25
568.016	40827.45
568.215	41415.22
568.414	40462.91
568.612	40872.51
568.811	40759.87
569.01	40503.87
569.208	40079.94
569.407	40796.73
569.605	40387.14
569.804	40800.83
570.002	40055.37
570.201	40436.29
570.4	40165.96
570.598	40145.48
570.797	39678.54
570.995	39733.84
571.193	39201.36
571.392	40227.4
571.59	39610.96
571.789	39780.94
571.987	39455.31
572.186	39526.99
572.384	39264.85
572.582	39580.24
572.781	39529.04
572.979	38412.9
573.177	39393.87
573.376	39363.15
573.574	38765.15
573.772	39029.34
573.971	38558.3
574.169	38507.1
574.367	38287.97
574.565	38472.29
574.763	38369.89
574.962	38054.5
575.16	37890.66
575.358	38077.03
575.556	37685.87
575.754	38292.07
575.952	37519.98
576.151	38105.7
576.349	37806.7
576.547	37655.15
576.745	37573.23
576.943	37706.35
577.141	37276.27
577.339	37474.93
577.537	36899.45
577.735	37403.25
577.933	36848.25
578.131	36856.44
578.329	36661.88
578.527	36291.2
578.725	36661.88
578.923	37153.4
579.121	36401.79
579.319	36491.9
579.516	36563.58
579.714	36412.03
579.912	36092.55
580.11	35803.78
580.308	36108.93
580.506	36194.95
580.704	35553.93
580.901	35981.96
581.099	36100.74
581.297	35594.89
581.495	35451.53
581.692	35801.74
581.89	34882.2
582.088	35498.64
582.285	35398.29
582.483	35156.63
582.681	35283.6
582.878	34777.75
583.076	34798.23
583.274	35406.48
583.471	34757.27
583.669	34413.21
583.866	34421.41
584.064	34564.76
584.262	34085.54
584.459	34525.85
584.657	34146.98
584.854	34386.59
585.052	33673.9
585.249	33936.04
585.447	34069.15
585.644	33852.07
585.841	33698.47
586.039	33804.97
586.236	33643.18
586.434	33477.29
586.631	33077.94
586.828	33884.84
587.026	33608.36
587.223	33467.05
587.42	33278.64
587.618	33354.41
587.815	32715.45
588.012	32694.97
588.21	32918.2
588.407	33209.01
588.604	32553.66
588.801	32518.84
588.999	32426.68
589.196	32619.19
589.393	32836.28
589.59	32281.28
589.787	32410.3
589.984	32449.21
590.182	32051.91
590.379	32473.79
590.576	31808.2
590.773	32191.17
590.97	32021.19
591.167	31914.69
591.364	31603.4
591.561	31906.5
591.758	31759.05
591.955	31267.53
592.152	32096.96
592.349	31163.09
592.546	31630.02
592.743	31681.22
592.94	30925.52
593.137	31171.28
593.334	31695.56
593.531	30960.34
593.727	31349.45
593.924	30898.9
594.121	30716.63
594.318	31404.75
594.515	30786.26
594.712	31009.49
594.908	30792.4
595.105	30939.86
595.302	30624.47
595.499	30718.68
595.696	30290.65
595.892	30534.36
596.089	30616.28
596.286	30610.14
596.482	30403.29
596.679	30583.51
596.876	30282.46
597.072	30345.95
597.269	30102.24
597.466	30184.16
597.662	30081.76
597.859	30311.13
598.055	30075.62
598.252	29778.66
598.448	30083.81
598.645	29940.45
598.841	29969.12
599.038	29956.83
599.234	29977.31
599.431	29633.25
599.627	29713.13
599.824	29899.49
600.02	29889.25
600.217	29946.59
600.413	29680.36
600.609	29711.08
600.806	29537
601.002	29838.05
601.198	29725.41
601.395	29633.25
601.591	29510.38
601.787	29516.52
601.984	29500.14
602.18	29833.96
602.376	29571.82
602.572	29313.77
602.769	29557.48
602.965	29506.28
603.161	29702.89
603.357	29111.02
603.553	29207.28
603.75	29330.16
603.946	29266.67
604.142	29285.1
604.338	29113.07
604.534	29518.57
604.73	29100.78
604.926	29276.91
605.122	28793.59
605.318	29485.8
605.514	29305.58
605.71	29065.97
605.906	29317.87
606.102	29090.54
606.298	29295.34
606.494	28953.33
606.69	29254.38
606.886	29385.45
607.082	28938.99
607.278	29160.17
607.474	28955.38
607.67	29500.14
607.866	29029.1
608.062	29383.4
608.257	29260.52
608.453	29137.65
608.649	29084.4
608.845	29143.79
609.041	29194.99
609.236	29623.01
609.432	29049.58
609.628	29645.54
609.824	29354.73
610.019	29033.2
610.215	29010.67
610.411	29360.87
610.606	29229.8
610.802	29358.83
610.998	29276.91
611.193	29295.34
611.389	29344.49
611.584	29483.75
611.78	29287.15
611.976	29332.2
612.171	29311.72
612.367	29330.16
612.562	29344.49
612.758	29215.47
612.953	29158.13
613.149	29438.7
613.344	28906.23
613.539	29780.71
613.735	29448.94
613.93	29235.95
614.126	29111.02
614.321	29291.24
614.517	29274.86
614.712	29221.61
614.907	29031.15
615.103	29115.12
615.298	29102.83
615.493	29766.37
615.688	28932.85
615.884	29668.07
616.079	28836.59
616.274	29043.44
616.47	28938.99
616.665	28996.34
616.86	29141.74
617.055	28912.37
617.25	29201.13
617.445	29285.1
617.641	28648.18
617.836	29065.97
618.031	28472.06
618.226	29082.35
618.421	28916.47
618.616	28867.31
618.811	28402.43
619.006	28926.71
619.201	28402.43
619.396	28582.65
619.591	28117.76
619.786	28529.4
619.981	28297.98
620.176	28283.64
620.371	27806.47
620.566	28302.07
620.761	27900.67
620.956	28089.09
621.151	27599.62
621.346	27480.84
621.541	26999.57
621.735	27491.08
621.93	27151.12
622.125	27097.87
622.32	26858.26
622.515	26964.75
622.709	26936.08
622.904	26530.58
623.099	26598.16
623.294	26741.52
623.488	26323.74
623.683	26667.8
623.878	26270.49
624.072	25910.05
624.267	25989.92
624.462	26008.35
624.656	25561.89
624.851	25627.43
625.046	25328.42
625.24	25611.04
625.435	25109.29
625.629	25195.31
625.824	24650.55
626.018	25187.11
626.213	24525.62
626.407	24462.13
626.602	24560.44
626.796	24724.27
626.991	24650.55
627.185	24550.2
627.38	24189.75
627.574	23984.96
627.768	23808.83
627.963	23802.69
628.157	23511.88
628.352	23444.29
628.546	23329.61
628.74	23343.94
628.935	23139.15
629.129	23153.48
629.323	22778.7
629.517	22743.89
629.712	22788.94
629.906	22877.01
630.1	22346.58
630.294	22506.32
630.489	22063.96
630.683	22414.16
630.877	21846.88
631.071	22111.07
631.265	21932.89
631.459	21580.64
631.653	21465.96
631.848	21810.01
632.042	21381.99
632.236	21515.11
632.43	21064.55
632.624	21341.03
632.818	21144.42
633.012	20740.97
633.206	20915.05
633.4	20638.58
633.594	20638.58
633.788	20507.51
633.982	20536.18
634.176	20368.24
634.369	20271.99
634.563	20157.3
634.757	20001.66
634.951	19960.7
635.145	19895.16
635.339	19880.83
635.533	19710.85
635.726	19733.37
635.92	19225.48
636.114	19569.54
636.308	19286.92
636.501	19350.4
636.695	19248
636.889	18975.63
637.083	18693.01
637.276	18844.56
637.47	18664.33
637.664	18637.71
637.857	18451.35
638.051	18621.33
638.244	18275.22
638.438	18240.4
638.632	18154.39
638.825	17771.42
639.019	17812.38
639.212	17888.15
639.406	17851.29
639.599	17714.08
639.793	17617.82
639.986	17103.78
640.18	17365.92
640.373	17361.83
640.567	17126.31
640.76	17437.6
640.954	16841.64
641.147	16892.84
641.34	16739.24
641.534	16686
641.727	16487.34
641.92	16649.13
642.114	16309.17
642.307	16296.88
642.5	16298.93
642.694	16098.23
642.887	15954.87
643.08	15922.1
643.273	15731.64
643.467	15829.95
643.66	15764.41
643.853	15780.79
644.046	15346.62
644.239	15307.71
644.432	15477.69
644.626	15094.72
644.819	15436.74
645.012	15311.81
645.205	15029.19
645.398	14883.78
645.591	14896.07
645.784	14887.88
645.977	14373.84
646.17	14642.12
646.363	14545.87
646.556	14441.42
646.749	14257.11
646.942	14515.15
647.135	14240.72
647.328	14175.19
647.521	13892.57
647.714	13839.32
647.907	13974.49
648.099	13775.83
648.292	13849.56
648.485	13794.26
648.678	13407.2
648.871	13433.82
649.064	13540.32
649.256	13478.88
649.449	13165.54
649.642	13356
649.835	13069.28
650.027	13200.35
650.22	12952.55
650.413	12899.3
650.605	12860.39
650.798	12692.46
650.991	12635.11
651.183	12766.18
651.376	12551.15
651.568	12479.47
651.761	12536.81
651.954	12463.08
652.146	12258.29
652.339	12612.59
652.531	12174.32
652.724	12092.4
652.916	11951.09
653.109	12112.88
653.301	11897.85
653.494	12069.87
653.686	11557.88
653.879	11578.36
654.071	11725.82
654.263	11684.86
654.456	11684.86
654.648	11598.84
654.84	11389.95
655.033	11420.67
655.225	11084.8
655.417	11103.23
655.61	11275.26
655.802	11080.71
655.994	11205.63
656.186	11056.13
656.379	10994.69
656.571	10976.26
656.763	10882.05
656.955	10787.85
657.148	10896.39
657.34	10900.48
657.532	10408.97
657.724	10581
657.916	10634.25
658.108	10554.38
658.3	10415.12
658.492	10449.93
658.684	10245.13
658.876	10116.11
659.068	10308.62
659.26	10048.53
659.452	10005.52
659.644	9993.23
659.836	10021.91
660.028	9958.42
660.22	9647.13
660.412	9858.07
660.604	9843.73
660.796	9651.22
660.988	9776.15
661.18	9448.47
661.372	9409.56
661.563	9503.77
661.755	9251.87
661.947	9430.04
662.139	9335.84
662.331	9380.89
662.522	9073.7
662.714	9108.51
662.906	9104.42
663.097	9116.7
663.289	8836.13
663.481	8875.04
663.673	8928.29
663.864	8776.74
664.056	8899.62
664.247	8901.67
664.439	8596.52
664.631	8705.06
664.822	8719.4
665.014	8442.92
665.205	8465.45
665.397	8506.41
665.588	8516.65
665.78	8440.87
665.971	8516.65
666.163	8328.24
666.354	8266.8
666.546	8090.67
666.737	8068.14
666.929	7980.08
667.12	8178.73
667.311	8002.61
667.503	8035.38
667.694	8023.09
667.885	7824.44
668.077	7973.94
668.268	7769.14
668.459	7681.08
668.651	7787.57
668.842	7646.26
669.033	7711.8
669.224	7666.74
669.416	7656.5
669.607	7558.2
669.798	7633.97
669.989	7717.94
670.18	7601.21
670.371	7492.66
670.563	7523.38
670.754	7382.07
670.945	7236.67
671.136	7429.18
671.327	7320.63
671.518	7318.59
671.709	7343.16
671.9	7130.17
672.091	7132.22
672.282	7062.59
672.473	6908.99
672.664	6925.38
672.855	7132.22
673.046	7025.73
673.237	7101.5
673.428	6874.18
673.619	6868.03
673.809	6831.17
674	6779.97
674.191	6863.94
674.382	6882.37
674.573	6650.95
674.764	6904.9
674.954	6661.19
675.145	6663.24
675.336	6794.31
675.527	6681.67
675.717	6528.07
675.908	6530.12
676.099	6696
676.289	6597.7
676.48	6550.6
676.671	6421.58
676.861	6503.5
677.052	6478.92
677.243	6446.15
677.433	6327.37
677.624	6552.65
677.814	6448.2
678.005	6315.08
678.195	6343.75
678.386	6341.71
678.576	6171.72
678.767	6118.48
678.957	6177.87
679.148	6372.43
679.338	6208.59
679.529	6100.05
679.719	6032.46
679.909	6155.34
680.1	5999.7
680.29	6024.27
680.481	6122.57
680.671	6145.1
680.861	6093.9
681.052	6122.57
681.242	5819.47
681.432	6018.13
681.622	6024.27
681.813	5876.82
682.003	5919.82
682.193	5909.58
682.383	5999.7
682.573	5995.6
682.764	5938.26
682.954	5928.02
683.144	5993.55
683.334	5819.47
683.524	5805.14
683.714	5821.52
683.904	5704.79
684.094	5745.75
684.284	5745.75
684.474	5932.11
684.664	5737.56
684.854	5641.3
685.044	5649.49
685.234	5686.36
685.424	5680.21
685.614	5639.25
685.804	5698.64
685.994	5631.06
686.184	5551.19
686.374	5430.36
686.564	5499.99
686.753	5657.68
686.943	5368.92
687.133	5450.84
687.323	5502.04
687.513	5485.65
687.702	5401.69
687.892	5413.98
688.082	5313.63
688.272	5399.64
688.461	5282.91
688.651	5395.54
688.841	5291.1
689.03	5149.79
689.22	5342.3
689.41	5180.51
689.599	5180.51
689.789	5215.32
689.979	5205.08
690.168	5145.69
690.358	5256.28
690.547	5082.21
690.737	5262.43
690.926	4985.95
691.116	5080.16
691.305	4985.95
691.495	5067.87
691.684	4953.18
691.874	5002.33
692.063	5172.32
692.252	4988
692.442	4975.71
692.631	4828.26
692.82	4942.94
693.01	4889.7
693.199	4926.56
693.388	4813.92
693.578	4844.64
693.767	4846.69
693.956	4811.87
694.146	4877.41
694.335	4840.54
694.524	4701.28
694.713	4799.59
694.902	4639.84
695.092	4693.09
695.281	4625.51
695.47	4619.36
695.659	4602.98
695.848	4672.61
696.037	4660.32
696.226	4766.82
696.415	4510.82
696.604	4592.74
696.793	4625.51
696.982	4502.63
697.171	4598.88
697.36	4455.53
697.549	4576.36
697.738	4547.69
697.927	4459.62
698.116	4496.49
698.305	4478.05
698.494	4586.6
698.683	4562.02
698.872	4457.57
699.061	4402.28
699.25	4246.63
699.438	4361.32
699.627	4344.94
699.816	4430.95
700.005	4330.6
700.193	4387.94
700.382	4256.87
700.571	4242.54
700.76	4334.7
700.948	4205.67
701.137	4213.87
701.326	4394.09
701.514	4211.82
701.703	4254.83
701.892	4164.72
702.08	4230.25
702.269	4226.15
702.457	4080.75
702.646	4281.45
702.834	4172.91
703.023	4125.8
703.212	4041.84
703.4	4029.55
703.589	4002.93
703.777	3984.49
703.965	3894.38
704.154	4076.65
704.342	3814.51
704.531	3832.94
704.719	3882.1
704.907	3976.3
705.096	3871.86
705.284	3834.99
705.472	3855.47
705.661	3865.71
705.849	3839.09
706.037	3894.38
706.226	3878
706.414	3697.78
706.602	3904.62
706.79	3914.86
706.979	3671.15
707.167	3798.13
707.355	3722.35
707.543	3773.55
707.731	3765.36
707.919	3599.48
708.107	3691.63
708.296	3566.71
708.484	3669.11
708.672	3626.1
708.86	3742.83
709.048	3517.56
709.236	3763.31
709.424	3632.24
709.612	3579
709.8	3585.14
709.988	3359.86
710.176	3587.19
710.364	3435.64
710.551	3445.88
710.739	3603.57
710.927	3560.56
711.115	3513.46
711.303	3443.83
711.491	3421.3
711.679	3433.59
711.866	3427.45
712.054	3378.3
712.242	3411.06
712.43	3525.75
712.617	3419.25
712.805	3347.58
712.993	3351.67
713.181	3251.32
713.368	3445.88
713.556	3343.48
713.744	3216.51
713.931	3292.28
714.119	3314.81
714.306	3300.47
714.494	3226.75
714.682	3185.79
714.869	3239.03
715.057	3290.23
715.244	3148.92
715.432	3288.18
715.619	3214.46
715.807	3169.4
715.994	3210.36
716.182	3161.21
716.369	2997.37
716.556	3136.63
716.744	3148.92
716.931	2942.08
717.119	3138.68
717.306	3130.49
717.493	2978.94
717.681	3001.47
717.868	3067
718.055	3122.3
718.242	2985.09
718.43	3122.3
718.617	3005.56
718.804	2956.41
718.991	3026.04
719.179	3011.71
719.366	2993.28
719.553	2868.35
719.74	2864.25
719.927	2882.69
720.114	2899.07
720.301	2915.45
720.488	2940.03
720.676	2854.02
720.863	2976.89
721.05	2870.4
721.237	2772.1
721.424	2854.02
721.611	2897.02
721.798	2788.48
721.985	2747.52
722.172	2817.15
722.358	2815.1
722.545	2722.95
722.732	2796.67
722.919	2632.83
723.106	2788.48
723.293	2841.73
723.48	2575.49
723.667	2686.08
723.853	2731.14
724.04	2700.42
724.227	2649.22
724.414	2675.84
724.6	2641.03
724.787	2735.23
724.974	2729.09
725.161	2686.08
725.347	2626.69
725.534	2501.76
725.72	2567.3
725.907	2690.18
726.094	2575.49
726.28	2585.73
726.467	2540.68
726.653	2346.12
726.84	2536.58
727.027	2540.68
727.213	2550.92
727.4	2395.27
727.586	2395.27
727.773	2526.34
727.959	2356.36
728.145	2354.31
728.332	2372.74
728.518	2362.5
728.705	2415.75
728.891	2391.17
729.077	2391.17
729.264	2391.17
729.45	2364.55
729.636	2364.55
729.823	2296.97
730.009	2350.21
730.195	2362.5
730.382	2526.34
730.568	2348.17
730.754	2311.3
730.94	2331.78
731.126	2321.54
731.313	2323.59
731.499	2299.02
731.685	2276.49
731.871	2313.35
732.057	2313.35
732.243	2321.54
732.429	2362.5
732.615	2290.82
732.801	2239.62
732.987	2342.02
733.173	2288.78
733.359	2200.71
733.545	2290.82
733.731	2284.68
733.917	2235.53
734.103	2258.06
734.289	2194.57
734.475	2194.57
734.661	2239.62
734.847	2204.81
735.033	2151.56
735.219	2178.19
735.404	2266.25
735.59	2176.14
735.776	2098.31
735.962	2184.33
736.148	2065.55
736.333	2174.09
736.519	2225.29
736.705	2108.55
736.89	2165.9
737.076	2102.41
737.262	2038.92
737.447	2092.17
737.633	2063.5
737.819	2124.94
738.004	2094.22
738.19	2036.88
738.375	2167.95
738.561	2045.07
738.747	2028.68
738.932	1967.24
739.118	2028.68
739.303	2043.02
739.489	2069.64
739.674	1891.47
739.859	1952.91
740.045	2100.36
740.23	2075.79
740.416	1952.91
740.601	2016.4
740.786	1944.72
740.972	2002.06
741.157	2045.07
741.342	1844.37
741.528	1854.61
741.713	1858.7
741.898	1807.5
742.084	1774.74
742.269	1885.33
742.454	1801.36
742.639	1875.09
742.824	1754.26
743.01	1752.21
743.195	1838.22
743.38	1905.81
743.565	1752.21
743.75	1696.91
743.935	1854.61
744.12	1764.5
744.305	1723.54
744.49	1797.26
744.675	1647.76
744.86	1766.54
745.045	1774.74
745.23	1723.54
745.415	1735.82
745.6	1748.11
745.785	1668.24
745.97	1666.19
746.155	1680.53
746.34	1619.09
746.525	1662.1
746.71	1662.1
746.895	1571.99
747.079	1643.67
747.264	1658
747.449	1666.19
747.634	1555.6
747.819	1633.43
748.003	1649.81
748.188	1592.47
748.373	1512.6
748.557	1578.13
748.742	1537.17
748.927	1510.55
749.111	1490.07
749.296	1543.32
749.481	1518.74
749.665	1473.68
749.85	1543.32
750.034	1535.12
750.219	1428.63
750.404	1397.91
750.588	1473.68
750.773	1387.67
750.957	1506.45
751.141	1426.58
751.326	1408.15
751.51	1330.33
751.695	1359
751.879	1350.81
752.064	1291.41
752.248	1313.94
752.432	1395.86
752.617	1305.75
752.801	1350.81
752.985	1299.61
753.17	1365.14
753.354	1311.89
753.538	1248.41
753.722	1311.89
753.907	1309.85
754.091	1223.83
754.275	1248.41
754.459	1223.83
754.643	1244.31
754.828	1227.93
755.012	1234.07
755.196	1205.4
755.38	1215.64
755.564	1256.6
755.748	1141.91
755.932	1170.58
756.116	1180.82
756.3	1182.87
756.484	1225.88
756.668	1162.39
756.852	1090.71
757.036	1195.16
757.22	1068.19
757.404	1135.77
757.588	1146.01
757.772	1064.09
757.956	1086.62
758.14	1152.15
758.323	1084.57
758.507	1027.23
758.691	1090.71
758.875	1010.84
759.059	1043.61
759.242	945.31
759.426	1152.15
759.61	1010.84
759.794	1076.38
759.977	1014.94
760.161	1107.1
760.345	1123.48
760.528	996.51
760.712	1037.47
760.895	1055.9
761.079	1004.7
761.263	922.78
761.446	855.2
761.63	896.16
761.813	1012.89
761.997	914.59
762.18	973.98
762.364	904.35
762.547	990.36
762.731	1008.8
762.914	883.87
763.098	838.81
763.281	951.45
763.464	990.36
763.648	916.64
763.831	887.97
764.015	834.72
764.198	871.58
764.381	820.38
764.564	832.67
764.748	922.78
764.931	894.11
765.114	910.49
765.297	857.25
765.481	920.73
765.664	801.95
765.847	867.49
766.03	920.73
766.213	871.58
766.397	863.39
766.58	875.68
766.763	818.33
766.946	765.09
767.129	836.77
767.312	834.72
767.495	783.52
767.678	804
767.861	832.67
768.044	715.94
768.227	781.47
768.41	799.9
768.593	822.43
768.776	830.62
768.959	879.77
769.142	828.57
769.324	756.9
769.507	765.09
769.69	799.9
769.873	793.76
770.056	812.19
770.239	863.39
770.421	736.42
770.604	826.53
770.787	715.94
770.97	742.56
771.152	728.22
771.335	765.09
771.518	752.8
771.7	752.8
771.883	765.09
772.066	713.89
772.248	838.81
772.431	801.95
772.613	752.8
772.796	781.47
772.978	732.32
773.161	773.28
773.343	756.9
773.526	683.17
773.708	654.5
773.891	701.6
774.073	658.59
774.256	648.35
774.438	752.8
774.621	709.79
774.803	717.98
774.985	597.15
775.168	732.32
775.35	560.29
775.532	648.35
775.715	687.26
775.897	732.32
776.079	541.86
776.261	642.21
776.444	668.83
776.626	609.44
776.808	634.02
776.99	568.48
777.173	629.92
777.355	595.11
777.537	588.96
777.719	652.45
777.901	621.73
778.083	523.43
778.265	543.91
778.447	554.15
778.629	568.48
778.811	560.29
778.993	564.39
779.175	584.87
779.357	545.95
779.539	531.62
779.721	564.39
779.903	525.47
780.085	578.72
780.267	537.76
780.449	486.56
780.631	576.67
780.812	494.76
780.994	578.72
781.176	453.8
781.358	449.7
781.54	576.67
781.721	498.85
781.903	539.81
782.085	472.23
782.267	531.62
782.448	410.79
782.63	504.99
782.812	545.95
782.993	429.22
783.175	464.04
783.357	480.42
783.538	502.95
783.72	461.99
783.901	486.56
784.083	507.04
784.264	398.5
784.446	431.27
784.627	414.88
784.809	453.8
784.99	464.04
785.172	427.17
785.353	453.8
785.535	453.8
785.716	449.7
785.897	404.64
786.079	390.31
786.26	382.12
786.441	404.64
786.623	380.07
786.804	359.59
786.985	380.07
787.167	371.88
787.348	414.88
787.529	343.21
787.71	398.5
787.891	398.5
788.073	343.21
788.254	322.73
788.435	437.41
788.616	384.16
788.797	318.63
788.978	341.16
789.159	343.21
789.34	371.88
789.522	316.58
789.703	283.81
789.884	382.12
790.065	343.21
790.246	351.4
790.427	343.21
790.607	421.03
790.788	355.49
790.969	322.73
791.15	371.88
791.331	326.82
791.512	253.09
791.693	306.34
791.874	298.15
792.054	400.55
792.235	355.49
792.416	261.29
792.597	326.82
792.778	218.28
792.958	339.11
793.139	339.11
793.32	257.19
793.5	261.29
793.681	322.73
793.862	232.62
794.042	302.25
794.223	240.81
794.404	298.15
794.584	240.81
794.765	281.77
794.945	296.1
795.126	371.88
795.306	298.15
795.487	273.57
795.667	267.43
795.848	208.04
796.028	240.81
796.209	318.63
796.389	294.05
796.57	310.44
796.75	289.96
796.93	154.79
797.111	257.19
797.291	283.81
797.471	242.85
797.652	220.33
797.832	191.66
798.012	314.53
798.192	162.98
798.373	158.89
798.553	249
798.733	277.67
798.913	224.42
799.093	224.42
799.274	232.62
799.454	283.81
799.634	220.33
799.814	289.96
799.994	212.14
800.174	191.66
800.354	214.18
800.534	189.61
800.714	224.42
800.894	212.14
801.074	177.32
801.254	208.04
801.434	169.13
801.614	228.52
801.794	212.14
801.974	988.32
802.154	212.14
802.334	312.49
802.514	162.98
802.693	162.98
802.873	199.85
803.053	259.24
803.233	306.34
803.413	156.84
803.592	160.94
803.772	224.42
803.952	246.95
804.131	269.48
804.311	173.22
804.491	259.24
804.67	156.84
804.85	152.74
805.03	289.96
805.209	224.42
805.389	214.18
805.568	224.42
805.748	138.41
805.928	212.14
806.107	265.38
806.287	134.31
806.466	257.19
806.646	185.51
806.825	70.83
807.004	142.5
807.184	117.93
807.363	240.81
807.543	216.23
807.722	119.98
807.901	236.71
808.081	240.81
808.26	142.5
808.439	167.08
808.619	201.9
808.798	134.31
808.977	189.61
809.156	160.94
809.336	175.27
809.515	158.89
809.694	134.31
809.873	150.7
810.052	195.75
810.231	144.55
810.411	109.74
810.59	191.66
810.769	134.31
810.948	193.7
811.127	142.5
811.306	136.36
811.485	89.26
811.664	244.9
811.843	156.84
812.022	210.09
812.201	148.65
812.38	105.64
812.559	115.88
812.737	154.79
812.916	126.12
813.095	144.55
813.274	109.74
813.453	150.7
813.632	117.93
813.811	171.18
813.989	52.39
814.168	97.45
814.347	126.12
814.526	146.6
814.704	109.74
814.883	169.13
815.062	87.21
815.24	259.24
815.419	144.55
815.598	113.83
815.776	103.59
815.955	187.56
816.133	138.41
816.312	138.41
816.49	126.12
816.669	136.36
816.847	146.6
817.026	140.46
817.204	156.84
817.383	138.41
817.561	93.35
817.74	152.74
817.918	72.87
818.097	150.7
818.275	95.4
818.453	134.31
818.632	140.46
818.81	89.26
818.988	105.64
819.167	70.83
819.345	177.32
819.523	138.41
819.701	81.07
819.879	144.55
820.058	60.59
820.236	218.28
820.414	105.64
820.592	87.21
820.77	38.06
820.948	146.6
821.127	54.44
821.305	144.55
821.483	68.78
821.661	183.46
821.839	111.78
822.017	95.4
822.195	126.12
822.373	99.5
822.551	79.02
822.729	126.12
822.907	93.35
823.085	95.4
823.262	189.61
823.44	68.78
823.618	70.83
823.796	130.22
823.974	11.43
824.152	56.49
824.329	113.83
824.507	187.56
824.685	103.59
824.863	101.55
825.04	144.55
825.218	175.27
825.396	76.97
825.574	81.07
825.751	27.82
825.929	124.07
826.107	27.82
826.284	42.15
826.462	27.82
826.639	-0.85
826.817	44.2
826.994	64.68
827.172	101.55
827.349	199.85
827.527	64.68
827.704	48.3
827.882	74.92
828.059	48.3
828.237	62.63
828.414	76.97
828.591	111.78
828.769	119.98
828.946	148.65
829.124	119.98
829.301	144.55
829.478	23.72
829.655	101.55
829.833	72.87
830.01	11.43
830.187	79.02
830.364	81.07
830.542	70.83
830.719	113.83
830.896	66.73
831.073	76.97
831.25	109.74
831.427	107.69
831.604	85.16
831.782	89.26
831.959	91.31
832.136	19.63
832.313	3.24
832.49	105.64
832.667	109.74
832.844	-2.9
833.021	93.35
833.198	56.49
833.374	44.2
833.551	38.06
833.728	81.07
833.905	27.82
834.082	19.63
834.259	95.4
834.436	167.08
834.612	29.87
834.789	44.2
834.966	97.45
835.143	29.87
835.319	31.91
835.496	85.16
835.673	68.78
835.85	150.7
836.026	76.97
836.203	44.2
836.38	21.67
836.556	44.2
836.733	-0.85
836.909	146.6
837.086	117.93
837.262	11.43
837.439	-2.9
837.616	36.01
837.792	23.72
837.968	54.44
838.145	44.2
838.321	111.78
838.498	52.39
838.674	99.5
838.851	46.25
839.027	85.16
839.203	48.3
839.38	64.68
839.556	33.96
839.732	81.07
839.909	74.92
840.085	81.07
840.261	11.43
840.437	87.21
840.614	11.43
840.79	103.59
840.966	68.78
841.142	44.2
841.318	68.78
841.494	58.54
841.671	50.35
841.847	91.31
842.023	-11.09
842.199	64.68
842.375	68.78
842.551	3.24
842.727	68.78
842.903	142.5
843.079	19.63
843.255	126.12
843.431	48.3
843.607	72.87
843.783	19.63
843.959	-4.95
844.134	-31.57
844.31	29.87
844.486	29.87
844.662	-50
844.838	-7
845.013	105.64
845.189	87.21
845.365	115.88
845.541	52.39
845.716	15.53
845.892	36.01
846.068	48.3
846.244	11.43
846.419	-27.48
846.595	36.01
846.77	52.39
846.946	54.44
847.122	54.44
847.297	44.2
847.473	64.68
847.648	-54.1
847.824	85.16
847.999	3.24
848.175	3.24
848.35	60.59
848.526	103.59
848.701	130.22
848.876	40.11
849.052	-4.95
849.227	38.06
849.403	15.53
849.578	72.87
849.753	85.16
849.929	79.02
850.104	7.34
850.279	85.16
850.454	50.35
850.63	50.35
850.805	66.73
850.98	33.96
851.155	42.15
851.33	-17.24
851.505	-13.14
851.681	-37.72
851.856	15.53
852.031	68.78
852.206	3.24
852.381	-27.48
852.556	7.34
852.731	17.58
852.906	19.63
853.081	56.49
853.256	52.39
853.431	-58.2
853.606	7.34
853.781	27.82
853.956	31.91
854.131	72.87
854.305	-33.62
854.48	11.43
854.655	-45.91
854.83	-43.86
855.005	38.06
855.18	11.43
855.354	21.67
855.529	48.3
855.704	21.67
855.879	15.53
856.053	-23.38
856.228	40.11
856.403	-37.72
856.577	36.01
856.752	-29.52
856.926	17.58
857.101	36.01
857.276	11.43
857.45	-60.24
857.625	36.01
857.799	46.25
857.974	27.82
858.148	-13.14
858.323	-37.72
858.497	23.72
858.672	27.82
858.846	-70.48
859.02	31.91
859.195	-45.91
859.369	36.01
859.543	44.2
859.718	29.87
859.892	40.11
860.066	-7
860.241	64.68
860.415	3.24
860.589	-29.52
860.763	48.3
860.938	-27.48
861.112	-25.43
861.286	-21.33
861.46	76.97
861.634	52.39
861.808	21.67
861.982	-2.9
862.157	33.96
862.331	-15.19
862.505	-4.95
862.679	31.91
862.853	-95.06
863.027	33.96
863.201	50.35
863.375	3.24
863.549	27.82
863.722	31.91
863.896	23.72
864.07	56.49
864.244	17.58
864.418	7.34
864.592	40.11
864.766	-27.48
864.939	-11.09
865.113	-27.48
865.287	54.44
865.461	-13.14
865.634	17.58
865.808	54.44
865.982	29.87
866.156	-45.91
866.329	-2.9
866.503	52.39
866.676	76.97
866.85	93.35
867.024	-13.14
867.197	27.82
867.371	17.58
867.544	29.87
867.718	11.43
867.891	7.34
868.065	-25.43
868.238	31.91
868.412	111.78
868.585	3.24
868.759	13.48
868.932	-54.1
869.105	-19.29
869.279	36.01
869.452	-37.72
869.625	60.59
869.799	-13.14
869.972	-52.05
870.145	3.24
870.319	7.34
870.492	-37.72
870.665	-37.72
870.838	-4.95
871.011	-37.72
871.185	11.43
871.358	-4.95
871.531	42.15
871.704	-43.86
871.877	62.63
872.05	79.02
872.223	-33.62
872.396	3.24
872.569	19.63
872.742	-23.38
872.915	44.2
873.088	-54.1
873.261	-21.33
873.434	19.63
873.607	11.43
873.78	44.2
873.953	29.87
874.126	42.15
874.299	-19.29
874.471	27.82
874.644	-21.33
874.817	97.45
874.99	152.74
875.163	-60.24
875.335	89.26
875.508	29.87
875.681	23.72
875.853	38.06
876.026	-19.29
876.199	29.87
876.371	31.91
876.544	68.78
876.717	27.82
876.889	76.97
877.062	-54.1
877.234	-93.01
877.407	-21.33
877.579	-0.85
877.752	44.2
877.924	7.34
878.097	-7
878.269	-29.52
878.442	27.82
878.614	5.29
878.786	-70.48
878.959	11.43
879.131	52.39
879.303	-43.86
879.476	-50
879.648	68.78
879.82	3.24
879.993	-0.85
880.165	-99.16
880.337	-19.29
880.509	-39.76
880.681	-27.48
880.854	-13.14
881.026	19.63
881.198	46.25
881.37	21.67
881.542	11.43
881.714	-17.24
881.886	-58.2
882.058	-54.1
882.23	27.82
882.402	9.39
882.574	27.82
882.746	19.63
882.918	33.96
883.09	27.82
883.262	-0.85
883.434	-74.58
883.606	7.34
883.778	-31.57
883.95	93.35
884.122	11.43
884.293	36.01
884.465	-4.95
884.637	-41.81
884.809	-70.48
884.98	-19.29
885.152	13.48
885.324	38.06
885.496	27.82
885.667	29.87
885.839	-66.39
886.011	29.87
886.182	-0.85
886.354	52.39
886.525	76.97
886.697	-37.72
886.869	11.43
887.04	-0.85
887.212	15.53
887.383	7.34
887.555	-35.67
887.726	21.67
887.897	-4.95
888.069	60.59
888.24	31.91
888.412	15.53
888.583	-21.33
888.754	-21.33
888.926	-58.2
889.097	-17.24
889.268	21.67
889.44	19.63
889.611	-62.29
889.782	-25.43
889.953	-21.33
890.125	-13.14
890.296	-54.1
890.467	-45.91
890.638	-4.95
890.809	-37.72
890.98	-70.48
891.151	31.91
891.323	36.01
891.494	31.91
891.665	-70.48
891.836	15.53
892.007	-54.1
892.178	-37.72
892.349	11.43
892.52	-21.33
892.691	-0.85
892.862	5.29
893.032	-4.95
893.203	-0.85
893.374	79.02
893.545	-29.52
893.716	19.63
893.887	-13.14
894.057	-13.14
894.228	60.59
894.399	-111.44
894.57	48.3
894.74	-86.87
894.911	-50
895.082	-37.72
895.253	13.48
895.423	27.82
895.594	52.39
895.764	40.11
895.935	21.67
896.106	-13.14
896.276	11.43
896.447	-90.96
896.617	-21.33
896.788	29.87
896.958	-25.43
897.129	-27.48
897.299	-25.43
897.47	11.43
897.64	15.53
897.81	60.59
897.981	-7
898.151	42.15
898.322	-23.38
898.492	-13.14
898.662	-7
898.832	36.01
899.003	15.53
899.173	38.06
899.343	68.78
899.513	-54.1
