Data from USB4F104151__260__14-34-31-279.txt Node

Date: Thu Mar 13 14:34:31 EDT 2025
User: louis
Spectrometer: USB4F10415
Trigger mode: 4
Integration Time (sec): 2.500000E-2
Scans to average: 1
Electric dark correction enabled: true
Nonlinearity correction enabled: false
Boxcar width: 0
XAxis mode: Wavelengths
Number of Pixels in Spectrum: 3648
>>>>>Begin Spectral Data<<<<<
178.204	-168.1
178.424	-168.1
178.644	-168.1
178.864	-127.14
179.084	-194.73
179.304	-6.31
179.524	-37.03
179.744	-8.36
179.964	83.8
180.184	-10.41
180.404	-12.46
180.624	-18.6
180.844	10.07
181.064	-20.65
181.283	-22.7
181.503	3.93
181.723	38.74
181.943	-18.6
182.163	100.18
182.383	61.27
182.602	61.27
182.822	100.18
183.042	10.07
183.262	-18.6
183.482	-2.22
183.701	-22.7
183.921	-22.7
184.141	-10.41
184.361	26.45
184.58	51.03
184.8	22.36
185.02	28.5
185.239	30.55
185.459	-30.89
185.679	79.7
185.898	-18.6
186.118	110.42
186.338	42.84
186.557	67.41
186.777	-30.89
186.997	-20.65
187.216	-2.22
187.436	1.88
187.655	1.88
187.875	18.26
188.095	16.21
188.314	-10.41
188.534	94.04
188.753	14.17
188.973	61.27
189.192	20.31
189.412	63.32
189.631	18.26
189.851	-30.89
190.07	75.6
190.29	5.97
190.509	28.5
190.729	51.03
190.948	-10.41
191.168	149.33
191.387	77.65
191.607	-69.8
191.826	3.93
192.045	14.17
192.265	-43.18
192.484	12.12
192.704	10.07
192.923	-30.89
193.142	79.7
193.362	53.08
193.581	36.69
193.8	-4.27
194.02	22.36
194.239	-51.37
194.458	-26.79
194.678	77.65
194.897	-2.22
195.116	51.03
195.335	30.55
195.555	75.6
195.774	-71.85
195.993	51.03
196.212	-10.41
196.432	-14.51
196.651	44.88
196.87	26.45
197.089	108.37
197.308	40.79
197.528	40.79
197.747	-41.13
197.966	-39.08
198.185	61.27
198.404	-63.66
198.623	75.6
198.842	28.5
199.062	96.08
199.281	59.22
199.5	32.6
199.719	34.64
199.938	-2.22
200.157	44.88
200.376	65.36
200.595	69.46
200.814	79.7
201.033	-28.84
201.252	36.69
201.471	3.93
201.69	8.02
201.909	-20.65
202.128	59.22
202.347	-6.31
202.566	118.61
202.785	-14.51
203.004	57.17
203.223	96.08
203.442	63.32
203.661	51.03
203.879	36.69
204.098	40.79
204.317	46.93
204.536	16.21
204.755	53.08
204.974	67.41
205.193	-6.31
205.411	18.26
205.63	18.26
205.849	42.84
206.068	63.32
206.287	87.89
206.505	-18.6
206.724	28.5
206.943	5.97
207.162	18.26
207.381	26.45
207.599	34.64
207.818	83.8
208.037	-10.41
208.255	20.31
208.474	36.69
208.693	96.08
208.911	59.22
209.13	1.88
209.349	10.07
209.567	110.42
209.786	83.8
210.005	51.03
210.223	-2.22
210.442	-63.66
210.661	3.93
210.879	14.17
211.098	48.98
211.316	44.88
211.535	59.22
211.753	67.41
211.972	59.22
212.191	5.97
212.409	14.17
212.628	151.38
212.846	94.04
213.065	71.51
213.283	-4.27
213.502	40.79
213.72	59.22
213.938	-4.27
214.157	32.6
214.375	1.88
214.594	42.84
214.812	53.08
215.031	-4.27
215.249	3.93
215.467	-6.31
215.686	-30.89
215.904	79.7
216.122	71.51
216.341	-6.31
216.559	34.64
216.778	51.03
216.996	38.74
217.214	8.02
217.432	-45.23
217.651	-8.36
217.869	8.02
218.087	-39.08
218.306	-47.27
218.524	28.5
218.742	10.07
218.96	51.03
219.179	36.69
219.397	1.88
219.615	59.22
219.833	36.69
220.051	-10.41
220.27	-14.51
220.488	126.8
220.706	18.26
220.924	75.6
221.142	8.02
221.36	-71.85
221.578	59.22
221.796	18.26
222.015	-4.27
222.233	46.93
222.451	75.6
222.669	34.64
222.887	85.84
223.105	5.97
223.323	44.88
223.541	-8.36
223.759	-6.31
223.977	-47.27
224.195	26.45
224.413	5.97
224.631	26.45
224.849	34.64
225.067	173.91
225.285	61.27
225.503	-32.94
225.721	-55.47
225.939	-14.51
226.157	-30.89
226.375	104.28
226.592	-4.27
226.81	75.6
227.028	67.41
227.246	102.23
227.464	18.26
227.682	20.31
227.9	67.41
228.117	10.07
228.335	94.04
228.553	46.93
228.771	-4.27
228.989	55.12
229.206	22.36
229.424	42.84
229.642	42.84
229.86	59.22
230.077	53.08
230.295	-51.37
230.513	124.76
230.731	51.03
230.948	12.12
231.166	42.84
231.384	-39.08
231.601	18.26
231.819	38.74
232.037	85.84
232.254	-41.13
232.472	10.07
232.689	-22.7
232.907	36.69
233.125	-20.65
233.342	51.03
233.56	67.41
233.777	61.27
233.995	-30.89
234.213	67.41
234.43	59.22
234.648	-20.65
234.865	42.84
235.083	34.64
235.3	-30.89
235.518	83.8
235.735	24.4
235.953	61.27
236.17	-80.04
236.388	28.5
236.605	100.18
236.822	51.03
237.04	42.84
237.257	61.27
237.475	-14.51
237.692	51.03
237.909	38.74
238.127	61.27
238.344	-14.51
238.562	53.08
238.779	-8.36
238.996	-6.31
239.214	18.26
239.431	30.55
239.648	51.03
239.865	1.88
240.083	-2.22
240.3	-18.6
240.517	42.84
240.735	-55.47
240.952	102.23
241.169	96.08
241.386	87.89
241.603	-12.46
241.821	79.7
242.038	116.56
242.255	55.12
242.472	-14.51
242.689	69.46
242.907	61.27
243.124	-8.36
243.341	3.93
243.558	-39.08
243.775	51.03
243.992	-34.99
244.209	61.27
244.426	67.41
244.643	-16.55
244.86	26.45
245.078	79.7
245.295	38.74
245.512	40.79
245.729	-18.6
245.946	46.93
246.163	51.03
246.38	59.22
246.597	20.31
246.814	53.08
247.031	-10.41
247.248	51.03
247.464	48.98
247.681	44.88
247.898	-67.75
248.115	32.6
248.332	-22.7
248.549	5.97
248.766	51.03
248.983	69.46
249.2	22.36
249.417	139.09
249.633	36.69
249.85	67.41
250.067	-12.46
250.284	-20.65
250.501	53.08
250.717	120.66
250.934	3.93
251.151	77.65
251.368	-30.89
251.585	42.84
251.801	10.07
252.018	-30.89
252.235	53.08
252.451	-4.27
252.668	83.8
252.885	14.17
253.102	24.4
253.318	28.5
253.535	59.22
253.752	-0.17
253.968	32.6
254.185	30.55
254.401	-28.84
254.618	14.17
254.835	-32.94
255.051	51.03
255.268	98.13
255.484	42.84
255.701	34.64
255.917	79.7
256.134	-16.55
256.351	-14.51
256.567	34.64
256.784	55.12
257	1.88
257.217	42.84
257.433	75.6
257.65	48.98
257.866	132.95
258.082	1.88
258.299	-22.7
258.515	1.88
258.732	44.88
258.948	61.27
259.165	34.64
259.381	16.21
259.597	-47.27
259.814	12.12
260.03	-24.75
260.246	-18.6
260.463	104.28
260.679	67.41
260.895	102.23
261.112	128.85
261.328	3.93
261.544	14.17
261.761	124.76
261.977	3.93
262.193	-2.22
262.409	59.22
262.626	69.46
262.842	61.27
263.058	5.97
263.274	28.5
263.49	61.27
263.707	22.36
263.923	53.08
264.139	46.93
264.355	26.45
264.571	26.45
264.787	-39.08
265.004	53.08
265.22	38.74
265.436	-63.66
265.652	-4.27
265.868	32.6
266.084	63.32
266.3	75.6
266.516	67.41
266.732	69.46
266.948	30.55
267.164	94.04
267.38	67.41
267.596	30.55
267.812	26.45
268.028	26.45
268.244	16.21
268.46	38.74
268.676	-39.08
268.892	65.36
269.108	22.36
269.324	46.93
269.54	-63.66
269.756	14.17
269.972	-0.17
270.188	-30.89
270.403	-26.79
270.619	12.12
270.835	16.21
271.051	36.69
271.267	30.55
271.483	14.17
271.698	1.88
271.914	22.36
272.13	28.5
272.346	59.22
272.562	63.32
272.777	67.41
272.993	63.32
273.209	67.41
273.425	26.45
273.64	-26.79
273.856	108.37
274.072	-39.08
274.287	-0.17
274.503	55.12
274.719	30.55
274.934	59.22
275.15	-39.08
275.366	42.84
275.581	10.07
275.797	26.45
276.012	14.17
276.228	28.5
276.444	26.45
276.659	1.88
276.875	83.8
277.09	44.88
277.306	-47.27
277.521	12.12
277.737	1.88
277.952	18.26
278.168	-55.47
278.383	85.84
278.599	69.46
278.814	51.03
279.03	3.93
279.245	104.28
279.461	67.41
279.676	-0.17
279.892	34.64
280.107	57.17
280.322	-4.27
280.538	22.36
280.753	20.31
280.969	44.88
281.184	38.74
281.399	85.84
281.615	71.51
281.83	53.08
282.045	1.88
282.26	38.74
282.476	38.74
282.691	69.46
282.906	73.56
283.122	59.22
283.337	53.08
283.552	59.22
283.767	24.4
283.983	10.07
284.198	116.56
284.413	32.6
284.628	18.26
284.843	57.17
285.058	20.31
285.274	42.84
285.489	18.26
285.704	18.26
285.919	10.07
286.134	46.93
286.349	-24.75
286.564	28.5
286.779	63.32
286.995	36.69
287.21	26.45
287.425	124.76
287.64	116.56
287.855	-18.6
288.07	-14.51
288.285	59.22
288.5	-26.79
288.715	67.41
288.93	-2.22
289.145	12.12
289.36	61.27
289.575	34.64
289.79	57.17
290.004	26.45
290.219	89.94
290.434	28.5
290.649	26.45
290.864	-12.46
291.079	42.84
291.294	-0.17
291.509	75.6
291.724	-20.65
291.938	-41.13
292.153	-8.36
292.368	-37.03
292.583	-6.31
292.798	14.17
293.012	42.84
293.227	83.8
293.442	12.12
293.657	83.8
293.871	71.51
294.086	18.26
294.301	36.69
294.516	12.12
294.73	61.27
294.945	1.88
295.16	10.07
295.374	73.56
295.589	18.26
295.804	-69.8
296.018	71.51
296.233	67.41
296.447	12.12
296.662	-43.18
296.877	22.36
297.091	135
297.306	-14.51
297.52	-24.75
297.735	81.75
297.949	-8.36
298.164	75.6
298.378	96.08
298.593	-2.22
298.807	14.17
299.022	1.88
299.236	-2.22
299.451	34.64
299.665	-0.17
299.88	28.5
300.094	100.18
300.309	5.97
300.523	-10.41
300.737	48.98
300.952	116.56
301.166	18.26
301.381	44.88
301.595	-34.99
301.809	79.7
302.024	28.5
302.238	12.12
302.452	44.88
302.667	-20.65
302.881	155.47
303.095	63.32
303.309	34.64
303.524	-2.22
303.738	3.93
303.952	22.36
304.166	42.84
304.381	28.5
304.595	67.41
304.809	-55.47
305.023	44.88
305.237	18.26
305.452	18.26
305.666	77.65
305.88	71.51
306.094	14.17
306.308	57.17
306.522	3.93
306.736	61.27
306.95	59.22
307.164	14.17
307.379	5.97
307.593	22.36
307.807	-18.6
308.021	20.31
308.235	20.31
308.449	26.45
308.663	-12.46
308.877	85.84
309.091	96.08
309.305	51.03
309.519	22.36
309.733	59.22
309.947	-55.47
310.161	69.46
310.374	-18.6
310.588	67.41
310.802	5.97
311.016	36.69
311.23	51.03
311.444	-4.27
311.658	75.6
311.872	-6.31
312.085	71.51
312.299	69.46
312.513	81.75
312.727	34.64
312.941	42.84
313.154	-4.27
313.368	18.26
313.582	77.65
313.796	75.6
314.009	71.51
314.223	30.55
314.437	63.32
314.651	59.22
314.864	-18.6
315.078	-14.51
315.292	26.45
315.505	42.84
315.719	53.08
315.933	42.84
316.146	-4.27
316.36	-82.09
316.573	96.08
316.787	59.22
317.001	-6.31
317.214	51.03
317.428	75.6
317.641	5.97
317.855	-30.89
318.068	24.4
318.282	59.22
318.495	73.56
318.709	75.6
318.922	-4.27
319.136	77.65
319.349	94.04
319.563	-6.31
319.776	38.74
319.99	-22.7
320.203	48.98
320.417	42.84
320.63	55.12
320.843	59.22
321.057	77.65
321.27	104.28
321.483	26.45
321.697	48.98
321.91	8.02
322.124	34.64
322.337	53.08
322.55	44.88
322.763	28.5
322.977	59.22
323.19	63.32
323.403	42.84
323.617	-45.23
323.83	22.36
324.043	34.64
324.256	71.51
324.469	12.12
324.683	112.47
324.896	75.6
325.109	55.12
325.322	-53.42
325.535	71.51
325.748	51.03
325.962	22.36
326.175	-2.22
326.388	51.03
326.601	20.31
326.814	10.07
327.027	67.41
327.24	94.04
327.453	-34.99
327.666	12.12
327.879	67.41
328.092	85.84
328.305	26.45
328.518	12.12
328.731	44.88
328.944	75.6
329.157	77.65
329.37	-10.41
329.583	102.23
329.796	34.64
330.009	1.88
330.222	75.6
330.435	55.12
330.648	79.7
330.861	59.22
331.073	53.08
331.286	110.42
331.499	91.99
331.712	-0.17
331.925	67.41
332.138	77.65
332.35	75.6
332.563	16.21
332.776	20.31
332.989	10.07
333.202	-18.6
333.414	-12.46
333.627	28.5
333.84	-26.79
334.053	132.95
334.265	-55.47
334.478	34.64
334.691	28.5
334.903	87.89
335.116	-43.18
335.329	-61.61
335.541	55.12
335.754	110.42
335.966	71.51
336.179	81.75
336.392	10.07
336.604	-53.42
336.817	77.65
337.029	120.66
337.242	-53.42
337.454	69.46
337.667	38.74
337.88	85.84
338.092	1.88
338.305	61.27
338.517	-6.31
338.729	96.08
338.942	67.41
339.154	44.88
339.367	8.02
339.579	69.46
339.792	-22.7
340.004	67.41
340.217	26.45
340.429	-20.65
340.641	-90.28
340.854	26.45
341.066	59.22
341.278	42.84
341.491	135
341.703	71.51
341.915	38.74
342.128	51.03
342.34	3.93
342.552	20.31
342.764	20.31
342.977	55.12
343.189	102.23
343.401	18.26
343.613	-47.27
343.826	1.88
344.038	22.36
344.25	55.12
344.462	-30.89
344.674	63.32
344.886	-12.46
345.099	61.27
345.311	22.36
345.523	44.88
345.735	-4.27
345.947	-51.37
346.159	18.26
346.371	-55.47
346.583	20.31
346.795	89.94
347.007	55.12
347.219	91.99
347.431	61.27
347.643	69.46
347.855	10.07
348.067	108.37
348.279	-22.7
348.491	67.41
348.703	34.64
348.915	96.08
349.127	28.5
349.339	3.93
349.551	-30.89
349.763	69.46
349.975	-39.08
350.187	30.55
350.399	36.69
350.61	36.69
350.822	51.03
351.034	61.27
351.246	116.56
351.458	71.51
351.669	12.12
351.881	53.08
352.093	53.08
352.305	38.74
352.517	5.97
352.728	124.76
352.94	1.88
353.152	122.71
353.363	18.26
353.575	-20.65
353.787	38.74
353.999	40.79
354.21	67.41
354.422	61.27
354.633	38.74
354.845	-26.79
355.057	-18.6
355.268	-22.7
355.48	55.12
355.692	-14.51
355.903	40.79
356.115	34.64
356.326	-69.8
356.538	32.6
356.749	10.07
356.961	42.84
357.172	69.46
357.384	-20.65
357.595	67.41
357.807	36.69
358.018	-16.55
358.23	36.69
358.441	38.74
358.653	81.75
358.864	34.64
359.075	26.45
359.287	100.18
359.498	128.85
359.709	55.12
359.921	42.84
360.132	79.7
360.344	-0.17
360.555	-30.89
360.766	75.6
360.977	26.45
361.189	94.04
361.4	30.55
361.611	42.84
361.823	51.03
362.034	36.69
362.245	-8.36
362.456	14.17
362.667	-47.27
362.879	85.84
363.09	73.56
363.301	83.8
363.512	34.64
363.723	1.88
363.935	38.74
364.146	116.56
364.357	57.17
364.568	-2.22
364.779	-10.41
364.99	55.12
365.201	10.07
365.412	108.37
365.623	-37.03
365.834	44.88
366.045	46.93
366.256	-2.22
366.467	57.17
366.678	98.13
366.889	-10.41
367.1	14.17
367.311	26.45
367.522	-39.08
367.733	30.55
367.944	67.41
368.155	44.88
368.366	132.95
368.577	28.5
368.788	67.41
368.999	51.03
369.209	36.69
369.42	53.08
369.631	81.75
369.842	14.17
370.053	51.03
370.264	20.31
370.474	40.79
370.685	79.7
370.896	87.89
371.107	61.27
371.317	18.26
371.528	5.97
371.739	116.56
371.95	32.6
372.16	83.8
372.371	42.84
372.582	20.31
372.792	55.12
373.003	55.12
373.214	83.8
373.424	61.27
373.635	-10.41
373.846	108.37
374.056	32.6
374.267	-22.7
374.477	28.5
374.688	1.88
374.898	-2.22
375.109	-22.7
375.319	26.45
375.53	44.88
375.74	36.69
375.951	26.45
376.161	53.08
376.372	87.89
376.582	-34.99
376.793	42.84
377.003	32.6
377.214	18.26
377.424	-10.41
377.635	26.45
377.845	22.36
378.055	30.55
378.266	-69.8
378.476	51.03
378.686	67.41
378.897	83.8
379.107	38.74
379.317	59.22
379.528	18.26
379.738	36.69
379.948	18.26
380.158	75.6
380.369	-14.51
380.579	59.22
380.789	100.18
380.999	77.65
381.21	28.5
381.42	87.89
381.63	-18.6
381.84	46.93
382.05	94.04
382.261	3.93
382.471	61.27
382.681	22.36
382.891	87.89
383.101	98.13
383.311	1.88
383.521	-22.7
383.731	18.26
383.941	34.64
384.151	46.93
384.361	79.7
384.571	77.65
384.781	53.08
384.991	106.32
385.201	91.99
385.411	42.84
385.621	67.41
385.831	44.88
386.041	10.07
386.251	85.84
386.461	12.12
386.671	42.84
386.881	28.5
387.091	38.74
387.301	1.88
387.511	10.07
387.72	-10.41
387.93	44.88
388.14	-69.8
388.35	1.88
388.56	-18.6
388.769	77.65
388.979	116.56
389.189	-12.46
389.399	59.22
389.609	63.32
389.818	155.47
390.028	81.75
390.238	-30.89
390.447	89.94
390.657	69.46
390.867	-92.33
391.076	-6.31
391.286	44.88
391.496	14.17
391.705	42.84
391.915	22.36
392.125	94.04
392.334	10.07
392.544	132.95
392.753	96.08
392.963	10.07
393.172	79.7
393.382	1.88
393.591	108.37
393.801	10.07
394.01	98.13
394.22	3.93
394.429	67.41
394.639	75.6
394.848	141.14
395.058	75.6
395.267	28.5
395.477	-16.55
395.686	77.65
395.895	163.67
396.105	102.23
396.314	26.45
396.524	108.37
396.733	91.99
396.942	124.76
397.152	79.7
397.361	186.19
397.57	67.41
397.78	104.28
397.989	108.37
398.198	132.95
398.407	42.84
398.617	112.47
398.826	116.56
399.035	-6.31
399.244	77.65
399.453	22.36
399.663	18.26
399.872	104.28
400.081	18.26
400.29	91.99
400.499	40.79
400.708	83.8
400.917	100.18
401.127	18.26
401.336	12.12
401.545	102.23
401.754	85.84
401.963	67.41
402.172	61.27
402.381	34.64
402.59	67.41
402.799	118.61
403.008	85.84
403.217	83.8
403.426	69.46
403.635	94.04
403.844	83.8
404.053	53.08
404.262	83.8
404.471	161.62
404.68	65.36
404.888	100.18
405.097	71.51
405.306	108.37
405.515	157.52
405.724	96.08
405.933	108.37
406.142	149.33
406.35	225.11
406.559	132.95
406.768	110.42
406.977	149.33
407.185	149.33
407.394	196.43
407.603	102.23
407.812	149.33
408.02	264.02
408.229	167.76
408.438	194.39
408.646	182.1
408.855	194.39
409.064	198.48
409.272	155.47
409.481	227.15
409.69	139.09
409.898	180.05
410.107	194.39
410.315	194.39
410.524	270.16
410.733	225.11
410.941	284.5
411.15	317.26
411.358	315.22
411.567	337.74
411.775	368.46
411.984	307.02
412.192	399.18
412.401	331.6
412.609	485.2
412.818	376.66
413.026	411.47
413.234	460.62
413.443	479.05
413.651	438.09
413.86	372.56
414.068	520.01
414.276	567.12
414.485	429.9
414.693	569.16
414.901	560.97
415.11	632.65
415.318	550.73
415.526	663.37
415.734	644.94
415.943	632.65
416.151	790.35
416.359	667.47
416.567	671.56
416.776	806.73
416.984	757.58
417.192	763.72
417.4	673.61
417.608	814.92
417.817	823.11
418.025	841.54
418.233	1027.91
418.441	917.32
418.649	982.85
418.857	1083.2
419.065	968.52
419.273	1070.92
419.481	1054.53
419.689	1066.82
419.897	1189.7
420.105	1247.04
420.313	1296.19
420.521	1341.25
420.729	1406.78
420.937	1345.34
421.145	1474.37
421.353	1488.7
421.561	1587.01
421.769	1607.48
421.977	1670.97
422.185	1769.27
422.393	1750.84
422.601	1767.23
422.809	1820.47
423.017	1873.72
423.224	1994.55
423.432	2082.61
423.64	2092.85
423.848	2168.63
424.056	2094.9
424.263	2352.95
424.471	2322.23
424.679	2361.14
424.887	2389.81
425.094	2475.82
425.302	2537.26
425.51	2676.52
425.718	2729.77
425.925	2764.59
426.133	2926.38
426.341	3125.03
426.548	3180.32
426.756	3143.46
426.964	3174.18
427.171	3344.16
427.379	3325.73
427.586	3624.73
427.794	3729.18
428.001	3843.87
428.209	3878.68
428.417	3833.63
428.624	4189.97
428.832	4138.77
429.039	4163.35
429.247	4308.76
429.454	4622.09
429.662	4837.13
429.869	4466.45
430.076	4843.28
430.284	4589.33
430.491	4886.28
430.699	5150.47
430.906	5191.43
431.114	5299.97
431.321	5426.95
431.528	5523.2
431.736	5875.45
431.943	6086.39
432.15	5875.45
432.358	6010.62
432.565	6551.28
432.772	6262.52
432.979	6604.53
433.187	6942.44
433.394	6735.6
433.601	7186.15
433.808	7407.33
434.016	7292.65
434.223	7366.37
434.43	7966.43
434.637	7687.9
434.844	8318.68
435.052	8517.33
435.259	8484.56
435.466	8496.85
435.673	8318.68
435.88	8838.86
436.087	9416.39
436.294	9471.68
436.501	9357
436.708	9221.83
436.915	9488.07
437.122	10006.2
437.329	10153.66
437.537	10282.68
437.743	10438.33
437.95	10327.74
438.157	10933.93
438.364	11232.94
438.571	11259.56
438.778	11429.54
438.985	12576.41
439.192	11955.87
439.399	12316.31
439.606	11892.38
439.813	12750.48
440.02	13493.9
440.227	13325.96
440.433	12947.09
440.64	13594.25
440.847	13239.95
441.054	13801.09
441.261	14599.8
441.467	14571.13
441.674	14487.16
441.881	15423.08
442.088	15177.33
442.294	14900.85
442.501	15414.89
442.708	15746.66
442.914	16387.68
443.121	17182.29
443.328	16545.37
443.534	17612.36
443.741	17387.08
443.948	17086.03
444.154	18409.02
444.361	18110.02
444.568	18204.22
444.774	18150.98
444.981	18568.76
445.187	19086.9
445.394	19570.22
445.6	19469.87
445.807	21280.27
446.013	20418.08
446.22	21081.62
446.426	21837.32
446.633	21833.22
446.839	22472.19
447.046	21696.01
447.252	23088.63
447.459	22740.47
447.665	22775.29
447.871	23713.26
448.078	24700.38
448.284	23838.19
448.491	24415.71
448.697	25337.3
448.903	25828.81
449.11	25593.29
449.316	25040.34
449.522	25605.58
449.728	26551.74
449.935	26533.31
450.141	26402.24
450.347	27430.32
450.553	26478.02
450.76	26854.84
450.966	27598.26
451.172	27518.39
451.378	28464.55
451.584	27530.67
451.791	28095.91
451.997	27919.79
452.203	28247.46
452.409	28630.43
452.615	28259.75
452.821	26828.22
453.027	26957.24
453.233	28548.51
453.44	27102.65
453.646	27495.86
453.852	27534.77
454.058	27870.64
454.264	26998.2
454.47	28212.65
454.676	27043.26
454.882	27901.36
455.088	25538
455.294	25779.66
455.5	26486.21
455.705	26404.29
455.911	25316.82
456.117	25460.18
456.323	24579.55
456.529	23231.99
456.735	24387.04
456.941	23713.26
457.147	23274.99
457.352	22652.41
457.558	22466.05
457.764	22574.59
457.97	21769.74
458.176	21427.73
458.381	21335.57
458.587	20352.54
458.793	20416.03
458.999	19140.15
459.204	20608.54
459.41	19904.04
459.616	18615.87
459.821	18433.6
460.027	18720.31
460.233	18130.5
460.438	17507.91
460.644	17270.35
460.85	16569.94
461.055	16418.39
461.261	16164.45
461.466	14943.86
461.672	14642.81
461.878	15601.26
462.083	14753.4
462.289	14173.82
462.494	14122.62
462.7	13547.14
462.905	13057.68
463.111	13526.66
463.316	13598.34
463.522	13483.66
463.727	13317.77
463.932	13407.88
464.138	13133.45
464.343	13248.14
464.549	12775.06
464.754	13121.17
464.959	12838.55
465.165	12715.67
465.37	12459.67
465.575	12240.54
465.781	12617.36
465.986	12762.77
466.191	12027.55
466.397	11804.32
466.602	11284.14
466.807	11718.31
467.012	11630.24
467.218	11595.43
467.423	11570.85
467.628	11634.34
467.833	12113.56
468.038	11454.12
468.244	11355.82
468.449	11546.28
468.654	11368.1
468.859	11134.64
469.064	10972.85
469.269	10542.77
469.474	10612.4
469.679	10706.61
469.885	10604.21
470.09	10585.78
470.295	10704.56
470.5	10473.14
470.705	10356.41
470.91	10122.94
471.115	9975.49
471.32	10172.09
471.525	10049.21
471.73	9930.43
471.935	9756.35
472.139	9533.12
472.344	9537.22
472.549	9588.42
472.754	9529.03
472.959	9203.4
473.164	9029.32
473.369	8920.78
473.574	9230.02
473.778	9070.28
473.983	9133.77
474.188	8949.45
474.393	8838.86
474.598	8672.98
474.802	8517.33
475.007	8562.39
475.212	8439.51
475.417	8154.84
475.621	8279.77
475.826	8005.34
476.031	8206.04
476.235	7929.56
476.44	8021.72
476.645	7849.69
476.849	7874.27
477.054	7782.11
477.259	7538.4
477.463	7694.05
477.668	7438.05
477.872	7536.35
478.077	7352.04
478.282	7421.67
478.486	7278.31
478.691	7173.86
478.895	7186.15
479.1	7202.54
479.304	7044.84
479.509	6897.39
479.713	7063.27
479.918	7003.88
480.122	6670.06
480.326	6694.64
480.531	6846.19
480.735	6696.69
480.94	6778.61
481.144	6768.37
481.348	6465.27
481.553	6610.67
481.757	6573.81
481.961	6424.31
482.166	6713.07
482.37	6584.05
482.574	6420.21
482.778	6563.57
482.983	6594.29
483.187	6362.87
483.391	6403.83
483.595	6334.2
483.8	6293.24
484.004	6547.19
484.208	6598.38
484.412	6399.73
484.616	6426.36
484.821	6526.71
485.025	6276.85
485.229	6463.22
485.433	6242.04
485.637	6565.62
485.841	6530.8
486.045	6342.39
486.249	6287.09
486.453	6393.59
486.657	6489.84
486.861	6358.77
487.065	6264.57
487.269	6366.96
487.473	6307.57
487.677	6371.06
487.881	6633.2
488.085	6266.61
488.289	6422.26
488.493	6260.47
488.697	6485.75
488.901	6459.12
489.105	6326
489.309	6256.37
489.512	6440.69
489.716	6461.17
489.92	6418.16
490.124	6409.97
490.328	6588.14
490.531	6397.68
490.735	6428.4
490.939	6504.18
491.143	6383.35
491.346	6434.55
491.55	6467.31
491.754	6719.21
491.958	6409.97
492.161	6330.1
492.365	6604.53
492.569	6563.57
492.772	6508.27
492.976	6582
493.18	6717.17
493.383	6553.33
493.587	6782.7
493.79	6915.82
493.994	6651.63
494.197	6706.93
494.401	6821.61
494.605	6797.04
494.808	6883.05
495.012	6833.9
495.215	6950.64
495.419	6989.55
495.622	6934.25
495.825	6887.15
496.029	6907.63
496.232	7114.47
496.436	7171.82
496.639	7243.49
496.843	7257.83
497.046	7399.14
497.249	7409.38
497.453	7325.41
497.656	7579.36
497.859	7540.45
498.063	7505.63
498.266	7763.68
498.469	7735.01
498.673	7673.57
498.876	7626.46
499.079	7999.2
499.282	7935.71
499.485	8187.61
499.689	7997.15
499.892	8253.14
500.095	8294.1
500.298	8390.36
500.501	8398.55
500.705	8533.72
500.908	8640.21
501.111	8720.08
501.314	8689.36
501.517	8902.35
501.72	8820.43
501.923	8816.33
502.126	9162.44
502.329	9119.43
502.532	9311.94
502.735	9307.85
502.938	9514.69
503.141	9449.16
503.344	9676.48
503.547	9684.67
503.75	9729.73
503.953	9989.82
504.156	9950.91
504.359	10034.88
504.562	10321.59
504.765	10133.18
504.968	10503.86
505.17	10325.69
505.373	10366.65
505.576	10716.85
505.779	10766
505.982	10659.51
506.185	11085.48
506.387	10962.61
506.59	11071.15
506.793	11323.05
506.996	11169.45
507.198	11757.22
507.401	11562.66
507.604	11724.45
507.807	11701.92
508.009	11781.79
508.212	12265.11
508.415	12234.39
508.617	12469.91
508.82	12367.51
509.022	12365.46
509.225	12887.7
509.428	12928.66
509.63	13108.88
509.833	12959.38
510.035	13227.66
510.238	13428.36
510.44	13407.88
510.643	13735.56
510.845	13645.45
511.048	13590.15
511.25	13891.2
511.453	13874.82
511.655	14513.78
511.858	14382.71
512.06	14417.53
512.262	14667.38
512.465	14341.75
512.667	14892.66
512.87	14986.86
513.072	14964.34
513.274	15199.85
513.477	15515.24
513.679	15795.81
513.881	15898.21
514.084	15935.07
514.286	15898.21
514.488	16316
514.69	16584.28
514.893	16483.93
515.095	16586.33
515.297	16879.19
515.499	16666.2
515.701	17030.74
515.904	17231.44
516.106	17591.88
516.308	17350.22
516.51	17624.65
516.712	17428.04
516.914	17890.88
517.116	18351.68
517.318	18079.3
517.52	18255.42
517.722	18171.46
517.925	18474.56
518.127	18771.51
518.329	18740.79
518.531	18718.26
518.733	19250.74
518.935	19344.94
519.136	19631.66
519.338	19494.44
519.54	19594.79
519.742	19901.99
519.944	19963.43
520.146	20166.18
520.348	20362.78
520.55	20524.57
520.752	20401.69
520.954	20581.92
521.155	20471.32
521.357	20753.94
521.559	20809.24
521.761	21210.64
521.963	21104.15
522.164	21014.04
522.366	21347.86
522.568	21708.3
522.77	21425.68
522.971	21605.9
523.173	21702.15
523.375	21974.53
523.576	21794.31
523.778	21761.55
523.98	21964.29
524.181	22177.28
524.383	21982.73
524.584	22158.85
524.786	22353.41
524.988	22291.97
525.189	22322.69
525.391	22681.08
525.592	22406.66
525.794	22623.74
525.995	22513.15
526.197	22457.85
526.398	22328.83
526.6	22554.11
526.801	22629.88
527.003	22760.95
527.204	22533.63
527.406	22810.11
527.607	22515.2
527.808	22732.28
528.01	22644.22
528.211	22996.47
528.412	23111.16
528.614	23023.09
528.815	22908.41
529.016	22842.87
529.218	22701.56
529.419	22558.21
529.62	22826.49
529.822	22451.71
530.023	22703.61
530.224	22642.17
530.425	22633.98
530.626	22242.82
530.828	22138.37
531.029	22715.9
531.23	22433.28
531.431	22148.61
531.632	22314.5
531.833	22310.4
532.035	22453.76
532.236	22232.58
532.437	22173.19
532.638	21822.98
532.839	22148.61
533.04	22351.36
533.241	22093.32
533.442	22357.5
533.643	22027.78
533.844	21696.01
534.045	21968.39
534.246	21540.36
534.447	21632.52
534.648	21759.5
534.849	21982.73
535.05	21779.98
535.251	21620.24
535.451	21470.73
535.652	21628.43
535.853	21329.42
536.054	21413.39
536.255	21556.75
536.456	21102.1
536.657	21517.84
536.857	21308.94
537.058	21136.91
537.259	21392.91
537.46	21153.3
537.66	21036.56
537.861	21333.52
538.062	21274.13
538.263	20788.76
538.463	20616.73
538.664	21100.05
538.865	21014.04
539.065	21028.37
539.266	20989.46
539.466	20817.43
539.667	20717.08
539.868	20958.74
540.068	20776.47
540.269	20473.37
540.469	20620.83
540.67	20428.32
540.87	20764.18
541.071	20669.98
541.271	20893.21
541.472	20532.76
541.672	20364.83
541.873	20502.04
542.073	20186.66
542.274	20686.36
542.474	20360.73
542.675	20420.13
542.875	20555.29
543.075	20819.48
543.276	20350.49
543.476	20502.04
543.676	20518.43
543.877	20563.48
544.077	20162.08
544.277	20497.95
544.478	20399.65
544.678	20313.63
544.878	20428.32
545.078	20430.37
545.279	20350.49
545.479	20209.18
545.679	20356.64
545.879	20110.88
546.079	20338.21
546.28	20325.92
546.48	20071.97
546.68	20248.1
546.88	20452.89
547.08	20284.96
547.28	20299.3
547.48	20235.81
547.68	20553.24
547.88	20037.16
548.081	20467.23
548.281	20424.22
548.481	20135.46
548.681	20526.62
548.881	20174.37
549.081	20432.41
549.28	20221.47
549.48	20459.04
549.68	20610.59
549.88	20471.32
550.08	20479.52
550.28	20403.74
550.48	20655.64
550.68	20846.1
550.88	20672.03
551.08	20569.63
551.279	20674.07
551.479	20272.67
551.679	20473.37
551.879	20424.22
552.079	20809.24
552.278	20725.27
552.478	20819.48
552.678	20659.74
552.878	21001.75
553.077	20700.7
553.277	20413.98
553.477	20913.69
553.676	20882.97
553.876	20823.58
554.076	20766.23
554.275	20882.97
554.475	20330.02
554.674	20856.34
554.874	21104.15
555.074	20825.62
555.273	21421.58
555.473	20960.79
555.672	20983.32
555.872	21145.11
556.071	21126.67
556.271	21360.14
556.47	21163.54
556.67	21093.91
556.869	21120.53
557.068	21210.64
557.268	21118.48
557.467	21323.28
557.667	21394.96
557.866	21390.86
558.065	21427.73
558.265	21247.51
558.464	21243.41
558.663	21589.52
558.863	21104.15
559.062	21620.24
559.261	21122.58
559.461	21470.73
559.66	20876.82
559.859	21267.98
560.058	21405.2
560.258	21296.66
560.457	21278.22
560.656	21284.37
560.855	21513.74
561.054	21425.68
561.253	21181.97
561.453	21497.36
561.652	21380.62
561.851	21607.95
562.05	21474.83
562.249	21263.89
562.448	21640.72
562.647	21433.87
562.846	21603.85
563.045	21503.5
563.244	21274.13
563.443	21554.7
563.642	21206.55
563.841	21323.28
564.04	21421.58
564.239	21556.75
564.438	21204.5
564.637	21347.86
564.836	21280.27
565.035	21227.03
565.234	21362.19
565.432	21290.51
565.631	20989.46
565.83	21202.45
566.029	21061.14
566.228	21014.04
566.427	21141.01
566.625	20985.37
566.824	20889.11
567.023	21079.57
567.222	20649.5
567.42	21130.77
567.619	21026.32
567.818	20899.35
568.016	20536.86
568.215	20940.31
568.414	20758.04
568.612	20622.87
568.811	20692.51
569.01	20870.68
569.208	20407.84
569.407	20629.02
569.605	20313.63
569.804	20303.39
570.002	20346.4
570.201	20250.14
570.4	20112.93
570.598	20172.32
570.797	19979.81
570.995	19887.65
571.193	19510.83
571.392	19918.37
571.59	19793.45
571.789	19734.06
571.987	19770.92
572.186	19510.83
572.384	19605.03
572.582	19721.77
572.781	19447.34
572.979	19361.33
573.177	19000.88
573.376	19506.73
573.574	19185.2
573.772	19236.4
573.971	18949.68
574.169	19119.67
574.367	18869.81
574.565	18931.25
574.763	18746.94
574.962	18902.58
575.16	18509.37
575.358	18605.63
575.556	18079.3
575.754	18871.86
575.952	18318.91
576.151	18576.95
576.349	18312.77
576.547	18316.86
576.745	18234.94
576.943	18013.76
577.141	17925.7
577.339	17950.28
577.537	17743.43
577.735	17778.25
577.933	17956.42
578.131	17851.97
578.329	17794.63
578.527	17686.09
578.725	17598.02
578.923	17485.39
579.121	17540.68
579.319	17385.04
579.516	17344.08
579.714	17399.37
579.912	17198.67
580.11	17071.7
580.308	17038.93
580.506	17086.03
580.704	16701.01
580.901	17319.5
581.099	17272.4
581.297	16754.26
581.495	16918.1
581.692	16918.1
581.89	16434.78
582.088	16758.36
582.285	16299.61
582.483	16858.71
582.681	16754.26
582.878	16522.84
583.076	16332.38
583.274	16514.65
583.471	16365.15
583.669	16453.21
583.866	16266.85
584.064	16322.14
584.262	16131.68
584.459	16363.1
584.657	16178.78
584.854	16178.78
585.052	15828.58
585.249	16066.14
585.447	16049.76
585.644	15920.74
585.841	16000.61
586.039	15959.65
586.236	15810.15
586.434	15728.23
586.631	15699.56
586.828	15748.71
587.026	15771.24
587.223	15619.69
587.42	15603.3
587.618	15758.95
587.815	15361.64
588.012	15367.79
588.21	15308.4
588.407	15715.94
588.604	15402.6
588.801	15255.15
588.999	15312.49
589.196	15373.93
589.393	15261.29
589.59	15439.47
589.787	15167.09
589.984	15126.13
590.182	15138.41
590.379	15115.89
590.576	15093.36
590.773	15156.85
590.97	15085.17
591.167	15326.83
591.364	15160.94
591.561	14913.14
591.758	14728.82
591.955	15074.93
592.152	14972.53
592.349	14849.65
592.546	15142.51
592.743	14884.47
592.94	14882.42
593.137	14997.1
593.334	14915.19
593.531	15009.39
593.727	14816.88
593.924	14829.17
594.121	14982.77
594.318	15021.68
594.515	14866.03
594.712	15109.74
594.908	14685.81
595.105	15019.63
595.302	14984.82
595.499	14831.22
595.696	15019.63
595.892	14806.64
596.089	14962.29
596.286	15015.54
596.482	14870.13
596.679	14954.1
596.876	15001.2
597.072	14933.62
597.269	14945.91
597.466	14984.82
597.662	14823.03
597.859	15019.63
598.055	15048.3
598.252	15132.27
598.448	15386.22
598.645	15105.65
598.841	15066.74
599.038	15181.42
599.234	14978.67
599.431	14976.62
599.627	15167.09
599.824	15312.49
600.02	15349.36
600.217	15439.47
600.413	15453.8
600.609	15126.13
600.806	15279.72
601.002	15570.54
601.198	15464.04
601.395	15283.82
601.591	15619.69
601.787	15488.62
601.984	15625.83
602.18	15691.37
602.376	15257.2
602.572	15621.73
602.769	15812.2
602.965	15785.57
603.161	15971.94
603.357	15732.33
603.553	15902.31
603.75	16103.01
603.946	16105.06
604.142	16023.14
604.338	15832.68
604.534	16148.06
604.73	15836.77
604.926	16285.28
605.122	16301.66
605.318	16311.9
605.514	16500.31
605.71	16356.96
605.906	16379.48
606.102	16559.7
606.298	16281.18
606.494	16311.9
606.69	16701.01
606.886	16549.46
607.082	16283.23
607.278	16803.41
607.474	16526.94
607.67	16797.27
607.866	16815.7
608.062	17069.65
608.257	17145.42
608.453	17118.8
608.649	17159.76
608.845	17086.03
609.041	17167.95
609.236	17385.04
609.432	17251.92
609.628	17317.45
609.824	17237.58
610.019	17251.92
610.215	17268.3
610.411	17622.6
610.606	17323.6
610.802	17522.25
610.998	17415.76
611.193	17688.14
611.389	17636.94
611.584	17686.09
611.78	17530.44
611.976	17647.18
612.171	17884.74
612.367	17727.05
612.562	17776.2
612.758	17782.34
612.953	17649.22
613.149	18099.78
613.344	17782.34
613.539	17929.8
613.735	17800.77
613.93	17925.7
614.126	17958.47
614.321	18411.07
614.517	18271.81
614.712	18130.5
614.907	18034.24
615.103	18202.18
615.298	17921.6
615.493	18554.43
615.688	17958.47
615.884	18419.26
616.079	18005.57
616.274	18355.77
616.47	18286.14
616.665	18269.76
616.86	18105.92
617.055	18468.41
617.25	18204.22
617.445	18419.26
617.641	18075.2
617.836	18255.42
618.031	18273.85
618.226	18294.33
618.421	18171.46
618.616	18415.16
618.811	18103.87
619.006	18171.46
619.201	18052.67
619.396	18083.39
619.591	17745.48
619.786	18228.8
619.981	17780.29
620.176	17927.75
620.371	17743.43
620.566	17837.64
620.761	17774.15
620.956	17774.15
621.151	17749.57
621.346	17458.76
621.541	17303.12
621.735	17530.44
621.93	17184.34
622.125	17415.76
622.32	16860.76
622.515	17129.04
622.709	17038.93
622.904	17462.86
623.099	16889.43
623.294	16959.06
623.488	16705.11
623.683	16885.33
623.878	16627.29
624.072	16541.27
624.267	16615
624.462	16541.27
624.656	16393.82
624.851	16330.33
625.046	16014.94
625.24	16019.04
625.435	16141.92
625.629	16246.37
625.824	15902.31
626.018	15904.35
626.213	15771.24
626.407	15967.84
626.602	15615.59
626.796	15756.9
626.991	15593.06
627.185	15777.38
627.38	15502.95
627.574	15341.16
627.768	15312.49
627.963	15492.71
628.157	15273.58
628.352	15263.34
628.546	14741.11
628.74	15130.22
628.935	15011.44
629.129	14997.1
629.323	14868.08
629.517	14962.29
629.712	14640.76
629.906	14780.02
630.1	14550.65
630.294	14472.82
630.489	14644.85
630.683	14607.99
630.877	14153.34
631.071	14165.63
631.265	14128.77
631.459	14034.56
631.653	14055.04
631.848	13932.16
632.042	13915.78
632.236	13997.7
632.43	13676.16
632.624	13854.34
632.818	13493.9
633.012	13526.66
633.206	13448.84
633.4	13586.05
633.594	13317.77
633.788	13600.39
633.982	13205.13
634.176	13403.78
634.369	12932.75
634.563	13174.41
634.757	12760.72
634.951	12988.05
635.145	12881.55
635.339	12842.64
635.533	12582.55
635.726	12572.31
635.92	12301.98
636.114	12664.47
636.308	12576.41
636.501	12379.8
636.695	12394.14
636.889	12240.54
637.083	12215.96
637.276	12250.78
637.47	12086.94
637.664	11902.62
637.857	11957.92
638.051	11988.64
638.244	11628.2
638.438	11628.2
638.632	11697.83
638.825	11452.07
639.019	11411.11
639.212	11447.97
639.406	11331.24
639.599	11286.19
639.793	11269.8
639.986	10884.78
640.18	11089.58
640.373	11044.52
640.567	10974.89
640.76	10942.13
640.954	10610.36
641.147	10714.8
641.34	10806.96
641.534	10471.09
641.727	10628.79
641.92	10569.4
642.114	10397.37
642.307	10456.76
642.5	10303.16
642.694	10010.3
642.887	10186.43
643.08	10024.64
643.273	10081.98
643.467	9901.76
643.66	9754.3
643.853	9733.82
644.046	9750.21
644.239	9801.41
644.432	9682.63
644.626	9473.73
644.819	9494.21
645.012	9580.23
645.205	9326.28
645.398	9455.3
645.591	9193.16
645.784	9199.3
645.977	9080.52
646.17	9066.19
646.363	9135.82
646.556	8920.78
646.749	8810.19
646.942	8918.73
647.135	8996.56
647.328	8654.55
647.521	8785.62
647.714	8758.99
647.907	8718.03
648.099	8564.43
648.292	8603.35
648.485	8437.46
648.678	8373.97
648.871	8195.8
649.064	8337.11
649.256	8277.72
649.449	8152.79
649.642	8097.5
649.835	8103.64
650.027	8095.45
650.22	7982.81
650.413	7956.19
650.605	8029.91
650.798	7745.25
650.991	7661.28
651.183	7524.07
651.376	7620.32
651.568	7841.5
651.761	7589.6
651.954	7565.03
652.146	7546.59
652.339	7585.51
652.531	7397.09
652.724	7309.03
652.916	7313.13
653.109	7317.22
653.301	7440.1
653.494	7401.19
653.686	7067.37
653.879	7399.14
654.071	7108.33
654.263	7141.1
654.456	7132.9
654.648	7079.66
654.84	6981.35
655.033	6848.24
655.225	6917.87
655.417	6686.45
655.61	6909.68
655.802	7003.88
655.994	6672.11
656.186	6794.99
656.379	6672.11
656.571	6762.22
656.763	6704.88
656.955	6694.64
657.148	6588.14
657.34	6481.65
657.532	6436.6
657.724	6469.36
657.916	6487.79
658.108	6326
658.3	6299.38
658.492	6291.19
658.684	6252.28
658.876	6326
659.068	6149.88
659.26	6072.06
659.452	6074.1
659.644	6033.15
659.836	5971.71
660.028	6049.53
660.22	5992.19
660.412	5940.99
660.604	5902.08
660.796	5861.12
660.988	5814.01
661.18	5850.88
661.372	5748.48
661.563	5854.97
661.755	5474.05
661.947	5637.89
662.139	5560.06
662.331	5607.17
662.522	5531.39
662.714	5537.54
662.906	5441.28
663.097	5488.39
663.289	5279.49
663.481	5449.47
663.673	5515.01
663.864	5281.54
664.056	5252.87
664.247	5396.23
664.439	5265.16
664.631	5216.01
664.822	5240.58
665.014	5140.23
665.205	5154.57
665.397	5377.8
665.588	5068.55
665.78	5046.02
665.971	5140.23
666.163	5064.46
666.354	4906.76
666.546	5041.93
666.737	4941.58
666.929	4876.04
667.12	4818.7
667.311	4857.61
667.503	4728.59
667.694	4822.8
667.885	4843.28
668.077	4826.89
668.268	4689.68
668.459	4822.8
668.651	4810.51
668.842	4691.73
669.033	4622.09
669.224	4646.67
669.416	4769.55
669.607	4630.29
669.798	4605.71
669.989	4630.29
670.18	4491.02
670.371	4597.52
670.563	4542.22
670.754	4419.35
670.945	4466.45
671.136	4626.19
671.327	4478.74
671.518	4466.45
671.709	4525.84
671.9	4474.64
672.091	4476.69
672.282	4327.19
672.473	4337.43
672.664	4353.81
672.855	4298.52
673.046	4187.93
673.237	4284.18
673.428	4159.25
673.619	4275.99
673.809	4308.76
674	4306.71
674.191	4314.9
674.382	4302.61
674.573	4220.69
674.764	4140.82
674.954	4200.21
675.145	4192.02
675.336	4124.44
675.527	4171.54
675.717	4155.16
675.908	4302.61
676.099	4173.59
676.289	4237.08
676.48	4026.14
676.671	4181.78
676.861	4167.45
677.052	4052.76
677.243	4044.57
677.433	4079.38
677.624	4079.38
677.814	4048.66
678.005	4130.58
678.195	4149.01
678.386	3991.32
678.576	4177.69
678.767	4060.95
678.957	4042.52
679.148	4310.8
679.338	4122.39
679.529	3987.22
679.719	4056.86
679.909	4230.93
680.1	3993.37
680.29	4028.18
680.481	4065.05
680.671	4134.68
680.861	4058.9
681.052	4134.68
681.242	3966.74
681.432	4046.62
681.622	4106.01
681.813	4036.38
682.003	4015.9
682.193	3940.12
682.383	4126.49
682.573	3936.03
682.764	4007.7
682.954	4085.53
683.144	4044.57
683.334	4091.67
683.524	3893.02
683.714	4067.1
683.904	4052.76
684.094	4056.86
684.284	4134.68
684.474	3909.4
684.664	3929.88
684.854	3893.02
685.044	4073.24
685.234	3938.07
685.424	3886.87
685.614	3876.63
685.804	4032.28
685.994	3897.11
686.184	4009.75
686.374	3993.37
686.564	4019.99
686.753	4017.94
686.943	3874.59
687.133	3974.94
687.323	3964.7
687.513	4089.62
687.702	4001.56
687.892	3954.46
688.082	3901.21
688.272	3993.37
688.461	3966.74
688.651	4034.33
688.841	3903.26
689.03	3870.49
689.22	3966.74
689.41	3899.16
689.599	3864.35
689.789	3864.35
689.979	3710.75
690.168	3868.44
690.358	3813.15
690.547	3776.28
690.737	3778.33
690.926	3764
691.116	3827.48
691.305	3753.76
691.495	3788.57
691.684	3608.35
691.874	3659.55
692.063	3960.6
692.252	3680.03
692.442	3680.03
692.631	3696.41
692.82	3786.52
693.01	3839.77
693.199	3716.89
693.388	3747.61
693.578	3643.17
693.767	3747.61
693.956	3659.55
694.146	3616.54
694.335	3634.97
694.524	3499.81
694.713	3647.26
694.902	3591.97
695.092	3643.17
695.281	3626.78
695.47	3692.32
695.659	3680.03
695.848	3532.58
696.037	3675.93
696.226	3720.99
696.415	3581.73
696.604	3587.87
696.793	3571.49
696.982	3561.25
697.171	3610.4
697.36	3524.38
697.549	3520.29
697.738	3516.19
697.927	3540.77
698.116	3686.17
698.305	3518.24
698.494	3606.3
698.683	3495.71
698.872	3606.3
699.061	3540.77
699.25	3577.63
699.438	3548.96
699.627	3516.19
699.816	3639.07
700.005	3360.55
700.193	3442.46
700.382	3512.1
700.571	3577.63
700.76	3551.01
700.948	3477.28
701.137	3436.32
701.326	3426.08
701.514	3338.02
701.703	3344.16
701.892	3419.94
702.08	3358.5
702.269	3518.24
702.457	3524.38
702.646	3274.53
702.834	3411.75
703.023	3448.61
703.212	3358.5
703.4	3442.46
703.589	3311.39
703.777	3381.03
703.965	3209
704.154	3333.92
704.342	3206.95
704.531	3223.33
704.719	3180.32
704.907	3319.59
705.096	3264.29
705.284	3221.28
705.472	3450.66
705.661	3151.65
705.849	3237.67
706.037	3309.35
706.226	3335.97
706.414	3270.44
706.602	3299.11
706.79	3274.53
706.979	3168.04
707.167	3245.86
707.355	3106.6
707.543	3180.32
707.731	3135.27
707.919	3180.32
708.107	3196.71
708.296	3149.61
708.484	3082.02
708.672	3108.65
708.86	3036.97
709.048	3131.17
709.236	3247.91
709.424	3000.1
709.612	3082.02
709.8	2993.96
709.988	2953
710.176	2987.82
710.364	3065.64
710.551	3049.25
710.739	2998.06
710.927	2983.72
711.115	2901.8
711.303	3084.07
711.491	2836.27
711.679	2932.52
711.866	3094.31
712.054	2961.19
712.242	2996.01
712.43	3018.54
712.617	2795.31
712.805	2965.29
712.993	2871.08
713.181	2873.13
713.368	2909.99
713.556	2971.43
713.744	2819.88
713.931	2977.58
714.119	2885.42
714.306	2905.9
714.494	2717.48
714.682	2801.45
714.869	2848.55
715.057	2787.11
715.244	2754.35
715.432	2758.44
715.619	2885.42
715.807	2721.58
715.994	2789.16
716.182	2826.03
716.369	2852.65
716.556	2871.08
716.744	2602.8
716.931	2580.27
717.119	2758.44
717.306	2666.28
717.493	2731.82
717.681	2684.72
717.868	2633.52
718.055	2586.41
718.242	2731.82
718.43	2750.25
718.617	2651.95
718.804	2746.16
718.991	2770.73
719.179	2682.67
719.366	2608.94
719.553	2649.9
719.74	2610.99
719.927	2533.17
720.114	2576.17
720.301	2600.75
720.488	2502.45
720.676	2598.7
720.863	2664.24
721.05	2649.9
721.237	2617.13
721.424	2594.61
721.611	2488.11
721.798	2619.18
721.985	2592.56
722.172	2441.01
722.358	2541.36
722.545	2479.92
722.732	2486.06
722.919	2502.45
723.106	2422.58
723.293	2443.06
723.48	2574.13
723.667	2541.36
723.853	2504.5
724.04	2484.02
724.227	2527.02
724.414	2410.29
724.6	2320.18
724.787	2443.06
724.974	2428.72
725.161	2361.14
725.347	2434.86
725.534	2334.51
725.72	2402.1
725.907	2363.19
726.094	2348.85
726.28	2352.95
726.467	2398
726.653	2512.69
726.84	2260.79
727.027	2494.26
727.213	2340.66
727.4	2281.27
727.586	2336.56
727.773	2295.6
727.959	2371.38
728.145	2303.79
728.332	2328.37
728.518	2176.82
728.705	2205.49
728.891	2213.68
729.077	2262.83
729.264	2189.11
729.45	2262.83
729.636	2219.83
729.823	2299.7
730.009	2285.36
730.195	2311.99
730.382	2328.37
730.568	2109.24
730.754	2258.74
730.94	2191.16
731.126	2244.4
731.313	2195.25
731.499	2234.16
731.685	2240.31
731.871	2158.39
732.057	2148.15
732.243	2326.32
732.429	2189.11
732.615	2258.74
732.801	2123.57
732.987	2139.96
733.173	2250.55
733.359	2080.57
733.545	2205.49
733.731	2228.02
733.917	2148.15
734.103	2086.71
734.289	2176.82
734.475	2125.62
734.661	1972.02
734.847	2123.57
735.033	2182.96
735.219	2019.13
735.404	2101.05
735.59	2086.71
735.776	2051.89
735.962	2111.29
736.148	2230.07
736.333	2008.89
736.519	2033.46
736.705	1992.5
736.89	2131.76
737.076	1918.78
737.262	1957.69
737.447	1959.74
737.633	2004.79
737.819	2062.13
738.004	1992.5
738.19	1918.78
738.375	2000.69
738.561	2070.33
738.747	1947.45
738.932	1992.5
739.118	1926.97
739.303	2021.17
739.489	1918.78
739.674	1922.87
739.859	1894.2
740.045	2008.89
740.23	1873.72
740.416	1779.51
740.601	1836.86
740.786	1967.93
740.972	1877.82
741.157	1863.48
741.342	1879.86
741.528	1763.13
741.713	1871.67
741.898	1877.82
742.084	1861.43
742.269	1851.19
742.454	1896.25
742.639	1822.52
742.824	1822.52
743.01	1912.63
743.195	1894.2
743.38	1705.79
743.565	1808.19
743.75	1804.09
743.935	1804.09
744.12	1697.6
744.305	1754.94
744.49	1851.19
744.675	1820.47
744.86	1673.02
745.045	1722.17
745.23	1621.82
745.415	1666.88
745.6	1849.15
745.785	1732.41
745.97	1720.12
746.155	1632.06
746.34	1584.96
746.525	1691.45
746.71	1541.95
746.895	1574.72
747.079	1597.24
747.264	1623.87
747.449	1587.01
747.634	1591.1
747.819	1484.61
748.003	1619.77
748.188	1513.28
748.373	1417.02
748.557	1535.81
748.742	1468.22
748.927	1503.04
749.111	1386.3
749.296	1568.57
749.481	1445.7
749.665	1558.33
749.85	1417.02
750.034	1517.37
750.219	1451.84
750.404	1404.74
750.588	1421.12
750.773	1298.24
750.957	1402.69
751.141	1435.46
751.326	1359.68
751.51	1234.75
751.695	1361.73
751.879	1333.06
752.064	1320.77
752.248	1232.71
752.432	1441.6
752.617	1388.35
752.801	1333.06
752.985	1341.25
753.17	1247.04
753.354	1273.67
753.538	1253.19
753.722	1247.04
753.907	1189.7
754.091	1197.89
754.275	1279.81
754.459	1124.16
754.643	1259.33
754.828	1181.51
755.012	1290.05
755.196	1201.99
755.38	1150.79
755.564	1189.7
755.748	1173.32
755.932	1132.36
756.116	1095.49
756.3	1144.64
756.484	1077.06
756.668	1177.41
756.852	1101.64
757.036	1115.97
757.22	1101.64
757.404	1042.25
757.588	1142.6
757.772	1072.96
757.956	1017.67
758.14	1064.77
758.323	993.09
758.507	1109.83
758.691	958.28
758.875	1042.25
759.059	1017.67
759.242	952.13
759.426	1019.72
759.61	1056.58
759.794	950.09
759.977	902.98
760.161	976.71
760.345	962.37
760.528	968.52
760.712	866.12
760.895	1017.67
761.079	943.94
761.263	862.02
761.446	917.32
761.63	962.37
761.813	960.33
761.997	952.13
762.18	894.79
762.364	943.94
762.547	870.22
762.731	966.47
762.914	911.18
763.098	862.02
763.281	890.7
763.464	855.88
763.648	880.46
763.831	886.6
764.015	880.46
764.198	945.99
764.381	870.22
764.564	829.26
764.748	831.3
764.931	1034.05
765.114	847.69
765.297	872.26
765.481	798.54
765.664	831.3
765.847	831.3
766.03	886.6
766.213	716.62
766.397	862.02
766.58	763.72
766.763	837.45
766.946	665.42
767.129	808.78
767.312	769.87
767.495	755.53
767.678	730.95
767.861	706.38
768.044	698.19
768.227	749.39
768.41	755.53
768.593	819.02
768.776	798.54
768.959	747.34
769.142	804.68
769.324	804.68
769.507	696.14
769.69	773.96
769.873	759.63
770.056	952.13
770.239	741.19
770.421	788.3
770.604	743.24
770.787	847.69
770.97	735.05
771.152	694.09
771.335	657.23
771.518	706.38
771.7	749.39
771.883	806.73
772.066	710.47
772.248	689.99
772.431	681.8
772.613	712.52
772.796	759.63
772.978	790.35
773.161	610.12
773.343	667.47
773.526	747.34
773.708	659.28
773.891	581.45
774.073	616.27
774.256	694.09
774.438	657.23
774.621	679.75
774.803	599.88
774.985	603.98
775.168	642.89
775.35	683.85
775.532	577.36
775.715	612.17
775.897	673.61
776.079	599.88
776.261	591.69
776.444	642.89
776.626	616.27
776.808	544.59
776.99	655.18
777.173	630.6
777.355	542.54
777.537	554.83
777.719	587.6
777.901	550.73
778.083	606.03
778.265	544.59
778.447	501.58
778.629	616.27
778.811	591.69
778.993	567.12
779.175	563.02
779.357	517.97
779.539	485.2
779.721	444.24
779.903	587.6
780.085	509.77
780.267	501.58
780.449	503.63
780.631	550.73
780.812	517.97
780.994	495.44
781.176	431.95
781.358	438.09
781.54	513.87
781.721	452.43
781.903	450.38
782.085	479.05
782.267	538.45
782.448	427.85
782.63	436.05
782.812	466.77
782.993	388.94
783.175	505.68
783.357	395.09
783.538	493.39
783.72	378.7
783.901	427.85
784.083	452.43
784.264	456.53
784.446	366.42
784.627	376.66
784.809	382.8
784.99	333.65
785.172	450.38
785.353	419.66
785.535	313.17
785.716	479.05
785.897	362.32
786.079	370.51
786.26	395.09
786.441	378.7
786.623	333.65
786.804	386.9
786.985	380.75
787.167	419.66
787.348	370.51
787.529	386.9
787.71	444.24
787.891	419.66
788.073	315.22
788.254	362.32
788.435	321.36
788.616	333.65
788.797	266.07
788.978	317.26
789.159	300.88
789.34	333.65
789.522	296.78
789.703	313.17
789.884	321.36
790.065	241.49
790.246	388.94
790.427	276.31
790.607	364.37
790.788	347.98
790.969	284.5
791.15	323.41
791.331	235.35
791.512	284.5
791.693	319.31
791.874	268.11
792.054	374.61
792.235	315.22
792.416	235.35
792.597	251.73
792.778	270.16
792.958	266.07
793.139	255.83
793.32	261.97
793.5	255.83
793.681	309.07
793.862	317.26
794.042	276.31
794.223	255.83
794.404	321.36
794.584	165.71
794.765	309.07
794.945	362.32
795.126	364.37
795.306	247.63
795.487	276.31
795.667	184.15
795.848	315.22
796.028	298.83
796.209	345.94
796.389	288.59
796.57	264.02
796.75	202.58
796.93	266.07
797.111	304.98
797.291	280.4
797.471	237.39
797.652	264.02
797.832	218.96
798.012	290.64
798.192	225.11
798.373	202.58
798.553	247.63
798.733	270.16
798.913	216.91
799.093	186.19
799.274	321.36
799.454	309.07
799.634	268.11
799.814	221.01
799.994	229.2
800.174	292.69
800.354	216.91
800.534	163.67
800.714	276.31
800.894	206.67
801.074	202.58
801.254	231.25
801.434	218.96
801.614	149.33
801.794	106.32
801.974	929.61
802.154	151.38
802.334	255.83
802.514	149.33
802.693	190.29
802.873	184.15
803.053	276.31
803.233	266.07
803.413	182.1
803.592	216.91
803.772	135
803.952	182.1
804.131	163.67
804.311	157.52
804.491	288.59
804.67	151.38
804.85	200.53
805.03	225.11
805.209	223.06
805.389	239.44
805.568	210.77
805.748	182.1
805.928	102.23
806.107	239.44
806.287	159.57
806.466	165.71
806.646	149.33
806.825	151.38
807.004	130.9
807.184	139.09
807.363	159.57
807.543	178
807.722	157.52
807.901	159.57
808.081	214.87
808.26	87.89
808.439	132.95
808.619	186.19
808.798	112.47
808.977	124.76
809.156	196.43
809.336	128.85
809.515	188.24
809.694	149.33
809.873	118.61
810.052	145.24
810.231	169.81
810.411	145.24
810.59	149.33
810.769	178
810.948	184.15
811.127	141.14
811.306	165.71
811.485	89.94
811.664	178
811.843	157.52
812.022	149.33
812.201	198.48
812.38	159.57
812.559	149.33
812.737	167.76
812.916	202.58
813.095	61.27
813.274	171.86
813.453	141.14
813.632	145.24
813.811	108.37
813.989	67.41
814.168	112.47
814.347	85.84
814.526	53.08
814.704	157.52
814.883	128.85
815.062	83.8
815.24	153.43
815.419	18.26
815.598	132.95
815.776	91.99
815.955	108.37
816.133	100.18
816.312	149.33
816.49	83.8
816.669	153.43
816.847	141.14
817.026	96.08
817.204	53.08
817.383	173.91
817.561	65.36
817.74	53.08
817.918	87.89
818.097	147.28
818.275	53.08
818.453	198.48
818.632	235.35
818.81	126.8
818.988	143.19
819.167	98.13
819.345	102.23
819.523	71.51
819.701	69.46
819.879	124.76
820.058	173.91
820.236	102.23
820.414	87.89
820.592	104.28
820.77	83.8
820.948	120.66
821.127	85.84
821.305	51.03
821.483	26.45
821.661	175.95
821.839	67.41
822.017	110.42
822.195	132.95
822.373	149.33
822.551	51.03
822.729	135
822.907	61.27
823.085	59.22
823.262	171.86
823.44	34.64
823.618	108.37
823.796	65.36
823.974	116.56
824.152	26.45
824.329	69.46
824.507	116.56
824.685	100.18
824.863	26.45
825.04	94.04
825.218	118.61
825.396	137.04
825.574	100.18
825.751	85.84
825.929	87.89
826.107	48.98
826.284	18.26
826.462	104.28
826.639	108.37
826.817	36.69
826.994	59.22
827.172	53.08
827.349	128.85
827.527	20.31
827.704	34.64
827.882	149.33
828.059	96.08
828.237	24.4
828.414	73.56
828.591	102.23
828.769	112.47
828.946	53.08
829.124	116.56
829.301	120.66
829.478	83.8
829.655	61.27
829.833	18.26
830.01	12.12
830.187	46.93
830.364	59.22
830.542	14.17
830.719	61.27
830.896	139.09
831.073	77.65
831.25	26.45
831.427	141.14
831.604	108.37
831.782	71.51
831.959	118.61
832.136	26.45
832.313	100.18
832.49	114.52
832.667	124.76
832.844	69.46
833.021	104.28
833.198	104.28
833.374	57.17
833.551	59.22
833.728	53.08
833.905	132.95
834.082	28.5
834.259	32.6
834.436	126.8
834.612	63.32
834.789	94.04
834.966	12.12
835.143	83.8
835.319	44.88
835.496	30.55
835.673	100.18
835.85	67.41
836.026	69.46
836.203	75.6
836.38	12.12
836.556	-30.89
836.733	53.08
836.909	114.52
837.086	44.88
837.262	42.84
837.439	-14.51
837.616	14.17
837.792	26.45
837.968	100.18
838.145	-18.6
838.321	12.12
838.498	34.64
838.674	100.18
838.851	44.88
839.027	40.79
839.203	12.12
839.38	83.8
839.556	22.36
839.732	53.08
839.909	51.03
840.085	59.22
840.261	30.55
840.437	1.88
840.614	75.6
840.79	132.95
840.966	20.31
841.142	110.42
841.318	42.84
841.494	12.12
841.671	3.93
841.847	42.84
842.023	20.31
842.199	18.26
842.375	26.45
842.551	63.32
842.727	-6.31
842.903	141.14
843.079	51.03
843.255	122.71
843.431	79.7
843.607	110.42
843.783	-12.46
843.959	42.84
844.134	30.55
844.31	38.74
844.486	-4.27
844.662	3.93
844.838	-22.7
845.013	59.22
845.189	20.31
845.365	83.8
845.541	83.8
845.716	89.94
845.892	71.51
846.068	1.88
846.244	-53.42
846.419	116.56
846.595	18.26
846.77	1.88
846.946	63.32
847.122	51.03
847.297	-28.84
847.473	26.45
847.648	34.64
847.824	51.03
847.999	34.64
848.175	26.45
848.35	94.04
848.526	124.76
848.701	75.6
848.876	61.27
849.052	91.99
849.227	51.03
849.403	5.97
849.578	59.22
849.753	71.51
849.929	-14.51
850.104	42.84
850.279	26.45
850.454	48.98
850.63	18.26
850.805	30.55
850.98	28.5
851.155	-39.08
851.33	55.12
851.505	-47.27
851.681	91.99
851.856	-77.99
852.031	55.12
852.206	51.03
852.381	-43.18
852.556	46.93
852.731	-10.41
852.906	75.6
853.081	-2.22
853.256	-12.46
853.431	73.56
853.606	34.64
853.781	59.22
853.956	1.88
854.131	55.12
854.305	-12.46
854.48	1.88
854.655	-53.42
854.83	12.12
855.005	-14.51
855.18	26.45
855.354	-20.65
855.529	24.4
855.704	-75.95
855.879	10.07
856.053	42.84
856.228	81.75
856.403	38.74
856.577	61.27
856.752	20.31
856.926	-14.51
857.101	-4.27
857.276	-14.51
857.45	141.14
857.625	18.26
857.799	75.6
857.974	71.51
858.148	-4.27
858.323	51.03
858.497	22.36
858.672	-55.47
858.846	3.93
859.02	100.18
859.195	-22.7
859.369	18.26
859.543	34.64
859.718	-12.46
859.892	-6.31
860.066	14.17
860.241	-73.9
860.415	30.55
860.589	20.31
860.763	53.08
860.938	8.02
861.112	-14.51
861.286	8.02
861.46	1.88
861.634	51.03
861.808	55.12
861.982	-43.18
862.157	-39.08
862.331	-39.08
862.505	26.45
862.679	42.84
862.853	1.88
863.027	-37.03
863.201	55.12
863.375	-45.23
863.549	26.45
863.722	-4.27
863.896	34.64
864.07	-6.31
864.244	-86.19
864.418	77.65
864.592	38.74
864.766	34.64
864.939	-63.66
865.113	26.45
865.287	22.36
865.461	-67.75
865.634	10.07
865.808	1.88
865.982	42.84
866.156	5.97
866.329	-2.22
866.503	53.08
866.676	55.12
866.85	-14.51
867.024	-45.23
867.197	61.27
867.371	83.8
867.544	34.64
867.718	10.07
867.891	53.08
868.065	16.21
868.238	14.17
868.412	59.22
868.585	114.52
868.759	-34.99
868.932	-0.17
869.105	-20.65
869.279	-34.99
869.452	30.55
869.625	12.12
869.799	42.84
869.972	38.74
870.145	1.88
870.319	3.93
870.492	-12.46
870.665	-14.51
870.838	51.03
871.011	-63.66
871.185	-28.84
871.358	-71.85
871.531	1.88
871.704	44.88
871.877	-10.41
872.05	10.07
872.223	10.07
872.396	34.64
872.569	14.17
872.742	-14.51
872.915	30.55
873.088	1.88
873.261	14.17
873.434	65.36
873.607	10.07
873.78	77.65
873.953	-28.84
874.126	-28.84
874.299	100.18
874.471	-69.8
874.644	20.31
874.817	-12.46
874.99	26.45
875.163	12.12
875.335	34.64
875.508	-0.17
875.681	59.22
875.853	-80.04
876.026	-43.18
876.199	28.5
876.371	77.65
876.544	-6.31
876.717	-28.84
876.889	38.74
877.062	34.64
877.234	8.02
877.407	61.27
877.579	-28.84
877.752	94.04
877.924	96.08
878.097	-39.08
878.269	-12.46
878.442	1.88
878.614	34.64
878.786	-30.89
878.959	-32.94
879.131	1.88
879.303	-22.7
879.476	-30.89
879.648	75.6
879.82	-6.31
879.993	-45.23
880.165	10.07
880.337	-63.66
880.509	-30.89
880.681	-8.36
880.854	-14.51
881.026	14.17
881.198	91.99
881.37	42.84
881.542	-4.27
881.714	-92.33
881.886	1.88
882.058	12.12
882.23	83.8
882.402	42.84
882.574	59.22
882.746	26.45
882.918	51.03
883.09	59.22
883.262	51.03
883.434	5.97
883.606	-34.99
883.778	10.07
883.95	51.03
884.122	-84.14
884.293	53.08
884.465	87.89
884.637	42.84
884.809	-20.65
884.98	-55.47
885.152	61.27
885.324	-22.7
885.496	20.31
885.667	-20.65
885.839	-32.94
886.011	67.41
886.182	28.5
886.354	36.69
886.525	59.22
886.697	51.03
886.869	-43.18
887.04	61.27
887.212	30.55
887.383	96.08
887.555	-55.47
887.726	26.45
887.897	-18.6
888.069	26.45
888.24	28.5
888.412	-75.95
888.583	20.31
888.754	10.07
888.926	-88.23
889.097	-4.27
889.268	-84.14
889.44	-22.7
889.611	-37.03
889.782	-22.7
889.953	10.07
890.125	61.27
890.296	12.12
890.467	-22.7
890.638	5.97
890.809	-10.41
890.98	14.17
891.151	67.41
891.323	59.22
891.494	26.45
891.665	-28.84
891.836	-30.89
892.007	1.88
892.178	-12.46
892.349	-12.46
892.52	16.21
892.691	-22.7
892.862	18.26
893.032	-0.17
893.203	-14.51
893.374	-14.51
893.545	69.46
893.716	42.84
893.887	-6.31
894.057	-34.99
894.228	18.26
894.399	-55.47
894.57	100.18
894.74	14.17
894.911	-14.51
895.082	-39.08
895.253	-26.79
895.423	-34.99
895.594	12.12
895.764	34.64
895.935	1.88
896.106	-51.37
896.276	-47.27
896.447	-14.51
896.617	-12.46
896.788	22.36
896.958	1.88
897.129	-12.46
897.299	32.6
897.47	30.55
897.64	40.79
897.81	-45.23
897.981	-10.41
898.151	-55.47
898.322	12.12
898.492	1.88
898.662	-71.85
898.832	-63.66
899.003	-22.7
899.173	5.97
899.343	59.22
899.513	-53.42
