Data from USB4F104151__125__14-31-20-859.txt Node

Date: Thu Mar 13 14:31:20 EDT 2025
User: louis
Spectrometer: USB4F10415
Trigger mode: 4
Integration Time (sec): 2.500000E-2
Scans to average: 1
Electric dark correction enabled: true
Nonlinearity correction enabled: false
Boxcar width: 0
XAxis mode: Wavelengths
Number of Pixels in Spectrum: 3648
>>>>>Begin Spectral Data<<<<<
178.204	-125.78
178.424	-125.78
178.644	-125.78
178.864	-185.17
179.084	-193.36
179.304	-2.9
179.524	58.54
179.744	-0.85
179.964	-2.9
180.184	-29.52
180.404	36.01
180.624	-0.85
180.844	-45.91
181.064	-35.67
181.283	48.3
181.503	-17.24
181.723	-7
181.943	-15.19
182.163	38.06
182.383	-4.95
182.602	60.59
182.822	3.24
183.042	-56.15
183.262	-50
183.482	-70.48
183.701	40.11
183.921	44.2
184.141	-29.52
184.361	44.2
184.58	27.82
184.8	29.87
185.02	-29.52
185.239	38.06
185.459	56.49
185.679	93.35
185.898	-45.91
186.118	3.24
186.338	-11.09
186.557	15.53
186.777	-13.14
186.997	62.63
187.216	52.39
187.436	70.83
187.655	27.82
187.875	15.53
188.095	-15.19
188.314	62.63
188.534	58.54
188.753	3.24
188.973	17.58
189.192	85.16
189.412	-29.52
189.631	21.67
189.851	58.54
190.07	70.83
190.29	27.82
190.509	23.72
190.729	19.63
190.948	109.74
191.168	167.08
191.387	54.44
191.607	40.11
191.826	-17.24
192.045	-54.1
192.265	48.3
192.484	48.3
192.704	81.07
192.923	-19.29
193.142	119.98
193.362	54.44
193.581	81.07
193.8	-0.85
194.02	46.25
194.239	-52.05
194.458	33.96
194.678	-0.85
194.897	40.11
195.116	-99.16
195.335	62.63
195.555	46.25
195.774	46.25
195.993	60.59
196.212	-45.91
196.432	27.82
196.651	25.77
196.87	52.39
197.089	68.78
197.308	48.3
197.528	3.24
197.747	-62.29
197.966	11.43
198.185	54.44
198.404	11.43
198.623	56.49
198.842	25.77
199.062	-4.95
199.281	122.02
199.5	60.59
199.719	31.91
199.938	19.63
200.157	109.74
200.376	52.39
200.595	-54.1
200.814	40.11
201.033	15.53
201.252	42.15
201.471	36.01
201.69	27.82
201.909	13.48
202.128	13.48
202.347	-7
202.566	54.44
202.785	-21.33
203.004	-9.05
203.223	85.16
203.442	29.87
203.661	-2.9
203.879	56.49
204.098	-0.85
204.317	-88.92
204.536	60.59
204.755	38.06
204.974	42.15
205.193	-41.81
205.411	52.39
205.63	52.39
205.849	31.91
206.068	-9.05
206.287	48.3
206.505	-29.52
206.724	-2.9
206.943	13.48
207.162	13.48
207.381	3.24
207.599	-27.48
207.818	27.82
208.037	-2.9
208.255	76.97
208.474	-4.95
208.693	7.34
208.911	60.59
209.13	132.26
209.349	-4.95
209.567	60.59
209.786	15.53
210.005	42.15
210.223	-54.1
210.442	-17.24
210.661	52.39
210.879	-7
211.098	36.01
211.316	85.16
211.535	-0.85
211.753	46.25
211.972	-50
212.191	48.3
212.409	7.34
212.628	-9.05
212.846	62.63
213.065	40.11
213.283	138.41
213.502	19.63
213.72	-17.24
213.938	46.25
214.157	54.44
214.375	-25.43
214.594	-29.52
214.812	134.31
215.031	50.35
215.249	-19.29
215.467	-60.24
215.686	-33.62
215.904	87.21
216.122	21.67
216.341	81.07
216.559	27.82
216.778	130.22
216.996	-0.85
217.214	36.01
217.432	27.82
217.651	-4.95
217.869	27.82
218.087	56.49
218.306	-11.09
218.524	-4.95
218.742	27.82
218.96	48.3
219.179	62.63
219.397	-37.72
219.615	105.64
219.833	48.3
220.051	-33.62
220.27	128.17
220.488	62.63
220.706	44.2
220.924	-11.09
221.142	56.49
221.36	-21.33
221.578	-33.62
221.796	85.16
222.015	-13.14
222.233	-4.95
222.451	-9.05
222.669	11.43
222.887	5.29
223.105	-76.63
223.323	7.34
223.541	-0.85
223.759	19.63
223.977	36.01
224.195	62.63
224.413	70.83
224.631	81.07
224.849	-11.09
225.067	109.74
225.285	-0.85
225.503	19.63
225.721	-29.52
225.939	25.77
226.157	36.01
226.375	54.44
226.592	-21.33
226.81	19.63
227.028	44.2
227.246	103.59
227.464	-2.9
227.682	13.48
227.9	13.48
228.117	44.2
228.335	38.06
228.553	36.01
228.771	21.67
228.989	93.35
229.206	-11.09
229.424	-4.95
229.642	-0.85
229.86	27.82
230.077	62.63
230.295	79.02
230.513	79.02
230.731	-19.29
230.948	54.44
231.166	74.92
231.384	56.49
231.601	-21.33
231.819	44.2
232.037	-35.67
232.254	31.91
232.472	60.59
232.689	-21.33
232.907	7.34
233.125	-43.86
233.342	5.29
233.56	52.39
233.777	-2.9
233.995	-9.05
234.213	33.96
234.43	-35.67
234.648	5.29
234.865	-19.29
235.083	19.63
235.3	5.29
235.518	-9.05
235.735	33.96
235.953	126.12
236.17	54.44
236.388	5.29
236.605	5.29
236.822	95.4
237.04	-13.14
237.257	48.3
237.475	-54.1
237.692	15.53
237.909	5.29
238.127	-29.52
238.344	19.63
238.562	25.77
238.779	-45.91
238.996	-9.05
239.214	15.53
239.431	52.39
239.648	33.96
239.865	-21.33
240.083	109.74
240.3	79.02
240.517	1.19
240.735	-13.14
240.952	33.96
241.169	15.53
241.386	70.83
241.603	54.44
241.821	27.82
242.038	40.11
242.255	68.78
242.472	11.43
242.689	60.59
242.907	-13.14
243.124	-90.96
243.341	-41.81
243.558	-33.62
243.775	-43.86
243.992	13.48
244.209	11.43
244.426	23.72
244.643	42.15
244.86	7.34
245.078	40.11
245.295	-7
245.512	36.01
245.729	21.67
245.946	46.25
246.163	11.43
246.38	-17.24
246.597	46.25
246.814	-60.24
247.031	60.59
247.248	-4.95
247.464	36.01
247.681	-19.29
247.898	7.34
248.115	52.39
248.332	54.44
248.549	36.01
248.766	64.68
248.983	93.35
249.2	76.97
249.417	33.96
249.633	-52.05
249.85	-11.09
250.067	76.97
250.284	5.29
250.501	19.63
250.717	60.59
250.934	83.11
251.151	-0.85
251.368	19.63
251.585	48.3
251.801	-0.85
252.018	-31.57
252.235	52.39
252.451	11.43
252.668	-27.48
252.885	64.68
253.102	5.29
253.318	19.63
253.535	13.48
253.752	-0.85
253.968	-11.09
254.185	-35.67
254.401	44.2
254.618	68.78
254.835	-27.48
255.051	54.44
255.268	13.48
255.484	66.73
255.701	5.29
255.917	25.77
256.134	-39.76
256.351	109.74
256.567	-21.33
256.784	3.24
257	-43.86
257.217	52.39
257.433	3.24
257.65	-25.43
257.866	60.59
258.082	-45.91
258.299	-0.85
258.515	19.63
258.732	-25.43
258.948	-33.62
259.165	36.01
259.381	36.01
259.597	15.53
259.814	-9.05
260.03	-31.57
260.246	68.78
260.463	93.35
260.679	52.39
260.895	-0.85
261.112	93.35
261.328	-70.48
261.544	52.39
261.761	56.49
261.977	11.43
262.193	-74.58
262.409	60.59
262.626	-2.9
262.842	3.24
263.058	-50
263.274	50.35
263.49	11.43
263.707	93.35
263.923	-4.95
264.139	38.06
264.355	33.96
264.571	56.49
264.787	68.78
265.004	101.55
265.22	3.24
265.436	62.63
265.652	62.63
265.868	1.19
266.084	-58.2
266.3	-27.48
266.516	-33.62
266.732	95.4
266.948	11.43
267.164	134.31
267.38	-37.72
267.596	19.63
267.812	183.46
268.028	60.59
268.244	38.06
268.46	76.97
268.676	-21.33
268.892	38.06
269.108	27.82
269.324	44.2
269.54	-43.86
269.756	68.78
269.972	15.53
270.188	-4.95
270.403	-54.1
270.619	54.44
270.835	40.11
271.051	-17.24
271.267	-54.1
271.483	-13.14
271.698	11.43
271.914	21.67
272.13	-52.05
272.346	-33.62
272.562	68.78
272.777	62.63
272.993	25.77
273.209	27.82
273.425	5.29
273.64	17.58
273.856	38.06
274.072	5.29
274.287	3.24
274.503	5.29
274.719	68.78
274.934	56.49
275.15	-82.77
275.366	-66.39
275.581	-19.29
275.797	19.63
276.012	27.82
276.228	60.59
276.444	-11.09
276.659	36.01
276.875	109.74
277.09	-2.9
277.306	15.53
277.521	23.72
277.737	17.58
277.952	5.29
278.168	38.06
278.383	76.97
278.599	29.87
278.814	54.44
279.03	101.55
279.245	107.69
279.461	13.48
279.676	38.06
279.892	3.24
280.107	-31.57
280.322	13.48
280.538	62.63
280.753	68.78
280.969	40.11
281.184	60.59
281.399	31.91
281.615	19.63
281.83	27.82
282.045	11.43
282.26	27.82
282.476	25.77
282.691	-13.14
282.906	-4.95
283.122	79.02
283.337	-11.09
283.552	93.35
283.767	27.82
283.983	70.83
284.198	-31.57
284.413	25.77
284.628	-70.48
284.843	36.01
285.058	54.44
285.274	-4.95
285.489	-54.1
285.704	21.67
285.919	3.24
286.134	46.25
286.349	33.96
286.564	-95.06
286.779	70.83
286.995	-17.24
287.21	-68.44
287.425	-2.9
287.64	-7
287.855	-17.24
288.07	38.06
288.285	83.11
288.5	60.59
288.715	81.07
288.93	-33.62
289.145	-37.72
289.36	62.63
289.575	-21.33
289.79	48.3
290.004	33.96
290.219	85.16
290.434	40.11
290.649	-17.24
290.864	48.3
291.079	-4.95
291.294	56.49
291.509	-15.19
291.724	27.82
291.938	-64.34
292.153	3.24
292.368	36.01
292.583	7.34
292.798	62.63
293.012	21.67
293.227	15.53
293.442	5.29
293.657	36.01
293.871	95.4
294.086	-31.57
294.301	62.63
294.516	54.44
294.73	-23.38
294.945	-127.83
295.16	-13.14
295.374	109.74
295.589	54.44
295.804	27.82
296.018	44.2
296.233	70.83
296.447	72.87
296.662	42.15
296.877	64.68
297.091	132.26
297.306	58.54
297.52	40.11
297.735	60.59
297.949	-13.14
298.164	111.78
298.378	-13.14
298.593	-19.29
298.807	-19.29
299.022	-33.62
299.236	-15.19
299.451	17.58
299.665	-50
299.88	44.2
300.094	52.39
300.309	11.43
300.523	31.91
300.737	-43.86
300.952	36.01
301.166	81.07
301.381	-19.29
301.595	-0.85
301.809	-35.67
302.024	-31.57
302.238	13.48
302.452	48.3
302.667	38.06
302.881	21.67
303.095	89.26
303.309	-9.05
303.524	31.91
303.738	-21.33
303.952	29.87
304.166	70.83
304.381	-76.63
304.595	-4.95
304.809	42.15
305.023	3.24
305.237	27.82
305.452	-19.29
305.666	25.77
305.88	27.82
306.094	19.63
306.308	21.67
306.522	76.97
306.736	109.74
306.95	81.07
307.164	27.82
307.379	11.43
307.593	48.3
307.807	46.25
308.021	27.82
308.235	70.83
308.449	-50
308.663	19.63
308.877	19.63
309.091	60.59
309.305	91.31
309.519	-29.52
309.733	56.49
309.947	5.29
310.161	-17.24
310.374	7.34
310.588	93.35
310.802	54.44
311.016	44.2
311.23	29.87
311.444	15.53
311.658	27.82
311.872	146.6
312.085	13.48
312.299	36.01
312.513	68.78
312.727	44.2
312.941	-21.33
313.154	21.67
313.368	7.34
313.582	76.97
313.796	19.63
314.009	-13.14
314.223	38.06
314.437	29.87
314.651	31.91
314.864	-15.19
315.078	19.63
315.292	19.63
315.505	44.2
315.719	60.59
315.933	72.87
316.146	66.73
316.36	-74.58
316.573	79.02
316.787	-66.39
317.001	19.63
317.214	-19.29
317.428	-21.33
317.641	-4.95
317.855	-4.95
318.068	17.58
318.282	23.72
318.495	130.22
318.709	95.4
318.922	50.35
319.136	60.59
319.349	-0.85
319.563	7.34
319.776	60.59
319.99	-4.95
320.203	79.02
320.417	11.43
320.63	-9.05
320.843	68.78
321.057	54.44
321.27	-21.33
321.483	27.82
321.697	48.3
321.91	17.58
322.124	-4.95
322.337	74.92
322.55	-11.09
322.763	-50
322.977	60.59
323.19	50.35
323.403	11.43
323.617	68.78
323.83	11.43
324.043	56.49
324.256	13.48
324.469	-11.09
324.683	3.24
324.896	-19.29
325.109	-21.33
325.322	-43.86
325.535	27.82
325.748	132.26
325.962	27.82
326.175	-9.05
326.388	44.2
326.601	85.16
326.814	-27.48
327.027	-27.48
327.24	42.15
327.453	-56.15
327.666	40.11
327.879	27.82
328.092	85.16
328.305	64.68
328.518	91.31
328.731	-21.33
328.944	44.2
329.157	64.68
329.37	27.82
329.583	36.01
329.796	-19.29
330.009	-103.25
330.222	91.31
330.435	29.87
330.648	-2.9
330.861	58.54
331.073	11.43
331.286	76.97
331.499	3.24
331.712	-13.14
331.925	38.06
332.138	89.26
332.35	44.2
332.563	-9.05
332.776	85.16
332.989	29.87
333.202	13.48
333.414	38.06
333.627	17.58
333.84	44.2
334.053	31.91
334.265	5.29
334.478	17.58
334.691	-2.9
334.903	48.3
335.116	42.15
335.329	-19.29
335.541	50.35
335.754	103.59
335.966	-66.39
336.179	40.11
336.392	-2.9
336.604	31.91
336.817	54.44
337.029	68.78
337.242	52.39
337.454	79.02
337.667	-43.86
337.88	27.82
338.092	70.83
338.305	93.35
338.517	3.24
338.729	56.49
338.942	119.98
339.154	25.77
339.367	40.11
339.579	64.68
339.792	27.82
340.004	27.82
340.217	-25.43
340.429	-2.9
340.641	-82.77
340.854	36.01
341.066	36.01
341.278	23.72
341.491	60.59
341.703	93.35
341.915	5.29
342.128	36.01
342.34	27.82
342.552	60.59
342.764	85.16
342.977	5.29
343.189	27.82
343.401	19.63
343.613	21.67
343.826	36.01
344.038	-9.05
344.25	79.02
344.462	11.43
344.674	52.39
344.886	54.44
345.099	68.78
345.311	13.48
345.523	19.63
345.735	-19.29
345.947	13.48
346.159	70.83
346.371	-29.52
346.583	-43.86
346.795	74.92
347.007	-9.05
347.219	-0.85
347.431	11.43
347.643	76.97
347.855	19.63
348.067	54.44
348.279	-19.29
348.491	38.06
348.703	52.39
348.915	38.06
349.127	52.39
349.339	-4.95
349.551	52.39
349.763	-2.9
349.975	44.2
350.187	11.43
350.399	83.11
350.61	21.67
350.822	99.5
351.034	15.53
351.246	44.2
351.458	46.25
351.669	33.96
351.881	19.63
352.093	36.01
352.305	38.06
352.517	19.63
352.728	158.89
352.94	21.67
353.152	11.43
353.363	62.63
353.575	76.97
353.787	9.39
353.999	66.73
354.21	56.49
354.422	19.63
354.633	-45.91
354.845	19.63
355.057	19.63
355.268	23.72
355.48	27.82
355.692	-4.95
355.903	56.49
356.115	-37.72
356.326	-43.86
356.538	3.24
356.749	-11.09
356.961	70.83
357.172	44.2
357.384	-17.24
357.595	76.97
357.807	19.63
358.018	-54.1
358.23	36.01
358.441	101.55
358.653	48.3
358.864	44.2
359.075	3.24
359.287	97.45
359.498	5.29
359.709	3.24
359.921	9.39
360.132	68.78
360.344	27.82
360.555	52.39
360.766	31.91
360.977	29.87
361.189	99.5
361.4	103.59
361.611	-19.29
361.823	-15.19
362.034	-17.24
362.245	-13.14
362.456	95.4
362.667	-11.09
362.879	31.91
363.09	36.01
363.301	81.07
363.512	64.68
363.723	38.06
363.935	-25.43
364.146	-11.09
364.357	23.72
364.568	29.87
364.779	5.29
364.99	68.78
365.201	-25.43
365.412	93.35
365.623	27.82
365.834	44.2
366.045	66.73
366.256	68.78
366.467	119.98
366.678	29.87
366.889	-29.52
367.1	36.01
367.311	95.4
367.522	70.83
367.733	68.78
367.944	19.63
368.155	-2.9
368.366	70.83
368.577	132.26
368.788	93.35
368.999	-45.91
369.209	60.59
369.42	93.35
369.631	128.17
369.842	56.49
370.053	7.34
370.264	70.83
370.474	-47.96
370.685	11.43
370.896	38.06
371.107	68.78
371.317	117.93
371.528	54.44
371.739	52.39
371.95	74.92
372.16	56.49
372.371	44.2
372.582	23.72
372.792	11.43
373.003	-9.05
373.214	27.82
373.424	44.2
373.635	-33.62
373.846	95.4
374.056	44.2
374.267	36.01
374.477	81.07
374.688	50.35
374.898	31.91
375.109	60.59
375.319	7.34
375.53	111.78
375.74	19.63
375.951	117.93
376.161	7.34
376.372	3.24
376.582	46.25
376.793	79.02
377.003	-4.95
377.214	29.87
377.424	95.4
377.635	-11.09
377.845	-13.14
378.055	107.69
378.266	-52.05
378.476	99.5
378.686	21.67
378.897	70.83
379.107	68.78
379.317	48.3
379.528	44.2
379.738	29.87
379.948	15.53
380.158	19.63
380.369	7.34
380.579	29.87
380.789	-35.67
380.999	76.97
381.21	31.91
381.42	13.48
381.63	9.39
381.84	23.72
382.05	167.08
382.261	60.59
382.471	27.82
382.681	21.67
382.891	167.08
383.101	60.59
383.311	-33.62
383.521	44.2
383.731	62.63
383.941	124.07
384.151	-4.95
384.361	-2.9
384.571	31.91
384.781	68.78
384.991	107.69
385.201	85.16
385.411	89.26
385.621	85.16
385.831	58.54
386.041	62.63
386.251	74.92
386.461	87.21
386.671	40.11
386.881	76.97
387.091	36.01
387.301	189.61
387.511	64.68
387.72	119.98
387.93	50.35
388.14	62.63
388.35	122.02
388.56	60.59
388.769	70.83
388.979	13.48
389.189	81.07
389.399	54.44
389.609	54.44
389.818	60.59
390.028	85.16
390.238	15.53
390.447	-4.95
390.657	70.83
390.867	3.24
391.076	44.2
391.286	60.59
391.496	-29.52
391.705	62.63
391.915	93.35
392.125	54.44
392.334	11.43
392.544	64.68
392.753	60.59
392.963	68.78
393.172	117.93
393.382	38.06
393.591	134.31
393.801	58.54
394.01	97.45
394.22	89.26
394.429	-2.9
394.639	119.98
394.848	128.17
395.058	111.78
395.267	64.68
395.477	130.22
395.686	109.74
395.895	160.94
396.105	169.13
396.314	122.02
396.524	46.25
396.733	101.55
396.942	70.83
397.152	95.4
397.361	126.12
397.57	48.3
397.78	27.82
397.989	150.7
398.198	128.17
398.407	19.63
398.617	97.45
398.826	23.72
399.035	68.78
399.244	181.42
399.453	85.16
399.663	109.74
399.872	146.6
400.081	117.93
400.29	138.41
400.499	54.44
400.708	220.33
400.917	66.73
401.127	109.74
401.336	46.25
401.545	146.6
401.754	150.7
401.963	146.6
402.172	111.78
402.381	218.28
402.59	68.78
402.799	56.49
403.008	150.7
403.217	134.31
403.426	171.18
403.635	128.17
403.844	171.18
404.053	128.17
404.262	68.78
404.471	249
404.68	167.08
404.888	240.81
405.097	214.18
405.306	175.27
405.515	228.52
405.724	208.04
405.933	150.7
406.142	226.47
406.35	187.56
406.559	128.17
406.768	173.22
406.977	292.01
407.185	275.62
407.394	212.14
407.603	257.19
407.812	218.28
408.02	289.96
408.229	279.72
408.438	193.7
408.646	203.94
408.855	279.72
409.064	330.92
409.272	263.33
409.481	326.82
409.69	265.38
409.898	289.96
410.107	461.99
410.315	347.3
410.524	337.06
410.733	470.18
410.941	347.3
411.15	421.03
411.358	519.33
411.567	461.99
411.775	470.18
411.984	414.88
412.192	578.72
412.401	502.95
412.609	644.26
412.818	548
413.026	580.77
413.234	521.38
413.443	613.54
413.651	552.1
413.86	715.94
414.068	754.85
414.276	767.13
414.485	734.37
414.693	849.05
414.901	933.02
415.11	939.16
415.318	797.85
415.526	912.54
415.734	922.78
415.943	945.31
416.151	1039.51
416.359	928.92
416.567	1053.85
416.776	1184.92
416.984	1201.3
417.192	1219.74
417.4	1203.35
417.608	1209.5
417.817	1227.93
418.025	1391.77
418.233	1459.35
418.441	1404.05
418.649	1522.84
418.857	1494.16
419.065	1723.54
419.273	1600.66
419.481	1698.96
419.689	1805.46
419.897	1944.72
420.105	1944.72
420.313	1961.1
420.521	2124.94
420.729	1993.87
420.937	2122.89
421.145	2305.16
421.353	2387.08
421.561	2403.46
421.769	2485.38
421.977	2583.68
422.185	2632.83
422.393	2759.81
422.601	2948.22
422.809	2919.55
423.017	2954.37
423.224	3107.96
423.432	3140.73
423.64	3026.04
423.848	3374.2
424.056	3298.42
424.263	3527.8
424.471	3632.24
424.679	3761.27
424.887	3886.19
425.094	3843.18
425.302	4181.1
425.51	4205.67
425.718	4281.45
425.925	4418.66
426.133	4500.58
426.341	4756.58
426.548	5041.25
426.756	5059.68
426.964	4947.04
427.171	5317.72
427.379	5434.46
427.586	5549.14
427.794	5700.69
428.001	5911.63
428.209	6222.92
428.417	6093.9
428.624	6530.12
428.832	6636.61
429.039	6640.71
429.247	6483.02
429.454	7060.54
429.662	7556.15
429.869	7205.95
430.076	7670.84
430.284	7447.61
430.491	7695.41
430.699	8113.2
430.906	8399.91
431.114	8201.26
431.321	8547.37
431.528	8971.3
431.736	9155.61
431.943	9690.13
432.15	9538.59
432.358	9362.46
432.565	10144.78
432.772	10026
432.979	10572.81
433.187	10648.58
433.394	10699.78
433.601	11518.97
433.808	11408.38
434.016	11310.08
434.223	11856.89
434.43	12581.87
434.637	12311.53
434.844	13206.5
435.052	13282.27
435.259	13417.44
435.466	13464.54
435.673	13405.15
435.88	13997.01
436.087	15141.83
436.294	14924.74
436.501	14529.48
436.708	14689.23
436.915	15291.33
437.122	16034.74
437.329	16042.93
437.537	16456.62
437.743	16628.65
437.95	16745.39
438.157	17546.14
438.364	18103.19
438.571	18039.7
438.778	18215.83
438.985	19803
439.192	19069.83
439.399	19573.63
439.606	19000.2
439.813	20530.03
440.02	21267.3
440.227	20964.2
440.433	20679.54
440.64	21525.35
440.847	21439.33
441.054	21818.21
441.261	23460.68
441.467	22793.04
441.674	23462.72
441.881	24419.13
442.088	24138.55
442.294	23948.09
442.501	24531.76
442.708	25285.42
442.914	26022.69
443.121	27138.83
443.328	26360.6
443.534	28091.13
443.741	27583.24
443.948	27122.44
444.154	29215.47
444.361	29022.96
444.568	29029.1
444.774	29313.77
444.981	29381.35
445.187	30190.3
445.394	31408.84
445.6	31138.51
445.807	34345.63
446.013	32455.36
446.22	33079.99
446.426	34192.03
446.633	34691.74
446.839	36010.63
447.046	34609.82
447.252	36420.22
447.459	35883.66
447.665	36463.23
447.871	38011.49
448.078	39346.77
448.284	37354.1
448.491	38470.24
448.697	40122.95
448.903	40931.9
449.11	40616.51
449.316	40161.86
449.522	40966.71
449.728	42041.9
449.935	42410.53
450.141	42002.99
450.347	43383.32
450.553	42056.23
450.76	42170.92
450.966	43465.24
451.172	42951.2
451.378	44292.61
451.584	43844.11
451.791	44503.56
451.997	44753.41
452.203	45249.02
452.409	45228.54
452.615	45019.64
452.821	42934.81
453.027	42969.63
453.233	44800.51
453.44	43196.95
453.646	43631.12
453.852	43678.22
454.058	44929.53
454.264	43393.56
454.47	44511.75
454.676	43166.23
454.882	44864
455.088	41099.83
455.294	41679.41
455.5	41927.21
455.705	42705.44
455.911	41132.6
456.117	40579.65
456.323	39813.71
456.529	37571.18
456.735	39174.74
456.941	38371.94
457.147	37757.55
457.352	36477.57
457.558	36047.49
457.764	36149.89
457.97	35654.28
458.176	34839.19
458.381	34800.28
458.587	32934.58
458.793	32780.98
458.999	31443.66
459.204	33694.38
459.41	32770.74
459.616	30653.14
459.821	30190.3
460.027	30685.91
460.233	29690.6
460.438	28285.69
460.644	28730.1
460.85	27314.95
461.055	26675.99
461.261	26751.76
461.466	24539.96
461.672	24136.51
461.878	25883.42
462.083	23933.76
462.289	23571.27
462.494	23452.48
462.7	22567.76
462.905	21465.96
463.111	22254.42
463.316	22444.88
463.522	21742.43
463.727	21887.84
463.932	21758.81
464.138	21527.39
464.343	21607.26
464.549	21021.55
464.754	21549.92
464.959	21736.29
465.165	21457.76
465.37	20259.7
465.575	19911.55
465.781	20525.94
465.986	20478.83
466.191	19884.92
466.397	19809.15
466.602	18428.82
466.807	19506.05
467.012	19377.03
467.218	19311.49
467.423	18944.91
467.628	19145.61
467.833	19800.96
468.038	19194.76
468.244	18553.74
468.449	19342.21
468.654	18490.26
468.859	18467.73
469.064	18350.99
469.269	17767.32
469.474	17818.52
469.679	17931.16
469.885	17591.2
470.09	17877.91
470.295	17640.35
470.5	17171.36
470.705	17228.71
470.91	16880.55
471.115	16796.59
471.32	16999.34
471.525	16851.88
471.73	16606.13
471.935	16540.59
472.139	16032.69
472.344	16190.39
472.549	15932.34
472.754	16133.04
472.959	15741.88
473.164	15076.29
473.369	15053.76
473.574	15782.84
473.778	15477.69
473.983	15174.6
474.188	15084.48
474.393	14781.39
474.598	14429.13
474.802	14326.74
475.007	14085.08
475.212	14324.69
475.417	13708.25
475.621	13939.67
475.826	13827.03
476.031	13630.43
476.235	13181.92
476.44	13464.54
476.645	13128.67
476.849	13386.72
477.054	13181.92
477.259	12745.7
477.463	12780.52
477.668	12532.72
477.872	12633.07
478.077	12549.1
478.282	12415.98
478.486	12100.59
478.691	12039.15
478.895	12125.17
479.1	11832.31
479.304	12078.07
479.509	11582.46
479.713	11742.2
479.918	11521.02
480.122	11590.65
480.326	11666.42
480.531	11711.48
480.735	11344.89
480.94	11387.9
481.144	11965.43
481.348	11166.72
481.553	11293.69
481.757	11119.62
481.961	11238.4
482.166	11197.44
482.37	11082.75
482.574	11011.07
482.778	11066.37
482.983	11283.45
483.187	10990.59
483.391	11328.51
483.595	10947.59
483.8	10798.09
484.004	10996.74
484.208	11070.47
484.412	10820.61
484.616	10986.5
484.821	11023.36
485.025	10925.06
485.229	11203.58
485.433	10945.54
485.637	10894.34
485.841	10898.44
486.045	10736.65
486.249	10750.98
486.453	10722.31
486.657	11103.23
486.861	10914.82
487.065	10710.02
487.269	10943.49
487.473	10644.49
487.677	11074.56
487.881	10923.01
488.085	10904.58
488.289	10875.91
488.493	10757.13
488.697	11074.56
488.901	10951.68
489.105	11041.79
489.309	10849.29
489.512	10779.65
489.716	10923.01
489.92	11074.56
490.124	10972.16
490.328	11316.22
490.531	11043.84
490.735	11013.12
490.939	11236.35
491.143	11039.75
491.346	11226.11
491.55	11432.96
491.754	11301.89
491.958	11195.39
492.161	11193.34
492.365	11475.96
492.569	11373.57
492.772	11355.13
492.976	11512.83
493.18	11600.89
493.383	11654.14
493.587	11480.06
493.79	11828.21
493.994	11815.93
494.197	11850.74
494.401	11889.65
494.605	11885.56
494.808	12012.53
495.012	12033.01
495.215	12286.96
495.419	12127.22
495.622	12020.72
495.825	12522.48
496.029	12377.07
496.232	12397.55
496.436	12626.92
496.639	12755.94
496.843	12827.62
497.046	13038.56
497.249	13347.81
497.453	13140.96
497.656	13233.12
497.859	13341.66
498.063	13366.24
498.266	13870.04
498.469	13331.42
498.673	13763.54
498.876	13980.63
499.079	13994.97
499.282	14160.85
499.485	14359.5
499.689	14408.65
499.892	14715.85
500.095	14808.01
500.298	14977.99
500.501	14914.5
500.705	15182.79
500.908	15559.61
501.111	15674.3
501.314	15700.92
501.517	16069.56
501.72	16182.2
501.923	15899.58
502.126	16464.82
502.329	16526.25
502.532	16663.47
502.735	16534.45
502.938	16985
503.141	17265.57
503.344	17370.02
503.547	17488.8
503.75	17648.54
503.953	17970.07
504.156	18019.22
504.359	18115.48
504.562	18269.08
504.765	18533.26
504.968	18949
505.17	19057.54
505.373	19069.83
505.576	19434.37
505.779	19510.14
505.982	19690.37
506.185	19917.69
506.387	19983.23
506.59	20214.65
506.793	20614
506.996	20820.84
507.198	21191.53
507.401	21109.61
507.604	21498.72
507.807	21664.61
508.009	21850.97
508.212	21805.92
508.415	21986.14
508.617	22391.64
508.82	22336.34
509.022	22477.65
509.225	23022.41
509.428	23049.03
509.63	23315.27
509.833	23401.29
510.035	24019.77
510.238	24070.97
510.44	24302.39
510.643	24275.77
510.845	24644.4
511.048	24634.16
511.25	25103.15
511.453	25232.17
511.655	26362.65
511.858	25746.21
512.06	26034.97
512.262	26315.55
512.465	26118.94
512.667	26710.8
512.87	26815.25
513.072	26639.12
513.274	27562.76
513.477	27896.58
513.679	27759.36
513.881	28160.76
514.084	28414.71
514.286	28711.67
514.488	28713.72
514.69	29450.99
514.893	29487.85
515.095	29313.77
515.297	29993.7
515.499	29645.54
515.701	30425.82
515.904	30628.57
516.106	31062.74
516.308	31304.4
516.51	31234.77
516.712	31185.61
516.914	31951.56
517.116	32275.13
517.318	32656.06
517.52	32438.97
517.722	32682.68
517.925	33133.23
518.127	33106.61
518.329	33655.47
518.531	33483.44
518.733	34302.62
518.935	34112.16
519.136	33901.22
519.338	34585.24
519.54	34671.26
519.742	35160.72
519.944	35142.29
520.146	35611.28
520.348	35459.73
520.55	35977.86
520.752	35945.09
520.954	36084.36
521.155	36315.78
521.357	36663.93
521.559	37192.31
521.761	37552.75
521.963	37145.2
522.164	37452.4
522.366	37388.91
522.568	37798.51
522.77	37950.06
522.971	38730.33
523.173	38195.81
523.375	38498.91
523.576	38621.79
523.778	38601.31
523.98	39047.77
524.181	39058.01
524.383	39035.48
524.584	39582.29
524.786	39543.38
524.988	39682.64
525.189	39709.26
525.391	39930.44
525.592	40317.51
525.794	40301.12
525.995	40419.91
526.197	40217.16
526.398	40690.24
526.6	40450.63
526.801	40778.3
527.003	41144.89
527.204	40878.65
527.406	41191.99
527.607	40747.58
527.808	41642.54
528.01	40796.73
528.211	41073.21
528.412	41351.73
528.614	41441.84
528.815	41304.63
529.016	41753.13
529.218	40983.1
529.419	41255.48
529.62	41402.93
529.822	41067.06
530.023	41509.43
530.224	41818.67
530.425	41425.46
530.626	41173.56
530.828	41110.07
531.029	41706.03
531.23	41364.02
531.431	41261.62
531.632	41202.23
531.833	41718.32
532.035	41722.41
532.236	41331.25
532.437	41181.75
532.638	40884.79
532.839	41556.53
533.04	41378.36
533.241	40903.23
533.442	41689.65
533.643	41069.11
533.844	41263.67
534.045	41259.57
534.246	40852.03
534.447	40983.1
534.648	40864.32
534.849	41286.2
535.05	41216.57
535.251	40780.35
535.451	40745.53
535.652	40981.05
535.853	41196.09
536.054	40913.47
536.255	40919.61
536.456	40831.55
536.657	41359.92
536.857	40776.25
537.058	40624.7
537.259	41278
537.46	40569.41
537.66	40763.96
537.861	41022.01
538.062	40444.48
538.263	41085.5
538.463	40016.46
538.664	40385.09
538.865	40536.64
539.065	40563.26
539.266	40258.12
539.466	40901.18
539.667	40479.3
539.868	41187.89
540.068	40276.55
540.269	40077.9
540.469	40370.75
540.67	40395.33
540.87	39895.63
541.071	40149.57
541.271	40180.29
541.472	40389.19
541.672	39936.59
541.873	39948.87
542.073	39934.54
542.274	40456.77
542.474	40213.06
542.675	40077.9
542.875	40399.43
543.075	39899.72
543.276	39326.29
543.476	40221.25
543.676	39973.45
543.877	40198.73
544.077	40032.84
544.277	40004.17
544.478	39739.98
544.678	40057.42
544.878	40333.89
545.078	39887.43
545.279	39557.71
545.479	39549.52
545.679	40012.36
545.879	39887.43
546.079	39713.36
546.28	39916.11
546.48	39625.29
546.68	39676.49
546.88	39989.83
547.08	39699.02
547.28	39750.22
547.48	39375.44
547.68	40075.85
547.88	39711.31
548.081	40249.92
548.281	40079.94
548.481	39662.16
548.681	40186.44
548.881	39733.84
549.081	39674.45
549.28	39727.69
549.48	39922.25
549.68	39606.86
549.88	40344.13
550.08	39668.3
550.28	39963.21
550.48	39565.9
550.68	40534.59
550.88	39371.35
551.08	39961.16
551.279	39823.95
551.479	39821.9
551.679	40075.85
551.879	40057.42
552.079	40239.68
552.278	39762.51
552.478	39901.77
552.678	40163.91
552.878	39895.63
553.077	39742.03
553.277	39703.12
553.477	40378.95
553.676	39922.25
553.876	40106.57
554.076	40202.82
554.275	39877.19
554.475	39885.39
554.674	39510.61
554.874	39932.49
555.074	39844.43
555.273	39940.68
555.473	40475.2
555.672	40401.47
555.872	40143.43
556.071	40208.97
556.271	40135.24
556.47	40114.76
556.67	39813.71
556.869	39965.26
557.068	40372.8
557.268	40264.26
557.467	40129.09
557.667	40407.62
557.866	40239.68
558.065	40518.21
558.265	40501.82
558.464	40051.27
558.663	40395.33
558.863	39965.26
559.062	40700.48
559.261	40114.76
559.461	40305.22
559.66	39871.05
559.859	39789.13
560.058	40125
560.258	40092.23
560.457	39965.26
560.656	40270.4
560.855	39854.67
561.054	40485.44
561.253	39957.06
561.453	39903.82
561.652	40403.52
561.851	40190.53
562.05	40067.66
562.249	40018.5
562.448	40260.16
562.647	40196.68
562.846	39944.78
563.045	40098.37
563.244	40032.84
563.443	40288.84
563.642	39934.54
563.841	39869
564.04	39432.78
564.239	39862.86
564.438	39559.76
564.637	39623.25
564.836	39516.75
565.035	39377.49
565.234	39737.93
565.432	39266.9
565.631	39330.39
565.83	39909.96
566.029	39408.21
566.228	39281.24
566.427	39041.62
566.625	39154.26
566.824	38959.7
567.023	39631.44
567.222	38371.94
567.42	39051.86
567.619	39211.6
567.818	38931.03
568.016	38799.96
568.215	39400.02
568.414	38679.13
568.612	38963.8
568.811	38599.26
569.01	38967.9
569.208	38279.78
569.407	38359.65
569.605	38255.2
569.804	38623.84
570.002	38208.1
570.201	38584.93
570.4	38128.23
570.598	37853.8
570.797	37835.37
570.995	38115.94
571.193	37507.69
571.392	37962.34
571.59	37837.42
571.789	37640.81
571.987	37698.16
572.186	37558.89
572.384	37644.91
572.582	37421.68
572.781	37743.21
572.979	36938.36
573.177	37087.86
573.376	37491.31
573.574	37085.81
573.772	37188.21
573.971	36665.98
574.169	36657.79
574.367	36297.34
574.565	36823.67
574.763	36772.47
574.962	36211.33
575.16	35984.01
575.358	36446.85
575.556	36096.64
575.754	36461.18
575.952	35879.56
576.151	36375.17
576.349	35633.8
576.547	35670.67
576.745	35570.32
576.943	35936.9
577.141	35861.13
577.339	35840.65
577.537	35416.72
577.735	35463.82
577.933	34923.16
578.131	35562.12
578.329	34904.73
578.527	34738.84
578.725	34751.13
578.923	34611.87
579.121	34710.17
579.319	34630.3
579.516	34816.66
579.714	34349.73
579.912	34486.94
580.11	34810.52
580.308	34394.78
580.506	34601.63
580.704	33696.42
580.901	34054.82
581.099	34259.62
581.297	33620.65
581.495	33798.82
581.692	33819.3
581.89	33518.25
582.088	34046.63
582.285	33510.06
582.483	33673.9
582.681	33653.42
582.878	33002.16
583.076	32649.91
583.274	32910
583.471	32707.26
583.669	33161.9
583.866	32848.57
584.064	32721.59
584.262	32598.71
584.459	33274.54
584.657	32404.16
584.854	32987.83
585.052	31978.18
585.249	32592.57
585.447	32467.64
585.644	31943.36
585.841	32281.28
586.039	32451.26
586.236	31830.72
586.434	32078.53
586.631	31843.01
586.828	31828.68
587.026	31908.55
587.223	31431.37
587.42	31996.61
587.618	32080.58
587.815	31689.42
588.012	31451.85
588.21	31238.86
588.407	31863.49
588.604	31236.81
588.801	31054.54
588.999	31208.14
589.196	31042.26
589.393	30999.25
589.59	30677.72
589.787	30532.31
589.984	30593.75
590.182	30315.23
590.379	30761.69
590.576	30331.61
590.773	30393.05
590.97	30370.52
591.167	30462.68
591.364	30169.82
591.561	30479.07
591.758	30302.94
591.955	30192.35
592.152	30528.22
592.349	30036.7
592.546	30135.01
592.743	29940.45
592.94	29473.51
593.137	30051.04
593.334	29907.68
593.531	29612.77
593.727	29563.62
593.924	29686.5
594.121	29487.85
594.318	29432.55
594.515	29336.3
594.712	29498.09
594.908	29278.96
595.105	29555.43
595.302	29080.3
595.499	29444.84
595.696	29070.06
595.892	28875.51
596.089	29330.16
596.286	29098.73
596.482	29270.76
596.679	29053.68
596.876	28818.16
597.072	29094.64
597.269	29274.86
597.466	28621.56
597.662	29387.5
597.859	28883.7
598.055	28762.87
598.252	28869.36
598.448	28752.63
598.645	28775.16
598.841	28386.04
599.038	28728.05
599.234	28734.2
599.431	28564.21
599.627	28390.14
599.824	28736.24
600.02	28463.86
600.217	28386.04
600.413	28488.44
600.609	28435.19
600.806	28437.24
601.002	28553.97
601.198	28365.56
601.395	28560.12
601.591	28326.65
601.787	28093.18
601.984	28164.86
602.18	28361.47
602.376	28287.74
602.572	28201.72
602.769	28443.38
602.965	27919.1
603.161	28392.19
603.357	28148.48
603.553	28154.62
603.75	27749.12
603.946	27734.79
604.142	28271.36
604.338	27761.41
604.534	28320.51
604.73	28267.26
604.926	27869.95
605.122	27955.97
605.318	28472.06
605.514	27845.38
605.71	27947.78
605.906	28041.98
606.102	28177.15
606.298	27806.47
606.494	27693.83
606.69	27972.35
606.886	28246.78
607.082	27835.14
607.278	28316.41
607.474	27693.83
607.67	28097.28
607.866	27835.14
608.062	28199.68
608.257	27831.04
608.453	28015.36
608.649	28207.87
608.845	27702.02
609.041	28291.83
609.236	27980.54
609.432	27841.28
609.628	28138.24
609.824	27974.4
610.019	27728.64
610.215	28447.48
610.411	28148.48
610.606	28062.46
610.802	27994.88
610.998	28361.47
611.193	27925.25
611.389	27882.24
611.584	28056.32
611.78	28035.84
611.976	28140.29
612.171	28205.82
612.367	28103.42
612.562	28205.82
612.758	27536.13
612.953	27685.64
613.149	28041.98
613.344	27955.97
613.539	28539.64
613.735	27935.49
613.93	28003.07
614.126	28066.56
614.321	28271.36
614.517	27861.76
614.712	28091.13
614.907	27714.31
615.103	28070.65
615.298	27898.62
615.493	28379.9
615.688	27820.8
615.884	28234.49
616.079	27691.78
616.274	28101.37
616.47	27753.22
616.665	27939.58
616.86	27755.27
617.055	27849.47
617.25	27800.32
617.445	27872
617.641	27613.96
617.836	27818.75
618.031	27011.85
618.226	27413.26
618.421	27425.54
618.616	27747.08
618.811	27450.12
619.006	27923.2
619.201	26972.94
619.396	27314.95
619.591	27104.01
619.786	27099.92
619.981	27046.67
620.176	27050.77
620.371	26635.03
620.566	26927.89
620.761	26635.03
620.956	27071.25
621.151	26473.24
621.346	26366.74
621.541	26430.23
621.735	26510.1
621.93	25920.29
622.125	26426.14
622.32	25459.49
622.515	26196.76
622.709	25850.66
622.904	25723.68
623.099	25375.53
623.294	25658.15
623.488	25148.2
623.683	25197.35
623.878	25084.72
624.072	25307.94
624.267	24791.86
624.462	24671.03
624.656	24580.92
624.851	24705.84
625.046	24759.09
625.24	24378.17
625.435	24335.16
625.629	24212.28
625.824	23970.62
626.018	24091.45
626.213	23673.67
626.407	23823.17
626.602	23757.63
626.796	23659.33
626.991	23477.06
627.185	23382.85
627.38	23210.82
627.574	22954.83
627.768	23024.46
627.963	22946.64
628.157	22672.21
628.352	22889.29
628.546	22369.11
628.74	22854.48
628.935	22289.24
629.129	22266.71
629.323	22041.43
629.517	22049.63
629.712	21896.03
629.906	21881.69
630.1	21326.69
630.294	21453.67
630.489	21599.07
630.683	21556.07
630.877	21261.16
631.071	21228.39
631.265	21480.29
631.459	20996.97
631.653	20931.44
631.848	21060.46
632.042	20609.9
632.236	20839.28
632.43	20446.07
632.624	20581.23
632.818	20177.78
633.012	20136.82
633.206	20028.28
633.4	20228.98
633.594	20075.38
633.788	20124.54
633.982	19958.65
634.176	19811.2
634.369	19477.38
634.563	19514.24
634.757	19553.15
634.951	19540.86
635.145	19319.68
635.339	19116.93
635.533	18965.39
635.726	19024.78
635.92	18604.94
636.114	18680.72
636.308	18570.13
636.501	18627.47
636.695	18494.35
636.889	18568.08
637.083	18273.17
637.276	18254.74
637.47	17996.7
637.664	18185.11
637.857	17908.63
638.051	18011.03
638.244	17638.3
638.438	17709.98
638.632	17568.67
638.825	17482.66
639.019	17453.98
639.212	17118.12
639.406	17224.61
639.599	17036.2
639.793	17204.13
639.986	16704.43
640.18	16866.22
640.373	16688.04
640.567	16520.11
640.76	16845.74
640.954	16337.84
641.147	16309.17
641.34	15958.97
641.534	16155.57
641.727	16049.08
641.92	15946.68
642.114	15795.13
642.307	15901.62
642.5	15903.67
642.694	15324.1
642.887	15387.58
643.08	15473.6
643.273	15389.63
643.467	15461.31
643.66	14908.36
643.853	15094.72
644.046	14914.5
644.239	14699.47
644.432	15076.29
644.626	14865.35
644.819	14855.11
645.012	14752.71
645.205	14728.14
645.398	14582.73
645.591	14271.44
645.784	14509.01
645.977	14173.14
646.17	14267.34
646.363	14007.25
646.556	13888.47
646.749	13935.57
646.942	14097.36
647.135	13734.87
647.328	13755.35
647.521	13646.81
647.714	13487.07
647.907	13407.2
648.099	13366.24
648.292	13421.53
648.485	13274.08
648.678	13057
648.871	13065.19
649.064	13171.68
649.256	13061.09
649.449	12831.72
649.642	12903.4
649.835	12573.67
650.027	12819.43
650.22	12837.86
650.413	12596.2
650.605	12506.09
650.798	12506.09
650.991	12479.47
651.183	12420.08
651.376	12143.6
651.568	12137.46
651.761	12168.18
651.954	11897.85
652.146	12149.75
652.339	12092.4
652.531	11774.97
652.724	11715.58
652.916	11336.7
653.109	11611.13
653.301	11463.68
653.494	11512.83
653.686	11439.1
653.879	11625.47
654.071	11396.09
654.263	11228.16
654.456	11437.05
654.648	11344.89
654.84	11025.41
655.033	11140.1
655.225	10957.83
655.417	11043.84
655.61	11158.53
655.802	10914.82
655.994	10816.52
656.186	10669.06
656.379	10775.56
656.571	10535.95
656.763	10505.23
656.955	10540.04
657.148	10701.83
657.34	10322.96
657.532	10488.84
657.724	10124.3
657.916	10202.13
658.108	10218.51
658.3	10243.09
658.492	10187.79
658.684	10337.29
658.876	9997.33
659.068	9899.03
659.26	9888.79
659.452	9896.98
659.644	9600.02
659.836	9581.59
660.028	9604.12
660.22	9702.42
660.412	9696.28
660.604	9407.52
660.796	9720.85
660.988	9536.54
661.18	9251.87
661.372	9333.79
661.563	9581.59
661.755	9210.91
661.947	9190.43
662.139	8948.77
662.331	8911.91
662.522	8879.14
662.714	9034.78
662.906	8797.22
663.097	8897.57
663.289	8834.08
663.481	8780.84
663.673	8823.84
663.864	8703.01
664.056	8580.14
664.247	8881.19
664.439	8660.01
664.631	8477.74
664.822	8500.26
665.014	8553.51
665.205	8287.28
665.397	8320.04
665.588	8432.68
665.78	8328.24
665.971	8172.59
666.163	8281.13
666.354	8117.29
666.546	8234.03
666.737	7947.31
666.929	8174.64
667.12	8049.71
667.311	7887.92
667.503	7908.4
667.694	8023.09
667.885	7826.48
668.077	7685.17
668.268	7746.61
668.459	7746.61
668.651	7726.13
668.842	7646.26
669.033	7719.99
669.224	7652.41
669.416	7568.44
669.607	7631.93
669.798	7466.04
669.989	7771.19
670.18	7578.68
670.371	7410.75
670.563	7435.32
670.754	7285.82
670.945	7351.35
671.136	7328.83
671.327	7195.71
671.518	7212.09
671.709	7384.12
671.9	7318.59
672.091	7179.33
672.282	7134.27
672.473	7015.49
672.664	6952
672.855	7107.65
673.046	6913.09
673.237	7203.9
673.428	7031.87
673.619	7105.6
673.809	6831.17
674	6952
674.191	6904.9
674.382	6749.25
674.573	6741.06
674.764	6757.44
674.954	6732.87
675.145	6814.79
675.336	6624.33
675.527	6653
675.717	6693.96
675.908	6614.09
676.099	6657.09
676.289	6566.98
676.48	6462.54
676.671	6501.45
676.861	6532.17
677.052	6556.74
677.243	6458.44
677.433	6470.73
677.624	6528.07
677.814	6554.69
678.005	6427.72
678.195	6511.69
678.386	6437.96
678.576	6343.75
678.767	6425.67
678.957	6237.26
679.148	6599.75
679.338	6237.26
679.529	6360.14
679.719	6270.03
679.909	6444.1
680.1	6325.32
680.29	6331.47
680.481	6517.83
680.671	6184.01
680.861	6302.79
681.052	6216.78
681.242	6304.84
681.432	6163.53
681.622	6231.12
681.813	6138.96
682.003	6216.78
682.193	5964.88
682.383	6057.04
682.573	6179.92
682.764	6065.23
682.954	6071.37
683.144	6071.37
683.334	6149.2
683.524	5985.36
683.714	5975.12
683.904	6091.85
684.094	5962.83
684.284	5934.16
684.474	5936.21
684.664	6050.89
684.854	6165.58
685.044	6040.65
685.234	5774.42
685.424	5885.01
685.614	5954.64
685.804	5868.63
685.994	5766.23
686.184	5966.93
686.374	5950.54
686.564	5872.72
686.753	5817.43
686.943	5815.38
687.133	5741.65
687.323	5764.18
687.513	5665.88
687.702	5614.68
687.892	5475.42
688.082	5655.64
688.272	5672.02
688.461	5479.51
688.651	5495.89
688.841	5520.47
689.03	5565.53
689.22	5446.74
689.41	5561.43
689.599	5481.56
689.789	5321.82
689.979	5358.68
690.168	5397.59
690.358	5131.36
690.547	5438.55
690.737	5524.57
690.926	5399.64
691.116	5231.71
691.305	5340.25
691.495	5295.19
691.684	5373.02
691.874	5141.6
692.063	5157.98
692.252	5250.14
692.442	5223.51
692.631	5018.72
692.82	5002.33
693.01	5145.69
693.199	5082.21
693.388	4885.6
693.578	5004.38
693.767	5082.21
693.956	4961.37
694.146	5086.3
694.335	4848.74
694.524	4879.46
694.713	4985.95
694.902	4879.46
695.092	4822.11
695.281	4901.98
695.47	4754.53
695.659	4844.64
695.848	4813.92
696.037	4942.94
696.226	4844.64
696.415	4686.95
696.604	4836.45
696.793	4721.76
696.982	4836.45
697.171	4670.56
697.36	4664.42
697.549	4535.4
697.738	4463.72
697.927	4672.61
698.116	4566.12
698.305	4684.9
698.494	4772.96
698.683	4494.44
698.872	4525.16
699.061	4617.32
699.25	4562.02
699.438	4461.67
699.627	4516.97
699.816	4529.25
700.005	4363.37
700.193	4451.43
700.382	4396.14
700.571	4508.77
700.76	4385.9
700.948	4353.13
701.137	4435.05
701.326	4336.74
701.514	4312.17
701.703	4451.43
701.892	4328.55
702.08	4295.79
702.269	4328.55
702.457	4428.9
702.646	4220.01
702.834	4099.18
703.023	4353.13
703.212	4271.21
703.4	4199.53
703.589	4181.1
703.777	4205.67
703.965	4236.39
704.154	4181.1
704.342	4230.25
704.531	4197.48
704.719	3994.73
704.907	4050.03
705.096	4043.88
705.284	4070.51
705.472	3955.82
705.661	4017.26
705.849	4050.03
706.037	4134
706.226	3976.3
706.414	3959.92
706.602	4004.97
706.79	3984.49
706.979	3937.39
707.167	4043.88
707.355	4050.03
707.543	3996.78
707.731	3902.58
707.919	3847.28
708.107	4002.93
708.296	3769.46
708.484	3767.41
708.672	3904.62
708.86	3996.78
709.048	3964.01
709.236	3763.31
709.424	3884.14
709.612	3865.71
709.8	3816.56
709.988	3763.31
710.176	3789.94
710.364	3839.09
710.551	3779.7
710.739	3765.36
710.927	3742.83
711.115	3726.45
711.303	3662.96
711.491	3673.2
711.679	3634.29
711.866	3546.23
712.054	3546.23
712.242	3705.97
712.43	3611.76
712.617	3677.3
712.805	3574.9
712.993	3619.96
713.181	3527.8
713.368	3673.2
713.556	3626.1
713.744	3460.21
713.931	3626.1
714.119	3513.46
714.306	3574.9
714.494	3566.71
714.682	3542.13
714.869	3417.21
715.057	3531.89
715.244	3443.83
715.432	3501.17
715.619	3488.89
715.807	3466.36
715.994	3374.2
716.182	3396.73
716.369	3370.1
716.556	3501.17
716.744	3271.8
716.931	3454.07
717.119	3296.38
717.306	3370.1
717.493	3363.96
717.681	3323
717.868	3458.17
718.055	3378.3
718.242	3355.77
718.43	3300.47
718.617	3308.66
718.804	3318.9
718.991	3339.38
719.179	3386.49
719.366	3267.7
719.553	3368.06
719.74	3009.66
719.927	3120.25
720.114	3284.09
720.301	3161.21
720.488	3157.11
720.676	3300.47
720.863	3230.84
721.05	3226.75
721.237	3165.31
721.424	3112.06
721.611	3150.97
721.798	3079.29
721.985	3075.2
722.172	3083.39
722.358	3026.04
722.545	3118.2
722.732	2978.94
722.919	3146.87
723.106	2983.04
723.293	2997.37
723.48	3003.52
723.667	2923.65
723.853	2978.94
724.04	3032.19
724.227	3077.24
724.414	3013.76
724.6	2913.41
724.787	2974.85
724.974	3034.24
725.161	2790.53
725.347	2956.41
725.534	2886.78
725.72	2976.89
725.907	2878.59
726.094	3044.48
726.28	2886.78
726.467	2827.39
726.653	2872.45
726.84	2952.32
727.027	2901.12
727.213	2735.23
727.4	2862.21
727.586	2870.4
727.773	2829.44
727.959	2813.06
728.145	2849.92
728.332	2854.02
728.518	2829.44
728.705	2915.45
728.891	2796.67
729.077	2761.86
729.264	2749.57
729.45	2712.71
729.636	2927.74
729.823	2772.1
730.009	2776.19
730.195	2782.34
730.382	2839.68
730.568	2708.61
730.754	2788.48
730.94	2716.8
731.126	2694.27
731.313	2794.62
731.499	2645.12
731.685	2686.08
731.871	2598.02
732.057	2911.36
732.243	2469
732.429	2698.37
732.615	2737.28
732.801	2651.27
732.987	2657.41
733.173	2626.69
733.359	2634.88
733.545	2608.26
733.731	2501.76
733.917	2698.37
734.103	2538.63
734.289	2618.5
734.475	2602.11
734.661	2636.93
734.847	2561.16
735.033	2624.64
735.219	2452.61
735.404	2481.28
735.59	2557.06
735.776	2526.34
735.962	2471.04
736.148	2548.87
736.333	2460.81
736.519	2331.78
736.705	2419.85
736.89	2555.01
737.076	2497.67
737.262	2518.15
737.447	2382.98
737.633	2430.09
737.819	2555.01
738.004	2387.08
738.19	2401.41
738.375	2421.89
738.561	2411.65
738.747	2413.7
738.932	2438.28
739.118	2352.26
739.303	2419.85
739.489	2407.56
739.674	2325.64
739.859	2342.02
740.045	2448.52
740.23	2348.17
740.416	2344.07
740.601	2397.32
740.786	2292.87
740.972	2116.75
741.157	2346.12
741.342	2264.2
741.528	2391.17
741.713	2389.13
741.898	2165.9
742.084	2227.34
742.269	2215.05
742.454	2182.28
742.639	2135.18
742.824	2202.76
743.01	2346.12
743.195	2305.16
743.38	2178.19
743.565	2223.24
743.75	2184.33
743.935	2143.37
744.12	2243.72
744.305	2180.23
744.49	2059.4
744.675	2100.36
744.86	2116.75
745.045	1920.14
745.23	2051.21
745.415	2030.73
745.6	2153.61
745.785	2100.36
745.97	2112.65
746.155	1946.76
746.34	2014.35
746.525	1914
746.71	2026.64
746.895	1920.14
747.079	1969.29
747.264	1932.43
747.449	1952.91
747.634	1903.76
747.819	1907.85
748.003	1799.31
748.188	1821.84
748.373	1836.17
748.557	1848.46
748.742	1834.13
748.927	1901.71
749.111	1780.88
749.296	1717.39
749.481	1797.26
749.665	1791.12
749.85	1744.02
750.034	1725.58
750.219	1735.82
750.404	1690.77
750.588	1709.2
750.773	1752.21
750.957	1735.82
751.141	1725.58
751.326	1690.77
751.51	1627.28
751.695	1694.86
751.879	1594.51
752.064	1715.34
752.248	1670.29
752.432	1698.96
752.617	1576.08
752.801	1631.38
752.985	1621.14
753.17	1496.21
753.354	1563.79
753.538	1674.39
753.722	1531.03
753.907	1518.74
754.091	1445.01
754.275	1461.4
754.459	1465.49
754.643	1496.21
754.828	1406.1
755.012	1475.73
755.196	1412.25
755.38	1346.71
755.564	1406.1
755.748	1447.06
755.932	1463.44
756.116	1354.9
756.3	1416.34
756.484	1359
756.668	1420.44
756.852	1381.53
757.036	1402.01
757.22	1315.99
757.404	1346.71
757.588	1305.75
757.772	1248.41
757.956	1381.53
758.14	1420.44
758.323	1346.71
758.507	1252.5
758.691	1289.37
758.875	1305.75
759.059	1260.7
759.242	1223.83
759.426	1272.98
759.61	1209.5
759.794	1176.73
759.977	1166.49
760.161	1256.6
760.345	1234.07
760.528	1203.35
760.712	1197.21
760.895	1217.69
761.079	1166.49
761.263	1141.91
761.446	1166.49
761.63	1117.34
761.813	1191.06
761.997	1223.83
762.18	1123.48
762.364	1174.68
762.547	1021.08
762.731	1023.13
762.914	1027.23
763.098	1051.8
763.281	1084.57
763.464	1031.32
763.648	1035.42
763.831	1068.19
764.015	1129.63
764.198	1031.32
764.381	1078.43
764.564	1117.34
764.748	1125.53
764.931	1037.47
765.114	986.27
765.297	1045.66
765.481	990.36
765.664	1012.89
765.847	953.5
766.03	1059.99
766.213	947.36
766.397	1047.71
766.58	849.05
766.763	978.08
766.946	924.83
767.129	1021.08
767.312	957.6
767.495	1019.04
767.678	920.73
767.861	1092.76
768.044	953.5
768.227	1010.84
768.41	982.17
768.593	961.69
768.776	873.63
768.959	961.69
769.142	961.69
769.324	961.69
769.507	988.32
769.69	947.36
769.873	1021.08
770.056	939.16
770.239	945.31
770.421	1057.95
770.604	941.21
770.787	937.12
770.97	885.92
771.152	877.73
771.335	910.49
771.518	896.16
771.7	908.44
771.883	857.25
772.066	953.5
772.248	871.58
772.431	951.45
772.613	832.67
772.796	816.29
772.978	896.16
773.161	816.29
773.343	785.57
773.526	793.76
773.708	857.25
773.891	849.05
774.073	752.8
774.256	789.66
774.438	863.39
774.621	826.53
774.803	832.67
774.985	752.8
775.168	867.49
775.35	820.38
775.532	783.52
775.715	777.37
775.897	734.37
776.079	820.38
776.261	806.05
776.444	715.94
776.626	756.9
776.808	740.51
776.99	699.55
777.173	722.08
777.355	701.6
777.537	799.9
777.719	699.55
777.901	724.13
778.083	750.75
778.265	650.4
778.447	638.11
778.629	726.18
778.811	736.42
778.993	756.9
779.175	720.03
779.357	654.5
779.539	607.39
779.721	646.3
779.903	715.94
780.085	609.44
780.267	625.83
780.449	638.11
780.631	644.26
780.812	732.32
780.994	513.19
781.176	605.35
781.358	543.91
781.54	615.59
781.721	568.48
781.903	533.67
782.085	595.11
782.267	625.83
782.448	507.04
782.63	642.21
782.812	609.44
782.993	560.29
783.175	586.91
783.357	548
783.538	494.76
783.72	564.39
783.901	449.7
784.083	570.53
784.264	461.99
784.446	470.18
784.627	464.04
784.809	488.61
784.99	558.24
785.172	519.33
785.353	519.33
785.535	421.03
785.716	455.84
785.897	478.37
786.079	502.95
786.26	500.9
786.441	498.85
786.623	398.5
786.804	478.37
786.985	435.36
787.167	521.38
787.348	445.6
787.529	398.5
787.71	412.84
787.891	472.23
788.073	441.51
788.254	421.03
788.435	412.84
788.616	443.56
788.797	433.32
788.978	423.08
789.159	437.41
789.34	363.69
789.522	396.45
789.703	363.69
789.884	437.41
790.065	429.22
790.246	351.4
790.427	347.3
790.607	347.3
790.788	339.11
790.969	367.78
791.15	382.12
791.331	396.45
791.512	363.69
791.693	335.01
791.874	265.38
792.054	375.97
792.235	365.73
792.416	371.88
792.597	341.16
792.778	306.34
792.958	390.31
793.139	394.4
793.32	322.73
793.5	355.49
793.681	359.59
793.862	388.26
794.042	332.97
794.223	259.24
794.404	371.88
794.584	289.96
794.765	371.88
794.945	324.77
795.126	382.12
795.306	328.87
795.487	267.43
795.667	273.57
795.848	341.16
796.028	242.85
796.209	267.43
796.389	382.12
796.57	257.19
796.75	208.04
796.93	296.1
797.111	294.05
797.291	294.05
797.471	273.57
797.652	265.38
797.832	265.38
798.012	341.16
798.192	154.79
798.373	261.29
798.553	308.39
798.733	302.25
798.913	251.05
799.093	234.66
799.274	277.67
799.454	283.81
799.634	273.57
799.814	298.15
799.994	232.62
800.174	216.23
800.354	298.15
800.534	167.08
800.714	214.18
800.894	257.19
801.074	234.66
801.254	187.56
801.434	208.04
801.614	273.57
801.794	257.19
801.974	808.09
802.154	244.9
802.334	242.85
802.514	191.66
802.693	191.66
802.873	162.98
803.053	226.47
803.233	199.85
803.413	224.42
803.592	218.28
803.772	173.22
803.952	183.46
804.131	191.66
804.311	228.52
804.491	242.85
804.67	193.7
804.85	306.34
805.03	267.43
805.209	240.81
805.389	232.62
805.568	218.28
805.748	183.46
805.928	228.52
806.107	279.72
806.287	210.09
806.466	183.46
806.646	234.66
806.825	119.98
807.004	162.98
807.184	122.02
807.363	203.94
807.543	234.66
807.722	142.5
807.901	181.42
808.081	244.9
808.26	126.12
808.439	175.27
808.619	267.43
808.798	187.56
808.977	240.81
809.156	175.27
809.336	171.18
809.515	197.8
809.694	158.89
809.873	158.89
810.052	152.74
810.231	173.22
810.411	185.51
810.59	240.81
810.769	210.09
810.948	142.5
811.127	144.55
811.306	216.23
811.485	138.41
811.664	234.66
811.843	195.75
812.022	224.42
812.201	185.51
812.38	142.5
812.559	113.83
812.737	169.13
812.916	107.69
813.095	97.45
813.274	109.74
813.453	142.5
813.632	132.26
813.811	142.5
813.989	185.51
814.168	191.66
814.347	52.39
814.526	126.12
814.704	105.64
814.883	216.23
815.062	162.98
815.24	226.47
815.419	132.26
815.598	142.5
815.776	60.59
815.955	119.98
816.133	70.83
816.312	85.16
816.49	119.98
816.669	167.08
816.847	171.18
817.026	101.55
817.204	97.45
817.383	76.97
817.561	81.07
817.74	136.36
817.918	142.5
818.097	27.82
818.275	72.87
818.453	119.98
818.632	160.94
818.81	101.55
818.988	181.42
819.167	62.63
819.345	126.12
819.523	126.12
819.701	93.35
819.879	146.6
820.058	54.44
820.236	97.45
820.414	70.83
820.592	111.78
820.77	113.83
820.948	130.22
821.127	81.07
821.305	68.78
821.483	154.79
821.661	117.93
821.839	138.41
822.017	40.11
822.195	103.59
822.373	134.31
822.551	40.11
822.729	76.97
822.907	76.97
823.085	175.27
823.262	113.83
823.44	95.4
823.618	111.78
823.796	193.7
823.974	70.83
824.152	62.63
824.329	54.44
824.507	72.87
824.685	156.84
824.863	103.59
825.04	142.5
825.218	142.5
825.396	167.08
825.574	36.01
825.751	68.78
825.929	101.55
826.107	68.78
826.284	111.78
826.462	177.32
826.639	5.29
826.817	-7
826.994	85.16
827.172	79.02
827.349	105.64
827.527	60.59
827.704	81.07
827.882	109.74
828.059	97.45
828.237	66.73
828.414	76.97
828.591	-37.72
828.769	72.87
828.946	60.59
829.124	93.35
829.301	64.68
829.478	117.93
829.655	103.59
829.833	128.17
830.01	52.39
830.187	70.83
830.364	79.02
830.542	62.63
830.719	175.27
830.896	44.2
831.073	117.93
831.25	95.4
831.427	136.36
831.604	21.67
831.782	64.68
831.959	140.46
832.136	46.25
832.313	60.59
832.49	-25.43
832.667	117.93
832.844	68.78
833.021	97.45
833.198	46.25
833.374	52.39
833.551	60.59
833.728	27.82
833.905	95.4
834.082	56.49
834.259	97.45
834.436	60.59
834.612	76.97
834.789	44.2
834.966	66.73
835.143	99.5
835.319	23.72
835.496	134.31
835.673	3.24
835.85	103.59
836.026	95.4
836.203	60.59
836.38	-50
836.556	31.91
836.733	122.02
836.909	52.39
837.086	46.25
837.262	-33.62
837.439	19.63
837.616	31.91
837.792	54.44
837.968	52.39
838.145	17.58
838.321	68.78
838.498	46.25
838.674	113.83
838.851	87.21
839.027	-7
839.203	101.55
839.38	122.02
839.556	85.16
839.732	21.67
839.909	50.35
840.085	85.16
840.261	62.63
840.437	87.21
840.614	79.02
840.79	52.39
840.966	105.64
841.142	36.01
841.318	19.63
841.494	85.16
841.671	17.58
841.847	111.78
842.023	56.49
842.199	-2.9
842.375	60.59
842.551	36.01
842.727	21.67
842.903	40.11
843.079	19.63
843.255	36.01
843.431	62.63
843.607	85.16
843.783	-62.29
843.959	72.87
844.134	-4.95
844.31	17.58
844.486	19.63
844.662	-23.38
844.838	21.67
845.013	81.07
845.189	38.06
845.365	44.2
845.541	-15.19
845.716	76.97
845.892	13.48
846.068	56.49
846.244	-29.52
846.419	13.48
846.595	-21.33
846.77	-2.9
846.946	89.26
847.122	-4.95
847.297	15.53
847.473	38.06
847.648	15.53
847.824	36.01
847.999	40.11
848.175	7.34
848.35	33.96
848.526	38.06
848.701	40.11
848.876	42.15
849.052	50.35
849.227	38.06
849.403	11.43
849.578	64.68
849.753	7.34
849.929	48.3
850.104	-4.95
850.279	52.39
850.454	11.43
850.63	93.35
850.805	-29.52
850.98	52.39
851.155	27.82
851.33	29.87
851.505	-95.06
851.681	95.4
851.856	52.39
852.031	-29.52
852.206	19.63
852.381	62.63
852.556	-25.43
852.731	21.67
852.906	62.63
853.081	-2.9
853.256	15.53
853.431	19.63
853.606	21.67
853.781	76.97
853.956	-21.33
854.131	13.48
854.305	95.4
854.48	7.34
854.655	27.82
854.83	-88.92
855.005	9.39
855.18	-9.05
855.354	33.96
855.529	21.67
855.704	-45.91
855.879	79.02
856.053	23.72
856.228	19.63
856.403	19.63
856.577	-4.95
856.752	42.15
856.926	115.88
857.101	36.01
857.276	-19.29
857.45	-21.33
857.625	36.01
857.799	21.67
857.974	58.54
858.148	-72.53
858.323	11.43
858.497	-43.86
858.672	31.91
858.846	-39.76
859.02	85.16
859.195	-45.91
859.369	-19.29
859.543	-9.05
859.718	-13.14
859.892	-13.14
860.066	19.63
860.241	3.24
860.415	-11.09
860.589	5.29
860.763	-2.9
860.938	21.67
861.112	21.67
861.286	-2.9
861.46	62.63
861.634	-15.19
861.808	83.11
861.982	3.24
862.157	38.06
862.331	3.24
862.505	27.82
862.679	-43.86
862.853	-21.33
863.027	-19.29
863.201	36.01
863.375	-35.67
863.549	36.01
863.722	81.07
863.896	-43.86
864.07	19.63
864.244	7.34
864.418	36.01
864.592	3.24
864.766	21.67
864.939	-13.14
865.113	-74.58
865.287	-33.62
865.461	-11.09
865.634	64.68
865.808	-21.33
865.982	31.91
866.156	11.43
866.329	-37.72
866.503	-41.81
866.676	48.3
866.85	-15.19
867.024	-74.58
867.197	9.39
867.371	76.97
867.544	-33.62
867.718	21.67
867.891	27.82
868.065	-56.15
868.238	-43.86
868.412	21.67
868.585	-25.43
868.759	-99.16
868.932	70.83
869.105	-13.14
869.279	-4.95
869.452	7.34
869.625	46.25
869.799	40.11
869.972	-33.62
870.145	-7
870.319	11.43
870.492	-19.29
870.665	-31.57
870.838	-37.72
871.011	-62.29
871.185	-70.48
871.358	3.24
871.531	21.67
871.704	-43.86
871.877	11.43
872.05	-60.24
872.223	-70.48
872.396	-37.72
872.569	72.87
872.742	-68.44
872.915	87.21
873.088	-21.33
873.261	19.63
873.434	3.24
873.607	5.29
873.78	85.16
873.953	-27.48
874.126	23.72
874.299	5.29
874.471	-21.33
874.644	-72.53
874.817	72.87
874.99	21.67
875.163	13.48
875.335	-29.52
875.508	23.72
875.681	-54.1
875.853	-60.24
876.026	-21.33
876.199	52.39
876.371	54.44
876.544	-41.81
876.717	44.2
876.889	21.67
877.062	54.44
877.234	-47.96
877.407	-0.85
877.579	19.63
877.752	36.01
877.924	25.77
878.097	-4.95
878.269	-13.14
878.442	29.87
878.614	27.82
878.786	40.11
878.959	-27.48
879.131	-27.48
879.303	-58.2
879.476	-4.95
879.648	15.53
879.82	-0.85
879.993	-4.95
880.165	5.29
880.337	3.24
880.509	-82.77
880.681	-66.39
880.854	7.34
881.026	-21.33
881.198	17.58
881.37	-93.01
881.542	-90.96
881.714	1.19
881.886	-9.05
882.058	5.29
882.23	-25.43
882.402	-39.76
882.574	-29.52
882.746	54.44
882.918	38.06
883.09	-45.91
883.262	-62.29
883.434	-33.62
883.606	-54.1
883.778	-29.52
883.95	-45.91
884.122	-21.33
884.293	27.82
884.465	36.01
884.637	-17.24
884.809	-2.9
884.98	-11.09
885.152	-60.24
885.324	21.67
885.496	-78.68
885.667	36.01
885.839	27.82
886.011	7.34
886.182	-29.52
886.354	7.34
886.525	-37.72
886.697	-43.86
886.869	85.16
887.04	48.3
887.212	52.39
887.383	52.39
887.555	19.63
887.726	-17.24
887.897	-4.95
888.069	3.24
888.24	-29.52
888.412	-37.72
888.583	-11.09
888.754	-80.72
888.926	-82.77
889.097	-17.24
889.268	-15.19
889.44	-19.29
889.611	-45.91
889.782	-13.14
889.953	-115.54
890.125	27.82
890.296	40.11
890.467	15.53
890.638	-45.91
890.809	-29.52
890.98	-37.72
891.151	38.06
891.323	46.25
891.494	-37.72
891.665	-58.2
891.836	-37.72
892.007	33.96
892.178	-17.24
892.349	54.44
892.52	-25.43
892.691	27.82
892.862	-13.14
893.032	-78.68
893.203	-41.81
893.374	-72.53
893.545	23.72
893.716	38.06
893.887	-50
894.057	13.48
894.228	-2.9
894.399	-64.34
894.57	-35.67
894.74	-23.38
894.911	-0.85
895.082	-54.1
895.253	3.24
895.423	42.15
895.594	23.72
895.764	13.48
895.935	-39.76
896.106	11.43
896.276	3.24
896.447	27.82
896.617	-35.67
896.788	-17.24
896.958	-86.87
897.129	-4.95
897.299	-13.14
897.47	52.39
897.64	-19.29
897.81	-52.05
897.981	13.48
898.151	-50
898.322	-13.14
898.492	40.11
898.662	-72.53
898.832	3.24
899.003	-19.29
899.173	-45.91
899.343	36.01
899.513	25.77
