Data from USB4F104151__43__14-29-49-860.txt Node

Date: Thu Mar 13 14:29:49 EDT 2025
User: louis
Spectrometer: USB4F10415
Trigger mode: 4
Integration Time (sec): 2.500000E-2
Scans to average: 1
Electric dark correction enabled: true
Nonlinearity correction enabled: false
Boxcar width: 0
XAxis mode: Wavelengths
Number of Pixels in Spectrum: 3648
>>>>>Begin Spectral Data<<<<<
178.204	-140.12
178.424	-140.12
178.644	-140.12
178.864	-179.03
179.084	-152.4
179.304	31.91
179.524	58.54
179.744	-23.38
179.964	15.53
180.184	-93.01
180.404	15.53
180.624	7.34
180.844	-17.24
181.064	17.58
181.283	-33.62
181.503	-7
181.723	27.82
181.943	17.58
182.163	23.72
182.383	-7
182.602	48.3
182.822	150.7
183.042	42.15
183.262	60.59
183.482	56.49
183.701	-0.85
183.921	52.39
184.141	5.29
184.361	36.01
184.58	-0.85
184.8	48.3
185.02	54.44
185.239	64.68
185.459	33.96
185.679	52.39
185.898	15.53
186.118	105.64
186.338	-17.24
186.557	97.45
186.777	-9.05
186.997	9.39
187.216	-15.19
187.436	122.02
187.655	42.15
187.875	-17.24
188.095	25.77
188.314	52.39
188.534	138.41
188.753	56.49
188.973	126.12
189.192	91.31
189.412	-35.67
189.631	81.07
189.851	36.01
190.07	81.07
190.29	25.77
190.509	-19.29
190.729	40.11
190.948	-2.9
191.168	203.94
191.387	117.93
191.607	-21.33
191.826	58.54
192.045	44.2
192.265	7.34
192.484	-0.85
192.704	9.39
192.923	52.39
193.142	126.12
193.362	70.83
193.581	89.26
193.8	48.3
194.02	56.49
194.239	13.48
194.458	97.45
194.678	-7
194.897	9.39
195.116	-15.19
195.335	38.06
195.555	56.49
195.774	-41.81
195.993	15.53
196.212	27.82
196.432	-29.52
196.651	38.06
196.87	115.88
197.089	109.74
197.308	31.91
197.528	64.68
197.747	15.53
197.966	76.97
198.185	97.45
198.404	31.91
198.623	74.92
198.842	89.26
199.062	79.02
199.281	23.72
199.5	40.11
199.719	81.07
199.938	64.68
200.157	107.69
200.376	1.19
200.595	52.39
200.814	-27.48
201.033	33.96
201.252	-17.24
201.471	42.15
201.69	70.83
201.909	19.63
202.128	66.73
202.347	74.92
202.566	31.91
202.785	-0.85
203.004	15.53
203.223	60.59
203.442	19.63
203.661	33.96
203.879	42.15
204.098	58.54
204.317	21.67
204.536	15.53
204.755	40.11
204.974	105.64
205.193	46.25
205.411	138.41
205.63	17.58
205.849	7.34
206.068	-4.95
206.287	31.91
206.505	33.96
206.724	152.74
206.943	-11.09
207.162	56.49
207.381	-7
207.599	68.78
207.818	64.68
208.037	48.3
208.255	46.25
208.474	38.06
208.693	36.01
208.911	52.39
209.13	-15.19
209.349	42.15
209.567	124.07
209.786	79.02
210.005	38.06
210.223	68.78
210.442	-9.05
210.661	-45.91
210.879	-2.9
211.098	56.49
211.316	38.06
211.535	60.59
211.753	72.87
211.972	66.73
212.191	31.91
212.409	-0.85
212.628	81.07
212.846	17.58
213.065	81.07
213.283	117.93
213.502	3.24
213.72	25.77
213.938	25.77
214.157	25.77
214.375	70.83
214.594	-9.05
214.812	66.73
215.031	-17.24
215.249	23.72
215.467	74.92
215.686	99.5
215.904	11.43
216.122	15.53
216.341	44.2
216.559	44.2
216.778	56.49
216.996	56.49
217.214	64.68
217.432	-41.81
217.651	5.29
217.869	52.39
218.087	46.25
218.306	-19.29
218.524	142.5
218.742	89.26
218.96	85.16
219.179	25.77
219.397	33.96
219.615	85.16
219.833	44.2
220.051	48.3
220.27	54.44
220.488	48.3
220.706	64.68
220.924	58.54
221.142	58.54
221.36	44.2
221.578	29.87
221.796	42.15
222.015	33.96
222.233	64.68
222.451	134.31
222.669	60.59
222.887	64.68
223.105	25.77
223.323	68.78
223.541	21.67
223.759	56.49
223.977	70.83
224.195	36.01
224.413	19.63
224.631	81.07
224.849	42.15
225.067	68.78
225.285	48.3
225.503	36.01
225.721	15.53
225.939	31.91
226.157	44.2
226.375	130.22
226.592	15.53
226.81	23.72
227.028	56.49
227.246	119.98
227.464	79.02
227.682	29.87
227.9	83.11
228.117	-7
228.335	64.68
228.553	23.72
228.771	56.49
228.989	60.59
229.206	89.26
229.424	87.21
229.642	-31.57
229.86	60.59
230.077	48.3
230.295	70.83
230.513	89.26
230.731	60.59
230.948	33.96
231.166	64.68
231.384	40.11
231.601	3.24
231.819	165.03
232.037	52.39
232.254	7.34
232.472	29.87
232.689	23.72
232.907	140.46
233.125	42.15
233.342	89.26
233.56	38.06
233.777	64.68
233.995	68.78
234.213	64.68
234.43	17.58
234.648	3.24
234.865	44.2
235.083	3.24
235.3	21.67
235.518	130.22
235.735	87.21
235.953	115.88
236.17	-15.19
236.388	36.01
236.605	33.96
236.822	113.83
237.04	5.29
237.257	40.11
237.475	40.11
237.692	40.11
237.909	89.26
238.127	-4.95
238.344	64.68
238.562	48.3
238.779	-13.14
238.996	23.72
239.214	-2.9
239.431	68.78
239.648	23.72
239.865	1.19
240.083	31.91
240.3	5.29
240.517	9.39
240.735	27.82
240.952	93.35
241.169	83.11
241.386	31.91
241.603	66.73
241.821	36.01
242.038	76.97
242.255	42.15
242.472	91.31
242.689	76.97
242.907	44.2
243.124	40.11
243.341	52.39
243.558	27.82
243.775	-23.38
243.992	-4.95
244.209	25.77
244.426	142.5
244.643	81.07
244.86	-45.91
245.078	64.68
245.295	58.54
245.512	25.77
245.729	54.44
245.946	107.69
246.163	81.07
246.38	25.77
246.597	23.72
246.814	40.11
247.031	31.91
247.248	25.77
247.464	38.06
247.681	9.39
247.898	9.39
248.115	87.21
248.332	23.72
248.549	113.83
248.766	107.69
248.983	50.35
249.2	25.77
249.417	87.21
249.633	-41.81
249.85	128.17
250.067	-7
250.284	87.21
250.501	74.92
250.717	64.68
250.934	-58.2
251.151	105.64
251.368	54.44
251.585	68.78
251.801	111.78
252.018	7.34
252.235	40.11
252.451	9.39
252.668	50.35
252.885	25.77
253.102	93.35
253.318	23.72
253.535	38.06
253.752	68.78
253.968	-0.85
254.185	48.3
254.401	-15.19
254.618	17.58
254.835	42.15
255.051	81.07
255.268	40.11
255.484	56.49
255.701	101.55
255.917	27.82
256.134	-7
256.351	23.72
256.567	-37.72
256.784	56.49
257	-35.67
257.217	58.54
257.433	115.88
257.65	64.68
257.866	79.02
258.082	54.44
258.299	113.83
258.515	50.35
258.732	74.92
258.948	40.11
259.165	99.5
259.381	25.77
259.597	56.49
259.814	58.54
260.03	7.34
260.246	74.92
260.463	50.35
260.679	56.49
260.895	25.77
261.112	48.3
261.328	-27.48
261.544	56.49
261.761	95.4
261.977	-17.24
262.193	29.87
262.409	50.35
262.626	40.11
262.842	21.67
263.058	-58.2
263.274	-7
263.49	19.63
263.707	33.96
263.923	-15.19
264.139	40.11
264.355	-7
264.571	103.59
264.787	72.87
265.004	58.54
265.22	101.55
265.436	25.77
265.652	9.39
265.868	56.49
266.084	31.91
266.3	7.34
266.516	42.15
266.732	66.73
266.948	83.11
267.164	48.3
267.38	97.45
267.596	50.35
267.812	85.16
268.028	5.29
268.244	-35.67
268.46	74.92
268.676	31.91
268.892	72.87
269.108	-7
269.324	-33.62
269.54	23.72
269.756	-4.95
269.972	-4.95
270.188	68.78
270.403	-54.1
270.619	60.59
270.835	72.87
271.051	-9.05
271.267	9.39
271.483	25.77
271.698	81.07
271.914	-0.85
272.13	44.2
272.346	17.58
272.562	-4.95
272.777	83.11
272.993	56.49
273.209	9.39
273.425	33.96
273.64	-17.24
273.856	50.35
274.072	42.15
274.287	-19.29
274.503	25.77
274.719	29.87
274.934	122.02
275.15	58.54
275.366	21.67
275.581	40.11
275.797	40.11
276.012	7.34
276.228	48.3
276.444	68.78
276.659	-39.76
276.875	33.96
277.09	23.72
277.306	-7
277.521	42.15
277.737	29.87
277.952	5.29
278.168	44.2
278.383	40.11
278.599	15.53
278.814	54.44
279.03	74.92
279.245	113.83
279.461	15.53
279.676	74.92
279.892	40.11
280.107	-9.05
280.322	-15.19
280.538	19.63
280.753	-25.43
280.969	17.58
281.184	46.25
281.399	81.07
281.615	48.3
281.83	7.34
282.045	42.15
282.26	52.39
282.476	29.87
282.691	89.26
282.906	31.91
283.122	15.53
283.337	13.48
283.552	58.54
283.767	56.49
283.983	107.69
284.198	70.83
284.413	64.68
284.628	17.58
284.843	-7
285.058	33.96
285.274	91.31
285.489	-41.81
285.704	-9.05
285.919	44.2
286.134	-60.24
286.349	19.63
286.564	15.53
286.779	19.63
286.995	50.35
287.21	-23.38
287.425	89.26
287.64	50.35
287.855	136.36
288.07	15.53
288.285	115.88
288.5	38.06
288.715	138.41
288.93	48.3
289.145	23.72
289.36	56.49
289.575	-0.85
289.79	64.68
290.004	-33.62
290.219	76.97
290.434	76.97
290.649	91.31
290.864	54.44
291.079	44.2
291.294	7.34
291.509	113.83
291.724	101.55
291.938	-0.85
292.153	40.11
292.368	15.53
292.583	15.53
292.798	107.69
293.012	23.72
293.227	27.82
293.442	115.88
293.657	124.07
293.871	64.68
294.086	31.91
294.301	60.59
294.516	23.72
294.73	60.59
294.945	70.83
295.16	11.43
295.374	66.73
295.589	107.69
295.804	58.54
296.018	42.15
296.233	64.68
296.447	113.83
296.662	70.83
296.877	107.69
297.091	17.58
297.306	52.39
297.52	76.97
297.735	-31.57
297.949	40.11
298.164	48.3
298.378	42.15
298.593	50.35
298.807	7.34
299.022	56.49
299.236	93.35
299.451	31.91
299.665	72.87
299.88	-0.85
300.094	85.16
300.309	48.3
300.523	56.49
300.737	11.43
300.952	-13.14
301.166	11.43
301.381	15.53
301.595	33.96
301.809	27.82
302.024	79.02
302.238	64.68
302.452	66.73
302.667	21.67
302.881	25.77
303.095	40.11
303.309	105.64
303.524	9.39
303.738	72.87
303.952	3.24
304.166	11.43
304.381	7.34
304.595	64.68
304.809	1.19
305.023	64.68
305.237	56.49
305.452	-9.05
305.666	46.25
305.88	40.11
306.094	119.98
306.308	50.35
306.522	52.39
306.736	58.54
306.95	105.64
307.164	-19.29
307.379	46.25
307.593	99.5
307.807	142.5
308.021	107.69
308.235	48.3
308.449	25.77
308.663	27.82
308.877	-17.24
309.091	31.91
309.305	74.92
309.519	40.11
309.733	64.68
309.947	31.91
310.161	58.54
310.374	15.53
310.588	15.53
310.802	33.96
311.016	7.34
311.23	36.01
311.444	56.49
311.658	64.68
311.872	40.11
312.085	87.21
312.299	9.39
312.513	154.79
312.727	50.35
312.941	87.21
313.154	89.26
313.368	48.3
313.582	50.35
313.796	50.35
314.009	-21.33
314.223	60.59
314.437	60.59
314.651	58.54
314.864	31.91
315.078	-7
315.292	-7
315.505	58.54
315.719	91.31
315.933	81.07
316.146	-7
316.36	27.82
316.573	124.07
316.787	42.15
317.001	48.3
317.214	25.77
317.428	66.73
317.641	19.63
317.855	-13.14
318.068	58.54
318.282	40.11
318.495	130.22
318.709	81.07
318.922	15.53
319.136	122.02
319.349	89.26
319.563	-17.24
319.776	109.74
319.99	5.29
320.203	113.83
320.417	58.54
320.63	87.21
320.843	107.69
321.057	50.35
321.27	99.5
321.483	52.39
321.697	62.63
321.91	56.49
322.124	54.44
322.337	-54.1
322.55	72.87
322.763	17.58
322.977	52.39
323.19	-19.29
323.403	52.39
323.617	15.53
323.83	99.5
324.043	101.55
324.256	50.35
324.469	-58.2
324.683	136.36
324.896	-0.85
325.109	-4.95
325.322	15.53
325.535	-0.85
325.748	7.34
325.962	15.53
326.175	50.35
326.388	31.91
326.601	13.48
326.814	93.35
327.027	19.63
327.24	146.6
327.453	-29.52
327.666	76.97
327.879	9.39
328.092	31.91
328.305	58.54
328.518	66.73
328.731	15.53
328.944	117.93
329.157	3.24
329.37	56.49
329.583	68.78
329.796	113.83
330.009	-33.62
330.222	130.22
330.435	40.11
330.648	-23.38
330.861	19.63
331.073	50.35
331.286	101.55
331.499	91.31
331.712	17.58
331.925	81.07
332.138	9.39
332.35	138.41
332.563	91.31
332.776	138.41
332.989	23.72
333.202	36.01
333.414	70.83
333.627	89.26
333.84	62.63
334.053	-17.24
334.265	25.77
334.478	-0.85
334.691	40.11
334.903	15.53
335.116	-70.48
335.329	74.92
335.541	31.91
335.754	109.74
335.966	33.96
336.179	89.26
336.392	48.3
336.604	42.15
336.817	72.87
337.029	83.11
337.242	40.11
337.454	44.2
337.667	29.87
337.88	74.92
338.092	33.96
338.305	-17.24
338.517	36.01
338.729	48.3
338.942	58.54
339.154	40.11
339.367	-35.67
339.579	138.41
339.792	15.53
340.004	31.91
340.217	138.41
340.429	93.35
340.641	-47.96
340.854	64.68
341.066	44.2
341.278	52.39
341.491	105.64
341.703	60.59
341.915	93.35
342.128	66.73
342.34	76.97
342.552	11.43
342.764	-27.48
342.977	38.06
343.189	64.68
343.401	74.92
343.613	52.39
343.826	91.31
344.038	42.15
344.25	15.53
344.462	122.02
344.674	64.68
344.886	17.58
345.099	50.35
345.311	66.73
345.523	56.49
345.735	-9.05
345.947	89.26
346.159	25.77
346.371	66.73
346.583	-39.76
346.795	105.64
347.007	111.78
347.219	44.2
347.431	19.63
347.643	119.98
347.855	-19.29
348.067	68.78
348.279	56.49
348.491	-25.43
348.703	83.11
348.915	52.39
349.127	1.19
349.339	99.5
349.551	70.83
349.763	93.35
349.975	31.91
350.187	68.78
350.399	115.88
350.61	83.11
350.822	40.11
351.034	33.96
351.246	40.11
351.458	105.64
351.669	1.19
351.881	134.31
352.093	38.06
352.305	107.69
352.517	15.53
352.728	85.16
352.94	81.07
353.152	83.11
353.363	58.54
353.575	60.59
353.787	89.26
353.999	113.83
354.21	56.49
354.422	68.78
354.633	-21.33
354.845	-31.57
355.057	31.91
355.268	91.31
355.48	124.07
355.692	15.53
355.903	101.55
356.115	64.68
356.326	-4.95
356.538	66.73
356.749	-25.43
356.961	48.3
357.172	93.35
357.384	13.48
357.595	152.74
357.807	119.98
358.018	95.4
358.23	81.07
358.441	23.72
358.653	15.53
358.864	-4.95
359.075	19.63
359.287	52.39
359.498	107.69
359.709	68.78
359.921	72.87
360.132	105.64
360.344	60.59
360.555	25.77
360.766	58.54
360.977	36.01
361.189	62.63
361.4	23.72
361.611	74.92
361.823	66.73
362.034	91.31
362.245	23.72
362.456	68.78
362.667	64.68
362.879	36.01
363.09	74.92
363.301	36.01
363.512	42.15
363.723	74.92
363.935	81.07
364.146	138.41
364.357	56.49
364.568	91.31
364.779	113.83
364.99	99.5
365.201	72.87
365.412	101.55
365.623	-37.72
365.834	17.58
366.045	7.34
366.256	3.24
366.467	134.31
366.678	15.53
366.889	-0.85
367.1	7.34
367.311	99.5
367.522	36.01
367.733	101.55
367.944	93.35
368.155	72.87
368.366	68.78
368.577	138.41
368.788	173.22
368.999	25.77
369.209	9.39
369.42	117.93
369.631	81.07
369.842	56.49
370.053	-4.95
370.264	105.64
370.474	23.72
370.685	85.16
370.896	52.39
371.107	146.6
371.317	31.91
371.528	50.35
371.739	64.68
371.95	109.74
372.16	72.87
372.371	-52.05
372.582	36.01
372.792	85.16
373.003	105.64
373.214	95.4
373.424	38.06
373.635	83.11
373.846	85.16
374.056	3.24
374.267	74.92
374.477	-25.43
374.688	72.87
374.898	40.11
375.109	-11.09
375.319	97.45
375.53	79.02
375.74	56.49
375.951	48.3
376.161	83.11
376.372	142.5
376.582	74.92
376.793	50.35
377.003	81.07
377.214	25.77
377.424	44.2
377.635	42.15
377.845	7.34
378.055	89.26
378.266	60.59
378.476	52.39
378.686	64.68
378.897	68.78
379.107	-0.85
379.317	7.34
379.528	89.26
379.738	148.65
379.948	23.72
380.158	81.07
380.369	11.43
380.579	50.35
380.789	64.68
380.999	146.6
381.21	42.15
381.42	169.13
381.63	11.43
381.84	87.21
382.05	87.21
382.261	107.69
382.471	62.63
382.681	97.45
382.891	81.07
383.101	-0.85
383.311	58.54
383.521	97.45
383.731	95.4
383.941	113.83
384.151	9.39
384.361	48.3
384.571	74.92
384.781	101.55
384.991	68.78
385.201	179.37
385.411	109.74
385.621	156.84
385.831	58.54
386.041	31.91
386.251	29.87
386.461	58.54
386.671	42.15
386.881	17.58
387.091	38.06
387.301	109.74
387.511	89.26
387.72	72.87
387.93	89.26
388.14	-9.05
388.35	113.83
388.56	109.74
388.769	27.82
388.979	15.53
389.189	33.96
389.399	87.21
389.609	64.68
389.818	74.92
390.028	58.54
390.238	128.17
390.447	48.3
390.657	99.5
390.867	25.77
391.076	-31.57
391.286	138.41
391.496	50.35
391.705	36.01
391.915	40.11
392.125	52.39
392.334	107.69
392.544	56.49
392.753	56.49
392.963	72.87
393.172	113.83
393.382	89.26
393.591	52.39
393.801	64.68
394.01	132.26
394.22	85.16
394.429	105.64
394.639	109.74
394.848	134.31
395.058	124.07
395.267	33.96
395.477	124.07
395.686	93.35
395.895	167.08
396.105	162.98
396.314	48.3
396.524	-17.24
396.733	7.34
396.942	117.93
397.152	50.35
397.361	72.87
397.57	93.35
397.78	130.22
397.989	130.22
398.198	134.31
398.407	85.16
398.617	146.6
398.826	124.07
399.035	124.07
399.244	156.84
399.453	146.6
399.663	138.41
399.872	146.6
400.081	58.54
400.29	128.17
400.499	142.5
400.708	140.46
400.917	74.92
401.127	72.87
401.336	23.72
401.545	177.32
401.754	165.03
401.963	179.37
402.172	9.39
402.381	70.83
402.59	105.64
402.799	191.66
403.008	203.94
403.217	171.18
403.426	142.5
403.635	103.59
403.844	128.17
404.053	156.84
404.262	107.69
404.471	253.09
404.68	171.18
404.888	175.27
405.097	126.12
405.306	122.02
405.515	109.74
405.724	171.18
405.933	187.56
406.142	101.55
406.35	228.52
406.559	216.23
406.768	212.14
406.977	257.19
407.185	249
407.394	279.72
407.603	253.09
407.812	259.24
408.02	191.66
408.229	165.03
408.438	146.6
408.646	244.9
408.855	318.63
409.064	220.33
409.272	205.99
409.481	244.9
409.69	310.44
409.898	310.44
410.107	318.63
410.315	310.44
410.524	314.53
410.733	320.68
410.941	388.26
411.15	353.45
411.358	392.36
411.567	498.85
411.775	433.32
411.984	490.66
412.192	484.52
412.401	425.12
412.609	474.28
412.818	607.39
413.026	560.29
413.234	435.36
413.443	572.58
413.651	605.35
413.86	537.76
414.068	728.22
414.276	670.88
414.485	613.54
414.693	728.22
414.901	631.97
415.11	785.57
415.318	746.66
415.526	744.61
415.734	797.85
415.943	773.28
416.151	853.15
416.359	953.5
416.567	922.78
416.776	939.16
416.984	941.21
417.192	992.41
417.4	1006.75
417.608	1086.62
417.817	1043.61
418.025	1117.34
418.233	1244.31
418.441	1166.49
418.649	1205.4
418.857	1463.44
419.065	1350.81
419.273	1350.81
419.481	1342.61
419.689	1481.88
419.897	1533.08
420.105	1623.19
420.313	1596.56
420.521	1701.01
420.729	1703.06
420.937	1832.08
421.145	1770.64
421.353	2032.78
421.561	2000.01
421.769	2116.75
421.977	2104.46
422.185	2090.12
422.393	2378.89
422.601	2350.21
422.809	2335.88
423.017	2442.37
423.224	2489.48
423.432	2614.4
423.64	2624.64
423.848	2808.96
424.056	2735.23
424.263	2942.08
424.471	2958.46
424.679	3013.76
424.887	3159.16
425.094	3136.63
425.302	3245.18
425.51	3431.54
425.718	3609.72
425.925	3490.93
426.133	3662.96
426.341	3947.63
426.548	3964.01
426.756	3984.49
426.964	4105.32
427.171	4285.55
427.379	4351.08
427.586	4480.1
427.794	4615.27
428.001	4852.83
428.209	5035.1
428.417	4832.35
428.624	5377.11
428.832	5268.57
429.039	5217.37
429.247	5381.21
429.454	5813.33
429.662	6014.03
429.869	5669.97
430.076	6128.72
430.284	5909.58
430.491	6302.79
430.699	6562.89
430.906	6593.61
431.114	6530.12
431.321	6933.57
431.528	7167.04
431.736	7595.06
431.943	7674.93
432.15	7732.28
432.358	7717.94
432.565	7937.07
432.772	7904.31
432.979	8242.22
433.187	8621.1
433.394	8647.72
433.601	9110.56
433.808	9169.95
434.016	9223.2
434.223	9606.17
434.43	10124.3
434.637	9980.95
434.844	10552.33
435.052	10798.09
435.259	10544.14
435.466	10808.33
435.673	10779.65
435.88	11369.47
436.087	11691
436.294	11926.52
436.501	11496.44
436.708	11961.33
436.915	12272.62
437.122	12786.66
437.329	12839.91
437.537	12983.27
437.743	13364.19
437.95	13200.35
438.157	13845.46
438.364	14287.82
438.571	14359.5
438.778	14470.09
438.985	15682.49
439.192	15201.22
439.399	15782.84
439.606	15043.53
439.813	15975.35
440.02	16987.05
440.227	16833.45
440.433	16454.58
440.64	17048.49
440.847	16866.22
441.054	17705.88
441.261	18547.6
441.467	18367.38
441.674	18781.07
441.881	19254.15
442.088	19262.34
442.294	18834.32
442.501	19481.47
442.708	19987.32
442.914	21029.74
443.121	21431.14
443.328	21173.1
443.534	22522.71
443.741	21902.17
443.948	21627.74
444.154	23542.6
444.361	23020.36
444.568	23171.91
444.774	23167.82
444.981	23618.37
445.187	24081.21
445.394	25049.9
445.6	24961.84
445.807	27394.82
446.013	26047.26
446.22	26446.62
446.426	27611.91
446.633	27579.14
446.839	28756.72
447.046	27317
447.252	29258.48
447.459	28977.9
447.665	28771.06
447.871	30282.46
448.078	31630.02
448.284	30237.41
448.491	30761.69
448.697	32275.13
448.903	32813.75
449.11	32481.98
449.316	31673.03
449.522	32715.45
449.728	33684.14
449.935	33802.92
450.141	33852.07
450.347	34378.4
450.553	33284.78
450.76	33706.66
450.966	34929.3
451.172	34656.92
451.378	35277.46
451.584	34572.96
451.791	35388.05
451.997	35363.47
452.203	36065.92
452.409	36059.78
452.615	35633.8
452.821	34091.68
453.027	33854.12
453.233	35527.31
453.44	34433.69
453.646	34833.05
453.852	34796.18
454.058	35113.62
454.264	34212.51
454.47	35048.08
454.676	34237.09
454.882	35136.15
455.088	32420.54
455.294	32596.67
455.5	33227.44
455.705	33303.21
455.911	32266.94
456.117	31429.32
456.323	31202
456.529	29455.08
456.735	30638.81
456.941	30259.93
457.147	29389.55
457.352	28390.14
457.558	28236.54
457.764	28484.34
457.97	27726.6
458.176	27011.85
458.381	26702.61
458.587	25848.61
458.793	25713.44
458.999	24054.59
459.204	25963.29
459.41	25281.32
459.616	23569.22
459.821	23536.45
460.027	23677.76
460.233	22985.55
460.438	21994.33
460.644	22115.16
460.85	21191.53
461.055	20609.9
461.261	20845.42
461.466	19112.84
461.672	18353.04
461.878	19905.4
462.083	18461.58
462.289	18172.82
462.494	17781.66
462.7	17267.62
462.905	16645.04
463.111	17320.87
463.316	17298.34
463.522	16708.52
463.727	17062.82
463.932	16778.15
464.138	16786.35
464.343	16665.52
464.549	16128.95
464.754	17093.54
464.959	16858.03
465.165	16784.3
465.37	15801.27
465.575	15492.03
465.781	16071.61
465.986	16178.1
466.191	15588.28
466.397	15371.2
466.602	14433.23
466.807	14924.74
467.012	14740.43
467.218	14844.87
467.423	14255.06
467.628	15002.57
467.833	15532.99
468.038	14318.54
468.244	14261.2
468.449	14791.62
468.654	14693.32
468.859	14367.7
469.064	14187.47
469.269	13306.85
469.474	13698.01
469.679	14212.05
469.885	13728.73
470.09	13597.66
470.295	13597.66
470.5	13312.99
470.705	13593.56
470.91	12927.97
471.115	12739.56
471.32	12925.93
471.525	12979.17
471.73	12946.41
471.935	12579.82
472.139	12528.62
472.344	12241.9
472.549	12278.77
472.754	12377.07
472.959	11707.38
473.164	11430.91
473.369	11486.2
473.574	11922.42
473.778	11797.49
473.983	11492.35
474.188	11533.31
474.393	10988.55
474.598	11101.19
474.802	10824.71
475.007	10914.82
475.212	10880
475.417	10603.53
475.621	10421.26
475.826	10474.51
476.031	10304.53
476.235	10091.54
476.44	10179.6
476.645	10288.14
476.849	10132.5
477.054	9917.46
477.259	9796.63
477.463	10050.58
477.668	9559.06
477.872	9770.01
478.077	9348.12
478.282	9239.58
478.486	9276.45
478.691	9313.31
478.895	9128.99
479.1	9006.11
479.304	9118.75
479.509	8711.21
479.713	9026.59
479.918	8750.12
480.122	8600.62
480.326	8772.64
480.531	8768.55
480.735	8750.12
480.94	8457.26
481.144	8772.64
481.348	8356.91
481.553	8346.67
481.757	8449.07
481.961	8522.79
482.166	8522.79
482.37	8436.78
482.574	8363.05
482.778	8461.35
482.983	8563.75
483.187	8559.66
483.391	8438.83
483.595	8315.95
483.8	8395.82
484.004	8477.74
484.208	8406.06
484.412	8164.4
484.616	8520.74
484.821	8379.43
485.025	8133.68
485.229	8313.9
485.433	8346.67
485.637	8297.52
485.841	8283.18
486.045	8207.41
486.249	8311.85
486.453	8117.29
486.657	8356.91
486.861	8320.04
487.065	8182.83
487.269	8133.68
487.473	8055.86
487.677	8373.29
487.881	8238.12
488.085	8164.4
488.289	8397.87
488.493	8283.18
488.697	8270.89
488.901	8223.79
489.105	8215.6
489.309	8326.19
489.512	8166.45
489.716	8272.94
489.92	8385.58
490.124	8324.14
490.328	8252.46
490.531	8293.42
490.735	8227.89
490.939	8309.8
491.143	8158.25
491.346	8404.01
491.55	8395.82
491.754	8385.58
491.958	8551.46
492.161	8467.5
492.365	8389.67
492.569	8576.04
492.772	8485.93
492.976	8612.9
493.18	8633.38
493.383	8676.39
493.587	8739.88
493.79	8883.24
493.994	8668.2
494.197	8877.09
494.401	8967.2
494.605	9020.45
494.808	8829.99
495.012	8870.95
495.215	9088.03
495.419	8981.54
495.622	8989.73
495.825	9309.21
496.029	9112.61
496.232	9337.88
496.436	9055.26
496.639	9634.84
496.843	9538.59
497.046	9657.37
497.249	9786.39
497.453	9847.83
497.656	9794.58
497.859	9937.94
498.063	10124.3
498.266	10189.84
498.469	10292.24
498.673	10075.15
498.876	10472.46
499.079	10394.64
499.282	10325.01
499.485	10652.68
499.689	10640.39
499.892	10755.08
500.095	10886.15
500.298	11039.75
500.501	10843.14
500.705	11385.85
500.908	11328.51
501.111	11303.93
501.314	11463.68
501.517	11824.12
501.72	11799.54
501.923	11844.6
502.126	11869.17
502.329	12207.09
502.532	12370.93
502.735	12315.63
502.938	12655.59
503.141	12508.14
503.344	12764.14
503.547	12911.59
503.75	12981.22
503.953	13044.71
504.156	13327.33
504.359	13243.36
504.562	13450.21
504.765	13622.23
504.968	13626.33
505.17	13745.11
505.373	13810.65
505.576	14126.04
505.779	14175.19
505.982	14398.41
506.185	14420.94
506.387	14640.08
506.59	14715.85
506.793	15203.27
506.996	14904.26
507.198	15436.74
507.401	15111.11
507.604	15633.34
507.807	15782.84
508.009	16040.89
508.212	15963.06
508.415	16182.2
508.617	16251.83
508.82	16337.84
509.022	16481.2
509.225	16833.45
509.428	17181.6
509.63	17224.61
509.833	17304.48
510.035	17724.32
510.238	17458.08
510.44	17783.71
510.643	17849.24
510.845	18135.96
511.048	17832.86
511.25	18199.44
511.453	18525.07
511.655	19110.79
511.858	18725.77
512.06	18897.8
512.262	18959.24
512.465	19532.67
512.667	19565.44
512.87	20155.26
513.072	19684.22
513.274	20247.41
513.477	20378.48
513.679	20616.05
513.881	20573.04
514.084	20812.65
514.286	21072.75
514.488	21132.14
514.69	21625.7
514.893	21502.82
515.095	21678.94
515.297	21787.49
515.499	21850.97
515.701	22088.54
515.904	22424.4
516.106	22598.48
516.308	22739.79
516.51	23003.98
516.712	23137.1
516.914	23305.03
517.116	23520.07
517.318	23688
517.52	23792.45
517.722	24095.55
517.925	24249.14
518.127	24519.48
518.329	24648.5
518.531	24650.55
518.733	24838.96
518.935	25355.05
519.136	25025.32
519.338	25479.97
519.54	25582.37
519.742	25936.67
519.944	25660.2
520.146	26125.08
520.348	26360.6
520.55	26536.73
520.752	26295.07
520.954	26821.39
521.155	26514.2
521.357	27542.28
521.559	26972.94
521.761	27419.4
521.963	27443.98
522.164	27392.78
522.366	27482.89
522.568	27704.07
522.77	27982.59
522.971	27888.39
523.173	27929.34
523.375	27988.74
523.576	28250.88
523.778	28193.53
523.98	28504.82
524.181	28758.77
524.383	28367.61
524.584	29039.34
524.786	29045.49
524.988	28740.34
525.189	28832.5
525.391	29041.39
525.592	29098.73
525.794	29498.09
525.995	29209.32
526.197	29219.56
526.398	29248.24
526.6	29631.21
526.801	29340.39
527.003	29432.55
527.204	29772.52
527.406	29813.48
527.607	29674.21
527.808	29805.28
528.01	29367.02
528.211	29367.02
528.412	30257.88
528.614	29690.6
528.815	29471.46
529.016	29813.48
529.218	29481.7
529.419	29530.86
529.62	29506.28
529.822	29594.34
530.023	29489.9
530.224	29725.41
530.425	29584.1
530.626	29270.76
530.828	29367.02
531.029	29809.38
531.23	29164.27
531.431	29252.33
531.632	29197.04
531.833	29780.71
532.035	29364.97
532.236	29266.67
532.437	29475.56
532.638	29168.37
532.839	29504.23
533.04	29358.83
533.241	29033.2
533.442	29649.64
533.643	29379.31
533.844	29111.02
534.045	29162.22
534.246	28795.64
534.447	29072.11
534.648	28826.35
534.849	29197.04
535.05	28910.32
535.251	28967.66
535.451	28779.25
535.652	28861.17
535.853	28709.62
536.054	28949.23
536.255	28642.04
536.456	28433.14
536.657	28840.69
536.857	28365.56
537.058	28510.97
537.259	28816.11
537.46	28635.89
537.66	28279.55
537.861	28572.41
538.062	28257.02
538.263	28175.1
538.463	28304.12
538.664	28089.09
538.865	28435.19
539.065	28347.13
539.266	27802.37
539.466	28390.14
539.667	28252.92
539.868	28308.22
540.068	27939.58
540.269	28013.31
540.469	28119.81
540.67	27593.48
540.87	28199.68
541.071	28111.61
541.271	28205.82
541.472	28103.42
541.672	27689.73
541.873	27579.14
542.073	27558.66
542.274	27937.54
542.474	27683.59
542.675	27646.72
542.875	28005.12
543.075	27712.26
543.276	27345.67
543.476	27982.59
543.676	27777.79
543.877	27540.23
544.077	27550.47
544.277	27661.06
544.478	27724.55
544.678	27908.86
544.878	27886.34
545.078	27523.85
545.279	27403.02
545.479	27556.61
545.679	27573
545.879	27460.36
546.079	27536.13
546.28	27652.87
546.48	27392.78
546.68	27839.23
546.88	27435.78
547.08	27659.01
547.28	27644.68
547.48	27171.6
547.68	27669.25
547.88	27515.65
548.081	27554.57
548.281	27183.88
548.481	27233.04
548.681	27470.6
548.881	27728.64
549.081	27644.68
549.28	27448.07
549.48	27652.87
549.68	27484.94
549.88	27525.89
550.08	27044.62
550.28	27491.08
550.48	27400.97
550.68	27669.25
550.88	27704.07
551.08	27616.01
551.279	27366.15
551.479	27220.75
551.679	27421.45
551.879	27317
552.079	27652.87
552.278	27204.36
552.478	27562.76
552.678	27691.78
552.878	27712.26
553.077	27618.05
553.277	27470.6
553.477	28005.12
553.676	27613.96
553.876	27966.21
554.076	27917.06
554.275	27765.51
554.475	27384.58
554.674	27632.39
554.874	27491.08
555.074	27523.85
555.273	27962.11
555.473	27988.74
555.672	27704.07
555.872	27796.23
556.071	27947.78
556.271	27863.81
556.47	27945.73
556.67	27583.24
556.869	27872
557.068	27880.19
557.268	27671.3
557.467	27855.62
557.667	27855.62
557.866	28283.64
558.065	27980.54
558.265	27489.03
558.464	27878.15
558.663	28095.23
558.863	27616.01
559.062	28039.93
559.261	27806.47
559.461	28396.28
559.66	27618.05
559.859	27773.7
560.058	27738.88
560.258	27757.32
560.457	27622.15
560.656	28001.02
560.855	28207.87
561.054	28105.47
561.253	27732.74
561.453	27663.11
561.652	27937.54
561.851	28068.61
562.05	27654.92
562.249	27616.01
562.448	28078.85
562.647	28001.02
562.846	28201.72
563.045	27865.86
563.244	27497.22
563.443	27734.79
563.642	27775.75
563.841	27697.92
564.04	27933.44
564.239	27857.67
564.438	27460.36
564.637	27605.77
564.836	27644.68
565.035	27278.09
565.234	27798.27
565.432	27317
565.631	27583.24
565.83	27681.54
566.029	27718.4
566.228	27403.02
566.427	27321.1
566.625	27142.92
566.824	26956.56
567.023	27177.74
567.222	26684.18
567.42	27474.7
567.619	27200.27
567.818	27327.24
568.016	26964.75
568.215	27181.84
568.414	26891.02
568.612	27095.82
568.811	27147.02
569.01	26784.53
569.208	26604.31
569.407	26868.5
569.605	26655.51
569.804	26831.63
570.002	26745.62
570.201	26876.69
570.4	26444.57
570.598	26272.54
570.797	26094.36
570.995	26110.75
571.193	25819.94
571.392	26135.32
571.59	25901.86
571.789	25965.34
571.987	25885.47
572.186	25967.39
572.384	25809.7
572.582	25854.75
572.781	25774.88
572.979	25547.56
573.177	25793.31
573.376	25598.76
573.574	25111.34
573.772	25547.56
573.971	25293.61
574.169	25113.39
574.367	25271.08
574.565	25361.19
574.763	25088.81
574.962	25219.88
575.16	24877.87
575.358	25029.42
575.556	24621.87
575.754	24843.06
575.952	24531.76
576.151	24845.1
576.349	24206.14
576.547	24210.23
576.745	24410.93
576.943	24271.67
577.141	24214.33
577.339	24068.92
577.537	24212.28
577.735	24189.75
577.933	23692.1
578.131	23905.09
578.329	23554.88
578.527	23847.74
578.725	23872.32
578.923	23980.86
579.121	23790.4
579.319	23481.16
579.516	23569.22
579.714	23350.09
579.912	23173.96
580.11	23339.85
580.308	23108.43
580.506	23046.99
580.704	22702.93
580.901	23118.67
581.099	22973.26
581.297	22946.64
581.495	23053.13
581.692	22831.95
581.89	22747.98
582.088	22948.68
582.285	22723.41
582.483	22801.23
582.681	22598.48
582.878	22438.74
583.076	22264.66
583.274	22592.34
583.471	22033.24
583.669	22491.99
583.866	22291.29
584.064	22307.67
584.262	22164.31
584.459	22156.12
584.657	22145.88
584.854	22557.52
585.052	21336.93
585.249	21859.17
585.447	21945.18
585.644	21314.41
585.841	22018.91
586.039	22254.42
586.236	21422.95
586.434	21691.23
586.631	21435.24
586.828	21535.59
587.026	21451.62
587.223	21597.03
587.42	21478.24
587.618	21373.8
587.815	21298.02
588.012	21406.56
588.21	21076.84
588.407	21248.87
588.604	21080.94
588.801	20910.96
588.999	21203.82
589.196	20982.63
589.393	21035.88
589.59	20972.39
589.787	21095.27
589.984	20665.2
590.182	20757.36
590.379	20935.53
590.576	20677.49
590.773	20517.75
590.97	20810.61
591.167	20663.15
591.364	20376.44
591.561	20538.23
591.758	20433.78
591.955	20253.56
592.152	20507.51
592.349	20212.6
592.546	20251.51
592.743	20306.8
592.94	19895.16
593.137	20036.47
593.334	20302.71
593.531	20157.3
593.727	20298.61
593.924	19839.87
594.121	20040.57
594.318	20302.71
594.515	19749.76
594.712	20050.81
594.908	19872.64
595.105	20052.86
595.302	19886.97
595.499	20185.97
595.696	19794.81
595.892	19739.52
596.089	19950.46
596.286	20067.19
596.482	19831.68
596.679	19854.2
596.876	19999.61
597.072	19659.65
597.269	20061.05
597.466	19909.5
597.662	19598.21
597.859	19798.91
598.055	19999.61
598.252	19751.81
598.448	19948.41
598.645	19762.05
598.841	19555.2
599.038	19485.57
599.234	20073.34
599.431	19594.11
599.627	19594.11
599.824	19936.12
600.02	19786.62
600.217	19731.33
600.413	19684.22
600.609	19526.53
600.806	19833.72
601.002	19831.68
601.198	19972.99
601.395	19569.54
601.591	19860.35
601.787	20335.48
601.984	19798.91
602.18	20237.17
602.376	19999.61
602.572	20056.95
602.769	19948.41
602.965	19737.47
603.161	20044.66
603.357	20179.83
603.553	20284.28
603.75	20396.92
603.946	20022.14
604.142	20087.67
604.338	20280.18
604.534	20218.74
604.73	20087.67
604.926	19977.08
605.122	20452.21
605.318	20444.02
605.514	20228.98
605.71	20265.85
605.906	20376.44
606.102	20556.66
606.298	20548.47
606.494	20599.66
606.69	20466.55
606.886	20595.57
607.082	20388.72
607.278	21035.88
607.474	20394.87
607.67	20663.15
607.866	20339.57
608.062	21060.46
608.257	20714.35
608.453	20966.25
608.649	20953.96
608.845	20773.74
609.041	21205.86
609.236	21175.14
609.432	20800.37
609.628	21402.47
609.824	21123.94
610.019	21056.36
610.215	21175.14
610.411	21488.48
610.606	21160.81
610.802	21396.32
610.998	21257.06
611.193	21416.8
611.389	21306.21
611.584	21363.56
611.78	21181.29
611.976	21414.76
612.171	21449.57
612.367	21674.85
612.562	21508.96
612.758	21607.26
612.953	21551.97
613.149	21891.93
613.344	21539.68
613.539	22008.67
613.735	21879.64
613.93	21597.03
614.126	21896.03
614.321	22092.63
614.517	21848.93
614.712	21597.03
614.907	21801.82
615.103	22043.48
615.298	21992.28
615.493	22383.45
615.688	21738.33
615.884	22440.79
616.079	21832.54
616.274	22213.46
616.47	21973.85
616.665	22068.06
616.86	21879.64
617.055	21936.99
617.25	22125.4
617.445	22006.62
617.641	21844.83
617.836	22096.73
618.031	21992.28
618.226	22029.15
618.421	21990.24
618.616	22123.35
618.811	21668.7
619.006	21908.32
619.201	21617.5
619.396	21867.36
619.591	21298.02
619.786	21760.86
619.981	21676.9
620.176	21615.46
620.371	21367.65
620.566	21689.18
620.761	21517.15
620.956	21441.38
621.151	21037.93
621.346	21314.41
621.541	20917.1
621.735	21039.98
621.93	20915.05
622.125	20886.38
622.32	20738.93
622.515	20743.02
622.709	20679.54
622.904	20886.38
623.099	20484.98
623.294	20585.33
623.488	20364.15
623.683	20503.41
623.878	19856.25
624.072	20325.24
624.267	20439.92
624.462	20349.81
624.656	19854.2
624.851	20013.95
625.046	19850.11
625.24	19479.43
625.435	19721.09
625.629	19442.56
625.824	19469.19
626.018	19205
626.213	19008.39
626.407	19264.39
626.602	19106.7
626.796	19202.95
626.991	18785.16
627.185	18897.8
627.38	18619.28
627.574	18543.5
627.768	18391.95
627.963	18224.02
628.157	18424.72
628.352	18674.57
628.546	17925.02
628.74	18314.13
628.935	18043.8
629.129	18013.08
629.323	17644.45
629.517	18164.63
629.712	17789.85
629.906	17796
630.1	17488.8
630.294	17511.33
630.489	17296.29
630.683	17578.91
630.877	17238.95
631.071	16829.35
631.265	17222.56
631.459	16876.46
631.653	16755.63
631.848	17132.45
632.042	16921.51
632.236	16710.57
632.43	16460.72
632.624	16743.34
632.818	16501.68
633.012	16389.04
633.206	16257.97
633.4	16059.32
633.594	16006.07
633.788	16448.43
633.982	16200.63
634.176	15973.3
634.369	15586.24
634.563	15559.61
634.757	15555.52
634.951	16053.17
635.145	15662.01
635.339	15551.42
635.533	15162.31
635.726	15276.99
635.92	15129.54
636.114	15371.2
636.308	14982.09
636.501	15195.07
636.695	14879.69
636.889	14795.72
637.083	14769.1
637.276	14752.71
637.47	14457.81
637.664	14769.1
637.857	14392.27
638.051	14504.91
638.244	14238.67
638.438	14105.56
638.632	14171.09
638.825	13949.91
639.019	13773.78
639.212	13960.15
639.406	13693.91
639.599	13687.77
639.793	13687.77
639.986	13429.73
640.18	13308.9
640.373	13386.72
640.567	13247.46
640.76	13220.83
640.954	13173.73
641.147	12960.74
641.34	12958.69
641.534	12987.36
641.727	12700.65
641.92	12819.43
642.114	12694.5
642.307	12596.2
642.5	12499.95
642.694	12192.75
642.887	12274.67
643.08	12567.53
643.273	12135.41
643.467	12137.46
643.66	12088.31
643.853	12192.75
644.046	11863.03
644.239	11889.65
644.432	11518.97
644.626	11754.49
644.819	11772.92
645.012	11711.48
645.205	11830.26
645.398	11469.82
645.591	11312.13
645.784	11584.51
645.977	11174.91
646.17	11062.27
646.363	11095.04
646.556	10845.19
646.749	11092.99
646.942	11217.92
647.135	10689.54
647.328	10828.81
647.521	10880
647.714	10654.73
647.907	10755.08
648.099	10544.14
648.292	10560.52
648.485	10419.21
648.678	10224.65
648.871	10394.64
649.064	10112.02
649.256	10214.41
649.449	10079.25
649.642	9919.51
649.835	9878.55
650.027	9757.72
650.22	9753.62
650.413	9849.88
650.605	9735.19
650.798	9618.46
650.991	9583.64
651.183	9673.75
651.376	9258.01
651.568	9427.99
651.761	9208.86
651.954	9397.28
652.146	9331.74
652.339	9231.39
652.531	9190.43
652.724	9075.74
652.916	9157.66
653.109	8938.53
653.301	8862.76
653.494	9069.6
653.686	8782.88
653.879	8956.96
654.071	8735.78
654.263	8657.96
654.456	8762.4
654.648	8698.92
654.84	8596.52
655.033	8598.57
655.225	8770.6
655.417	8426.54
655.61	8573.99
655.802	8543.27
655.994	8244.27
656.186	8473.64
656.379	8455.21
656.571	8184.88
656.763	8133.68
656.955	8145.97
657.148	8096.82
657.34	8002.61
657.532	7871.54
657.724	8057.9
657.916	7896.11
658.108	7769.14
658.3	7769.14
658.492	7771.19
658.684	7701.56
658.876	7627.83
659.068	7730.23
659.26	7593.01
659.452	7584.82
659.644	7310.4
659.836	7437.37
660.028	7584.82
660.22	7486.52
660.412	7316.54
660.604	7396.41
660.796	7232.57
660.988	7302.2
661.18	7040.06
661.372	7019.58
661.563	7142.46
661.755	7126.08
661.947	7189.56
662.139	7085.12
662.331	6962.24
662.522	6794.31
662.714	7060.54
662.906	6792.26
663.097	6808.64
663.289	6671.43
663.481	6659.14
663.673	6622.28
663.864	6573.13
664.056	6462.54
664.247	6478.92
664.439	6366.28
664.631	6476.87
664.822	6413.38
665.014	6315.08
665.205	6540.36
665.397	6478.92
665.588	6331.47
665.78	6401.1
665.971	6114.38
666.163	6216.78
666.354	6091.85
666.546	5995.6
666.737	6249.55
666.929	6003.79
667.12	6222.92
667.311	6011.98
667.503	5882.96
667.694	6016.08
667.885	5856.34
668.077	5946.45
668.268	5657.68
668.459	5856.34
668.651	5934.16
668.842	5751.89
669.033	5663.83
669.224	5606.49
669.416	5712.98
669.607	5712.98
669.798	5610.58
669.989	5657.68
670.18	5620.82
670.371	5459.03
670.563	5389.4
670.754	5409.88
670.945	5391.45
671.136	5508.18
671.327	5452.89
671.518	5471.32
671.709	5499.99
671.9	5426.26
672.091	5430.36
672.282	5287
672.473	5303.39
672.664	5334.11
672.855	5209.18
673.046	5293.15
673.237	5315.67
673.428	5209.18
673.619	5170.27
673.809	5037.15
674	5211.23
674.191	5160.03
674.382	5127.26
674.573	5096.54
674.764	5028.96
674.954	5117.02
675.145	4908.13
675.336	5012.57
675.527	4949.09
675.717	4930.66
675.908	4979.81
676.099	4949.09
676.289	4949.09
676.48	4858.98
676.671	4856.93
676.861	4879.46
677.052	4742.24
677.243	4795.49
677.433	4711.52
677.624	4885.6
677.814	4867.17
678.005	4695.14
678.195	4760.67
678.386	4740.19
678.576	4789.35
678.767	4775.01
678.957	4664.42
679.148	4766.82
679.338	4750.43
679.529	4588.64
679.719	4695.14
679.909	4729.95
680.1	4652.13
680.29	4686.95
680.481	4480.1
680.671	4723.81
680.861	4594.79
681.052	4746.34
681.242	4627.56
681.432	4754.53
681.622	4549.73
681.813	4484.2
682.003	4660.32
682.193	4598.88
682.383	4678.76
682.573	4607.08
682.764	4537.45
682.954	4617.32
683.144	4430.95
683.334	4455.53
683.524	4496.49
683.714	4484.2
683.904	4537.45
684.094	4543.59
684.284	4523.11
684.474	4645.99
684.664	4607.08
684.854	4527.21
685.044	4613.22
685.234	4338.79
685.424	4484.2
685.614	4357.22
685.804	4422.76
685.994	4400.23
686.184	4457.57
686.374	4584.55
686.564	4514.92
686.753	4367.46
686.943	4453.48
687.133	4383.85
687.323	4269.16
687.513	4308.07
687.702	4267.11
687.892	4355.18
688.082	4289.64
688.272	4392.04
688.461	4287.59
688.651	4254.83
688.841	4340.84
689.03	4220.01
689.22	4136.04
689.41	4312.17
689.599	4275.31
689.789	4111.47
689.979	4217.96
690.168	4275.31
690.358	4146.28
690.547	4273.26
690.737	4154.48
690.926	4160.62
691.116	4168.81
691.305	4258.92
691.495	4047.98
691.684	4131.95
691.874	4168.81
692.063	4086.89
692.252	3998.83
692.442	4029.55
692.631	4082.8
692.82	4019.31
693.01	4080.75
693.199	4115.56
693.388	4037.74
693.578	3988.59
693.767	4070.51
693.956	4164.72
694.146	4000.88
694.335	3943.53
694.524	3978.35
694.713	3974.25
694.902	3990.64
695.092	4035.69
695.281	3955.82
695.47	3935.34
695.659	3988.59
695.848	4054.12
696.037	3914.86
696.226	4097.13
696.415	3904.62
696.604	3976.3
696.793	3810.42
696.982	3959.92
697.171	3890.29
697.36	3851.38
697.549	3863.66
697.738	3914.86
697.927	4017.26
698.116	3955.82
698.305	3882.1
698.494	3832.94
698.683	3890.29
698.872	3925.1
699.061	3751.03
699.25	3671.15
699.438	3710.07
699.627	3912.81
699.816	3910.77
700.005	3826.8
700.193	3810.42
700.382	3665.01
700.571	3728.5
700.76	3894.38
700.948	3703.92
701.137	3800.18
701.326	3746.93
701.514	3669.11
701.703	3820.66
701.892	3783.79
702.08	3849.33
702.269	3726.45
702.457	3773.55
702.646	3671.15
702.834	3591.28
703.023	3591.28
703.212	3693.68
703.4	3470.45
703.589	3581.04
703.777	3654.77
703.965	3579
704.154	3570.8
704.342	3538.04
704.531	3466.36
704.719	3556.47
704.907	3488.89
705.096	3587.19
705.284	3392.63
705.472	3499.13
705.661	3443.83
705.849	3546.23
706.037	3591.28
706.226	3460.21
706.414	3560.56
706.602	3331.19
706.79	3468.41
706.979	3562.61
707.167	3488.89
707.355	3417.21
707.543	3392.63
707.731	3378.3
707.919	3355.77
708.107	3398.77
708.296	3366.01
708.484	3325.05
708.672	3294.33
708.86	3267.7
709.048	3226.75
709.236	3470.45
709.424	3312.76
709.612	3345.53
709.8	3400.82
709.988	3212.41
710.176	3390.58
710.364	3257.46
710.551	3335.29
710.739	3155.07
710.927	3214.46
711.115	3234.94
711.303	3226.75
711.491	3105.92
711.679	3220.6
711.866	3259.51
712.054	3234.94
712.242	3169.4
712.43	3222.65
712.617	3017.85
712.805	3132.54
712.993	3116.16
713.181	2999.42
713.368	3177.59
713.556	3015.8
713.744	3034.24
713.931	3040.38
714.119	3001.47
714.306	3062.91
714.494	3083.39
714.682	2987.13
714.869	2942.08
715.057	3007.61
715.244	2843.78
715.432	2878.59
715.619	2952.32
715.807	2940.03
715.994	2937.98
716.182	2835.58
716.369	2989.18
716.556	2905.21
716.744	2843.78
716.931	2759.81
717.119	2847.87
717.306	2835.58
717.493	2776.19
717.681	2808.96
717.868	2903.17
718.055	2899.07
718.242	2704.51
718.43	2905.21
718.617	2819.2
718.804	2817.15
718.991	2817.15
719.179	2710.66
719.366	2800.77
719.553	2753.66
719.74	2718.85
719.927	2733.18
720.114	2727.04
720.301	2604.16
720.488	2681.99
720.676	2724.99
720.863	2696.32
721.05	2745.47
721.237	2690.18
721.424	2710.66
721.611	2651.27
721.798	2581.64
721.985	2630.79
722.172	2595.97
722.358	2751.62
722.545	2620.55
722.732	2505.86
722.919	2604.16
723.106	2548.87
723.293	2505.86
723.48	2530.44
723.667	2571.4
723.853	2530.44
724.04	2548.87
724.227	2618.5
724.414	2499.72
724.6	2471.04
724.787	2571.4
724.974	2454.66
725.161	2464.9
725.347	2563.2
725.534	2489.48
725.72	2448.52
725.907	2569.35
726.094	2460.81
726.28	2460.81
726.467	2313.35
726.653	2448.52
726.84	2301.06
727.027	2454.66
727.213	2415.75
727.4	2421.89
727.586	2348.17
727.773	2305.16
727.959	2372.74
728.145	2411.65
728.332	2309.26
728.518	2319.5
728.705	2387.08
728.891	2428.04
729.077	2346.12
729.264	2342.02
729.45	2268.3
729.636	2428.04
729.823	2276.49
730.009	2253.96
730.195	2331.78
730.382	2296.97
730.568	2286.73
730.754	2395.27
730.94	2169.99
731.126	2270.34
731.313	2258.06
731.499	2280.58
731.685	2194.57
731.871	2329.74
732.057	2190.47
732.243	2221.19
732.429	2235.53
732.615	2231.43
732.801	2268.3
732.987	2096.27
733.173	2223.24
733.359	2063.5
733.545	2079.88
733.731	2184.33
733.917	2213
734.103	2188.43
734.289	2139.27
734.475	2053.26
734.661	2098.31
734.847	2114.7
735.033	2079.88
735.219	2149.51
735.404	2051.21
735.59	2215.05
735.776	2014.35
735.962	2047.12
736.148	2145.42
736.333	2114.7
736.519	2018.44
736.705	2112.65
736.89	2088.07
737.076	1928.33
737.262	1891.47
737.447	1899.66
737.633	1973.39
737.819	2030.73
738.004	1926.29
738.19	2006.16
738.375	1983.63
738.561	2114.7
738.747	1797.26
738.932	1842.32
739.118	2008.2
739.303	1975.44
739.489	1891.47
739.674	1975.44
739.859	1821.84
740.045	1830.03
740.23	1918.09
740.416	1795.22
740.601	1784.98
740.786	1879.18
740.972	1801.36
741.157	1967.24
741.342	1737.87
741.528	1815.69
741.713	1825.93
741.898	1942.67
742.084	1817.74
742.269	1682.58
742.454	1819.79
742.639	1891.47
742.824	1705.1
743.01	1791.12
743.195	1887.37
743.38	1768.59
743.565	1776.78
743.75	1713.3
743.935	1696.91
744.12	1682.58
744.305	1698.96
744.49	1819.79
744.675	1768.59
744.86	1703.06
745.045	1670.29
745.23	1625.23
745.415	1658
745.6	1703.06
745.785	1567.89
745.97	1746.06
746.155	1682.58
746.34	1571.99
746.525	1539.22
746.71	1645.71
746.895	1522.84
747.079	1533.08
747.264	1508.5
747.449	1559.7
747.634	1526.93
747.819	1551.51
748.003	1526.93
748.188	1514.64
748.373	1510.55
748.557	1502.36
748.742	1547.41
748.927	1432.72
749.111	1451.16
749.296	1481.88
749.481	1528.98
749.665	1467.54
749.85	1406.1
750.034	1350.81
750.219	1383.57
750.404	1301.65
750.588	1381.53
750.773	1397.91
750.957	1385.62
751.141	1354.9
751.326	1387.67
751.51	1285.27
751.695	1266.84
751.879	1229.98
752.064	1320.09
752.248	1338.52
752.432	1305.75
752.617	1305.75
752.801	1354.9
752.985	1408.15
753.17	1270.94
753.354	1342.61
753.538	1277.08
753.722	1227.93
753.907	1213.59
754.091	1203.35
754.275	1182.87
754.459	1180.82
754.643	1223.83
754.828	1178.78
755.012	1293.46
755.196	1090.71
755.38	1107.1
755.564	1084.57
755.748	1232.02
755.932	1223.83
756.116	1105.05
756.3	1150.11
756.484	1082.52
756.668	1084.57
756.852	1039.51
757.036	1041.56
757.22	1113.24
757.404	1094.81
757.588	1088.67
757.772	1135.77
757.956	933.02
758.14	1055.9
758.323	980.12
758.507	1047.71
758.691	1064.09
758.875	976.03
759.059	1041.56
759.242	943.26
759.426	1043.61
759.61	1019.04
759.794	1035.42
759.977	1014.94
760.161	1127.58
760.345	910.49
760.528	992.41
760.712	867.49
760.895	973.98
761.079	992.41
761.263	933.02
761.446	920.73
761.63	949.4
761.813	978.08
761.997	947.36
762.18	830.62
762.364	926.88
762.547	842.91
762.731	834.72
762.914	967.84
763.098	902.3
763.281	851.1
763.464	867.49
763.648	896.16
763.831	861.34
764.015	824.48
764.198	883.87
764.381	896.16
764.564	900.25
764.748	859.29
764.931	894.11
765.114	773.28
765.297	933.02
765.481	785.57
765.664	830.62
765.847	920.73
766.03	834.72
766.213	812.19
766.397	785.57
766.58	869.53
766.763	842.91
766.946	820.38
767.129	838.81
767.312	769.18
767.495	877.73
767.678	728.22
767.861	834.72
768.044	795.81
768.227	795.81
768.41	844.96
768.593	801.95
768.776	801.95
768.959	826.53
769.142	810.14
769.324	773.28
769.507	808.09
769.69	806.05
769.873	797.85
770.056	851.1
770.239	799.9
770.421	814.24
770.604	746.66
770.787	740.51
770.97	851.1
771.152	740.51
771.335	738.46
771.518	705.7
771.7	763.04
771.883	779.42
772.066	687.26
772.248	693.41
772.431	754.85
772.613	750.75
772.796	631.97
772.978	779.42
773.161	705.7
773.343	740.51
773.526	642.21
773.708	672.93
773.891	646.3
774.073	701.6
774.256	605.35
774.438	728.22
774.621	662.69
774.803	650.4
774.985	654.5
775.168	726.18
775.35	801.95
775.532	730.27
775.715	687.26
775.897	679.07
776.079	713.89
776.261	677.02
776.444	623.78
776.626	613.54
776.808	605.35
776.99	588.96
777.173	681.12
777.355	556.19
777.537	703.65
777.719	558.24
777.901	521.38
778.083	666.78
778.265	617.63
778.447	525.47
778.629	605.35
778.811	531.62
778.993	634.02
779.175	580.77
779.357	519.33
779.539	523.43
779.721	523.43
779.903	574.63
780.085	533.67
780.267	521.38
780.449	517.28
780.631	523.43
780.812	527.52
780.994	449.7
781.176	531.62
781.358	492.71
781.54	478.37
781.721	492.71
781.903	504.99
782.085	455.84
782.267	414.88
782.448	390.31
782.63	449.7
782.812	474.28
782.993	466.08
783.175	476.32
783.357	449.7
783.538	490.66
783.72	507.04
783.901	468.13
784.083	498.85
784.264	482.47
784.446	461.99
784.627	406.69
784.809	425.12
784.99	400.55
785.172	433.32
785.353	474.28
785.535	449.7
785.716	367.78
785.897	418.98
786.079	425.12
786.26	359.59
786.441	400.55
786.623	343.21
786.804	390.31
786.985	441.51
787.167	441.51
787.348	392.36
787.529	400.55
787.71	472.23
787.891	435.36
788.073	349.35
788.254	351.4
788.435	476.32
788.616	277.67
788.797	400.55
788.978	347.3
789.159	341.16
789.34	353.45
789.522	312.49
789.703	359.59
789.884	320.68
790.065	380.07
790.246	390.31
790.427	355.49
790.607	447.65
790.788	380.07
790.969	310.44
791.15	302.25
791.331	304.29
791.512	339.11
791.693	361.64
791.874	404.64
792.054	429.22
792.235	388.26
792.416	294.05
792.597	228.52
792.778	335.01
792.958	359.59
793.139	328.87
793.32	269.48
793.5	253.09
793.681	285.86
793.862	310.44
794.042	277.67
794.223	173.22
794.404	214.18
794.584	230.57
794.765	249
794.945	281.77
795.126	298.15
795.306	324.77
795.487	302.25
795.667	302.25
795.848	273.57
796.028	283.81
796.209	265.38
796.389	292.01
796.57	259.24
796.75	249
796.93	279.72
797.111	156.84
797.291	179.37
797.471	238.76
797.652	308.39
797.832	220.33
798.012	255.14
798.192	179.37
798.373	269.48
798.553	269.48
798.733	306.34
798.913	199.85
799.093	205.99
799.274	240.81
799.454	236.71
799.634	249
799.814	277.67
799.994	308.39
800.174	208.04
800.354	177.32
800.534	189.61
800.714	136.36
800.894	189.61
801.074	214.18
801.254	212.14
801.434	255.14
801.614	259.24
801.794	236.71
801.974	916.64
802.154	228.52
802.334	238.76
802.514	205.99
802.693	257.19
802.873	261.29
803.053	277.67
803.233	240.81
803.413	181.42
803.592	146.6
803.772	101.55
803.952	238.76
804.131	142.5
804.311	193.7
804.491	246.95
804.67	165.03
804.85	138.41
805.03	185.51
805.209	244.9
805.389	134.31
805.568	212.14
805.748	253.09
805.928	138.41
806.107	228.52
806.287	203.94
806.466	230.57
806.646	138.41
806.825	76.97
807.004	238.76
807.184	212.14
807.363	228.52
807.543	138.41
807.722	138.41
807.901	152.74
808.081	203.94
808.26	222.38
808.439	249
808.619	183.46
808.798	138.41
808.977	140.46
809.156	146.6
809.336	232.62
809.515	203.94
809.694	91.31
809.873	222.38
810.052	134.31
810.231	212.14
810.411	224.42
810.59	177.32
810.769	179.37
810.948	173.22
811.127	138.41
811.306	124.07
811.485	187.56
811.664	220.33
811.843	203.94
812.022	224.42
812.201	181.42
812.38	181.42
812.559	138.41
812.737	183.46
812.916	144.55
813.095	107.69
813.274	205.99
813.453	175.27
813.632	171.18
813.811	154.79
813.989	85.16
814.168	197.8
814.347	105.64
814.526	148.65
814.704	167.08
814.883	124.07
815.062	40.11
815.24	148.65
815.419	111.78
815.598	138.41
815.776	122.02
815.955	105.64
816.133	60.59
816.312	171.18
816.49	154.79
816.669	162.98
816.847	89.26
817.026	140.46
817.204	103.59
817.383	99.5
817.561	165.03
817.74	140.46
817.918	175.27
818.097	64.68
818.275	111.78
818.453	175.27
818.632	124.07
818.81	167.08
818.988	142.5
819.167	122.02
819.345	148.65
819.523	117.93
819.701	146.6
819.879	109.74
820.058	150.7
820.236	138.41
820.414	46.25
820.592	81.07
820.77	154.79
820.948	156.84
821.127	150.7
821.305	85.16
821.483	113.83
821.661	136.36
821.839	122.02
822.017	50.35
822.195	66.73
822.373	171.18
822.551	140.46
822.729	146.6
822.907	107.69
823.085	154.79
823.262	134.31
823.44	72.87
823.618	138.41
823.796	99.5
823.974	79.02
824.152	81.07
824.329	124.07
824.507	97.45
824.685	185.51
824.863	134.31
825.04	134.31
825.218	171.18
825.396	95.4
825.574	101.55
825.751	128.17
825.929	113.83
826.107	113.83
826.284	44.2
826.462	109.74
826.639	23.72
826.817	68.78
826.994	87.21
827.172	50.35
827.349	179.37
827.527	66.73
827.704	101.55
827.882	140.46
828.059	138.41
828.237	64.68
828.414	97.45
828.591	89.26
828.769	72.87
828.946	36.01
829.124	99.5
829.301	150.7
829.478	126.12
829.655	46.25
829.833	81.07
830.01	50.35
830.187	109.74
830.364	-4.95
830.542	81.07
830.719	130.22
830.896	72.87
831.073	81.07
831.25	74.92
831.427	33.96
831.604	56.49
831.782	66.73
831.959	122.02
832.136	44.2
832.313	93.35
832.49	46.25
832.667	83.11
832.844	33.96
833.021	205.99
833.198	66.73
833.374	29.87
833.551	122.02
833.728	109.74
833.905	115.88
834.082	-17.24
834.259	70.83
834.436	91.31
834.612	81.07
834.789	93.35
834.966	74.92
835.143	95.4
835.319	36.01
835.496	105.64
835.673	97.45
835.85	113.83
836.026	48.3
836.203	7.34
836.38	56.49
836.556	89.26
836.733	99.5
836.909	208.04
837.086	83.11
837.262	58.54
837.439	-13.14
837.616	7.34
837.792	17.58
837.968	111.78
838.145	56.49
838.321	58.54
838.498	56.49
838.674	113.83
838.851	58.54
839.027	31.91
839.203	33.96
839.38	50.35
839.556	31.91
839.732	56.49
839.909	64.68
840.085	68.78
840.261	-43.86
840.437	29.87
840.614	17.58
840.79	175.27
840.966	117.93
841.142	44.2
841.318	52.39
841.494	72.87
841.671	60.59
841.847	56.49
842.023	70.83
842.199	60.59
842.375	42.15
842.551	-33.62
842.727	64.68
842.903	68.78
843.079	29.87
843.255	89.26
843.431	-66.39
843.607	97.45
843.783	7.34
843.959	81.07
844.134	-50
844.31	113.83
844.486	-25.43
844.662	13.48
844.838	40.11
845.013	132.26
845.189	148.65
845.365	138.41
845.541	-17.24
845.716	50.35
845.892	122.02
846.068	62.63
846.244	72.87
846.419	36.01
846.595	76.97
846.77	1.19
846.946	64.68
847.122	36.01
847.297	27.82
847.473	122.02
847.648	29.87
847.824	52.39
847.999	29.87
848.175	46.25
848.35	54.44
848.526	72.87
848.701	9.39
848.876	81.07
849.052	36.01
849.227	56.49
849.403	89.26
849.578	31.91
849.753	7.34
849.929	-0.85
850.104	40.11
850.279	-7
850.454	83.11
850.63	44.2
850.805	93.35
850.98	60.59
851.155	-9.05
851.33	40.11
851.505	23.72
851.681	109.74
851.856	11.43
852.031	66.73
852.206	132.26
852.381	58.54
852.556	21.67
852.731	9.39
852.906	56.49
853.081	74.92
853.256	97.45
853.431	52.39
853.606	42.15
853.781	31.91
853.956	-17.24
854.131	58.54
854.305	42.15
854.48	72.87
854.655	36.01
854.83	38.06
855.005	72.87
855.18	76.97
855.354	-17.24
855.529	21.67
855.704	48.3
855.879	60.59
856.053	-21.33
856.228	-56.15
856.403	56.49
856.577	33.96
856.752	38.06
856.926	64.68
857.101	42.15
857.276	58.54
857.45	103.59
857.625	1.19
857.799	40.11
857.974	58.54
858.148	-0.85
858.323	19.63
858.497	40.11
858.672	-9.05
858.846	31.91
859.02	52.39
859.195	33.96
859.369	66.73
859.543	109.74
859.718	-7
859.892	76.97
860.066	72.87
860.241	-27.48
860.415	25.77
860.589	72.87
860.763	85.16
860.938	-4.95
861.112	99.5
861.286	42.15
861.46	33.96
861.634	31.91
861.808	23.72
861.982	15.53
862.157	31.91
862.331	-33.62
862.505	11.43
862.679	15.53
862.853	42.15
863.027	44.2
863.201	56.49
863.375	50.35
863.549	7.34
863.722	109.74
863.896	31.91
864.07	9.39
864.244	42.15
864.418	31.91
864.592	72.87
864.766	19.63
864.939	52.39
865.113	-31.57
865.287	36.01
865.461	-41.81
865.634	17.58
865.808	89.26
865.982	15.53
866.156	-7
866.329	3.24
866.503	-23.38
866.676	7.34
866.85	31.91
867.024	33.96
867.197	60.59
867.371	130.22
867.544	19.63
867.718	-50
867.891	36.01
868.065	33.96
868.238	44.2
868.412	68.78
868.585	52.39
868.759	-9.05
868.932	29.87
869.105	44.2
869.279	17.58
869.452	52.39
869.625	3.24
869.799	72.87
869.972	-27.48
870.145	-23.38
870.319	23.72
870.492	7.34
870.665	23.72
870.838	33.96
871.011	-56.15
871.185	33.96
871.358	-60.24
871.531	7.34
871.704	27.82
871.877	21.67
872.05	72.87
872.223	56.49
872.396	62.63
872.569	44.2
872.742	15.53
872.915	9.39
873.088	36.01
873.261	-62.29
873.434	31.91
873.607	46.25
873.78	72.87
873.953	-15.19
874.126	23.72
874.299	15.53
874.471	-37.72
874.644	48.3
874.817	72.87
874.99	-25.43
875.163	9.39
875.335	17.58
875.508	-27.48
875.681	40.11
875.853	40.11
876.026	-41.81
876.199	23.72
876.371	36.01
876.544	56.49
876.717	56.49
876.889	-4.95
877.062	124.07
877.234	-70.48
877.407	23.72
877.579	58.54
877.752	17.58
877.924	70.83
878.097	97.45
878.269	31.91
878.442	42.15
878.614	3.24
878.786	23.72
878.959	42.15
879.131	42.15
879.303	-62.29
879.476	40.11
879.648	27.82
879.82	17.58
879.993	-0.85
880.165	-0.85
880.337	-25.43
880.509	52.39
880.681	-15.19
880.854	60.59
881.026	15.53
881.198	97.45
881.37	38.06
881.542	50.35
881.714	-13.14
881.886	17.58
882.058	36.01
882.23	72.87
882.402	23.72
882.574	33.96
882.746	81.07
882.918	89.26
883.09	11.43
883.262	31.91
883.434	13.48
883.606	52.39
883.778	66.73
883.95	19.63
884.122	13.48
884.293	40.11
884.465	7.34
884.637	-21.33
884.809	52.39
884.98	64.68
885.152	-17.24
885.324	42.15
885.496	-33.62
885.667	40.11
885.839	21.67
886.011	128.17
886.182	93.35
886.354	31.91
886.525	-62.29
886.697	-9.05
886.869	-33.62
887.04	-60.24
887.212	66.73
887.383	130.22
887.555	-15.19
887.726	7.34
887.897	-7
888.069	7.34
888.24	72.87
888.412	15.53
888.583	-43.86
888.754	99.5
888.926	-23.38
889.097	5.29
889.268	29.87
889.44	25.77
889.611	-52.05
889.782	58.54
889.953	-66.39
890.125	33.96
890.296	9.39
890.467	31.91
890.638	-90.96
890.809	-58.2
890.98	-23.38
891.151	29.87
891.323	107.69
891.494	3.24
891.665	54.44
891.836	31.91
892.007	-33.62
892.178	33.96
892.349	-0.85
892.52	-41.81
892.691	33.96
892.862	-25.43
893.032	-54.1
893.203	101.55
893.374	95.4
893.545	48.3
893.716	31.91
893.887	15.53
894.057	-17.24
894.228	-25.43
894.399	-21.33
894.57	-33.62
894.74	72.87
894.911	64.68
895.082	25.77
895.253	40.11
895.423	52.39
895.594	31.91
895.764	66.73
895.935	-58.2
896.106	-17.24
896.276	-13.14
896.447	-0.85
896.617	3.24
896.788	-47.96
896.958	-0.85
897.129	-4.95
897.299	3.24
897.47	83.11
897.64	-17.24
897.81	-13.14
897.981	15.53
898.151	7.34
898.322	-25.43
898.492	-9.05
898.662	-19.29
898.832	-9.05
899.003	40.11
899.173	91.31
899.343	21.67
899.513	33.96
