Data from USB4F104151__59__14-30-06-980.txt Node

Date: Thu Mar 13 14:30:06 EDT 2025
User: louis
Spectrometer: USB4F10415
Trigger mode: 4
Integration Time (sec): 2.500000E-2
Scans to average: 1
Electric dark correction enabled: true
Nonlinearity correction enabled: false
Boxcar width: 0
XAxis mode: Wavelengths
Number of Pixels in Spectrum: 3648
>>>>>Begin Spectral Data<<<<<
178.204	-106.67
178.424	-106.67
178.644	-106.67
178.864	-121
179.084	-155.82
179.304	22.36
179.524	-8.36
179.744	-22.7
179.964	12.12
180.184	24.4
180.404	83.8
180.624	-8.36
180.844	-30.89
181.064	-28.84
181.283	8.02
181.503	5.97
181.723	-57.51
181.943	-16.55
182.163	87.89
182.383	71.51
182.602	16.21
182.822	67.41
183.042	48.98
183.262	59.22
183.482	10.07
183.701	18.26
183.921	24.4
184.141	-4.27
184.361	94.04
184.58	94.04
184.8	16.21
185.02	1.88
185.239	81.75
185.459	36.69
185.679	81.75
185.898	-37.03
186.118	12.12
186.338	48.98
186.557	24.4
186.777	-32.94
186.997	40.79
187.216	32.6
187.436	46.93
187.655	32.6
187.875	147.28
188.095	75.6
188.314	40.79
188.534	61.27
188.753	48.98
188.973	57.17
189.192	83.8
189.412	73.56
189.631	67.41
189.851	91.99
190.07	139.09
190.29	20.31
190.509	24.4
190.729	59.22
190.948	40.79
191.168	214.87
191.387	12.12
191.607	-39.08
191.826	40.79
192.045	-69.8
192.265	110.42
192.484	3.93
192.704	48.98
192.923	-6.31
193.142	102.23
193.362	51.03
193.581	83.8
193.8	24.4
194.02	122.71
194.239	-2.22
194.458	122.71
194.678	-32.94
194.897	116.56
195.116	-26.79
195.335	-30.89
195.555	-4.27
195.774	12.12
195.993	53.08
196.212	-28.84
196.432	-8.36
196.651	73.56
196.87	110.42
197.089	61.27
197.308	65.36
197.528	81.75
197.747	16.21
197.966	-18.6
198.185	100.18
198.404	91.99
198.623	32.6
198.842	65.36
199.062	73.56
199.281	114.52
199.5	-0.17
199.719	94.04
199.938	51.03
200.157	57.17
200.376	-30.89
200.595	81.75
200.814	81.75
201.033	-26.79
201.252	79.7
201.471	73.56
201.69	81.75
201.909	65.36
202.128	73.56
202.347	34.64
202.566	53.08
202.785	12.12
203.004	-14.51
203.223	130.9
203.442	67.41
203.661	40.79
203.879	38.74
204.098	32.6
204.317	-63.66
204.536	42.84
204.755	44.88
204.974	65.36
205.193	12.12
205.411	122.71
205.63	36.69
205.849	14.17
206.068	-14.51
206.287	81.75
206.505	18.26
206.724	57.17
206.943	24.4
207.162	32.6
207.381	48.98
207.599	44.88
207.818	91.99
208.037	57.17
208.255	-8.36
208.474	73.56
208.693	55.12
208.911	32.6
209.13	65.36
209.349	83.8
209.567	40.79
209.786	143.19
210.005	116.56
210.223	-20.65
210.442	-34.99
210.661	51.03
210.879	94.04
211.098	65.36
211.316	3.93
211.535	10.07
211.753	108.37
211.972	-12.46
212.191	42.84
212.409	18.26
212.628	98.13
212.846	34.64
213.065	12.12
213.283	83.8
213.502	87.89
213.72	8.02
213.938	87.89
214.157	46.93
214.375	18.26
214.594	124.76
214.812	48.98
215.031	16.21
215.249	1.88
215.467	40.79
215.686	65.36
215.904	83.8
216.122	65.36
216.341	20.31
216.559	81.75
216.778	53.08
216.996	3.93
217.214	24.4
217.432	73.56
217.651	32.6
217.869	3.93
218.087	51.03
218.306	46.93
218.524	91.99
218.742	-6.31
218.96	67.41
219.179	57.17
219.397	83.8
219.615	16.21
219.833	79.7
220.051	-0.17
220.27	139.09
220.488	69.46
220.706	87.89
220.924	-0.17
221.142	28.5
221.36	46.93
221.578	28.5
221.796	61.27
222.015	24.4
222.233	16.21
222.451	141.14
222.669	32.6
222.887	75.6
223.105	14.17
223.323	57.17
223.541	-28.84
223.759	104.28
223.977	-26.79
224.195	135
224.413	-16.55
224.631	24.4
224.849	8.02
225.067	48.98
225.285	32.6
225.503	-12.46
225.721	-14.51
225.939	40.79
226.157	73.56
226.375	163.67
226.592	34.64
226.81	-18.6
227.028	114.52
227.246	89.94
227.464	-14.51
227.682	81.75
227.9	-22.7
228.117	57.17
228.335	48.98
228.553	59.22
228.771	-0.17
228.989	34.64
229.206	71.51
229.424	-12.46
229.642	8.02
229.86	-49.32
230.077	32.6
230.295	24.4
230.513	26.45
230.731	1.88
230.948	53.08
231.166	22.36
231.384	10.07
231.601	12.12
231.819	85.84
232.037	32.6
232.254	20.31
232.472	-4.27
232.689	34.64
232.907	75.6
233.125	18.26
233.342	12.12
233.56	87.89
233.777	-8.36
233.995	118.61
234.213	96.08
234.43	98.13
234.648	-16.55
234.865	-26.79
235.083	91.99
235.3	-8.36
235.518	65.36
235.735	55.12
235.953	22.36
236.17	-57.51
236.388	38.74
236.605	40.79
236.822	44.88
237.04	73.56
237.257	77.65
237.475	10.07
237.692	106.32
237.909	48.98
238.127	-37.03
238.344	83.8
238.562	77.65
238.779	-10.41
238.996	-16.55
239.214	5.97
239.431	122.71
239.648	67.41
239.865	24.4
240.083	73.56
240.3	34.64
240.517	34.64
240.735	-4.27
240.952	-6.31
241.169	24.4
241.386	55.12
241.603	57.17
241.821	-14.51
242.038	57.17
242.255	118.61
242.472	10.07
242.689	-8.36
242.907	53.08
243.124	32.6
243.341	59.22
243.558	28.5
243.775	38.74
243.992	30.55
244.209	32.6
244.426	96.08
244.643	108.37
244.86	65.36
245.078	16.21
245.295	8.02
245.512	28.5
245.729	18.26
245.946	3.93
246.163	77.65
246.38	65.36
246.597	-16.55
246.814	81.75
247.031	42.84
247.248	44.88
247.464	108.37
247.681	24.4
247.898	69.46
248.115	61.27
248.332	18.26
248.549	110.42
248.766	67.41
248.983	85.84
249.2	61.27
249.417	89.94
249.633	-0.17
249.85	75.6
250.067	32.6
250.284	16.21
250.501	-2.22
250.717	34.64
250.934	-12.46
251.151	83.8
251.368	-0.17
251.585	106.32
251.801	40.79
252.018	-14.51
252.235	-8.36
252.451	40.79
252.668	20.31
252.885	126.8
253.102	102.23
253.318	-8.36
253.535	20.31
253.752	-2.22
253.968	69.46
254.185	73.56
254.401	-14.51
254.618	44.88
254.835	69.46
255.051	159.57
255.268	16.21
255.484	26.45
255.701	1.88
255.917	67.41
256.134	8.02
256.351	42.84
256.567	32.6
256.784	20.31
257	-4.27
257.217	65.36
257.433	40.79
257.65	126.8
257.866	147.28
258.082	-2.22
258.299	14.17
258.515	79.7
258.732	34.64
258.948	22.36
259.165	57.17
259.381	1.88
259.597	61.27
259.814	-8.36
260.03	14.17
260.246	89.94
260.463	83.8
260.679	-4.27
260.895	3.93
261.112	85.84
261.328	32.6
261.544	69.46
261.761	53.08
261.977	24.4
262.193	-20.65
262.409	73.56
262.626	12.12
262.842	44.88
263.058	96.08
263.274	73.56
263.49	46.93
263.707	16.21
263.923	61.27
264.139	-41.13
264.355	3.93
264.571	118.61
264.787	8.02
265.004	116.56
265.22	75.6
265.436	61.27
265.652	-0.17
265.868	12.12
266.084	24.4
266.3	51.03
266.516	-24.75
266.732	46.93
266.948	16.21
267.164	73.56
267.38	16.21
267.596	55.12
267.812	65.36
268.028	137.04
268.244	-12.46
268.46	40.79
268.676	-14.51
268.892	57.17
269.108	-16.55
269.324	120.66
269.54	-20.65
269.756	106.32
269.972	-14.51
270.188	-0.17
270.403	-12.46
270.619	73.56
270.835	8.02
271.051	48.98
271.267	-49.32
271.483	-0.17
271.698	-2.22
271.914	-4.27
272.13	59.22
272.346	40.79
272.562	24.4
272.777	98.13
272.993	24.4
273.209	28.5
273.425	1.88
273.64	28.5
273.856	48.98
274.072	18.26
274.287	51.03
274.503	-2.22
274.719	-4.27
274.934	71.51
275.15	-73.9
275.366	16.21
275.581	36.69
275.797	-16.55
276.012	55.12
276.228	40.79
276.444	18.26
276.659	30.55
276.875	22.36
277.09	32.6
277.306	-2.22
277.521	83.8
277.737	48.98
277.952	61.27
278.168	77.65
278.383	94.04
278.599	10.07
278.814	18.26
279.03	42.84
279.245	91.99
279.461	65.36
279.676	65.36
279.892	-30.89
280.107	40.79
280.322	14.17
280.538	69.46
280.753	24.4
280.969	65.36
281.184	24.4
281.399	98.13
281.615	24.4
281.83	106.32
282.045	-69.8
282.26	32.6
282.476	44.88
282.691	46.93
282.906	69.46
283.122	-8.36
283.337	26.45
283.552	24.4
283.767	53.08
283.983	18.26
284.198	57.17
284.413	42.84
284.628	65.36
284.843	51.03
285.058	71.51
285.274	-6.31
285.489	40.79
285.704	24.4
285.919	3.93
286.134	59.22
286.349	34.64
286.564	10.07
286.779	24.4
286.995	8.02
287.21	-10.41
287.425	61.27
287.64	-24.75
287.855	89.94
288.07	-16.55
288.285	28.5
288.5	24.4
288.715	28.5
288.93	-18.6
289.145	-32.94
289.36	-14.51
289.575	44.88
289.79	75.6
290.004	42.84
290.219	153.43
290.434	-12.46
290.649	53.08
290.864	48.98
291.079	67.41
291.294	-28.84
291.509	73.56
291.724	98.13
291.938	57.17
292.153	83.8
292.368	-8.36
292.583	18.26
292.798	32.6
293.012	-10.41
293.227	18.26
293.442	48.98
293.657	16.21
293.871	75.6
294.086	63.32
294.301	81.75
294.516	116.56
294.73	22.36
294.945	1.88
295.16	16.21
295.374	130.9
295.589	81.75
295.804	98.13
296.018	-8.36
296.233	87.89
296.447	81.75
296.662	1.88
296.877	98.13
297.091	3.93
297.306	75.6
297.52	22.36
297.735	36.69
297.949	67.41
298.164	18.26
298.378	20.31
298.593	-28.84
298.807	67.41
299.022	48.98
299.236	89.94
299.451	81.75
299.665	10.07
299.88	8.02
300.094	122.71
300.309	98.13
300.523	65.36
300.737	-2.22
300.952	-45.23
301.166	155.47
301.381	3.93
301.595	16.21
301.809	112.47
302.024	36.69
302.238	55.12
302.452	102.23
302.667	3.93
302.881	53.08
303.095	51.03
303.309	26.45
303.524	65.36
303.738	8.02
303.952	-24.75
304.166	3.93
304.381	-82.09
304.595	184.15
304.809	-32.94
305.023	180.05
305.237	24.4
305.452	-41.13
305.666	65.36
305.88	-14.51
306.094	34.64
306.308	-28.84
306.522	22.36
306.736	32.6
306.95	100.18
307.164	-47.27
307.379	75.6
307.593	81.75
307.807	8.02
308.021	40.79
308.235	55.12
308.449	-20.65
308.663	-0.17
308.877	130.9
309.091	89.94
309.305	98.13
309.519	85.84
309.733	83.8
309.947	14.17
310.161	98.13
310.374	18.26
310.588	108.37
310.802	-28.84
311.016	44.88
311.23	124.76
311.444	30.55
311.658	63.32
311.872	106.32
312.085	124.76
312.299	67.41
312.513	75.6
312.727	44.88
312.941	53.08
313.154	69.46
313.368	61.27
313.582	89.94
313.796	36.69
314.009	89.94
314.223	53.08
314.437	40.79
314.651	44.88
314.864	63.32
315.078	44.88
315.292	69.46
315.505	59.22
315.719	46.93
315.933	77.65
316.146	89.94
316.36	-16.55
316.573	122.71
316.787	106.32
317.001	59.22
317.214	40.79
317.428	48.98
317.641	-24.75
317.855	26.45
318.068	51.03
318.282	65.36
318.495	61.27
318.709	106.32
318.922	48.98
319.136	89.94
319.349	130.9
319.563	16.21
319.776	137.04
319.99	-16.55
320.203	106.32
320.417	36.69
320.63	57.17
320.843	143.19
321.057	-2.22
321.27	24.4
321.483	102.23
321.697	135
321.91	16.21
322.124	57.17
322.337	-41.13
322.55	51.03
322.763	3.93
322.977	-6.31
323.19	16.21
323.403	65.36
323.617	116.56
323.83	77.65
324.043	-30.89
324.256	77.65
324.469	73.56
324.683	100.18
324.896	28.5
325.109	114.52
325.322	8.02
325.535	77.65
325.748	108.37
325.962	81.75
326.175	81.75
326.388	130.9
326.601	26.45
326.814	110.42
327.027	40.79
327.24	110.42
327.453	-22.7
327.666	40.79
327.879	79.7
328.092	34.64
328.305	89.94
328.518	-10.41
328.731	1.88
328.944	69.46
329.157	24.4
329.37	69.46
329.583	104.28
329.796	149.33
330.009	-16.55
330.222	130.9
330.435	83.8
330.648	73.56
330.861	67.41
331.073	69.46
331.286	106.32
331.499	22.36
331.712	-61.61
331.925	26.45
332.138	108.37
332.35	87.89
332.563	26.45
332.776	59.22
332.989	-28.84
333.202	116.56
333.414	12.12
333.627	81.75
333.84	-14.51
334.053	16.21
334.265	46.93
334.478	14.17
334.691	24.4
334.903	53.08
335.116	53.08
335.329	57.17
335.541	89.94
335.754	155.47
335.966	12.12
336.179	-8.36
336.392	102.23
336.604	-6.31
336.817	12.12
337.029	26.45
337.242	48.98
337.454	65.36
337.667	34.64
337.88	67.41
338.092	102.23
338.305	98.13
338.517	61.27
338.729	91.99
338.942	85.84
339.154	71.51
339.367	69.46
339.579	114.52
339.792	-12.46
340.004	85.84
340.217	61.27
340.429	81.75
340.641	32.6
340.854	-14.51
341.066	-39.08
341.278	10.07
341.491	83.8
341.703	42.84
341.915	12.12
342.128	139.09
342.34	36.69
342.552	51.03
342.764	34.64
342.977	8.02
343.189	91.99
343.401	55.12
343.613	14.17
343.826	-10.41
344.038	65.36
344.25	-16.55
344.462	20.31
344.674	55.12
344.886	110.42
345.099	102.23
345.311	-8.36
345.523	102.23
345.735	-20.65
345.947	108.37
346.159	81.75
346.371	36.69
346.583	-0.17
346.795	40.79
347.007	85.84
347.219	69.46
347.431	20.31
347.643	69.46
347.855	3.93
348.067	61.27
348.279	-0.17
348.491	73.56
348.703	32.6
348.915	28.5
349.127	28.5
349.339	44.88
349.551	8.02
349.763	71.51
349.975	147.28
350.187	106.32
350.399	128.85
350.61	28.5
350.822	104.28
351.034	81.75
351.246	48.98
351.458	40.79
351.669	77.65
351.881	57.17
352.093	65.36
352.305	106.32
352.517	32.6
352.728	24.4
352.94	75.6
353.152	85.84
353.363	16.21
353.575	16.21
353.787	85.84
353.999	98.13
354.21	110.42
354.422	85.84
354.633	40.79
354.845	-4.27
355.057	36.69
355.268	28.5
355.48	65.36
355.692	18.26
355.903	128.85
356.115	8.02
356.326	130.9
356.538	139.09
356.749	83.8
356.961	114.52
357.172	149.33
357.384	69.46
357.595	137.04
357.807	-12.46
358.018	24.4
358.23	67.41
358.441	53.08
358.653	106.32
358.864	16.21
359.075	38.74
359.287	89.94
359.498	14.17
359.709	44.88
359.921	94.04
360.132	85.84
360.344	94.04
360.555	34.64
360.766	81.75
360.977	36.69
361.189	118.61
361.4	69.46
361.611	51.03
361.823	114.52
362.034	65.36
362.245	32.6
362.456	94.04
362.667	44.88
362.879	59.22
363.09	-10.41
363.301	141.14
363.512	24.4
363.723	114.52
363.935	34.64
364.146	85.84
364.357	102.23
364.568	65.36
364.779	28.5
364.99	65.36
365.201	106.32
365.412	61.27
365.623	-14.51
365.834	96.08
366.045	-0.17
366.256	81.75
366.467	57.17
366.678	65.36
366.889	83.8
367.1	40.79
367.311	96.08
367.522	-16.55
367.733	-20.65
367.944	81.75
368.155	8.02
368.366	71.51
368.577	24.4
368.788	104.28
368.999	-65.71
369.209	73.56
369.42	51.03
369.631	18.26
369.842	106.32
370.053	73.56
370.264	73.56
370.474	24.4
370.685	-8.36
370.896	83.8
371.107	100.18
371.317	40.79
371.528	91.99
371.739	67.41
371.95	73.56
372.16	71.51
372.371	-16.55
372.582	48.98
372.792	85.84
373.003	65.36
373.214	22.36
373.424	38.74
373.635	42.84
373.846	61.27
374.056	34.64
374.267	96.08
374.477	71.51
374.688	98.13
374.898	75.6
375.109	10.07
375.319	85.84
375.53	69.46
375.74	77.65
375.951	40.79
376.161	1.88
376.372	96.08
376.582	53.08
376.793	100.18
377.003	-6.31
377.214	5.97
377.424	44.88
377.635	48.98
377.845	8.02
378.055	91.99
378.266	65.36
378.476	94.04
378.686	87.89
378.897	28.5
379.107	40.79
379.317	100.18
379.528	-6.31
379.738	112.47
379.948	98.13
380.158	132.95
380.369	36.69
380.579	110.42
380.789	38.74
380.999	77.65
381.21	106.32
381.42	139.09
381.63	34.64
381.84	81.75
382.05	57.17
382.261	100.18
382.471	139.09
382.681	81.75
382.891	106.32
383.101	106.32
383.311	71.51
383.521	53.08
383.731	75.6
383.941	81.75
384.151	36.69
384.361	65.36
384.571	14.17
384.781	67.41
384.991	135
385.201	130.9
385.411	106.32
385.621	85.84
385.831	77.65
386.041	42.84
386.251	51.03
386.461	81.75
386.671	75.6
386.881	51.03
387.091	69.46
387.301	135
387.511	145.24
387.72	48.98
387.93	48.98
388.14	44.88
388.35	57.17
388.56	73.56
388.769	12.12
388.979	59.22
389.189	67.41
389.399	61.27
389.609	132.95
389.818	214.87
390.028	137.04
390.238	98.13
390.447	87.89
390.657	81.75
390.867	100.18
391.076	16.21
391.286	67.41
391.496	20.31
391.705	65.36
391.915	106.32
392.125	159.57
392.334	100.18
392.544	98.13
392.753	34.64
392.963	57.17
393.172	91.99
393.382	24.4
393.591	163.67
393.801	106.32
394.01	126.8
394.22	48.98
394.429	159.57
394.639	108.37
394.848	46.93
395.058	94.04
395.267	124.76
395.477	171.86
395.686	69.46
395.895	196.43
396.105	264.02
396.314	59.22
396.524	200.53
396.733	51.03
396.942	149.33
397.152	106.32
397.361	100.18
397.57	65.36
397.78	171.86
397.989	186.19
398.198	198.48
398.407	114.52
398.617	73.56
398.826	114.52
399.035	77.65
399.244	116.56
399.453	139.09
399.663	132.95
399.872	196.43
400.081	155.47
400.29	139.09
400.499	108.37
400.708	184.15
400.917	91.99
401.127	212.82
401.336	81.75
401.545	145.24
401.754	100.18
401.963	180.05
402.172	145.24
402.381	73.56
402.59	126.8
402.799	198.48
403.008	120.66
403.217	141.14
403.426	102.23
403.635	100.18
403.844	130.9
404.053	139.09
404.262	126.8
404.471	196.43
404.68	188.24
404.888	223.06
405.097	157.52
405.306	159.57
405.515	239.44
405.724	171.86
405.933	225.11
406.142	237.39
406.35	196.43
406.559	188.24
406.768	188.24
406.977	173.91
407.185	257.87
407.394	286.54
407.603	216.91
407.812	270.16
408.02	270.16
408.229	395.09
408.438	243.54
408.646	253.78
408.855	329.55
409.064	241.49
409.272	274.26
409.481	290.64
409.69	341.84
409.898	282.45
410.107	399.18
410.315	411.47
410.524	280.4
410.733	452.43
410.941	360.27
411.15	411.47
411.358	452.43
411.567	481.1
411.775	440.14
411.984	481.1
412.192	487.25
412.401	503.63
412.609	548.68
412.818	646.99
413.026	606.03
413.234	550.73
413.443	655.18
413.651	606.03
413.86	700.23
414.068	687.95
414.276	714.57
414.485	769.87
414.693	829.26
414.901	841.54
415.11	855.88
415.318	847.69
415.526	814.92
415.734	900.94
415.943	902.98
416.151	1103.68
416.359	1038.15
416.567	1050.44
416.776	1132.36
416.984	1107.78
417.192	1146.69
417.4	1220.42
417.608	1199.94
417.817	1269.57
418.025	1320.77
418.233	1398.59
418.441	1384.26
418.649	1439.55
418.857	1587.01
419.065	1597.24
419.273	1544
419.481	1705.79
419.689	1742.65
419.897	1828.67
420.105	1795.9
420.313	1998.65
420.521	1982.26
420.729	2017.08
420.937	2015.03
421.145	2158.39
421.353	2219.83
421.561	2346.8
421.769	2457.39
421.977	2393.9
422.185	2598.7
422.393	2752.3
422.601	2756.4
422.809	2852.65
423.017	2742.06
423.224	2858.79
423.432	3026.73
423.64	3045.16
423.848	3385.12
424.056	3196.71
424.263	3325.73
424.471	3505.95
424.679	3440.42
424.887	3716.89
425.094	3876.63
425.302	3964.7
425.51	3964.7
425.718	4144.92
425.925	4196.12
426.133	4245.27
426.341	4583.18
426.548	4718.35
426.756	4556.56
426.964	4882.19
427.171	5162.76
427.379	5244.68
427.586	5361.41
427.794	5465.86
428.001	5701.37
428.209	6008.57
428.417	5850.88
428.624	6348.53
428.832	6192.89
429.039	6164.22
429.247	6137.59
429.454	6864.62
429.662	7284.45
429.869	6792.94
430.076	7347.94
430.284	7046.89
430.491	7565.03
430.699	7775.97
430.906	7792.35
431.114	7919.32
431.321	8199.9
431.528	8238.81
431.736	8828.62
431.943	9252.55
432.15	8896.21
432.358	9086.67
432.565	9725.63
432.772	9701.06
432.979	10090.17
433.187	10127.03
433.394	10184.38
433.601	10954.41
433.808	10960.56
434.016	10741.43
434.223	11153.07
434.43	12041.89
434.637	11945.63
434.844	12580.5
435.052	12492.44
435.259	12756.63
435.466	12881.55
435.673	12820.11
435.88	13450.89
436.087	14139.01
436.294	14048.89
436.501	13706.88
436.708	14220.92
436.915	14370.43
437.122	15296.11
437.329	15036.02
437.537	15687.27
437.743	15707.75
437.95	15599.21
438.157	16451.16
438.364	17272.4
438.571	16952.91
438.778	17096.27
438.985	18830.9
439.192	18026.05
439.399	18495.04
439.606	18325.05
439.813	19086.9
440.02	20082.21
440.227	19996.2
440.433	19867.17
440.64	20368.93
440.847	19942.95
441.054	20543
441.261	22066.69
441.467	21894.66
441.674	22044.16
441.881	22969.85
442.088	22908.41
442.294	22779.39
442.501	23217.65
442.708	23631.34
442.914	24503.78
443.121	25564.62
443.328	25048.54
443.534	26746.3
443.741	26310.08
443.948	25736.65
444.154	27559.34
444.361	27348.4
444.568	27542.96
444.774	27499.95
444.981	28026.28
445.187	28655.01
445.394	29889.93
445.6	29572.5
445.807	32429.41
446.013	30750.08
446.22	31724.91
446.426	32654.69
446.633	33109.34
446.839	33602.9
447.046	32619.88
447.252	34268.49
447.459	34344.27
447.665	34266.44
447.871	36066.61
448.078	37432.6
448.284	35339.58
448.491	36386.09
448.697	37848.34
448.903	38405.39
449.11	38362.38
449.316	38305.04
449.522	38743.3
449.728	39642.36
449.935	39808.25
450.141	40109.3
450.347	40905.96
450.553	39660.79
450.76	40273.13
450.966	41333.98
451.172	40772.84
451.378	41960.66
451.584	41180.38
451.791	42038.48
451.997	42226.9
452.203	42618.06
452.409	42708.17
452.615	42478.8
452.821	40957.16
453.027	40559.85
453.233	42452.17
453.44	40852.71
453.646	41536.73
453.852	41704.66
454.058	42226.9
454.264	40930.53
454.47	41805.02
454.676	40764.65
454.882	42239.18
455.088	38276.37
455.294	39423.23
455.5	39619.83
455.705	40367.34
455.911	38546.7
456.117	38270.22
456.323	37342.49
456.529	35265.85
456.735	36850.98
456.941	36101.42
457.147	35388.73
457.352	34329.93
457.558	33906
457.764	33981.77
457.97	33410.39
458.176	32453.99
458.381	32720.23
458.587	30717.31
458.793	31251.83
458.999	29599.12
459.204	31116.67
459.41	30829.95
459.616	28472.74
459.821	28628.38
460.027	28720.54
460.233	27643.31
460.438	26404.29
460.644	27065.78
460.85	25386.45
461.055	24829.4
461.261	25144.79
461.466	23299.57
461.672	22334.98
461.878	24067.56
462.083	22572.54
462.289	21904.9
462.494	21665.29
462.7	21042.71
462.905	20215.33
463.111	21110.29
463.316	21136.91
463.522	20663.83
463.727	20536.86
463.932	20520.48
464.138	20266.53
464.343	20448.8
464.549	19445.29
464.754	20469.28
464.959	20031.01
465.165	20168.23
465.37	19177.01
465.575	18646.58
465.781	19435.05
465.986	19600.94
466.191	18574.91
466.397	18468.41
466.602	17661.51
466.807	17976.9
467.012	18028.1
467.218	17751.62
467.423	17987.14
467.628	17880.64
467.833	18701.88
468.038	18325.05
468.244	17477.19
468.449	18157.12
468.654	17446.48
468.859	17366.6
469.064	17339.98
469.269	16152.16
469.474	16668.25
469.679	17055.31
469.885	16485.98
470.09	16774.74
470.295	16531.03
470.5	16023.14
470.705	16174.69
470.91	15961.7
471.115	15785.57
471.32	16244.32
471.525	15867.49
471.73	15588.97
471.935	15474.28
472.139	14982.77
472.344	14837.36
472.549	14966.38
472.754	14917.23
472.959	14372.47
473.164	14065.28
473.369	13979.26
473.574	14372.47
473.778	14714.48
473.983	14315.13
474.188	14227.07
474.393	13387.4
474.598	13309.58
474.802	13375.11
475.007	13121.17
475.212	13450.89
475.417	12967.57
475.621	12807.83
475.826	12904.08
476.031	12600.98
476.235	12410.52
476.44	12844.69
476.645	12408.47
476.849	12289.69
477.054	12265.11
477.259	11986.59
477.463	11966.11
477.668	11886.24
477.872	11912.86
478.077	11775.65
478.282	11427.49
478.486	11196.07
478.691	11251.37
478.895	11249.32
479.1	11124.4
479.304	11169.45
479.509	10819.25
479.713	11173.55
479.918	10917.55
480.122	10727.09
480.326	10731.19
480.531	10751.67
480.735	10608.31
480.94	10561.2
481.144	10755.76
481.348	10610.36
481.553	10411.7
481.757	10383.03
481.961	10440.37
482.166	10538.68
482.37	10596.02
482.574	10391.22
482.778	10327.74
482.983	10497.72
483.187	10368.7
483.391	10364.6
483.595	10286.78
483.8	10284.73
484.004	10430.13
484.208	10559.16
484.412	10264.25
484.616	10145.47
484.821	10188.47
485.025	9969.34
485.229	10376.89
485.433	10135.23
485.637	10270.39
485.841	10194.62
486.045	10104.51
486.249	10116.79
486.453	9971.39
486.657	10378.93
486.861	10313.4
487.065	9725.63
487.269	10157.75
487.473	9914.05
487.677	10176.19
487.881	10264.25
488.085	10153.66
488.289	10102.46
488.493	10235.58
488.697	10174.14
488.901	10157.75
489.105	10182.33
489.309	10217.15
489.512	10215.1
489.716	10356.41
489.92	10141.37
490.124	10264.25
490.328	10350.26
490.531	10190.52
490.735	10415.8
490.939	10426.04
491.143	10100.41
491.346	10280.63
491.55	10606.26
491.754	10530.48
491.958	10628.79
492.161	10626.74
492.365	10419.89
492.569	10419.89
492.772	10555.06
492.976	10608.31
493.18	10596.02
493.383	10628.79
493.587	10806.96
493.79	10978.99
493.994	10727.09
494.197	10845.87
494.401	11075.24
494.605	10985.13
494.808	11165.35
495.012	11212.46
495.215	11273.9
495.419	11243.18
495.622	11298.47
495.825	11284.14
496.029	11392.68
496.232	11890.34
496.436	11411.11
496.639	12011.17
496.843	11824.8
497.046	11882.14
497.249	12205.72
497.453	12220.06
497.656	12215.96
497.859	12480.15
498.063	12361.37
498.266	12766.87
498.469	12869.26
498.673	12967.57
498.876	13039.25
499.079	13147.79
499.282	13051.53
499.485	13346.44
499.689	13389.45
499.892	13610.63
500.095	13794.95
500.298	13887.11
500.501	13885.06
500.705	13870.72
500.908	14188.16
501.111	14311.03
501.314	14614.13
501.517	14507.64
501.72	14489.21
501.923	14841.46
502.126	14911.09
502.329	15271.53
502.532	15392.36
502.735	15543.91
502.938	15908.45
503.141	15904.35
503.344	16107.1
503.547	16234.08
503.75	16426.59
503.953	16553.56
504.156	16797.27
504.359	16756.31
504.562	16969.3
504.765	17100.37
504.968	17151.57
505.17	17417.8
505.373	17653.32
505.576	17843.78
505.779	18130.5
505.982	17946.18
506.185	18341.44
506.387	18263.61
506.59	18513.47
506.793	18902.58
506.996	18955.83
507.198	19584.55
507.401	19322.41
507.604	19572.27
507.807	19830.31
508.009	20151.84
508.212	20205.09
508.415	20452.89
508.617	20688.41
508.82	20772.38
509.022	20710.94
509.225	21116.44
509.428	21376.53
509.63	21579.28
509.833	21698.06
510.035	22169.09
510.238	22113.8
510.44	22474.24
510.643	22834.68
510.845	23027.19
511.048	22666.75
511.25	23215.6
511.453	23064.05
511.655	23834.09
511.858	23985.64
512.06	24022.5
512.262	24294.88
512.465	24477.15
512.667	24770.01
512.87	24638.94
513.072	25093.59
513.274	25394.64
513.477	25726.41
513.679	25714.12
513.881	25896.39
514.084	26367.43
514.286	26404.29
514.488	26648
514.69	27051.45
514.893	27157.94
515.095	27346.36
515.297	27311.54
515.499	27751.85
515.701	27866.54
515.904	28143.02
516.106	28442.02
516.308	28528.03
516.51	29042.07
516.712	29144.47
516.914	29728.14
517.116	29791.63
517.318	29672.85
517.52	30168.46
517.722	30037.39
517.925	30725.5
518.127	31012.22
518.329	30936.45
518.531	31124.86
518.733	31614.32
518.935	31470.97
519.136	31378.81
519.338	32363.88
519.54	32066.92
519.742	32601.44
519.944	32544.1
520.146	33000.8
520.348	32912.74
520.55	33437.02
520.752	32855.39
520.954	33711.44
521.155	33398.1
521.357	33983.82
521.559	34084.17
521.761	34452.81
521.963	34579.78
522.164	34635.08
522.366	34837.83
522.568	35038.53
522.77	34692.42
522.971	35702.07
523.173	35292.47
523.375	35362.11
523.576	35577.14
523.778	35652.92
523.98	36134.19
524.181	36068.65
524.383	36068.65
524.584	36551.98
524.786	36605.22
524.988	36441.39
525.189	37014.82
525.391	36822.31
525.592	36898.08
525.794	36959.52
525.995	37283.1
526.197	36947.23
526.398	37565.72
526.6	37152.03
526.801	37326.11
527.003	37299.48
527.204	37352.73
527.406	37428.51
527.607	37610.78
527.808	37688.6
528.01	37287.2
528.211	37672.21
528.412	38339.85
528.614	38063.38
528.815	37664.02
529.016	38309.13
529.218	37625.11
529.419	37874.96
529.62	37657.88
529.822	37989.65
530.023	37909.78
530.224	37645.59
530.425	37721.37
530.626	37567.77
530.828	37649.69
531.029	38298.89
531.23	37516.57
531.431	37657.88
531.632	37547.29
531.833	37924.11
532.035	37965.07
532.236	37997.84
532.437	37629.21
532.638	37485.85
532.839	37719.32
533.04	37791
533.241	37678.36
533.442	37846.29
533.643	37463.32
533.844	37125.41
534.045	37625.11
534.246	37266.72
534.447	37539.1
534.648	37221.66
534.849	37272.86
535.05	37109.02
535.251	37287.2
535.451	37106.98
535.652	37485.85
535.853	37242.14
536.054	37186.85
536.255	37086.5
536.456	36728.1
536.657	37834
536.857	36730.15
537.058	36637.99
537.259	37313.82
537.46	36918.56
537.66	36566.31
537.861	36803.88
538.062	36906.27
538.263	36678.95
538.463	36338.99
538.664	36535.59
538.865	36910.37
539.065	36824.36
539.266	36488.49
539.466	36492.58
539.667	36087.09
539.868	37106.98
540.068	36439.34
540.269	36209.96
540.469	36353.32
540.67	36283.69
540.87	36162.86
541.071	36353.32
541.271	36476.2
541.472	35878.19
541.672	35919.15
541.873	36023.6
542.073	35546.42
542.274	36203.82
542.474	36027.7
542.675	35880.24
542.875	36173.1
543.075	36060.46
543.276	35611.96
543.476	36541.74
543.676	36154.67
543.877	36087.09
544.077	35906.87
544.277	35872.05
544.478	35661.11
544.678	36232.49
544.878	35609.91
545.078	36011.31
545.279	35505.46
545.479	35536.18
545.679	35880.24
545.879	36029.74
546.079	35781.94
546.28	35548.47
546.48	35482.94
546.68	35745.08
546.88	35667.25
547.08	35790.13
547.28	35605.81
547.48	35755.32
547.68	35898.67
547.88	35484.98
548.081	35896.63
548.281	35665.21
548.481	35769.65
548.681	35759.41
548.881	35687.73
549.081	35679.54
549.28	35691.83
549.48	35712.31
549.68	35380.54
549.88	35945.78
550.08	35284.28
550.28	36052.27
550.48	35630.39
550.68	35820.85
550.88	35781.94
551.08	35673.4
551.279	35585.33
551.479	35829.04
551.679	35753.27
551.879	35781.94
552.079	36101.42
552.278	35708.21
552.478	35796.28
552.678	35769.65
552.878	35999.02
553.077	35636.53
553.277	35272
553.477	35757.36
553.676	35601.72
553.876	35560.76
554.076	35800.37
554.275	35853.62
554.475	35466.55
554.674	36203.82
554.874	36052.27
555.074	35683.64
555.273	35917.11
555.473	36175.15
555.672	35974.45
555.872	36089.13
556.071	35913.01
556.271	36304.17
556.47	36044.08
556.67	35511.61
556.869	35663.16
557.068	36279.6
557.268	36035.89
557.467	35730.74
557.667	35804.47
557.866	36037.94
558.065	35898.67
558.265	35943.73
558.464	35822.9
558.663	36226.35
558.863	35587.38
559.062	36408.62
559.261	35736.88
559.461	36621.61
559.66	35702.07
559.859	35814.71
560.058	35704.12
560.258	35378.49
560.457	35398.97
560.656	36007.22
560.855	35943.73
561.054	36281.64
561.253	35478.84
561.453	35736.88
561.652	36240.68
561.851	36095.28
562.05	35736.88
562.249	35745.08
562.448	35894.58
562.647	35943.73
562.846	35923.25
563.045	35740.98
563.244	35564.85
563.443	35958.06
563.642	35181.88
563.841	35648.82
564.04	35312.95
564.239	35652.92
564.438	35464.5
564.637	35620.15
564.836	35802.42
565.035	35165.5
565.234	35362.11
565.432	35296.57
565.631	35470.65
565.83	35329.34
566.029	34823.49
566.228	34864.45
566.427	35177.79
566.625	34907.46
566.824	34661.7
567.023	35085.63
567.222	34436.42
567.42	35417.4
567.619	35069.25
567.818	34909.5
568.016	34852.16
568.215	35067.2
568.414	34872.64
568.612	34927.94
568.811	34559.3
569.01	34270.54
569.208	34270.54
569.407	34471.24
569.605	34071.89
569.804	34764.1
570.002	34172.24
570.201	34592.07
570.4	33842.51
570.598	33877.33
570.797	33813.84
570.995	33574.23
571.193	33174.88
571.392	33656.15
571.59	33398.1
571.789	33650
571.987	33328.47
572.186	33301.85
572.384	32857.44
572.582	33631.57
572.781	33379.67
572.979	33142.11
573.177	33185.11
573.376	33107.29
573.574	33060.19
573.772	33121.63
573.971	32728.42
574.169	32632.16
574.367	32443.75
574.565	32576.87
574.763	32302.44
574.962	32195.95
575.16	32222.57
575.358	32443.75
575.556	31538.55
575.754	32552.29
575.952	31710.58
576.151	32171.37
576.349	31800.69
576.547	31755.63
576.745	31556.98
576.943	31503.73
577.141	31356.28
577.339	31479.16
577.537	31075.71
577.735	31286.65
577.933	31262.07
578.131	31430.01
578.329	31100.28
578.527	30709.12
578.725	30784.9
578.923	31139.19
579.121	30795.14
579.319	30606.72
579.516	30641.54
579.714	30055.82
579.912	30342.53
580.11	30217.61
580.308	30021
580.506	30533
580.704	29549.97
580.901	30047.63
581.099	30467.46
581.297	29916.56
581.495	29955.47
581.692	30066.06
581.89	29455.76
582.088	29996.43
582.285	29609.36
582.483	29377.94
582.681	29724.05
582.878	29490.58
583.076	29224.34
583.274	29463.96
583.471	28837.28
583.669	28937.63
583.866	28831.13
584.064	29005.21
584.262	28884.38
584.459	29007.26
584.657	28724.64
584.854	29150.62
585.052	28329.38
585.249	28775.84
585.447	28632.48
585.644	28403.11
585.841	28231.08
586.039	28538.27
586.236	27874.73
586.434	28100.01
586.631	27911.6
586.828	28083.62
587.026	28241.32
587.223	27938.22
587.42	27788.72
587.618	27637.17
587.815	27477.43
588.012	27467.19
588.21	27598.26
588.407	27735.47
588.604	27278.77
588.801	27252.15
588.999	27569.58
589.196	27205.05
589.393	27274.68
589.59	27348.4
589.787	26895.8
589.984	26903.99
590.182	26752.45
590.379	27211.19
590.576	26918.33
590.773	26998.2
590.97	26697.15
591.167	26828.22
591.364	26504.64
591.561	26670.53
591.758	26426.82
591.955	26432.96
592.152	26488.26
592.349	26463.68
592.546	26602.94
592.743	26516.93
592.94	26006.98
593.137	26084.81
593.334	26252.74
593.531	25732.56
593.727	26230.21
593.924	26330.56
594.121	25753.04
594.318	26297.8
594.515	25808.33
594.712	25597.39
594.908	25923.02
595.105	26054.09
595.302	25730.51
595.499	25669.07
595.696	25898.44
595.892	25437.65
596.089	25845.19
596.286	25949.64
596.482	25660.88
596.679	25675.21
596.876	25650.64
597.072	25599.44
597.269	25417.17
597.466	25376.21
597.662	25169.37
597.859	25511.38
598.055	25337.3
598.252	25308.63
598.448	25425.36
598.645	25138.65
598.841	25271.76
599.038	25552.34
599.234	25214.42
599.431	24978.9
599.627	25214.42
599.824	25339.35
600.02	25210.32
600.217	25269.72
600.413	25071.06
600.609	24718.81
600.806	25175.51
601.002	24903.13
601.198	24968.66
601.395	25116.12
601.591	25150.93
601.787	24974.81
601.984	25032.15
602.18	25064.92
602.376	24966.62
602.572	25148.89
602.769	25128.41
602.965	25032.15
603.161	25327.06
603.357	25066.97
603.553	25054.68
603.75	24907.23
603.946	25017.82
604.142	25236.95
604.338	24763.87
604.534	25150.93
604.73	24907.23
604.926	24905.18
605.122	25234.9
605.318	25316.82
605.514	24931.8
605.71	24765.92
605.906	25159.13
606.102	25390.55
606.298	25155.03
606.494	25077.21
606.69	25097.69
606.886	25509.33
607.082	25019.86
607.278	25429.46
607.474	25185.75
607.67	25464.27
607.866	24714.72
608.062	25277.91
608.257	25155.03
608.453	25566.67
608.649	25484.75
608.845	25126.36
609.041	25228.76
609.236	25587.15
609.432	25490.9
609.628	25257.43
609.824	25294.29
610.019	25521.62
610.215	25607.63
610.411	25564.62
610.606	25671.12
610.802	25505.23
610.998	25660.88
611.193	25820.62
611.389	25822.67
611.584	25796.04
611.78	25517.52
611.976	25869.77
612.171	25939.4
612.367	25841.1
612.562	25681.36
612.758	25617.87
612.953	25783.76
613.149	25867.72
613.344	25431.51
613.539	25828.81
613.735	25869.77
613.93	26011.08
614.126	25759.18
614.321	26142.15
614.517	25734.6
614.712	26015.18
614.907	25642.45
615.103	26023.37
615.298	25734.6
615.493	26000.84
615.688	25611.73
615.884	26207.69
616.079	25576.91
616.274	25877.96
616.47	25761.23
616.665	25894.35
616.86	25947.59
617.055	25669.07
617.25	25884.11
617.445	26011.08
617.641	25415.12
617.836	25525.71
618.031	25712.08
618.226	25753.04
618.421	25640.4
618.616	25857.48
618.811	25271.76
619.006	25978.31
619.201	25466.32
619.396	25646.54
619.591	24968.66
619.786	25298.39
619.981	24997.34
620.176	25456.08
620.371	24911.32
620.566	25193.94
620.761	24583.65
620.956	24784.35
621.151	24737.24
621.346	24759.77
621.541	24225.25
621.735	24675.8
621.93	24341.99
622.125	24405.47
622.32	24167.91
622.515	24137.19
622.709	23905.77
622.904	24184.29
623.099	24022.5
623.294	23956.97
623.488	23756.27
623.683	23510.51
623.878	23227.89
624.072	23285.23
624.267	23586.29
624.462	22943.22
624.656	23125.49
624.851	23105.01
625.046	22883.83
625.24	22765.05
625.435	22791.67
625.629	22722.04
625.824	22400.51
626.018	22273.54
626.213	21839.37
626.407	22267.39
626.602	21894.66
626.796	22195.71
626.991	21753.35
627.185	21835.27
627.38	21472.78
627.574	21417.49
627.768	21544.46
627.963	21392.91
628.157	21315.09
628.352	21356.05
628.546	20913.69
628.74	21110.29
628.935	20923.93
629.129	20891.16
629.323	20794.9
629.517	20606.49
629.712	20477.47
629.906	20407.84
630.1	20055.59
630.294	20244
630.489	19945
630.683	20145.7
630.877	19967.52
631.071	19762.73
631.265	19873.32
631.459	19631.66
631.653	19660.33
631.848	19482.16
632.042	19631.66
632.236	19398.19
632.43	19203.63
632.624	19047.99
632.818	19062.32
633.012	18978.36
633.206	18822.71
633.4	18740.79
633.594	18474.56
633.788	18726.46
633.982	18662.97
634.176	18603.58
634.369	18290.24
634.563	18169.41
634.757	18261.57
634.951	18097.73
635.145	18013.76
635.339	17731.14
635.533	17890.88
635.726	17749.57
635.92	17540.68
636.114	17624.65
636.308	17559.11
636.501	17466.95
636.695	17270.35
636.889	17192.53
637.083	17114.7
637.276	16977.49
637.47	16787.03
637.664	16645.72
637.857	16711.25
638.051	16854.61
638.244	16692.82
638.438	16377.44
638.632	16340.57
638.825	16084.58
639.019	16016.99
639.212	15883.87
639.406	16047.71
639.599	16121.44
639.793	15887.97
639.986	15384.17
640.18	15683.17
640.373	15619.69
640.567	15363.69
640.76	15408.75
640.954	15132.27
641.147	14943.86
641.34	14982.77
641.534	15167.09
641.727	15162.99
641.92	14929.52
642.114	14691.96
642.307	14763.64
642.5	14679.67
642.694	14323.32
642.887	14358.14
643.08	14464.63
643.273	14251.64
643.467	13913.73
643.66	13995.65
643.853	13969.02
644.046	13952.64
644.239	13764.23
644.432	13858.43
644.626	13735.56
644.819	13473.42
645.012	13325.96
645.205	13559.43
645.398	13377.16
645.591	13336.2
645.784	13215.37
645.977	13045.39
646.17	13084.3
646.363	12975.76
646.556	12793.49
646.749	12955.28
646.942	12826.26
647.135	12807.83
647.328	12631.7
647.521	12385.94
647.714	12570.26
647.907	12230.3
648.099	12406.42
648.292	12134.04
648.485	12279.45
648.678	12033.69
648.871	12027.55
649.064	12058.27
649.256	11890.34
649.449	11652.77
649.642	11617.96
649.835	11607.72
650.027	11615.91
650.22	11505.32
650.413	11396.78
650.605	11572.9
650.798	11329.19
650.991	11273.9
651.183	11198.12
651.376	11153.07
651.568	11126.44
651.761	11024.05
651.954	10757.81
652.146	10825.39
652.339	10876.59
652.531	10739.38
652.724	10772.14
652.916	10600.12
653.109	10679.99
653.301	10383.03
653.494	10532.53
653.686	10256.06
653.879	10694.32
654.071	10311.35
654.263	10247.86
654.456	10280.63
654.648	10342.07
654.84	10045.12
655.033	10081.98
655.225	10090.17
655.417	9887.42
655.61	9914.05
655.802	9922.24
655.994	9821.89
656.186	9877.18
656.379	9666.24
656.571	9707.2
656.763	9559.75
656.955	9379.53
657.148	9713.35
657.34	9436.87
657.532	9412.29
657.724	9293.51
657.916	9299.66
658.108	9246.41
658.3	9230.02
658.492	9295.56
658.684	8928.97
658.876	9101
659.068	8771.28
659.26	9113.29
659.452	9221.83
659.644	8947.4
659.836	8670.93
660.028	8912.59
660.22	8748.75
660.412	8754.9
660.604	8677.07
660.796	8677.07
660.988	8580.82
661.18	8507.09
661.372	8474.32
661.563	8445.65
661.755	8251.1
661.947	8283.86
662.139	8304.34
662.331	8132.31
662.522	8005.34
662.714	8253.14
662.906	7972.57
663.097	7986.91
663.289	8060.63
663.481	7812.83
663.673	8052.44
663.864	7974.62
664.056	7849.69
664.247	7741.15
664.439	7468.77
664.631	7857.89
664.822	7692
665.014	7610.08
665.205	7515.87
665.397	7364.32
665.588	7495.39
665.78	7470.82
665.971	7339.75
666.163	7192.3
666.354	7423.72
666.546	7263.97
666.737	7249.64
666.929	7282.41
667.12	7212.78
667.311	7149.29
667.503	7001.83
667.694	6907.63
667.885	7079.66
668.077	7032.55
668.268	6969.07
668.459	6946.54
668.651	6725.36
668.842	6815.47
669.033	6934.25
669.224	6852.33
669.416	6907.63
669.607	6782.7
669.798	6678.26
669.989	6825.71
670.18	6594.29
670.371	6676.21
670.563	6565.62
670.754	6713.07
670.945	6635.25
671.136	6524.66
671.327	6487.79
671.518	6360.82
671.709	6422.26
671.9	6530.8
672.091	6389.49
672.282	6448.88
672.473	6323.96
672.664	6297.33
672.855	6274.81
673.046	6090.49
673.237	6334.2
673.428	6217.46
673.619	6158.07
673.809	6194.93
674	6264.57
674.191	6147.83
674.382	6065.91
674.573	6078.2
674.764	6006.52
674.954	6153.98
675.145	6014.71
675.336	6004.47
675.527	6072.06
675.717	6012.67
675.908	5963.51
676.099	5963.51
676.289	6098.68
676.48	5799.68
676.671	5717.76
676.861	5656.32
677.052	5590.78
677.243	5785.34
677.433	5752.57
677.624	5709.57
677.814	5742.33
678.005	5822.2
678.195	5842.68
678.386	5740.29
678.576	5660.41
678.767	5615.36
678.957	5678.85
679.148	5750.53
679.338	5627.65
679.529	5742.33
679.719	5656.32
679.909	5754.62
680.1	5603.07
680.29	5684.99
680.481	5531.39
680.671	5525.25
680.861	5465.86
681.052	5619.46
681.242	5687.04
681.432	5414.66
681.622	5480.19
681.813	5478.15
682.003	5553.92
682.193	5545.73
682.383	5635.84
682.573	5504.77
682.764	5465.86
682.954	5639.94
683.144	5717.76
683.334	5562.11
683.524	5496.58
683.714	5351.17
683.904	5472
684.094	5385.99
684.284	5424.9
684.474	5414.66
684.664	5295.88
684.854	5529.34
685.044	5457.67
685.234	5273.35
685.424	5377.8
685.614	5179.14
685.804	5302.02
685.994	5388.04
686.184	5400.32
686.374	5371.65
686.564	5297.92
686.753	5242.63
686.943	5107.46
687.133	5285.64
687.323	5101.32
687.513	5136.13
687.702	5213.96
687.892	5113.61
688.082	5238.53
688.272	5267.2
688.461	4951.82
688.651	5121.8
688.841	5052.17
689.03	4972.3
689.22	5015.3
689.41	4947.72
689.599	4919.05
689.789	4992.78
689.979	5170.95
690.168	4906.76
690.358	4921.1
690.547	4857.61
690.737	5031.69
690.926	4982.54
691.116	4726.54
691.305	4904.71
691.495	4843.28
691.684	4787.98
691.874	4861.71
692.063	4824.84
692.252	4945.67
692.442	4808.46
692.631	4773.64
692.82	4704.01
693.01	4685.58
693.199	4697.87
693.388	4613.9
693.578	4769.55
693.767	4722.45
693.956	4648.72
694.146	4646.67
694.335	4589.33
694.524	4611.85
694.713	4595.47
694.902	4603.66
695.092	4675.34
695.281	4550.42
695.47	4611.85
695.659	4519.7
695.848	4501.26
696.037	4460.31
696.226	4517.65
696.415	4495.12
696.604	4464.4
696.793	4382.48
696.982	4542.22
697.171	4376.34
697.36	4503.31
697.549	4439.83
697.738	4431.63
697.927	4351.76
698.116	4325.14
698.305	4366.1
698.494	4255.51
698.683	4321.04
698.872	4288.28
699.061	4161.3
699.25	4306.71
699.438	4310.8
699.627	4251.41
699.816	4484.88
700.005	4316.95
700.193	4251.41
700.382	4316.95
700.571	4325.14
700.76	4163.35
700.948	4319
701.137	4128.53
701.326	4108.05
701.514	4103.96
701.703	4136.73
701.892	4144.92
702.08	4183.83
702.269	4132.63
702.457	4087.57
702.646	4106.01
702.834	3946.27
703.023	4042.52
703.212	4089.62
703.4	3997.46
703.589	3981.08
703.777	3936.03
703.965	4124.44
704.154	4017.94
704.342	4046.62
704.531	4058.9
704.719	3794.72
704.907	4120.34
705.096	3901.21
705.284	3813.15
705.472	3880.73
705.661	3944.22
705.849	3882.78
706.037	3890.97
706.226	3833.63
706.414	3893.02
706.602	3745.56
706.79	3917.59
706.979	3858.2
707.167	3817.24
707.355	3866.39
707.543	3798.81
707.731	3829.53
707.919	3700.51
708.107	3653.41
708.296	3661.6
708.484	3780.38
708.672	3675.93
708.86	3655.45
709.048	3802.91
709.236	3557.15
709.424	3710.75
709.612	3563.29
709.8	3589.92
709.988	3591.97
710.176	3589.92
710.364	3600.16
710.551	3673.89
710.739	3557.15
710.927	3663.65
711.115	3417.89
711.303	3581.73
711.491	3526.43
711.679	3489.57
711.866	3645.21
712.054	3579.68
712.242	3491.62
712.43	3495.71
712.617	3524.38
712.805	3514.14
712.993	3366.69
713.181	3428.13
713.368	3413.79
713.556	3409.7
713.744	3385.12
713.931	3538.72
714.119	3460.9
714.306	3393.31
714.494	3295.01
714.682	3450.66
714.869	3309.35
715.057	3211.04
715.244	3184.42
715.432	3391.27
715.619	3278.63
715.807	3419.94
715.994	3360.55
716.182	3206.95
716.369	3323.68
716.556	3282.72
716.744	3227.43
716.931	3174.18
717.119	3374.88
717.306	3252
717.493	3125.03
717.681	3137.32
717.868	3206.95
718.055	3043.11
718.242	3268.39
718.43	3131.17
718.617	3073.83
718.804	3071.78
718.991	3028.78
719.179	3024.68
719.366	3034.92
719.553	3180.32
719.74	3075.88
719.927	2953
720.114	3178.28
720.301	2895.66
720.488	3061.54
720.676	3034.92
720.863	3034.92
721.05	3077.93
721.237	3022.63
721.424	3000.1
721.611	2967.34
721.798	2957.1
721.985	2991.91
722.172	2907.94
722.358	2914.09
722.545	2838.31
722.732	2955.05
722.919	2850.6
723.106	2944.81
723.293	2977.58
723.48	2901.8
723.667	2850.6
723.853	2785.07
724.04	2879.27
724.227	2869.03
724.414	2938.66
724.6	2834.22
724.787	2817.83
724.974	2905.9
725.161	2834.22
725.347	2735.92
725.534	2735.92
725.72	2688.81
725.907	2850.6
726.094	2760.49
726.28	2752.3
726.467	2690.86
726.653	2744.11
726.84	2735.92
727.027	2768.68
727.213	2672.43
727.4	2776.87
727.586	2688.81
727.773	2639.66
727.959	2744.11
728.145	2731.82
728.332	2563.89
728.518	2600.75
728.705	2600.75
728.891	2688.81
729.077	2596.65
729.264	2610.99
729.45	2625.33
729.636	2762.54
729.823	2641.71
730.009	2703.15
730.195	2531.12
730.382	2764.59
730.568	2539.31
730.754	2584.37
730.94	2533.17
731.126	2520.88
731.313	2619.18
731.499	2711.34
731.685	2596.65
731.871	2641.71
732.057	2580.27
732.243	2510.64
732.429	2543.41
732.615	2549.55
732.801	2506.54
732.987	2514.73
733.173	2524.97
733.359	2481.97
733.545	2430.77
733.731	2486.06
733.917	2481.97
734.103	2508.59
734.289	2457.39
734.475	2416.43
734.661	2613.04
734.847	2522.93
735.033	2518.83
735.219	2508.59
735.404	2428.72
735.59	2316.08
735.776	2418.48
735.962	2479.92
736.148	2516.78
736.333	2430.77
736.519	2375.47
736.705	2295.6
736.89	2318.13
737.076	2299.7
737.262	2359.09
737.447	2223.92
737.633	2262.83
737.819	2361.14
738.004	2275.12
738.19	2484.02
738.375	2479.92
738.561	2369.33
738.747	2289.46
738.932	2246.45
739.118	2361.14
739.303	2244.4
739.489	2189.11
739.674	2125.62
739.859	2142
740.045	2221.88
740.23	2221.88
740.416	2277.17
740.601	2234.16
740.786	2320.18
740.972	2178.87
741.157	2219.83
741.342	2074.42
741.528	2219.83
741.713	2219.83
741.898	2131.76
742.084	2092.85
742.269	2207.54
742.454	2113.33
742.639	2174.77
742.824	2154.29
743.01	2201.4
743.195	2109.24
743.38	1992.5
743.565	2041.65
743.75	2076.47
743.935	2064.18
744.12	2096.95
744.305	1969.98
744.49	1990.45
744.675	1957.69
744.86	2002.74
745.045	1941.3
745.23	1947.45
745.415	2006.84
745.6	2023.22
745.785	1859.38
745.97	1933.11
746.155	1851.19
746.34	1918.78
746.525	1869.62
746.71	1820.47
746.895	1834.81
747.079	1806.14
747.264	1918.78
747.449	1771.32
747.634	1810.23
747.819	1785.66
748.003	1853.24
748.188	1814.33
748.373	1777.47
748.557	1748.79
748.742	1793.85
748.927	1804.09
749.111	1724.22
749.296	1752.89
749.481	1752.89
749.665	1662.78
749.85	1650.49
750.034	1769.27
750.219	1736.51
750.404	1646.4
750.588	1630.01
750.773	1584.96
750.957	1664.83
751.141	1613.63
751.326	1525.57
751.51	1492.8
751.695	1513.28
751.879	1568.57
752.064	1601.34
752.248	1617.72
752.432	1580.86
752.617	1578.81
752.801	1587.01
752.985	1548.09
753.17	1498.94
753.354	1419.07
753.538	1433.41
753.722	1482.56
753.907	1384.26
754.091	1412.93
754.275	1417.02
754.459	1408.83
754.643	1376.06
754.828	1318.72
755.012	1392.45
755.196	1353.54
755.38	1333.06
755.564	1376.06
755.748	1318.72
755.932	1369.92
756.116	1261.38
756.3	1318.72
756.484	1347.39
756.668	1318.72
756.852	1312.58
757.036	1238.85
757.22	1304.39
757.404	1253.19
757.588	1236.8
757.772	1294.15
757.956	1285.95
758.14	1306.43
758.323	1169.22
758.507	1204.03
758.691	1244.99
758.875	1244.99
759.059	1222.47
759.242	1204.03
759.426	1138.5
759.61	1171.27
759.794	1113.92
759.977	1197.89
760.161	1165.12
760.345	1181.51
760.528	1118.02
760.712	1150.79
760.895	1056.58
761.079	1070.92
761.263	1167.17
761.446	958.28
761.63	1132.36
761.813	1054.53
761.997	1113.92
762.18	966.47
762.364	1122.12
762.547	1075.01
762.731	1097.54
762.914	1064.77
763.098	1001.29
763.281	1097.54
763.464	1044.29
763.648	1017.67
763.831	1003.33
764.015	1001.29
764.198	1003.33
764.381	1064.77
764.564	1056.58
764.748	1019.72
764.931	1003.33
765.114	954.18
765.297	999.24
765.481	1013.57
765.664	917.32
765.847	1044.29
766.03	950.09
766.213	1007.43
766.397	964.42
766.58	839.5
766.763	1023.81
766.946	845.64
767.129	939.85
767.312	972.61
767.495	913.22
767.678	984.9
767.861	902.98
768.044	935.75
768.227	911.18
768.41	972.61
768.593	962.37
768.776	868.17
768.959	991.05
769.142	954.18
769.324	862.02
769.507	970.57
769.69	913.22
769.873	864.07
770.056	945.99
770.239	878.41
770.421	933.7
770.604	943.94
770.787	909.13
770.97	896.84
771.152	876.36
771.335	880.46
771.518	851.78
771.7	933.7
771.883	829.26
772.066	776.01
772.248	870.22
772.431	831.3
772.613	853.83
772.796	845.64
772.978	843.59
773.161	876.36
773.343	796.49
773.526	796.49
773.708	794.44
773.891	757.58
774.073	780.11
774.256	771.91
774.438	810.82
774.621	763.72
774.803	749.39
774.985	743.24
775.168	724.81
775.35	771.91
775.532	667.47
775.715	677.71
775.897	714.57
776.079	796.49
776.261	769.87
776.444	708.43
776.626	646.99
776.808	692.04
776.99	610.12
777.173	683.85
777.355	610.12
777.537	679.75
777.719	759.63
777.901	663.37
778.083	685.9
778.265	628.56
778.447	722.76
778.629	634.7
778.811	771.91
778.993	632.65
779.175	663.37
779.357	646.99
779.539	583.5
779.721	714.57
779.903	618.32
780.085	544.59
780.267	581.45
780.449	593.74
780.631	655.18
780.812	616.27
780.994	599.88
781.176	589.64
781.358	595.79
781.54	483.15
781.721	536.4
781.903	538.45
782.085	511.82
782.267	458.57
782.448	565.07
782.63	530.25
782.812	534.35
782.993	581.45
783.175	526.16
783.357	474.96
783.538	538.45
783.72	503.63
783.901	569.16
784.083	509.77
784.264	587.6
784.446	499.53
784.627	501.58
784.809	558.92
784.99	509.77
785.172	507.73
785.353	499.53
785.535	454.48
785.716	513.87
785.897	425.81
786.079	509.77
786.26	493.39
786.441	550.73
786.623	384.85
786.804	485.2
786.985	515.92
787.167	491.34
787.348	405.33
787.529	540.49
787.71	477.01
787.891	507.73
788.073	407.38
788.254	405.33
788.435	470.86
788.616	429.9
788.797	405.33
788.978	425.81
789.159	409.42
789.34	429.9
789.522	417.61
789.703	397.14
789.884	409.42
790.065	364.37
790.246	438.09
790.427	345.94
790.607	411.47
790.788	423.76
790.969	345.94
791.15	401.23
791.331	403.28
791.512	331.6
791.693	298.83
791.874	374.61
792.054	425.81
792.235	335.7
792.416	345.94
792.597	345.94
792.778	343.89
792.958	335.7
793.139	393.04
793.32	356.18
793.5	288.59
793.681	393.04
793.862	403.28
794.042	354.13
794.223	325.46
794.404	233.3
794.584	345.94
794.765	352.08
794.945	376.66
795.126	347.98
795.306	360.27
795.487	229.2
795.667	307.02
795.848	286.54
796.028	345.94
796.209	343.89
796.389	329.55
796.57	386.9
796.75	270.16
796.93	345.94
797.111	274.26
797.291	307.02
797.471	266.07
797.652	364.37
797.832	272.21
798.012	298.83
798.192	229.2
798.373	253.78
798.553	257.87
798.733	327.5
798.913	216.91
799.093	372.56
799.274	264.02
799.454	296.78
799.634	245.59
799.814	253.78
799.994	335.7
800.174	288.59
800.354	259.92
800.534	247.63
800.714	309.07
800.894	327.5
801.074	173.91
801.254	266.07
801.434	259.92
801.614	255.83
801.794	259.92
801.974	859.98
802.154	257.87
802.334	212.82
802.514	237.39
802.693	251.73
802.873	171.86
803.053	245.59
803.233	241.49
803.413	208.72
803.592	212.82
803.772	180.05
803.952	188.24
804.131	206.67
804.311	259.92
804.491	264.02
804.67	223.06
804.85	221.01
805.03	247.63
805.209	188.24
805.389	237.39
805.568	196.43
805.748	221.01
805.928	196.43
806.107	223.06
806.287	288.59
806.466	235.35
806.646	173.91
806.825	214.87
807.004	145.24
807.184	171.86
807.363	178
807.543	261.97
807.722	149.33
807.901	229.2
808.081	229.2
808.26	165.71
808.439	270.16
808.619	204.63
808.798	188.24
808.977	304.98
809.156	237.39
809.336	253.78
809.515	229.2
809.694	223.06
809.873	169.81
810.052	106.32
810.231	223.06
810.411	122.71
810.59	192.34
810.769	149.33
810.948	223.06
811.127	124.76
811.306	155.47
811.485	116.56
811.664	253.78
811.843	143.19
812.022	147.28
812.201	137.04
812.38	192.34
812.559	198.48
812.737	296.78
812.916	141.14
813.095	126.8
813.274	122.71
813.453	196.43
813.632	135
813.811	216.91
813.989	122.71
814.168	171.86
814.347	151.38
814.526	198.48
814.704	245.59
814.883	227.15
815.062	120.66
815.24	157.52
815.419	173.91
815.598	147.28
815.776	102.23
815.955	200.53
816.133	122.71
816.312	227.15
816.49	122.71
816.669	116.56
816.847	175.95
817.026	139.09
817.204	130.9
817.383	141.14
817.561	149.33
817.74	184.15
817.918	175.95
818.097	106.32
818.275	130.9
818.453	139.09
818.632	163.67
818.81	149.33
818.988	98.13
819.167	141.14
819.345	130.9
819.523	171.86
819.701	51.03
819.879	120.66
820.058	141.14
820.236	124.76
820.414	137.04
820.592	165.71
820.77	149.33
820.948	65.36
821.127	122.71
821.305	206.67
821.483	114.52
821.661	190.29
821.839	165.71
822.017	114.52
822.195	98.13
822.373	124.76
822.551	202.58
822.729	108.37
822.907	91.99
823.085	73.56
823.262	79.7
823.44	124.76
823.618	135
823.796	114.52
823.974	77.65
824.152	42.84
824.329	139.09
824.507	214.87
824.685	163.67
824.863	180.05
825.04	104.28
825.218	116.56
825.396	89.94
825.574	40.79
825.751	124.76
825.929	89.94
826.107	108.37
826.284	118.61
826.462	124.76
826.639	61.27
826.817	61.27
826.994	16.21
827.172	83.8
827.349	137.04
827.527	137.04
827.704	130.9
827.882	42.84
828.059	81.75
828.237	85.84
828.414	120.66
828.591	77.65
828.769	106.32
828.946	89.94
829.124	89.94
829.301	94.04
829.478	48.98
829.655	110.42
829.833	32.6
830.01	40.79
830.187	79.7
830.364	38.74
830.542	48.98
830.719	132.95
830.896	57.17
831.073	110.42
831.25	102.23
831.427	124.76
831.604	71.51
831.782	73.56
831.959	53.08
832.136	34.64
832.313	94.04
832.49	75.6
832.667	114.52
832.844	65.36
833.021	122.71
833.198	59.22
833.374	108.37
833.551	114.52
833.728	36.69
833.905	126.8
834.082	94.04
834.259	65.36
834.436	120.66
834.612	-47.27
834.789	81.75
834.966	12.12
835.143	100.18
835.319	130.9
835.496	102.23
835.673	59.22
835.85	81.75
836.026	16.21
836.203	141.14
836.38	-16.55
836.556	114.52
836.733	16.21
836.909	157.52
837.086	44.88
837.262	83.8
837.439	106.32
837.616	81.75
837.792	32.6
837.968	73.56
838.145	-16.55
838.321	48.98
838.498	44.88
838.674	94.04
838.851	110.42
839.027	26.45
839.203	34.64
839.38	51.03
839.556	-49.32
839.732	83.8
839.909	106.32
840.085	53.08
840.261	26.45
840.437	81.75
840.614	100.18
840.79	30.55
840.966	87.89
841.142	89.94
841.318	57.17
841.494	30.55
841.671	14.17
841.847	14.17
842.023	-22.7
842.199	155.47
842.375	141.14
842.551	26.45
842.727	44.88
842.903	147.28
843.079	20.31
843.255	106.32
843.431	59.22
843.607	106.32
843.783	24.4
843.959	24.4
844.134	53.08
844.31	130.9
844.486	-8.36
844.662	77.65
844.838	77.65
845.013	100.18
845.189	36.69
845.365	77.65
845.541	16.21
845.716	132.95
845.892	85.84
846.068	12.12
846.244	65.36
846.419	67.41
846.595	40.79
846.77	100.18
846.946	77.65
847.122	75.6
847.297	40.79
847.473	143.19
847.648	-12.46
847.824	77.65
847.999	51.03
848.175	34.64
848.35	77.65
848.526	59.22
848.701	102.23
848.876	85.84
849.052	48.98
849.227	114.52
849.403	32.6
849.578	36.69
849.753	114.52
849.929	34.64
850.104	79.7
850.279	-24.75
850.454	63.32
850.63	51.03
850.805	12.12
850.98	96.08
851.155	116.56
851.33	8.02
851.505	10.07
851.681	87.89
851.856	-20.65
852.031	75.6
852.206	67.41
852.381	89.94
852.556	42.84
852.731	73.56
852.906	-2.22
853.081	32.6
853.256	91.99
853.431	-16.55
853.606	75.6
853.781	-2.22
853.956	24.4
854.131	8.02
854.305	44.88
854.48	16.21
854.655	5.97
854.83	73.56
855.005	124.76
855.18	67.41
855.354	36.69
855.529	81.75
855.704	40.79
855.879	-4.27
856.053	69.46
856.228	67.41
856.403	-49.32
856.577	91.99
856.752	22.36
856.926	26.45
857.101	26.45
857.276	96.08
857.45	36.69
857.625	73.56
857.799	89.94
857.974	32.6
858.148	34.64
858.323	85.84
858.497	-24.75
858.672	73.56
858.846	32.6
859.02	48.98
859.195	-61.61
859.369	-20.65
859.543	-30.89
859.718	51.03
859.892	75.6
860.066	26.45
860.241	24.4
860.415	40.79
860.589	-6.31
860.763	3.93
860.938	26.45
861.112	1.88
861.286	-20.65
861.46	151.38
861.634	67.41
861.808	118.61
861.982	-16.55
862.157	24.4
862.331	-20.65
862.505	-37.03
862.679	51.03
862.853	-10.41
863.027	24.4
863.201	98.13
863.375	12.12
863.549	73.56
863.722	51.03
863.896	51.03
864.07	65.36
864.244	28.5
864.418	1.88
864.592	65.36
864.766	91.99
864.939	40.79
865.113	57.17
865.287	94.04
865.461	14.17
865.634	51.03
865.808	42.84
865.982	-2.22
866.156	-53.42
866.329	-14.51
866.503	48.98
866.676	32.6
866.85	-4.27
867.024	59.22
867.197	24.4
867.371	34.64
867.544	1.88
867.718	-30.89
867.891	38.74
868.065	59.22
868.238	34.64
868.412	75.6
868.585	16.21
868.759	16.21
868.932	-8.36
869.105	28.5
869.279	24.4
869.452	-39.08
869.625	42.84
869.799	8.02
869.972	3.93
870.145	51.03
870.319	8.02
870.492	20.31
870.665	18.26
870.838	12.12
871.011	-61.61
871.185	51.03
871.358	26.45
871.531	114.52
871.704	12.12
871.877	-12.46
872.05	8.02
872.223	48.98
872.396	59.22
872.569	42.84
872.742	-0.17
872.915	32.6
873.088	3.93
873.261	44.88
873.434	34.64
873.607	30.55
873.78	-22.7
873.953	-4.27
874.126	34.64
874.299	16.21
874.471	14.17
874.644	-22.7
874.817	108.37
874.99	57.17
875.163	28.5
875.335	48.98
875.508	34.64
875.681	67.41
875.853	-0.17
876.026	8.02
876.199	91.99
876.371	-6.31
876.544	-6.31
876.717	-16.55
876.889	-20.65
877.062	44.88
877.234	-20.65
877.407	12.12
877.579	24.4
877.752	69.46
877.924	-6.31
878.097	-16.55
878.269	12.12
878.442	16.21
878.614	36.69
878.786	-4.27
878.959	51.03
879.131	3.93
879.303	3.93
879.476	16.21
879.648	3.93
879.82	40.79
879.993	-147.62
880.165	20.31
880.337	-0.17
880.509	73.56
880.681	-65.71
880.854	18.26
881.026	-22.7
881.198	51.03
881.37	59.22
881.542	106.32
881.714	20.31
881.886	44.88
882.058	65.36
882.23	-16.55
882.402	40.79
882.574	73.56
882.746	20.31
882.918	51.03
883.09	48.98
883.262	-4.27
883.434	18.26
883.606	-30.89
883.778	-0.17
883.95	73.56
884.122	-82.09
884.293	44.88
884.465	-14.51
884.637	77.65
884.809	-2.22
884.98	-16.55
885.152	116.56
885.324	69.46
885.496	55.12
885.667	3.93
885.839	8.02
886.011	73.56
886.182	51.03
886.354	98.13
886.525	46.93
886.697	18.26
886.869	16.21
887.04	-30.89
887.212	36.69
887.383	98.13
887.555	8.02
887.726	-55.47
887.897	-0.17
888.069	30.55
888.24	34.64
888.412	8.02
888.583	-63.66
888.754	34.64
888.926	-37.03
889.097	-16.55
889.268	-22.7
889.44	18.26
889.611	10.07
889.782	34.64
889.953	-67.75
890.125	67.41
890.296	-32.94
890.467	-47.27
890.638	-22.7
890.809	48.98
890.98	-41.13
891.151	24.4
891.323	38.74
891.494	-12.46
891.665	44.88
891.836	48.98
892.007	20.31
892.178	-0.17
892.349	-37.03
892.52	-71.85
892.691	16.21
892.862	-39.08
893.032	102.23
893.203	36.69
893.374	34.64
893.545	-16.55
893.716	-30.89
893.887	48.98
894.057	-16.55
894.228	18.26
894.399	61.27
894.57	102.23
894.74	-32.94
894.911	-24.75
895.082	16.21
895.253	-82.09
895.423	10.07
895.594	36.69
895.764	16.21
895.935	-39.08
896.106	12.12
896.276	-10.41
896.447	32.6
896.617	61.27
896.788	-80.04
896.958	24.4
897.129	-41.13
897.299	8.02
897.47	40.79
897.64	16.21
897.81	-8.36
897.981	53.08
898.151	-24.75
898.322	46.93
898.492	40.79
898.662	-65.71
898.832	-0.17
899.003	3.93
899.173	65.36
899.343	18.26
899.513	-24.75
