Data from USB4F104151__206__14-33-21-624.txt Node

Date: Thu Mar 13 14:33:21 EDT 2025
User: louis
Spectrometer: USB4F10415
Trigger mode: 4
Integration Time (sec): 2.500000E-2
Scans to average: 1
Electric dark correction enabled: true
Nonlinearity correction enabled: false
Boxcar width: 0
XAxis mode: Wavelengths
Number of Pixels in Spectrum: 3648
>>>>>Begin Spectral Data<<<<<
178.204	-138.92
178.424	-138.92
178.644	-138.92
178.864	-188.07
179.084	-134.82
179.304	31.06
179.524	29.01
179.744	-18.09
179.964	65.88
180.184	41.3
180.404	-65.19
180.624	-40.62
180.844	20.82
181.064	20.82
181.283	-30.38
181.503	-57
181.723	2.39
181.943	-75.43
182.163	74.07
182.383	-44.71
182.602	53.59
182.822	45.4
183.042	149.84
183.262	24.92
183.482	20.82
183.701	55.64
183.921	-44.71
184.141	-40.62
184.361	90.45
184.58	35.16
184.8	33.11
185.02	16.73
185.239	20.82
185.459	-40.62
185.679	-3.75
185.898	-5.8
186.118	-34.47
186.338	-32.43
186.557	110.93
186.777	61.78
186.997	47.44
187.216	18.77
187.436	86.36
187.655	-3.75
187.875	-16.04
188.095	45.4
188.314	61.78
188.534	69.97
188.753	-20.14
188.973	-24.23
189.192	4.44
189.412	-38.57
189.631	-50.86
189.851	10.58
190.07	6.49
190.29	-32.43
190.509	31.06
190.729	-24.23
190.948	115.03
191.168	112.98
191.387	80.21
191.607	8.53
191.826	55.64
192.045	-11.95
192.265	4.44
192.484	-44.71
192.704	-34.47
192.923	24.92
193.142	33.11
193.362	6.49
193.581	53.59
193.8	10.58
194.02	78.16
194.239	147.8
194.458	59.73
194.678	-44.71
194.897	20.82
195.116	8.53
195.335	12.63
195.555	61.78
195.774	29.01
195.993	41.3
196.212	29.01
196.432	-11.95
196.651	29.01
196.87	49.49
197.089	72.02
197.308	-13.99
197.528	-11.95
197.747	-16.04
197.966	57.68
198.185	84.31
198.404	-42.67
198.623	4.44
198.842	53.59
199.062	129.36
199.281	86.36
199.5	61.78
199.719	37.2
199.938	135.51
200.157	74.07
200.376	-32.43
200.595	-5.8
200.814	39.25
201.033	-18.09
201.252	39.25
201.471	29.01
201.69	39.25
201.909	12.63
202.128	20.82
202.347	6.49
202.566	6.49
202.785	-69.29
203.004	-1.71
203.223	20.82
203.442	-11.95
203.661	45.4
203.879	0.34
204.098	63.83
204.317	-20.14
204.536	12.63
204.755	39.25
204.974	102.74
205.193	63.83
205.411	86.36
205.63	61.78
205.849	53.59
206.068	69.97
206.287	8.53
206.505	-26.28
206.724	74.07
206.943	-3.75
207.162	43.35
207.381	69.97
207.599	0.34
207.818	80.21
208.037	12.63
208.255	-20.14
208.474	53.59
208.693	47.44
208.911	-50.86
209.13	53.59
209.349	47.44
209.567	-16.04
209.786	65.88
210.005	69.97
210.223	-7.85
210.442	-61.1
210.661	67.92
210.879	39.25
211.098	-44.71
211.316	4.44
211.535	51.54
211.753	-22.19
211.972	20.82
212.191	88.4
212.409	-77.48
212.628	37.2
212.846	-5.8
213.065	-3.75
213.283	76.12
213.502	20.82
213.72	0.34
213.938	26.96
214.157	-28.33
214.375	6.49
214.594	14.68
214.812	63.83
215.031	67.92
215.249	61.78
215.467	31.06
215.686	-16.04
215.904	63.83
216.122	45.4
216.341	55.64
216.559	35.16
216.778	82.26
216.996	53.59
217.214	-11.95
217.432	4.44
217.651	-28.33
217.869	26.96
218.087	41.3
218.306	47.44
218.524	51.54
218.742	37.2
218.96	29.01
219.179	31.06
219.397	0.34
219.615	69.97
219.833	41.3
220.051	-32.43
220.27	-11.95
220.488	102.74
220.706	31.06
220.924	-57
221.142	94.55
221.36	22.87
221.578	39.25
221.796	43.35
222.015	43.35
222.233	37.2
222.451	61.78
222.669	-20.14
222.887	43.35
223.105	-38.57
223.323	-28.33
223.541	26.96
223.759	86.36
223.977	22.87
224.195	43.35
224.413	-3.75
224.631	72.02
224.849	69.97
225.067	80.21
225.285	20.82
225.503	12.63
225.721	-30.38
225.939	37.2
226.157	8.53
226.375	86.36
226.592	-30.38
226.81	61.78
227.028	112.98
227.246	57.68
227.464	69.97
227.682	47.44
227.9	104.79
228.117	49.49
228.335	88.4
228.553	-40.62
228.771	18.77
228.989	53.59
229.206	65.88
229.424	76.12
229.642	53.59
229.86	37.2
230.077	-11.95
230.295	-34.47
230.513	47.44
230.731	39.25
230.948	53.59
231.166	63.83
231.384	4.44
231.601	-9.9
231.819	90.45
232.037	22.87
232.254	-32.43
232.472	31.06
232.689	-44.71
232.907	-3.75
233.125	45.4
233.342	12.63
233.56	31.06
233.777	43.35
233.995	90.45
234.213	29.01
234.43	153.94
234.648	59.73
234.865	-28.33
235.083	110.93
235.3	45.4
235.518	45.4
235.735	69.97
235.953	125.27
236.17	20.82
236.388	45.4
236.605	-11.95
236.822	65.88
237.04	61.78
237.257	82.26
237.475	78.16
237.692	4.44
237.909	20.82
238.127	-18.09
238.344	4.44
238.562	57.68
238.779	37.2
238.996	29.01
239.214	57.68
239.431	61.78
239.648	61.78
239.865	33.11
240.083	51.54
240.3	8.53
240.517	-46.76
240.735	4.44
240.952	78.16
241.169	37.2
241.386	88.4
241.603	55.64
241.821	-91.82
242.038	100.69
242.255	12.63
242.472	4.44
242.689	22.87
242.907	102.74
243.124	31.06
243.341	39.25
243.558	-44.71
243.775	63.83
243.992	-85.67
244.209	0.34
244.426	78.16
244.643	-34.47
244.86	8.53
245.078	82.26
245.295	4.44
245.512	6.49
245.729	55.64
245.946	45.4
246.163	0.34
246.38	39.25
246.597	96.6
246.814	12.63
247.031	8.53
247.248	88.4
247.464	20.82
247.681	2.39
247.898	29.01
248.115	20.82
248.332	55.64
248.549	82.26
248.766	61.78
248.983	88.4
249.2	8.53
249.417	6.49
249.633	26.96
249.85	-18.09
250.067	4.44
250.284	2.39
250.501	41.3
250.717	37.2
250.934	20.82
251.151	20.82
251.368	53.59
251.585	33.11
251.801	-61.1
252.018	39.25
252.235	51.54
252.451	33.11
252.668	29.01
252.885	39.25
253.102	33.11
253.318	16.73
253.535	16.73
253.752	-28.33
253.968	-9.9
254.185	6.49
254.401	-48.81
254.618	33.11
254.835	14.68
255.051	123.22
255.268	45.4
255.484	-1.71
255.701	67.92
255.917	96.6
256.134	-11.95
256.351	33.11
256.567	33.11
256.784	-26.28
257	-69.29
257.217	20.82
257.433	45.4
257.65	65.88
257.866	8.53
258.082	-9.9
258.299	16.73
258.515	37.2
258.732	37.2
258.948	72.02
259.165	47.44
259.381	-3.75
259.597	22.87
259.814	49.49
260.03	-22.19
260.246	-1.71
260.463	39.25
260.679	39.25
260.895	55.64
261.112	35.16
261.328	43.35
261.544	12.63
261.761	117.08
261.977	-30.38
262.193	-1.71
262.409	-5.8
262.626	31.06
262.842	0.34
263.058	33.11
263.274	110.93
263.49	-34.47
263.707	65.88
263.923	14.68
264.139	39.25
264.355	47.44
264.571	41.3
264.787	24.92
265.004	51.54
265.22	14.68
265.436	-5.8
265.652	45.4
265.868	20.82
266.084	10.58
266.3	119.12
266.516	-20.14
266.732	37.2
266.948	45.4
267.164	-16.04
267.38	51.54
267.596	12.63
267.812	33.11
268.028	63.83
268.244	16.73
268.46	14.68
268.676	45.4
268.892	49.49
269.108	-34.47
269.324	-34.47
269.54	-7.85
269.756	69.97
269.972	-28.33
270.188	22.87
270.403	2.39
270.619	37.2
270.835	10.58
271.051	22.87
271.267	69.97
271.483	-16.04
271.698	80.21
271.914	41.3
272.13	55.64
272.346	20.82
272.562	-24.23
272.777	90.45
272.993	110.93
273.209	8.53
273.425	20.82
273.64	-85.67
273.856	39.25
274.072	22.87
274.287	-7.85
274.503	115.03
274.719	4.44
274.934	61.78
275.15	24.92
275.366	94.55
275.581	-20.14
275.797	24.92
276.012	119.12
276.228	-42.67
276.444	-28.33
276.659	67.92
276.875	4.44
277.09	20.82
277.306	53.59
277.521	43.35
277.737	74.07
277.952	-1.71
278.168	-11.95
278.383	45.4
278.599	39.25
278.814	45.4
279.03	33.11
279.245	12.63
279.461	26.96
279.676	86.36
279.892	14.68
280.107	-67.24
280.322	37.2
280.538	102.74
280.753	22.87
280.969	-28.33
281.184	41.3
281.399	98.64
281.615	-69.29
281.83	61.78
282.045	-7.85
282.26	29.01
282.476	12.63
282.691	121.17
282.906	6.49
283.122	12.63
283.337	-57
283.552	49.49
283.767	53.59
283.983	110.93
284.198	0.34
284.413	59.73
284.628	-134.82
284.843	43.35
285.058	29.01
285.274	61.78
285.489	8.53
285.704	102.74
285.919	-65.19
286.134	2.39
286.349	39.25
286.564	35.16
286.779	45.4
286.995	78.16
287.21	-28.33
287.425	112.98
287.64	-7.85
287.855	65.88
288.07	2.39
288.285	96.6
288.5	72.02
288.715	4.44
288.93	29.01
289.145	22.87
289.36	12.63
289.575	39.25
289.79	45.4
290.004	-52.91
290.219	49.49
290.434	4.44
290.649	26.96
290.864	110.93
291.079	47.44
291.294	33.11
291.509	69.97
291.724	74.07
291.938	-32.43
292.153	53.59
292.368	33.11
292.583	-26.28
292.798	104.79
293.012	78.16
293.227	82.26
293.442	-11.95
293.657	51.54
293.871	45.4
294.086	4.44
294.301	119.12
294.516	78.16
294.73	41.3
294.945	4.44
295.16	16.73
295.374	69.97
295.589	94.55
295.804	14.68
296.018	8.53
296.233	86.36
296.447	61.78
296.662	45.4
296.877	55.64
297.091	6.49
297.306	119.12
297.52	45.4
297.735	10.58
297.949	43.35
298.164	18.77
298.378	37.2
298.593	16.73
298.807	-9.9
299.022	-16.04
299.236	69.97
299.451	61.78
299.665	2.39
299.88	39.25
300.094	41.3
300.309	74.07
300.523	72.02
300.737	-52.91
300.952	4.44
301.166	16.73
301.381	57.68
301.595	18.77
301.809	96.6
302.024	20.82
302.238	53.59
302.452	106.84
302.667	49.49
302.881	63.83
303.095	43.35
303.309	72.02
303.524	-13.99
303.738	37.2
303.952	14.68
304.166	35.16
304.381	-36.52
304.595	45.4
304.809	57.68
305.023	8.53
305.237	-52.91
305.452	-11.95
305.666	53.59
305.88	88.4
306.094	133.46
306.308	20.82
306.522	69.97
306.736	69.97
306.95	20.82
307.164	22.87
307.379	-18.09
307.593	61.78
307.807	80.21
308.021	-9.9
308.235	67.92
308.449	12.63
308.663	37.2
308.877	69.97
309.091	53.59
309.305	78.16
309.519	-69.29
309.733	51.54
309.947	-20.14
310.161	45.4
310.374	55.64
310.588	59.73
310.802	-36.52
311.016	33.11
311.23	20.82
311.444	61.78
311.658	57.68
311.872	94.55
312.085	61.78
312.299	39.25
312.513	76.12
312.727	82.26
312.941	45.4
313.154	41.3
313.368	39.25
313.582	12.63
313.796	-69.29
314.009	22.87
314.223	65.88
314.437	39.25
314.651	-11.95
314.864	-26.28
315.078	-11.95
315.292	-3.75
315.505	-52.91
315.719	12.63
315.933	78.16
316.146	78.16
316.36	-52.91
316.573	31.06
316.787	55.64
317.001	20.82
317.214	-26.28
317.428	2.39
317.641	-5.8
317.855	-11.95
318.068	49.49
318.282	65.88
318.495	74.07
318.709	24.92
318.922	12.63
319.136	29.01
319.349	86.36
319.563	4.44
319.776	37.2
319.99	-11.95
320.203	106.84
320.417	-28.33
320.63	69.97
320.843	90.45
321.057	149.84
321.27	12.63
321.483	-40.62
321.697	72.02
321.91	-57
322.124	78.16
322.337	51.54
322.55	63.83
322.763	74.07
322.977	65.88
323.19	47.44
323.403	51.54
323.617	55.64
323.83	72.02
324.043	39.25
324.256	43.35
324.469	35.16
324.683	45.4
324.896	106.84
325.109	78.16
325.322	-20.14
325.535	65.88
325.748	49.49
325.962	-9.9
326.175	80.21
326.388	119.12
326.601	12.63
326.814	-3.75
327.027	12.63
327.24	63.83
327.453	14.68
327.666	47.44
327.879	98.64
328.092	96.6
328.305	-7.85
328.518	39.25
328.731	-7.85
328.944	31.06
329.157	2.39
329.37	-18.09
329.583	94.55
329.796	53.59
330.009	22.87
330.222	-1.71
330.435	45.4
330.648	14.68
330.861	110.93
331.073	45.4
331.286	102.74
331.499	69.97
331.712	20.82
331.925	29.01
332.138	-32.43
332.35	86.36
332.563	55.64
332.776	12.63
332.989	-11.95
333.202	12.63
333.414	31.06
333.627	37.2
333.84	29.01
334.053	29.01
334.265	-1.71
334.478	37.2
334.691	-42.67
334.903	63.83
335.116	61.78
335.329	20.82
335.541	-28.33
335.754	72.02
335.966	-34.47
336.179	-3.75
336.392	74.07
336.604	51.54
336.817	35.16
337.029	137.56
337.242	0.34
337.454	82.26
337.667	-9.9
337.88	72.02
338.092	12.63
338.305	43.35
338.517	22.87
338.729	86.36
338.942	80.21
339.154	20.82
339.367	-28.33
339.579	-20.14
339.792	4.44
340.004	47.44
340.217	-3.75
340.429	55.64
340.641	-48.81
340.854	47.44
341.066	55.64
341.278	102.74
341.491	168.27
341.703	-3.75
341.915	41.3
342.128	88.4
342.34	16.73
342.552	-22.19
342.764	22.87
342.977	-5.8
343.189	172.37
343.401	90.45
343.613	-3.75
343.826	47.44
344.038	29.01
344.25	-1.71
344.462	20.82
344.674	12.63
344.886	86.36
345.099	-48.81
345.311	53.59
345.523	39.25
345.735	45.4
345.947	31.06
346.159	94.55
346.371	47.44
346.583	-20.14
346.795	78.16
347.007	37.2
347.219	119.12
347.431	22.87
347.643	53.59
347.855	29.01
348.067	112.98
348.279	-32.43
348.491	55.64
348.703	162.13
348.915	39.25
349.127	-28.33
349.339	-11.95
349.551	84.31
349.763	-16.04
349.975	55.64
350.187	53.59
350.399	78.16
350.61	78.16
350.822	37.2
351.034	94.55
351.246	80.21
351.458	57.68
351.669	20.82
351.881	96.6
352.093	65.88
352.305	90.45
352.517	49.49
352.728	94.55
352.94	31.06
353.152	41.3
353.363	37.2
353.575	47.44
353.787	82.26
353.999	61.78
354.21	49.49
354.422	8.53
354.633	74.07
354.845	63.83
355.057	69.97
355.268	69.97
355.48	117.08
355.692	20.82
355.903	39.25
356.115	47.44
356.326	86.36
356.538	104.79
356.749	63.83
356.961	82.26
357.172	35.16
357.384	4.44
357.595	180.56
357.807	-7.85
358.018	63.83
358.23	69.97
358.441	78.16
358.653	53.59
358.864	139.6
359.075	49.49
359.287	47.44
359.498	78.16
359.709	67.92
359.921	53.59
360.132	57.68
360.344	86.36
360.555	10.58
360.766	86.36
360.977	12.63
361.189	63.83
361.4	-9.9
361.611	63.83
361.823	41.3
362.034	92.5
362.245	33.11
362.456	39.25
362.667	94.55
362.879	61.78
363.09	61.78
363.301	88.4
363.512	29.01
363.723	4.44
363.935	37.2
364.146	22.87
364.357	69.97
364.568	-3.75
364.779	37.2
364.99	110.93
365.201	57.68
365.412	53.59
365.623	6.49
365.834	129.36
366.045	18.77
366.256	26.96
366.467	92.5
366.678	12.63
366.889	63.83
367.1	0.34
367.311	94.55
367.522	-1.71
367.733	57.68
367.944	69.97
368.155	-3.75
368.366	104.79
368.577	78.16
368.788	78.16
368.999	78.16
369.209	49.49
369.42	57.68
369.631	37.2
369.842	-36.52
370.053	35.16
370.264	29.01
370.474	-3.75
370.685	112.98
370.896	61.78
371.107	51.54
371.317	104.79
371.528	102.74
371.739	63.83
371.95	84.31
372.16	53.59
372.371	-18.09
372.582	-9.9
372.792	63.83
373.003	26.96
373.214	45.4
373.424	57.68
373.635	63.83
373.846	41.3
374.056	98.64
374.267	129.36
374.477	104.79
374.688	88.4
374.898	55.64
375.109	110.93
375.319	29.01
375.53	20.82
375.74	94.55
375.951	41.3
376.161	104.79
376.372	86.36
376.582	69.97
376.793	110.93
377.003	37.2
377.214	12.63
377.424	41.3
377.635	22.87
377.845	-7.85
378.055	53.59
378.266	22.87
378.476	72.02
378.686	55.64
378.897	69.97
379.107	12.63
379.317	69.97
379.528	31.06
379.738	129.36
379.948	24.92
380.158	80.21
380.369	4.44
380.579	121.17
380.789	135.51
380.999	16.73
381.21	112.98
381.42	145.75
381.63	29.01
381.84	4.44
382.05	82.26
382.261	72.02
382.471	102.74
382.681	-24.23
382.891	86.36
383.101	51.54
383.311	82.26
383.521	121.17
383.731	41.3
383.941	-3.75
384.151	80.21
384.361	94.55
384.571	47.44
384.781	74.07
384.991	84.31
385.201	86.36
385.411	94.55
385.621	61.78
385.831	90.45
386.041	22.87
386.251	43.35
386.461	129.36
386.671	119.12
386.881	-18.09
387.091	88.4
387.301	78.16
387.511	10.58
387.72	84.31
387.93	104.79
388.14	-28.33
388.35	108.88
388.56	102.74
388.769	88.4
388.979	33.11
389.189	53.59
389.399	115.03
389.609	39.25
389.818	104.79
390.028	76.12
390.238	72.02
390.447	53.59
390.657	0.34
390.867	6.49
391.076	80.21
391.286	63.83
391.496	86.36
391.705	78.16
391.915	102.74
392.125	127.32
392.334	14.68
392.544	121.17
392.753	80.21
392.963	123.22
393.172	51.54
393.382	104.79
393.591	147.8
393.801	86.36
394.01	145.75
394.22	88.4
394.429	82.26
394.639	94.55
394.848	65.88
395.058	88.4
395.267	57.68
395.477	133.46
395.686	29.01
395.895	186.71
396.105	143.7
396.314	88.4
396.524	67.92
396.733	119.12
396.942	115.03
397.152	205.14
397.361	194.9
397.57	53.59
397.78	186.71
397.989	106.84
398.198	155.99
398.407	98.64
398.617	69.97
398.826	106.84
399.035	153.94
399.244	219.47
399.453	153.94
399.663	168.27
399.872	106.84
400.081	112.98
400.29	268.63
400.499	151.89
400.708	225.62
400.917	94.55
401.127	143.7
401.336	86.36
401.545	203.09
401.754	119.12
401.963	141.65
402.172	69.97
402.381	217.43
402.59	121.17
402.799	172.37
403.008	244.05
403.217	229.71
403.426	229.71
403.635	145.75
403.844	127.32
404.053	153.94
404.262	170.32
404.471	270.67
404.68	184.66
404.888	213.33
405.097	211.28
405.306	192.85
405.515	233.81
405.724	198.99
405.933	270.67
406.142	227.67
406.35	233.81
406.559	209.23
406.768	182.61
406.977	303.44
407.185	309.58
407.394	254.29
407.603	225.62
407.812	364.88
408.02	278.87
408.229	291.15
408.438	217.43
408.646	317.78
408.855	270.67
409.064	375.12
409.272	348.5
409.481	323.92
409.69	399.7
409.898	428.37
410.107	454.99
410.315	319.82
410.524	479.57
410.733	438.61
410.941	444.75
411.15	541.01
411.358	510.29
411.567	555.34
411.775	479.57
411.984	569.68
412.192	635.21
412.401	627.02
412.609	641.36
412.818	678.22
413.026	700.75
413.234	635.21
413.443	733.51
413.651	676.17
413.86	733.51
414.068	825.67
414.276	829.77
414.485	913.74
414.693	895.3
414.901	930.12
415.11	997.7
415.318	958.79
415.526	981.32
415.734	1079.62
415.943	1102.15
416.151	1118.53
416.359	1196.36
416.567	1126.72
416.776	1270.08
416.984	1341.76
417.192	1466.69
417.4	1392.96
417.608	1392.96
417.817	1325.38
418.025	1515.84
418.233	1659.2
418.441	1532.22
418.649	1696.06
418.857	1741.11
419.065	1917.24
419.273	1755.45
419.481	1921.34
419.689	1956.15
419.897	2138.42
420.105	2089.27
420.313	2199.86
420.521	2103.61
420.729	2296.11
420.937	2349.36
421.145	2380.08
421.353	2674.99
421.561	2662.7
421.769	2625.84
421.977	2808.11
422.185	2736.43
422.393	2941.22
422.601	3178.79
422.809	3148.07
423.017	3180.84
423.224	3299.62
423.432	3402.02
423.64	3485.98
423.848	3799.32
424.056	3619.1
424.263	3997.98
424.471	3987.74
424.679	3967.26
424.887	4178.2
425.094	4395.28
425.302	4370.71
425.51	4495.63
425.718	4755.72
425.925	4616.46
426.133	4974.86
426.341	5341.44
426.548	5427.46
426.756	5366.02
426.964	5558.53
427.171	5865.72
427.379	5914.88
427.586	6056.18
427.794	6248.69
428.001	6535.41
428.209	6867.18
428.417	6629.62
428.624	7133.42
428.832	7084.27
429.039	7098.6
429.247	7332.07
429.454	7909.6
429.662	8329.43
429.869	7844.06
430.076	8380.63
430.284	8093.91
430.491	8724.69
430.699	8853.71
430.906	8802.51
431.114	8982.73
431.321	9402.57
431.528	9421
431.736	10047.68
431.943	10381.49
432.15	10248.38
432.358	10170.55
432.565	10832.05
432.772	10911.92
432.979	11313.32
433.187	11612.32
433.394	11681.96
433.601	12304.54
433.808	12482.71
434.016	12443.8
434.223	13004.94
434.43	13553.8
434.637	13402.25
434.844	14291.07
435.052	14622.84
435.259	14602.36
435.466	14522.49
435.673	14413.95
435.88	15415.4
436.087	16011.36
436.294	16171.1
436.501	15724.65
436.708	16105.57
436.915	16842.84
437.122	17223.76
437.329	17451.08
437.537	17561.67
437.743	18004.03
437.95	17879.11
438.157	18995.25
438.364	19451.95
438.571	19806.25
438.778	19791.91
438.985	21467.15
439.192	20496.41
439.399	21411.85
439.606	20607
439.813	21997.57
440.02	23369.71
440.227	22700.03
440.433	22452.22
440.64	23683.05
440.847	23101.43
441.054	23875.56
441.261	25548.75
441.467	24805.34
441.674	25358.29
441.881	26535.87
442.088	26122.18
442.294	25778.12
442.501	26482.63
442.708	27436.98
442.914	28213.16
443.121	29513.62
443.328	28712.86
443.534	30887.81
443.741	29726.61
443.948	28895.13
444.154	31514.48
444.361	31317.88
444.568	31524.72
444.774	31225.72
444.981	31838.06
445.187	32687.97
445.394	33922.9
445.6	33793.87
445.807	36409.13
446.013	34744.13
446.22	35630.9
446.426	37439.26
446.633	37371.68
446.839	38975.23
447.046	36917.03
447.252	38979.33
447.459	39149.31
447.665	39051.01
447.871	40867.56
448.078	42321.62
448.284	40543.98
448.491	41490.14
448.697	43140.8
448.903	44054.2
449.11	44072.63
449.316	43132.61
449.522	44082.87
449.728	45162.15
449.935	45352.61
450.141	45452.96
450.347	46554.77
450.553	44916.39
450.76	45424.29
450.966	46827.15
451.172	46562.96
451.378	48162.42
451.584	46620.3
451.791	48088.7
451.997	47752.83
452.203	48572.02
452.409	48311.92
452.615	48080.5
452.821	46544.53
453.027	45874.84
453.233	48232.05
453.44	46452.37
453.646	46982.79
453.852	47355.52
454.058	47681.15
454.264	46509.71
454.47	47726.21
454.676	46116.5
454.882	47783.55
455.088	43781.82
455.294	44396.21
455.5	45418.14
455.705	45477.54
455.911	43798.2
456.117	42950.34
456.323	42462.93
456.529	40060.66
456.735	41944.79
456.941	40494.83
457.147	40214.26
457.352	38987.52
457.558	39020.29
457.764	38795.01
457.97	37900.05
458.176	37304.09
458.381	36765.48
458.587	35467.06
458.793	35262.27
458.999	33509.21
459.204	35983.15
459.41	34940.74
459.616	32882.53
459.821	32378.73
460.027	32720.74
460.233	31518.58
460.438	30297.99
460.644	30728.06
460.85	29206.42
461.055	28739.49
461.261	28475.3
461.466	26251.2
461.672	25456.59
461.878	27623.34
462.083	25851.85
462.289	24938.46
462.494	25022.42
462.7	23627.76
462.905	22960.12
463.111	24059.88
463.316	23834.6
463.522	23273.46
463.727	23416.82
463.932	23492.59
464.138	23115.76
464.343	23031.8
464.549	22532.09
464.754	23107.57
464.959	23183.35
465.165	22831.1
465.37	21717
465.575	21415.95
465.781	21815.3
465.986	22151.17
466.191	21344.27
466.397	21217.3
466.602	19951.65
466.807	20631.58
467.012	20539.42
467.218	20510.75
467.423	20353.05
467.628	20418.59
467.833	21055.51
468.038	20461.6
468.244	19804.2
468.449	20725.79
468.654	19918.89
468.859	19701.8
469.064	19644.46
469.269	18894.9
469.474	18903.09
469.679	19329.07
469.885	18827.32
470.09	19064.88
470.295	18845.75
470.5	18548.79
470.705	18821.17
470.91	18149.44
471.115	18055.23
471.32	18196.54
471.525	18198.59
471.73	17535.05
471.935	17651.78
472.139	17006.67
472.344	17127.5
472.549	17043.54
472.754	17055.83
472.959	16482.39
473.164	16054.37
473.369	15972.45
473.574	16449.63
473.778	16334.94
473.983	16080.99
474.188	16105.57
474.393	15302.76
474.598	15724.65
474.802	15532.14
475.007	15208.56
475.212	15378.54
475.417	14784.63
475.621	14653.56
475.826	14694.52
476.031	14483.58
476.235	14080.13
476.44	14340.22
476.645	14196.86
476.849	14317.69
477.054	13918.34
477.259	13496.46
477.463	13801.6
477.668	13228.17
477.872	13695.11
478.077	13484.17
478.282	12863.63
478.486	12791.95
478.691	12877.97
478.895	12923.02
479.1	12695.7
479.304	12636.31
479.509	12374.17
479.713	12349.59
479.918	12353.69
480.122	12079.26
480.326	12089.5
480.531	12341.4
480.735	12107.93
480.94	12038.3
481.144	12249.24
481.348	11710.63
481.553	11999.39
481.757	11600.04
481.961	11956.38
482.166	11921.57
482.37	11899.04
482.574	11714.72
482.778	11694.24
482.983	12048.54
483.187	11624.61
483.391	11905.18
483.595	11686.05
483.8	11702.43
484.004	11501.73
484.208	11876.51
484.412	11491.49
484.616	11634.85
484.821	11708.58
485.025	11395.24
485.229	11686.05
485.433	11597.99
485.637	11700.39
485.841	11595.94
486.045	11374.76
486.249	11688.1
486.453	11524.26
486.657	11690.15
486.861	11759.78
487.065	11344.04
487.269	11636.9
487.473	11290.79
487.677	11632.8
487.881	11841.7
488.085	11491.49
488.289	11665.57
488.493	11636.9
488.697	11800.74
488.901	11548.84
489.105	11657.38
489.309	11579.56
489.512	11690.15
489.716	11503.78
489.92	11745.44
490.124	11538.6
490.328	11890.85
490.531	11606.18
490.735	11780.26
490.939	11802.79
491.143	11817.12
491.346	11815.07
491.55	11978.91
491.754	11749.54
491.958	11995.29
492.161	11999.39
492.365	12019.87
492.569	11950.24
492.772	12034.21
492.976	11968.67
493.18	12202.14
493.383	12333.21
493.587	12277.91
493.79	12572.82
493.994	12095.64
494.197	12456.09
494.401	12552.34
494.605	12507.29
494.808	12710.04
495.012	12712.08
495.215	12937.36
495.419	12918.93
495.622	12933.26
495.825	13064.33
496.029	12968.08
496.232	13185.16
496.436	13385.87
496.639	13596.81
496.843	13469.83
497.046	13762.69
497.249	14033.02
497.453	14080.13
497.656	13936.77
497.859	14196.86
498.063	14170.24
498.266	14715
498.469	14266.49
498.673	14467.19
498.876	14526.58
499.079	14854.26
499.282	14856.31
499.485	15433.83
499.689	15282.28
499.892	15376.49
500.095	15439.98
500.298	15908.96
500.501	15779.94
500.705	16076.9
500.908	16171.1
501.111	16572.5
501.314	16488.54
501.517	16355.42
501.72	16783.45
501.923	16709.72
502.126	17004.63
502.329	17346.64
502.532	17494.09
502.735	17457.23
502.938	18026.56
503.141	18151.49
503.344	18497.6
503.547	18479.16
503.75	18604.09
503.953	19093.55
504.156	18942
504.359	19148.85
504.562	19167.28
504.765	19447.85
504.968	19867.69
505.17	20133.92
505.373	20045.86
505.576	20205.6
505.779	20465.69
505.982	20541.47
506.185	21215.25
506.387	21145.62
506.59	21280.78
506.793	21561.36
506.996	21706.76
507.198	22263.81
507.401	21929.99
507.604	22288.39
507.807	22790.14
508.009	22902.78
508.212	22976.5
508.415	23138.29
508.617	23459.82
508.82	23513.07
509.022	23375.86
509.225	24360.93
509.428	24428.51
509.63	24549.34
509.833	24535.01
510.035	25313.24
510.238	24885.21
510.44	25667.53
510.643	25870.28
510.845	26011.59
511.048	26017.74
511.25	26277.83
511.453	26677.18
511.655	27258.81
511.858	26922.94
512.06	27269.05
512.262	27414.45
512.465	27346.87
512.667	28041.13
512.87	28313.51
513.072	28258.21
513.274	28749.73
513.477	28907.42
513.679	29128.6
513.881	29466.52
514.084	29822.86
514.286	29706.13
514.488	30080.91
514.69	30848.89
514.893	30484.36
515.095	31031.16
515.297	31164.28
515.499	31311.74
515.701	31412.09
515.904	31803.25
516.106	32024.43
516.308	32462.69
516.51	33134.43
516.712	32548.71
516.914	33318.74
517.116	32970.59
517.318	33318.74
517.52	33650.52
517.722	33949.52
517.925	34658.12
518.127	34625.35
518.329	34889.54
518.531	34875.2
518.733	35499.83
518.935	35460.92
519.136	35659.57
519.338	35817.27
519.54	35888.95
519.742	36210.48
519.944	36648.74
520.146	37146.4
520.348	37424.92
520.55	37197.6
520.752	37209.89
520.954	38151.95
521.155	37734.17
521.357	38217.49
521.559	38332.17
521.761	38915.84
521.963	39024.39
522.164	39104.26
522.366	38872.84
522.568	39227.13
522.77	39450.36
522.971	40330.99
523.173	39958.26
523.375	40062.71
523.576	40031.99
523.778	40101.62
523.98	40775.4
524.181	40675.05
524.383	40742.63
524.584	41049.83
524.786	40840.93
524.988	40576.75
525.189	41580.25
525.391	41291.49
525.592	41471.71
525.794	42049.24
525.995	41961.17
526.197	41514.72
526.398	41787.1
526.6	41717.46
526.801	42006.23
527.003	42172.11
527.204	42137.3
527.406	42520.27
527.607	42127.06
527.808	42483.41
528.01	41705.18
528.211	42270.42
528.412	42782.41
528.614	42622.67
528.815	42657.48
529.016	42766.02
529.218	42598.09
529.419	42606.28
529.62	42428.11
529.822	42313.42
530.023	42589.9
530.224	42796.74
530.425	42456.78
530.626	42243.79
530.828	41995.99
531.029	43161.28
531.23	42575.56
531.431	42821.32
531.632	42893
531.833	42622.67
532.035	42186.45
532.236	42852.04
532.437	42501.84
532.638	42886.85
532.839	42311.38
533.04	42489.55
533.241	41899.73
533.442	43151.04
533.643	42518.22
533.844	42354.38
534.045	42366.67
534.246	42389.2
534.447	42798.79
534.648	42188.5
534.849	42561.23
535.05	42401.49
535.251	42229.46
535.451	41864.92
535.652	42223.31
535.853	41991.89
536.054	41639.64
536.255	42221.27
536.456	41643.74
536.657	42075.86
536.857	41844.44
537.058	41418.46
537.259	41897.69
537.46	41643.74
537.66	41783
537.861	42229.46
538.062	41604.83
538.263	41541.34
538.463	41076.45
538.664	41613.02
538.865	41701.08
539.065	41719.51
539.266	41203.42
539.466	41664.22
539.667	40756.97
539.868	41772.76
540.068	41543.39
540.269	41137.89
540.469	41371.36
540.67	40781.54
540.87	41189.09
541.071	41166.56
541.271	41262.82
541.472	41045.73
541.672	40810.21
541.873	40802.02
542.073	40701.67
542.274	41006.82
542.474	40941.28
542.675	40228.59
542.875	41178.85
543.075	40922.85
543.276	40261.36
543.476	40976.1
543.676	40402.67
543.877	40980.2
544.077	41010.92
544.277	40460.01
544.478	41058.02
544.678	40943.33
544.878	40566.51
545.078	40713.96
545.279	40019.7
545.479	40408.81
545.679	40621.8
545.879	40654.57
546.079	40392.43
546.28	40367.85
546.48	40298.22
546.68	40679.14
546.88	40376.05
547.08	40509.16
547.28	40390.38
547.48	39825.14
547.68	40879.85
547.88	40369.9
548.081	40740.58
548.281	40398.57
548.481	40353.52
548.681	40582.89
548.881	40503.02
549.081	40732.39
549.28	40529.64
549.48	40335.09
549.68	39849.72
549.88	40976.1
550.08	40320.75
550.28	40535.79
550.48	40193.78
550.68	40724.2
550.88	40431.34
551.08	40017.65
551.279	40718.06
551.479	40214.26
551.679	40611.56
551.879	40500.97
552.079	40290.03
552.278	40388.33
552.478	40500.97
552.678	40560.36
552.878	40959.72
553.077	40130.29
553.277	40173.3
553.477	41012.96
553.676	40380.14
553.876	40699.62
554.076	40505.07
554.275	40703.72
554.475	40126.19
554.674	40451.82
554.874	40554.22
555.074	40781.54
555.273	40546.03
555.473	41025.25
555.672	40406.76
555.872	40369.9
556.071	40539.88
556.271	40797.93
556.47	40582.89
556.67	40175.34
556.869	40511.21
557.068	40574.7
557.268	40535.79
557.467	40756.97
557.667	40634.09
557.866	40904.42
558.065	40296.17
558.265	40589.03
558.464	40445.68
558.663	40578.79
558.863	40206.06
559.062	41211.62
559.261	40517.36
559.461	41058.02
559.66	40271.6
559.859	40783.59
560.058	40367.85
560.258	40527.59
560.457	40206.06
560.656	40879.85
560.855	40607.47
561.054	40374
561.253	40118
561.453	40918.76
561.652	40591.08
561.851	40343.28
562.05	40427.24
562.249	40269.55
562.448	40695.53
562.647	40507.12
562.846	40552.17
563.045	40679.14
563.244	40257.26
563.443	40566.51
563.642	39982.84
563.841	40394.48
564.04	39810.81
564.239	40294.13
564.438	39923.44
564.637	40285.93
564.836	39935.73
565.035	39677.69
565.234	39534.33
565.432	39870.2
565.631	39786.23
565.83	39991.03
566.029	39134.98
566.228	39519.99
566.427	39741.17
566.625	39134.98
566.824	39280.38
567.023	39509.75
567.222	38868.74
567.42	39462.65
567.619	39278.33
567.818	39089.92
568.016	38852.36
568.215	39132.93
568.414	39053.06
568.612	38991.62
568.811	38749.96
569.01	38913.8
569.208	38455.05
569.407	38903.56
569.605	38373.13
569.804	38657.8
570.002	38237.97
570.201	38719.24
570.4	38184.72
570.598	38092.56
570.797	37783.32
570.995	37687.06
571.193	37732.12
571.392	38330.12
571.59	37760.79
571.789	38014.74
571.987	37748.5
572.186	37564.18
572.384	37529.37
572.582	37963.54
572.781	37588.76
572.979	36960.03
573.177	37033.76
573.376	37449.5
573.574	37119.77
573.772	37189.41
573.971	36724.52
574.169	36570.92
574.367	36593.45
574.565	36845.35
574.763	36489
574.962	36445.99
575.16	36140.85
575.358	36015.92
575.556	36120.37
575.754	36316.97
575.952	35616.57
576.151	36321.07
576.349	35243.84
576.547	35573.56
576.745	35536.7
576.943	35626.81
577.141	35465.02
577.339	35718.96
577.537	35493.69
577.735	35387.19
577.933	35137.34
578.131	35112.77
578.329	34955.07
578.527	34764.61
578.725	34766.66
578.923	34854.72
579.121	34525
579.319	34506.57
579.516	34944.83
579.714	34477.9
579.912	34207.56
580.11	34158.41
580.308	34432.84
580.506	34092.88
580.704	33599.32
580.901	34013.01
581.099	34176.84
581.297	33666.9
581.495	33312.6
581.692	33746.77
581.89	33306.46
582.088	33812.31
582.285	33189.72
582.483	33107.8
582.681	32958.3
582.878	33353.56
583.076	32528.23
583.274	33097.56
583.471	32790.37
583.669	32694.11
583.866	32319.34
584.064	32466.79
584.262	32067.44
584.459	32624.48
584.657	32128.88
584.854	32415.59
585.052	32124.78
585.249	32305
585.447	32339.82
585.644	31668.08
585.841	31700.85
586.039	32305
586.236	31608.69
586.434	31635.31
586.631	31616.88
586.828	31848.3
587.026	31623.03
587.223	31315.83
587.42	31326.07
587.618	31057.79
587.815	31041.4
588.012	31141.75
588.21	31037.31
588.407	31113.08
588.604	30855.04
588.801	30736.26
588.999	30609.28
589.196	30203.78
589.393	30500.74
589.59	30467.97
589.787	30478.21
589.984	30525.32
590.182	29943.69
590.379	30285.7
590.576	30087.05
590.773	30236.55
590.97	30115.72
591.167	29980.56
591.364	29669.26
591.561	29915.02
591.758	29591.44
591.955	29476.76
592.152	29818.77
592.349	29413.27
592.546	29638.55
592.743	29863.82
592.94	29341.59
593.137	29663.12
593.334	29808.53
593.531	29116.31
593.727	29247.38
593.924	29446.04
594.121	28725.15
594.318	29276.05
594.515	28819.36
594.712	29034.39
594.908	28823.45
595.105	29022.11
595.302	28387.24
595.499	28905.37
595.696	28952.48
595.892	28815.26
596.089	28997.53
596.286	28901.28
596.482	28452.77
596.679	28256.17
596.876	28837.79
597.072	28497.83
597.269	28604.32
597.466	28370.85
597.662	28442.53
597.859	28229.54
598.055	28368.8
598.252	28172.2
598.448	28129.19
598.645	28209.06
598.841	27903.92
599.038	27881.39
599.234	28272.55
599.431	28280.74
599.627	28069.8
599.824	28377
600.02	27940.78
600.217	28333.99
600.413	28059.56
600.609	28061.61
600.806	27766.7
601.002	28073.9
601.198	27840.43
601.395	27953.07
601.591	28082.09
601.787	28096.42
601.984	27633.58
602.18	28499.87
602.376	27881.39
602.572	27791.28
602.769	27969.45
602.965	27434.93
603.161	27938.73
603.357	27756.46
603.553	27725.74
603.75	27733.93
603.946	27719.6
604.142	28137.38
604.338	27658.16
604.534	27801.52
604.73	27682.73
604.926	27901.87
605.122	28010.41
605.318	27860.91
605.514	28045.23
605.71	27928.49
605.906	28067.75
606.102	27746.22
606.298	28137.38
606.494	27760.56
606.69	28026.79
606.886	28004.27
607.082	27883.44
607.278	27967.4
607.474	27516.85
607.67	28510.11
607.866	27639.73
608.062	28041.13
608.257	27824.04
608.453	28209.06
608.649	27994.03
608.845	28108.71
609.041	28159.91
609.236	28227.49
609.432	27957.16
609.628	28235.69
609.824	27879.34
610.019	28282.79
610.215	28143.53
610.411	28186.54
610.606	28329.89
610.802	28149.67
610.998	28131.24
611.193	28448.68
611.389	28170.15
611.584	28250.02
611.78	28432.29
611.976	28221.35
612.171	28288.93
612.367	28172.2
612.562	28272.55
612.758	27977.64
612.953	28264.36
613.149	28680.1
613.344	28247.97
613.539	28880.8
613.735	28444.58
613.93	28608.42
614.126	28190.63
614.321	28841.89
614.517	28557.22
614.712	27897.77
614.907	28393.38
615.103	28467.11
615.298	28467.11
615.493	28878.75
615.688	28333.99
615.884	29058.97
616.079	28258.21
616.274	28354.47
616.47	28256.17
616.665	28563.36
616.86	28407.72
617.055	28114.86
617.25	28194.73
617.445	28442.53
617.641	27752.37
617.836	28401.57
618.031	28067.75
618.226	28237.73
618.421	28092.33
618.616	28327.85
618.811	27826.09
619.006	28114.86
619.201	27912.11
619.396	27807.66
619.591	27584.43
619.786	27991.98
619.981	27281.33
620.176	27604.91
620.371	27500.47
620.566	27357.11
620.761	27047.86
620.956	27502.51
621.151	27158.45
621.346	27373.49
621.541	26632.13
621.735	27039.67
621.93	27113.4
622.125	26920.89
622.32	26228.68
622.515	26400.71
622.709	26494.91
622.904	26472.39
623.099	25909.19
623.294	26423.23
623.488	25798.6
623.683	25798.6
623.878	25536.46
624.072	25987.02
624.267	25550.8
624.462	25468.88
624.656	24940.5
624.851	25212.88
625.046	24870.87
625.24	24727.52
625.435	24948.7
625.629	24739.8
625.824	24508.38
626.018	24311.78
626.213	24158.18
626.407	24502.24
626.602	24035.3
626.796	24405.98
626.991	24055.78
627.185	23896.04
627.38	23797.74
627.574	23515.12
627.768	23525.36
627.963	23291.89
628.157	23070.71
628.352	23379.95
628.546	22779.9
628.74	23654.38
628.935	22884.34
629.129	22904.82
629.323	22437.89
629.517	22659.07
629.712	22501.37
629.906	22618.11
630.1	22296.58
630.294	22163.46
630.489	21889.03
630.683	21997.57
630.877	21784.58
631.071	21663.75
631.265	22091.78
631.459	21385.23
631.653	21370.9
631.848	21301.26
632.042	21262.35
632.236	21360.66
632.43	21092.37
632.624	20965.4
632.818	20641.82
633.012	20633.63
633.206	20711.45
633.4	20690.97
633.594	20281.38
633.788	20398.11
633.982	20301.86
634.176	20090.91
634.369	19943.46
634.563	19884.07
634.757	19623.98
634.951	19937.32
635.145	19585.07
635.339	19531.82
635.533	19331.12
635.726	19712.04
635.92	19030.07
636.114	19296.3
636.308	18792.5
636.501	18956.34
636.695	19038.26
636.889	18772.02
637.083	18497.6
637.276	18741.3
637.47	18530.36
637.664	17936.45
637.857	18120.77
638.051	18202.69
638.244	17936.45
638.438	17967.17
638.632	17739.85
638.825	17707.08
639.019	17571.91
639.212	17485.9
639.406	17530.95
639.599	17190.99
639.793	17342.54
639.986	17047.63
640.18	17215.57
640.373	17002.58
640.567	16867.41
640.76	16633.94
640.954	16470.11
641.147	16529.5
641.34	16635.99
641.534	16554.07
641.727	16281.69
641.92	16261.21
642.114	16150.62
642.307	16160.86
642.5	16044.13
642.694	15888.48
642.887	15798.37
643.08	15941.73
643.273	15652.97
643.467	15669.35
643.66	15741.03
643.853	15106.16
644.046	15300.72
644.239	15192.17
644.432	15034.48
644.626	14880.88
644.819	14839.92
645.012	14811.25
645.205	14604.41
645.398	14463.1
645.591	14477.43
645.784	14749.81
645.977	14217.34
646.17	14293.12
646.363	14135.42
646.556	14248.06
646.749	13979.78
646.942	14121.09
647.135	14016.64
647.328	13838.47
647.521	13738.12
647.714	13410.44
647.907	13492.36
648.099	13340.81
648.292	13451.4
648.485	13267.08
648.678	13162.64
648.871	13113.49
649.064	13013.13
649.256	13035.66
649.449	12961.94
649.642	12710.04
649.835	12910.74
650.027	12697.75
650.22	12669.08
650.413	12521.62
650.605	12318.87
650.798	12458.14
650.991	12277.91
651.183	12429.46
651.376	12132.51
651.568	12288.15
651.761	12148.89
651.954	12044.45
652.146	12120.22
652.339	11870.37
652.531	11933.86
652.724	11761.83
652.916	11565.22
653.109	11530.41
653.301	11763.87
653.494	11696.29
653.686	11360.42
653.879	11468.97
654.071	11337.9
654.263	11110.57
654.456	11270.31
654.648	11268.27
654.84	11038.89
655.033	11057.32
655.225	11090.09
655.417	10918.06
655.61	10983.6
655.802	11049.13
655.994	10682.55
656.186	10707.12
656.379	10629.3
656.571	10838.19
656.763	10346.68
656.955	10483.89
657.148	10555.57
657.34	10399.93
657.532	10252.47
657.724	10131.64
657.916	10166.46
658.108	10023.1
658.3	10201.27
658.492	10019
658.684	9916.61
658.876	9881.79
659.068	10014.91
659.26	9732.29
659.452	9674.95
659.644	9748.67
659.836	9513.16
660.028	9820.35
660.22	9410.76
660.412	9681.09
660.604	9461.96
660.796	9388.23
660.988	9253.06
661.18	9332.93
661.372	9218.25
661.563	9236.68
661.755	9023.69
661.947	9130.19
662.139	9113.8
662.331	8952.01
662.522	8933.58
662.714	8876.24
662.906	8917.2
663.097	8888.53
663.289	8528.08
663.481	8736.98
663.673	8663.25
663.864	8450.26
664.056	8634.58
664.247	8386.77
664.439	8356.05
664.631	8509.65
664.822	8265.94
665.014	8302.81
665.205	8360.15
665.397	8237.27
665.588	8138.97
665.78	8161.5
665.971	8132.83
666.163	8102.11
666.354	8091.87
666.546	7936.22
666.737	7741.66
666.929	7964.89
667.12	7672.03
667.311	7762.14
667.503	7817.44
667.694	7659.74
667.885	7604.45
668.077	7700.7
668.268	7508.19
668.459	7555.3
668.651	7672.03
668.842	7524.58
669.033	7377.12
669.224	7416.04
669.416	7500
669.607	7229.67
669.798	7352.55
669.989	7336.17
670.18	7385.32
670.371	7307.49
670.563	7067.88
670.754	7143.66
670.945	7049.45
671.136	6988.01
671.327	7012.59
671.518	7008.49
671.709	7000.3
671.9	6879.47
672.091	7002.35
672.282	6951.15
672.473	6918.38
672.664	6897.9
672.855	6744.3
673.046	6740.21
673.237	6883.56
673.428	6899.95
673.619	6545.65
673.809	6600.94
674	6674.67
674.191	6729.97
674.382	6535.41
674.573	6623.47
674.764	6459.63
674.954	6568.18
675.145	6549.75
675.336	6680.82
675.527	6437.11
675.717	6379.76
675.908	6242.55
676.099	6443.25
676.289	6289.65
676.48	6158.58
676.671	6303.99
676.861	6326.52
677.052	6193.4
677.243	6177.02
677.433	6191.35
677.624	6363.38
677.814	6095.1
678.005	6146.3
678.195	6123.77
678.386	6004.99
678.576	6017.27
678.767	6252.79
678.957	5996.79
679.148	6148.34
679.338	6000.89
679.529	5988.6
679.719	5890.3
679.909	6099.19
680.1	5943.55
680.29	6043.9
680.481	5837.05
680.671	6025.47
680.861	6052.09
681.052	6017.27
681.242	5964.03
681.432	5755.13
681.622	5847.29
681.813	5808.38
682.003	5937.4
682.193	5691.65
682.383	5865.72
682.573	5935.35
682.764	5861.63
682.954	5773.57
683.144	5609.73
683.334	5779.71
683.524	5695.74
683.714	5722.37
683.904	5724.41
684.094	5685.5
684.284	5685.5
684.474	5759.23
684.664	5593.34
684.854	5705.98
685.044	5593.34
685.234	5513.47
685.424	5654.78
685.614	5527.81
685.804	5671.17
685.994	5601.54
686.184	5566.72
686.374	5681.41
686.564	5517.57
686.753	5640.45
686.943	5427.46
687.133	5437.7
687.323	5374.21
687.513	5511.43
687.702	5345.54
687.892	5474.56
688.082	5259.53
688.272	5308.68
688.461	5406.98
688.651	5329.16
688.841	5189.89
689.03	5134.6
689.22	5091.59
689.41	5216.52
689.599	5411.07
689.789	5208.33
689.979	5183.75
690.168	5159.17
690.358	5075.21
690.547	5165.32
690.737	5212.42
690.926	5237
691.116	4925.71
691.305	5138.69
691.495	5034.25
691.684	4899.08
691.874	4911.37
692.063	4944.14
692.252	5060.87
692.442	5001.48
692.631	4892.94
692.82	5067.02
693.01	4929.8
693.199	5013.77
693.388	4837.64
693.578	4931.85
693.767	4972.81
693.956	4950.28
694.146	4733.2
694.335	4751.63
694.524	4800.78
694.713	4743.44
694.902	4929.8
695.092	4768.01
695.281	4731.15
695.47	4694.29
695.659	4645.13
695.848	4649.23
696.037	4659.47
696.226	4782.35
696.415	4602.13
696.604	4698.38
696.793	4526.35
696.982	4509.97
697.171	4593.94
697.36	4624.65
697.549	4559.12
697.738	4550.93
697.927	4542.74
698.116	4514.06
698.305	4538.64
698.494	4567.31
698.683	4518.16
698.872	4518.16
699.061	4522.26
699.25	4495.63
699.438	4387.09
699.627	4409.62
699.816	4423.95
700.005	4407.57
700.193	4350.23
700.382	4313.36
700.571	4382.99
700.76	4313.36
700.948	4354.32
701.137	4245.78
701.326	4280.6
701.514	4251.92
701.703	4358.42
701.892	4319.51
702.08	4239.64
702.269	4378.9
702.457	4088.09
702.646	4256.02
702.834	4333.84
703.023	4258.07
703.212	4249.88
703.4	4114.71
703.589	4176.15
703.777	4135.19
703.965	4036.89
704.154	4198.68
704.342	4030.74
704.531	4061.46
704.719	4022.55
704.907	4141.33
705.096	3977.5
705.284	4043.03
705.472	3971.35
705.661	4063.51
705.849	4112.66
706.037	4036.89
706.226	3997.98
706.414	4030.74
706.602	4067.61
706.79	4079.9
706.979	3987.74
707.167	3827.99
707.355	3834.14
707.543	3957.02
707.731	3838.23
707.919	3883.29
708.107	3813.66
708.296	3895.58
708.484	3840.28
708.672	3885.34
708.86	3768.6
709.048	3811.61
709.236	3592.48
709.424	3862.81
709.612	3750.17
709.8	3830.04
709.988	3744.03
710.176	3772.7
710.364	3791.13
710.551	3637.53
710.739	3756.32
710.927	3815.71
711.115	3643.68
711.303	3666.21
711.491	3674.4
711.679	3604.77
711.866	3537.18
712.054	3502.37
712.242	3578.14
712.43	3666.21
712.617	3445.02
712.805	3615.01
712.993	3547.42
713.181	3389.73
713.368	3471.65
713.556	3580.19
713.744	3387.68
713.931	3582.24
714.119	3578.14
714.306	3463.46
714.494	3422.5
714.682	3424.55
714.869	3408.16
715.057	3379.49
715.244	3375.39
715.432	3422.5
715.619	3242.28
715.807	3485.98
715.994	3408.16
716.182	3293.48
716.369	3342.63
716.556	3453.22
716.744	3117.35
716.931	3352.87
717.119	3350.82
717.306	3447.07
717.493	3227.94
717.681	3402.02
717.868	3264.8
718.055	3283.24
718.242	3156.26
718.43	3174.69
718.617	3184.93
718.804	3191.08
718.991	3186.98
719.179	3125.54
719.366	3176.74
719.553	3236.13
719.74	3150.12
719.927	3133.73
720.114	3035.43
720.301	3084.58
720.488	3100.97
720.676	3012.9
720.863	3174.69
721.05	3131.69
721.237	2896.17
721.424	3150.12
721.611	3092.77
721.798	2955.56
721.985	3070.25
722.172	3176.74
722.358	2920.74
722.545	3084.58
722.732	3027.24
722.919	3084.58
723.106	3051.81
723.293	2980.14
723.48	3039.53
723.667	2865.45
723.853	2834.73
724.04	3049.77
724.227	2906.41
724.414	2894.12
724.6	2963.75
724.787	2871.59
724.974	2922.79
725.161	2822.44
725.347	2740.52
725.534	3010.86
725.72	2830.63
725.907	2939.18
726.094	2806.06
726.28	2810.15
726.467	2693.42
726.653	2658.6
726.84	2883.88
727.027	2834.73
727.213	2808.11
727.4	2873.64
727.586	2779.43
727.773	2748.72
727.959	2730.28
728.145	2666.8
728.332	2650.41
728.518	2826.54
728.705	2756.91
728.891	2711.85
729.077	2769.2
729.264	2650.41
729.45	2642.22
729.636	2711.85
729.823	2625.84
730.009	2693.42
730.195	2662.7
730.382	2670.89
730.568	2593.07
730.754	2679.08
730.94	2570.54
731.126	2625.84
731.313	2636.08
731.499	2631.98
731.685	2554.16
731.871	2429.23
732.057	2601.26
732.243	2593.07
732.429	2619.69
732.615	2591.02
732.801	2568.49
732.987	2431.28
733.173	2593.07
733.359	2500.91
733.545	2308.4
733.731	2396.46
733.917	2634.03
734.103	2507.06
734.289	2609.45
734.475	2490.67
734.661	2507.06
734.847	2380.08
735.033	2462
735.219	2519.34
735.404	2380.08
735.59	2478.38
735.776	2380.08
735.962	2445.62
736.148	2347.31
736.333	2447.66
736.519	2398.51
736.705	2423.09
736.89	2404.66
737.076	2445.62
737.262	2378.03
737.447	2359.6
737.633	2294.07
737.819	2371.89
738.004	2269.49
738.19	2208.05
738.375	2355.51
738.561	2502.96
738.747	2259.25
738.932	2249.01
739.118	2244.92
739.303	2357.55
739.489	2300.21
739.674	2193.72
739.859	2199.86
740.045	2289.97
740.23	2263.35
740.416	2175.28
740.601	2083.13
740.786	2181.43
740.972	2103.61
741.157	2054.45
741.342	2158.9
741.528	2134.32
741.713	2298.16
741.898	2097.46
742.084	2091.32
742.269	2179.38
742.454	2152.76
742.639	2044.21
742.824	2183.48
743.01	2089.27
743.195	2109.75
743.38	2044.21
743.565	2023.73
743.75	1956.15
743.935	2085.17
744.12	2015.54
744.305	1872.18
744.49	1970.49
744.675	2011.45
744.86	2062.65
745.045	1898.81
745.23	1900.86
745.415	1880.38
745.6	1970.49
745.785	1960.25
745.97	2025.78
746.155	1970.49
746.34	1872.18
746.525	1804.6
746.71	2040.12
746.895	1806.65
747.079	1812.79
747.264	1808.7
747.449	1939.77
747.634	1915.19
747.819	1933.62
748.003	1790.27
748.188	1691.96
748.373	1835.32
748.557	1732.92
748.742	1741.11
748.927	1780.03
749.111	1769.79
749.296	1784.12
749.481	1669.44
749.665	1667.39
749.85	1636.67
750.034	1788.22
750.219	1751.35
750.404	1642.81
750.588	1642.81
750.773	1620.28
750.957	1585.47
751.141	1651
751.326	1634.62
751.51	1603.9
751.695	1556.8
751.879	1519.93
752.064	1567.04
752.248	1433.92
752.432	1595.71
752.617	1593.66
752.801	1554.75
752.985	1509.69
753.17	1458.5
753.354	1448.26
753.538	1487.17
753.722	1438.02
753.907	1444.16
754.091	1362.24
754.275	1517.89
754.459	1462.59
754.643	1290.56
754.828	1376.58
755.012	1331.52
755.196	1286.47
755.38	1366.34
755.564	1343.81
755.748	1423.68
755.932	1354.05
756.116	1284.42
756.3	1306.95
756.484	1284.42
756.668	1429.82
756.852	1276.23
757.036	1276.23
757.22	1347.9
757.404	1116.48
757.588	1233.22
757.772	1200.45
757.956	1179.97
758.14	1245.51
758.323	1163.59
758.507	1177.92
758.691	1249.6
758.875	1208.64
759.059	1179.97
759.242	1227.07
759.426	1073.48
759.61	1159.49
759.794	1136.96
759.977	1220.93
760.161	1220.93
760.345	1259.84
760.528	1192.26
760.712	1167.68
760.895	1151.3
761.079	1118.53
761.263	1038.66
761.446	1055.05
761.63	1106.24
761.813	1157.44
761.997	1077.57
762.18	1057.09
762.364	977.22
762.547	979.27
762.731	1085.76
762.914	1050.95
763.098	1093.96
763.281	1001.8
763.464	985.41
763.648	997.7
763.831	966.98
764.015	1057.09
764.198	999.75
764.381	971.08
764.564	1061.19
764.748	948.55
764.931	1071.43
765.114	969.03
765.297	989.51
765.481	946.5
765.664	1007.94
765.847	907.59
766.03	1055.05
766.213	915.78
766.397	864.58
766.58	946.5
766.763	819.53
766.946	938.31
767.129	932.17
767.312	866.63
767.495	901.45
767.678	880.97
767.861	934.22
768.044	962.89
768.227	962.89
768.41	897.35
768.593	930.12
768.776	1020.23
768.959	840.01
769.142	913.74
769.324	964.93
769.507	878.92
769.69	883.02
769.873	817.48
770.056	956.74
770.239	960.84
770.421	950.6
770.604	911.69
770.787	835.91
770.97	911.69
771.152	846.15
771.335	848.2
771.518	815.43
771.7	923.98
771.883	893.26
772.066	794.95
772.248	786.76
772.431	940.36
772.613	883.02
772.796	790.86
772.978	960.84
773.161	848.2
773.343	743.75
773.526	842.06
773.708	704.84
773.891	733.51
774.073	809.29
774.256	725.32
774.438	807.24
774.621	706.89
774.803	737.61
774.985	823.62
775.168	692.55
775.35	782.67
775.532	803.15
775.715	708.94
775.897	708.94
776.079	743.75
776.261	680.27
776.444	680.27
776.626	780.62
776.808	643.4
776.99	782.67
777.173	665.93
777.355	610.64
777.537	637.26
777.719	704.84
777.901	657.74
778.083	663.88
778.265	672.08
778.447	741.71
778.629	604.49
778.811	659.79
778.993	680.27
779.175	565.58
779.357	788.81
779.539	663.88
779.721	657.74
779.903	629.07
780.085	622.92
780.267	514.38
780.449	549.2
780.631	696.65
780.812	618.83
780.994	627.02
781.176	633.16
781.358	549.2
781.54	547.15
781.721	606.54
781.903	565.58
782.085	569.68
782.267	491.85
782.448	528.72
782.63	571.72
782.812	590.16
782.993	571.72
783.175	563.53
783.357	516.43
783.538	557.39
783.72	393.55
783.901	631.12
784.083	504.14
784.264	495.95
784.446	487.76
784.627	448.85
784.809	465.23
784.99	471.37
785.172	565.58
785.353	471.37
785.535	454.99
785.716	489.81
785.897	495.95
786.079	391.5
786.26	426.32
786.441	430.41
786.623	450.89
786.804	434.51
786.985	418.13
787.167	434.51
787.348	457.04
787.529	471.37
787.71	438.61
787.891	416.08
788.073	409.94
788.254	397.65
788.435	508.24
788.616	450.89
788.797	360.78
788.978	356.69
789.159	426.32
789.34	385.36
789.522	371.02
789.703	401.74
789.884	381.26
790.065	401.74
790.246	407.89
790.427	307.54
790.607	397.65
790.788	401.74
790.969	375.12
791.15	450.89
791.331	325.97
791.512	299.34
791.693	309.58
791.874	381.26
792.054	420.17
792.235	436.56
792.416	274.77
792.597	336.21
792.778	405.84
792.958	381.26
793.139	315.73
793.32	334.16
793.5	262.48
793.681	397.65
793.862	282.96
794.042	313.68
794.223	274.77
794.404	315.73
794.584	258.39
794.765	344.4
794.945	287.06
795.126	274.77
795.306	242
795.487	242
795.667	311.63
795.848	299.34
796.028	311.63
796.209	293.2
796.389	282.96
796.57	319.82
796.75	307.54
796.93	280.91
797.111	244.05
797.291	352.59
797.471	266.58
797.652	278.87
797.832	217.43
798.012	344.4
798.192	203.09
798.373	237.91
798.553	225.62
798.733	301.39
798.913	180.56
799.093	227.67
799.274	260.43
799.454	319.82
799.634	303.44
799.814	328.02
799.994	250.19
800.174	303.44
800.354	229.71
800.534	225.62
800.714	303.44
800.894	260.43
801.074	188.75
801.254	194.9
801.434	268.63
801.614	209.23
801.794	205.14
801.974	950.6
802.154	176.47
802.334	188.75
802.514	188.75
802.693	315.73
802.873	160.08
803.053	262.48
803.233	237.91
803.413	237.91
803.592	178.51
803.772	313.68
803.952	184.66
804.131	205.14
804.311	233.81
804.491	215.38
804.67	211.28
804.85	239.95
805.03	194.9
805.209	188.75
805.389	188.75
805.568	262.48
805.748	145.75
805.928	123.22
806.107	184.66
806.287	237.91
806.466	129.36
806.646	155.99
806.825	121.17
807.004	192.85
807.184	155.99
807.363	287.06
807.543	168.27
807.722	201.04
807.901	209.23
808.081	143.7
808.26	168.27
808.439	256.34
808.619	155.99
808.798	133.46
808.977	233.81
809.156	192.85
809.336	180.56
809.515	235.86
809.694	141.65
809.873	151.89
810.052	184.66
810.231	190.8
810.411	227.67
810.59	244.05
810.769	160.08
810.948	192.85
811.127	98.64
811.306	110.93
811.485	151.89
811.664	258.39
811.843	184.66
812.022	145.75
812.201	196.95
812.38	158.03
812.559	172.37
812.737	78.16
812.916	188.75
813.095	119.12
813.274	94.55
813.453	129.36
813.632	170.32
813.811	135.51
813.989	133.46
814.168	155.99
814.347	88.4
814.526	49.49
814.704	158.03
814.883	207.19
815.062	160.08
815.24	160.08
815.419	74.07
815.598	131.41
815.776	69.97
815.955	164.18
816.133	135.51
816.312	115.03
816.49	123.22
816.669	141.65
816.847	112.98
817.026	115.03
817.204	119.12
817.383	80.21
817.561	76.12
817.74	137.56
817.918	29.01
818.097	90.45
818.275	119.12
818.453	115.03
818.632	170.32
818.81	256.34
818.988	100.69
819.167	53.59
819.345	119.12
819.523	160.08
819.701	129.36
819.879	102.74
820.058	168.27
820.236	84.31
820.414	98.64
820.592	110.93
820.77	125.27
820.948	131.41
821.127	119.12
821.305	127.32
821.483	90.45
821.661	180.56
821.839	162.13
822.017	102.74
822.195	110.93
822.373	112.98
822.551	133.46
822.729	123.22
822.907	53.59
823.085	78.16
823.262	112.98
823.44	65.88
823.618	110.93
823.796	45.4
823.974	63.83
824.152	86.36
824.329	139.6
824.507	104.79
824.685	127.32
824.863	102.74
825.04	65.88
825.218	29.01
825.396	82.26
825.574	151.89
825.751	92.5
825.929	151.89
826.107	14.68
826.284	151.89
826.462	92.5
826.639	98.64
826.817	86.36
826.994	112.98
827.172	131.41
827.349	168.27
827.527	115.03
827.704	12.63
827.882	33.11
828.059	96.6
828.237	20.82
828.414	57.68
828.591	45.4
828.769	110.93
828.946	12.63
829.124	121.17
829.301	74.07
829.478	20.82
829.655	55.64
829.833	37.2
830.01	12.63
830.187	57.68
830.364	61.78
830.542	86.36
830.719	67.92
830.896	41.3
831.073	49.49
831.25	61.78
831.427	94.55
831.604	74.07
831.782	104.79
831.959	78.16
832.136	63.83
832.313	86.36
832.49	39.25
832.667	80.21
832.844	53.59
833.021	123.22
833.198	149.84
833.374	12.63
833.551	55.64
833.728	88.4
833.905	164.18
834.082	41.3
834.259	53.59
834.436	76.12
834.612	61.78
834.789	121.17
834.966	100.69
835.143	121.17
835.319	72.02
835.496	106.84
835.673	61.78
835.85	63.83
836.026	39.25
836.203	96.6
836.38	63.83
836.556	119.12
836.733	26.96
836.909	88.4
837.086	-9.9
837.262	31.06
837.439	112.98
837.616	-1.71
837.792	10.58
837.968	129.36
838.145	-11.95
838.321	26.96
838.498	49.49
838.674	90.45
838.851	39.25
839.027	16.73
839.203	108.88
839.38	-28.33
839.556	-34.47
839.732	112.98
839.909	86.36
840.085	88.4
840.261	-32.43
840.437	67.92
840.614	-52.91
840.79	63.83
840.966	102.74
841.142	16.73
841.318	-5.8
841.494	53.59
841.671	22.87
841.847	-28.33
842.023	78.16
842.199	31.06
842.375	10.58
842.551	-69.29
842.727	16.73
842.903	84.31
843.079	123.22
843.255	110.93
843.431	74.07
843.607	69.97
843.783	2.39
843.959	-26.28
844.134	47.44
844.31	102.74
844.486	37.2
844.662	-5.8
844.838	-24.23
845.013	33.11
845.189	145.75
845.365	135.51
845.541	18.77
845.716	115.03
845.892	4.44
846.068	37.2
846.244	37.2
846.419	39.25
846.595	24.92
846.77	45.4
846.946	69.97
847.122	86.36
847.297	33.11
847.473	84.31
847.648	-7.85
847.824	63.83
847.999	-16.04
848.175	24.92
848.35	31.06
848.526	26.96
848.701	14.68
848.876	37.2
849.052	-34.47
849.227	39.25
849.403	47.44
849.578	33.11
849.753	-7.85
849.929	72.02
850.104	57.68
850.279	4.44
850.454	98.64
850.63	57.68
850.805	33.11
850.98	51.54
851.155	12.63
851.33	45.4
851.505	-20.14
851.681	160.08
851.856	-20.14
852.031	104.79
852.206	39.25
852.381	-44.71
852.556	-7.85
852.731	63.83
852.906	22.87
853.081	63.83
853.256	55.64
853.431	33.11
853.606	6.49
853.781	-52.91
853.956	2.39
854.131	53.59
854.305	39.25
854.48	16.73
854.655	-32.43
854.83	14.68
855.005	57.68
855.18	37.2
855.354	26.96
855.529	12.63
855.704	24.92
855.879	29.01
856.053	47.44
856.228	20.82
856.403	78.16
856.577	4.44
856.752	14.68
856.926	29.01
857.101	82.26
857.276	53.59
857.45	59.73
857.625	33.11
857.799	39.25
857.974	26.96
858.148	-9.9
858.323	37.2
858.497	-7.85
858.672	16.73
858.846	6.49
859.02	4.44
859.195	-28.33
859.369	14.68
859.543	0.34
859.718	31.06
859.892	-7.85
860.066	22.87
860.241	29.01
860.415	14.68
860.589	29.01
860.763	16.73
860.938	-1.71
861.112	80.21
861.286	12.63
861.46	20.82
861.634	-24.23
861.808	69.97
861.982	-16.04
862.157	51.54
862.331	12.63
862.505	-44.71
862.679	-57
862.853	102.74
863.027	-7.85
863.201	110.93
863.375	16.73
863.549	-11.95
863.722	82.26
863.896	51.54
864.07	-61.1
864.244	-13.99
864.418	14.68
864.592	45.4
864.766	-7.85
864.939	16.73
865.113	18.77
865.287	45.4
865.461	29.01
865.634	86.36
865.808	29.01
865.982	61.78
866.156	16.73
866.329	4.44
866.503	24.92
866.676	12.63
866.85	33.11
867.024	55.64
867.197	-57
867.371	45.4
867.544	12.63
867.718	-20.14
867.891	-9.9
868.065	6.49
868.238	16.73
868.412	33.11
868.585	102.74
868.759	98.64
868.932	-7.85
869.105	-26.28
869.279	55.64
869.452	-11.95
869.625	-13.99
869.799	-1.71
869.972	29.01
870.145	-1.71
870.319	49.49
870.492	-9.9
870.665	10.58
870.838	-44.71
871.011	-28.33
871.185	121.17
871.358	-36.52
871.531	4.44
871.704	39.25
871.877	63.83
872.05	-3.75
872.223	-1.71
872.396	67.92
872.569	6.49
872.742	-34.47
872.915	16.73
873.088	18.77
873.261	-18.09
873.434	53.59
873.607	4.44
873.78	16.73
873.953	-11.95
874.126	-28.33
874.299	57.68
874.471	-7.85
874.644	-48.81
874.817	-28.33
874.99	65.88
875.163	12.63
875.335	43.35
875.508	12.63
875.681	-3.75
875.853	-9.9
876.026	20.82
876.199	-16.04
876.371	29.01
876.544	-18.09
876.717	-11.95
876.889	0.34
877.062	-61.1
877.234	-28.33
877.407	12.63
877.579	4.44
877.752	88.4
877.924	18.77
878.097	-36.52
878.269	-3.75
878.442	39.25
878.614	29.01
878.786	53.59
878.959	6.49
879.131	4.44
879.303	-61.1
879.476	20.82
879.648	22.87
879.82	29.01
879.993	-52.91
880.165	39.25
880.337	-36.52
880.509	74.07
880.681	-44.71
880.854	-20.14
881.026	45.4
881.198	26.96
881.37	-32.43
881.542	0.34
881.714	53.59
881.886	-1.71
882.058	-69.29
882.23	-3.75
882.402	-50.86
882.574	-32.43
882.746	-24.23
882.918	29.01
883.09	-16.04
883.262	24.92
883.434	20.82
883.606	-85.67
883.778	-9.9
883.95	51.54
884.122	10.58
884.293	-34.47
884.465	16.73
884.637	80.21
884.809	-54.95
884.98	-20.14
885.152	12.63
885.324	10.58
885.496	-26.28
885.667	14.68
885.839	-36.52
886.011	53.59
886.182	8.53
886.354	61.78
886.525	59.73
886.697	6.49
886.869	29.01
887.04	-18.09
887.212	12.63
887.383	72.02
887.555	-3.75
887.726	-97.96
887.897	-5.8
888.069	-42.67
888.24	57.68
888.412	-24.23
888.583	0.34
888.754	-18.09
888.926	-20.14
889.097	-26.28
889.268	-59.05
889.44	78.16
889.611	-40.62
889.782	6.49
889.953	-104.11
890.125	12.63
890.296	-9.9
890.467	2.39
890.638	26.96
890.809	26.96
890.98	24.92
891.151	49.49
891.323	43.35
891.494	80.21
891.665	-61.1
891.836	-1.71
892.007	-52.91
892.178	-1.71
892.349	-59.05
892.52	-61.1
892.691	-73.39
892.862	-61.1
893.032	-3.75
893.203	-40.62
893.374	-36.52
893.545	-24.23
893.716	-11.95
893.887	88.4
894.057	-61.1
894.228	-61.1
894.399	-50.86
894.57	18.77
894.74	-3.75
894.911	29.01
895.082	-16.04
895.253	53.59
895.423	-28.33
895.594	-93.87
895.764	-7.85
895.935	-67.24
896.106	20.82
896.276	69.97
896.447	-5.8
896.617	55.64
896.788	-3.75
896.958	-28.33
897.129	-3.75
897.299	-24.23
897.47	49.49
897.64	16.73
897.81	47.44
897.981	43.35
898.151	-48.81
898.322	-50.86
898.492	-9.9
898.662	-34.47
898.832	-11.95
899.003	-26.28
899.173	6.49
899.343	-5.8
899.513	-24.23
