Data from USB4F104151__118__14-31-14-136.txt Node

Date: Thu Mar 13 14:31:14 EDT 2025
User: louis
Spectrometer: USB4F10415
Trigger mode: 4
Integration Time (sec): 2.500000E-2
Scans to average: 1
Electric dark correction enabled: true
Nonlinearity correction enabled: false
Boxcar width: 0
XAxis mode: Wavelengths
Number of Pixels in Spectrum: 3648
>>>>>Begin Spectral Data<<<<<
178.204	-134.31
178.424	-134.31
178.644	-134.31
178.864	-230.57
179.084	-212.14
179.304	19.29
179.524	-40.11
179.744	-23.72
179.964	45.91
180.184	41.81
180.404	-19.63
180.624	-3.24
180.844	-50.35
181.064	-3.24
181.283	-27.82
181.503	-9.39
181.723	70.48
181.943	-15.53
182.163	56.15
182.383	-23.72
182.602	-11.43
182.822	56.15
183.042	-38.06
183.262	33.62
183.482	58.2
183.701	-27.82
183.921	56.15
184.141	-17.58
184.361	23.38
184.58	2.9
184.8	-27.82
185.02	-15.53
185.239	-25.77
185.459	-40.11
185.679	78.68
185.898	-17.58
186.118	99.16
186.338	4.95
186.557	45.91
186.777	-56.49
186.997	-27.82
187.216	0.85
187.436	45.91
187.655	-1.19
187.875	-3.24
188.095	31.57
188.314	70.48
188.534	21.33
188.753	-25.77
188.973	23.38
189.192	33.62
189.412	-36.01
189.631	78.68
189.851	17.24
190.07	47.96
190.29	17.24
190.509	-38.06
190.729	41.81
190.948	-5.29
191.168	242.51
191.387	103.25
191.607	-19.63
191.826	-3.24
192.045	41.81
192.265	-5.29
192.484	45.91
192.704	-3.24
192.923	-44.2
193.142	99.16
193.362	62.29
193.581	62.29
193.8	-15.53
194.02	-9.39
194.239	-27.82
194.458	-7.34
194.678	7
194.897	136.02
195.116	13.14
195.335	90.96
195.555	45.91
195.774	7
195.993	-1.19
196.212	13.14
196.432	78.68
196.651	15.19
196.87	25.43
197.089	80.72
197.308	86.87
197.528	-3.24
197.747	-62.63
197.966	7
198.185	144.21
198.404	33.62
198.623	29.52
198.842	43.86
199.062	95.06
199.281	0.85
199.5	-23.72
199.719	0.85
199.938	66.39
200.157	70.48
200.376	70.48
200.595	39.76
200.814	-29.87
201.033	97.11
201.252	15.19
201.471	4.95
201.69	115.54
201.909	45.91
202.128	35.67
202.347	58.2
202.566	-1.19
202.785	52.05
203.004	-72.87
203.223	127.83
203.442	58.2
203.661	21.33
203.879	-3.24
204.098	35.67
204.317	54.1
204.536	33.62
204.755	35.67
204.974	-48.3
205.193	39.76
205.411	86.87
205.63	78.68
205.849	107.35
206.068	37.72
206.287	15.19
206.505	41.81
206.724	39.76
206.943	-11.43
207.162	64.34
207.381	9.05
207.599	17.24
207.818	-31.91
208.037	-38.06
208.255	29.52
208.474	33.62
208.693	-48.3
208.911	-15.53
209.13	23.38
209.349	62.29
209.567	29.52
209.786	82.77
210.005	13.14
210.223	-5.29
210.442	21.33
210.661	-7.34
210.879	23.38
211.098	23.38
211.316	50
211.535	62.29
211.753	9.05
211.972	23.38
212.191	29.52
212.409	-29.87
212.628	86.87
212.846	-42.15
213.065	21.33
213.283	68.44
213.502	-42.15
213.72	62.29
213.938	76.63
214.157	7
214.375	25.43
214.594	31.57
214.812	62.29
215.031	-13.48
215.249	39.76
215.467	13.14
215.686	37.72
215.904	43.86
216.122	17.24
216.341	41.81
216.559	-25.77
216.778	56.15
216.996	62.29
217.214	45.91
217.432	7
217.651	56.15
217.869	-21.67
218.087	41.81
218.306	29.52
218.524	47.96
218.742	-101.55
218.96	97.11
219.179	-3.24
219.397	21.33
219.615	82.77
219.833	39.76
220.051	78.68
220.27	-17.58
220.488	45.91
220.706	-85.16
220.924	-50.35
221.142	31.57
221.36	-31.91
221.578	21.33
221.796	-17.58
222.015	-7.34
222.233	-33.96
222.451	9.05
222.669	-15.53
222.887	23.38
223.105	-11.43
223.323	-27.82
223.541	80.72
223.759	82.77
223.977	-11.43
224.195	56.15
224.413	31.57
224.631	64.34
224.849	101.2
225.067	99.16
225.285	-33.96
225.503	-54.44
225.721	0.85
225.939	37.72
226.157	37.72
226.375	78.68
226.592	-54.44
226.81	11.09
227.028	-31.91
227.246	127.83
227.464	56.15
227.682	15.19
227.9	-29.87
228.117	84.82
228.335	66.39
228.553	21.33
228.771	21.33
228.989	13.14
229.206	47.96
229.424	23.38
229.642	31.57
229.86	43.86
230.077	21.33
230.295	21.33
230.513	50
230.731	-11.43
230.948	78.68
231.166	41.81
231.384	25.43
231.601	31.57
231.819	17.24
232.037	19.29
232.254	-52.39
232.472	54.1
232.689	-46.25
232.907	72.53
233.125	-25.77
233.342	13.14
233.56	-25.77
233.777	47.96
233.995	13.14
234.213	21.33
234.43	131.92
234.648	45.91
234.865	-31.91
235.083	29.52
235.3	64.34
235.518	70.48
235.735	74.58
235.953	84.82
236.17	-9.39
236.388	0.85
236.605	76.63
236.822	50
237.04	19.29
237.257	37.72
237.475	0.85
237.692	62.29
237.909	-31.91
238.127	-3.24
238.344	17.24
238.562	90.96
238.779	-99.5
238.996	33.62
239.214	-44.2
239.431	95.06
239.648	21.33
239.865	4.95
240.083	80.72
240.3	-19.63
240.517	-7.34
240.735	37.72
240.952	19.29
241.169	66.39
241.386	47.96
241.603	86.87
241.821	-60.59
242.038	41.81
242.255	52.05
242.472	-25.77
242.689	109.4
242.907	-7.34
243.124	-58.54
243.341	-38.06
243.558	19.29
243.775	-58.54
243.992	21.33
244.209	15.19
244.426	11.09
244.643	-1.19
244.86	95.06
245.078	113.49
245.295	127.83
245.512	0.85
245.729	-33.96
245.946	21.33
246.163	23.38
246.38	4.95
246.597	54.1
246.814	21.33
247.031	37.72
247.248	56.15
247.464	13.14
247.681	37.72
247.898	72.53
248.115	23.38
248.332	-58.54
248.549	70.48
248.766	80.72
248.983	56.15
249.2	-13.48
249.417	-1.19
249.633	17.24
249.85	-3.24
250.067	21.33
250.284	50
250.501	15.19
250.717	58.2
250.934	-60.59
251.151	17.24
251.368	56.15
251.585	111.44
251.801	78.68
252.018	41.81
252.235	13.14
252.451	15.19
252.668	-68.78
252.885	39.76
253.102	21.33
253.318	-25.77
253.535	-52.39
253.752	17.24
253.968	-40.11
254.185	-33.96
254.401	4.95
254.618	13.14
254.835	19.29
255.051	103.25
255.268	37.72
255.484	4.95
255.701	37.72
255.917	72.53
256.134	29.52
256.351	78.68
256.567	25.43
256.784	4.95
257	37.72
257.217	121.68
257.433	101.2
257.65	95.06
257.866	31.57
258.082	-31.91
258.299	-76.97
258.515	4.95
258.732	21.33
258.948	-19.63
259.165	4.95
259.381	21.33
259.597	21.33
259.814	27.48
260.03	0.85
260.246	99.16
260.463	9.05
260.679	45.91
260.895	-11.43
261.112	95.06
261.328	9.05
261.544	31.57
261.761	72.53
261.977	7
262.193	-89.26
262.409	-33.96
262.626	29.52
262.842	54.1
263.058	72.53
263.274	-7.34
263.49	-1.19
263.707	29.52
263.923	15.19
264.139	-29.87
264.355	-70.83
264.571	90.96
264.787	37.72
265.004	13.14
265.22	-11.43
265.436	-27.82
265.652	37.72
265.868	113.49
266.084	-60.59
266.3	54.1
266.516	31.57
266.732	-33.96
266.948	15.19
267.164	7
267.38	-33.96
267.596	7
267.812	66.39
268.028	33.62
268.244	-7.34
268.46	23.38
268.676	54.1
268.892	-31.91
269.108	2.9
269.324	-11.43
269.54	-46.25
269.756	37.72
269.972	-52.39
270.188	-15.53
270.403	37.72
270.619	15.19
270.835	-21.67
271.051	21.33
271.267	31.57
271.483	4.95
271.698	76.63
271.914	-9.39
272.13	-27.82
272.346	-66.73
272.562	72.53
272.777	129.88
272.993	-36.01
273.209	-15.53
273.425	45.91
273.64	-19.63
273.856	144.21
274.072	-11.43
274.287	74.58
274.503	111.44
274.719	-3.24
274.934	70.48
275.15	31.57
275.366	-15.53
275.581	-36.01
275.797	103.25
276.012	29.52
276.228	21.33
276.444	105.3
276.659	142.16
276.875	43.86
277.09	-11.43
277.306	-38.06
277.521	39.76
277.737	13.14
277.952	4.95
278.168	72.53
278.383	-23.72
278.599	-36.01
278.814	60.24
279.03	35.67
279.245	41.81
279.461	21.33
279.676	95.06
279.892	13.14
280.107	39.76
280.322	37.72
280.538	74.58
280.753	-52.39
280.969	35.67
281.184	-21.67
281.399	23.38
281.615	21.33
281.83	4.95
282.045	-3.24
282.26	21.33
282.476	37.72
282.691	-19.63
282.906	66.39
283.122	25.43
283.337	23.38
283.552	-1.19
283.767	15.19
283.983	72.53
284.198	29.52
284.413	54.1
284.628	-36.01
284.843	21.33
285.058	54.1
285.274	45.91
285.489	41.81
285.704	29.52
285.919	-13.48
286.134	-27.82
286.349	4.95
286.564	21.33
286.779	45.91
286.995	7
287.21	23.38
287.425	15.19
287.64	43.86
287.855	4.95
288.07	64.34
288.285	29.52
288.5	99.16
288.715	78.68
288.93	39.76
289.145	-48.3
289.36	23.38
289.575	-1.19
289.79	70.48
290.004	70.48
290.219	41.81
290.434	29.52
290.649	-52.39
290.864	29.52
291.079	23.38
291.294	50
291.509	19.29
291.724	-3.24
291.938	-95.4
292.153	9.05
292.368	37.72
292.583	50
292.798	9.05
293.012	72.53
293.227	70.48
293.442	21.33
293.657	50
293.871	93.01
294.086	13.14
294.301	95.06
294.516	-42.15
294.73	60.24
294.945	-7.34
295.16	29.52
295.374	-5.29
295.589	29.52
295.804	15.19
296.018	54.1
296.233	109.4
296.447	13.14
296.662	-15.53
296.877	58.2
297.091	47.96
297.306	43.86
297.52	-99.5
297.735	93.01
297.949	-99.5
298.164	70.48
298.378	7
298.593	45.91
298.807	0.85
299.022	62.29
299.236	31.57
299.451	-68.78
299.665	13.14
299.88	29.52
300.094	-97.45
300.309	25.43
300.523	-3.24
300.737	2.9
300.952	103.25
301.166	-1.19
301.381	21.33
301.595	0.85
301.809	15.19
302.024	-11.43
302.238	23.38
302.452	25.43
302.667	41.81
302.881	101.2
303.095	4.95
303.309	-64.68
303.524	7
303.738	7
303.952	9.05
304.166	21.33
304.381	-15.53
304.595	39.76
304.809	50
305.023	62.29
305.237	52.05
305.452	47.96
305.666	72.53
305.88	-9.39
306.094	25.43
306.308	45.91
306.522	21.33
306.736	72.53
306.95	-17.58
307.164	-19.63
307.379	64.34
307.593	97.11
307.807	43.86
308.021	-27.82
308.235	90.96
308.449	72.53
308.663	-21.67
308.877	113.49
309.091	45.91
309.305	56.15
309.519	-36.01
309.733	84.82
309.947	7
310.161	54.1
310.374	-21.67
310.588	80.72
310.802	52.05
311.016	-42.15
311.23	58.2
311.444	84.82
311.658	7
311.872	84.82
312.085	56.15
312.299	111.44
312.513	37.72
312.727	47.96
312.941	111.44
313.154	70.48
313.368	-7.34
313.582	29.52
313.796	45.91
314.009	25.43
314.223	29.52
314.437	-31.91
314.651	64.34
314.864	-11.43
315.078	60.24
315.292	56.15
315.505	82.77
315.719	50
315.933	52.05
316.146	86.87
316.36	-48.3
316.573	58.2
316.787	39.76
317.001	66.39
317.214	-40.11
317.428	82.77
317.641	-3.24
317.855	72.53
318.068	15.19
318.282	13.14
318.495	70.48
318.709	68.44
318.922	50
319.136	72.53
319.349	54.1
319.563	15.19
319.776	45.91
319.99	29.52
320.203	62.29
320.417	-1.19
320.63	86.87
320.843	39.76
321.057	54.1
321.27	21.33
321.483	27.48
321.697	25.43
321.91	70.48
322.124	4.95
322.337	21.33
322.55	-5.29
322.763	29.52
322.977	9.05
323.19	-11.43
323.403	47.96
323.617	47.96
323.83	66.39
324.043	62.29
324.256	4.95
324.469	23.38
324.683	86.87
324.896	-13.48
325.109	62.29
325.322	-25.77
325.535	-21.67
325.748	47.96
325.962	15.19
326.175	80.72
326.388	41.81
326.601	72.53
326.814	58.2
327.027	39.76
327.24	29.52
327.453	-23.72
327.666	86.87
327.879	62.29
328.092	95.06
328.305	29.52
328.518	-7.34
328.731	13.14
328.944	-50.35
329.157	9.05
329.37	56.15
329.583	103.25
329.796	138.07
330.009	11.09
330.222	62.29
330.435	119.64
330.648	115.54
330.861	70.48
331.073	70.48
331.286	45.91
331.499	9.05
331.712	0.85
331.925	78.68
332.138	54.1
332.35	21.33
332.563	15.19
332.776	82.77
332.989	62.29
333.202	45.91
333.414	41.81
333.627	-27.82
333.84	39.76
334.053	21.33
334.265	-27.82
334.478	37.72
334.691	107.35
334.903	82.77
335.116	-54.44
335.329	21.33
335.541	21.33
335.754	78.68
335.966	45.91
336.179	56.15
336.392	117.59
336.604	-19.63
336.817	21.33
337.029	41.81
337.242	76.63
337.454	80.72
337.667	25.43
337.88	82.77
338.092	-31.91
338.305	-11.43
338.517	54.1
338.729	7
338.942	50
339.154	-60.59
339.367	-15.53
339.579	107.35
339.792	7
340.004	148.31
340.217	-9.39
340.429	37.72
340.641	15.19
340.854	78.68
341.066	50
341.278	78.68
341.491	47.96
341.703	-3.24
341.915	13.14
342.128	54.1
342.34	66.39
342.552	37.72
342.764	47.96
342.977	58.2
343.189	52.05
343.401	78.68
343.613	17.24
343.826	127.83
344.038	54.1
344.25	19.29
344.462	-27.82
344.674	-13.48
344.886	47.96
345.099	17.24
345.311	23.38
345.523	111.44
345.735	-36.01
345.947	78.68
346.159	-3.24
346.371	107.35
346.583	54.1
346.795	123.73
347.007	39.76
347.219	13.14
347.431	21.33
347.643	64.34
347.855	47.96
348.067	90.96
348.279	21.33
348.491	45.91
348.703	82.77
348.915	-15.53
349.127	11.09
349.339	-19.63
349.551	25.43
349.763	119.64
349.975	-1.19
350.187	21.33
350.399	62.29
350.61	70.48
350.822	15.19
351.034	7
351.246	47.96
351.458	-3.24
351.669	37.72
351.881	105.3
352.093	95.06
352.305	119.64
352.517	23.38
352.728	37.72
352.94	72.53
353.152	58.2
353.363	-52.39
353.575	86.87
353.787	119.64
353.999	47.96
354.21	99.16
354.422	-1.19
354.633	-11.43
354.845	15.19
355.057	7
355.268	25.43
355.48	21.33
355.692	-23.72
355.903	41.81
356.115	37.72
356.326	25.43
356.538	123.73
356.749	50
356.961	103.25
357.172	76.63
357.384	-5.29
357.595	140.12
357.807	11.09
358.018	99.16
358.23	29.52
358.441	45.91
358.653	50
358.864	21.33
359.075	11.09
359.287	-27.82
359.498	54.1
359.709	74.58
359.921	37.72
360.132	50
360.344	129.88
360.555	21.33
360.766	113.49
360.977	-17.58
361.189	109.4
361.4	21.33
361.611	25.43
361.823	54.1
362.034	37.72
362.245	41.81
362.456	56.15
362.667	80.72
362.879	33.62
363.09	144.21
363.301	54.1
363.512	43.86
363.723	-72.87
363.935	4.95
364.146	29.52
364.357	37.72
364.568	86.87
364.779	68.44
364.99	62.29
365.201	-60.59
365.412	76.63
365.623	0.85
365.834	13.14
366.045	78.68
366.256	50
366.467	13.14
366.678	86.87
366.889	37.72
367.1	45.91
367.311	93.01
367.522	35.67
367.733	31.57
367.944	109.4
368.155	50
368.366	66.39
368.577	-1.19
368.788	99.16
368.999	-36.01
369.209	66.39
369.42	160.59
369.631	70.48
369.842	60.24
370.053	13.14
370.264	72.53
370.474	-44.2
370.685	0.85
370.896	70.48
371.107	31.57
371.317	72.53
371.528	45.91
371.739	95.06
371.95	115.54
372.16	50
372.371	9.05
372.582	95.06
372.792	115.54
373.003	39.76
373.214	62.29
373.424	33.62
373.635	13.14
373.846	19.29
374.056	80.72
374.267	50
374.477	41.81
374.688	88.92
374.898	-9.39
375.109	86.87
375.319	-1.19
375.53	45.91
375.74	37.72
375.951	-33.96
376.161	86.87
376.372	62.29
376.582	13.14
376.793	50
377.003	56.15
377.214	2.9
377.424	80.72
377.635	45.91
377.845	-5.29
378.055	99.16
378.266	-36.01
378.476	47.96
378.686	15.19
378.897	62.29
379.107	54.1
379.317	72.53
379.528	117.59
379.738	168.79
379.948	23.38
380.158	88.92
380.369	-19.63
380.579	60.24
380.789	99.16
380.999	29.52
381.21	86.87
381.42	64.34
381.63	-27.82
381.84	76.63
382.05	70.48
382.261	105.3
382.471	78.68
382.681	-27.82
382.891	39.76
383.101	64.34
383.311	-3.24
383.521	13.14
383.731	21.33
383.941	99.16
384.151	93.01
384.361	54.1
384.571	86.87
384.781	37.72
384.991	97.11
385.201	113.49
385.411	64.34
385.621	78.68
385.831	56.15
386.041	47.96
386.251	17.24
386.461	144.21
386.671	21.33
386.881	123.73
387.091	39.76
387.301	21.33
387.511	13.14
387.72	136.02
387.93	37.72
388.14	31.57
388.35	50
388.56	99.16
388.769	56.15
388.979	29.52
389.189	62.29
389.399	127.83
389.609	93.01
389.818	82.77
390.028	19.29
390.238	66.39
390.447	25.43
390.657	74.58
390.867	-3.24
391.076	29.52
391.286	70.48
391.496	119.64
391.705	66.39
391.915	105.3
392.125	119.64
392.334	66.39
392.544	56.15
392.753	41.81
392.963	45.91
393.172	111.44
393.382	23.38
393.591	97.11
393.801	13.14
394.01	7
394.22	136.02
394.429	111.44
394.639	113.49
394.848	142.16
395.058	54.1
395.267	88.92
395.477	117.59
395.686	29.52
395.895	99.16
396.105	115.54
396.314	111.44
396.524	72.53
396.733	27.48
396.942	109.4
397.152	113.49
397.361	138.07
397.57	97.11
397.78	97.11
397.989	127.83
398.198	154.45
398.407	90.96
398.617	150.36
398.826	152.4
399.035	193.36
399.244	148.31
399.453	172.88
399.663	156.5
399.872	185.17
400.081	142.16
400.29	162.64
400.499	88.92
400.708	164.69
400.917	123.73
401.127	148.31
401.336	95.06
401.545	179.03
401.754	88.92
401.963	187.22
402.172	136.02
402.381	68.44
402.59	129.88
402.799	111.44
403.008	170.83
403.217	62.29
403.426	123.73
403.635	136.02
403.844	97.11
404.053	127.83
404.262	136.02
404.471	283.47
404.68	203.6
404.888	97.11
405.097	181.07
405.306	217.94
405.515	283.47
405.724	187.22
405.933	244.56
406.142	242.51
406.35	230.23
406.559	238.42
406.768	262.99
406.977	258.9
407.185	293.71
407.394	228.18
407.603	176.98
407.812	297.81
408.02	285.52
408.229	310.1
408.438	291.66
408.646	260.95
408.855	422.73
409.064	389.97
409.272	338.77
409.481	367.44
409.69	404.3
409.898	322.38
410.107	465.74
410.315	455.5
410.524	389.97
410.733	426.83
410.941	494.41
411.15	539.47
411.358	570.19
411.567	592.72
411.775	488.27
411.984	484.17
412.192	662.35
412.401	629.58
412.609	625.48
412.818	688.97
413.026	758.6
413.234	697.16
413.443	721.74
413.651	725.83
413.86	699.21
414.068	854.86
414.276	883.53
414.485	850.76
414.693	893.77
414.901	949.06
415.11	1067.85
415.318	914.25
415.526	947.01
415.734	1102.66
415.943	1053.51
416.151	1084.23
416.359	1080.13
416.567	1225.54
416.776	1200.96
416.984	1323.84
417.192	1241.92
417.4	1282.88
417.608	1456.96
417.817	1377.09
418.025	1522.49
418.233	1553.21
418.441	1540.93
418.649	1577.79
418.857	1755.96
419.065	1790.78
419.273	1762.11
419.481	1876.79
419.689	1973.05
419.897	2042.68
420.105	2167.6
420.313	2147.12
420.521	2313.01
420.729	2315.06
420.937	2327.35
421.145	2442.03
421.353	2482.99
421.561	2675.5
421.769	2759.47
421.977	2880.3
422.185	2833.19
422.393	2994.98
422.601	3199.78
422.809	3029.8
423.017	3134.25
423.224	3355.43
423.432	3486.5
423.64	3482.4
423.848	3920.67
424.056	3683.1
424.263	4057.88
424.471	4010.78
424.679	4029.21
424.887	4260.63
425.094	4264.72
425.302	4297.49
425.51	4420.37
425.718	4705.04
425.925	4717.33
426.133	4920.07
426.341	5296.9
426.548	5358.34
426.756	5395.2
426.964	5464.83
427.171	5847.8
427.379	5962.49
427.586	6122.23
427.794	6085.37
428.001	6607.6
428.209	6796.01
428.417	6552.31
428.624	7234.28
428.832	7123.69
429.039	6976.23
429.247	7095.02
429.454	7828.19
429.662	8188.63
429.869	7820
430.076	8364.76
430.284	8116.95
430.491	8510.16
430.699	8850.13
430.906	8852.17
431.114	9007.82
431.321	9390.79
431.528	9835.2
431.736	10097.34
431.943	10402.49
432.15	10187.45
432.358	10425.01
432.565	10922.67
432.772	11074.22
432.979	11451.05
433.187	11696.8
433.394	11811.49
433.601	12364.44
433.808	12655.25
434.016	12591.77
434.223	12960.4
434.43	13574.79
434.637	13435.53
434.844	14287.48
435.052	14586.49
435.259	14426.75
435.466	14740.08
435.673	14553.72
435.88	15540.84
436.087	16237.15
436.294	16196.19
436.501	15993.44
436.708	16194.14
436.915	16671.32
437.122	17508.94
437.329	17506.89
437.537	17754.69
437.743	18297.41
437.95	18295.36
438.157	19063.35
438.364	19558.95
438.571	19810.86
438.778	19589.67
438.985	21455.37
439.192	20412.96
439.399	21340.69
439.606	20630.04
439.813	22084.1
440.02	23259.63
440.227	22884.86
440.433	22737.4
440.64	23302.64
440.847	23235.06
441.054	24017.38
441.261	25450.96
441.467	25326.03
441.674	25829.84
441.881	26876.35
442.088	26563.01
442.294	26141.13
442.501	26749.37
442.708	27464.11
442.914	28400.04
443.121	29348.25
443.328	28879.26
443.534	31019.39
443.741	29806.99
443.948	29548.95
444.154	31623.54
444.361	31736.18
444.568	31420.79
444.774	31801.71
444.981	32342.38
445.187	32727.39
445.394	34109.77
445.6	33804.63
445.807	37251.36
446.013	35463.48
446.22	36278.57
446.426	37566.74
446.633	37607.7
446.839	39244.03
447.046	37751.06
447.252	39481.59
447.459	39379.2
447.665	39414.01
447.871	41091.3
448.078	42809.54
448.284	40962.28
448.491	42223.83
448.697	43428.03
448.903	44464.3
449.11	44841.13
449.316	43931.83
449.522	44406.96
449.728	45596.83
449.935	45613.21
450.141	46319.76
450.347	47075.46
450.553	45453.47
450.76	46031
450.966	47376.51
451.172	47341.7
451.378	48472.18
451.584	47542.4
451.791	48509.04
451.997	48523.38
452.203	49045.61
452.409	49274.98
452.615	48719.98
452.821	46921.87
453.027	46760.08
453.233	48787.56
453.44	47087.75
453.646	47401.09
453.852	47425.67
454.058	48740.46
454.264	47001.74
454.47	48121.98
454.676	46708.88
454.882	48269.43
455.088	44222.64
455.294	44847.27
455.5	45578.4
455.705	45881.5
455.911	44214.45
456.117	43524.29
456.323	43450.56
456.529	41095.39
456.735	42604.75
456.941	41447.64
457.147	40949.99
457.352	39899.38
457.558	39037.19
457.764	39205.12
457.97	38338.83
458.176	37525.78
458.381	37298.46
458.587	35969.33
458.793	35498.3
458.999	34107.72
459.204	36317.48
459.41	35363.13
459.616	33024.35
459.821	33237.34
460.027	33190.23
460.233	32262.51
460.438	31037.82
460.644	31218.04
460.85	29438.36
461.055	29342.1
461.261	28776.86
461.466	26972.6
461.672	26282.44
461.878	28037.55
462.083	26040.78
462.289	25448.91
462.494	25268.69
462.7	24392.16
462.905	23626.22
463.111	24220.13
463.316	24642.01
463.522	23972.33
463.727	24156.64
463.932	23914.98
464.138	23405.04
464.343	23730.67
464.549	23153.14
464.754	23558.64
464.959	23548.4
465.165	23237.11
465.37	22125.06
465.575	21848.58
465.781	22512.13
465.986	22843.9
466.191	21989.89
466.397	21461.52
466.602	20517.4
466.807	21299.73
467.012	21056.02
467.218	21084.69
467.423	20867.61
467.628	21096.98
467.833	21441.04
468.038	21125.65
468.244	20552.22
468.449	21185.04
468.654	20503.07
468.859	20363.81
469.064	20003.36
469.269	19575.34
469.474	19509.8
469.679	19716.65
469.885	19337.77
470.09	19640.87
470.295	19206.7
470.5	19100.21
470.705	19296.81
470.91	18682.42
471.115	18575.93
471.32	18891.32
471.525	19083.83
471.73	18387.52
471.935	18111.04
472.139	17640.01
472.344	17805.89
472.549	17488.46
472.754	17588.81
472.959	17193.55
473.164	16927.32
473.369	16429.66
473.574	17148.5
473.778	16634.46
473.983	16874.07
474.188	16777.81
474.393	16087.65
474.598	16304.73
474.802	15735.4
475.007	15823.46
475.212	15843.94
475.417	15192.69
475.621	15069.81
475.826	15254.12
476.031	14983.79
476.235	14680.69
476.44	15284.84
476.645	14520.95
476.849	14754.42
477.054	14602.87
477.259	14058.11
477.463	14445.18
477.668	13836.93
477.872	13947.52
478.077	13746.82
478.282	13357.71
478.486	13413
478.691	13380.23
478.895	13329.03
479.1	13005.45
479.304	13052.56
479.509	12833.43
479.713	12952.21
479.918	12821.14
480.122	12472.98
480.326	12849.81
480.531	12604.05
480.735	12696.21
480.94	12786.32
481.144	12901.01
481.348	12153.5
481.553	12466.84
481.757	12176.03
481.961	12333.72
482.166	12554.9
482.37	12522.13
482.574	12407.45
482.778	12294.81
482.983	12491.41
483.187	12397.21
483.391	12507.8
483.595	12198.56
483.8	11985.57
484.004	12163.74
484.208	12434.07
484.412	12284.57
484.616	12249.75
484.821	12245.66
485.025	12063.39
485.229	12106.4
485.433	12196.51
485.637	12161.69
485.841	12208.8
486.045	12100.25
486.249	12176.03
486.453	12014.24
486.657	12128.92
486.861	12352.15
487.065	11752.1
487.269	12149.4
487.473	11911.84
487.677	12137.12
487.881	12184.22
488.085	11944.61
488.289	12171.93
488.493	12032.67
488.697	12180.12
488.901	12300.95
489.105	11981.47
489.309	12155.55
489.512	12300.95
489.716	12026.53
489.92	12362.39
490.124	12210.84
490.328	12376.73
490.531	12055.2
490.735	12325.53
490.939	12442.26
491.143	12354.2
491.346	12456.6
491.55	12503.7
491.754	12538.52
491.958	12616.34
492.161	12382.87
492.365	12767.89
492.569	12569.24
492.772	12794.51
492.976	12589.72
493.18	13079.18
493.383	13027.98
493.587	13038.22
493.79	13152.91
493.994	12907.15
494.197	13173.39
494.401	13159.05
494.605	13308.55
494.808	13402.76
495.012	13517.45
495.215	13365.9
495.419	13687.43
495.622	13669
495.825	13742.72
496.029	13761.16
496.232	13959.81
496.436	14318.2
496.639	14482.04
496.843	14520.95
497.046	14451.32
497.249	14948.98
497.453	14910.07
497.656	15161.97
497.859	15014.51
498.063	15088.24
498.266	15553.13
498.469	15145.58
498.673	15452.78
498.876	15813.22
499.079	16208.48
499.282	15866.47
499.485	16347.74
499.689	16284.25
499.892	16618.07
500.095	16523.87
500.298	16820.82
500.501	16818.77
500.705	17269.33
500.908	17295.95
501.111	17789.51
501.314	17603.14
501.517	17926.72
501.72	17873.48
501.923	17953.35
502.126	18524.73
502.329	18758.2
502.532	18707
502.735	18571.83
502.938	19315.25
503.141	19530.28
503.344	19464.75
503.547	19667.5
503.75	19943.97
503.953	20142.63
504.156	20394.53
504.359	20681.24
504.562	20339.23
504.765	21131.79
504.968	21146.13
505.17	21461.52
505.373	21516.81
505.576	22237.7
505.779	22321.66
505.982	22274.56
506.185	22688.25
506.387	22354.43
506.59	22692.35
506.793	23273.97
506.996	23013.88
507.198	23927.27
507.401	23806.44
507.604	23896.55
507.807	24420.83
508.009	24752.6
508.212	24539.61
508.415	24701.4
508.617	25465.3
508.82	25264.6
509.022	25113.05
509.225	26098.12
509.428	26413.51
509.63	26364.36
509.833	26651.07
510.035	27304.37
510.238	26982.84
510.44	27238.84
510.643	27689.39
510.845	27826.6
511.048	27859.37
511.25	28608.93
511.453	28139.94
511.655	29438.36
511.858	29051.29
512.06	29536.66
512.262	29397.4
512.465	29708.69
512.667	29931.92
512.87	30224.78
513.072	30194.06
513.274	30910.85
513.477	30921.09
513.679	31271.29
513.881	31650.16
514.084	32045.42
514.286	32096.62
514.488	31943.02
514.69	33018.21
514.893	32794.98
515.095	33177.95
515.297	33431.9
515.499	33636.69
515.701	33861.97
515.904	34400.58
516.106	34474.31
516.308	34965.82
516.51	35199.29
516.712	35277.12
516.914	35428.66
517.116	36333.87
517.318	36030.77
517.52	36378.92
517.722	36544.81
517.925	36903.2
518.127	37069.09
518.329	37452.06
518.531	37185.82
518.733	38265.1
518.935	37970.19
519.136	38414.6
519.338	38742.28
519.54	38996.23
519.742	39149.82
519.944	39493.88
520.146	39723.26
520.348	40141.04
520.55	39991.54
520.752	40282.35
520.954	40909.03
521.155	40378.61
521.357	41410.78
521.559	41253.09
521.761	41978.07
521.963	41808.09
522.164	41816.28
522.366	41869.53
522.568	42205.39
522.77	42932.42
522.971	43337.92
523.173	42840.26
523.375	43159.75
523.576	43233.47
523.778	42852.55
523.98	43790.52
524.181	43665.6
524.383	43659.45
524.584	44191.92
524.786	44343.47
524.988	43917.5
525.189	44785.83
525.391	44855.46
525.592	45009.06
525.794	44398.77
525.995	44826.79
526.197	44984.49
526.398	45158.56
526.6	45389.98
526.801	45539.49
527.003	45592.73
527.204	45371.55
527.406	46012.57
527.607	45506.72
527.808	46143.64
528.01	45328.55
528.211	45783.19
528.412	46868.62
528.614	46147.73
528.815	46416.02
529.016	46418.07
529.218	45598.88
529.419	46319.76
529.62	46338.19
529.822	46160.02
530.023	46172.31
530.224	46176.4
530.425	45930.65
530.626	45889.69
530.828	45648.03
531.029	46678.16
531.23	46207.12
531.431	46076.05
531.632	46655.63
531.833	46362.77
532.035	46243.99
532.236	46217.36
532.437	46170.26
532.638	45793.43
532.839	46528.66
533.04	46436.5
533.241	45879.45
533.442	47145.09
533.643	46194.84
533.844	46039.19
534.045	46399.63
534.246	45543.58
534.447	46160.02
534.648	45789.34
534.849	46217.36
535.05	45623.45
535.251	46063.77
535.451	45949.08
535.652	46002.33
535.853	45912.22
536.054	45785.24
536.255	46131.35
536.456	45457.57
536.657	45924.5
536.857	45740.19
537.058	45473.95
537.259	45828.25
537.46	45746.33
537.66	44996.77
537.861	45762.72
538.062	45375.65
538.263	45660.32
538.463	45256.87
538.664	45361.31
538.865	45635.74
539.065	45586.59
539.266	44714.16
539.466	45613.21
539.667	45164.71
539.868	45549.73
540.068	44912.81
540.269	45015.21
540.469	45756.57
540.67	45400.22
540.87	45224.1
541.071	45125.8
541.271	45269.15
541.472	45451.42
541.672	44974.25
541.873	44933.29
542.073	44409.01
542.274	45447.33
542.474	45179.04
542.675	44679.34
542.875	45394.08
543.075	45232.29
543.276	44347.57
543.476	44910.76
543.676	44826.79
543.877	44566.7
544.077	44877.99
544.277	44800.17
544.478	44898.47
544.678	44705.96
544.878	45025.45
545.078	44949.67
545.279	44624.04
545.479	44783.79
545.679	44622
545.879	45025.45
546.079	44507.31
546.28	44957.86
546.48	44320.95
546.68	44738.73
546.88	44910.76
547.08	44832.94
547.28	44511.41
547.48	44357.81
547.68	44789.93
547.88	44435.63
548.081	44751.02
548.281	44923.05
548.481	44478.64
548.681	44615.85
548.881	44513.45
549.081	44697.77
549.28	44681.39
549.48	44886.18
549.68	44587.18
549.88	44912.81
550.08	44617.9
550.28	44628.14
550.48	44406.96
550.68	45113.51
550.88	44388.53
551.08	44759.21
551.279	44650.67
551.479	44615.85
551.679	44607.66
551.879	44370.1
552.079	44845.23
552.278	44380.34
552.478	44572.85
552.678	44869.8
552.878	44877.99
553.077	44337.33
553.277	44615.85
553.477	44964.01
553.676	44519.6
553.876	45213.86
554.076	44867.75
554.275	44753.07
554.475	43864.25
554.674	44796.07
554.874	44882.09
555.074	44427.44
555.273	44736.68
555.473	44681.39
555.672	44576.94
555.872	44705.96
556.071	44787.88
556.271	45299.87
556.47	44572.85
556.67	44570.8
556.869	44607.66
557.068	45349.03
557.268	44837.03
557.467	44660.91
557.667	44810.41
557.866	44814.51
558.065	44462.25
558.265	44714.16
558.464	44325.04
558.663	45289.63
558.863	44052.66
559.062	44947.62
559.261	44478.64
559.461	45015.21
559.66	44763.31
559.859	44673.2
560.058	44396.72
560.258	44726.44
560.457	44083.38
560.656	44812.46
560.855	44505.26
561.054	44550.32
561.253	44501.17
561.453	44273.84
561.652	44589.23
561.851	44892.33
562.05	44456.11
562.249	44081.33
562.448	44642.48
562.647	44316.85
562.846	44191.92
563.045	44687.53
563.244	43950.26
563.443	44634.28
563.642	44032.18
563.841	44409.01
564.04	43868.34
564.239	44546.22
564.438	44032.18
564.637	44261.55
564.836	44189.88
565.035	43542.72
565.234	43643.07
565.432	43782.33
565.631	43880.63
565.83	43870.39
566.029	43845.82
566.228	43514.05
566.427	43380.93
566.625	43387.07
566.824	43090.12
567.023	43641.02
567.222	42584.27
567.42	43724.99
567.619	43352.26
567.818	43305.15
568.016	43327.68
568.215	43081.92
568.414	43286.72
568.612	43241.67
568.811	43053.25
569.01	43251.91
569.208	42768.58
569.407	42971.33
569.605	42397.9
569.804	42985.67
570.002	42148.05
570.201	42657.99
570.4	42510.54
570.598	42471.63
570.797	42176.72
570.995	42803.4
571.193	42041.56
571.392	42322.13
571.59	41558.24
571.789	42041.56
571.987	41990.36
572.186	41404.64
572.384	41273.57
572.582	41636.06
572.781	41556.19
572.979	41289.95
573.177	41476.32
573.376	41410.78
573.574	41169.12
573.772	41548
573.971	41240.8
574.169	41093.35
574.367	40382.7
574.565	41017.57
574.763	40532.2
574.962	40702.18
575.16	40138.99
575.358	40499.44
575.556	39774.45
575.754	40825.06
575.952	40222.96
576.151	40354.03
576.349	39657.72
576.547	40030.45
576.745	40474.86
576.943	40034.55
577.141	39995.64
577.339	39672.06
577.537	39610.62
577.735	39362.81
577.933	39020.8
578.131	39606.52
578.329	39178.5
578.527	39377.15
578.725	38926.6
578.923	39330.05
579.121	38930.69
579.319	38529.29
579.516	38945.03
579.714	38924.55
579.912	38557.96
580.11	38238.48
580.308	38312.2
580.506	38430.99
580.704	37624.09
580.901	37884.18
581.099	38404.36
581.297	37861.65
581.495	37673.24
581.692	37783.83
581.89	37665.05
582.088	37720.34
582.285	37382.43
582.483	37814.55
582.681	37759.25
582.878	37417.24
583.076	36890.91
583.274	37376.28
583.471	36593.96
583.669	37177.63
583.866	36786.47
584.064	36815.14
584.262	36675.88
584.459	36628.77
584.657	36432.17
584.854	36809
585.052	36135.21
585.249	36182.32
585.447	36360.49
585.644	35998
585.841	35846.45
586.039	36380.97
586.236	35793.2
586.434	35637.56
586.631	35750.2
586.828	35821.87
587.026	35692.85
587.223	35737.91
587.42	35051.84
587.618	35236.16
587.815	34986.3
588.012	35424.57
588.21	35168.57
588.407	35490.1
588.604	35309.88
588.801	34531.65
588.999	34650.44
589.196	34586.95
589.393	34742.6
589.59	34785.6
589.787	34412.87
589.984	34212.17
590.182	34009.42
590.379	34322.76
590.576	34005.33
590.773	34212.17
590.97	33784.15
591.167	33999.18
591.364	33599.83
591.561	33696.08
591.758	33489.24
591.955	33456.47
592.152	33880.4
592.349	33671.51
592.546	33452.37
592.743	33534.29
592.94	32903.52
593.137	33450.33
593.334	33272.15
593.531	32606.56
593.727	33266.01
593.924	33253.72
594.121	32319.85
594.318	33300.83
594.515	32573.8
594.712	32829.79
594.908	32696.67
595.105	32829.79
595.302	32104.81
595.499	32948.57
595.696	32559.46
595.892	32317.8
596.089	32184.68
596.286	32049.52
596.482	32412.01
596.679	32051.56
596.876	32399.72
597.072	31818.1
597.269	32158.06
597.466	32299.37
597.662	32104.81
597.859	31568.24
598.055	31867.25
598.252	31676.79
598.448	31781.23
598.645	31396.21
598.841	31291.77
599.038	31797.62
599.234	31605.11
599.431	31433.08
599.627	31351.16
599.824	31644.02
600.02	31230.33
600.217	31224.18
600.413	31291.77
600.609	31342.97
600.806	31015.29
601.002	31119.74
601.198	31355.25
601.395	30990.72
601.591	31050.11
601.787	31066.49
601.984	30722.43
602.18	31220.09
602.376	31058.3
602.572	31000.96
602.769	30902.65
602.965	30708.1
603.161	30714.24
603.357	30820.74
603.553	31205.75
603.75	30665.09
603.946	30482.82
604.142	30925.18
604.338	30196.1
604.534	30482.82
604.73	30527.88
604.926	30646.66
605.122	30937.47
605.318	30534.02
605.514	30740.86
605.71	30359.94
605.906	30505.35
606.102	30478.72
606.298	30806.4
606.494	30636.42
606.69	30747.01
606.886	30634.37
607.082	30114.19
607.278	30607.75
607.474	30163.34
607.67	30695.81
607.866	30243.21
608.062	30728.58
608.257	30611.84
608.453	30464.39
608.649	30587.27
608.845	30144.91
609.041	30257.54
609.236	30859.65
609.432	30456.2
609.628	30402.95
609.824	30759.3
610.019	30130.57
610.215	30558.6
610.411	30570.88
610.606	30149
610.802	30626.18
610.998	30384.52
611.193	30830.97
611.389	30482.82
611.584	30400.9
611.78	30474.63
611.976	30636.42
612.171	30769.54
612.367	30374.28
612.562	30450.05
612.758	30073.23
612.953	30411.14
613.149	30652.8
613.344	30157.19
613.539	30570.88
613.735	30468.48
613.93	30353.8
614.126	30321.03
614.321	30706.05
614.517	30437.76
614.712	30517.64
614.907	30314.89
615.103	30820.74
615.298	30454.15
615.493	30695.81
615.688	30011.79
615.884	30859.65
616.079	29925.77
616.274	30288.26
616.47	30304.65
616.665	30386.57
616.86	29976.97
617.055	30101.9
617.25	29901.2
617.445	30382.47
617.641	29610.39
617.836	30458.24
618.031	29948.3
618.226	30273.93
618.421	29798.8
618.616	30081.42
618.811	29374.87
619.006	30153.1
619.201	29241.75
619.396	29454.74
619.591	29055.39
619.786	29696.4
619.981	28811.68
620.176	29557.14
620.371	29002.14
620.566	29165.98
620.761	28922.27
620.956	29221.27
621.151	28780.96
621.346	28840.35
621.541	28682.66
621.735	28815.77
621.93	28074.41
622.125	28506.53
622.32	28182.95
622.515	28160.42
622.709	27920.81
622.904	27677.1
623.099	27388.34
623.294	27652.53
623.488	27185.59
623.683	27347.38
623.878	26827.2
624.072	27169.21
624.267	27228.6
624.462	26784.19
624.656	26706.37
624.851	26452.42
625.046	26583.49
625.24	26157.51
625.435	26495.43
625.629	26374.59
625.824	26057.16
626.018	26118.6
626.213	25584.08
626.407	25817.55
626.602	25170.39
626.796	25465.3
626.991	25242.07
627.185	25266.64
627.38	25002.46
627.574	24961.5
627.768	24750.56
627.963	24431.07
628.157	24709.6
628.352	24705.5
628.546	24398.31
628.74	24533.47
628.935	24199.65
629.129	24146.4
629.323	23679.47
629.517	23681.52
629.712	23644.65
629.906	23423.47
630.1	23611.89
630.294	23112.18
630.489	23396.85
630.683	23214.58
630.877	22878.71
631.071	22673.92
631.265	23071.22
631.459	22766.07
631.653	22319.62
631.848	22682.11
632.042	22133.25
632.236	22475.26
632.43	22096.39
632.624	22192.64
632.818	21920.26
633.012	21684.75
633.206	21539.34
633.4	21686.79
633.594	21262.86
633.788	21606.92
633.982	21629.45
634.176	21156.37
634.369	20898.33
634.563	20947.48
634.757	20949.53
634.951	20851.22
635.145	20978.2
635.339	20666.91
635.533	20361.76
635.726	20316.7
635.92	19946.02
636.114	20216.35
636.308	20173.35
636.501	19855.91
636.695	19757.61
636.889	19618.35
637.083	19747.37
637.276	19567.15
637.47	19243.57
637.664	19278.38
637.857	19069.49
638.051	19380.78
638.244	18954.8
638.438	18807.35
638.632	18786.87
638.825	18549.31
639.019	18565.69
639.212	18547.26
639.406	18463.29
639.599	18520.63
639.793	18248.25
639.986	18100.8
640.18	18154.05
640.373	18043.46
640.567	17611.34
640.76	17703.5
640.954	17437.26
641.147	17402.44
641.34	17412.68
641.534	17379.92
641.727	17343.05
641.92	17328.72
642.114	16947.79
642.307	16953.94
642.5	16783.96
642.694	16831.06
642.887	16605.78
643.08	16751.19
643.273	16646.74
643.467	16304.73
643.66	16196.19
643.853	16216.67
644.046	16208.48
644.239	15952.48
644.432	15811.17
644.626	15823.46
644.819	15614.57
645.012	15811.17
645.205	15563.37
645.398	15497.83
645.591	15491.69
645.784	15473.26
645.977	15348.33
646.17	15327.85
646.363	15217.26
646.556	14897.78
646.749	15016.56
646.942	14918.26
647.135	14981.74
647.328	14819.96
647.521	14559.86
647.714	14506.62
647.907	14547.58
648.099	14332.54
648.292	14381.69
648.485	14267
648.678	14221.95
648.871	14109.31
649.064	14121.6
649.256	13996.67
649.449	13740.68
649.642	13685.38
649.835	13537.93
650.027	13468.3
650.22	13415.05
650.413	13312.65
650.605	13361.8
650.798	13240.97
650.991	13271.69
651.183	13441.67
651.376	13027.98
651.568	13003.41
651.761	12905.1
651.954	12933.78
652.146	12878.48
652.339	12749.46
652.531	12642.96
652.724	12479.13
652.916	12475.03
653.109	12380.82
653.301	12546.71
653.494	12358.3
653.686	12143.26
653.879	12268.19
654.071	12219.03
654.263	12120.73
654.456	12038.81
654.648	12157.6
654.84	11741.86
655.033	11797.15
655.225	12047.01
655.417	11612.84
655.61	11795.11
655.802	11772.58
655.994	11426.47
656.186	11659.94
656.379	11483.81
656.571	11227.82
656.763	11238.06
656.955	11514.53
657.148	11080.36
657.34	11438.76
657.532	11023.02
657.724	11002.54
657.916	10984.11
658.108	10871.47
658.3	10701.49
658.492	10738.35
658.684	10529.46
658.876	10486.45
659.068	10476.21
659.26	10564.28
659.452	10605.24
659.644	10486.45
659.836	10234.55
660.028	10447.54
660.22	10205.88
660.412	10261.18
660.604	10183.35
660.796	10113.72
660.988	9992.89
661.18	10083
661.372	9931.45
661.563	9958.08
661.755	9626.31
661.947	9714.37
662.139	9593.54
662.331	9566.92
662.522	9534.15
662.714	9497.28
662.906	9505.48
663.097	9364.17
663.289	9452.23
663.481	9296.58
663.673	9218.76
663.864	9302.73
664.056	9108.17
664.247	9122.51
664.439	9130.7
664.631	9157.32
664.822	9327.3
665.014	9061.07
665.205	8993.48
665.397	8895.18
665.588	8866.51
665.78	8774.35
665.971	8796.88
666.163	8692.43
666.354	8772.3
666.546	8604.37
666.737	8573.65
666.929	8590.03
667.12	8581.84
667.311	8590.03
667.503	8387.29
667.694	8381.14
667.885	8405.72
668.077	8184.54
668.268	8215.26
668.459	8182.49
668.651	8098.52
668.842	8178.39
669.033	8209.11
669.224	7977.69
669.416	8264.41
669.607	8073.95
669.798	7750.37
669.989	8190.68
670.18	7721.7
670.371	7762.65
670.563	7721.7
670.754	7869.15
670.945	7652.06
671.136	7643.87
671.327	7647.97
671.518	7559.91
671.709	7557.86
671.9	7461.6
672.091	7475.94
672.282	7543.52
672.473	7609.06
672.664	7340.77
672.855	7379.68
673.046	7348.97
673.237	7459.56
673.428	7383.78
673.619	7299.81
673.809	7328.49
674	7281.38
674.191	7035.63
674.382	7305.96
674.573	7189.22
674.764	7295.72
674.954	7117.54
675.145	7027.43
675.336	7144.17
675.527	7105.26
675.717	7084.78
675.908	6918.89
676.099	6888.17
676.289	6845.16
676.48	7002.86
676.671	6849.26
676.861	6746.86
677.052	7031.53
677.243	6869.74
677.433	6957.8
677.624	6681.33
677.814	6802.16
678.005	6935.28
678.195	6746.86
678.386	6841.07
678.576	6648.56
678.767	6789.87
678.957	6804.21
679.148	6726.38
679.338	6501.11
679.529	6607.6
679.719	6656.75
679.909	6732.53
680.1	6546.16
680.29	6705.9
680.481	6521.59
680.671	6652.66
680.861	6605.55
681.052	6623.98
681.242	6382.32
681.432	6623.98
681.622	6398.71
681.813	6396.66
682.003	6591.22
682.193	6183.67
682.383	6550.26
682.573	6456.05
682.764	6468.34
682.954	6566.64
683.144	6443.76
683.334	6458.1
683.524	6445.81
683.714	6208.25
683.904	6398.71
684.094	6349.56
684.284	6214.39
684.474	6439.67
684.664	6085.37
684.854	6382.32
685.044	6226.68
685.234	6263.54
685.424	6316.79
685.614	6167.29
685.804	6099.7
685.994	6050.55
686.184	6261.49
686.374	6034.17
686.564	6179.58
686.753	6101.75
686.943	6181.62
687.133	5956.35
687.323	5911.29
687.513	6005.5
687.702	5944.06
687.892	5862.14
688.082	5800.7
688.272	5833.47
688.461	5812.99
688.651	5976.83
688.841	5853.95
689.03	5753.6
689.22	5743.36
689.41	5882.62
689.599	5722.88
689.789	5677.82
689.979	5618.43
690.168	5649.15
690.358	5577.47
690.547	5509.89
690.737	5683.97
690.926	5731.07
691.116	5546.75
691.305	5626.62
691.495	5356.29
691.684	5618.43
691.874	5497.6
692.063	5495.55
692.252	5548.8
692.442	5356.29
692.631	5530.37
692.82	5401.35
693.01	5456.64
693.199	5335.81
693.388	5239.56
693.578	5344
693.767	5313.28
693.956	5272.32
694.146	5219.08
694.335	5217.03
694.524	5296.9
694.713	5192.45
694.902	5198.6
695.092	5124.87
695.281	5155.59
695.47	5022.47
695.659	5030.66
695.848	5075.72
696.037	5174.02
696.226	5120.78
696.415	5012.23
696.604	4961.03
696.793	5010.18
696.982	5092.1
697.171	4985.61
697.36	5051.14
697.549	4958.99
697.738	4944.65
697.927	5010.18
698.116	4866.83
698.305	4844.3
698.494	4881.16
698.683	4786.96
698.872	4928.27
699.061	4758.28
699.25	4922.12
699.438	4842.25
699.627	4764.43
699.816	4797.2
700.005	4629.26
700.193	4789
700.382	4860.68
700.571	4702.99
700.76	4778.76
700.948	4801.29
701.137	4760.33
701.326	4748.04
701.514	4541.2
701.703	4580.11
701.892	4674.32
702.08	4616.97
702.269	4690.7
702.457	4414.23
702.646	4692.75
702.834	4479.76
703.023	4590.35
703.212	4477.71
703.4	4592.4
703.589	4332.31
703.777	4580.11
703.965	4365.07
704.154	4414.23
704.342	4299.54
704.531	4178.71
704.719	4363.03
704.907	4483.86
705.096	4365.07
705.284	4266.77
705.472	4242.2
705.661	4201.24
705.849	4315.92
706.037	4356.88
706.226	4363.03
706.414	4303.64
706.602	4158.23
706.79	4268.82
706.979	4160.28
707.167	4178.71
707.355	4162.33
707.543	4123.41
707.731	4131.61
707.919	3973.91
708.107	3945.24
708.296	3947.29
708.484	4049.69
708.672	4139.8
708.86	4113.17
709.048	4061.98
709.236	4100.89
709.424	4023.06
709.612	3949.34
709.8	4147.99
709.988	3879.71
710.176	3906.33
710.364	4018.97
710.551	4043.54
710.739	3945.24
710.927	3973.91
711.115	3894.04
711.303	3805.98
711.491	3912.47
711.679	3855.13
711.866	3855.13
712.054	3949.34
712.242	3816.22
712.43	3855.13
712.617	3767.07
712.805	3627.81
712.993	3777.31
713.181	3625.76
713.368	3685.15
713.556	3789.6
713.744	3650.33
713.931	3707.68
714.119	3660.57
714.306	3595.04
714.494	3664.67
714.682	3599.13
714.869	3640.09
715.057	3703.58
715.244	3556.13
715.432	3619.61
715.619	3662.62
715.807	3611.42
715.994	3625.76
716.182	3439.39
716.369	3525.41
716.556	3621.66
716.744	3365.67
716.931	3511.07
717.119	3513.12
717.306	3531.55
717.493	3453.73
717.681	3486.5
717.868	3560.22
718.055	3496.74
718.242	3494.69
718.43	3380
718.617	3396.39
718.804	3380
718.991	3322.66
719.179	3367.71
719.366	3242.79
719.553	3322.66
719.74	3302.18
719.927	3441.44
720.114	3267.36
720.301	3271.46
720.488	3216.16
720.676	3273.51
720.863	3310.37
721.05	3285.8
721.237	3281.7
721.424	3386.15
721.611	3238.69
721.798	3207.97
721.985	3193.64
722.172	3115.81
722.358	3078.95
722.545	3177.25
722.732	2999.08
722.919	3105.57
723.106	3220.26
723.293	3074.85
723.48	3130.15
723.667	3148.58
723.853	3054.37
724.04	3134.25
724.227	3187.49
724.414	3035.94
724.6	3081
724.787	3117.86
724.974	3240.74
725.161	3136.29
725.347	2870.06
725.534	2970.41
725.72	3044.13
725.907	2960.17
726.094	3066.66
726.28	2898.73
726.467	2982.7
726.653	2863.91
726.84	3056.42
727.027	3093.29
727.213	2790.19
727.4	2931.5
727.586	2874.15
727.773	3017.51
727.959	2949.93
728.145	2884.39
728.332	2913.06
728.518	2794.28
728.705	2855.72
728.891	2843.43
729.077	2868.01
729.264	2808.62
729.45	2902.83
729.636	2911.02
729.823	2730.8
730.009	2847.53
730.195	2822.95
730.382	2732.84
730.568	2745.13
730.754	2757.42
730.94	2738.99
731.126	2814.76
731.313	2825
731.499	2822.95
731.685	2585.39
731.871	2765.61
732.057	2792.23
732.243	2794.28
732.429	2677.55
732.615	2794.28
732.801	2720.56
732.987	2663.21
733.173	2708.27
733.359	2597.68
733.545	2669.36
733.731	2622.25
733.917	2661.16
734.103	2677.55
734.289	2601.77
734.475	2540.33
734.661	2587.44
734.847	2734.89
735.033	2710.32
735.219	2681.64
735.404	2560.81
735.59	2544.43
735.776	2667.31
735.962	2544.43
736.148	2689.84
736.333	2466.61
736.519	2595.63
736.705	2536.24
736.89	2585.39
737.076	2513.71
737.262	2458.42
737.447	2433.84
737.633	2433.84
737.819	2630.45
738.004	2437.94
738.19	2466.61
738.375	2487.09
738.561	2601.77
738.747	2593.58
738.932	2403.12
739.118	2519.85
739.303	2368.31
739.489	2411.31
739.674	2382.64
739.859	2349.87
740.045	2341.68
740.23	2364.21
740.416	2241.33
740.601	2382.64
740.786	2325.3
740.972	2310.96
741.157	2306.87
741.342	2200.37
741.528	2255.67
741.713	2202.42
741.898	2233.14
742.084	2270
742.269	2282.29
742.454	2296.63
742.639	2183.99
742.824	2315.06
743.01	2188.08
743.195	2183.99
743.38	2110.26
743.565	2257.71
743.75	2079.54
743.935	2116.41
744.12	1993.53
744.305	2212.66
744.49	2044.73
744.675	2106.17
744.86	2061.11
745.045	2075.45
745.23	2102.07
745.415	2077.49
745.6	2116.41
745.785	2095.93
745.97	2026.29
746.155	1999.67
746.34	2052.92
746.525	2016.05
746.71	2091.83
746.895	1915.7
747.079	1954.62
747.264	1938.23
747.449	2014.01
747.634	1897.27
747.819	2016.05
748.003	1831.74
748.188	1866.55
748.373	1866.55
748.557	1807.16
748.742	1852.22
748.927	1782.59
749.111	1895.22
749.296	1749.82
749.481	1827.64
749.665	1733.43
749.85	1753.91
750.034	1860.41
750.219	1747.77
750.404	1696.57
750.588	1710.91
750.773	1686.33
750.957	1643.32
751.141	1719.1
751.326	1700.67
751.51	1626.94
751.695	1735.48
751.879	1647.42
752.064	1794.87
752.248	1647.42
752.432	1712.96
752.617	1581.89
752.801	1700.67
752.985	1622.84
753.17	1631.04
753.354	1542.97
753.538	1676.09
753.722	1545.02
753.907	1487.68
754.091	1463.1
754.275	1508.16
754.459	1493.82
754.643	1504.06
754.828	1497.92
755.012	1512.25
755.196	1450.82
755.38	1397.57
755.564	1426.24
755.748	1495.87
755.932	1364.8
756.116	1413.95
756.3	1413.95
756.484	1475.39
756.668	1323.84
756.852	1438.53
757.036	1385.28
757.22	1342.27
757.404	1334.08
757.588	1315.65
757.772	1327.94
757.956	1299.27
758.14	1274.69
758.323	1340.22
758.507	1284.93
758.691	1299.27
758.875	1344.32
759.059	1278.79
759.242	1221.44
759.426	1241.92
759.61	1205.06
759.794	1252.16
759.977	1299.27
760.161	1262.4
760.345	1223.49
760.528	1168.2
760.712	1172.29
760.895	1092.42
761.079	1227.59
761.263	1110.85
761.446	1135.43
761.63	1215.3
761.813	1227.59
761.997	1094.47
762.18	1170.24
762.364	1307.46
762.547	1069.89
762.731	1153.86
762.914	1129.28
763.098	1078.08
763.281	1061.7
763.464	981.83
763.648	1182.53
763.831	1037.13
764.015	1082.18
764.198	1108.8
764.381	1180.48
764.564	1127.24
764.748	1096.52
764.931	1047.37
765.114	1073.99
765.297	1080.13
765.481	1004.36
765.664	1061.7
765.847	1102.66
766.03	1119.04
766.213	981.83
766.397	1028.93
766.58	990.02
766.763	1082.18
766.946	940.87
767.129	1004.36
767.312	938.82
767.495	992.07
767.678	998.21
767.861	1065.8
768.044	928.58
768.227	963.4
768.41	949.06
768.593	975.69
768.776	1022.79
768.959	953.16
769.142	1045.32
769.324	1039.17
769.507	998.21
769.69	987.97
769.873	912.2
770.056	1008.45
770.239	971.59
770.421	990.02
770.604	906.06
770.787	951.11
770.97	871.24
771.152	881.48
771.335	969.54
771.518	910.15
771.7	1022.79
771.883	926.54
772.066	889.67
772.248	901.96
772.431	881.48
772.613	934.73
772.796	793.42
772.978	891.72
773.161	926.54
773.343	801.61
773.526	801.61
773.708	832.33
773.891	856.9
774.073	826.18
774.256	824.14
774.438	865.1
774.621	832.33
774.803	807.75
774.985	801.61
775.168	777.03
775.35	746.31
775.532	881.48
775.715	807.75
775.897	799.56
776.079	807.75
776.261	770.89
776.444	736.07
776.626	738.12
776.808	758.6
776.99	752.46
777.173	744.27
777.355	697.16
777.537	752.46
777.719	660.3
777.901	736.07
778.083	750.41
778.265	676.68
778.447	779.08
778.629	658.25
778.811	695.11
778.993	693.07
779.175	625.48
779.357	711.5
779.539	615.24
779.721	596.81
779.903	654.16
780.085	666.44
780.267	617.29
780.449	678.73
780.631	676.68
780.812	660.3
780.994	562
781.176	619.34
781.358	578.38
781.54	652.11
781.721	611.15
781.903	643.92
782.085	607.05
782.267	623.44
782.448	508.75
782.63	605
782.812	586.57
782.993	619.34
783.175	629.58
783.357	543.57
783.538	590.67
783.72	555.85
783.901	535.37
784.083	566.09
784.264	605
784.446	459.6
784.627	463.69
784.809	459.6
784.99	496.46
785.172	504.65
785.353	475.98
785.535	545.61
785.716	549.71
785.897	529.23
786.079	504.65
786.26	514.89
786.441	578.38
786.623	344.91
786.804	488.27
786.985	449.36
787.167	549.71
787.348	443.21
787.529	459.6
787.71	496.46
787.891	422.73
788.073	521.04
788.254	369.49
788.435	385.87
788.616	457.55
788.797	377.68
788.978	443.21
789.159	467.79
789.34	457.55
789.522	394.06
789.703	406.35
789.884	400.21
790.065	375.63
790.246	514.89
790.427	375.63
790.607	488.27
790.788	449.36
790.969	367.44
791.15	365.39
791.331	293.71
791.512	365.39
791.693	447.31
791.874	334.67
792.054	373.58
792.235	410.45
792.416	340.82
792.597	318.29
792.778	349.01
792.958	398.16
793.139	379.73
793.32	336.72
793.5	373.58
793.681	312.14
793.862	303.95
794.042	361.3
794.223	320.34
794.404	332.62
794.584	222.03
794.765	318.29
794.945	297.81
795.126	320.34
795.306	383.82
795.487	254.8
795.667	377.68
795.848	314.19
796.028	316.24
796.209	381.78
796.389	369.49
796.57	306
796.75	357.2
796.93	267.09
797.111	265.04
797.291	316.24
797.471	332.62
797.652	338.77
797.832	299.86
798.012	322.38
798.192	236.37
798.373	269.14
798.553	287.57
798.733	342.86
798.913	250.71
799.093	299.86
799.274	367.44
799.454	336.72
799.634	207.7
799.814	279.38
799.994	183.12
800.174	293.71
800.354	172.88
800.534	267.09
800.714	303.95
800.894	234.32
801.074	238.42
801.254	242.51
801.434	193.36
801.614	172.88
801.794	164.69
801.974	723.79
802.154	267.09
802.334	269.14
802.514	271.19
802.693	230.23
802.873	217.94
803.053	297.81
803.233	238.42
803.413	217.94
803.592	248.66
803.772	162.64
803.952	267.09
804.131	152.4
804.311	260.95
804.491	238.42
804.67	211.79
804.85	236.37
805.03	179.03
805.209	230.23
805.389	277.33
805.568	230.23
805.748	267.09
805.928	217.94
806.107	215.89
806.287	209.75
806.466	234.32
806.646	250.71
806.825	127.83
807.004	166.74
807.184	205.65
807.363	230.23
807.543	144.21
807.722	156.5
807.901	199.51
808.081	146.26
808.26	117.59
808.439	195.41
808.619	201.55
808.798	205.65
808.977	185.17
809.156	260.95
809.336	152.4
809.515	174.93
809.694	185.17
809.873	197.46
810.052	185.17
810.231	162.64
810.411	111.44
810.59	187.22
810.769	170.83
810.948	185.17
811.127	90.96
811.306	144.21
811.485	156.5
811.664	201.55
811.843	160.59
812.022	103.25
812.201	88.92
812.38	236.37
812.559	156.5
812.737	156.5
812.916	185.17
813.095	205.65
813.274	123.73
813.453	203.6
813.632	187.22
813.811	234.32
813.989	154.45
814.168	195.41
814.347	164.69
814.526	148.31
814.704	148.31
814.883	219.99
815.062	101.2
815.24	172.88
815.419	152.4
815.598	238.42
815.776	144.21
815.955	144.21
816.133	154.45
816.312	138.07
816.49	111.44
816.669	121.68
816.847	123.73
817.026	127.83
817.204	54.1
817.383	131.92
817.561	88.92
817.74	148.31
817.918	70.48
818.097	39.76
818.275	119.64
818.453	136.02
818.632	123.73
818.81	66.39
818.988	166.74
819.167	78.68
819.345	144.21
819.523	101.2
819.701	111.44
819.879	152.4
820.058	127.83
820.236	115.54
820.414	191.31
820.592	90.96
820.77	97.11
820.948	127.83
821.127	119.64
821.305	107.35
821.483	133.97
821.661	179.03
821.839	168.79
822.017	162.64
822.195	131.92
822.373	160.59
822.551	138.07
822.729	183.12
822.907	74.58
823.085	152.4
823.262	117.59
823.44	74.58
823.618	88.92
823.796	131.92
823.974	107.35
824.152	64.34
824.329	47.96
824.507	148.31
824.685	117.59
824.863	39.76
825.04	97.11
825.218	45.91
825.396	84.82
825.574	133.97
825.751	70.48
825.929	109.4
826.107	107.35
826.284	86.87
826.462	56.15
826.639	23.38
826.817	54.1
826.994	111.44
827.172	27.48
827.349	193.36
827.527	82.77
827.704	115.54
827.882	138.07
828.059	86.87
828.237	103.25
828.414	56.15
828.591	4.95
828.769	72.53
828.946	45.91
829.124	156.5
829.301	88.92
829.478	29.52
829.655	140.12
829.833	70.48
830.01	58.2
830.187	101.2
830.364	144.21
830.542	39.76
830.719	101.2
830.896	111.44
831.073	90.96
831.25	78.68
831.427	113.49
831.604	107.35
831.782	66.39
831.959	119.64
832.136	54.1
832.313	136.02
832.49	19.29
832.667	86.87
832.844	-23.72
833.021	95.06
833.198	54.1
833.374	136.02
833.551	54.1
833.728	31.57
833.905	78.68
834.082	-31.91
834.259	86.87
834.436	131.92
834.612	-11.43
834.789	146.26
834.966	70.48
835.143	29.52
835.319	37.72
835.496	107.35
835.673	70.48
835.85	72.53
836.026	95.06
836.203	152.4
836.38	47.96
836.556	-54.44
836.733	17.24
836.909	136.02
837.086	60.24
837.262	-40.11
837.439	-1.19
837.616	-3.24
837.792	50
837.968	76.63
838.145	50
838.321	17.24
838.498	29.52
838.674	58.2
838.851	56.15
839.027	35.67
839.203	70.48
839.38	39.76
839.556	80.72
839.732	97.11
839.909	37.72
840.085	41.81
840.261	86.87
840.437	66.39
840.614	64.34
840.79	35.67
840.966	31.57
841.142	56.15
841.318	37.72
841.494	66.39
841.671	101.2
841.847	27.48
842.023	21.33
842.199	103.25
842.375	60.24
842.551	27.48
842.727	-11.43
842.903	113.49
843.079	33.62
843.255	121.68
843.431	4.95
843.607	0.85
843.783	-3.24
843.959	45.91
844.134	74.58
844.31	154.45
844.486	29.52
844.662	39.76
844.838	86.87
845.013	33.62
845.189	101.2
845.365	-3.24
845.541	66.39
845.716	47.96
845.892	119.64
846.068	68.44
846.244	13.14
846.419	70.48
846.595	15.19
846.77	39.76
846.946	62.29
847.122	21.33
847.297	76.63
847.473	39.76
847.648	-1.19
847.824	78.68
847.999	-52.39
848.175	0.85
848.35	70.48
848.526	95.06
848.701	66.39
848.876	-25.77
849.052	54.1
849.227	-23.72
849.403	-11.43
849.578	45.91
849.753	70.48
849.929	123.73
850.104	-56.49
850.279	-27.82
850.454	41.81
850.63	-19.63
850.805	54.1
850.98	29.52
851.155	-33.96
851.33	15.19
851.505	-27.82
851.681	117.59
851.856	21.33
852.031	35.67
852.206	54.1
852.381	-19.63
852.556	9.05
852.731	54.1
852.906	103.25
853.081	54.1
853.256	60.24
853.431	23.38
853.606	-44.2
853.781	47.96
853.956	-1.19
854.131	39.76
854.305	56.15
854.48	64.34
854.655	13.14
854.83	45.91
855.005	-11.43
855.18	9.05
855.354	-46.25
855.529	56.15
855.704	-13.48
855.879	-9.39
856.053	13.14
856.228	72.53
856.403	45.91
856.577	13.14
856.752	-52.39
856.926	4.95
857.101	-44.2
857.276	-3.24
857.45	52.05
857.625	-7.34
857.799	78.68
857.974	-31.91
858.148	-17.58
858.323	21.33
858.497	-31.91
858.672	-17.58
858.846	-42.15
859.02	133.97
859.195	29.52
859.369	78.68
859.543	41.81
859.718	29.52
859.892	7
860.066	-19.63
860.241	0.85
860.415	-27.82
860.589	-44.2
860.763	-48.3
860.938	-27.82
861.112	35.67
861.286	21.33
861.46	-13.48
861.634	-7.34
861.808	50
861.982	50
862.157	-19.63
862.331	15.19
862.505	-44.2
862.679	-17.58
862.853	52.05
863.027	-68.78
863.201	103.25
863.375	-50.35
863.549	-52.39
863.722	56.15
863.896	29.52
864.07	37.72
864.244	-17.58
864.418	9.05
864.592	58.2
864.766	45.91
864.939	39.76
865.113	-54.44
865.287	-3.24
865.461	-60.59
865.634	-1.19
865.808	-3.24
865.982	-62.63
866.156	-3.24
866.329	-48.3
866.503	39.76
866.676	27.48
866.85	54.1
867.024	-42.15
867.197	-1.19
867.371	54.1
867.544	4.95
867.718	0.85
867.891	37.72
868.065	7
868.238	-11.43
868.412	60.24
868.585	-3.24
868.759	27.48
868.932	-50.35
869.105	-76.97
869.279	7
869.452	-44.2
869.625	-44.2
869.799	21.33
869.972	9.05
870.145	17.24
870.319	56.15
870.492	37.72
870.665	-27.82
870.838	-29.87
871.011	0.85
871.185	31.57
871.358	-31.91
871.531	4.95
871.704	25.43
871.877	64.34
872.05	47.96
872.223	56.15
872.396	-3.24
872.569	60.24
872.742	-60.59
872.915	9.05
873.088	-62.63
873.261	-76.97
873.434	-17.58
873.607	52.05
873.78	4.95
873.953	-3.24
874.126	2.9
874.299	7
874.471	29.52
874.644	41.81
874.817	-1.19
874.99	35.67
875.163	-7.34
875.335	-5.29
875.508	4.95
875.681	11.09
875.853	45.91
876.026	33.62
876.199	-7.34
876.371	25.43
876.544	21.33
876.717	-7.34
876.889	23.38
877.062	0.85
877.234	-44.2
877.407	-42.15
877.579	25.43
877.752	11.09
877.924	4.95
878.097	7
878.269	37.72
878.442	-48.3
878.614	-7.34
878.786	-5.29
878.959	-85.16
879.131	-36.01
879.303	-62.63
879.476	-44.2
879.648	70.48
879.82	68.44
879.993	-7.34
880.165	13.14
880.337	-44.2
880.509	13.14
880.681	-36.01
880.854	-72.87
881.026	-52.39
881.198	25.43
881.37	9.05
881.542	0.85
881.714	-36.01
881.886	-1.19
882.058	-27.82
882.23	-64.68
882.402	39.76
882.574	-17.58
882.746	23.38
882.918	56.15
883.09	-1.19
883.262	-11.43
883.434	-11.43
883.606	-19.63
883.778	21.33
883.95	-42.15
884.122	-48.3
884.293	45.91
884.465	-11.43
884.637	86.87
884.809	-52.39
884.98	-1.19
885.152	4.95
885.324	15.19
885.496	4.95
885.667	-27.82
885.839	13.14
886.011	62.29
886.182	29.52
886.354	45.91
886.525	0.85
886.697	56.15
886.869	-38.06
887.04	93.01
887.212	76.63
887.383	140.12
887.555	-13.48
887.726	-52.39
887.897	33.62
888.069	33.62
888.24	33.62
888.412	-40.11
888.583	-33.96
888.754	-64.68
888.926	-52.39
889.097	9.05
889.268	-83.11
889.44	7
889.611	-11.43
889.782	-19.63
889.953	-60.59
890.125	0.85
890.296	-91.31
890.467	-58.54
890.638	-23.72
890.809	-52.39
890.98	-66.73
891.151	-7.34
891.323	54.1
891.494	-54.44
891.665	-68.78
891.836	0.85
892.007	-83.11
892.178	-42.15
892.349	45.91
892.52	-11.43
892.691	54.1
892.862	-109.74
893.032	0.85
893.203	37.72
893.374	9.05
893.545	37.72
893.716	-93.35
893.887	39.76
894.057	29.52
894.228	-52.39
894.399	-85.16
894.57	45.91
894.74	-64.68
894.911	-9.39
895.082	-72.87
895.253	-52.39
895.423	52.05
895.594	17.24
895.764	0.85
895.935	-25.77
896.106	-13.48
896.276	-33.96
896.447	45.91
896.617	-19.63
896.788	-81.07
896.958	45.91
897.129	-105.64
897.299	4.95
897.47	-25.77
897.64	-9.39
897.81	0.85
897.981	60.24
898.151	-9.39
898.322	23.38
898.492	52.05
898.662	-52.39
898.832	23.38
899.003	-11.43
899.173	-23.72
899.343	-60.59
899.513	-101.55
