Data from USB4F104151__74__14-30-25-299.txt Node

Date: Thu Mar 13 14:30:25 EDT 2025
User: louis
Spectrometer: USB4F10415
Trigger mode: 4
Integration Time (sec): 2.500000E-2
Scans to average: 1
Electric dark correction enabled: true
Nonlinearity correction enabled: false
Boxcar width: 0
XAxis mode: Wavelengths
Number of Pixels in Spectrum: 3648
>>>>>Begin Spectral Data<<<<<
178.204	-128.68
178.424	-128.68
178.644	-128.68
178.864	-134.82
179.084	-161.45
179.304	59.73
179.524	0.34
179.744	18.77
179.964	6.49
180.184	26.96
180.404	-34.47
180.624	-18.09
180.844	-22.19
181.064	-61.1
181.283	12.63
181.503	-26.28
181.723	37.2
181.943	4.44
182.163	94.55
182.383	4.44
182.602	88.4
182.822	51.54
183.042	20.82
183.262	29.01
183.482	51.54
183.701	-30.38
183.921	84.31
184.141	22.87
184.361	65.88
184.58	43.35
184.8	35.16
185.02	-28.33
185.239	94.55
185.459	80.21
185.679	18.77
185.898	-38.57
186.118	22.87
186.338	31.06
186.557	84.31
186.777	10.58
186.997	2.39
187.216	170.32
187.436	37.2
187.655	166.23
187.875	26.96
188.095	18.77
188.314	59.73
188.534	35.16
188.753	16.73
188.973	4.44
189.192	119.12
189.412	47.44
189.631	24.92
189.851	12.63
190.07	72.02
190.29	47.44
190.509	55.64
190.729	24.92
190.948	59.73
191.168	149.84
191.387	76.12
191.607	49.49
191.826	37.2
192.045	-1.71
192.265	45.4
192.484	2.39
192.704	80.21
192.923	-42.67
193.142	92.5
193.362	84.31
193.581	51.54
193.8	61.78
194.02	51.54
194.239	-30.38
194.458	37.2
194.678	22.87
194.897	2.39
195.116	-59.05
195.335	53.59
195.555	117.08
195.774	59.73
195.993	127.32
196.212	-5.8
196.432	10.58
196.651	43.35
196.87	10.58
197.089	100.69
197.308	41.3
197.528	67.92
197.747	35.16
197.966	-20.14
198.185	100.69
198.404	0.34
198.623	74.07
198.842	74.07
199.062	53.59
199.281	96.6
199.5	-5.8
199.719	-3.75
199.938	45.4
200.157	61.78
200.376	108.88
200.595	18.77
200.814	45.4
201.033	53.59
201.252	14.68
201.471	26.96
201.69	55.64
201.909	2.39
202.128	88.4
202.347	31.06
202.566	24.92
202.785	16.73
203.004	-1.71
203.223	104.79
203.442	59.73
203.661	10.58
203.879	29.01
204.098	61.78
204.317	18.77
204.536	51.54
204.755	80.21
204.974	43.35
205.193	59.73
205.411	67.92
205.63	35.16
205.849	37.2
206.068	35.16
206.287	35.16
206.505	43.35
206.724	10.58
206.943	31.06
207.162	26.96
207.381	43.35
207.599	61.78
207.818	10.58
208.037	22.87
208.255	-38.57
208.474	-22.19
208.693	8.53
208.911	-5.8
209.13	80.21
209.349	133.46
209.567	39.25
209.786	22.87
210.005	0.34
210.223	12.63
210.442	10.58
210.661	20.82
210.879	65.88
211.098	37.2
211.316	47.44
211.535	18.77
211.753	59.73
211.972	59.73
212.191	-46.76
212.409	67.92
212.628	22.87
212.846	43.35
213.065	26.96
213.283	12.63
213.502	14.68
213.72	35.16
213.938	59.73
214.157	61.78
214.375	53.59
214.594	4.44
214.812	92.5
215.031	-22.19
215.249	53.59
215.467	-20.14
215.686	45.4
215.904	74.07
216.122	-30.38
216.341	100.69
216.559	10.58
216.778	16.73
216.996	82.26
217.214	-13.99
217.432	-9.9
217.651	18.77
217.869	26.96
218.087	22.87
218.306	-50.86
218.524	88.4
218.742	-44.71
218.96	24.92
219.179	6.49
219.397	26.96
219.615	117.08
219.833	2.39
220.051	26.96
220.27	31.06
220.488	88.4
220.706	51.54
220.924	45.4
221.142	-24.23
221.36	37.2
221.578	158.03
221.796	-5.8
222.015	53.59
222.233	4.44
222.451	94.55
222.669	26.96
222.887	10.58
223.105	-7.85
223.323	67.92
223.541	-42.67
223.759	67.92
223.977	37.2
224.195	43.35
224.413	26.96
224.631	-5.8
224.849	59.73
225.067	127.32
225.285	-59.05
225.503	121.17
225.721	-54.95
225.939	51.54
226.157	43.35
226.375	192.85
226.592	-36.52
226.81	-1.71
227.028	26.96
227.246	86.36
227.464	24.92
227.682	-13.99
227.9	31.06
228.117	31.06
228.335	41.3
228.553	35.16
228.771	-13.99
228.989	35.16
229.206	57.68
229.424	10.58
229.642	-52.91
229.86	-36.52
230.077	65.88
230.295	108.88
230.513	43.35
230.731	-13.99
230.948	67.92
231.166	94.55
231.384	-38.57
231.601	45.4
231.819	61.78
232.037	49.49
232.254	-26.28
232.472	4.44
232.689	-22.19
232.907	63.83
233.125	51.54
233.342	-18.09
233.56	-3.75
233.777	-28.33
233.995	-9.9
234.213	80.21
234.43	72.02
234.648	-22.19
234.865	35.16
235.083	14.68
235.3	67.92
235.518	35.16
235.735	102.74
235.953	80.21
236.17	29.01
236.388	12.63
236.605	51.54
236.822	61.78
237.04	31.06
237.257	-11.95
237.475	-59.05
237.692	127.32
237.909	10.58
238.127	88.4
238.344	76.12
238.562	10.58
238.779	-5.8
238.996	-3.75
239.214	10.58
239.431	57.68
239.648	-112.3
239.865	108.88
240.083	-42.67
240.3	35.16
240.517	14.68
240.735	49.49
240.952	35.16
241.169	41.3
241.386	18.77
241.603	26.96
241.821	41.3
242.038	51.54
242.255	45.4
242.472	-28.33
242.689	18.77
242.907	6.49
243.124	57.68
243.341	39.25
243.558	-48.81
243.775	-9.9
243.992	6.49
244.209	18.77
244.426	80.21
244.643	59.73
244.86	78.16
245.078	-7.85
245.295	4.44
245.512	92.5
245.729	-44.71
245.946	61.78
246.163	100.69
246.38	-71.34
246.597	67.92
246.814	92.5
247.031	-20.14
247.248	20.82
247.464	145.75
247.681	10.58
247.898	-3.75
248.115	53.59
248.332	12.63
248.549	39.25
248.766	141.65
248.983	63.83
249.2	26.96
249.417	43.35
249.633	43.35
249.85	35.16
250.067	22.87
250.284	80.21
250.501	141.65
250.717	98.64
250.934	-24.23
251.151	18.77
251.368	2.39
251.585	37.2
251.801	-13.99
252.018	-13.99
252.235	22.87
252.451	43.35
252.668	-5.8
252.885	-22.19
253.102	22.87
253.318	-1.71
253.535	10.58
253.752	2.39
253.968	57.68
254.185	-26.28
254.401	51.54
254.618	35.16
254.835	-18.09
255.051	86.36
255.268	102.74
255.484	102.74
255.701	80.21
255.917	39.25
256.134	26.96
256.351	18.77
256.567	12.63
256.784	67.92
257	10.58
257.217	82.26
257.433	121.17
257.65	84.31
257.866	67.92
258.082	-26.28
258.299	8.53
258.515	20.82
258.732	-13.99
258.948	102.74
259.165	-7.85
259.381	-52.91
259.597	6.49
259.814	43.35
260.03	-9.9
260.246	26.96
260.463	131.41
260.679	20.82
260.895	-34.47
261.112	59.73
261.328	37.2
261.544	12.63
261.761	88.4
261.977	51.54
262.193	-42.67
262.409	86.36
262.626	88.4
262.842	49.49
263.058	8.53
263.274	92.5
263.49	61.78
263.707	96.6
263.923	35.16
264.139	10.58
264.355	45.4
264.571	86.36
264.787	-22.19
265.004	76.12
265.22	6.49
265.436	31.06
265.652	10.58
265.868	-18.09
266.084	14.68
266.3	69.97
266.516	43.35
266.732	59.73
266.948	-36.52
267.164	57.68
267.38	51.54
267.596	37.2
267.812	67.92
268.028	31.06
268.244	-22.19
268.46	55.64
268.676	12.63
268.892	65.88
269.108	74.07
269.324	51.54
269.54	29.01
269.756	57.68
269.972	6.49
270.188	53.59
270.403	12.63
270.619	47.44
270.835	67.92
271.051	49.49
271.267	-87.72
271.483	20.82
271.698	115.03
271.914	37.2
272.13	10.58
272.346	26.96
272.562	2.39
272.777	100.69
272.993	43.35
273.209	65.88
273.425	20.82
273.64	43.35
273.856	84.31
274.072	-46.76
274.287	-77.48
274.503	-20.14
274.719	72.02
274.934	47.44
275.15	-20.14
275.366	59.73
275.581	-30.38
275.797	76.12
276.012	47.44
276.228	-16.04
276.444	88.4
276.659	76.12
276.875	2.39
277.09	20.82
277.306	-11.95
277.521	45.4
277.737	121.17
277.952	72.02
278.168	20.82
278.383	47.44
278.599	55.64
278.814	80.21
279.03	-22.19
279.245	84.31
279.461	29.01
279.676	61.78
279.892	-5.8
280.107	51.54
280.322	-7.85
280.538	53.59
280.753	6.49
280.969	104.79
281.184	69.97
281.399	125.27
281.615	33.11
281.83	53.59
282.045	-1.71
282.26	47.44
282.476	35.16
282.691	84.31
282.906	26.96
283.122	63.83
283.337	94.55
283.552	57.68
283.767	18.77
283.983	96.6
284.198	49.49
284.413	53.59
284.628	112.98
284.843	29.01
285.058	76.12
285.274	26.96
285.489	20.82
285.704	88.4
285.919	78.16
286.134	47.44
286.349	55.64
286.564	76.12
286.779	149.84
286.995	39.25
287.21	-22.19
287.425	63.83
287.64	88.4
287.855	-1.71
288.07	-13.99
288.285	96.6
288.5	76.12
288.715	45.4
288.93	80.21
289.145	37.2
289.36	72.02
289.575	2.39
289.79	94.55
290.004	45.4
290.219	96.6
290.434	-7.85
290.649	37.2
290.864	2.39
291.079	10.58
291.294	55.64
291.509	8.53
291.724	10.58
291.938	-30.38
292.153	43.35
292.368	-28.33
292.583	6.49
292.798	92.5
293.012	-22.19
293.227	-61.1
293.442	-26.28
293.657	112.98
293.871	61.78
294.086	-34.47
294.301	80.21
294.516	115.03
294.73	53.59
294.945	10.58
295.16	6.49
295.374	14.68
295.589	76.12
295.804	-22.19
296.018	35.16
296.233	31.06
296.447	-22.19
296.662	45.4
296.877	69.97
297.091	53.59
297.306	51.54
297.52	-13.99
297.735	22.87
297.949	6.49
298.164	43.35
298.378	35.16
298.593	2.39
298.807	4.44
299.022	26.96
299.236	-18.09
299.451	26.96
299.665	-5.8
299.88	39.25
300.094	45.4
300.309	115.03
300.523	-18.09
300.737	45.4
300.952	-32.43
301.166	22.87
301.381	-42.67
301.595	29.01
301.809	47.44
302.024	-30.38
302.238	76.12
302.452	84.31
302.667	18.77
302.881	141.65
303.095	43.35
303.309	8.53
303.524	-9.9
303.738	-3.75
303.952	10.58
304.166	125.27
304.381	10.58
304.595	76.12
304.809	-38.57
305.023	72.02
305.237	55.64
305.452	45.4
305.666	76.12
305.88	39.25
306.094	67.92
306.308	51.54
306.522	121.17
306.736	12.63
306.95	129.36
307.164	49.49
307.379	-44.71
307.593	76.12
307.807	67.92
308.021	37.2
308.235	43.35
308.449	-36.52
308.663	76.12
308.877	119.12
309.091	31.06
309.305	133.46
309.519	-91.82
309.733	123.22
309.947	-95.91
310.161	20.82
310.374	76.12
310.588	125.27
310.802	31.06
311.016	112.98
311.23	35.16
311.444	2.39
311.658	-11.95
311.872	-26.28
312.085	35.16
312.299	55.64
312.513	106.84
312.727	76.12
312.941	45.4
313.154	80.21
313.368	94.55
313.582	-18.09
313.796	59.73
314.009	6.49
314.223	-20.14
314.437	84.31
314.651	26.96
314.864	104.79
315.078	-9.9
315.292	-38.57
315.505	20.82
315.719	76.12
315.933	22.87
316.146	117.08
316.36	-7.85
316.573	39.25
316.787	22.87
317.001	84.31
317.214	14.68
317.428	61.78
317.641	-69.29
317.855	35.16
318.068	6.49
318.282	29.01
318.495	35.16
318.709	108.88
318.922	55.64
319.136	69.97
319.349	35.16
319.563	18.77
319.776	35.16
319.99	43.35
320.203	88.4
320.417	55.64
320.63	82.26
320.843	43.35
321.057	72.02
321.27	29.01
321.483	61.78
321.697	51.54
321.91	59.73
322.124	86.36
322.337	-11.95
322.55	31.06
322.763	-7.85
322.977	37.2
323.19	2.39
323.403	6.49
323.617	84.31
323.83	39.25
324.043	10.58
324.256	53.59
324.469	59.73
324.683	-5.8
324.896	-11.95
325.109	2.39
325.322	57.68
325.535	-3.75
325.748	43.35
325.962	-54.95
326.175	53.59
326.388	-3.75
326.601	86.36
326.814	22.87
327.027	12.63
327.24	115.03
327.453	-30.38
327.666	6.49
327.879	110.93
328.092	92.5
328.305	55.64
328.518	69.97
328.731	4.44
328.944	72.02
329.157	55.64
329.37	22.87
329.583	45.4
329.796	104.79
330.009	-30.38
330.222	106.84
330.435	72.02
330.648	72.02
330.861	-28.33
331.073	59.73
331.286	26.96
331.499	43.35
331.712	-9.9
331.925	92.5
332.138	-5.8
332.35	102.74
332.563	14.68
332.776	133.46
332.989	-73.39
333.202	26.96
333.414	20.82
333.627	39.25
333.84	-20.14
334.053	53.59
334.265	-24.23
334.478	-22.19
334.691	24.92
334.903	88.4
335.116	-13.99
335.329	10.58
335.541	104.79
335.754	33.11
335.966	0.34
336.179	37.2
336.392	29.01
336.604	92.5
336.817	-1.71
337.029	63.83
337.242	67.92
337.454	133.46
337.667	2.39
337.88	49.49
338.092	57.68
338.305	29.01
338.517	-1.71
338.729	117.08
338.942	76.12
339.154	-34.47
339.367	35.16
339.579	78.16
339.792	-30.38
340.004	45.4
340.217	20.82
340.429	86.36
340.641	37.2
340.854	-22.19
341.066	63.83
341.278	72.02
341.491	88.4
341.703	51.54
341.915	-40.62
342.128	51.54
342.34	14.68
342.552	35.16
342.764	-7.85
342.977	51.54
343.189	4.44
343.401	18.77
343.613	-5.8
343.826	10.58
344.038	55.64
344.25	135.51
344.462	59.73
344.674	41.3
344.886	69.97
345.099	43.35
345.311	43.35
345.523	26.96
345.735	-36.52
345.947	53.59
346.159	10.58
346.371	12.63
346.583	6.49
346.795	67.92
347.007	43.35
347.219	82.26
347.431	55.64
347.643	59.73
347.855	18.77
348.067	78.16
348.279	69.97
348.491	37.2
348.703	86.36
348.915	26.96
349.127	-42.67
349.339	39.25
349.551	29.01
349.763	74.07
349.975	35.16
350.187	78.16
350.399	-5.8
350.61	55.64
350.822	96.6
351.034	2.39
351.246	22.87
351.458	69.97
351.669	26.96
351.881	-28.33
352.093	133.46
352.305	84.31
352.517	76.12
352.728	104.79
352.94	67.92
353.152	80.21
353.363	55.64
353.575	18.77
353.787	92.5
353.999	29.01
354.21	100.69
354.422	84.31
354.633	69.97
354.845	53.59
355.057	-1.71
355.268	59.73
355.48	2.39
355.692	20.82
355.903	55.64
356.115	-1.71
356.326	-26.28
356.538	84.31
356.749	-5.8
356.961	67.92
357.172	76.12
357.384	57.68
357.595	121.17
357.807	20.82
358.018	76.12
358.23	20.82
358.441	72.02
358.653	92.5
358.864	31.06
359.075	55.64
359.287	67.92
359.498	-20.14
359.709	47.44
359.921	43.35
360.132	76.12
360.344	2.39
360.555	53.59
360.766	112.98
360.977	-20.14
361.189	117.08
361.4	43.35
361.611	174.42
361.823	182.61
362.034	18.77
362.245	37.2
362.456	96.6
362.667	-13.99
362.879	63.83
363.09	47.44
363.301	45.4
363.512	100.69
363.723	53.59
363.935	10.58
364.146	94.55
364.357	55.64
364.568	119.12
364.779	18.77
364.99	117.08
365.201	16.73
365.412	112.98
365.623	-28.33
365.834	63.83
366.045	78.16
366.256	108.88
366.467	26.96
366.678	78.16
366.889	0.34
367.1	20.82
367.311	18.77
367.522	18.77
367.733	59.73
367.944	65.88
368.155	-3.75
368.366	92.5
368.577	92.5
368.788	67.92
368.999	2.39
369.209	37.2
369.42	194.9
369.631	74.07
369.842	78.16
370.053	6.49
370.264	59.73
370.474	-18.09
370.685	24.92
370.896	67.92
371.107	69.97
371.317	14.68
371.528	84.31
371.739	80.21
371.95	72.02
372.16	78.16
372.371	41.3
372.582	125.27
372.792	51.54
373.003	80.21
373.214	72.02
373.424	39.25
373.635	-30.38
373.846	125.27
374.056	72.02
374.267	39.25
374.477	10.58
374.688	43.35
374.898	-11.95
375.109	35.16
375.319	72.02
375.53	149.84
375.74	76.12
375.951	43.35
376.161	26.96
376.372	80.21
376.582	104.79
376.793	80.21
377.003	18.77
377.214	18.77
377.424	29.01
377.635	102.74
377.845	35.16
378.055	117.08
378.266	41.3
378.476	47.44
378.686	65.88
378.897	59.73
379.107	57.68
379.317	41.3
379.528	43.35
379.738	98.64
379.948	-13.99
380.158	117.08
380.369	76.12
380.579	92.5
380.789	61.78
380.999	59.73
381.21	67.92
381.42	84.31
381.63	47.44
381.84	78.16
382.05	86.36
382.261	76.12
382.471	29.01
382.681	100.69
382.891	65.88
383.101	51.54
383.311	110.93
383.521	14.68
383.731	100.69
383.941	61.78
384.151	20.82
384.361	2.39
384.571	2.39
384.781	78.16
384.991	102.74
385.201	123.22
385.411	74.07
385.621	72.02
385.831	59.73
386.041	74.07
386.251	35.16
386.461	119.12
386.671	72.02
386.881	29.01
387.091	10.58
387.301	110.93
387.511	-3.75
387.72	35.16
387.93	26.96
388.14	-13.99
388.35	61.78
388.56	162.13
388.769	43.35
388.979	-5.8
389.189	69.97
389.399	33.11
389.609	117.08
389.818	80.21
390.028	84.31
390.238	14.68
390.447	51.54
390.657	76.12
390.867	88.4
391.076	35.16
391.286	72.02
391.496	86.36
391.705	24.92
391.915	110.93
392.125	98.64
392.334	59.73
392.544	80.21
392.753	47.44
392.963	6.49
393.172	115.03
393.382	88.4
393.591	176.47
393.801	51.54
394.01	76.12
394.22	53.59
394.429	31.06
394.639	108.88
394.848	133.46
395.058	117.08
395.267	20.82
395.477	53.59
395.686	43.35
395.895	117.08
396.105	133.46
396.314	137.56
396.524	96.6
396.733	59.73
396.942	141.65
397.152	86.36
397.361	72.02
397.57	67.92
397.78	29.01
397.989	203.09
398.198	192.85
398.407	61.78
398.617	51.54
398.826	115.03
399.035	108.88
399.244	106.84
399.453	108.88
399.663	108.88
399.872	86.36
400.081	92.5
400.29	160.08
400.499	149.84
400.708	164.18
400.917	61.78
401.127	100.69
401.336	88.4
401.545	225.62
401.754	137.56
401.963	129.36
402.172	141.65
402.381	162.13
402.59	108.88
402.799	162.13
403.008	166.23
403.217	121.17
403.426	151.89
403.635	143.7
403.844	139.6
404.053	119.12
404.262	125.27
404.471	176.47
404.68	149.84
404.888	108.88
405.097	137.56
405.306	141.65
405.515	178.51
405.724	180.56
405.933	174.42
406.142	201.04
406.35	149.84
406.559	151.89
406.768	215.38
406.977	227.67
407.185	250.19
407.394	299.34
407.603	203.09
407.812	160.08
408.02	258.39
408.229	235.86
408.438	301.39
408.646	229.71
408.855	305.49
409.064	301.39
409.272	270.67
409.481	323.92
409.69	375.12
409.898	371.02
410.107	354.64
410.315	338.26
410.524	313.68
410.733	387.41
410.941	411.98
411.15	399.7
411.358	487.76
411.567	536.91
411.775	444.75
411.984	418.13
412.192	469.33
412.401	520.53
412.609	584.01
412.818	645.45
413.026	600.4
413.234	510.29
413.443	555.34
413.651	637.26
413.86	616.78
414.068	741.71
414.276	563.53
414.485	604.49
414.693	745.8
414.901	733.51
415.11	807.24
415.318	825.67
415.526	774.47
415.734	915.78
415.943	954.69
416.151	973.13
416.359	907.59
416.567	960.84
416.776	991.56
416.984	1112.39
417.192	1216.83
417.4	1044.81
417.608	1128.77
417.817	1126.72
418.025	1255.75
418.233	1356.1
418.441	1237.31
418.649	1354.05
418.857	1423.68
419.065	1493.31
419.273	1487.17
419.481	1595.71
419.689	1671.48
419.897	1724.73
420.105	1765.69
420.313	1880.38
420.521	1829.18
420.729	1956.15
420.937	1982.78
421.145	2017.59
421.353	2058.55
421.561	2230.58
421.769	2214.2
421.977	2380.08
422.185	2232.63
422.393	2386.22
422.601	2599.21
422.809	2681.13
423.017	2664.75
423.224	2787.63
423.432	2804.01
423.64	2705.71
423.848	3060.01
424.056	3006.76
424.263	3281.19
424.471	3328.29
424.679	3348.77
424.887	3582.24
425.094	3627.29
425.302	3703.07
425.51	3993.88
425.718	3879.19
425.925	3950.87
426.133	4032.79
426.341	4290.84
426.548	4638.99
426.756	4542.74
426.964	4475.15
427.171	4737.29
427.379	4835.6
427.586	5021.96
427.794	5245.19
428.001	5402.88
428.209	5605.63
428.417	5490.95
428.624	5867.77
428.832	5820.67
429.039	5822.72
429.247	5796.09
429.454	6320.37
429.662	6902
429.869	6443.25
430.076	6963.44
430.284	6506.74
430.491	6936.81
430.699	7287.01
430.906	7229.67
431.114	7710.94
431.321	7616.74
431.528	7925.98
431.736	8341.72
431.943	8693.97
432.15	8368.34
432.358	8587.47
432.565	9160.91
432.772	9158.86
432.979	9492.68
433.187	9511.11
433.394	9668.8
433.601	10307.77
433.808	10563.76
434.016	10197.18
434.223	10684.59
434.43	11231.4
434.637	11217.07
434.844	11735.2
435.052	11966.62
435.259	12001.44
435.466	12030.11
435.673	12032.16
435.88	12777.62
436.087	13256.84
436.294	13326.47
436.501	12990.61
436.708	13369.48
436.915	13703.3
437.122	14420.09
437.329	14282.88
437.537	14872.69
437.743	14948.47
437.95	14913.65
438.157	15755.36
438.364	16033.89
438.571	16062.56
438.778	16107.62
438.985	17483.85
439.192	16937.04
439.399	17322.06
439.606	17195.09
439.813	18143.3
440.02	19183.66
440.227	18847.8
440.433	18657.34
440.64	19222.58
440.847	19122.23
441.054	19738.66
441.261	20590.62
441.467	20490.27
441.674	21211.15
441.881	21673.99
442.088	21803.02
442.294	21454.86
442.501	21975.05
442.708	22818.81
442.914	23564.27
443.121	23945.19
443.328	23820.27
443.534	25538.51
443.741	24537.05
443.948	24387.55
444.154	26212.29
444.361	26046.41
444.568	25933.77
444.774	25892.81
444.981	26179.53
445.187	26834.88
445.394	28458.92
445.6	27883.44
445.807	30607.23
446.013	29020.06
446.22	29941.64
446.426	31086.46
446.633	31106.94
446.839	32044.91
447.046	31068.03
447.252	32546.66
447.459	33052.51
447.665	32706.4
447.871	33910.61
448.078	35129.15
448.284	33806.16
448.491	34479.94
448.697	36034.35
448.903	36601.64
449.11	36632.36
449.316	35987.25
449.522	36894.5
449.728	37787.41
449.935	38074.13
450.141	38008.59
450.347	38868.74
450.553	37336.86
450.76	37674.77
450.966	39141.12
451.172	39503.61
451.378	39751.41
451.584	39247.61
451.791	39864.05
451.997	40001.27
452.203	40845.03
452.409	40539.88
452.615	40316.65
452.821	39044.87
453.027	38104.85
453.233	40343.28
453.44	38713.09
453.646	39261.95
453.852	39134.98
454.058	40095.47
454.264	38407.95
454.47	39259.9
454.676	38647.56
454.882	39956.21
455.088	36130.61
455.294	36790.05
455.5	37195.55
455.705	37570.33
455.911	36433.71
456.117	35837.75
456.323	35065.66
456.529	33566.55
456.735	34662.21
456.941	34010.96
457.147	33468.25
457.352	32184.17
457.558	31678.32
457.764	32362.34
457.97	31156.09
458.176	30932.86
458.381	30386.05
458.587	29271.96
458.793	29231
458.999	27908.01
459.204	29405.08
459.41	28813.21
459.616	26935.23
459.821	26783.68
460.027	26697.66
460.233	26095.56
460.438	24694.75
460.644	24917.98
460.85	24123.37
461.055	23361.52
461.261	23394.29
461.466	21694.47
461.672	20899.86
461.878	22521.85
462.083	20895.77
462.289	20609.05
462.494	20271.14
462.7	19599.4
462.905	19298.35
463.111	19707.94
463.316	19445.8
463.522	19081.27
463.727	19226.67
463.932	18919.48
464.138	19122.23
464.343	19048.5
464.549	18708.54
464.754	19152.95
464.959	19021.88
465.165	18528.31
465.37	17879.11
465.575	17467.47
465.781	18202.69
465.986	18384.96
466.191	17690.7
466.397	17320.01
466.602	16625.75
466.807	16875.6
467.012	16986.19
467.218	16924.76
467.423	16564.31
467.628	16588.89
467.833	17379.4
468.038	16826.45
468.244	16472.15
468.449	17008.72
468.654	16332.89
468.859	16263.26
469.064	16027.74
469.269	15503.46
469.474	15685.73
469.679	15882.34
469.885	15130.73
470.09	15749.22
470.295	15538.28
470.5	15077.49
470.705	15249.52
470.91	14878.83
471.115	14884.98
471.32	14985.33
471.525	14950.51
471.73	14798.96
471.935	14194.81
472.139	14123.13
472.344	14028.93
472.549	14082.17
472.754	13953.15
472.959	13621.38
473.164	12990.61
473.369	13222.03
473.574	13582.47
473.778	13400.2
473.983	13207.69
474.188	13414.54
474.393	12445.85
474.598	12503.19
474.802	12505.24
475.007	12443.8
475.212	12595.35
475.417	11874.46
475.621	12089.5
475.826	12234.91
476.031	11720.87
476.235	11679.91
476.44	11610.28
476.645	11606.18
476.849	11516.07
477.054	11305.13
477.259	11079.85
477.463	11102.38
477.668	10610.87
477.872	11126.96
478.077	10690.74
478.282	10545.33
478.486	10684.59
478.691	10553.52
478.895	10492.09
479.1	10217.66
479.304	10504.37
479.509	10023.1
479.713	10340.54
479.918	9978.05
480.122	9775.3
480.326	10037.44
480.531	9949.37
480.735	10088.64
480.94	9939.13
481.144	10303.67
481.348	9603.27
481.553	9832.64
481.757	9660.61
481.961	9580.74
482.166	9824.45
482.37	9474.24
482.574	9662.66
482.778	9656.51
482.983	9728.19
483.187	9511.11
483.391	9726.14
483.595	9480.39
483.8	9369.8
484.004	9595.07
484.208	9552.07
484.412	9482.44
484.616	9892.03
484.821	9513.16
485.025	9246.92
485.229	9705.67
485.433	9550.02
485.637	9496.77
485.841	9590.98
486.045	9251.02
486.249	9423.05
486.453	9382.09
486.657	9435.33
486.861	9496.77
487.065	9181.39
487.269	9595.07
487.473	9033.93
487.677	9474.24
487.881	9603.27
488.085	9418.95
488.289	9326.79
488.493	9365.7
488.697	9619.65
488.901	9521.35
489.105	9509.06
489.309	9461.96
489.512	9480.39
489.716	9482.44
489.92	9408.71
490.124	9384.13
490.328	9760.96
490.531	9550.02
490.735	9449.67
490.939	9642.18
491.143	9451.72
491.346	9537.73
491.55	9683.14
491.754	9595.07
491.958	9644.23
492.161	9701.57
492.365	9726.14
492.569	9578.69
492.772	9758.91
492.976	9775.3
493.18	9701.57
493.383	10070.2
493.587	9986.24
493.79	10184.89
493.994	10141.88
494.197	10143.93
494.401	10139.83
494.605	10062.01
494.808	10262.71
495.012	10225.85
495.215	10324.15
495.419	10451.13
495.622	10422.45
495.825	10342.58
496.029	10590.39
496.232	10774.7
496.436	10918.06
496.639	10983.6
496.843	10815.66
497.046	10997.93
497.249	11102.38
497.453	11116.72
497.656	11282.6
497.859	11239.59
498.063	11540.65
498.266	11821.22
498.469	11612.32
498.673	11944.1
498.876	12079.26
499.079	12048.54
499.282	12124.32
499.485	12284.06
499.689	12277.91
499.892	12527.77
500.095	12396.7
500.298	12902.54
500.501	12484.76
500.705	12794
500.908	12951.7
501.111	13133.96
501.314	13473.93
501.517	13353.1
501.72	13580.42
501.923	13549.7
502.126	13922.43
502.329	13975.68
502.532	14008.45
502.735	14356.6
502.938	14512.25
503.141	14692.47
503.344	14794.87
503.547	14665.85
503.75	15177.84
503.953	15196.27
504.156	15280.24
504.359	15525.99
504.562	15562.86
504.765	15681.64
504.968	15853.67
505.17	16349.28
505.373	15849.57
505.576	16496.73
505.779	16312.41
505.982	16535.64
506.185	16820.31
506.387	17057.87
506.59	17164.37
506.793	17199.18
506.996	17487.95
507.198	17852.48
507.401	17854.53
507.604	17827.91
507.807	18241.6
508.009	18425.92
508.212	18556.99
508.415	18735.16
508.617	19021.88
508.82	18980.92
509.022	19058.74
509.225	19679.27
509.428	19480.62
509.63	19789.86
509.833	19824.68
510.035	20219.94
510.238	20125.73
510.44	20498.46
510.643	20752.41
510.845	21112.85
511.048	21037.08
511.25	21258.26
511.453	21579.79
511.655	22288.39
511.858	21747.72
512.06	22046.72
512.262	22427.65
512.465	22087.68
512.667	22812.67
512.87	22644.73
513.072	23062.52
513.274	23160.82
513.477	23508.97
513.679	24035.3
513.881	24104.93
514.084	24121.32
514.286	24162.28
514.488	24360.93
514.69	25159.64
514.893	24928.22
515.095	24997.85
515.297	25104.34
515.499	25550.8
515.701	25960.39
515.904	26236.87
516.106	26415.04
516.308	26394.56
516.51	26767.29
516.712	26765.24
516.914	27121.59
517.116	27305.91
517.318	27758.51
517.52	27778.99
517.722	27498.42
517.925	28223.4
518.127	28696.48
518.329	28557.22
518.531	28403.62
518.733	29032.35
518.935	29224.86
519.136	29265.81
519.338	29423.51
519.54	29874.06
519.742	29960.08
519.944	29880.21
520.146	30465.92
520.348	30617.47
520.55	30652.29
520.752	30928.77
520.954	31268.73
521.155	31025.02
521.357	31969.13
521.559	31721.33
521.761	31825.78
521.963	32016.24
522.164	31946.61
522.366	31825.78
522.568	32429.93
522.77	32227.18
522.971	32937.82
523.173	32450.41
523.375	33146.72
523.576	32849.76
523.778	33021.79
523.98	33218.39
524.181	32968.54
524.383	33339.22
524.584	33517.4
524.786	33789.78
524.988	33496.92
525.189	33902.42
525.391	33961.81
525.592	34621.25
525.794	34068.3
525.995	34160.46
526.197	34076.49
526.398	34264.91
526.6	34492.23
526.801	34459.46
527.003	34688.84
527.204	34447.18
527.406	34639.68
527.607	34750.28
527.808	35010.37
528.01	33978.19
528.211	34516.81
528.412	34993.98
528.614	34752.32
528.815	34748.23
529.016	34742.08
529.218	34248.52
529.419	34453.32
529.62	34766.66
529.822	34555.72
530.023	34801.47
530.224	34705.22
530.425	34479.94
530.626	34357.07
530.828	33810.26
531.029	35049.28
531.23	34103.12
531.431	34164.56
531.632	34369.35
531.833	34303.82
532.035	34340.68
532.236	34162.51
532.437	34348.87
532.638	34006.86
532.839	34303.82
533.04	34381.64
533.241	33851.22
533.442	34516.81
533.643	34137.93
533.844	33953.62
534.045	34230.09
534.246	33886.03
534.447	34424.65
534.648	33671
534.849	34023.25
535.05	33267.55
535.251	33711.95
535.451	33498.97
535.652	33867.6
535.853	33394.52
536.054	33793.87
536.255	33978.19
536.456	32935.77
536.657	33544.02
536.857	33224.54
537.058	33359.7
537.259	33265.5
537.46	33191.77
537.66	33154.91
537.861	33142.62
538.062	33142.62
538.263	33208.15
538.463	33062.75
538.664	33056.6
538.865	33371.99
539.065	33371.99
539.266	32798.56
539.466	33095.52
539.667	32325.48
539.868	32874.34
540.068	32761.7
540.269	32620.39
540.469	32841.57
540.67	32583.52
540.87	32675.68
541.071	32636.77
541.271	32470.89
541.472	32782.18
541.672	32194.41
541.873	32278.38
542.073	31909.74
542.274	32313.19
542.474	32376.68
542.675	32155.5
542.875	32601.96
543.075	32264.04
543.276	31876.97
543.476	32395.11
543.676	31948.65
543.877	32270.18
544.077	31993.71
544.277	32132.97
544.478	32067.44
544.678	32309.1
544.878	32378.73
545.078	32462.69
545.279	31899.5
545.479	32001.9
545.679	32221.03
545.879	32329.58
546.079	32276.33
546.28	32374.63
546.48	31876.97
546.68	32022.38
546.88	32202.6
547.08	32106.35
547.28	31606.64
547.48	32046.96
547.68	31938.41
547.88	31766.38
548.081	32094.06
548.281	31997.81
548.481	32008.04
548.681	32243.56
548.881	32198.51
549.081	32116.59
549.28	32227.18
549.48	32266.09
549.68	31809.39
549.88	32286.57
550.08	31979.37
550.28	32241.51
550.48	32022.38
550.68	32325.48
550.88	31811.44
551.08	32055.15
551.279	32278.38
551.479	31811.44
551.679	32438.12
551.879	32188.27
552.079	32454.5
552.278	32452.45
552.478	31858.54
552.678	32102.25
552.878	32274.28
553.077	32104.3
553.277	31956.85
553.477	32970.59
553.676	32171.88
553.876	32427.88
554.076	32737.12
554.275	32305
554.475	32454.5
554.674	32866.14
554.874	32264.04
555.074	32454.5
555.273	32853.86
555.473	32352.1
555.672	32821.09
555.872	32487.27
556.071	32556.9
556.271	32763.75
556.47	32636.77
556.67	32446.31
556.869	32737.12
557.068	32933.73
557.268	32325.48
557.467	32966.49
557.667	32835.42
557.866	32698.21
558.065	32763.75
558.265	32448.36
558.464	32259.95
558.663	33152.86
558.863	32526.18
559.062	33275.74
559.261	32651.11
559.461	32909.15
559.66	32530.28
559.859	32980.83
560.058	32657.25
560.258	32851.81
560.457	32517.99
560.656	33054.56
560.855	32706.4
561.054	32986.97
561.253	32735.07
561.453	32878.43
561.652	32528.23
561.851	32890.72
562.05	32735.07
562.249	32298.86
562.448	32898.91
562.647	32642.92
562.846	32728.93
563.045	32868.19
563.244	32417.64
563.443	32831.33
563.642	32208.75
563.841	32495.46
564.04	32591.72
564.239	32866.14
564.438	32710.5
564.637	32630.63
564.836	32616.29
565.035	32036.72
565.234	32548.71
565.432	31987.57
565.631	32257.9
565.83	32423.78
566.029	32198.51
566.228	32253.8
566.427	32151.4
566.625	31850.35
566.824	31790.96
567.023	32290.66
567.222	31663.99
567.42	32218.99
567.619	31555.44
567.818	31799.15
568.016	31704.95
568.215	32059.24
568.414	32135.02
568.612	32419.69
568.811	31571.83
569.01	31391.61
569.208	31160.19
569.407	31451
569.605	31158.14
569.804	31430.52
570.002	31092.6
570.201	31741.81
570.4	30658.43
570.598	30840.7
570.797	30912.38
570.995	30971.77
571.193	30556.04
571.392	31045.5
571.59	30490.5
571.789	30480.26
571.987	30615.43
572.186	30324.61
572.384	30109.58
572.582	30519.17
572.781	30297.99
572.979	29861.77
573.177	30023.56
573.376	30269.32
573.574	29704.08
573.772	29849.49
573.971	29568.91
574.169	29761.42
574.367	29116.31
574.565	29394.84
574.763	29441.94
574.962	29005.72
575.16	28956.57
575.358	29196.18
575.556	28551.07
575.754	29034.39
575.952	28477.35
576.151	29040.54
576.349	28592.03
576.547	28657.57
576.745	28452.77
576.943	28856.22
577.141	28563.36
577.339	28327.85
577.537	28336.04
577.735	28372.9
577.933	27897.77
578.131	27766.7
578.329	28071.85
578.527	27977.64
578.725	27932.59
578.923	27899.82
579.121	27453.36
579.319	27545.52
579.516	27561.9
579.714	27584.43
579.912	27353.01
580.11	27371.44
580.308	27522.99
580.506	27029.43
580.704	26703.81
580.901	27078.58
581.099	26939.32
581.297	26791.87
581.495	26818.49
581.692	26724.29
581.89	26660.8
582.088	26558.4
582.285	26296.26
582.483	26593.22
582.681	26048.46
582.878	26224.58
583.076	26070.98
583.274	26214.34
583.471	26249.16
583.669	26052.55
583.866	25960.39
584.064	25915.34
584.262	25645.01
584.459	26116.04
584.657	25612.24
584.854	25825.23
585.052	25151.45
585.249	25561.04
585.447	25597.9
585.644	25294.8
585.841	25487.31
586.039	25460.69
586.236	25120.73
586.434	24963.03
586.631	24788.96
586.828	24987.61
587.026	24942.55
587.223	25116.63
587.42	24793.05
587.618	24946.65
587.815	24702.94
588.012	24588.25
588.21	24713.18
588.407	24786.91
588.604	24528.86
588.801	24307.68
588.999	24373.22
589.196	24532.96
589.393	24121.32
589.59	24233.96
589.787	24324.07
589.984	24057.83
590.182	23926.76
590.379	24496.1
590.576	23750.63
590.773	24002.54
590.97	23988.2
591.167	23945.19
591.364	23660.52
591.561	24057.83
591.758	23781.35
591.955	23930.86
592.152	23797.74
592.349	23937
592.546	23699.44
592.743	23664.62
592.94	23568.37
593.137	23607.28
593.334	23850.99
593.531	23576.56
593.727	23740.4
593.924	23820.27
594.121	23052.28
594.318	23384.05
594.515	22968.31
594.712	23668.72
594.908	23523.31
595.105	23396.34
595.302	23064.57
595.499	23277.55
595.696	23218.16
595.892	22878.2
596.089	23310.32
596.286	23463.92
596.482	23226.35
596.679	22910.97
596.876	23224.31
597.072	23089.14
597.269	23420.91
597.466	23076.85
597.662	23359.47
597.859	23169.01
598.055	23250.93
598.252	22870.01
598.448	23142.39
598.645	23031.8
598.841	23273.46
599.038	23189.49
599.234	23062.52
599.431	23083
599.627	23128.05
599.824	23308.27
600.02	23261.17
600.217	23115.76
600.413	23005.17
600.609	23396.34
600.806	23093.24
601.002	23490.54
601.198	22996.98
601.395	23322.61
601.591	23062.52
601.787	23179.25
601.984	23093.24
602.18	23601.13
602.376	23273.46
602.572	23033.85
602.769	23431.15
602.965	23533.55
603.161	23805.93
603.357	23394.29
603.553	23375.86
603.75	23793.64
603.946	23470.06
604.142	23726.06
604.338	23601.13
604.534	23771.11
604.73	23869.42
604.926	23762.92
605.122	23707.63
605.318	23863.27
605.514	23683.05
605.71	23777.26
605.906	23875.56
606.102	23674.86
606.298	24111.08
606.494	23762.92
606.69	24184.8
606.886	24141.8
607.082	23699.44
607.278	24236
607.474	23861.23
607.67	24322.02
607.866	24106.98
608.062	24336.35
608.257	24315.87
608.453	24432.61
608.649	24717.28
608.845	24315.87
609.041	24467.42
609.236	24715.23
609.432	24502.24
609.628	24827.87
609.824	24717.28
610.019	24268.77
610.215	24684.51
610.411	24766.43
610.606	24668.12
610.802	25247.7
610.998	24860.63
611.193	24842.2
611.389	24674.27
611.584	24860.63
611.78	24317.92
611.976	24698.84
612.171	25153.49
612.367	24920.03
612.562	25112.53
612.758	24739.8
612.953	24838.11
613.149	25223.12
613.344	25192.4
613.539	25313.24
613.735	25186.26
613.93	25137.11
614.126	24862.68
614.321	25432.02
614.517	25194.45
614.712	25298.9
614.907	25141.21
615.103	25110.49
615.298	25104.34
615.493	25798.6
615.688	25040.86
615.884	25579.47
616.079	24881.11
616.274	25124.82
616.47	25257.94
616.665	25296.85
616.86	25231.32
617.055	25147.35
617.25	25542.61
617.445	25415.63
617.641	25128.92
617.836	25718.73
618.031	24901.59
618.226	25604.05
618.421	24842.2
618.616	25141.21
618.811	24987.61
619.006	25606.09
619.201	24506.34
619.396	25073.62
619.591	24819.67
619.786	24891.35
619.981	24807.39
620.176	24973.27
620.371	24381.41
620.566	24680.41
620.761	24360.93
620.956	24815.58
621.151	24098.79
621.346	24350.69
621.541	24195.04
621.735	24102.89
621.93	24115.17
622.125	23881.7
622.32	23670.76
622.515	23885.8
622.709	23543.79
622.904	23691.24
623.099	23242.74
623.294	23474.16
623.488	23207.92
623.683	23478.26
623.878	23119.86
624.072	23197.68
624.267	23148.53
624.462	22980.6
624.656	22749.18
624.851	22611.96
625.046	22382.59
625.24	22632.44
625.435	22327.3
625.629	22519.81
625.824	22163.46
626.018	22208.51
626.213	21643.28
626.407	22118.4
626.602	21620.75
626.796	21549.07
626.991	21592.08
627.185	21473.29
627.38	21549.07
627.574	21225.49
627.768	21012.5
627.963	20826.14
628.157	20828.18
628.352	21039.12
628.546	20699.16
628.74	20940.82
628.935	20353.05
629.129	20451.36
629.323	20334.62
629.517	20133.92
629.712	20131.87
629.906	20244.51
630.1	20133.92
630.294	19970.08
630.489	19922.98
630.683	20195.36
630.877	19789.86
631.071	19431.47
631.265	19664.94
631.459	19318.83
631.653	19318.83
631.848	19374.13
632.042	19075.12
632.236	19030.07
632.43	18708.54
632.624	18858.04
632.818	18901.04
633.012	18411.58
633.206	18530.36
633.4	18993.2
633.594	18466.88
633.788	18169.92
633.982	18372.67
634.176	18004.03
634.369	18018.37
634.563	17690.7
634.757	17915.97
634.951	17932.36
635.145	17678.41
635.339	17672.26
635.533	17367.12
635.726	17365.07
635.92	17215.57
636.114	17346.64
636.308	17061.97
636.501	16986.19
636.695	16830.55
636.889	16779.35
637.083	16519.26
637.276	16349.28
637.47	16496.73
637.664	16459.87
637.857	16126.05
638.051	16412.76
638.244	16177.25
638.438	16140.38
638.632	16197.73
638.825	15997.03
639.019	15638.63
639.212	15640.68
639.406	15636.58
639.599	15366.25
639.793	15669.35
639.986	15241.32
640.18	15380.59
640.373	15362.15
640.567	14958.71
640.76	14936.18
640.954	14831.73
641.147	14719.09
641.34	14944.37
641.534	14624.89
641.727	14618.74
641.92	14569.59
642.114	14395.51
642.307	14463.1
642.5	14252.16
642.694	13985.92
642.887	14039.17
643.08	14157.95
643.273	13852.8
643.467	13998.21
643.66	13688.96
643.853	13478.02
644.046	13459.59
644.239	13338.76
644.432	13365.39
644.626	13205.64
644.819	13019.28
645.012	13205.64
645.205	13111.44
645.398	12961.94
645.591	12748.95
645.784	12826.77
645.977	12736.66
646.17	12693.65
646.363	12443.8
646.556	12304.54
646.749	12570.77
646.942	12470.42
647.135	12150.94
647.328	12308.63
647.521	11940
647.714	12062.88
647.907	11765.92
648.099	11808.93
648.292	11808.93
648.485	11655.33
648.678	11798.69
648.871	11636.9
649.064	11626.66
649.256	11380.9
649.449	11079.85
649.642	11311.27
649.835	11268.27
650.027	11233.45
650.22	11038.89
650.413	11225.26
650.605	10899.63
650.798	10875.06
650.991	10909.87
651.183	10963.12
651.376	10899.63
651.568	10680.5
651.761	10612.92
651.954	10625.2
652.146	10588.34
652.339	10535.09
652.531	10590.39
652.724	10361.02
652.916	10205.37
653.109	10148.03
653.301	10291.38
653.494	10258.62
653.686	9955.52
653.879	9949.37
654.071	9963.71
654.263	9834.69
654.456	9849.02
654.648	9926.85
654.84	9619.65
655.033	9785.54
655.225	9726.14
655.417	9527.49
655.61	9611.46
655.802	9580.74
655.994	9537.73
656.186	9461.96
656.379	9349.32
656.571	9310.41
656.763	9185.48
656.955	9177.29
657.148	9101.51
657.34	9068.75
657.532	9035.98
657.724	8945.87
657.916	8825.04
658.108	9038.03
658.3	8980.68
658.492	9025.74
658.684	8523.99
658.876	8538.32
659.068	8646.87
659.26	8437.97
659.452	8564.95
659.644	8409.3
659.836	8421.59
660.028	8456.4
660.22	8329.43
660.412	8284.37
660.604	8016.09
660.796	8255.7
660.988	8114.39
661.18	8147.16
661.372	7864.54
661.563	7868.64
661.755	7895.26
661.947	7991.52
662.139	7903.45
662.331	7862.49
662.522	7858.4
662.714	7604.45
662.906	7536.87
663.097	7602.4
663.289	7428.32
663.481	7518.43
663.673	7483.62
663.864	7442.66
664.056	7457
664.247	7350.5
664.439	7454.95
664.631	7463.14
664.822	7274.73
665.014	7276.77
665.205	7223.53
665.397	7074.03
665.588	7174.38
665.78	7155.94
665.971	7069.93
666.163	6953.2
666.354	6875.37
666.546	6891.76
666.737	6725.87
666.929	6760.69
667.12	6848.75
667.311	6779.12
667.503	6850.8
667.694	6715.63
667.885	6545.65
668.077	6641.9
668.268	6590.7
668.459	6572.27
668.651	6367.48
668.842	6430.96
669.033	6584.56
669.224	6514.93
669.416	6598.9
669.607	6379.76
669.798	6342.9
669.989	6461.68
670.18	6420.72
670.371	6385.91
670.563	6232.31
670.754	6260.98
670.945	6232.31
671.136	6293.75
671.327	6174.97
671.518	6091
671.709	6146.3
671.9	6097.14
672.091	6017.27
672.282	6099.19
672.473	5900.54
672.664	6084.86
672.855	6047.99
673.046	5892.35
673.237	5912.83
673.428	6000.89
673.619	5892.35
673.809	5861.63
674	5830.91
674.191	5800.19
674.382	5757.18
674.573	5777.66
674.764	5730.56
674.954	5742.85
675.145	5724.41
675.336	5771.52
675.527	5595.39
675.717	5761.28
675.908	5658.88
676.099	5589.25
676.289	5722.37
676.48	5628.16
676.671	5652.74
676.861	5695.74
677.052	5556.48
677.243	5658.88
677.433	5552.38
677.624	5517.57
677.814	5511.43
678.005	5601.54
678.195	5640.45
678.386	5572.86
678.576	5536
678.767	5546.24
678.957	5552.38
679.148	5667.07
679.338	5511.43
679.529	5587.2
679.719	5320.96
679.909	5564.67
680.1	5474.56
680.29	5507.33
680.481	5384.45
680.671	5560.58
680.861	5464.32
681.052	5515.52
681.242	5447.94
681.432	5495.04
681.622	5351.68
681.813	5452.03
682.003	5456.13
682.193	5318.92
682.383	5208.33
682.573	5310.72
682.764	5294.34
682.954	5337.35
683.144	5460.23
683.334	5495.04
683.524	5351.68
683.714	5359.88
683.904	5484.8
684.094	5243.14
684.284	5265.67
684.474	5478.66
684.664	5376.26
684.854	5363.97
685.044	5222.66
685.234	5179.65
685.424	5380.36
685.614	5187.85
685.804	5374.21
685.994	5191.94
686.184	5310.72
686.374	5269.76
686.564	5110.02
686.753	5222.66
686.943	5187.85
687.133	5056.78
687.323	5175.56
687.513	5155.08
687.702	5232.9
687.892	5122.31
688.082	5097.74
688.272	5277.96
688.461	5075.21
688.651	5130.5
688.841	5040.39
689.03	5073.16
689.22	5212.42
689.41	5030.15
689.599	5081.35
689.789	4976.91
689.979	4968.71
690.168	5093.64
690.358	5032.2
690.547	4917.51
690.737	4899.08
690.926	5191.94
691.116	4968.71
691.305	4909.32
691.495	4798.73
691.684	4833.55
691.874	4905.23
692.063	4761.87
692.252	4944.14
692.442	4888.84
692.631	4913.42
692.82	4802.83
693.01	4968.71
693.199	4794.64
693.388	4700.43
693.578	4700.43
693.767	4864.27
693.956	4813.07
694.146	4731.15
694.335	4671.76
694.524	4802.83
694.713	4802.83
694.902	4819.21
695.092	4780.3
695.281	4827.4
695.47	4643.09
695.659	4645.13
695.848	4698.38
696.037	4565.26
696.226	4647.18
696.415	4643.09
696.604	4763.92
696.793	4598.03
696.982	4704.53
697.171	4475.15
697.36	4714.77
697.549	4647.18
697.738	4569.36
697.927	4546.83
698.116	4571.41
698.305	4538.64
698.494	4649.23
698.683	4540.69
698.872	4520.21
699.061	4589.84
699.25	4399.38
699.438	4444.43
699.627	4450.58
699.816	4444.43
700.005	4493.58
700.193	4350.23
700.382	4567.31
700.571	4413.71
700.76	4528.4
700.948	4360.47
701.137	4378.9
701.326	4448.53
701.514	4200.73
701.703	4403.47
701.892	4296.98
702.08	4376.85
702.269	4299.03
702.457	4309.27
702.646	4253.97
702.834	4180.25
703.023	4344.08
703.212	4237.59
703.4	4118.81
703.589	4272.4
703.777	4321.56
703.965	4213.01
704.154	4237.59
704.342	4137.24
704.531	4043.03
704.719	4262.16
704.907	4315.41
705.096	4145.43
705.284	3993.88
705.472	3942.68
705.661	3942.68
705.849	4065.56
706.037	4071.7
706.226	3979.54
706.414	4081.94
706.602	4116.76
706.79	3991.83
706.979	3957.02
707.167	3991.83
707.355	3926.3
707.543	3873.05
707.731	3883.29
707.919	3938.59
708.107	3883.29
708.296	3877.15
708.484	3893.53
708.672	3950.87
708.86	3897.63
709.048	3803.42
709.236	3844.38
709.424	3893.53
709.612	3748.12
709.8	3860.76
709.988	3746.08
710.176	3805.47
710.364	3850.52
710.551	3737.88
710.739	3590.43
710.927	3731.74
711.115	3676.45
711.303	3807.52
711.491	3615.01
711.679	3594.53
711.866	3635.49
712.054	3617.05
712.242	3586.33
712.43	3557.66
712.617	3643.68
712.805	3475.74
712.993	3541.28
713.181	3545.38
713.368	3481.89
713.556	3617.05
713.744	3508.51
713.931	3606.81
714.119	3576.09
714.306	3549.47
714.494	3580.19
714.682	3455.26
714.869	3426.59
715.057	3483.94
715.244	3402.02
715.432	3541.28
715.619	3363.11
715.807	3326.24
715.994	3385.63
716.182	3440.93
716.369	3459.36
716.556	3520.8
716.744	3438.88
716.931	3404.07
717.119	3311.91
717.306	3447.07
717.493	3223.84
717.681	3182.88
717.868	3291.43
718.055	3123.49
718.242	3223.84
718.43	3311.91
718.617	3244.32
718.804	3197.22
718.991	3270.95
719.179	3232.04
719.366	3141.93
719.553	3209.51
719.74	3229.99
719.927	3129.64
720.114	3078.44
720.301	3129.64
720.488	3049.77
720.676	3029.29
720.863	3080.49
721.05	3076.39
721.237	3148.07
721.424	3094.82
721.611	3041.57
721.798	3010.86
721.985	2879.79
722.172	3064.1
722.358	3057.96
722.545	3189.03
722.732	2902.31
722.919	2914.6
723.106	2988.33
723.293	2959.66
723.48	3049.77
723.667	2871.59
723.853	2894.12
724.04	2984.23
724.227	3017
724.414	2857.26
724.6	2869.55
724.787	2853.16
724.974	2853.16
725.161	3002.66
725.347	2740.52
725.534	2771.24
725.72	2828.59
725.907	2750.76
726.094	2820.39
726.28	2734.38
726.467	2777.39
726.653	2767.15
726.84	2736.43
727.027	2863.4
727.213	2677.04
727.4	2812.2
727.586	2705.71
727.773	2814.25
727.959	2738.48
728.145	2779.43
728.332	2767.15
728.518	2705.71
728.705	2695.47
728.891	2662.7
729.077	2674.99
729.264	2492.72
729.45	2619.69
729.636	2697.52
729.823	2683.18
730.009	2625.84
730.195	2705.71
730.382	2808.11
730.568	2591.02
730.754	2767.15
730.94	2609.45
731.126	2668.84
731.313	2601.26
731.499	2593.07
731.685	2591.02
731.871	2656.56
732.057	2566.45
732.243	2642.22
732.429	2666.8
732.615	2552.11
732.801	2357.55
732.987	2455.86
733.173	2453.81
733.359	2595.12
733.545	2462
733.731	2455.86
733.917	2494.77
734.103	2480.43
734.289	2453.81
734.475	2400.56
734.661	2494.77
734.847	2462
735.033	2552.11
735.219	2500.91
735.404	2394.42
735.59	2361.65
735.776	2324.79
735.962	2517.29
736.148	2464.05
736.333	2447.66
736.519	2359.6
736.705	2472.24
736.89	2498.86
737.076	2292.02
737.262	2396.46
737.447	2234.68
737.633	2339.12
737.819	2369.84
738.004	2341.17
738.19	2353.46
738.375	2347.31
738.561	2349.36
738.747	2316.59
738.932	2265.39
739.118	2382.13
739.303	2158.9
739.489	2183.48
739.674	2320.69
739.859	2117.94
740.045	2339.12
740.23	2224.44
740.416	2214.2
740.601	2298.16
740.786	2109.75
740.972	2197.81
741.157	2285.87
741.342	2126.13
741.528	2085.17
741.713	2148.66
741.898	2060.6
742.084	2033.97
742.269	2132.28
742.454	2113.85
742.639	2144.56
742.824	1997.11
743.01	2117.94
743.195	2101.56
743.38	2056.5
743.565	2021.69
743.75	2083.13
743.935	2029.88
744.12	2070.84
744.305	1896.76
744.49	2013.49
744.675	2019.64
744.86	1894.71
745.045	1902.9
745.23	1919.29
745.415	2038.07
745.6	1853.75
745.785	1847.61
745.97	1927.48
746.155	2005.3
746.34	1845.56
746.525	1900.86
746.71	1931.58
746.895	1788.22
747.079	1851.71
747.264	1845.56
747.449	1874.23
747.634	1886.52
747.819	1890.62
748.003	1737.02
748.188	1788.22
748.373	1777.98
748.557	1620.28
748.742	1665.34
748.927	1706.3
749.111	1747.26
749.296	1689.92
749.481	1700.16
749.665	1601.85
749.85	1673.53
750.034	1679.68
750.219	1737.02
750.404	1591.61
750.588	1644.86
750.773	1542.46
750.957	1614.14
751.141	1499.45
751.326	1648.96
751.51	1534.27
751.695	1528.13
751.879	1616.19
752.064	1556.8
752.248	1374.53
752.432	1530.17
752.617	1478.97
752.801	1472.83
752.985	1462.59
753.17	1444.16
753.354	1448.26
753.538	1433.92
753.722	1458.5
753.907	1403.2
754.091	1421.63
754.275	1415.49
754.459	1403.2
754.643	1380.67
754.828	1337.66
755.012	1323.33
755.196	1378.62
755.38	1362.24
755.564	1354.05
755.748	1280.32
755.932	1323.33
756.116	1263.94
756.3	1296.71
756.484	1386.82
756.668	1329.47
756.852	1214.79
757.036	1188.16
757.22	1253.7
757.404	1306.95
757.588	1233.22
757.772	1239.36
757.956	1184.07
758.14	1190.21
758.323	1136.96
758.507	1282.37
758.691	1202.5
758.875	1194.31
759.059	1157.44
759.242	1206.59
759.426	1075.52
759.61	1149.25
759.794	1079.62
759.977	1085.76
760.161	1272.13
760.345	1165.64
760.528	1063.24
760.712	1182.02
760.895	1116.48
761.079	1147.2
761.263	1104.2
761.446	1042.76
761.63	1116.48
761.813	1132.87
761.997	1096
762.18	1036.61
762.364	1065.29
762.547	1042.76
762.731	1091.91
762.914	1042.76
763.098	1050.95
763.281	983.37
763.464	907.59
763.648	1014.09
763.831	1001.8
764.015	903.5
764.198	1091.91
764.381	1042.76
764.564	962.89
764.748	921.93
764.931	1022.28
765.114	977.22
765.297	907.59
765.481	938.31
765.664	989.51
765.847	903.5
766.03	948.55
766.213	907.59
766.397	928.07
766.58	864.58
766.763	999.75
766.946	985.41
767.129	956.74
767.312	903.5
767.495	903.5
767.678	960.84
767.861	930.12
768.044	799.05
768.227	862.54
768.41	911.69
768.593	897.35
768.776	815.43
768.959	993.61
769.142	911.69
769.324	887.11
769.507	866.63
769.69	854.34
769.873	885.06
770.056	938.31
770.239	842.06
770.421	870.73
770.604	895.3
770.787	862.54
770.97	897.35
771.152	760.14
771.335	747.85
771.518	772.43
771.7	827.72
771.883	883.02
772.066	823.62
772.248	766.28
772.431	878.92
772.613	797
772.796	809.29
772.978	778.57
773.161	710.99
773.343	690.51
773.526	719.18
773.708	708.94
773.891	717.13
774.073	706.89
774.256	747.85
774.438	840.01
774.621	723.27
774.803	790.86
774.985	758.09
775.168	772.43
775.35	737.61
775.532	698.7
775.715	805.19
775.897	807.24
776.079	692.55
776.261	788.81
776.444	692.55
776.626	723.27
776.808	715.08
776.99	577.87
777.173	657.74
777.355	618.83
777.537	657.74
777.719	602.44
777.901	680.27
778.083	563.53
778.265	557.39
778.447	620.88
778.629	676.17
778.811	674.12
778.993	633.16
779.175	559.44
779.357	586.06
779.539	604.49
779.721	569.68
779.903	616.78
780.085	655.69
780.267	551.24
780.449	661.84
780.631	588.11
780.812	573.77
780.994	633.16
781.176	620.88
781.358	569.68
781.54	629.07
781.721	620.88
781.903	608.59
782.085	487.76
782.267	520.53
782.448	450.89
782.63	604.49
782.812	504.14
782.993	526.67
783.175	518.48
783.357	508.24
783.538	481.61
783.72	461.13
783.901	592.2
784.083	553.29
784.264	528.72
784.446	411.98
784.627	504.14
784.809	436.56
784.99	534.86
785.172	577.87
785.353	461.13
785.535	430.41
785.716	457.04
785.897	489.81
786.079	508.24
786.26	358.74
786.441	395.6
786.623	381.26
786.804	346.45
786.985	495.95
787.167	414.03
787.348	397.65
787.529	405.84
787.71	491.85
787.891	352.59
788.073	485.71
788.254	495.95
788.435	536.91
788.616	411.98
788.797	368.98
788.978	397.65
789.159	379.22
789.34	280.91
789.522	467.28
789.703	403.79
789.884	385.36
790.065	407.89
790.246	358.74
790.427	354.64
790.607	387.41
790.788	371.02
790.969	348.5
791.15	356.69
791.331	323.92
791.512	358.74
791.693	289.1
791.874	313.68
792.054	461.13
792.235	338.26
792.416	303.44
792.597	364.88
792.778	321.87
792.958	348.5
793.139	305.49
793.32	334.16
793.5	358.74
793.681	336.21
793.862	358.74
794.042	299.34
794.223	387.41
794.404	330.06
794.584	248.15
794.765	330.06
794.945	258.39
795.126	317.78
795.306	274.77
795.487	307.54
795.667	239.95
795.848	371.02
796.028	317.78
796.209	264.53
796.389	258.39
796.57	227.67
796.75	254.29
796.93	272.72
797.111	323.92
797.291	256.34
797.471	289.1
797.652	239.95
797.832	207.19
798.012	346.45
798.192	244.05
798.373	248.15
798.553	285.01
798.733	258.39
798.913	272.72
799.093	315.73
799.274	237.91
799.454	340.3
799.634	358.74
799.814	371.02
799.994	293.2
800.174	321.87
800.354	225.62
800.534	217.43
800.714	207.19
800.894	258.39
801.074	192.85
801.254	172.37
801.434	323.92
801.614	248.15
801.794	170.32
801.974	880.97
802.154	170.32
802.334	248.15
802.514	194.9
802.693	213.33
802.873	274.77
803.053	231.76
803.233	201.04
803.413	198.99
803.592	176.47
803.772	153.94
803.952	186.71
804.131	186.71
804.311	217.43
804.491	182.61
804.67	135.51
804.85	198.99
805.03	301.39
805.209	209.23
805.389	231.76
805.568	201.04
805.748	190.8
805.928	196.95
806.107	248.15
806.287	170.32
806.466	182.61
806.646	149.84
806.825	190.8
807.004	170.32
807.184	184.66
807.363	174.42
807.543	141.65
807.722	88.4
807.901	194.9
808.081	182.61
808.26	178.51
808.439	211.28
808.619	194.9
808.798	170.32
808.977	170.32
809.156	198.99
809.336	176.47
809.515	233.81
809.694	133.46
809.873	117.08
810.052	186.71
810.231	239.95
810.411	162.13
810.59	209.23
810.769	219.47
810.948	172.37
811.127	147.8
811.306	209.23
811.485	145.75
811.664	162.13
811.843	108.88
812.022	78.16
812.201	184.66
812.38	170.32
812.559	102.74
812.737	164.18
812.916	166.23
813.095	115.03
813.274	158.03
813.453	141.65
813.632	84.31
813.811	176.47
813.989	213.33
814.168	217.43
814.347	129.36
814.526	215.38
814.704	215.38
814.883	235.86
815.062	131.41
815.24	182.61
815.419	178.51
815.598	143.7
815.776	12.63
815.955	117.08
816.133	96.6
816.312	125.27
816.49	135.51
816.669	78.16
816.847	141.65
817.026	162.13
817.204	158.03
817.383	176.47
817.561	170.32
817.74	153.94
817.918	217.43
818.097	100.69
818.275	160.08
818.453	182.61
818.632	88.4
818.81	209.23
818.988	168.27
819.167	155.99
819.345	149.84
819.523	135.51
819.701	106.84
819.879	143.7
820.058	127.32
820.236	108.88
820.414	184.66
820.592	135.51
820.77	149.84
820.948	125.27
821.127	158.03
821.305	78.16
821.483	65.88
821.661	63.83
821.839	151.89
822.017	143.7
822.195	29.01
822.373	102.74
822.551	104.79
822.729	108.88
822.907	115.03
823.085	108.88
823.262	160.08
823.44	59.73
823.618	151.89
823.796	190.8
823.974	147.8
824.152	76.12
824.329	135.51
824.507	76.12
824.685	108.88
824.863	86.36
825.04	82.26
825.218	137.56
825.396	76.12
825.574	108.88
825.751	65.88
825.929	102.74
826.107	96.6
826.284	143.7
826.462	110.93
826.639	51.54
826.817	20.82
826.994	127.32
827.172	86.36
827.349	76.12
827.527	96.6
827.704	100.69
827.882	84.31
828.059	80.21
828.237	100.69
828.414	80.21
828.591	-61.1
828.769	108.88
828.946	88.4
829.124	153.94
829.301	88.4
829.478	139.6
829.655	72.02
829.833	29.01
830.01	72.02
830.187	59.73
830.364	82.26
830.542	82.26
830.719	67.92
830.896	72.02
831.073	135.51
831.25	125.27
831.427	88.4
831.604	125.27
831.782	69.97
831.959	108.88
832.136	100.69
832.313	88.4
832.49	72.02
832.667	108.88
832.844	26.96
833.021	121.17
833.198	86.36
833.374	133.46
833.551	125.27
833.728	53.59
833.905	125.27
834.082	18.77
834.259	-22.19
834.436	104.79
834.612	47.44
834.789	78.16
834.966	65.88
835.143	47.44
835.319	35.16
835.496	102.74
835.673	149.84
835.85	145.75
836.026	86.36
836.203	37.2
836.38	43.35
836.556	2.39
836.733	35.16
836.909	69.97
837.086	78.16
837.262	84.31
837.439	84.31
837.616	84.31
837.792	149.84
837.968	69.97
838.145	2.39
838.321	47.44
838.498	59.73
838.674	117.08
838.851	72.02
839.027	18.77
839.203	35.16
839.38	76.12
839.556	-18.09
839.732	63.83
839.909	78.16
840.085	110.93
840.261	53.59
840.437	47.44
840.614	69.97
840.79	76.12
840.966	92.5
841.142	18.77
841.318	-18.09
841.494	84.31
841.671	22.87
841.847	26.96
842.023	-1.71
842.199	8.53
842.375	69.97
842.551	4.44
842.727	-116.39
842.903	84.31
843.079	98.64
843.255	84.31
843.431	76.12
843.607	65.88
843.783	-44.71
843.959	-57
844.134	22.87
844.31	72.02
844.486	84.31
844.662	47.44
844.838	29.01
845.013	-5.8
845.189	108.88
845.365	53.59
845.541	88.4
845.716	12.63
845.892	67.92
846.068	-30.38
846.244	41.3
846.419	-1.71
846.595	47.44
846.77	14.68
846.946	78.16
847.122	37.2
847.297	-63.15
847.473	117.08
847.648	119.12
847.824	51.54
847.999	4.44
848.175	14.68
848.35	67.92
848.526	110.93
848.701	102.74
848.876	-22.19
849.052	108.88
849.227	45.4
849.403	22.87
849.578	74.07
849.753	51.54
849.929	61.78
850.104	45.4
850.279	35.16
850.454	-3.75
850.63	0.34
850.805	102.74
850.98	31.06
851.155	4.44
851.33	35.16
851.505	-61.1
851.681	82.26
851.856	-38.57
852.031	67.92
852.206	74.07
852.381	39.25
852.556	76.12
852.731	88.4
852.906	78.16
853.081	59.73
853.256	88.4
853.431	33.11
853.606	-16.04
853.781	-1.71
853.956	-42.67
854.131	43.35
854.305	-9.9
854.48	29.01
854.655	35.16
854.83	-22.19
855.005	49.49
855.18	86.36
855.354	20.82
855.529	6.49
855.704	22.87
855.879	47.44
856.053	-20.14
856.228	43.35
856.403	45.4
856.577	94.55
856.752	39.25
856.926	67.92
857.101	55.64
857.276	-28.33
857.45	65.88
857.625	-63.15
857.799	-11.95
857.974	-11.95
858.148	0.34
858.323	-11.95
858.497	33.11
858.672	4.44
858.846	-28.33
859.02	67.92
859.195	20.82
859.369	37.2
859.543	14.68
859.718	102.74
859.892	59.73
860.066	31.06
860.241	-24.23
860.415	-7.85
860.589	14.68
860.763	10.58
860.938	31.06
861.112	-40.62
861.286	2.39
861.46	164.18
861.634	-16.04
861.808	100.69
861.982	-5.8
862.157	-5.8
862.331	-18.09
862.505	14.68
862.679	-18.09
862.853	22.87
863.027	-34.47
863.201	63.83
863.375	10.58
863.549	72.02
863.722	-79.53
863.896	106.84
864.07	37.2
864.244	55.64
864.418	43.35
864.592	18.77
864.766	61.78
864.939	4.44
865.113	2.39
865.287	2.39
865.461	2.39
865.634	51.54
865.808	0.34
865.982	16.73
866.156	-69.29
866.329	-34.47
866.503	-3.75
866.676	51.54
866.85	-5.8
867.024	2.39
867.197	18.77
867.371	80.21
867.544	47.44
867.718	-30.38
867.891	76.12
868.065	-46.76
868.238	72.02
868.412	31.06
868.585	22.87
868.759	4.44
868.932	-22.19
869.105	-5.8
869.279	-44.71
869.452	-7.85
869.625	63.83
869.799	29.01
869.972	2.39
870.145	53.59
870.319	0.34
870.492	43.35
870.665	-50.86
870.838	43.35
871.011	-28.33
871.185	29.01
871.358	18.77
871.531	-28.33
871.704	31.06
871.877	-18.09
872.05	39.25
872.223	35.16
872.396	55.64
872.569	51.54
872.742	-30.38
872.915	-13.99
873.088	18.77
873.261	18.77
873.434	59.73
873.607	41.3
873.78	92.5
873.953	12.63
874.126	6.49
874.299	29.01
874.471	24.92
874.644	18.77
874.817	26.96
874.99	78.16
875.163	53.59
875.335	84.31
875.508	76.12
875.681	-5.8
875.853	-11.95
876.026	-18.09
876.199	-11.95
876.371	-22.19
876.544	-18.09
876.717	20.82
876.889	-20.14
877.062	-38.57
877.234	-9.9
877.407	6.49
877.579	-30.38
877.752	-1.71
877.924	26.96
878.097	10.58
878.269	51.54
878.442	104.79
878.614	35.16
878.786	24.92
878.959	57.68
879.131	18.77
879.303	-57
879.476	18.77
879.648	65.88
879.82	-34.47
879.993	22.87
880.165	16.73
880.337	4.44
880.509	-5.8
880.681	20.82
880.854	-34.47
881.026	35.16
881.198	29.01
881.37	-9.9
881.542	-26.28
881.714	96.6
881.886	-22.19
882.058	-3.75
882.23	43.35
882.402	-22.19
882.574	18.77
882.746	67.92
882.918	35.16
883.09	43.35
883.262	12.63
883.434	-13.99
883.606	2.39
883.778	14.68
883.95	110.93
884.122	24.92
884.293	76.12
884.465	-3.75
884.637	59.73
884.809	2.39
884.98	72.02
885.152	-32.43
885.324	2.39
885.496	-40.62
885.667	18.77
885.839	37.2
886.011	-1.71
886.182	6.49
886.354	-13.99
886.525	88.4
886.697	43.35
886.869	67.92
887.04	82.26
887.212	29.01
887.383	69.97
887.555	-75.43
887.726	10.58
887.897	12.63
888.069	8.53
888.24	12.63
888.412	-46.76
888.583	-22.19
888.754	94.55
888.926	12.63
889.097	-61.1
889.268	-36.52
889.44	-67.24
889.611	-22.19
889.782	-22.19
889.953	14.68
890.125	86.36
890.296	-46.76
890.467	-13.99
890.638	35.16
890.809	-11.95
890.98	2.39
891.151	10.58
891.323	86.36
891.494	18.77
891.665	-34.47
891.836	-13.99
892.007	-34.47
892.178	26.96
892.349	-95.91
892.52	-22.19
892.691	-22.19
892.862	18.77
893.032	-50.86
893.203	-22.19
893.374	129.36
893.545	-54.95
893.716	-9.9
893.887	-46.76
894.057	24.92
894.228	14.68
894.399	-26.28
894.57	-38.57
894.74	-5.8
894.911	26.96
895.082	-11.95
895.253	-52.91
895.423	-30.38
895.594	31.06
895.764	65.88
895.935	-30.38
896.106	6.49
896.276	-5.8
896.447	-24.23
896.617	-3.75
896.788	-3.75
896.958	16.73
897.129	-13.99
897.299	14.68
897.47	22.87
897.64	43.35
897.81	-18.09
897.981	45.4
898.151	-1.71
898.322	108.88
898.492	22.87
898.662	0.34
898.832	10.58
899.003	-5.8
899.173	49.49
899.343	-3.75
899.513	-112.3
