Data from USB4F104151__172__14-32-31-239.txt Node

Date: Thu Mar 13 14:32:31 EDT 2025
User: louis
Spectrometer: USB4F10415
Trigger mode: 4
Integration Time (sec): 2.500000E-2
Scans to average: 1
Electric dark correction enabled: true
Nonlinearity correction enabled: false
Boxcar width: 0
XAxis mode: Wavelengths
Number of Pixels in Spectrum: 3648
>>>>>Begin Spectral Data<<<<<
178.204	-160.77
178.424	-160.77
178.644	-160.77
178.864	-113.66
179.084	-101.37
179.304	-13.31
179.524	-29.7
179.744	33.79
179.964	54.27
180.184	-31.74
180.404	9.22
180.624	-21.5
180.844	-25.6
181.064	-31.74
181.283	35.84
181.503	1.02
181.723	19.46
181.943	-109.57
182.163	17.41
182.383	-21.5
182.602	60.42
182.822	99.33
183.042	101.37
183.262	21.5
183.482	21.5
183.701	60.42
183.921	1.02
184.141	-5.12
184.361	48.13
184.58	19.46
184.8	119.81
185.02	25.6
185.239	117.76
185.459	74.75
185.679	31.74
185.898	17.41
186.118	44.03
186.338	3.07
186.557	13.31
186.777	25.6
186.997	48.13
187.216	19.46
187.436	91.13
187.655	-7.17
187.875	9.22
188.095	7.17
188.314	60.42
188.534	84.99
188.753	-37.89
188.973	-13.31
189.192	99.33
189.412	62.46
189.631	11.26
189.851	46.08
190.07	58.37
190.29	-9.22
190.509	-7.17
190.729	17.41
190.948	23.55
191.168	162.81
191.387	50.18
191.607	33.79
191.826	25.6
192.045	9.22
192.265	41.98
192.484	62.46
192.704	1.02
192.923	-31.74
193.142	132.09
193.362	37.89
193.581	52.22
193.8	33.79
194.02	74.75
194.239	-21.5
194.458	31.74
194.678	80.89
194.897	-39.94
195.116	66.56
195.335	33.79
195.555	50.18
195.774	13.31
195.993	66.56
196.212	13.31
196.432	-21.5
196.651	-19.46
196.87	21.5
197.089	99.33
197.308	48.13
197.528	87.04
197.747	-25.6
197.966	60.42
198.185	52.22
198.404	-23.55
198.623	52.22
198.842	58.37
199.062	68.61
199.281	17.41
199.5	-15.36
199.719	68.61
199.938	80.89
200.157	52.22
200.376	52.22
200.595	54.27
200.814	1.02
201.033	-19.46
201.252	121.85
201.471	-46.08
201.69	50.18
201.909	82.94
202.128	60.42
202.347	93.18
202.566	29.7
202.785	-13.31
203.004	33.79
203.223	82.94
203.442	5.12
203.661	25.6
203.879	-3.07
204.098	29.7
204.317	-48.13
204.536	74.75
204.755	52.22
204.974	93.18
205.193	-9.22
205.411	99.33
205.63	74.75
205.849	50.18
206.068	-15.36
206.287	-21.5
206.505	5.12
206.724	25.6
206.943	41.98
207.162	-70.65
207.381	50.18
207.599	95.23
207.818	1.02
208.037	-31.74
208.255	-13.31
208.474	-15.36
208.693	17.41
208.911	41.98
209.13	17.41
209.349	37.89
209.567	58.37
209.786	66.56
210.005	37.89
210.223	17.41
210.442	11.26
210.661	58.37
210.879	9.22
211.098	-11.26
211.316	39.94
211.535	109.57
211.753	99.33
211.972	60.42
212.191	76.8
212.409	-13.31
212.628	46.08
212.846	-39.94
213.065	132.09
213.283	41.98
213.502	41.98
213.72	62.46
213.938	11.26
214.157	17.41
214.375	35.84
214.594	27.65
214.812	54.27
215.031	17.41
215.249	7.17
215.467	46.08
215.686	19.46
215.904	107.52
216.122	25.6
216.341	13.31
216.559	66.56
216.778	33.79
216.996	107.52
217.214	82.94
217.432	-46.08
217.651	1.02
217.869	41.98
218.087	52.22
218.306	9.22
218.524	-23.55
218.742	66.56
218.96	46.08
219.179	50.18
219.397	13.31
219.615	113.66
219.833	74.75
220.051	-19.46
220.27	123.9
220.488	48.13
220.706	76.8
220.924	76.8
221.142	33.79
221.36	103.42
221.578	76.8
221.796	-5.12
222.015	50.18
222.233	46.08
222.451	78.85
222.669	82.94
222.887	27.65
223.105	-33.79
223.323	-7.17
223.541	-3.07
223.759	27.65
223.977	93.18
224.195	105.47
224.413	13.31
224.631	58.37
224.849	9.22
225.067	136.19
225.285	27.65
225.503	50.18
225.721	-44.03
225.939	17.41
226.157	68.61
226.375	62.46
226.592	-37.89
226.81	46.08
227.028	107.52
227.246	93.18
227.464	50.18
227.682	68.61
227.9	60.42
228.117	11.26
228.335	50.18
228.553	3.07
228.771	9.22
228.989	17.41
229.206	54.27
229.424	21.5
229.642	78.85
229.86	74.75
230.077	54.27
230.295	-44.03
230.513	9.22
230.731	76.8
230.948	-19.46
231.166	74.75
231.384	13.31
231.601	50.18
231.819	74.75
232.037	9.22
232.254	54.27
232.472	87.04
232.689	-5.12
232.907	39.94
233.125	9.22
233.342	-23.55
233.56	54.27
233.777	33.79
233.995	7.17
234.213	99.33
234.43	44.03
234.648	60.42
234.865	17.41
235.083	70.65
235.3	19.46
235.518	95.23
235.735	39.94
235.953	31.74
236.17	68.61
236.388	-27.65
236.605	-21.5
236.822	-5.12
237.04	41.98
237.257	62.46
237.475	29.7
237.692	23.55
237.909	68.61
238.127	-35.84
238.344	25.6
238.562	62.46
238.779	46.08
238.996	-7.17
239.214	60.42
239.431	117.76
239.648	-39.94
239.865	97.28
240.083	25.6
240.3	-7.17
240.517	39.94
240.735	25.6
240.952	115.71
241.169	101.37
241.386	27.65
241.603	17.41
241.821	52.22
242.038	74.75
242.255	44.03
242.472	3.07
242.689	82.94
242.907	84.99
243.124	87.04
243.341	33.79
243.558	35.84
243.775	-5.12
243.992	-13.31
244.209	-15.36
244.426	70.65
244.643	91.13
244.86	-23.55
245.078	41.98
245.295	-37.89
245.512	25.6
245.729	3.07
245.946	11.26
246.163	29.7
246.38	9.22
246.597	1.02
246.814	41.98
247.031	39.94
247.248	74.75
247.464	21.5
247.681	17.41
247.898	82.94
248.115	25.6
248.332	-19.46
248.549	50.18
248.766	58.37
248.983	46.08
249.2	35.84
249.417	58.37
249.633	25.6
249.85	15.36
250.067	9.22
250.284	58.37
250.501	56.32
250.717	117.76
250.934	50.18
251.151	-31.74
251.368	78.85
251.585	58.37
251.801	17.41
252.018	9.22
252.235	74.75
252.451	117.76
252.668	1.02
252.885	5.12
253.102	99.33
253.318	64.51
253.535	7.17
253.752	-13.31
253.968	78.85
254.185	54.27
254.401	15.36
254.618	44.03
254.835	54.27
255.051	76.8
255.268	25.6
255.484	21.5
255.701	50.18
255.917	11.26
256.134	-44.03
256.351	11.26
256.567	-11.26
256.784	74.75
257	58.37
257.217	46.08
257.433	99.33
257.65	17.41
257.866	46.08
258.082	37.89
258.299	11.26
258.515	29.7
258.732	27.65
258.948	-13.31
259.165	-64.51
259.381	41.98
259.597	54.27
259.814	27.65
260.03	-15.36
260.246	41.98
260.463	101.37
260.679	117.76
260.895	27.65
261.112	13.31
261.328	103.42
261.544	84.99
261.761	66.56
261.977	52.22
262.193	-3.07
262.409	58.37
262.626	66.56
262.842	66.56
263.058	17.41
263.274	87.04
263.49	21.5
263.707	56.32
263.923	52.22
264.139	-7.17
264.355	33.79
264.571	117.76
264.787	82.94
265.004	72.7
265.22	50.18
265.436	115.71
265.652	103.42
265.868	76.8
266.084	-7.17
266.3	41.98
266.516	-7.17
266.732	25.6
266.948	-56.32
267.164	82.94
267.38	70.65
267.596	39.94
267.812	46.08
268.028	74.75
268.244	11.26
268.46	50.18
268.676	-3.07
268.892	52.22
269.108	41.98
269.324	41.98
269.54	29.7
269.756	39.94
269.972	-7.17
270.188	9.22
270.403	11.26
270.619	29.7
270.835	19.46
271.051	15.36
271.267	3.07
271.483	21.5
271.698	33.79
271.914	82.94
272.13	156.67
272.346	54.27
272.562	68.61
272.777	78.85
272.993	29.7
273.209	-29.7
273.425	50.18
273.64	-31.74
273.856	111.61
274.072	66.56
274.287	-13.31
274.503	103.42
274.719	33.79
274.934	33.79
275.15	13.31
275.366	52.22
275.581	27.65
275.797	41.98
276.012	29.7
276.228	68.61
276.444	-29.7
276.659	60.42
276.875	-13.31
277.09	60.42
277.306	-23.55
277.521	66.56
277.737	78.85
277.952	50.18
278.168	62.46
278.383	44.03
278.599	62.46
278.814	121.85
279.03	-27.65
279.245	52.22
279.461	29.7
279.676	132.09
279.892	-37.89
280.107	-21.5
280.322	60.42
280.538	58.37
280.753	11.26
280.969	70.65
281.184	50.18
281.399	70.65
281.615	17.41
281.83	91.13
282.045	5.12
282.26	1.02
282.476	58.37
282.691	91.13
282.906	9.22
283.122	60.42
283.337	74.75
283.552	44.03
283.767	-3.07
283.983	-23.55
284.198	9.22
284.413	66.56
284.628	58.37
284.843	54.27
285.058	9.22
285.274	44.03
285.489	-23.55
285.704	107.52
285.919	44.03
286.134	66.56
286.349	50.18
286.564	17.41
286.779	117.76
286.995	107.52
287.21	-39.94
287.425	33.79
287.64	9.22
287.855	107.52
288.07	17.41
288.285	84.99
288.5	78.85
288.715	117.76
288.93	19.46
289.145	52.22
289.36	107.52
289.575	15.36
289.79	138.24
290.004	3.07
290.219	41.98
290.434	1.02
290.649	68.61
290.864	48.13
291.079	72.7
291.294	-7.17
291.509	87.04
291.724	33.79
291.938	-19.46
292.153	25.6
292.368	29.7
292.583	87.04
292.798	11.26
293.012	78.85
293.227	54.27
293.442	70.65
293.657	113.66
293.871	99.33
294.086	1.02
294.301	66.56
294.516	164.86
294.73	27.65
294.945	25.6
295.16	46.08
295.374	54.27
295.589	76.8
295.804	84.99
296.018	27.65
296.233	142.33
296.447	50.18
296.662	21.5
296.877	91.13
297.091	113.66
297.306	-39.94
297.52	17.41
297.735	19.46
297.949	39.94
298.164	58.37
298.378	-3.07
298.593	-7.17
298.807	-5.12
299.022	60.42
299.236	3.07
299.451	9.22
299.665	27.65
299.88	156.67
300.094	1.02
300.309	17.41
300.523	33.79
300.737	27.65
300.952	-7.17
301.166	41.98
301.381	23.55
301.595	80.89
301.809	-7.17
302.024	50.18
302.238	1.02
302.452	52.22
302.667	82.94
302.881	27.65
303.095	13.31
303.309	13.31
303.524	17.41
303.738	-15.36
303.952	46.08
304.166	35.84
304.381	9.22
304.595	1.02
304.809	60.42
305.023	25.6
305.237	23.55
305.452	82.94
305.666	74.75
305.88	115.71
306.094	70.65
306.308	103.42
306.522	123.9
306.736	99.33
306.95	21.5
307.164	41.98
307.379	7.17
307.593	91.13
307.807	-7.17
308.021	60.42
308.235	107.52
308.449	-27.65
308.663	-5.12
308.877	78.85
309.091	41.98
309.305	66.56
309.519	-13.31
309.733	99.33
309.947	-11.26
310.161	64.51
310.374	31.74
310.588	87.04
310.802	58.37
311.016	50.18
311.23	13.31
311.444	-13.31
311.658	17.41
311.872	84.99
312.085	95.23
312.299	148.48
312.513	66.56
312.727	33.79
312.941	29.7
313.154	-25.6
313.368	17.41
313.582	82.94
313.796	82.94
314.009	19.46
314.223	89.09
314.437	107.52
314.651	19.46
314.864	3.07
315.078	58.37
315.292	1.02
315.505	37.89
315.719	117.76
315.933	140.29
316.146	-46.08
316.36	25.6
316.573	44.03
316.787	48.13
317.001	58.37
317.214	-62.46
317.428	91.13
317.641	-1.02
317.855	41.98
318.068	68.61
318.282	89.09
318.495	111.61
318.709	128
318.922	-7.17
319.136	115.71
319.349	56.32
319.563	-5.12
319.776	84.99
319.99	-46.08
320.203	23.55
320.417	-62.46
320.63	66.56
320.843	17.41
321.057	56.32
321.27	29.7
321.483	39.94
321.697	60.42
321.91	31.74
322.124	95.23
322.337	33.79
322.55	35.84
322.763	66.56
322.977	44.03
323.19	17.41
323.403	35.84
323.617	41.98
323.83	29.7
324.043	-5.12
324.256	33.79
324.469	1.02
324.683	56.32
324.896	66.56
325.109	11.26
325.322	19.46
325.535	74.75
325.748	1.02
325.962	82.94
326.175	111.61
326.388	80.89
326.601	58.37
326.814	82.94
327.027	64.51
327.24	107.52
327.453	21.5
327.666	74.75
327.879	62.46
328.092	91.13
328.305	46.08
328.518	-23.55
328.731	19.46
328.944	41.98
329.157	107.52
329.37	54.27
329.583	125.95
329.796	99.33
330.009	17.41
330.222	66.56
330.435	50.18
330.648	50.18
330.861	35.84
331.073	78.85
331.286	-7.17
331.499	11.26
331.712	52.22
331.925	21.5
332.138	84.99
332.35	132.09
332.563	11.26
332.776	91.13
332.989	27.65
333.202	5.12
333.414	19.46
333.627	41.98
333.84	99.33
334.053	78.85
334.265	35.84
334.478	29.7
334.691	21.5
334.903	5.12
335.116	21.5
335.329	3.07
335.541	91.13
335.754	99.33
335.966	66.56
336.179	21.5
336.392	29.7
336.604	60.42
336.817	105.47
337.029	78.85
337.242	33.79
337.454	70.65
337.667	54.27
337.88	68.61
338.092	-13.31
338.305	132.09
338.517	33.79
338.729	62.46
338.942	99.33
339.154	27.65
339.367	-31.74
339.579	156.67
339.792	60.42
340.004	9.22
340.217	-29.7
340.429	68.61
340.641	-3.07
340.854	50.18
341.066	19.46
341.278	113.66
341.491	68.61
341.703	25.6
341.915	29.7
342.128	56.32
342.34	56.32
342.552	37.89
342.764	-15.36
342.977	56.32
343.189	60.42
343.401	123.9
343.613	-21.5
343.826	7.17
344.038	78.85
344.25	54.27
344.462	66.56
344.674	58.37
344.886	3.07
345.099	29.7
345.311	66.56
345.523	78.85
345.735	109.57
345.947	99.33
346.159	21.5
346.371	60.42
346.583	-3.07
346.795	99.33
347.007	50.18
347.219	91.13
347.431	17.41
347.643	107.52
347.855	25.6
348.067	107.52
348.279	5.12
348.491	74.75
348.703	62.46
348.915	58.37
349.127	37.89
349.339	56.32
349.551	11.26
349.763	25.6
349.975	25.6
350.187	62.46
350.399	144.38
350.61	82.94
350.822	50.18
351.034	119.81
351.246	41.98
351.458	13.31
351.669	82.94
351.881	99.33
352.093	17.41
352.305	93.18
352.517	19.46
352.728	123.9
352.94	1.02
353.152	54.27
353.363	1.02
353.575	101.37
353.787	33.79
353.999	41.98
354.21	103.42
354.422	46.08
354.633	19.46
354.845	21.5
355.057	-23.55
355.268	54.27
355.48	50.18
355.692	21.5
355.903	11.26
356.115	17.41
356.326	5.12
356.538	117.76
356.749	148.48
356.961	70.65
357.172	54.27
357.384	39.94
357.595	60.42
357.807	50.18
358.018	37.89
358.23	-3.07
358.441	128
358.653	35.84
358.864	68.61
359.075	-48.13
359.287	64.51
359.498	29.7
359.709	82.94
359.921	-13.31
360.132	74.75
360.344	62.46
360.555	-5.12
360.766	109.57
360.977	66.56
361.189	101.37
361.4	37.89
361.611	105.47
361.823	56.32
362.034	68.61
362.245	44.03
362.456	125.95
362.667	109.57
362.879	41.98
363.09	66.56
363.301	74.75
363.512	-7.17
363.723	115.71
363.935	58.37
364.146	50.18
364.357	72.7
364.568	54.27
364.779	21.5
364.99	80.89
365.201	70.65
365.412	84.99
365.623	-15.36
365.834	99.33
366.045	76.8
366.256	117.76
366.467	54.27
366.678	11.26
366.889	62.46
367.1	-7.17
367.311	91.13
367.522	29.7
367.733	-31.74
367.944	93.18
368.155	50.18
368.366	82.94
368.577	119.81
368.788	121.85
368.999	25.6
369.209	25.6
369.42	62.46
369.631	207.87
369.842	25.6
370.053	25.6
370.264	21.5
370.474	11.26
370.685	33.79
370.896	50.18
371.107	132.09
371.317	107.52
371.528	35.84
371.739	64.51
371.95	-13.31
372.16	103.42
372.371	19.46
372.582	35.84
372.792	46.08
373.003	13.31
373.214	-11.26
373.424	52.22
373.635	15.36
373.846	107.52
374.056	37.89
374.267	74.75
374.477	21.5
374.688	41.98
374.898	37.89
375.109	33.79
375.319	-11.26
375.53	117.76
375.74	128
375.951	82.94
376.161	91.13
376.372	58.37
376.582	23.55
376.793	140.29
377.003	11.26
377.214	66.56
377.424	74.75
377.635	50.18
377.845	-23.55
378.055	41.98
378.266	33.79
378.476	-3.07
378.686	5.12
378.897	111.61
379.107	93.18
379.317	35.84
379.528	5.12
379.738	41.98
379.948	46.08
380.158	97.28
380.369	78.85
380.579	111.61
380.789	-39.94
380.999	41.98
381.21	68.61
381.42	199.68
381.63	25.6
381.84	144.38
382.05	-7.17
382.261	9.22
382.471	117.76
382.681	17.41
382.891	84.99
383.101	113.66
383.311	33.79
383.521	50.18
383.731	72.7
383.941	62.46
384.151	52.22
384.361	74.75
384.571	31.74
384.781	70.65
384.991	111.61
385.201	132.09
385.411	68.61
385.621	44.03
385.831	27.65
386.041	68.61
386.251	144.38
386.461	136.19
386.671	25.6
386.881	66.56
387.091	-21.5
387.301	58.37
387.511	82.94
387.72	78.85
387.93	41.98
388.14	46.08
388.35	123.9
388.56	41.98
388.769	41.98
388.979	11.26
389.189	50.18
389.399	60.42
389.609	68.61
389.818	33.79
390.028	64.51
390.238	25.6
390.447	23.55
390.657	93.18
390.867	70.65
391.076	13.31
391.286	66.56
391.496	66.56
391.705	76.8
391.915	95.23
392.125	128
392.334	82.94
392.544	82.94
392.753	60.42
392.963	1.02
393.172	119.81
393.382	29.7
393.591	140.29
393.801	1.02
394.01	140.29
394.22	107.52
394.429	132.09
394.639	11.26
394.848	91.13
395.058	66.56
395.267	54.27
395.477	41.98
395.686	78.85
395.895	115.71
396.105	136.19
396.314	115.71
396.524	87.04
396.733	82.94
396.942	91.13
397.152	103.42
397.361	95.23
397.57	181.25
397.78	132.09
397.989	109.57
398.198	82.94
398.407	74.75
398.617	62.46
398.826	150.53
399.035	132.09
399.244	97.28
399.453	156.67
399.663	101.37
399.872	87.04
400.081	50.18
400.29	152.57
400.499	119.81
400.708	82.94
400.917	82.94
401.127	119.81
401.336	105.47
401.545	132.09
401.754	132.09
401.963	166.91
402.172	50.18
402.381	119.81
402.59	142.33
402.799	66.56
403.008	168.96
403.217	82.94
403.426	82.94
403.635	60.42
403.844	115.71
404.053	158.72
404.262	82.94
404.471	148.48
404.68	209.92
404.888	158.72
405.097	117.76
405.306	107.52
405.515	154.62
405.724	115.71
405.933	164.86
406.142	160.77
406.35	168.96
406.559	134.14
406.768	254.97
406.977	189.44
407.185	177.15
407.394	175.1
407.603	218.11
407.812	222.2
408.02	238.59
408.229	216.06
408.438	263.16
408.646	224.25
408.855	222.2
409.064	197.63
409.272	156.67
409.481	402.43
409.69	214.01
409.898	238.59
410.107	187.39
410.315	345.08
410.524	297.98
410.733	332.79
410.941	326.65
411.15	295.93
411.358	361.47
411.567	408.57
411.775	281.6
411.984	345.08
412.192	408.57
412.401	377.85
412.609	470.01
412.818	459.77
413.026	435.19
413.234	441.34
413.443	435.19
413.651	508.92
413.86	427
414.068	553.98
414.276	615.41
414.485	582.65
414.693	672.76
414.901	617.46
415.11	670.71
415.318	648.18
415.526	715.77
415.734	656.37
415.943	721.91
416.151	803.83
416.359	754.68
416.567	730.1
416.776	852.98
416.984	861.17
417.192	758.77
417.4	975.86
417.608	953.33
417.817	971.76
418.025	1156.08
418.233	1045.49
418.441	1068.02
418.649	1125.36
418.857	1111.02
419.065	1289.2
419.273	1190.89
419.481	1283.05
419.689	1324.01
419.897	1434.6
420.105	1348.59
420.313	1418.22
420.521	1567.72
420.729	1479.66
420.937	1561.58
421.145	1625.06
421.353	1590.25
421.561	1786.85
421.769	1795.04
421.977	1899.49
422.185	1911.78
422.393	2048.99
422.601	2061.28
422.809	2040.8
423.017	2075.62
423.224	2135.01
423.432	2360.28
423.64	2288.61
423.848	2552.79
424.056	2438.11
424.263	2597.85
424.471	2675.67
424.679	2647
424.887	2851.8
425.094	2903
425.302	2784.21
425.51	2870.23
425.718	3107.79
425.925	3191.76
426.133	3236.81
426.341	3437.52
426.548	3488.71
426.756	3472.33
426.964	3853.25
427.171	3793.86
427.379	3802.05
427.586	3963.84
427.794	4090.82
428.001	4410.3
428.209	4457.4
428.417	4492.22
428.624	4697.02
428.832	4746.17
429.039	4740.02
429.247	4776.89
429.454	4967.35
429.662	5469.1
429.869	4991.92
430.076	5481.39
430.284	5213.1
430.491	5546.92
430.699	5899.17
430.906	6028.2
431.114	6063.01
431.321	6169.51
431.528	6370.21
431.736	6699.93
431.943	6972.31
432.15	6730.65
432.358	6718.36
432.565	7357.33
432.772	7054.23
432.979	7459.73
433.187	7705.48
433.394	7834.5
433.601	8266.63
433.808	8078.21
434.016	8315.78
434.223	8682.36
434.43	8913.78
434.637	8993.65
434.844	9483.12
435.052	9575.28
435.259	9642.86
435.466	9685.87
435.673	9466.74
435.88	10038.12
436.087	10701.66
436.294	10726.24
436.501	10421.09
436.708	10558.3
436.915	11115.35
437.122	11680.59
437.329	11416.4
437.537	11852.62
437.743	12125
437.95	11848.52
438.157	12503.87
438.364	12821.31
438.571	13093.69
438.778	13116.22
438.985	14179.11
439.192	13624.11
439.399	14101.29
439.606	13538.1
439.813	14801.69
440.02	15442.71
440.227	15033.11
440.433	14971.68
440.64	15483.67
440.847	15278.87
441.054	15833.87
441.261	16562.95
441.467	16442.12
441.674	16853.76
441.881	17265.4
442.088	17355.51
442.294	17212.15
442.501	17525.49
442.708	18227.95
442.914	18916.06
443.121	19661.52
443.328	19260.12
443.534	20200.14
443.741	19700.44
443.948	19489.49
444.154	21181.12
444.361	21320.38
444.568	20810.43
444.774	20685.51
444.981	21115.58
445.187	21535.42
445.394	22858.4
445.6	22332.08
445.807	24371.85
446.013	23485.08
446.22	23700.12
446.426	24922.76
446.633	24986.24
446.839	25682.55
447.046	24760.97
447.252	26202.74
447.459	26212.98
447.665	25911.92
447.871	27296.35
448.078	28590.67
448.284	27077.22
448.491	27673.18
448.697	28635.72
448.903	29409.86
449.11	29207.11
449.316	28871.24
449.522	29633.08
449.728	30083.64
449.935	30622.25
450.141	30589.49
450.347	30941.74
450.553	30298.67
450.76	30775.85
450.966	31253.03
451.172	31255.08
451.378	31889.95
451.584	31011.37
451.791	31908.38
451.997	32326.16
452.203	32340.5
452.409	32377.36
452.615	32229.91
452.821	30972.46
453.027	30691.88
453.233	32602.64
453.44	31027.75
453.646	31580.7
453.852	31414.82
454.058	32023.06
454.264	30849.58
454.47	31629.85
454.676	31105.57
454.882	31853.08
455.088	29067.84
455.294	29512.25
455.5	29940.28
455.705	30177.84
455.911	29227.59
456.117	28453.45
456.323	27992.66
456.529	26712.68
456.735	27492.96
456.941	26976.87
457.147	26602.09
457.352	25670.26
457.558	25406.08
457.764	25512.57
457.97	24971.91
458.176	24531.59
458.381	24513.16
458.587	23198.37
458.793	23339.68
458.999	22381.23
459.204	23900.82
459.41	22983.33
459.616	21664.44
459.821	21437.11
460.027	21447.35
460.233	21224.12
460.438	19847.89
460.644	20157.13
460.85	19329.75
461.055	18682.59
461.261	18997.98
461.466	17406.71
461.672	17042.17
461.878	18111.21
462.083	17124.09
462.289	16335.62
462.494	16343.81
462.7	15491.86
462.905	15133.47
463.111	15487.76
463.316	15657.75
463.522	15203.1
463.727	15549.2
463.932	15610.64
464.138	15190.81
464.343	15356.69
464.549	14934.81
464.754	15289.11
464.959	15252.25
465.165	14924.57
465.37	14428.96
465.575	14322.47
465.781	14586.66
465.986	14611.23
466.191	14246.69
466.397	13937.45
466.602	13056.82
466.807	13837.1
467.012	13787.95
467.218	13554.48
467.423	13425.46
467.628	13710.13
467.833	14043.95
468.038	13513.52
468.244	13341.49
468.449	13542.19
468.654	13327.16
468.859	13042.49
469.064	13042.49
469.269	12872.51
469.474	12661.57
469.679	12731.2
469.885	12510.02
470.09	12673.85
470.295	12415.81
470.5	12297.03
470.705	12286.79
470.91	12174.15
471.115	12061.51
471.32	12141.38
471.525	12170.05
471.73	12065.61
471.935	11840.33
472.139	11377.49
472.344	11553.62
472.549	11289.43
472.754	11291.48
472.959	11246.42
473.164	10677.09
473.369	10832.73
473.574	11109.21
473.778	10765.15
473.983	10802.01
474.188	10828.63
474.393	10111.85
474.598	10437.47
474.802	10214.24
475.007	10142.57
475.212	10175.33
475.417	9653.1
475.621	9876.33
475.826	9833.32
476.031	9614.19
476.235	9399.15
476.44	9765.74
476.645	9474.93
476.849	9487.22
477.054	9413.49
477.259	9114.48
477.463	9382.77
477.668	8850.3
477.872	9104.25
478.077	8864.63
478.282	8864.63
478.486	8672.12
478.691	8479.61
478.895	8823.67
479.1	8592.25
479.304	8618.88
479.509	8524.67
479.713	8563.58
479.918	8299.39
480.122	8170.37
480.326	8307.59
480.531	8338.3
480.735	8221.57
480.94	8201.09
481.144	8391.55
481.348	8039.3
481.553	8090.5
481.757	7947.14
481.961	7957.38
482.166	7963.53
482.37	7883.66
482.574	8106.88
482.778	8014.73
482.983	8213.38
483.187	7932.81
483.391	8043.4
483.595	7871.37
483.8	7922.57
484.004	7826.31
484.208	8076.16
484.412	7959.43
484.616	8113.03
484.821	7816.07
485.025	7836.55
485.229	8002.44
485.433	7719.82
485.637	7914.38
485.841	7752.59
486.045	7947.14
486.249	7857.03
486.453	7723.91
486.657	7760.78
486.861	7766.92
487.065	7744.39
487.269	7902.09
487.473	7762.83
487.677	8053.64
487.881	8008.58
488.085	7867.27
488.289	7869.32
488.493	7930.76
488.697	8029.06
488.901	7908.23
489.105	8002.44
489.309	7773.07
489.512	8006.53
489.716	7930.76
489.92	7984.01
490.124	7824.26
490.328	8184.71
490.531	8049.54
490.735	8151.94
490.939	8074.12
491.143	8070.02
491.346	8078.21
491.55	8076.16
491.754	8180.61
491.958	8153.99
492.161	8260.48
492.365	8313.73
492.569	8065.92
492.772	8186.76
492.976	8315.78
493.18	8485.76
493.383	8285.06
493.587	8311.68
493.79	8614.78
493.994	8391.55
494.197	8350.59
494.401	8684.41
494.605	8596.35
494.808	8743.8
495.012	8711.04
495.215	8801.15
495.419	9016.18
495.622	8725.37
495.825	8995.7
496.029	9069.43
496.232	9102.2
496.436	9048.95
496.639	9452.4
496.843	9337.71
497.046	9462.64
497.249	9421.68
497.453	9614.19
497.656	9681.77
497.859	9634.67
498.063	9823.08
498.266	9945.96
498.469	9855.85
498.673	9765.74
498.876	9945.96
499.079	10421.09
499.282	10265.44
499.485	10509.15
499.689	10466.14
499.892	10640.22
500.095	10754.91
500.298	10941.27
500.501	10679.13
500.705	11129.69
500.908	11076.44
501.111	11348.82
501.314	11060.06
501.517	11543.38
501.72	11510.61
501.923	11658.06
502.126	11719.5
502.329	11826
502.532	11895.63
502.735	12256.07
502.938	12524.35
503.141	12450.63
503.344	12512.07
503.547	12606.27
503.75	12854.08
503.953	12868.41
504.156	12948.28
504.359	13132.6
504.562	13292.34
504.765	13626.16
504.968	13593.39
505.17	13626.16
505.373	13916.97
505.576	14091.05
505.779	14095.14
505.982	14582.56
506.185	14709.54
506.387	14537.51
506.59	14740.26
506.793	15147.8
506.996	14891.8
507.198	15350.55
507.401	15223.58
507.604	15397.65
507.807	15790.86
508.009	15725.33
508.212	15792.91
508.415	16085.77
508.617	16421.64
508.82	16565
509.022	16489.22
509.225	16933.63
509.428	16745.22
509.63	16982.78
509.833	17095.42
510.035	17570.55
510.238	17279.74
510.44	17662.71
510.643	17791.73
510.845	17834.74
511.048	17728.24
511.25	18281.19
511.453	18232.04
511.655	19157.72
511.858	18606.82
512.06	18916.06
512.262	18983.65
512.465	18950.88
512.667	19170.01
512.87	19555.03
513.072	19796.69
513.274	20067.02
513.477	20234.96
513.679	20210.38
513.881	20519.62
514.084	20869.83
514.286	20636.36
514.488	21332.67
514.69	21490.36
514.893	21377.72
515.095	21183.16
515.297	21643.96
515.499	21951.15
515.701	22031.02
515.904	22377.13
516.106	22377.13
516.308	22915.75
516.51	22915.75
516.712	22813.35
516.914	23294.62
517.116	23392.92
517.318	23435.93
517.52	23794.32
517.722	23562.9
517.925	24165.01
518.127	24234.64
518.329	24398.48
518.531	24580.74
518.733	25066.11
518.935	24853.12
519.136	25102.98
519.338	25397.88
519.54	25324.16
519.742	25805.43
519.944	25913.97
520.146	25950.84
520.348	26094.19
520.55	26260.08
520.752	26153.58
520.954	26378.86
521.155	26530.41
521.357	26790.5
521.559	26837.61
521.761	27126.37
521.963	27206.24
522.164	27318.88
522.366	27552.35
522.568	27755.1
522.77	27865.69
522.971	28222.03
523.173	27724.38
523.375	28095.06
523.576	28043.86
523.778	28271.18
523.98	28637.77
524.181	28205.65
524.383	28764.75
524.584	28619.34
524.786	28717.64
524.988	28811.85
525.189	29043.27
525.391	29051.46
525.592	29160
525.794	29282.88
525.995	29311.55
526.197	29239.87
526.398	29256.26
526.6	29426.24
526.801	29440.57
527.003	29993.53
527.204	29794.87
527.406	29948.47
527.607	29899.32
527.808	29872.7
528.01	29608.51
528.211	29522.49
528.412	30200.37
528.614	29893.18
528.815	30085.68
529.016	30229.04
529.218	29614.65
529.419	29856.31
529.62	29807.16
529.822	29995.57
530.023	29934.14
530.224	29766.2
530.425	30011.96
530.626	29815.35
530.828	29604.41
531.029	30446.13
531.23	29647.42
531.431	29467.2
531.632	29907.51
531.833	29805.11
532.035	30050.87
532.236	29755.96
532.437	30179.89
532.638	29798.97
532.839	29891.13
533.04	29962.81
533.241	29557.31
533.442	29997.62
533.643	29514.3
533.844	29921.85
534.045	29684.28
534.246	29424.19
534.447	29741.63
534.648	29704.76
534.849	29588.03
535.05	29153.86
535.251	29231.68
535.451	29448.77
535.652	29352.51
535.853	29104.71
536.054	29321.79
536.255	29452.86
536.456	28901.96
536.657	29508.16
536.857	29334.08
537.058	28994.12
537.259	29049.41
537.46	29241.92
537.66	29131.33
537.861	29178.43
538.062	29121.09
538.263	29071.94
538.463	28899.91
538.664	29026.89
538.865	28996.17
539.065	29321.79
539.266	28871.24
539.466	29176.39
539.667	28772.94
539.868	29100.61
540.068	28582.48
540.269	28817.99
540.469	28842.57
540.67	28729.93
540.87	28758.6
541.071	28346.96
541.271	28723.79
541.472	28809.8
541.672	28463.69
541.873	28500.56
542.073	28228.18
542.274	28777.03
542.474	28516.94
542.675	28672.59
542.875	28867.14
543.075	28418.64
543.276	28103.25
543.476	28715.59
543.676	28332.62
543.877	28215.89
544.077	28711.5
544.277	28369.49
544.478	28455.5
544.678	28598.86
544.878	28338.77
545.078	27988.56
545.279	28105.3
545.479	28535.37
545.679	28506.7
545.879	28189.27
546.079	28459.6
546.28	28660.3
546.48	28019.28
546.68	28363.34
546.88	28568.14
547.08	28473.93
547.28	28260.94
547.48	28162.64
547.68	28408.4
547.88	28101.2
548.081	28238.42
548.281	28170.83
548.481	28414.54
548.681	28310.1
548.881	28539.47
549.081	28424.78
549.28	28121.68
549.48	28949.06
549.68	27933.27
549.88	28717.64
550.08	28289.62
550.28	28504.65
550.48	28299.86
550.68	28648.01
550.88	28332.62
551.08	28533.32
551.279	28484.17
551.479	28160.59
551.679	28346.96
551.879	28680.78
552.079	28326.48
552.278	28426.83
552.478	28408.4
552.678	28295.76
552.878	28922.44
553.077	28377.68
553.277	28625.48
553.477	28879.43
553.676	28754.51
553.876	28455.5
554.076	28475.98
554.275	28566.09
554.475	28007
554.674	28637.77
554.874	28609.1
555.074	28918.34
555.273	28791.37
555.473	28306
555.672	28586.57
555.872	28774.98
556.071	28807.75
556.271	28916.29
556.47	28656.2
556.67	28605
556.869	28641.87
557.068	28807.75
557.268	28297.81
557.467	28713.55
557.667	28762.7
557.866	28914.25
558.065	28648.01
558.265	28576.33
558.464	28564.04
558.663	28926.53
558.863	28324.43
559.062	28928.58
559.261	28332.62
559.461	28971.59
559.66	28568.14
559.859	28713.55
560.058	28701.26
560.258	28547.66
560.457	28441.17
560.656	28711.5
560.855	28570.19
561.054	29026.89
561.253	28418.64
561.453	28496.46
561.652	28895.82
561.851	28658.25
562.05	28670.54
562.249	28473.93
562.448	28832.33
562.647	28303.95
562.846	28691.02
563.045	28672.59
563.244	28467.79
563.443	28662.35
563.642	28203.6
563.841	28506.7
564.04	28232.27
564.239	28680.78
564.438	28310.1
564.637	28496.46
564.836	28320.34
565.035	28318.29
565.234	28527.18
565.432	28041.81
565.631	28338.77
565.83	28349.01
566.029	28084.82
566.228	28207.7
566.427	28205.65
566.625	28099.16
566.824	27935.32
567.023	28226.13
567.222	27734.62
567.42	28179.03
567.619	27818.58
567.818	27968.09
568.016	27832.92
568.215	27968.09
568.414	27777.62
568.612	27720.28
568.811	27480.67
569.01	27714.14
569.208	27382.37
569.407	27779.67
569.605	27169.38
569.804	27560.54
570.002	27206.24
570.201	27382.37
570.4	27298.4
570.598	27146.85
570.797	26618.47
570.995	26948.2
571.193	26727.02
571.392	27120.23
571.59	26993.25
571.789	26913.38
571.987	26641
572.186	26604.14
572.384	26815.08
572.582	26983.01
572.781	26700.39
572.979	26471.02
573.177	26540.65
573.376	26356.33
573.574	26155.63
573.772	26409.58
573.971	26280.56
574.169	25983.6
574.367	25911.92
574.565	26448.49
574.763	25911.92
574.962	26016.37
575.16	25719.42
575.358	25670.26
575.556	25498.23
575.754	25625.21
575.952	25442.94
576.151	25352.83
576.349	25150.08
576.547	25264.77
576.745	25047.68
576.943	24959.62
577.141	25021.06
577.339	25053.83
577.537	24861.32
577.735	24803.97
577.933	25100.93
578.131	24791.69
578.329	24822.41
578.527	24531.59
578.725	24738.44
578.923	24568.46
579.121	24480.39
579.319	24423.05
579.516	24531.59
579.714	24375.95
579.912	24259.21
580.11	24169.1
580.308	23917.2
580.506	24273.55
580.704	23661.21
580.901	23820.95
581.099	23904.92
581.297	23489.18
581.495	23661.21
581.692	23749.27
581.89	23403.16
582.088	23929.49
582.285	23276.19
582.483	23648.92
582.681	23464.6
582.878	23446.17
583.076	23061.15
583.274	23421.59
583.471	22968.99
583.669	23220.89
583.866	23048.86
584.064	23251.61
584.262	22846.12
584.459	23126.69
584.657	22706.85
584.854	22964.9
585.052	22616.74
585.249	22721.19
585.447	22428.33
585.644	22293.16
585.841	23030.43
586.039	22622.89
586.236	22239.92
586.434	22450.86
586.631	22037.17
586.828	22180.53
587.026	22506.15
587.223	22280.88
587.42	22301.36
587.618	22180.53
587.815	21961.39
588.012	21861.04
588.21	21961.39
588.407	22155.95
588.604	21967.54
588.801	21445.3
588.999	21553.85
589.196	21699.25
589.393	21596.85
589.59	21766.84
589.787	21424.83
589.984	21322.43
590.182	21228.22
590.379	21580.47
590.576	21449.4
590.773	21048
590.97	21250.75
591.167	21291.71
591.364	21072.57
591.561	21138.11
591.758	20980.42
591.955	21064.38
592.152	21228.22
592.349	20730.56
592.546	21277.37
592.743	21224.12
592.94	20931.26
593.137	20988.61
593.334	21238.46
593.531	20826.82
593.727	20751.04
593.924	20689.6
594.121	20626.12
594.318	20757.19
594.515	20529.86
594.712	20755.14
594.908	20589.25
595.105	20456.14
595.302	20548.29
595.499	20726.47
595.696	20658.88
595.892	20574.92
596.089	20703.94
596.286	20404.94
596.482	20345.55
596.679	20503.24
596.876	20335.31
597.072	20261.58
597.269	20290.25
597.466	20191.95
597.662	20435.66
597.859	20234.96
598.055	20515.53
598.252	20284.11
598.448	20294.35
598.645	20128.46
598.841	19942.1
599.038	20392.65
599.234	20306.63
599.431	20038.35
599.627	20034.25
599.824	20402.89
600.02	20089.55
600.217	20202.19
600.413	20085.45
600.609	20073.17
600.806	20200.14
601.002	20378.31
601.198	20185.8
601.395	20105.93
601.591	19894.99
601.787	20212.43
601.984	19905.23
602.18	20271.82
602.376	19884.75
602.572	19972.82
602.769	20034.25
602.965	19827.41
603.161	19981.01
603.357	20042.45
603.553	20097.74
603.75	20224.72
603.946	19792.59
604.142	20140.75
604.338	19843.79
604.534	20177.61
604.73	19888.85
604.926	19919.57
605.122	20181.71
605.318	20003.53
605.514	19894.99
605.71	19825.36
605.906	20308.68
606.102	19940.05
606.298	20099.79
606.494	20038.35
606.69	19933.9
606.886	20161.23
607.082	20275.91
607.278	20351.69
607.474	19923.66
607.67	20388.55
607.866	20161.23
608.062	20228.81
608.257	20228.81
608.453	20247.24
608.649	20439.75
608.845	20173.52
609.041	20302.54
609.236	20341.45
609.432	20210.38
609.628	20288.2
609.824	20286.15
610.019	20400.84
610.215	20271.82
610.411	20196.04
610.606	20310.73
610.802	20228.81
610.998	20327.11
611.193	20531.91
611.389	20515.53
611.584	20441.8
611.78	20206.28
611.976	20552.39
612.171	20355.79
612.367	20660.93
612.562	20304.59
612.758	20185.8
612.953	20202.19
613.149	20699.84
613.344	20400.84
613.539	20570.82
613.735	20484.81
613.93	20644.55
614.126	20359.88
614.321	20529.86
614.517	20579.01
614.712	20554.44
614.907	20435.66
615.103	20720.32
615.298	20230.86
615.493	20705.99
615.688	20169.42
615.884	20878.02
616.079	20384.46
616.274	20587.21
616.47	20468.42
616.665	20402.89
616.86	20462.28
617.055	20374.22
617.25	20206.28
617.445	20366.03
617.641	19999.44
617.836	20466.38
618.031	19942.1
618.226	20226.76
618.421	20327.11
618.616	20374.22
618.811	19966.67
619.006	20171.47
619.201	19962.58
619.396	20130.51
619.591	19710.68
619.786	20153.04
619.981	19641.04
620.176	19856.08
620.371	19491.54
620.566	19679.96
620.761	19612.37
620.956	19874.51
621.151	19321.56
621.346	19690.2
621.541	19456.73
621.735	19251.93
621.93	19321.56
622.125	18930.4
622.32	18737.89
622.515	19321.56
622.709	18895.58
622.904	18928.35
623.099	18758.37
623.294	18832.1
623.488	18543.33
623.683	18682.59
623.878	18455.27
624.072	18625.25
624.267	18273
624.462	18330.34
624.656	18131.69
624.851	18326.25
625.046	18064.11
625.24	18113.26
625.435	17892.08
625.629	17638.13
625.824	17642.23
626.018	17738.48
626.213	17367.8
626.407	17498.87
626.602	17308.41
626.796	17261.3
626.991	17115.9
627.185	16960.25
627.38	16988.92
627.574	16984.83
627.768	17126.14
627.963	16823.04
628.157	16478.98
628.352	16663.3
628.546	16399.11
628.74	16431.88
628.935	16468.74
629.129	16454.4
629.323	16429.83
629.517	15969.04
629.712	16032.52
629.906	15966.99
630.1	15903.5
630.294	15983.37
630.489	15721.23
630.683	16132.87
630.877	15835.92
631.071	15500.05
631.265	15565.59
631.459	15188.76
631.653	15448.85
631.848	15301.4
632.042	15295.25
632.236	15104.79
632.43	14945.05
632.624	15141.66
632.818	14990.11
633.012	14738.21
633.206	14918.43
633.4	14846.75
633.594	14627.62
633.788	14740.26
633.982	14560.03
634.176	14420.77
634.369	14299.94
634.563	14340.9
634.757	14271.27
634.951	14078.76
635.145	13902.64
635.339	14058.28
635.533	13933.36
635.726	14029.61
635.92	13636.4
636.114	13779.76
636.308	13534
636.501	13744.94
636.695	13470.51
636.889	13388.6
637.083	13300.53
637.276	13452.08
637.47	13194.04
637.664	13116.22
637.857	12983.1
638.051	12993.34
638.244	12749.63
638.438	12944.19
638.632	12716.86
638.825	12542.78
639.019	12618.56
639.212	12460.87
639.406	12553.02
639.599	12464.96
639.793	12399.43
639.986	11940.68
640.18	12297.03
640.373	12292.93
640.567	11993.93
640.76	12174.15
640.954	12002.12
641.147	11727.69
641.34	11686.73
641.534	11653.97
641.727	11807.56
641.92	11537.23
642.114	11600.72
642.307	11516.75
642.5	11635.53
642.694	11125.59
642.887	11352.91
643.08	11322.2
643.273	11189.08
643.467	10969.94
643.66	11092.82
643.853	11051.86
644.046	10937.18
644.239	10961.75
644.432	10724.19
644.626	10675.04
644.819	10634.08
645.012	10695.52
645.205	10672.99
645.398	10531.68
645.591	10376.03
645.784	10247.01
645.977	10263.4
646.17	10107.75
646.363	10390.37
646.556	10107.75
646.749	10091.37
646.942	10058.6
647.135	9925.48
647.328	9890.67
647.521	9769.83
647.714	9763.69
647.907	9565.04
648.099	9677.68
648.292	9714.54
648.485	9519.98
648.678	9546.61
648.871	9454.45
649.064	9194.36
649.256	9386.86
649.449	9282.42
649.642	9313.14
649.835	9005.94
650.027	9020.28
650.22	9147.25
650.413	9042.81
650.605	8973.18
650.798	9077.62
650.991	8815.48
651.183	8948.6
651.376	8690.56
651.568	8625.02
651.761	8565.63
651.954	8745.85
652.146	8600.44
652.339	8723.32
652.531	8430.46
652.724	8487.81
652.916	8311.68
653.109	8323.97
653.301	8326.02
653.494	8323.97
653.686	8311.68
653.879	8240
654.071	8123.27
654.263	8090.5
654.456	8065.92
654.648	8010.63
654.84	7881.61
655.033	7902.09
655.225	7957.38
655.417	7828.36
655.61	7947.14
655.802	7650.19
655.994	7629.71
656.186	7611.28
656.379	7691.15
656.571	7504.78
656.763	7545.74
656.955	7461.77
657.148	7355.28
657.34	7457.68
657.532	7377.81
657.724	7402.38
657.916	7322.51
658.108	7351.18
658.3	7426.96
658.492	7234.45
658.684	7046.04
658.876	7107.48
659.068	7011.22
659.26	7029.65
659.452	7119.76
659.644	7060.37
659.836	6886.29
660.028	6949.78
660.22	6751.13
660.412	6988.69
660.604	6744.99
660.796	6747.03
660.988	6693.79
661.18	6753.18
661.372	6562.72
661.563	6435.74
661.755	6532
661.947	6701.98
662.139	6480.8
662.331	6417.31
662.522	6202.27
662.714	6366.11
662.906	6181.79
663.097	6167.46
663.289	6087.59
663.481	6284.19
663.673	6179.75
663.864	6101.92
664.056	6155.17
664.247	6167.46
664.439	5985.19
664.631	5981.09
664.822	5931.94
665.014	5854.12
665.205	5921.7
665.397	5915.56
665.588	5915.56
665.78	5682.09
665.971	5802.92
666.163	5909.41
666.354	5680.04
666.546	5751.72
666.737	5620.65
666.929	5811.11
667.12	5641.13
667.311	5684.14
667.503	5456.81
667.694	5522.35
667.885	5456.81
668.077	5491.63
668.268	5485.48
668.459	5481.39
668.651	5419.95
668.842	5141.43
669.033	5303.22
669.224	5440.43
669.416	5426.09
669.607	5133.23
669.798	5278.64
669.989	5243.82
670.18	5112.75
670.371	5172.15
670.563	5034.93
670.754	5155.76
670.945	5016.5
671.136	5108.66
671.327	5155.76
671.518	5110.71
671.709	5071.79
671.9	5202.86
672.091	5073.84
672.282	4932.53
672.473	4907.96
672.664	4926.39
672.855	4844.47
673.046	4920.24
673.237	4955.06
673.428	4953.01
673.619	4975.54
673.809	4694.97
674	4801.46
674.191	4881.33
674.382	4613.05
674.573	4711.35
674.764	4684.73
674.954	4649.91
675.145	4586.43
675.336	4641.72
675.527	4656.06
675.717	4684.73
675.908	4649.91
676.099	4508.6
676.289	4574.14
676.48	4643.77
676.671	4547.51
676.861	4529.08
677.052	4467.64
677.243	4379.58
677.433	4420.54
677.624	4592.57
677.814	4346.81
678.005	4514.75
678.195	4359.1
678.386	4393.92
678.576	4346.81
678.767	4359.1
678.957	4326.33
679.148	4481.98
679.338	4369.34
679.529	4481.98
679.719	4391.87
679.909	4426.68
680.1	4453.31
680.29	4379.58
680.481	4268.99
680.671	4215.74
680.861	4324.29
681.052	4182.98
681.242	4150.21
681.432	4424.64
681.622	4238.27
681.813	4228.03
682.003	4133.82
682.193	4191.17
682.383	4166.59
682.573	4096.96
682.764	4215.74
682.954	4219.84
683.144	4150.21
683.334	4006.85
683.524	4170.69
683.714	4170.69
683.904	4164.54
684.094	4125.63
684.284	4025.28
684.474	4144.06
684.664	4000.71
684.854	4144.06
685.044	4008.9
685.234	4109.25
685.424	3976.13
685.614	4043.71
685.804	4015.04
685.994	3904.45
686.184	4051.91
686.374	3847.11
686.564	4058.05
686.753	4072.39
686.943	3929.03
687.133	3855.3
687.323	3910.6
687.513	3855.3
687.702	3865.54
687.892	3761.09
688.082	4064.19
688.272	3859.4
688.461	3967.94
688.651	3824.58
688.841	3740.61
689.03	3826.63
689.22	3691.46
689.41	3834.82
689.599	3769.29
689.789	3763.14
689.979	3787.72
690.168	3752.9
690.358	3711.94
690.547	3691.46
690.737	3644.36
690.926	3724.23
691.116	3681.22
691.305	3666.89
691.495	3630.02
691.684	3621.83
691.874	3617.74
692.063	3519.43
692.252	3482.57
692.442	3664.84
692.631	3531.72
692.82	3498.95
693.01	3605.45
693.199	3503.05
693.388	3435.47
693.578	3621.83
693.767	3560.39
693.956	3539.91
694.146	3476.43
694.335	3527.63
694.524	3363.79
694.713	3533.77
694.902	3445.71
695.092	3384.27
695.281	3468.24
695.47	3449.8
695.659	3378.12
695.848	3300.3
696.037	3449.8
696.226	3326.93
696.415	3425.23
696.604	3402.7
696.793	3300.3
696.982	3345.36
697.171	3443.66
697.36	3326.93
697.549	3230.67
697.738	3285.97
697.927	3285.97
698.116	3312.59
698.305	3245.01
698.494	3355.6
698.683	3333.07
698.872	3247.05
699.061	3040.21
699.25	3206.1
699.438	3187.66
699.627	3183.57
699.816	3269.58
700.005	3158.99
700.193	3136.46
700.382	3210.19
700.571	3136.46
700.76	3245.01
700.948	3285.97
701.137	3052.5
701.326	3072.98
701.514	3089.36
701.703	3148.75
701.892	3025.87
702.08	3142.61
702.269	3140.56
702.457	3027.92
702.646	3025.87
702.834	3068.88
703.023	3081.17
703.212	2982.87
703.4	3058.64
703.589	3066.83
703.777	2917.33
703.965	3052.5
704.154	2941.91
704.342	2925.52
704.531	2935.76
704.719	2835.41
704.907	2835.41
705.096	2892.76
705.284	2976.72
705.472	2982.87
705.661	2962.39
705.849	2964.43
706.037	2796.5
706.226	2900.95
706.414	2796.5
706.602	2804.69
706.79	2857.94
706.979	2911.19
707.167	2915.28
707.355	2847.7
707.543	2827.22
707.731	2814.93
707.919	2831.32
708.107	2712.53
708.296	2794.45
708.484	2796.5
708.672	2843.6
708.86	2690.01
709.048	2720.73
709.236	2700.25
709.424	2653.14
709.612	2630.62
709.8	2647
709.988	2591.7
710.176	2603.99
710.364	2722.77
710.551	2710.49
710.739	2679.77
710.927	2536.41
711.115	2474.97
711.303	2681.82
711.491	2507.74
711.679	2593.75
711.866	2624.47
712.054	2558.94
712.242	2505.69
712.43	2608.09
712.617	2466.78
712.805	2483.16
712.993	2552.79
713.181	2366.43
713.368	2517.98
713.556	2591.7
713.744	2528.22
713.931	2388.96
714.119	2565.08
714.306	2511.83
714.494	2532.31
714.682	2540.51
714.869	2356.19
715.057	2515.93
715.244	2329.56
715.432	2413.53
715.619	2337.76
715.807	2372.57
715.994	2313.18
716.182	2409.44
716.369	2409.44
716.556	2345.95
716.744	2212.83
716.931	2345.95
717.119	2278.37
717.306	2360.28
717.493	2343.9
717.681	2386.91
717.868	2280.41
718.055	2264.03
718.242	2335.71
718.43	2282.46
718.617	2343.9
718.804	2261.98
718.991	2270.17
719.179	2200.54
719.366	2348
719.553	2268.13
719.74	2102.24
719.927	2290.65
720.114	2139.1
720.301	2149.34
720.488	2114.53
720.676	2237.41
720.863	2149.34
721.05	2266.08
721.237	2122.72
721.424	2233.31
721.611	2173.92
721.798	2048.99
721.985	2130.91
722.172	2087.9
722.358	2028.51
722.545	2173.92
722.732	2063.33
722.919	2094.05
723.106	2032.61
723.293	2040.8
723.48	2016.23
723.667	1999.84
723.853	2114.53
724.04	1999.84
724.227	2024.42
724.414	2044.9
724.6	1975.27
724.787	1983.46
724.974	2022.37
725.161	1962.98
725.347	2057.18
725.534	1993.7
725.72	2057.18
725.907	1975.27
726.094	2012.13
726.28	2022.37
726.467	1930.21
726.653	1932.26
726.84	1813.48
727.027	2005.99
727.213	1934.31
727.4	1823.72
727.586	1895.4
727.773	2048.99
727.959	1879.01
728.145	1954.79
728.332	1946.59
728.518	1797.09
728.705	1872.87
728.891	1897.44
729.077	1922.02
729.264	1940.45
729.45	1934.31
729.636	1860.58
729.823	1805.28
730.009	1962.98
730.195	1786.85
730.382	1811.43
730.568	1836
730.754	1803.24
730.94	1696.74
731.126	1754.09
731.313	1825.76
731.499	1727.46
731.685	1739.75
731.871	1852.39
732.057	1797.09
732.243	1766.37
732.429	1606.63
732.615	1731.56
732.801	1747.94
732.987	1807.33
733.173	1737.7
733.359	1631.21
733.545	1623.02
733.731	1719.27
733.917	1741.8
734.103	1704.93
734.289	1731.56
734.475	1723.37
734.661	1795.04
734.847	1702.89
735.033	1721.32
735.219	1670.12
735.404	1690.6
735.59	1688.55
735.776	1659.88
735.962	1633.26
736.148	1709.03
736.333	1721.32
736.519	1715.17
736.705	1616.87
736.89	1598.44
737.076	1518.57
737.262	1590.25
737.447	1633.26
737.633	1559.53
737.819	1653.73
738.004	1623.02
738.19	1618.92
738.375	1606.63
738.561	1557.48
738.747	1508.33
738.932	1534.95
739.118	1577.96
739.303	1469.42
739.489	1532.9
739.674	1573.86
739.859	1545.19
740.045	1528.81
740.23	1473.51
740.416	1381.35
740.601	1561.58
740.786	1420.27
740.972	1481.71
741.157	1481.71
741.342	1444.84
741.528	1426.41
741.713	1475.56
741.898	1477.61
742.084	1434.6
742.269	1434.6
742.454	1491.95
742.639	1410.03
742.824	1410.03
743.01	1418.22
743.195	1469.42
743.38	1436.65
743.565	1410.03
743.75	1401.83
743.935	1332.2
744.12	1387.5
744.305	1319.92
744.49	1313.77
744.675	1211.37
744.86	1211.37
745.045	1369.07
745.23	1297.39
745.415	1270.76
745.6	1442.79
745.785	1360.88
745.97	1397.74
746.155	1369.07
746.34	1274.86
746.525	1330.16
746.71	1401.83
746.895	1221.61
747.079	1242.09
747.264	1235.95
747.449	1242.09
747.634	1238
747.819	1256.43
748.003	1203.18
748.188	1194.99
748.373	1321.96
748.557	1209.33
748.742	1151.98
748.927	1174.51
749.111	1141.74
749.296	1147.89
749.481	1160.17
749.665	1166.32
749.85	1125.36
750.034	1137.65
750.219	1168.37
750.404	1156.08
750.588	1170.41
750.773	1057.78
750.957	1098.74
751.141	1115.12
751.326	1072.11
751.51	1000.43
751.695	1035.25
751.879	1125.36
752.064	1106.93
752.248	994.29
752.432	1141.74
752.617	1098.74
752.801	1004.53
752.985	1139.69
753.17	977.91
753.354	969.71
753.538	1059.82
753.722	1008.62
753.907	1037.3
754.091	953.33
754.275	1004.53
754.459	926.71
754.643	1000.43
754.828	895.99
755.012	988.14
755.196	953.33
755.38	951.28
755.564	996.34
755.748	918.51
755.932	969.71
756.116	814.07
756.3	934.9
756.484	920.56
756.668	881.65
756.852	836.6
757.036	895.99
757.22	830.45
757.404	857.07
757.588	812.02
757.772	877.55
757.956	881.65
758.14	955.38
758.323	797.68
758.507	857.07
758.691	803.83
758.875	865.27
759.059	881.65
759.242	828.4
759.426	830.45
759.61	852.98
759.794	738.29
759.977	881.65
760.161	916.47
760.345	846.84
760.528	789.49
760.712	689.14
760.895	828.4
761.079	758.77
761.263	795.64
761.446	678.9
761.63	754.68
761.813	736.24
761.997	709.62
762.18	758.77
762.364	742.39
762.547	670.71
762.731	697.33
762.914	754.68
763.098	689.14
763.281	664.57
763.464	697.33
763.648	674.81
763.831	728.05
764.015	707.57
764.198	738.29
764.381	775.16
764.564	707.57
764.748	676.85
764.931	717.81
765.114	738.29
765.297	683
765.481	721.91
765.664	660.47
765.847	654.33
766.03	711.67
766.213	644.09
766.397	664.57
766.58	683
766.763	740.34
766.946	648.18
767.129	656.37
767.312	664.57
767.495	642.04
767.678	599.03
767.861	668.66
768.044	654.33
768.227	625.65
768.41	623.61
768.593	652.28
768.776	619.51
768.959	639.99
769.142	674.81
769.324	629.75
769.507	609.27
769.69	656.37
769.873	525.3
770.056	779.25
770.239	644.09
770.421	627.7
770.604	588.79
770.787	615.41
770.97	617.46
771.152	631.8
771.335	560.12
771.518	603.13
771.7	615.41
771.883	617.46
772.066	553.98
772.248	615.41
772.431	621.56
772.613	574.46
772.796	601.08
772.978	607.22
773.161	588.79
773.343	525.3
773.526	580.6
773.708	541.69
773.891	488.44
774.073	617.46
774.256	480.25
774.438	537.59
774.621	596.98
774.803	584.7
774.985	484.34
775.168	619.51
775.35	510.97
775.532	594.93
775.715	390.14
775.897	586.74
776.079	584.7
776.261	502.78
776.444	476.15
776.626	461.82
776.808	465.91
776.99	525.3
777.173	476.15
777.355	543.74
777.537	504.82
777.719	461.82
777.901	566.26
778.083	484.34
778.265	422.91
778.447	492.54
778.629	437.24
778.811	494.58
778.993	431.1
779.175	500.73
779.357	427
779.539	406.52
779.721	449.53
779.903	488.44
780.085	429.05
780.267	443.39
780.449	373.75
780.631	445.43
780.812	377.85
780.994	402.43
781.176	449.53
781.358	386.04
781.54	361.47
781.721	435.19
781.903	369.66
782.085	443.39
782.267	371.71
782.448	412.67
782.63	355.32
782.812	377.85
782.993	437.24
783.175	345.08
783.357	398.33
783.538	369.66
783.72	320.51
783.901	347.13
784.083	455.67
784.264	379.9
784.446	314.36
784.627	318.46
784.809	433.15
784.99	320.51
785.172	363.51
785.353	361.47
785.535	345.08
785.716	340.99
785.897	388.09
786.079	379.9
786.26	349.18
786.441	406.52
786.623	377.85
786.804	283.64
786.985	359.42
787.167	377.85
787.348	314.36
787.529	340.99
787.71	367.61
787.891	259.07
788.073	244.73
788.254	246.78
788.435	302.08
788.616	254.97
788.797	273.4
788.978	244.73
789.159	222.2
789.34	310.27
789.522	287.74
789.703	330.75
789.884	189.44
790.065	222.2
790.246	322.56
790.427	179.2
790.607	275.45
790.788	263.16
790.969	291.84
791.15	218.11
791.331	252.92
791.512	295.93
791.693	193.53
791.874	265.21
792.054	361.47
792.235	332.79
792.416	254.97
792.597	199.68
792.778	334.84
792.958	273.4
793.139	269.31
793.32	238.59
793.5	257.02
793.681	230.4
793.862	181.25
794.042	283.64
794.223	205.82
794.404	216.06
794.584	177.15
794.765	238.59
794.945	209.92
795.126	273.4
795.306	222.2
795.487	218.11
795.667	271.36
795.848	166.91
796.028	259.07
796.209	148.48
796.389	257.02
796.57	156.67
796.75	201.72
796.93	246.78
797.111	150.53
797.291	209.92
797.471	257.02
797.652	291.84
797.832	164.86
798.012	222.2
798.192	140.29
798.373	224.25
798.553	150.53
798.733	271.36
798.913	173.05
799.093	238.59
799.274	199.68
799.454	177.15
799.634	193.53
799.814	214.01
799.994	209.92
800.174	193.53
800.354	181.25
800.534	138.24
800.714	214.01
800.894	230.4
801.074	128
801.254	214.01
801.434	228.35
801.614	218.11
801.794	134.14
801.974	932.85
802.154	175.1
802.334	136.19
802.514	144.38
802.693	197.63
802.873	187.39
803.053	150.53
803.233	257.02
803.413	148.48
803.592	156.67
803.772	183.29
803.952	191.49
804.131	95.23
804.311	166.91
804.491	183.29
804.67	134.14
804.85	113.66
805.03	166.91
805.209	238.59
805.389	128
805.568	175.1
805.748	189.44
805.928	205.82
806.107	224.25
806.287	119.81
806.466	148.48
806.646	226.3
806.825	183.29
807.004	152.57
807.184	177.15
807.363	121.85
807.543	164.86
807.722	107.52
807.901	171.01
808.081	156.67
808.26	17.41
808.439	177.15
808.619	148.48
808.798	70.65
808.977	125.95
809.156	158.72
809.336	154.62
809.515	164.86
809.694	25.6
809.873	216.06
810.052	138.24
810.231	164.86
810.411	134.14
810.59	115.71
810.769	64.51
810.948	93.18
811.127	44.03
811.306	130.05
811.485	142.33
811.664	134.14
811.843	101.37
812.022	101.37
812.201	115.71
812.38	189.44
812.559	111.61
812.737	152.57
812.916	142.33
813.095	72.7
813.274	99.33
813.453	177.15
813.632	205.82
813.811	166.91
813.989	107.52
814.168	148.48
814.347	46.08
814.526	87.04
814.704	150.53
814.883	115.71
815.062	56.32
815.24	91.13
815.419	58.37
815.598	191.49
815.776	29.7
815.955	156.67
816.133	119.81
816.312	132.09
816.49	121.85
816.669	99.33
816.847	64.51
817.026	113.66
817.204	72.7
817.383	60.42
817.561	93.18
817.74	107.52
817.918	74.75
818.097	41.98
818.275	58.37
818.453	164.86
818.632	111.61
818.81	117.76
818.988	181.25
819.167	58.37
819.345	74.75
819.523	25.6
819.701	64.51
819.879	115.71
820.058	89.09
820.236	128
820.414	107.52
820.592	173.05
820.77	82.94
820.948	80.89
821.127	128
821.305	117.76
821.483	99.33
821.661	93.18
821.839	181.25
822.017	76.8
822.195	35.84
822.373	125.95
822.551	76.8
822.729	91.13
822.907	84.99
823.085	111.61
823.262	23.55
823.44	91.13
823.618	142.33
823.796	91.13
823.974	41.98
824.152	142.33
824.329	64.51
824.507	101.37
824.685	175.1
824.863	95.23
825.04	74.75
825.218	115.71
825.396	93.18
825.574	54.27
825.751	13.31
825.929	140.29
826.107	-9.22
826.284	101.37
826.462	46.08
826.639	54.27
826.817	5.12
826.994	70.65
827.172	82.94
827.349	140.29
827.527	78.85
827.704	138.24
827.882	78.85
828.059	25.6
828.237	68.61
828.414	132.09
828.591	39.94
828.769	25.6
828.946	99.33
829.124	74.75
829.301	107.52
829.478	121.85
829.655	46.08
829.833	97.28
830.01	9.22
830.187	84.99
830.364	103.42
830.542	44.03
830.719	148.48
830.896	134.14
831.073	76.8
831.25	58.37
831.427	107.52
831.604	58.37
831.782	58.37
831.959	11.26
832.136	29.7
832.313	70.65
832.49	1.02
832.667	56.32
832.844	-11.26
833.021	95.23
833.198	41.98
833.374	95.23
833.551	82.94
833.728	37.89
833.905	162.81
834.082	11.26
834.259	74.75
834.436	76.8
834.612	44.03
834.789	52.22
834.966	13.31
835.143	142.33
835.319	58.37
835.496	89.09
835.673	76.8
835.85	128
836.026	54.27
836.203	68.61
836.38	58.37
836.556	11.26
836.733	-7.17
836.909	103.42
837.086	50.18
837.262	54.27
837.439	41.98
837.616	1.02
837.792	80.89
837.968	119.81
838.145	25.6
838.321	82.94
838.498	64.51
838.674	111.61
838.851	66.56
839.027	91.13
839.203	128
839.38	46.08
839.556	-3.07
839.732	107.52
839.909	11.26
840.085	58.37
840.261	15.36
840.437	74.75
840.614	37.89
840.79	132.09
840.966	142.33
841.142	19.46
841.318	-15.36
841.494	152.57
841.671	68.61
841.847	-5.12
842.023	21.5
842.199	-15.36
842.375	84.99
842.551	9.22
842.727	93.18
842.903	123.9
843.079	33.79
843.255	111.61
843.431	119.81
843.607	41.98
843.783	-9.22
843.959	41.98
844.134	25.6
844.31	123.9
844.486	21.5
844.662	-15.36
844.838	11.26
845.013	35.84
845.189	50.18
845.365	29.7
845.541	-17.41
845.716	35.84
845.892	99.33
846.068	82.94
846.244	41.98
846.419	74.75
846.595	115.71
846.77	33.79
846.946	111.61
847.122	19.46
847.297	27.65
847.473	99.33
847.648	-1.02
847.824	91.13
847.999	-48.13
848.175	58.37
848.35	11.26
848.526	11.26
848.701	66.56
848.876	29.7
849.052	29.7
849.227	31.74
849.403	-7.17
849.578	91.13
849.753	84.99
849.929	74.75
850.104	-21.5
850.279	50.18
850.454	1.02
850.63	11.26
850.805	103.42
850.98	84.99
851.155	41.98
851.33	64.51
851.505	11.26
851.681	107.52
851.856	-9.22
852.031	41.98
852.206	50.18
852.381	-58.37
852.556	19.46
852.731	125.95
852.906	50.18
853.081	93.18
853.256	-5.12
853.431	25.6
853.606	-11.26
853.781	50.18
853.956	-33.79
854.131	82.94
854.305	-54.27
854.48	-31.74
854.655	15.36
854.83	3.07
855.005	31.74
855.18	11.26
855.354	91.13
855.529	-3.07
855.704	-21.5
855.879	48.13
856.053	-5.12
856.228	41.98
856.403	19.46
856.577	95.23
856.752	-5.12
856.926	21.5
857.101	29.7
857.276	-105.47
857.45	37.89
857.625	44.03
857.799	68.61
857.974	54.27
858.148	5.12
858.323	41.98
858.497	23.55
858.672	78.85
858.846	44.03
859.02	68.61
859.195	11.26
859.369	21.5
859.543	41.98
859.718	15.36
859.892	-11.26
860.066	37.89
860.241	1.02
860.415	25.6
860.589	1.02
860.763	82.94
860.938	1.02
861.112	115.71
861.286	29.7
861.46	41.98
861.634	95.23
861.808	52.22
861.982	11.26
862.157	-23.55
862.331	-13.31
862.505	21.5
862.679	13.31
862.853	17.41
863.027	-11.26
863.201	89.09
863.375	-29.7
863.549	3.07
863.722	-50.18
863.896	142.33
864.07	9.22
864.244	1.02
864.418	17.41
864.592	44.03
864.766	-27.65
864.939	41.98
865.113	-39.94
865.287	58.37
865.461	-39.94
865.634	50.18
865.808	-9.22
865.982	-29.7
866.156	27.65
866.329	29.7
866.503	-5.12
866.676	82.94
866.85	64.51
867.024	-13.31
867.197	46.08
867.371	29.7
867.544	33.79
867.718	33.79
867.891	82.94
868.065	1.02
868.238	7.17
868.412	-3.07
868.585	9.22
868.759	7.17
868.932	-37.89
869.105	5.12
869.279	33.79
869.452	50.18
869.625	9.22
869.799	56.32
869.972	-13.31
870.145	-37.89
870.319	25.6
870.492	44.03
870.665	54.27
870.838	1.02
871.011	-58.37
871.185	-7.17
871.358	44.03
871.531	17.41
871.704	35.84
871.877	17.41
872.05	-119.81
872.223	39.94
872.396	19.46
872.569	41.98
872.742	-48.13
872.915	44.03
873.088	15.36
873.261	11.26
873.434	17.41
873.607	-50.18
873.78	17.41
873.953	-11.26
874.126	11.26
874.299	9.22
874.471	-31.74
874.644	33.79
874.817	19.46
874.99	11.26
875.163	-62.46
875.335	74.75
875.508	13.31
875.681	41.98
875.853	-3.07
876.026	56.32
876.199	68.61
876.371	15.36
876.544	35.84
876.717	13.31
876.889	9.22
877.062	-7.17
877.234	-9.22
877.407	58.37
877.579	33.79
877.752	29.7
877.924	17.41
878.097	1.02
878.269	-17.41
878.442	-7.17
878.614	91.13
878.786	62.46
878.959	-39.94
879.131	39.94
879.303	-7.17
879.476	-23.55
879.648	37.89
879.82	33.79
879.993	-15.36
880.165	-35.84
880.337	41.98
880.509	23.55
880.681	-68.61
880.854	-35.84
881.026	87.04
881.198	87.04
881.37	13.31
881.542	95.23
881.714	-23.55
881.886	-52.22
882.058	-27.65
882.23	5.12
882.402	19.46
882.574	48.13
882.746	123.9
882.918	80.89
883.09	33.79
883.262	78.85
883.434	-23.55
883.606	7.17
883.778	-54.27
883.95	66.56
884.122	56.32
884.293	5.12
884.465	52.22
884.637	17.41
884.809	-33.79
884.98	62.46
885.152	39.94
885.324	3.07
885.496	7.17
885.667	21.5
885.839	56.32
886.011	-54.27
886.182	58.37
886.354	60.42
886.525	27.65
886.697	70.65
886.869	35.84
887.04	33.79
887.212	54.27
887.383	91.13
887.555	58.37
887.726	-37.89
887.897	-37.89
888.069	29.7
888.24	41.98
888.412	50.18
888.583	25.6
888.754	-11.26
888.926	-27.65
889.097	-44.03
889.268	-23.55
889.44	31.74
889.611	25.6
889.782	21.5
889.953	33.79
890.125	33.79
890.296	-87.04
890.467	11.26
890.638	-7.17
890.809	37.89
890.98	17.41
891.151	11.26
891.323	-3.07
891.494	-39.94
891.665	-44.03
891.836	9.22
892.007	-13.31
892.178	58.37
892.349	5.12
892.52	44.03
892.691	-39.94
892.862	-15.36
893.032	-82.94
893.203	-33.79
893.374	41.98
893.545	-9.22
893.716	-31.74
893.887	84.99
894.057	31.74
894.228	27.65
894.399	52.22
894.57	9.22
894.74	-23.55
894.911	58.37
895.082	-3.07
895.253	19.46
895.423	9.22
895.594	33.79
895.764	-64.51
895.935	-31.74
896.106	11.26
896.276	15.36
896.447	-68.61
896.617	1.02
896.788	17.41
896.958	11.26
897.129	7.17
897.299	1.02
897.47	52.22
897.64	60.42
897.81	68.61
897.981	62.46
898.151	66.56
898.322	60.42
898.492	-25.6
898.662	-29.7
898.832	11.26
899.003	35.84
899.173	58.37
899.343	1.02
899.513	37.89
