Data from USB4F104151__316__14-35-08-768.txt Node

Date: Thu Mar 13 14:35:08 EDT 2025
User: louis
Spectrometer: USB4F10415
Trigger mode: 4
Integration Time (sec): 2.500000E-2
Scans to average: 1
Electric dark correction enabled: true
Nonlinearity correction enabled: false
Boxcar width: 0
XAxis mode: Wavelengths
Number of Pixels in Spectrum: 3648
>>>>>Begin Spectral Data<<<<<
178.204	-112.3
178.424	-112.3
178.644	-112.3
178.864	-190.12
179.084	-120.49
179.304	-79.53
179.524	-22.19
179.744	-7.85
179.964	41.3
180.184	-30.38
180.404	6.49
180.624	35.16
180.844	-48.81
181.064	-16.04
181.283	10.58
181.503	14.68
181.723	96.6
181.943	-54.95
182.163	110.93
182.383	-3.75
182.602	76.12
182.822	82.26
183.042	61.78
183.262	51.54
183.482	37.2
183.701	94.55
183.921	20.82
184.141	0.34
184.361	43.35
184.58	-13.99
184.8	43.35
185.02	104.79
185.239	78.16
185.459	63.83
185.679	67.92
185.898	2.39
186.118	143.7
186.338	102.74
186.557	35.16
186.777	69.97
186.997	39.25
187.216	-1.71
187.436	141.65
187.655	76.12
187.875	88.4
188.095	16.73
188.314	55.64
188.534	47.44
188.753	18.77
188.973	29.01
189.192	51.54
189.412	4.44
189.631	72.02
189.851	-52.91
190.07	94.55
190.29	2.39
190.509	59.73
190.729	16.73
190.948	94.55
191.168	233.81
191.387	129.36
191.607	35.16
191.826	125.27
192.045	12.63
192.265	14.68
192.484	69.97
192.704	67.92
192.923	14.68
193.142	127.32
193.362	59.73
193.581	53.59
193.8	59.73
194.02	51.54
194.239	94.55
194.458	20.82
194.678	35.16
194.897	-13.99
195.116	43.35
195.335	72.02
195.555	-26.28
195.774	6.49
195.993	-26.28
196.212	51.54
196.432	37.2
196.651	-13.99
196.87	63.83
197.089	86.36
197.308	55.64
197.528	63.83
197.747	26.96
197.966	20.82
198.185	72.02
198.404	45.4
198.623	86.36
198.842	18.77
199.062	14.68
199.281	88.4
199.5	-7.85
199.719	74.07
199.938	-26.28
200.157	20.82
200.376	102.74
200.595	59.73
200.814	29.01
201.033	61.78
201.252	102.74
201.471	59.73
201.69	108.88
201.909	78.16
202.128	119.12
202.347	100.69
202.566	35.16
202.785	59.73
203.004	-18.09
203.223	108.88
203.442	47.44
203.661	26.96
203.879	39.25
204.098	55.64
204.317	43.35
204.536	10.58
204.755	86.36
204.974	76.12
205.193	110.93
205.411	127.32
205.63	84.31
205.849	10.58
206.068	51.54
206.287	31.06
206.505	86.36
206.724	22.87
206.943	-61.1
207.162	-13.99
207.381	-1.71
207.599	10.58
207.818	10.58
208.037	26.96
208.255	-3.75
208.474	76.12
208.693	43.35
208.911	94.55
209.13	59.73
209.349	51.54
209.567	45.4
209.786	102.74
210.005	84.31
210.223	45.4
210.442	20.82
210.661	133.46
210.879	88.4
211.098	59.73
211.316	47.44
211.535	129.36
211.753	149.84
211.972	78.16
212.191	26.96
212.409	39.25
212.628	88.4
212.846	-9.9
213.065	24.92
213.283	186.71
213.502	29.01
213.72	-1.71
213.938	55.64
214.157	59.73
214.375	108.88
214.594	10.58
214.812	59.73
215.031	-5.8
215.249	84.31
215.467	22.87
215.686	-11.95
215.904	-30.38
216.122	16.73
216.341	31.06
216.559	8.53
216.778	45.4
216.996	76.12
217.214	65.88
217.432	55.64
217.651	20.82
217.869	-9.9
218.087	22.87
218.306	14.68
218.524	18.77
218.742	35.16
218.96	29.01
219.179	86.36
219.397	102.74
219.615	94.55
219.833	84.31
220.051	22.87
220.27	84.31
220.488	2.39
220.706	133.46
220.924	-26.28
221.142	92.5
221.36	10.58
221.578	43.35
221.796	96.6
222.015	26.96
222.233	47.44
222.451	67.92
222.669	43.35
222.887	117.08
223.105	37.2
223.323	-13.99
223.541	-1.71
223.759	24.92
223.977	41.3
224.195	96.6
224.413	67.92
224.631	104.79
224.849	51.54
225.067	125.27
225.285	-24.23
225.503	18.77
225.721	-38.57
225.939	155.99
226.157	43.35
226.375	133.46
226.592	78.16
226.81	45.4
227.028	47.44
227.246	43.35
227.464	86.36
227.682	43.35
227.9	84.31
228.117	51.54
228.335	100.69
228.553	94.55
228.771	39.25
228.989	121.17
229.206	67.92
229.424	102.74
229.642	55.64
229.86	78.16
230.077	86.36
230.295	102.74
230.513	112.98
230.731	37.2
230.948	80.21
231.166	110.93
231.384	69.97
231.601	-44.71
231.819	166.23
232.037	37.2
232.254	31.06
232.472	57.68
232.689	35.16
232.907	76.12
233.125	-22.19
233.342	12.63
233.56	55.64
233.777	4.44
233.995	29.01
234.213	-28.33
234.43	-11.95
234.648	-13.99
234.865	53.59
235.083	59.73
235.3	51.54
235.518	86.36
235.735	119.12
235.953	53.59
236.17	35.16
236.388	18.77
236.605	29.01
236.822	125.27
237.04	78.16
237.257	49.49
237.475	-7.85
237.692	67.92
237.909	26.96
238.127	-13.99
238.344	43.35
238.562	78.16
238.779	-38.57
238.996	53.59
239.214	26.96
239.431	51.54
239.648	22.87
239.865	35.16
240.083	125.27
240.3	-11.95
240.517	4.44
240.735	18.77
240.952	65.88
241.169	59.73
241.386	76.12
241.603	-7.85
241.821	-38.57
242.038	151.89
242.255	82.26
242.472	29.01
242.689	10.58
242.907	51.54
243.124	61.78
243.341	51.54
243.558	100.69
243.775	-11.95
243.992	67.92
244.209	29.01
244.426	155.99
244.643	59.73
244.86	72.02
245.078	76.12
245.295	12.63
245.512	57.68
245.729	8.53
245.946	47.44
246.163	-22.19
246.38	43.35
246.597	20.82
246.814	76.12
247.031	53.59
247.248	96.6
247.464	43.35
247.681	88.4
247.898	37.2
248.115	76.12
248.332	29.01
248.549	53.59
248.766	63.83
248.983	125.27
249.2	24.92
249.417	18.77
249.633	29.01
249.85	110.93
250.067	-20.14
250.284	43.35
250.501	39.25
250.717	94.55
250.934	61.78
251.151	-30.38
251.368	-3.75
251.585	117.08
251.801	37.2
252.018	108.88
252.235	63.83
252.451	-13.99
252.668	18.77
252.885	133.46
253.102	14.68
253.318	31.06
253.535	26.96
253.752	10.58
253.968	-13.99
254.185	22.87
254.401	84.31
254.618	45.4
254.835	-1.71
255.051	110.93
255.268	53.59
255.484	88.4
255.701	51.54
255.917	69.97
256.134	2.39
256.351	63.83
256.567	-7.85
256.784	84.31
257	-36.52
257.217	67.92
257.433	92.5
257.65	100.69
257.866	59.73
258.082	41.3
258.299	94.55
258.515	80.21
258.732	37.2
258.948	-18.09
259.165	35.16
259.381	26.96
259.597	26.96
259.814	59.73
260.03	106.84
260.246	14.68
260.463	53.59
260.679	149.84
260.895	41.3
261.112	31.06
261.328	51.54
261.544	51.54
261.761	133.46
261.977	29.01
262.193	51.54
262.409	80.21
262.626	78.16
262.842	78.16
263.058	47.44
263.274	78.16
263.49	2.39
263.707	67.92
263.923	49.49
264.139	14.68
264.355	6.49
264.571	86.36
264.787	6.49
265.004	108.88
265.22	92.5
265.436	37.2
265.652	57.68
265.868	51.54
266.084	35.16
266.3	26.96
266.516	57.68
266.732	-1.71
266.948	37.2
267.164	67.92
267.38	55.64
267.596	35.16
267.812	100.69
268.028	67.92
268.244	-28.33
268.46	61.78
268.676	80.21
268.892	-5.8
269.108	35.16
269.324	69.97
269.54	51.54
269.756	74.07
269.972	43.35
270.188	10.58
270.403	80.21
270.619	84.31
270.835	125.27
271.051	26.96
271.267	-26.28
271.483	22.87
271.698	14.68
271.914	31.06
272.13	-5.8
272.346	35.16
272.562	112.98
272.777	84.31
272.993	67.92
273.209	43.35
273.425	10.58
273.64	45.4
273.856	55.64
274.072	12.63
274.287	8.53
274.503	63.83
274.719	100.69
274.934	53.59
275.15	45.4
275.366	86.36
275.581	35.16
275.797	51.54
276.012	112.98
276.228	59.73
276.444	2.39
276.659	74.07
276.875	88.4
277.09	43.35
277.306	47.44
277.521	20.82
277.737	-52.91
277.952	49.49
278.168	59.73
278.383	39.25
278.599	78.16
278.814	90.45
279.03	65.88
279.245	80.21
279.461	67.92
279.676	37.2
279.892	-3.75
280.107	-28.33
280.322	4.44
280.538	51.54
280.753	-9.9
280.969	37.2
281.184	18.77
281.399	37.2
281.615	35.16
281.83	51.54
282.045	20.82
282.26	14.68
282.476	-1.71
282.691	76.12
282.906	43.35
283.122	69.97
283.337	22.87
283.552	47.44
283.767	20.82
283.983	76.12
284.198	33.11
284.413	49.49
284.628	-26.28
284.843	16.73
285.058	53.59
285.274	76.12
285.489	10.58
285.704	49.49
285.919	-3.75
286.134	26.96
286.349	35.16
286.564	-5.8
286.779	53.59
286.995	82.26
287.21	6.49
287.425	78.16
287.64	-16.04
287.855	-1.71
288.07	24.92
288.285	69.97
288.5	112.98
288.715	110.93
288.93	31.06
289.145	84.31
289.36	80.21
289.575	10.58
289.79	102.74
290.004	-13.99
290.219	94.55
290.434	61.78
290.649	14.68
290.864	29.01
291.079	35.16
291.294	39.25
291.509	10.58
291.724	67.92
291.938	-30.38
292.153	26.96
292.368	0.34
292.583	96.6
292.798	53.59
293.012	49.49
293.227	80.21
293.442	96.6
293.657	31.06
293.871	121.17
294.086	24.92
294.301	82.26
294.516	78.16
294.73	37.2
294.945	-22.19
295.16	82.26
295.374	55.64
295.589	78.16
295.804	-11.95
296.018	18.77
296.233	22.87
296.447	18.77
296.662	-32.43
296.877	117.08
297.091	47.44
297.306	78.16
297.52	39.25
297.735	59.73
297.949	47.44
298.164	-22.19
298.378	-3.75
298.593	-20.14
298.807	14.68
299.022	26.96
299.236	92.5
299.451	37.2
299.665	-1.71
299.88	65.88
300.094	55.64
300.309	10.58
300.523	10.58
300.737	-11.95
300.952	102.74
301.166	129.36
301.381	-5.8
301.595	35.16
301.809	69.97
302.024	26.96
302.238	47.44
302.452	51.54
302.667	31.06
302.881	59.73
303.095	117.08
303.309	55.64
303.524	14.68
303.738	61.78
303.952	-1.71
304.166	2.39
304.381	-44.71
304.595	149.84
304.809	26.96
305.023	76.12
305.237	-50.86
305.452	41.3
305.666	78.16
305.88	104.79
306.094	2.39
306.308	61.78
306.522	16.73
306.736	80.21
306.95	127.32
307.164	18.77
307.379	92.5
307.593	135.51
307.807	86.36
308.021	82.26
308.235	92.5
308.449	10.58
308.663	51.54
308.877	67.92
309.091	18.77
309.305	51.54
309.519	-40.62
309.733	92.5
309.947	-18.09
310.161	96.6
310.374	98.64
310.588	86.36
310.802	-9.9
311.016	12.63
311.23	-13.99
311.444	8.53
311.658	78.16
311.872	53.59
312.085	90.45
312.299	59.73
312.513	43.35
312.727	43.35
312.941	55.64
313.154	31.06
313.368	10.58
313.582	76.12
313.796	61.78
314.009	78.16
314.223	78.16
314.437	69.97
314.651	106.84
314.864	22.87
315.078	39.25
315.292	67.92
315.505	2.39
315.719	-1.71
315.933	-5.8
316.146	86.36
316.36	2.39
316.573	143.7
316.787	65.88
317.001	63.83
317.214	-30.38
317.428	84.31
317.641	43.35
317.855	2.39
318.068	33.11
318.282	61.78
318.495	61.78
318.709	119.12
318.922	31.06
319.136	110.93
319.349	125.27
319.563	31.06
319.776	82.26
319.99	-5.8
320.203	18.77
320.417	86.36
320.63	35.16
320.843	78.16
321.057	110.93
321.27	14.68
321.483	51.54
321.697	76.12
321.91	22.87
322.124	47.44
322.337	90.45
322.55	26.96
322.763	26.96
322.977	61.78
323.19	39.25
323.403	61.78
323.617	100.69
323.83	65.88
324.043	74.07
324.256	69.97
324.469	-5.8
324.683	92.5
324.896	4.44
325.109	76.12
325.322	10.58
325.535	67.92
325.748	33.11
325.962	-13.99
326.175	55.64
326.388	119.12
326.601	88.4
326.814	100.69
327.027	20.82
327.24	149.84
327.453	-75.43
327.666	69.97
327.879	102.74
328.092	84.31
328.305	137.56
328.518	-5.8
328.731	-48.81
328.944	90.45
329.157	135.51
329.37	18.77
329.583	166.23
329.796	76.12
330.009	26.96
330.222	31.06
330.435	26.96
330.648	43.35
330.861	8.53
331.073	131.41
331.286	104.79
331.499	59.73
331.712	69.97
331.925	59.73
332.138	53.59
332.35	31.06
332.563	-38.57
332.776	102.74
332.989	-32.43
333.202	59.73
333.414	84.31
333.627	67.92
333.84	20.82
334.053	102.74
334.265	6.49
334.478	53.59
334.691	53.59
334.903	59.73
335.116	-7.85
335.329	141.65
335.541	67.92
335.754	155.99
335.966	-1.71
336.179	29.01
336.392	45.4
336.604	8.53
336.817	112.98
337.029	133.46
337.242	39.25
337.454	96.6
337.667	55.64
337.88	80.21
338.092	108.88
338.305	82.26
338.517	31.06
338.729	92.5
338.942	47.44
339.154	43.35
339.367	-20.14
339.579	76.12
339.792	76.12
340.004	18.77
340.217	51.54
340.429	53.59
340.641	-20.14
340.854	18.77
341.066	24.92
341.278	59.73
341.491	22.87
341.703	37.2
341.915	37.2
342.128	92.5
342.34	-3.75
342.552	-20.14
342.764	94.55
342.977	55.64
343.189	78.16
343.401	51.54
343.613	43.35
343.826	6.49
344.038	84.31
344.25	29.01
344.462	22.87
344.674	80.21
344.886	4.44
345.099	-32.43
345.311	45.4
345.523	-22.19
345.735	53.59
345.947	76.12
346.159	8.53
346.371	51.54
346.583	94.55
346.795	135.51
347.007	29.01
347.219	43.35
347.431	6.49
347.643	76.12
347.855	14.68
348.067	6.49
348.279	37.2
348.491	35.16
348.703	141.65
348.915	98.64
349.127	90.45
349.339	59.73
349.551	20.82
349.763	84.31
349.975	76.12
350.187	65.88
350.399	84.31
350.61	110.93
350.822	106.84
351.034	67.92
351.246	18.77
351.458	90.45
351.669	31.06
351.881	53.59
352.093	22.87
352.305	67.92
352.517	59.73
352.728	24.92
352.94	29.01
353.152	115.03
353.363	96.6
353.575	63.83
353.787	110.93
353.999	-22.19
354.21	47.44
354.422	72.02
354.633	84.31
354.845	35.16
355.057	26.96
355.268	63.83
355.48	63.83
355.692	29.01
355.903	94.55
356.115	69.97
356.326	0.34
356.538	88.4
356.749	88.4
356.961	119.12
357.172	35.16
357.384	43.35
357.595	133.46
357.807	51.54
358.018	45.4
358.23	92.5
358.441	61.78
358.653	100.69
358.864	43.35
359.075	59.73
359.287	127.32
359.498	78.16
359.709	18.77
359.921	86.36
360.132	90.45
360.344	119.12
360.555	43.35
360.766	158.03
360.977	49.49
361.189	135.51
361.4	51.54
361.611	78.16
361.823	84.31
362.034	119.12
362.245	-1.71
362.456	12.63
362.667	29.01
362.879	-1.71
363.09	47.44
363.301	119.12
363.512	51.54
363.723	29.01
363.935	6.49
364.146	117.08
364.357	59.73
364.568	92.5
364.779	12.63
364.99	55.64
365.201	26.96
365.412	51.54
365.623	35.16
365.834	59.73
366.045	33.11
366.256	61.78
366.467	-28.33
366.678	92.5
366.889	94.55
367.1	53.59
367.311	57.68
367.522	29.01
367.733	61.78
367.944	39.25
368.155	39.25
368.366	127.32
368.577	108.88
368.788	43.35
368.999	69.97
369.209	100.69
369.42	184.66
369.631	151.89
369.842	74.07
370.053	96.6
370.264	47.44
370.474	20.82
370.685	78.16
370.896	80.21
371.107	82.26
371.317	80.21
371.528	96.6
371.739	123.22
371.95	69.97
372.16	117.08
372.371	-9.9
372.582	76.12
372.792	18.77
373.003	117.08
373.214	94.55
373.424	119.12
373.635	104.79
373.846	104.79
374.056	59.73
374.267	100.69
374.477	84.31
374.688	35.16
374.898	29.01
375.109	61.78
375.319	47.44
375.53	80.21
375.74	117.08
375.951	94.55
376.161	119.12
376.372	133.46
376.582	-5.8
376.793	133.46
377.003	67.92
377.214	-13.99
377.424	67.92
377.635	80.21
377.845	0.34
378.055	100.69
378.266	26.96
378.476	45.4
378.686	94.55
378.897	96.6
379.107	125.27
379.317	180.56
379.528	84.31
379.738	117.08
379.948	59.73
380.158	104.79
380.369	22.87
380.579	67.92
380.789	-20.14
380.999	76.12
381.21	84.31
381.42	76.12
381.63	153.94
381.84	26.96
382.05	145.75
382.261	59.73
382.471	158.03
382.681	137.56
382.891	129.36
383.101	135.51
383.311	67.92
383.521	121.17
383.731	102.74
383.941	143.7
384.151	35.16
384.361	35.16
384.571	125.27
384.781	72.02
384.991	110.93
385.201	149.84
385.411	16.73
385.621	149.84
385.831	-36.52
386.041	43.35
386.251	4.44
386.461	141.65
386.671	22.87
386.881	153.94
387.091	72.02
387.301	63.83
387.511	31.06
387.72	100.69
387.93	125.27
388.14	45.4
388.35	59.73
388.56	76.12
388.769	76.12
388.979	67.92
389.189	8.53
389.399	31.06
389.609	59.73
389.818	59.73
390.028	84.31
390.238	86.36
390.447	92.5
390.657	96.6
390.867	92.5
391.076	2.39
391.286	88.4
391.496	76.12
391.705	49.49
391.915	110.93
392.125	96.6
392.334	125.27
392.544	121.17
392.753	133.46
392.963	117.08
393.172	100.69
393.382	-11.95
393.591	141.65
393.801	16.73
394.01	166.23
394.22	96.6
394.429	153.94
394.639	104.79
394.848	117.08
395.058	115.03
395.267	76.12
395.477	125.27
395.686	29.01
395.895	170.32
396.105	117.08
396.314	92.5
396.524	112.98
396.733	39.25
396.942	119.12
397.152	207.19
397.361	149.84
397.57	178.51
397.78	166.23
397.989	129.36
398.198	176.47
398.407	125.27
398.617	143.7
398.826	110.93
399.035	37.2
399.244	102.74
399.453	176.47
399.663	162.13
399.872	158.03
400.081	26.96
400.29	158.03
400.499	100.69
400.708	166.23
400.917	178.51
401.127	143.7
401.336	125.27
401.545	100.69
401.754	117.08
401.963	219.47
402.172	149.84
402.381	168.27
402.59	158.03
402.799	92.5
403.008	239.95
403.217	221.52
403.426	125.27
403.635	196.95
403.844	151.89
404.053	108.88
404.262	117.08
404.471	227.67
404.68	209.23
404.888	137.56
405.097	213.33
405.306	80.21
405.515	184.66
405.724	135.51
405.933	182.61
406.142	233.81
406.35	213.33
406.559	205.14
406.768	192.85
406.977	289.1
407.185	170.32
407.394	184.66
407.603	211.28
407.812	215.38
408.02	311.63
408.229	252.24
408.438	315.73
408.646	246.1
408.855	280.91
409.064	282.96
409.272	270.67
409.481	371.02
409.69	254.29
409.898	278.87
410.107	360.78
410.315	328.02
410.524	289.1
410.733	436.56
410.941	338.26
411.15	500.05
411.358	358.74
411.567	436.56
411.775	465.23
411.984	444.75
412.192	577.87
412.401	536.91
412.609	565.58
412.818	577.87
413.026	586.06
413.234	508.24
413.443	536.91
413.651	608.59
413.86	665.93
414.068	674.12
414.276	719.18
414.485	698.7
414.693	770.38
414.901	768.33
415.11	762.19
415.318	760.14
415.526	821.58
415.734	889.16
415.943	874.82
416.151	928.07
416.359	919.88
416.567	883.02
416.776	1026.37
416.984	1012.04
417.192	1091.91
417.4	1085.76
417.608	1100.1
417.817	1096
418.025	1237.31
418.233	1280.32
418.441	1186.12
418.649	1251.65
418.857	1374.53
419.065	1558.85
419.273	1411.39
419.481	1462.59
419.689	1452.35
419.897	1702.2
420.105	1538.37
420.313	1724.73
420.521	1808.7
420.729	1790.27
420.937	1732.92
421.145	1919.29
421.353	1984.82
421.561	2152.76
421.769	2163
421.977	2208.05
422.185	2255.15
422.393	2320.69
422.601	2462
422.809	2519.34
423.017	2550.06
423.224	2513.2
423.432	2740.52
423.64	2793.77
423.848	2914.6
424.056	2812.2
424.263	3221.8
424.471	3082.53
424.679	3078.44
424.887	3350.82
425.094	3377.44
425.302	3369.25
425.51	3672.35
425.718	3690.78
425.925	3664.16
426.133	3848.47
426.341	3997.98
426.548	4139.29
426.756	4258.07
426.964	4454.67
427.171	4477.2
427.379	4671.76
427.586	4747.53
427.794	4829.45
428.001	5056.78
428.209	5443.84
428.417	5157.13
428.624	5484.8
428.832	5472.51
429.039	5501.19
429.247	5507.33
429.454	6088.95
429.662	6398.2
429.869	6031.61
430.076	6531.31
430.284	6187.25
430.491	6600.94
430.699	6940.91
430.906	6875.37
431.114	7024.87
431.321	7246.05
431.528	7493.86
431.736	7790.81
431.943	8317.14
432.15	8063.19
432.358	7979.23
432.565	8573.14
432.772	8372.44
432.979	9033.93
433.187	9226.44
433.394	9119.95
433.601	9709.76
433.808	9820.35
434.016	9900.22
434.223	9918.65
434.43	10541.24
434.637	10297.53
434.844	11167.91
435.052	11245.74
435.259	11212.97
435.466	11311.27
435.673	11249.83
435.88	11806.88
436.087	12611.73
436.294	12677.27
436.501	12329.11
436.708	12585.11
436.915	13078.67
437.122	13412.49
437.329	13428.87
437.537	13987.97
437.743	14170.24
437.95	14110.85
438.157	14643.32
438.364	15290.48
438.571	15247.47
438.778	15491.18
438.985	16607.32
439.192	15906.91
439.399	16603.22
439.606	16158.81
439.813	17088.59
440.02	18466.88
440.227	17797.19
440.433	17406.03
440.64	18210.88
440.847	18260.03
441.054	18460.73
441.261	19871.78
441.467	19324.97
441.674	20064.29
441.881	20592.67
442.088	20336.67
442.294	20414.49
442.501	20867.09
442.708	21196.82
442.914	22138.88
443.121	22933.5
443.328	22253.57
443.534	23818.22
443.741	23332.85
443.948	22923.26
444.154	24629.21
444.361	24217.57
444.568	24610.78
444.774	24741.85
444.981	25108.44
445.187	25735.12
445.394	26728.38
445.6	26652.61
445.807	28938.14
446.013	27717.55
446.22	28012.46
446.426	29097.88
446.633	29624.21
446.839	30572.42
447.046	29089.69
447.252	30685.06
447.459	30857.09
447.665	30777.22
447.871	32216.94
448.078	33361.75
448.284	31885.17
448.491	32747.36
448.697	34113.36
448.903	34586.44
449.11	34492.23
449.316	34094.93
449.522	34957.12
449.728	35690.29
449.935	35583.8
450.141	36058.93
450.347	36663.08
450.553	35335.99
450.76	36706.09
450.966	37209.89
451.172	36855.59
451.378	38260.49
451.584	36777.76
451.791	37826.32
451.997	37977.87
452.203	38563.59
452.409	38463.24
452.615	38502.15
452.821	37060.38
453.027	36185.9
453.233	38692.61
453.44	36988.7
453.646	37506.84
453.852	37549.85
454.058	38131.47
454.264	37109.54
454.47	37381.91
454.676	36615.97
454.882	38317.84
455.088	34897.73
455.294	35233.6
455.5	35854.13
455.705	36009.78
455.911	34987.84
456.117	34277.19
456.323	33785.68
456.529	32010.09
456.735	33681.24
456.941	32491.37
457.147	32018.28
457.352	31088.51
457.558	30672.77
457.764	30738.3
457.97	30132.11
458.176	29398.93
458.381	29454.23
458.587	28153.77
458.793	27973.55
458.999	26902.46
459.204	28417.96
459.41	27580.34
459.616	25978.82
459.821	25886.67
460.027	25724.88
460.233	24917.98
460.438	23785.45
460.644	24246.24
460.85	23271.41
461.055	22759.42
461.261	22827
461.466	20817.94
461.672	20105.25
461.878	21891.08
462.083	20285.47
462.289	19949.6
462.494	19619.88
462.7	18778.17
462.905	18303.04
463.111	18921.52
463.316	19114.03
463.522	18589.75
463.727	18804.79
463.932	18741.3
464.138	18061.38
464.343	18403.39
464.549	17813.57
464.754	18288.7
464.959	18184.26
465.165	18155.58
465.37	17338.44
465.575	16924.76
465.781	17336.4
465.986	17737.8
466.191	16863.32
466.397	16574.55
466.602	15771.75
466.807	16332.89
467.012	16246.88
467.218	16224.35
467.423	16238.69
467.628	16156.77
467.833	16980.05
468.038	16070.75
468.244	15829.09
468.449	16115.81
468.654	15767.65
468.859	15790.18
469.064	15456.36
469.269	14837.87
469.474	14905.46
469.679	15243.37
469.885	14954.61
470.09	15380.59
470.295	14878.83
470.5	14704.76
470.705	14686.33
470.91	14497.91
471.115	14342.27
471.32	14436.47
471.525	14522.49
471.73	14143.61
471.935	13990.02
472.139	13666.44
472.344	13635.72
472.549	13494.41
472.754	13400.2
472.959	13011.09
473.164	12933.26
473.369	12783.76
473.574	13062.29
473.778	12974.22
473.983	12814.48
474.188	12898.45
474.393	12284.06
474.598	12298.39
474.802	12144.8
475.007	12249.24
475.212	12046.49
475.417	11454.63
475.621	11602.08
475.826	11739.3
476.031	11665.57
476.235	11225.26
476.44	11341.99
476.645	11245.74
476.849	11208.87
477.054	10983.6
477.259	11028.65
477.463	10801.33
477.668	10602.68
477.872	10840.24
478.077	10580.15
478.282	10334.39
478.486	10307.77
478.691	10367.16
478.895	10236.09
479.1	10023.1
479.304	10078.4
479.509	9683.14
479.713	10139.83
479.918	9851.07
480.122	9935.04
480.326	9633.99
480.531	9812.16
480.735	9769.15
480.94	9689.28
481.144	9853.12
481.348	9187.53
481.553	9584.84
481.757	9461.96
481.961	9523.4
482.166	9638.08
482.37	9451.72
482.574	9400.52
482.778	9283.78
482.983	9611.46
483.187	9472.2
483.391	9369.8
483.595	9281.74
483.8	9248.97
484.004	9396.42
484.208	9406.66
484.412	9310.41
484.616	9466.05
484.821	9302.22
485.025	9136.33
485.229	9298.12
485.433	9169.1
485.637	9160.91
485.841	9316.55
486.045	9345.22
486.249	9334.98
486.453	9326.79
486.657	9179.34
486.861	9160.91
487.065	9236.68
487.269	9332.93
487.473	8933.58
487.677	9431.24
487.881	9429.19
488.085	9064.65
488.289	9279.69
488.493	9099.47
488.697	9365.7
488.901	9234.63
489.105	9187.53
489.309	9283.78
489.512	9423.05
489.716	9152.71
489.92	9087.18
490.124	9253.06
490.328	9349.32
490.531	9271.5
490.735	9324.74
490.939	9527.49
491.143	9474.24
491.346	9230.54
491.55	9603.27
491.754	9509.06
491.958	9570.5
492.161	9414.85
492.365	9625.79
492.569	9619.65
492.772	9750.72
492.976	9769.15
493.18	9775.3
493.383	10119.35
493.587	9971.9
493.79	10000.57
493.994	9783.49
494.197	9996.48
494.401	9935.04
494.605	10113.21
494.808	10068.16
495.012	10307.77
495.215	10184.89
495.419	10430.65
495.622	10211.51
495.825	10465.46
496.029	10438.84
496.232	10336.44
496.436	10461.37
496.639	10909.87
496.843	10873.01
497.046	11032.75
497.249	11135.15
497.453	11057.32
497.656	11114.67
497.859	11249.83
498.063	11520.17
498.266	11522.21
498.469	11413.67
498.673	11489.45
498.876	11806.88
499.079	11903.14
499.282	11839.65
499.485	12142.75
499.689	12142.75
499.892	12142.75
500.095	12472.47
500.298	12652.69
500.501	12619.92
500.705	13006.99
500.908	13170.83
501.111	13072.53
501.314	13349
501.517	13361.29
501.72	13525.13
501.923	13475.98
502.126	13785.22
502.329	14186.62
502.532	14100.61
502.735	14157.95
502.938	14487.67
503.141	14477.43
503.344	14704.76
503.547	14497.91
503.75	14862.45
503.953	15054.96
504.156	15290.48
504.359	15374.44
504.562	15394.92
504.765	15718.5
504.968	15951.97
505.17	15923.3
505.373	15997.03
505.576	16167.01
505.779	16164.96
505.982	16502.87
506.185	16873.56
506.387	17006.67
506.59	16883.8
506.793	17391.69
506.996	17203.28
507.198	17719.37
507.401	17637.45
507.604	17895.49
507.807	18384.96
508.009	18540.6
508.212	18575.42
508.415	18368.57
508.617	19056.69
508.82	19058.74
509.022	18833.46
509.225	19449.9
509.428	19519.53
509.63	19505.2
509.833	19902.5
510.035	20195.36
510.238	20207.65
510.44	20160.55
510.643	20916.25
510.845	20883.48
511.048	20889.62
511.25	21059.6
511.453	21018.64
511.655	22142.98
511.858	21819.4
512.06	21760.01
512.262	22161.41
512.465	22165.51
512.667	22673.4
512.87	22704.12
513.072	22968.31
513.274	23492.59
513.477	23351.28
513.679	23748.59
513.881	24070.12
514.084	24295.39
514.286	24156.13
514.488	24301.54
514.69	24883.16
514.893	24899.55
515.095	25018.33
515.297	25335.76
515.499	25438.16
515.701	26011.59
515.904	26099.66
516.106	26222.53
516.308	26496.96
516.51	26648.51
516.712	26646.46
516.914	26929.08
517.116	27443.12
517.318	26937.27
517.52	27465.65
517.722	27363.25
517.925	27981.74
518.127	28403.62
518.329	28217.25
518.531	28553.12
518.733	29106.07
518.935	28815.26
519.136	28825.5
519.338	29593.49
519.54	29634.45
519.742	29589.39
519.944	29890.45
520.146	30302.09
520.348	30189.45
520.55	30418.82
520.752	30463.88
520.954	31260.54
521.155	30742.4
521.357	31410.04
521.559	31506.29
521.761	32057.2
521.963	31780.72
522.164	31743.86
522.366	31958.89
522.568	32515.94
522.77	32438.12
522.971	32737.12
523.173	32487.27
523.375	32956.25
523.576	33046.37
523.778	32970.59
523.98	33259.35
524.181	33554.26
524.383	33531.73
524.584	33883.98
524.786	33421.14
524.988	33191.77
525.189	33900.37
525.391	33757.01
525.592	34287.43
525.794	34373.45
525.995	33804.11
526.197	34215.76
526.398	34236.23
526.6	34389.83
526.801	34352.97
527.003	34541.38
527.204	34525
527.406	34621.25
527.607	34195.28
527.808	34946.88
528.01	34359.11
528.211	34664.26
528.412	34883.39
528.614	35329.85
528.815	34899.78
529.016	35059.52
529.218	35002.18
529.419	35133.25
529.62	35245.88
529.822	34752.32
530.023	34971.46
530.224	35153.72
530.425	34776.9
530.626	34721.6
530.828	34498.37
531.029	35309.37
531.23	34692.93
531.431	34787.14
531.632	34957.12
531.833	34910.02
532.035	34551.62
532.236	34604.87
532.437	34539.33
532.638	34688.84
532.839	34799.43
533.04	34975.55
533.241	34625.35
533.442	35190.59
533.643	34719.56
533.844	34637.64
534.045	34490.18
534.246	34334.54
534.447	34699.08
534.648	34254.67
534.849	34309.96
535.05	34070.35
535.251	34109.26
535.451	34291.53
535.652	33961.81
535.853	34201.42
536.054	34107.21
536.255	34279.24
536.456	33648.47
536.657	34568.01
536.857	33939.28
537.058	33824.59
537.259	33920.85
537.46	33617.75
537.66	33869.65
537.861	34053.97
538.062	33836.88
538.263	33707.86
538.463	33234.78
538.664	33699.67
538.865	33816.4
539.065	33873.74
539.266	33238.87
539.466	33646.42
539.667	33314.65
539.868	33808.21
540.068	33580.88
540.269	33281.88
540.469	33666.9
540.67	33011.55
540.87	33341.27
541.071	33199.96
541.271	33238.87
541.472	33259.35
541.672	32943.97
541.873	32874.34
542.073	32894.82
542.274	33136.48
542.474	33324.89
542.675	32591.72
542.875	33148.76
543.075	32749.41
543.276	32425.83
543.476	33134.43
543.676	32548.71
543.877	33013.6
544.077	32849.76
544.277	32857.95
544.478	32911.2
544.678	33048.41
544.878	33097.56
545.078	32710.5
545.279	32724.83
545.479	32526.18
545.679	32692.07
545.879	32810.85
546.079	32896.86
546.28	32405.35
546.48	32577.38
546.68	33064.8
546.88	32948.06
547.08	32839.52
547.28	32667.49
547.48	32718.69
547.68	32790.37
547.88	32593.76
548.081	32986.97
548.281	32821.09
548.481	32812.9
548.681	32847.71
548.881	32816.99
549.081	32835.42
549.28	32962.4
549.48	32814.94
549.68	32677.73
549.88	33513.3
550.08	32483.17
550.28	33144.67
550.48	32673.63
550.68	33038.17
550.88	33017.69
551.08	32862.05
551.279	33060.7
551.479	32776.03
551.679	33242.97
551.879	32923.49
552.079	32884.58
552.278	32814.94
552.478	32814.94
552.678	33099.61
552.878	33136.48
553.077	33052.51
553.277	33132.38
553.477	33564.5
553.676	33126.24
553.876	33304.41
554.076	32780.13
554.275	33466.2
554.475	32683.87
554.674	33292.12
554.874	33044.32
555.074	32960.35
555.273	33267.55
555.473	33525.59
555.672	33306.46
555.872	33179.48
556.071	33402.71
556.271	33439.58
556.47	33113.95
556.67	33247.07
556.869	33300.31
557.068	33634.13
557.268	33271.64
557.467	33496.92
557.667	33404.76
557.866	33023.84
558.065	33140.57
558.265	33503.06
558.464	33449.81
558.663	33797.97
558.863	33326.94
559.062	33931.09
559.261	33402.71
559.461	33736.53
559.66	32970.59
559.859	33525.59
560.058	33316.7
560.258	33378.14
560.457	33476.44
560.656	33533.78
560.855	33439.58
561.054	33257.31
561.253	33126.24
561.453	33449.81
561.652	33453.91
561.851	33425.24
562.05	33398.62
562.249	32966.49
562.448	33458.01
562.647	33386.33
562.846	32886.62
563.045	33156.96
563.244	33142.62
563.443	33711.95
563.642	33279.83
563.841	33122.14
564.04	32937.82
564.239	33449.81
564.438	32833.38
564.637	33328.98
564.836	32892.77
565.035	32589.67
565.234	33298.27
565.432	32905.06
565.631	32571.24
565.83	32923.49
566.029	32771.94
566.228	32657.25
566.427	32849.76
566.625	32958.3
566.824	32335.72
567.023	33107.8
567.222	32218.99
567.42	32427.88
567.619	32620.39
567.818	32100.2
568.016	32339.82
568.215	32636.77
568.414	32104.3
568.612	32366.44
568.811	32089.96
569.01	32218.99
569.208	31729.52
569.407	32208.75
569.605	31405.94
569.804	32294.76
570.002	31379.32
570.201	31965.04
570.4	31743.86
570.598	31336.31
570.797	31119.23
570.995	31635.31
571.193	31483.76
571.392	31364.98
571.59	31068.03
571.789	31342.46
571.987	30814.08
572.186	31000.44
572.384	30799.74
572.582	30818.18
572.781	30807.94
572.979	30621.57
573.177	30771.07
573.376	30465.92
573.574	30601.09
573.772	30680.96
573.971	30375.81
574.169	30267.27
574.367	30058.38
574.565	30048.14
574.763	29937.55
574.962	30062.47
575.16	29730.7
575.358	29894.54
575.556	29638.55
575.754	29783.95
575.952	29409.17
576.151	29769.62
576.349	29095.83
576.547	29159.32
576.745	28938.14
576.943	29015.96
577.141	29124.5
577.339	29024.15
577.537	29071.26
577.735	28632.99
577.933	28534.69
578.131	28659.62
578.329	28463.01
578.527	28420
578.725	28383.14
578.923	28491.68
579.121	28018.6
579.319	28182.44
579.516	28417.96
579.714	28606.37
579.912	28116.9
580.11	27889.58
580.308	27813.8
580.506	27326.39
580.704	27617.2
580.901	27930.54
581.099	27836.33
581.297	27312.05
581.495	27461.55
581.692	27578.29
581.89	27027.38
582.088	27170.74
582.285	27174.84
582.483	27060.15
582.681	26945.47
582.878	27015.1
583.076	26679.23
583.274	26828.73
583.471	26607.55
583.669	26916.79
583.866	26841.02
584.064	26931.13
584.262	25784.27
584.459	26337.22
584.657	26435.52
584.854	26468.29
585.052	25829.32
585.249	26382.27
585.447	26081.22
585.644	25800.65
585.841	26150.85
586.039	26451.91
586.236	25950.15
586.434	25901
586.631	25569.23
586.828	25661.39
587.026	25569.23
587.223	25360.34
587.42	25477.07
587.618	25649.1
587.815	25059.29
588.012	25296.85
588.21	25366.48
588.407	25581.52
588.604	25214.93
588.801	25065.43
588.999	25106.39
589.196	24901.59
589.393	25137.11
589.59	24836.06
589.787	24651.74
589.984	24537.05
590.182	24684.51
590.379	24829.91
590.576	24702.94
590.773	24797.15
590.97	24725.47
591.167	24829.91
591.364	24412.13
591.561	24539.1
591.758	24152.04
591.955	24420.32
592.152	24332.26
592.349	24586.21
592.546	24442.85
592.743	24174.56
592.94	23693.29
593.137	24319.97
593.334	24494.05
593.531	23973.86
593.727	24260.58
593.924	24135.65
594.121	23701.48
594.318	24000.49
594.515	23775.21
594.712	23998.44
594.908	23597.04
595.105	23947.24
595.302	23508.97
595.499	23871.47
595.696	23717.87
595.892	23824.36
596.089	23889.9
596.286	23846.89
596.482	23541.74
596.679	23760.87
596.876	23781.35
597.072	23494.64
597.269	23744.49
597.466	23027.7
597.662	23607.28
597.859	23764.97
598.055	23791.59
598.252	23578.61
598.448	23416.82
598.645	23511.02
598.841	23234.55
599.038	23388.14
599.234	23642.09
599.431	23408.62
599.627	23572.46
599.824	23425.01
600.02	23267.31
600.217	23627.76
600.413	23324.66
600.609	23334.9
600.806	23310.32
601.002	23562.22
601.198	23240.69
601.395	23463.92
601.591	23197.68
601.787	23394.29
601.984	23228.4
602.18	23461.87
602.376	23586.8
602.572	23353.33
602.769	23310.32
602.965	23117.81
603.161	23582.7
603.357	23400.43
603.553	23369.71
603.75	23392.24
603.946	23209.97
604.142	23517.17
604.338	23334.9
604.534	23615.47
604.73	23150.58
604.926	23326.71
605.122	23580.65
605.318	23439.34
605.514	23490.54
605.71	23431.15
605.906	23664.62
606.102	23629.8
606.298	23609.33
606.494	23656.43
606.69	23582.7
606.886	23314.42
607.082	23570.41
607.278	23820.27
607.474	23369.71
607.67	23865.32
607.866	23496.69
608.062	23724.01
608.257	23633.9
608.453	23578.61
608.649	23902.18
608.845	23545.84
609.041	23717.87
609.236	23941.1
609.432	23603.18
609.628	23959.53
609.824	23801.83
610.019	23695.34
610.215	23824.36
610.411	24084.45
610.606	23891.94
610.802	24092.65
610.998	23869.42
611.193	23992.3
611.389	23912.42
611.584	23734.25
611.78	23906.28
611.976	23873.51
612.171	24115.17
612.367	24106.98
612.562	24113.13
612.758	23801.83
612.953	23928.81
613.149	24014.82
613.344	23691.24
613.539	24168.42
613.735	24281.06
613.93	24360.93
614.126	24082.41
614.321	24004.58
614.517	24221.67
614.712	24061.93
614.907	23838.7
615.103	24066.02
615.298	24020.97
615.493	24383.46
615.688	23740.4
615.884	24451.04
616.079	23873.51
616.274	24272.87
616.47	24229.86
616.665	23908.33
616.86	24053.73
617.055	24049.64
617.25	23760.87
617.445	24233.96
617.641	23650.28
617.836	24072.17
618.031	23955.43
618.226	24014.82
618.421	23474.16
618.616	24025.06
618.811	23590.89
619.006	24123.37
619.201	23504.88
619.396	23664.62
619.591	23492.59
619.786	23834.6
619.981	23052.28
620.176	23506.93
620.371	22992.89
620.566	23037.94
620.761	22863.86
620.956	23197.68
621.151	22792.19
621.346	23207.92
621.541	22777.85
621.735	22861.82
621.93	22546.43
622.125	22614.01
622.32	22155.27
622.515	22534.14
622.709	22159.36
622.904	22190.08
623.099	22257.67
623.294	22192.13
623.488	21751.82
623.683	21968.9
623.878	21567.5
624.072	21567.5
624.267	21608.46
624.462	21514.25
624.656	21172.24
624.851	21409.81
625.046	21430.29
625.24	21104.66
625.435	21178.39
625.629	20815.9
625.824	20928.53
626.018	20906.01
626.213	20590.62
626.407	20639.77
626.602	20348.96
626.796	20443.17
626.991	20443.17
627.185	20142.11
627.38	20099.11
627.574	20033.57
627.768	19804.2
627.963	19810.34
628.157	19892.26
628.352	19841.06
628.546	19357.74
628.74	19593.26
628.935	19116.08
629.129	19267.63
629.323	19009.59
629.517	19226.67
629.712	19023.92
629.906	18735.16
630.1	18540.6
630.294	18583.61
630.489	18573.37
630.683	18653.24
630.877	18268.22
631.071	18008.13
631.265	18446.4
631.459	18174.02
631.653	18053.19
631.848	18042.95
632.042	18104.39
632.236	18122.82
632.43	17627.21
632.624	17832.01
632.818	17436.75
633.012	17311.82
633.206	17520.71
633.4	17549.39
633.594	17221.71
633.788	17064.02
633.982	17033.3
634.176	17125.46
634.369	17047.63
634.563	16912.47
634.757	16787.54
634.951	16713.81
635.145	16560.22
635.339	16726.1
635.533	16238.69
635.726	16558.17
635.92	16375.9
636.114	16433.24
636.308	15757.41
636.501	16191.58
636.695	16033.89
636.889	15732.84
637.083	15929.44
637.276	15468.65
637.47	15562.86
637.664	15442.03
637.857	15482.99
638.051	15310.96
638.244	15292.52
638.438	15407.21
638.632	15210.61
638.825	14895.22
639.019	14768.24
639.212	14565.5
639.406	14776.44
639.599	14477.43
639.793	14780.53
639.986	14504.06
640.18	14223.48
640.373	14547.06
640.567	14231.68
640.76	14174.33
640.954	14051.45
641.147	13938.82
641.34	13725.83
641.534	13926.53
641.727	13744.26
641.92	13611.14
642.114	13447.3
642.307	13756.55
642.5	13516.94
642.694	13330.57
642.887	13336.71
643.08	13369.48
643.273	13172.88
643.467	13062.29
643.66	12980.37
643.853	12923.02
644.046	12544.15
644.239	12650.64
644.432	12957.84
644.626	12396.7
644.819	12437.66
645.012	12222.62
645.205	12423.32
645.398	12193.95
645.591	12284.06
645.784	12069.02
645.977	11948.19
646.17	11831.46
646.363	11892.9
646.556	11735.2
646.749	11708.58
646.942	12005.53
647.135	11735.2
647.328	11634.85
647.521	11694.24
647.714	11413.67
647.907	11518.12
648.099	11217.07
648.292	11106.48
648.485	11020.46
648.678	11083.95
648.871	11133.1
649.064	11061.42
649.256	11098.28
649.449	10969.26
649.642	10852.53
649.835	10621.11
650.027	10643.63
650.22	10545.33
650.413	10399.93
650.605	10565.81
650.798	10487.99
650.991	10365.11
651.183	10326.2
651.376	10113.21
651.568	10315.96
651.761	10154.17
651.954	10311.86
652.146	9998.52
652.339	10195.13
652.531	9922.75
652.724	9771.2
652.916	10045.63
653.109	9676.99
653.301	9767.1
653.494	9822.4
653.686	9459.91
653.879	9730.24
654.071	9441.48
654.263	9480.39
654.456	9416.9
654.648	9504.96
654.84	9265.35
655.033	9242.82
655.225	9498.82
655.417	9148.62
655.61	9328.84
655.802	9113.8
655.994	9038.03
656.186	9087.18
656.379	9038.03
656.571	8974.54
656.763	8827.09
656.955	8900.81
657.148	8952.01
657.34	8923.34
657.532	8728.78
657.724	8638.67
657.916	8554.71
658.108	8515.8
658.3	8450.26
658.492	8313.05
658.684	8204.5
658.876	8454.36
659.068	8208.6
659.26	8237.27
659.452	8050.91
659.644	8284.37
659.836	8227.03
660.028	7966.94
660.22	8073.43
660.412	8055
660.604	7815.39
660.796	7907.55
660.988	7792.86
661.18	7915.74
661.372	7661.79
661.563	7727.33
661.755	7731.42
661.947	7674.08
662.139	7633.12
662.331	7522.53
662.522	7604.45
662.714	7500
662.906	7377.12
663.097	7436.52
663.289	7360.74
663.481	7237.86
663.673	7287.01
663.864	7168.23
664.056	7223.53
664.247	6985.96
664.439	7039.21
664.631	7131.37
664.822	7104.74
665.014	7012.59
665.205	6844.65
665.397	6994.15
665.588	6938.86
665.78	6928.62
665.971	6928.62
666.163	6756.59
666.354	6721.77
666.546	6727.92
666.737	6621.42
666.929	6699.25
667.12	6621.42
667.311	6539.51
667.503	6457.59
667.694	6512.88
667.885	6480.11
668.077	6492.4
668.268	6308.09
668.459	6295.8
668.651	6402.29
668.842	6230.26
669.033	6277.37
669.224	6293.75
669.416	6191.35
669.607	6242.55
669.798	6134.01
669.989	6269.17
670.18	6121.72
670.371	6222.07
670.563	5968.12
670.754	6064.38
670.945	5900.54
671.136	5892.35
671.327	6066.42
671.518	5888.25
671.709	5884.16
671.9	5978.36
672.091	5966.07
672.282	5714.17
672.473	5902.59
672.664	5865.72
672.855	5785.85
673.046	5826.81
673.237	5777.66
673.428	5716.22
673.619	5837.05
673.809	5650.69
674	5824.76
674.191	5652.74
674.382	5642.5
674.573	5613.82
674.764	5591.3
674.954	5703.93
675.145	5441.79
675.336	5658.88
675.527	5501.19
675.717	5570.82
675.908	5509.38
676.099	5413.12
676.289	5601.54
676.48	5419.27
676.671	5306.63
676.861	5509.38
677.052	5484.8
677.243	5396.74
677.433	5470.47
677.624	5296.39
677.814	5574.91
678.005	5339.4
678.195	5421.31
678.386	5333.25
678.576	5380.36
678.767	5200.13
678.957	5411.07
679.148	5404.93
679.338	5263.62
679.529	5296.39
679.719	5214.47
679.909	5384.45
680.1	5202.18
680.29	5333.25
680.481	5208.33
680.671	5286.15
680.861	5245.19
681.052	5241.09
681.242	5265.67
681.432	5085.45
681.622	5171.46
681.813	5009.67
682.003	5302.53
682.193	5177.61
682.383	5302.53
682.573	5112.07
682.764	5296.39
682.954	5171.46
683.144	5150.98
683.334	5153.03
683.524	5136.65
683.714	5048.58
683.904	5130.5
684.094	5187.85
684.284	4905.23
684.474	4944.14
684.664	5050.63
684.854	5042.44
685.044	5232.9
685.234	5093.64
685.424	5138.69
685.614	4925.71
685.804	4909.32
685.994	5052.68
686.184	4860.17
686.374	4950.28
686.564	4806.92
686.753	5067.02
686.943	4960.52
687.133	4827.4
687.323	4874.51
687.513	4866.32
687.702	4909.32
687.892	4860.17
688.082	4937.99
688.272	4829.45
688.461	4942.09
688.651	4870.41
688.841	4788.49
689.03	4790.54
689.22	4641.04
689.41	4743.44
689.599	4651.28
689.789	4770.06
689.979	4641.04
690.168	4729.1
690.358	4595.98
690.547	4626.7
690.737	4659.47
690.926	4630.8
691.116	4542.74
691.305	4567.31
691.495	4630.8
691.684	4733.2
691.874	4542.74
692.063	4577.55
692.252	4532.5
692.442	4606.22
692.631	4440.34
692.82	4546.83
693.01	4436.24
693.199	4516.11
693.388	4440.34
693.578	4417.81
693.767	4403.47
693.956	4507.92
694.146	4430.1
694.335	4391.19
694.524	4452.63
694.713	4292.88
694.902	4436.24
695.092	4282.64
695.281	4360.47
695.47	4303.12
695.659	4311.32
695.848	4323.6
696.037	4290.84
696.226	4284.69
696.415	4301.08
696.604	4462.87
696.793	4253.97
696.982	4260.12
697.171	4262.16
697.36	4303.12
697.549	4237.59
697.738	4288.79
697.927	4135.19
698.116	4223.25
698.305	4114.71
698.494	4184.34
698.683	4200.73
698.872	4124.95
699.061	4092.18
699.25	4229.4
699.438	4186.39
699.627	4147.48
699.816	4026.65
700.005	4239.64
700.193	4159.77
700.382	4067.61
700.571	4077.85
700.76	4147.48
700.948	4127
701.137	3983.64
701.326	3997.98
701.514	3877.15
701.703	4067.61
701.892	3983.64
702.08	4102.42
702.269	3834.14
702.457	3819.8
702.646	3750.17
702.834	3903.77
703.023	3954.97
703.212	4012.31
703.4	3991.83
703.589	3823.9
703.777	3926.3
703.965	3897.63
704.154	3909.91
704.342	3836.19
704.531	3754.27
704.719	3805.47
704.907	3860.76
705.096	3813.66
705.284	3811.61
705.472	3811.61
705.661	3801.37
705.849	3883.29
706.037	3795.23
706.226	3832.09
706.414	3813.66
706.602	3688.73
706.79	3741.98
706.979	3811.61
707.167	3647.77
707.355	3811.61
707.543	3574.05
707.731	3770.65
707.919	3598.62
708.107	3680.54
708.296	3526.94
708.484	3625.25
708.672	3655.97
708.86	3574.05
709.048	3688.73
709.236	3617.05
709.424	3647.77
709.612	3598.62
709.8	3469.6
709.988	3422.5
710.176	3483.94
710.364	3660.06
710.551	3551.52
710.739	3557.66
710.927	3473.7
711.115	3563.81
711.303	3533.09
711.491	3330.34
711.679	3471.65
711.866	3524.9
712.054	3461.41
712.242	3402.02
712.43	3356.96
712.617	3389.73
712.805	3356.96
712.993	3410.21
713.181	3229.99
713.368	3320.1
713.556	3324.19
713.744	3453.22
713.931	3447.07
714.119	3324.19
714.306	3381.54
714.494	3301.67
714.682	3336.48
714.869	3262.76
715.057	3289.38
715.244	3197.22
715.432	3201.32
715.619	3266.85
715.807	3168.55
715.994	3289.38
716.182	3160.36
716.369	3369.25
716.556	3285.28
716.744	3174.69
716.931	3131.69
717.119	3189.03
717.306	3074.34
717.493	3137.83
717.681	3229.99
717.868	3053.86
718.055	3131.69
718.242	3176.74
718.43	3096.87
718.617	3082.53
718.804	3154.21
718.991	3123.49
719.179	3137.83
719.366	3098.92
719.553	3168.55
719.74	3135.78
719.927	3092.77
720.114	3084.58
720.301	3006.76
720.488	2844.97
720.676	3017
720.863	3064.1
721.05	3029.29
721.237	2953.51
721.424	3166.5
721.611	2953.51
721.798	2828.59
721.985	2922.79
722.172	2933.03
722.358	3035.43
722.545	2939.18
722.732	2930.98
722.919	2879.79
723.106	2885.93
723.293	2885.93
723.48	2799.91
723.667	2828.59
723.853	2763.05
724.04	2853.16
724.227	2873.64
724.414	2877.74
724.6	2935.08
724.787	2890.03
724.974	2928.94
725.161	2912.55
725.347	2890.03
725.534	2820.39
725.72	2873.64
725.907	2922.79
726.094	2730.28
726.28	2691.37
726.467	2754.86
726.653	2707.76
726.84	2730.28
727.027	2892.07
727.213	2730.28
727.4	2605.36
727.586	2838.83
727.773	2715.95
727.959	2861.35
728.145	2726.19
728.332	2691.37
728.518	2648.36
728.705	2652.46
728.891	2703.66
729.077	2664.75
729.264	2654.51
729.45	2609.45
729.636	2699.56
729.823	2631.98
730.009	2691.37
730.195	2685.23
730.382	2677.04
730.568	2642.22
730.754	2464.05
730.94	2619.69
731.126	2631.98
731.313	2609.45
731.499	2498.86
731.685	2636.08
731.871	2533.68
732.057	2568.49
732.243	2574.64
732.429	2541.87
732.615	2705.71
732.801	2484.53
732.987	2478.38
733.173	2539.82
733.359	2541.87
733.545	2541.87
733.731	2576.69
733.917	2611.5
734.103	2470.19
734.289	2484.53
734.475	2525.49
734.661	2541.87
734.847	2548.01
735.033	2591.02
735.219	2558.25
735.404	2470.19
735.59	2472.24
735.776	2558.25
735.962	2500.91
736.148	2431.28
736.333	2494.77
736.519	2517.29
736.705	2470.19
736.89	2378.03
737.076	2363.7
737.262	2566.45
737.447	2292.02
737.633	2396.46
737.819	2455.86
738.004	2418.99
738.19	2304.31
738.375	2337.07
738.561	2431.28
738.747	2371.89
738.932	2318.64
739.118	2447.66
739.303	2375.99
739.489	2380.08
739.674	2304.31
739.859	2285.87
740.045	2318.64
740.23	2312.5
740.416	2230.58
740.601	2347.31
740.786	2318.64
740.972	2285.87
741.157	2330.93
741.342	2292.02
741.528	2339.12
741.713	2173.24
741.898	2234.68
742.084	2122.04
742.269	2183.48
742.454	2242.87
742.639	2150.71
742.824	2206
743.01	2203.96
743.195	2292.02
743.38	2199.86
743.565	2109.75
743.75	2169.14
743.935	2025.78
744.12	2181.43
744.305	1976.63
744.49	2019.64
744.675	2054.45
744.86	2050.36
745.045	2031.93
745.23	2076.98
745.415	1999.16
745.6	2064.69
745.785	1995.06
745.97	2103.61
746.155	2181.43
746.34	2040.12
746.525	1945.91
746.71	2038.07
746.895	1921.34
747.079	1902.9
747.264	1853.75
747.449	1929.53
747.634	1804.6
747.819	1874.23
748.003	1825.08
748.188	1818.94
748.373	1837.37
748.557	1921.34
748.742	1796.41
748.927	1888.57
749.111	1820.99
749.296	1714.49
749.481	1743.16
749.665	1863.99
749.85	1808.7
750.034	1755.45
750.219	1780.03
750.404	1732.92
750.588	1710.4
750.773	1687.87
750.957	1683.77
751.141	1624.38
751.326	1628.48
751.51	1630.52
751.695	1642.81
751.879	1610.04
752.064	1653.05
752.248	1614.14
752.432	1454.4
752.617	1575.23
752.801	1685.82
752.985	1435.97
753.17	1691.96
753.354	1599.8
753.538	1569.09
753.722	1579.33
753.907	1501.5
754.091	1368.38
754.275	1503.55
754.459	1501.5
754.643	1505.6
754.828	1405.25
755.012	1491.26
755.196	1325.38
755.38	1435.97
755.564	1448.26
755.748	1374.53
755.932	1413.44
756.116	1380.67
756.3	1397.06
756.484	1360.19
756.668	1433.92
756.852	1265.99
757.036	1255.75
757.22	1386.82
757.404	1376.58
757.588	1280.32
757.772	1358.14
757.956	1290.56
758.14	1362.24
758.323	1231.17
758.507	1308.99
758.691	1186.12
758.875	1308.99
759.059	1263.94
759.242	1157.44
759.426	1247.55
759.61	1229.12
759.794	1339.71
759.977	1247.55
760.161	1237.31
760.345	1278.27
760.528	1235.27
760.712	1200.45
760.895	1222.98
761.079	1083.72
761.263	1169.73
761.446	1122.63
761.63	1083.72
761.813	1141.06
761.997	1059.14
762.18	1151.3
762.364	1147.2
762.547	1075.52
762.731	1126.72
762.914	1153.35
763.098	1151.3
763.281	1124.68
763.464	1075.52
763.648	1120.58
763.831	1112.39
764.015	1096
764.198	1128.77
764.381	997.7
764.564	1110.34
764.748	991.56
764.931	1093.96
765.114	1067.33
765.297	1132.87
765.481	1055.05
765.664	999.75
765.847	989.51
766.03	1007.94
766.213	983.37
766.397	958.79
766.58	1083.72
766.763	1042.76
766.946	1009.99
767.129	1001.8
767.312	1044.81
767.495	1046.85
767.678	932.17
767.861	932.17
768.044	964.93
768.227	944.45
768.41	932.17
768.593	878.92
768.776	962.89
768.959	969.03
769.142	911.69
769.324	905.54
769.507	956.74
769.69	911.69
769.873	948.55
770.056	1001.8
770.239	872.78
770.421	903.5
770.604	923.98
770.787	887.11
770.97	977.22
771.152	805.19
771.335	880.97
771.518	874.82
771.7	919.88
771.883	878.92
772.066	842.06
772.248	866.63
772.431	932.17
772.613	926.02
772.796	907.59
772.978	846.15
773.161	946.5
773.343	813.38
773.526	807.24
773.708	756.04
773.891	670.03
774.073	733.51
774.256	813.38
774.438	840.01
774.621	721.23
774.803	899.4
774.985	805.19
775.168	813.38
775.35	747.85
775.532	797
775.715	805.19
775.897	848.2
776.079	739.66
776.261	727.37
776.444	717.13
776.626	706.89
776.808	682.31
776.99	745.8
777.173	756.04
777.355	831.82
777.537	719.18
777.719	733.51
777.901	717.13
778.083	653.64
778.265	674.12
778.447	766.28
778.629	719.18
778.811	702.79
778.993	702.79
779.175	731.47
779.357	637.26
779.539	594.25
779.721	586.06
779.903	686.41
780.085	596.3
780.267	651.6
780.449	753.99
780.631	702.79
780.812	715.08
780.994	581.96
781.176	600.4
781.358	557.39
781.54	629.07
781.721	555.34
781.903	616.78
782.085	514.38
782.267	659.79
782.448	508.24
782.63	487.76
782.812	596.3
782.993	596.3
783.175	559.44
783.357	518.48
783.538	575.82
783.72	559.44
783.901	526.67
784.083	592.2
784.264	493.9
784.446	465.23
784.627	504.14
784.809	551.24
784.99	493.9
785.172	518.48
785.353	518.48
785.535	577.87
785.716	454.99
785.897	403.79
786.079	485.71
786.26	473.42
786.441	463.18
786.623	489.81
786.804	485.71
786.985	448.85
787.167	430.41
787.348	473.42
787.529	452.94
787.71	485.71
787.891	428.37
788.073	473.42
788.254	373.07
788.435	420.17
788.616	358.74
788.797	467.28
788.978	428.37
789.159	420.17
789.34	485.71
789.522	375.12
789.703	389.46
789.884	360.78
790.065	442.7
790.246	375.12
790.427	348.5
790.607	518.48
790.788	442.7
790.969	446.8
791.15	438.61
791.331	313.68
791.512	346.45
791.693	387.41
791.874	362.83
792.054	403.79
792.235	338.26
792.416	366.93
792.597	352.59
792.778	270.67
792.958	364.88
793.139	309.58
793.32	325.97
793.5	297.3
793.681	420.17
793.862	391.5
794.042	309.58
794.223	262.48
794.404	330.06
794.584	252.24
794.765	371.02
794.945	319.82
795.126	315.73
795.306	313.68
795.487	285.01
795.667	299.34
795.848	342.35
796.028	399.7
796.209	313.68
796.389	346.45
796.57	307.54
796.75	242
796.93	289.1
797.111	256.34
797.291	313.68
797.471	321.87
797.652	309.58
797.832	323.92
798.012	346.45
798.192	289.1
798.373	272.72
798.553	373.07
798.733	356.69
798.913	289.1
799.093	264.53
799.274	244.05
799.454	338.26
799.634	299.34
799.814	250.19
799.994	231.76
800.174	309.58
800.354	266.58
800.534	256.34
800.714	289.1
800.894	201.04
801.074	252.24
801.254	264.53
801.434	272.72
801.614	192.85
801.794	256.34
801.974	1044.81
802.154	151.89
802.334	303.44
802.514	231.76
802.693	313.68
802.873	168.27
803.053	227.67
803.233	250.19
803.413	289.1
803.592	252.24
803.772	192.85
803.952	219.47
804.131	227.67
804.311	229.71
804.491	242
804.67	176.47
804.85	184.66
805.03	264.53
805.209	291.15
805.389	219.47
805.568	205.14
805.748	186.71
805.928	145.75
806.107	285.01
806.287	149.84
806.466	139.6
806.646	192.85
806.825	186.71
807.004	145.75
807.184	260.43
807.363	223.57
807.543	170.32
807.722	239.95
807.901	248.15
808.081	235.86
808.26	215.38
808.439	233.81
808.619	131.41
808.798	104.79
808.977	190.8
809.156	274.77
809.336	155.99
809.515	266.58
809.694	141.65
809.873	149.84
810.052	217.43
810.231	174.42
810.411	207.19
810.59	264.53
810.769	244.05
810.948	225.62
811.127	176.47
811.306	141.65
811.485	192.85
811.664	166.23
811.843	162.13
812.022	203.09
812.201	186.71
812.38	112.98
812.559	121.17
812.737	168.27
812.916	192.85
813.095	143.7
813.274	215.38
813.453	170.32
813.632	178.51
813.811	155.99
813.989	190.8
814.168	137.56
814.347	143.7
814.526	160.08
814.704	170.32
814.883	182.61
815.062	125.27
815.24	176.47
815.419	135.51
815.598	225.62
815.776	61.78
815.955	135.51
816.133	115.03
816.312	158.03
816.49	76.12
816.669	135.51
816.847	149.84
817.026	96.6
817.204	121.17
817.383	141.65
817.561	104.79
817.74	149.84
817.918	149.84
818.097	117.08
818.275	145.75
818.453	158.03
818.632	184.66
818.81	133.46
818.988	37.2
819.167	63.83
819.345	92.5
819.523	108.88
819.701	182.61
819.879	100.69
820.058	164.18
820.236	188.75
820.414	125.27
820.592	149.84
820.77	125.27
820.948	145.75
821.127	102.74
821.305	121.17
821.483	147.8
821.661	151.89
821.839	168.27
822.017	143.7
822.195	151.89
822.373	162.13
822.551	67.92
822.729	141.65
822.907	121.17
823.085	133.46
823.262	102.74
823.44	106.84
823.618	67.92
823.796	153.94
823.974	123.22
824.152	112.98
824.329	88.4
824.507	119.12
824.685	108.88
824.863	110.93
825.04	108.88
825.218	76.12
825.396	137.56
825.574	96.6
825.751	158.03
825.929	149.84
826.107	98.64
826.284	61.78
826.462	168.27
826.639	41.3
826.817	125.27
826.994	133.46
827.172	69.97
827.349	133.46
827.527	190.8
827.704	110.93
827.882	94.55
828.059	192.85
828.237	108.88
828.414	135.51
828.591	92.5
828.769	57.68
828.946	35.16
829.124	127.32
829.301	201.04
829.478	168.27
829.655	76.12
829.833	137.56
830.01	72.02
830.187	69.97
830.364	92.5
830.542	76.12
830.719	182.61
830.896	133.46
831.073	92.5
831.25	100.69
831.427	127.32
831.604	209.23
831.782	51.54
831.959	125.27
832.136	145.75
832.313	117.08
832.49	35.16
832.667	166.23
832.844	82.26
833.021	192.85
833.198	63.83
833.374	51.54
833.551	135.51
833.728	110.93
833.905	121.17
834.082	127.32
834.259	149.84
834.436	104.79
834.612	26.96
834.789	69.97
834.966	110.93
835.143	20.82
835.319	26.96
835.496	112.98
835.673	78.16
835.85	69.97
836.026	69.97
836.203	112.98
836.38	43.35
836.556	10.58
836.733	-11.95
836.909	121.17
837.086	108.88
837.262	61.78
837.439	39.25
837.616	20.82
837.792	51.54
837.968	94.55
838.145	6.49
838.321	76.12
838.498	149.84
838.674	106.84
838.851	53.59
839.027	102.74
839.203	49.49
839.38	92.5
839.556	18.77
839.732	110.93
839.909	67.92
840.085	102.74
840.261	47.44
840.437	51.54
840.614	117.08
840.79	153.94
840.966	67.92
841.142	67.92
841.318	96.6
841.494	143.7
841.671	59.73
841.847	31.06
842.023	49.49
842.199	65.88
842.375	102.74
842.551	2.39
842.727	10.58
842.903	86.36
843.079	-26.28
843.255	129.36
843.431	39.25
843.607	53.59
843.783	-13.99
843.959	100.69
844.134	24.92
844.31	67.92
844.486	12.63
844.662	80.21
844.838	37.2
845.013	153.94
845.189	100.69
845.365	88.4
845.541	8.53
845.716	92.5
845.892	127.32
846.068	47.44
846.244	-30.38
846.419	43.35
846.595	-20.14
846.77	-9.9
846.946	76.12
847.122	14.68
847.297	29.01
847.473	92.5
847.648	39.25
847.824	92.5
847.999	-44.71
848.175	12.63
848.35	61.78
848.526	94.55
848.701	100.69
848.876	59.73
849.052	78.16
849.227	92.5
849.403	53.59
849.578	108.88
849.753	4.44
849.929	82.26
850.104	51.54
850.279	86.36
850.454	67.92
850.63	53.59
850.805	108.88
850.98	18.77
851.155	67.92
851.33	76.12
851.505	-18.09
851.681	104.79
851.856	-46.76
852.031	12.63
852.206	129.36
852.381	31.06
852.556	8.53
852.731	51.54
852.906	90.45
853.081	63.83
853.256	31.06
853.431	-3.75
853.606	67.92
853.781	29.01
853.956	-42.67
854.131	92.5
854.305	2.39
854.48	86.36
854.655	26.96
854.83	59.73
855.005	43.35
855.18	18.77
855.354	6.49
855.529	35.16
855.704	2.39
855.879	145.75
856.053	-42.67
856.228	90.45
856.403	-57
856.577	35.16
856.752	84.31
856.926	37.2
857.101	74.07
857.276	-20.14
857.45	31.06
857.625	18.77
857.799	78.16
857.974	47.44
858.148	-5.8
858.323	53.59
858.497	96.6
858.672	-3.75
858.846	-46.76
859.02	55.64
859.195	16.73
859.369	63.83
859.543	31.06
859.718	84.31
859.892	18.77
860.066	51.54
860.241	2.39
860.415	61.78
860.589	22.87
860.763	59.73
860.938	14.68
861.112	65.88
861.286	-16.04
861.46	2.39
861.634	35.16
861.808	43.35
861.982	18.77
862.157	10.58
862.331	20.82
862.505	26.96
862.679	18.77
862.853	37.2
863.027	2.39
863.201	92.5
863.375	-30.38
863.549	39.25
863.722	43.35
863.896	149.84
864.07	-40.62
864.244	55.64
864.418	125.27
864.592	55.64
864.766	35.16
864.939	-34.47
865.113	41.3
865.287	22.87
865.461	-5.8
865.634	29.01
865.808	-63.15
865.982	55.64
866.156	-13.99
866.329	47.44
866.503	6.49
866.676	72.02
866.85	-22.19
867.024	47.44
867.197	31.06
867.371	43.35
867.544	94.55
867.718	69.97
867.891	112.98
868.065	59.73
868.238	-3.75
868.412	112.98
868.585	-54.95
868.759	-85.67
868.932	53.59
869.105	22.87
869.279	31.06
869.452	31.06
869.625	-11.95
869.799	29.01
869.972	-54.95
870.145	-11.95
870.319	61.78
870.492	4.44
870.665	-50.86
870.838	18.77
871.011	43.35
871.185	84.31
871.358	51.54
871.531	-13.99
871.704	-38.57
871.877	-1.71
872.05	12.63
872.223	18.77
872.396	26.96
872.569	6.49
872.742	-28.33
872.915	31.06
873.088	-5.8
873.261	18.77
873.434	35.16
873.607	-59.05
873.78	78.16
873.953	20.82
874.126	10.58
874.299	86.36
874.471	63.83
874.644	18.77
874.817	10.58
874.99	76.12
875.163	-13.99
875.335	63.83
875.508	-3.75
875.681	20.82
875.853	-11.95
876.026	29.01
876.199	96.6
876.371	-28.33
876.544	10.58
876.717	-13.99
876.889	-13.99
877.062	39.25
877.234	-5.8
877.407	35.16
877.579	67.92
877.752	-13.99
877.924	47.44
878.097	12.63
878.269	22.87
878.442	102.74
878.614	123.22
878.786	69.97
878.959	67.92
879.131	18.77
879.303	-69.29
879.476	51.54
879.648	-13.99
879.82	29.01
879.993	26.96
880.165	-3.75
880.337	-112.3
880.509	55.64
880.681	-32.43
880.854	-63.15
881.026	-20.14
881.198	112.98
881.37	18.77
881.542	51.54
881.714	-26.28
881.886	-1.71
882.058	-22.19
882.23	-28.33
882.402	-59.05
882.574	-46.76
882.746	14.68
882.918	39.25
883.09	69.97
883.262	51.54
883.434	-28.33
883.606	-5.8
883.778	35.16
883.95	100.69
884.122	39.25
884.293	110.93
884.465	61.78
884.637	18.77
884.809	35.16
884.98	18.77
885.152	12.63
885.324	74.07
885.496	4.44
885.667	-22.19
885.839	69.97
886.011	84.31
886.182	14.68
886.354	112.98
886.525	84.31
886.697	14.68
886.869	-34.47
887.04	26.96
887.212	20.82
887.383	63.83
887.555	41.3
887.726	57.68
887.897	88.4
888.069	55.64
888.24	-1.71
888.412	-5.8
888.583	43.35
888.754	-28.33
888.926	-20.14
889.097	6.49
889.268	39.25
889.44	80.21
889.611	-18.09
889.782	33.11
889.953	-18.09
890.125	123.22
890.296	-50.86
890.467	-28.33
890.638	94.55
890.809	-32.43
890.98	18.77
891.151	-11.95
891.323	20.82
891.494	10.58
891.665	88.4
891.836	14.68
892.007	-32.43
892.178	35.16
892.349	6.49
892.52	-42.67
892.691	2.39
892.862	43.35
893.032	10.58
893.203	45.4
893.374	-20.14
893.545	29.01
893.716	69.97
893.887	57.68
894.057	-61.1
894.228	35.16
894.399	16.73
894.57	59.73
894.74	-3.75
894.911	63.83
895.082	43.35
895.253	-52.91
895.423	43.35
895.594	37.2
895.764	18.77
895.935	26.96
896.106	-5.8
896.276	12.63
896.447	2.39
896.617	-36.52
896.788	-67.24
896.958	-13.99
897.129	90.45
897.299	-38.57
897.47	67.92
897.64	63.83
897.81	51.54
897.981	10.58
898.151	43.35
898.322	-59.05
898.492	10.58
898.662	-18.09
898.832	20.82
899.003	-22.19
899.173	45.4
899.343	31.06
899.513	24.92
