Data from USB4F104151__95__14-30-46-593.txt Node

Date: Thu Mar 13 14:30:46 EDT 2025
User: louis
Spectrometer: USB4F10415
Trigger mode: 4
Integration Time (sec): 2.500000E-2
Scans to average: 1
Electric dark correction enabled: true
Nonlinearity correction enabled: false
Boxcar width: 0
XAxis mode: Wavelengths
Number of Pixels in Spectrum: 3648
>>>>>Begin Spectral Data<<<<<
178.204	-121.85
178.424	-121.85
178.644	-121.85
178.864	-119.81
179.084	-132.09
179.304	7.17
179.524	-5.12
179.744	-17.41
179.964	-3.07
180.184	56.32
180.404	31.74
180.624	17.41
180.844	11.26
181.064	-23.55
181.283	-17.41
181.503	-78.85
181.723	21.5
181.943	-17.41
182.163	173.05
182.383	31.74
182.602	39.94
182.822	91.13
183.042	48.13
183.262	76.8
183.482	80.89
183.701	-31.74
183.921	50.18
184.141	15.36
184.361	64.51
184.58	68.61
184.8	64.51
185.02	103.42
185.239	97.28
185.459	23.55
185.679	58.37
185.898	78.85
186.118	44.03
186.338	17.41
186.557	105.47
186.777	21.5
186.997	101.37
187.216	68.61
187.436	123.9
187.655	35.84
187.875	113.66
188.095	29.7
188.314	70.65
188.534	107.52
188.753	17.41
188.973	-9.22
189.192	66.56
189.412	29.7
189.631	74.75
189.851	62.46
190.07	74.75
190.29	13.31
190.509	-5.12
190.729	105.47
190.948	109.57
191.168	93.18
191.387	162.81
191.607	66.56
191.826	74.75
192.045	35.84
192.265	66.56
192.484	15.36
192.704	39.94
192.923	39.94
193.142	125.95
193.362	105.47
193.581	113.66
193.8	103.42
194.02	66.56
194.239	9.22
194.458	113.66
194.678	52.22
194.897	39.94
195.116	-13.31
195.335	68.61
195.555	60.42
195.774	58.37
195.993	31.74
196.212	37.89
196.432	11.26
196.651	91.13
196.87	31.74
197.089	156.67
197.308	99.33
197.528	115.71
197.747	39.94
197.966	130.05
198.185	105.47
198.404	60.42
198.623	123.9
198.842	95.23
199.062	105.47
199.281	91.13
199.5	17.41
199.719	132.09
199.938	64.51
200.157	23.55
200.376	11.26
200.595	109.57
200.814	66.56
201.033	48.13
201.252	113.66
201.471	70.65
201.69	39.94
201.909	58.37
202.128	84.99
202.347	91.13
202.566	68.61
202.785	76.8
203.004	-5.12
203.223	113.66
203.442	82.94
203.661	50.18
203.879	41.98
204.098	87.04
204.317	-1.02
204.536	82.94
204.755	5.12
204.974	31.74
205.193	72.7
205.411	113.66
205.63	80.89
205.849	87.04
206.068	17.41
206.287	31.74
206.505	150.53
206.724	17.41
206.943	46.08
207.162	64.51
207.381	60.42
207.599	41.98
207.818	-54.27
208.037	27.65
208.255	101.37
208.474	113.66
208.693	37.89
208.911	29.7
209.13	15.36
209.349	93.18
209.567	113.66
209.786	80.89
210.005	64.51
210.223	74.75
210.442	-7.17
210.661	7.17
210.879	80.89
211.098	-9.22
211.316	105.47
211.535	52.22
211.753	56.32
211.972	84.99
212.191	33.79
212.409	128
212.628	44.03
212.846	80.89
213.065	119.81
213.283	48.13
213.502	23.55
213.72	70.65
213.938	62.46
214.157	41.98
214.375	39.94
214.594	107.52
214.812	80.89
215.031	113.66
215.249	29.7
215.467	70.65
215.686	107.52
215.904	89.09
216.122	58.37
216.341	64.51
216.559	41.98
216.778	89.09
216.996	91.13
217.214	33.79
217.432	23.55
217.651	7.17
217.869	-5.12
218.087	97.28
218.306	56.32
218.524	29.7
218.742	56.32
218.96	80.89
219.179	15.36
219.397	84.99
219.615	105.47
219.833	93.18
220.051	72.7
220.27	80.89
220.488	58.37
220.706	52.22
220.924	58.37
221.142	39.94
221.36	80.89
221.578	1.02
221.796	-54.27
222.015	175.1
222.233	31.74
222.451	113.66
222.669	23.55
222.887	97.28
223.105	-39.94
223.323	48.13
223.541	15.36
223.759	107.52
223.977	64.51
224.195	138.24
224.413	44.03
224.631	121.85
224.849	-17.41
225.067	82.94
225.285	66.56
225.503	15.36
225.721	-15.36
225.939	60.42
226.157	15.36
226.375	214.01
226.592	35.84
226.81	97.28
227.028	64.51
227.246	91.13
227.464	64.51
227.682	140.29
227.9	93.18
228.117	78.85
228.335	29.7
228.553	60.42
228.771	97.28
228.989	56.32
229.206	58.37
229.424	48.13
229.642	109.57
229.86	33.79
230.077	97.28
230.295	107.52
230.513	168.96
230.731	56.32
230.948	15.36
231.166	93.18
231.384	50.18
231.601	68.61
231.819	66.56
232.037	25.6
232.254	27.65
232.472	-7.17
232.689	64.51
232.907	44.03
233.125	33.79
233.342	76.8
233.56	91.13
233.777	56.32
233.995	54.27
234.213	50.18
234.43	50.18
234.648	39.94
234.865	-15.36
235.083	80.89
235.3	64.51
235.518	66.56
235.735	97.28
235.953	179.2
236.17	56.32
236.388	113.66
236.605	74.75
236.822	70.65
237.04	15.36
237.257	25.6
237.475	72.7
237.692	105.47
237.909	29.7
238.127	162.81
238.344	128
238.562	78.85
238.779	39.94
238.996	31.74
239.214	23.55
239.431	93.18
239.648	52.22
239.865	74.75
240.083	107.52
240.3	56.32
240.517	93.18
240.735	103.42
240.952	130.05
241.169	103.42
241.386	54.27
241.603	82.94
241.821	41.98
242.038	113.66
242.255	142.33
242.472	-3.07
242.689	82.94
242.907	134.14
243.124	7.17
243.341	84.99
243.558	25.6
243.775	56.32
243.992	23.55
244.209	64.51
244.426	138.24
244.643	41.98
244.86	31.74
245.078	58.37
245.295	80.89
245.512	37.89
245.729	-27.65
245.946	74.75
246.163	7.17
246.38	56.32
246.597	17.41
246.814	97.28
247.031	44.03
247.248	89.09
247.464	130.05
247.681	82.94
247.898	70.65
248.115	76.8
248.332	56.32
248.549	146.43
248.766	48.13
248.983	97.28
249.2	115.71
249.417	39.94
249.633	23.55
249.85	97.28
250.067	23.55
250.284	64.51
250.501	48.13
250.717	130.05
250.934	-21.5
251.151	31.74
251.368	-9.22
251.585	41.98
251.801	117.76
252.018	76.8
252.235	89.09
252.451	7.17
252.668	134.14
252.885	113.66
253.102	19.46
253.318	50.18
253.535	11.26
253.752	82.94
253.968	23.55
254.185	-7.17
254.401	66.56
254.618	21.5
254.835	-5.12
255.051	89.09
255.268	29.7
255.484	72.7
255.701	39.94
255.917	80.89
256.134	39.94
256.351	70.65
256.567	46.08
256.784	39.94
257	78.85
257.217	101.37
257.433	148.48
257.65	93.18
257.866	39.94
258.082	56.32
258.299	50.18
258.515	125.95
258.732	9.22
258.948	46.08
259.165	37.89
259.381	-21.5
259.597	56.32
259.814	56.32
260.03	66.56
260.246	-7.17
260.463	111.61
260.679	87.04
260.895	19.46
261.112	101.37
261.328	80.89
261.544	52.22
261.761	95.23
261.977	46.08
262.193	-9.22
262.409	68.61
262.626	115.71
262.842	82.94
263.058	-13.31
263.274	50.18
263.49	121.85
263.707	84.99
263.923	103.42
264.139	7.17
264.355	7.17
264.571	78.85
264.787	35.84
265.004	64.51
265.22	117.76
265.436	76.8
265.652	76.8
265.868	41.98
266.084	66.56
266.3	91.13
266.516	11.26
266.732	70.65
266.948	39.94
267.164	64.51
267.38	60.42
267.596	60.42
267.812	89.09
268.028	44.03
268.244	66.56
268.46	89.09
268.676	97.28
268.892	95.23
269.108	-13.31
269.324	33.79
269.54	93.18
269.756	166.91
269.972	50.18
270.188	39.94
270.403	48.13
270.619	62.46
270.835	66.56
271.051	109.57
271.267	13.31
271.483	89.09
271.698	66.56
271.914	91.13
272.13	11.26
272.346	33.79
272.562	113.66
272.777	80.89
272.993	97.28
273.209	68.61
273.425	72.7
273.64	25.6
273.856	66.56
274.072	44.03
274.287	66.56
274.503	44.03
274.719	56.32
274.934	95.23
275.15	11.26
275.366	80.89
275.581	82.94
275.797	105.47
276.012	64.51
276.228	41.98
276.444	60.42
276.659	72.7
276.875	31.74
277.09	101.37
277.306	48.13
277.521	89.09
277.737	17.41
277.952	56.32
278.168	113.66
278.383	44.03
278.599	41.98
278.814	23.55
279.03	44.03
279.245	140.29
279.461	33.79
279.676	109.57
279.892	84.99
280.107	25.6
280.322	132.09
280.538	48.13
280.753	48.13
280.969	56.32
281.184	56.32
281.399	168.96
281.615	25.6
281.83	109.57
282.045	-1.02
282.26	48.13
282.476	101.37
282.691	72.7
282.906	80.89
283.122	109.57
283.337	64.51
283.552	7.17
283.767	17.41
283.983	17.41
284.198	48.13
284.413	23.55
284.628	-29.7
284.843	74.75
285.058	37.89
285.274	48.13
285.489	29.7
285.704	54.27
285.919	58.37
286.134	62.46
286.349	78.85
286.564	9.22
286.779	113.66
286.995	82.94
287.21	25.6
287.425	37.89
287.64	-1.02
287.855	93.18
288.07	84.99
288.285	107.52
288.5	72.7
288.715	99.33
288.93	29.7
289.145	91.13
289.36	56.32
289.575	39.94
289.79	146.43
290.004	39.94
290.219	87.04
290.434	93.18
290.649	3.07
290.864	50.18
291.079	23.55
291.294	60.42
291.509	74.75
291.724	89.09
291.938	80.89
292.153	3.07
292.368	72.7
292.583	56.32
292.798	7.17
293.012	91.13
293.227	48.13
293.442	7.17
293.657	66.56
293.871	64.51
294.086	68.61
294.301	64.51
294.516	25.6
294.73	-7.17
294.945	56.32
295.16	84.99
295.374	78.85
295.589	148.48
295.804	58.37
296.018	-50.18
296.233	115.71
296.447	15.36
296.662	60.42
296.877	107.52
297.091	72.7
297.306	50.18
297.52	19.46
297.735	146.43
297.949	44.03
298.164	74.75
298.378	68.61
298.593	64.51
298.807	44.03
299.022	54.27
299.236	101.37
299.451	64.51
299.665	11.26
299.88	72.7
300.094	140.29
300.309	56.32
300.523	87.04
300.737	37.89
300.952	56.32
301.166	11.26
301.381	117.76
301.595	64.51
301.809	54.27
302.024	39.94
302.238	-37.89
302.452	64.51
302.667	56.32
302.881	84.99
303.095	115.71
303.309	37.89
303.524	107.52
303.738	64.51
303.952	50.18
304.166	115.71
304.381	15.36
304.595	99.33
304.809	80.89
305.023	89.09
305.237	72.7
305.452	101.37
305.666	64.51
305.88	152.57
306.094	97.28
306.308	82.94
306.522	138.24
306.736	39.94
306.95	23.55
307.164	105.47
307.379	-1.02
307.593	107.52
307.807	56.32
308.021	89.09
308.235	82.94
308.449	25.6
308.663	39.94
308.877	158.72
309.091	97.28
309.305	134.14
309.519	23.55
309.733	99.33
309.947	50.18
310.161	123.9
310.374	56.32
310.588	87.04
310.802	56.32
311.016	84.99
311.23	142.33
311.444	48.13
311.658	44.03
311.872	156.67
312.085	113.66
312.299	66.56
312.513	148.48
312.727	181.25
312.941	93.18
313.154	125.95
313.368	113.66
313.582	48.13
313.796	-7.17
314.009	23.55
314.223	44.03
314.437	48.13
314.651	74.75
314.864	27.65
315.078	84.99
315.292	31.74
315.505	60.42
315.719	60.42
315.933	84.99
316.146	19.46
316.36	44.03
316.573	105.47
316.787	31.74
317.001	39.94
317.214	56.32
317.428	97.28
317.641	44.03
317.855	48.13
318.068	74.75
318.282	15.36
318.495	134.14
318.709	58.37
318.922	84.99
319.136	50.18
319.349	76.8
319.563	25.6
319.776	64.51
319.99	48.13
320.203	33.79
320.417	11.26
320.63	60.42
320.843	58.37
321.057	156.67
321.27	97.28
321.483	91.13
321.697	56.32
321.91	48.13
322.124	113.66
322.337	107.52
322.55	56.32
322.763	35.84
322.977	9.22
323.19	-9.22
323.403	48.13
323.617	13.31
323.83	115.71
324.043	130.05
324.256	80.89
324.469	-5.12
324.683	160.77
324.896	95.23
325.109	56.32
325.322	31.74
325.535	74.75
325.748	107.52
325.962	66.56
326.175	39.94
326.388	89.09
326.601	113.66
326.814	56.32
327.027	99.33
327.24	138.24
327.453	15.36
327.666	95.23
327.879	142.33
328.092	58.37
328.305	119.81
328.518	89.09
328.731	-5.12
328.944	52.22
329.157	125.95
329.37	74.75
329.583	91.13
329.796	58.37
330.009	19.46
330.222	89.09
330.435	58.37
330.648	29.7
330.861	76.8
331.073	27.65
331.286	91.13
331.499	17.41
331.712	-15.36
331.925	148.48
332.138	101.37
332.35	74.75
332.563	39.94
332.776	97.28
332.989	72.7
333.202	23.55
333.414	82.94
333.627	66.56
333.84	58.37
334.053	33.79
334.265	80.89
334.478	48.13
334.691	101.37
334.903	37.89
335.116	44.03
335.329	87.04
335.541	80.89
335.754	76.8
335.966	91.13
336.179	19.46
336.392	113.66
336.604	136.19
336.817	31.74
337.029	109.57
337.242	58.37
337.454	148.48
337.667	68.61
337.88	76.8
338.092	87.04
338.305	107.52
338.517	41.98
338.729	130.05
338.942	136.19
339.154	41.98
339.367	82.94
339.579	91.13
339.792	64.51
340.004	68.61
340.217	68.61
340.429	93.18
340.641	95.23
340.854	130.05
341.066	93.18
341.278	76.8
341.491	89.09
341.703	52.22
341.915	39.94
342.128	140.29
342.34	44.03
342.552	48.13
342.764	62.46
342.977	64.51
343.189	66.56
343.401	39.94
343.613	52.22
343.826	66.56
344.038	-5.12
344.25	52.22
344.462	109.57
344.674	154.62
344.886	121.85
345.099	76.8
345.311	7.17
345.523	52.22
345.735	72.7
345.947	84.99
346.159	109.57
346.371	115.71
346.583	156.67
346.795	140.29
347.007	84.99
347.219	76.8
347.431	97.28
347.643	97.28
347.855	91.13
348.067	142.33
348.279	31.74
348.491	132.09
348.703	138.24
348.915	123.9
349.127	56.32
349.339	66.56
349.551	89.09
349.763	74.75
349.975	3.07
350.187	115.71
350.399	97.28
350.61	70.65
350.822	117.76
351.034	39.94
351.246	156.67
351.458	162.81
351.669	117.76
351.881	138.24
352.093	125.95
352.305	181.25
352.517	68.61
352.728	150.53
352.94	80.89
353.152	39.94
353.363	9.22
353.575	138.24
353.787	117.76
353.999	74.75
354.21	187.39
354.422	162.81
354.633	97.28
354.845	-1.02
355.057	103.42
355.268	152.57
355.48	46.08
355.692	-46.08
355.903	101.37
356.115	60.42
356.326	7.17
356.538	105.47
356.749	134.14
356.961	91.13
357.172	87.04
357.384	33.79
357.595	117.76
357.807	89.09
358.018	66.56
358.23	107.52
358.441	152.57
358.653	105.47
358.864	48.13
359.075	17.41
359.287	44.03
359.498	125.95
359.709	136.19
359.921	66.56
360.132	25.6
360.344	82.94
360.555	82.94
360.766	66.56
360.977	91.13
361.189	113.66
361.4	105.47
361.611	125.95
361.823	142.33
362.034	56.32
362.245	-21.5
362.456	72.7
362.667	62.46
362.879	41.98
363.09	64.51
363.301	138.24
363.512	156.67
363.723	105.47
363.935	80.89
364.146	144.38
364.357	125.95
364.568	107.52
364.779	105.47
364.99	142.33
365.201	37.89
365.412	130.05
365.623	89.09
365.834	15.36
366.045	109.57
366.256	160.77
366.467	82.94
366.678	17.41
366.889	132.09
367.1	89.09
367.311	117.76
367.522	84.99
367.733	58.37
367.944	111.61
368.155	37.89
368.366	93.18
368.577	39.94
368.788	48.13
368.999	68.61
369.209	80.89
369.42	162.81
369.631	205.82
369.842	80.89
370.053	39.94
370.264	146.43
370.474	72.7
370.685	99.33
370.896	66.56
371.107	58.37
371.317	146.43
371.528	23.55
371.739	203.77
371.95	109.57
372.16	156.67
372.371	99.33
372.582	72.7
372.792	76.8
373.003	82.94
373.214	136.19
373.424	74.75
373.635	21.5
373.846	64.51
374.056	87.04
374.267	117.76
374.477	76.8
374.688	115.71
374.898	66.56
375.109	154.62
375.319	113.66
375.53	162.81
375.74	154.62
375.951	25.6
376.161	125.95
376.372	146.43
376.582	52.22
376.793	128
377.003	78.85
377.214	93.18
377.424	52.22
377.635	146.43
377.845	50.18
378.055	140.29
378.266	173.05
378.476	105.47
378.686	80.89
378.897	113.66
379.107	121.85
379.317	87.04
379.528	105.47
379.738	130.05
379.948	62.46
380.158	95.23
380.369	64.51
380.579	64.51
380.789	60.42
380.999	179.2
381.21	117.76
381.42	134.14
381.63	119.81
381.84	91.13
382.05	89.09
382.261	148.48
382.471	193.53
382.681	99.33
382.891	48.13
383.101	56.32
383.311	117.76
383.521	66.56
383.731	175.1
383.941	140.29
384.151	64.51
384.361	66.56
384.571	76.8
384.781	130.05
384.991	144.38
385.201	168.96
385.411	68.61
385.621	162.81
385.831	87.04
386.041	97.28
386.251	11.26
386.461	171.01
386.671	105.47
386.881	56.32
387.091	74.75
387.301	109.57
387.511	44.03
387.72	162.81
387.93	144.38
388.14	101.37
388.35	177.15
388.56	138.24
388.769	150.53
388.979	125.95
389.189	91.13
389.399	130.05
389.609	150.53
389.818	125.95
390.028	93.18
390.238	113.66
390.447	97.28
390.657	72.7
390.867	91.13
391.076	84.99
391.286	125.95
391.496	220.16
391.705	105.47
391.915	130.05
392.125	148.48
392.334	93.18
392.544	115.71
392.753	91.13
392.963	62.46
393.172	130.05
393.382	156.67
393.591	203.77
393.801	132.09
394.01	144.38
394.22	162.81
394.429	101.37
394.639	107.52
394.848	211.96
395.058	132.09
395.267	103.42
395.477	109.57
395.686	183.29
395.895	228.35
396.105	185.34
396.314	130.05
396.524	132.09
396.733	134.14
396.942	173.05
397.152	156.67
397.361	132.09
397.57	97.28
397.78	164.86
397.989	214.01
398.198	203.77
398.407	130.05
398.617	158.72
398.826	113.66
399.035	189.44
399.244	214.01
399.453	236.54
399.663	150.53
399.872	205.82
400.081	140.29
400.29	252.92
400.499	105.47
400.708	271.36
400.917	203.77
401.127	224.25
401.336	89.09
401.545	240.64
401.754	195.58
401.963	238.59
402.172	103.42
402.381	205.82
402.59	150.53
402.799	205.82
403.008	207.87
403.217	279.55
403.426	211.96
403.635	183.29
403.844	164.86
404.053	216.06
404.262	156.67
404.471	297.98
404.68	191.49
404.888	236.54
405.097	162.81
405.306	226.3
405.515	261.12
405.724	244.73
405.933	326.65
406.142	232.44
406.35	277.5
406.559	269.31
406.768	302.08
406.977	330.75
407.185	277.5
407.394	297.98
407.603	363.51
407.812	287.74
408.02	406.52
408.229	400.38
408.438	334.84
408.646	345.08
408.855	351.23
409.064	355.32
409.272	394.23
409.481	394.23
409.69	435.19
409.898	416.76
410.107	490.49
410.315	490.49
410.524	500.73
410.733	523.26
410.941	478.2
411.15	596.98
411.358	564.22
411.567	654.33
411.775	599.03
411.984	592.89
412.192	736.24
412.401	642.04
412.609	631.8
412.818	697.33
413.026	699.38
413.234	799.73
413.443	752.63
413.651	764.92
413.86	877.55
414.068	928.75
414.276	895.99
414.485	902.13
414.693	1029.1
414.901	1068.02
415.11	1027.06
415.318	1104.88
415.526	1088.5
415.734	1162.22
415.943	1238
416.151	1266.67
416.359	1217.52
416.567	1248.24
416.776	1264.62
416.984	1387.5
417.192	1547.24
417.4	1453.03
417.608	1387.5
417.817	1534.95
418.025	1592.3
418.233	1868.77
418.441	1657.83
418.649	1784.8
418.857	1778.66
419.065	1795.04
419.273	1756.13
419.481	2026.47
419.689	2137.06
419.897	2235.36
420.105	2235.36
420.313	2294.75
420.521	2304.99
420.729	2522.07
420.937	2417.63
421.145	2628.57
421.353	2753.49
421.561	2759.64
421.769	2894.8
421.977	3128.27
422.185	3015.63
422.393	3185.62
422.601	3261.39
422.809	3337.17
423.017	3406.8
423.224	3541.96
423.432	3746.76
423.64	3572.68
423.848	3963.84
424.056	3818.44
424.263	3947.46
424.471	4256.7
424.679	4373.44
424.887	4545.47
425.094	4729.78
425.302	4660.15
425.51	4856.76
425.718	4842.42
425.925	4993.97
426.133	5438.38
426.341	5462.96
426.548	5686.19
426.756	5581.74
426.964	5749.67
427.171	6202.27
427.379	6265.76
427.586	6308.77
427.794	6503.32
428.001	6826.9
428.209	7021.46
428.417	6880.15
428.624	7580.56
428.832	7568.27
429.039	7486.35
429.247	7547.79
429.454	8170.37
429.662	8719.23
429.869	8321.92
430.076	8571.77
430.284	8534.91
430.491	8940.41
430.699	9485.17
430.906	9231.22
431.114	9407.34
431.321	9843.56
431.528	9968.49
431.736	10539.87
431.943	10976.09
432.15	10871.64
432.358	11029.34
432.565	11561.81
432.772	11539.28
432.979	12122.95
433.187	12073.8
433.394	12438.34
433.601	12995.39
433.808	13177.65
434.016	12942.14
434.223	13800.24
434.43	14435.11
434.637	14232.36
434.844	15045.4
435.052	15610.64
435.259	15389.46
435.466	15305.49
435.673	15203.1
435.88	16268.04
436.087	17185.53
436.294	17228.54
436.501	16847.61
436.708	17081.08
436.915	17779.44
437.122	18318.06
437.329	18553.57
437.537	19118.81
437.743	19188.44
437.95	19270.36
438.157	20040.4
438.364	20509.38
438.571	20701.89
438.778	20759.24
438.985	22661.8
439.192	21961.39
439.399	22397.61
439.606	21889.71
439.813	22944.42
440.02	24519.31
440.227	24345.23
440.433	23900.82
440.64	24402.57
440.847	24273.55
441.054	25361.02
441.261	26673.77
441.467	26358.38
441.674	26806.89
441.881	27830.87
442.088	27896.41
442.294	27880.02
442.501	28342.86
442.708	28756.55
442.914	30155.32
443.121	31011.37
443.328	30282.29
443.534	32541.2
443.741	31355.43
443.948	30872.1
444.154	33499.65
444.361	33198.6
444.568	33499.65
444.774	33659.39
444.981	33774.08
445.187	34666.99
445.394	36182.49
445.6	35576.29
445.807	38889.9
446.013	37398.98
446.22	38549.94
446.426	39137.71
446.633	39866.78
446.839	41468.3
447.046	39702.95
447.252	41595.27
447.459	41904.51
447.665	41646.47
447.871	43704.68
448.078	45093.2
448.284	42946.93
448.491	44231.01
448.697	46057.79
448.903	46907.7
449.11	46514.49
449.316	46233.92
449.522	46985.52
449.728	47911.2
449.935	48398.62
450.141	48419.1
450.347	49320.21
450.553	47698.22
450.76	48761.11
450.966	49914.12
451.172	49539.34
451.378	50444.54
451.584	49727.75
451.791	51034.36
451.997	50954.49
452.203	51804.39
452.409	51589.36
452.615	51446
452.821	49277.2
453.027	48992.53
453.233	51267.83
453.44	49533.2
453.646	50336
453.852	50204.93
454.058	51564.78
454.264	49297.68
454.47	50745.59
454.676	49154.32
454.882	50823.42
455.088	46526.78
455.294	47425.84
455.5	47937.83
455.705	48365.85
455.911	46543.16
456.117	46115.14
456.323	45070.67
456.529	42918.26
456.735	44677.46
456.941	43569.51
457.147	43034.99
457.352	41568.65
457.558	40962.45
457.764	41021.84
457.97	40231.32
458.176	39590.31
458.381	39459.24
458.587	37577.15
458.793	37874.11
458.999	35910.11
459.204	38013.37
459.41	37003.72
459.616	34841.07
459.821	34767.34
460.027	34623.98
460.233	33708.54
460.438	32076.31
460.644	32965.13
460.85	31187.49
461.055	30880.3
461.261	30548.53
461.466	28340.82
461.672	27505.24
461.878	29450.81
462.083	28004.95
462.289	26782.31
462.494	26466.92
462.7	25676.41
462.905	24828.55
463.111	26036.85
463.316	26014.32
463.522	25088.64
463.727	25313.92
463.932	24853.12
464.138	24900.23
464.343	25107.07
464.549	24230.54
464.754	25123.46
464.959	24971.91
465.165	24492.68
465.37	23726.74
465.575	22954.66
465.781	23997.07
465.986	23974.55
466.191	22966.95
466.397	22522.54
466.602	21887.67
466.807	22330.03
467.012	22104.75
467.218	22194.86
467.423	21922.48
467.628	22219.44
467.833	23282.33
468.038	22264.49
468.244	21299.9
468.449	22203.05
468.654	21437.11
468.859	21408.44
469.064	21756.6
469.269	20423.37
469.474	20738.76
469.679	20957.89
469.885	20366.03
470.09	20568.77
470.295	20749
470.5	19970.77
470.705	19978.96
470.91	19692.24
471.115	19383
471.32	19567.32
471.525	19471.06
471.73	19258.07
471.935	19026.65
472.139	18010.86
472.344	18625.25
472.549	18760.42
472.754	18191.08
472.959	17912.56
473.164	17613.56
473.369	17406.71
473.574	17871.6
473.778	17857.26
473.983	17636.08
474.188	17396.47
474.393	16665.35
474.598	16986.88
474.802	16706.31
475.007	16794.37
475.212	16630.53
475.417	15895.31
475.621	16091.91
475.826	16163.59
476.031	15631.12
476.235	15627.03
476.44	15532.82
476.645	15301.4
476.849	15205.14
477.054	15117.08
477.259	14861.09
477.463	14746.4
477.668	14752.54
477.872	14861.09
478.077	14551.84
478.282	13871.92
478.486	14000.94
478.691	13939.5
478.895	14123.82
479.1	13835.05
479.304	13796.14
479.509	13474.61
479.713	13925.16
479.918	13302.58
480.122	13126.46
480.326	13421.36
480.531	13302.58
480.735	13304.63
480.94	12974.91
481.144	13630.26
481.348	12956.47
481.553	13077.3
481.757	12436.29
481.961	12886.84
482.166	13191.99
482.37	12864.32
482.574	12700.48
482.778	12768.06
482.983	13114.17
483.187	12809.02
483.391	12892.99
483.595	12909.37
483.8	12714.81
484.004	12890.94
484.208	12745.53
484.412	12837.69
484.616	12913.47
484.821	12804.92
485.025	12510.02
485.229	13103.93
485.433	12690.24
485.637	12669.76
485.841	12753.73
486.045	12649.28
486.249	12704.57
486.453	12608.32
486.657	12741.44
486.861	12911.42
487.065	12385.09
487.269	12593.98
487.473	12471.11
487.677	12964.67
487.881	12768.06
488.085	12618.56
488.289	12634.94
488.493	12608.32
488.697	12778.3
488.901	12712.77
489.105	12745.53
489.309	12942.14
489.512	12593.98
489.716	12745.53
489.92	12819.26
490.124	12718.91
490.328	13013.82
490.531	12909.37
490.735	12806.97
490.939	12901.18
491.143	12862.27
491.346	12835.64
491.55	13280.05
491.754	12997.43
491.958	13183.8
492.161	13312.82
492.365	13126.46
492.569	13091.64
492.772	13288.25
492.976	13531.95
493.18	13411.12
493.383	13480.75
493.587	13679.41
493.79	13761.33
493.994	13755.18
494.197	13531.95
494.401	13916.97
494.605	13835.05
494.808	14023.47
495.012	13865.77
495.215	14207.78
495.419	14179.11
495.622	14428.96
495.825	14318.37
496.029	14527.27
496.232	14740.26
496.436	14781.21
496.639	15039.26
496.843	14695.2
497.046	15155.99
497.249	15399.7
497.453	15401.75
497.656	15571.73
497.859	15577.87
498.063	15706.9
498.266	16237.32
498.469	15788.82
498.673	16259.85
498.876	16603.91
499.079	16481.03
499.282	16495.36
499.485	16974.59
499.689	16716.54
499.892	17079.04
500.095	17031.93
500.298	17527.54
500.501	17421.05
500.705	18043.63
500.908	18139.88
501.111	18356.97
501.314	18506.47
501.517	18518.76
501.72	18721.51
501.923	18500.33
502.126	19221.21
502.329	19372.76
502.532	19577.56
502.735	19663.57
502.938	20073.17
503.141	20013.77
503.344	20222.67
503.547	20290.25
503.75	20669.12
503.953	20847.3
504.156	21199.55
504.359	21353.15
504.562	21211.84
504.765	22092.46
504.968	22307.5
505.17	22446.76
505.373	22207.15
505.576	22604.46
505.779	23302.81
505.982	23050.91
506.185	23335.58
506.387	23577.24
506.59	23804.56
506.793	24234.64
506.996	24128.14
507.198	24916.61
507.401	24539.79
507.604	24820.36
507.807	25164.42
508.009	25463.42
508.212	25690.74
508.415	25956.98
508.617	26430.06
508.82	26309.23
509.022	26542.7
509.225	27105.89
509.428	27064.93
509.63	27351.65
509.833	27505.24
510.035	28152.4
510.238	28217.94
510.44	28330.58
510.643	28906.05
510.845	29221.44
511.048	28973.64
511.25	29418.05
511.453	29567.55
511.655	30583.34
511.858	30251.57
512.06	30433.84
512.262	30634.54
512.465	30947.88
512.667	31293.99
512.87	31459.87
513.072	31552.03
513.274	32332.31
513.477	32358.93
513.679	32688.65
513.881	32918.03
514.084	33501.7
514.286	33462.79
514.488	33602.05
514.69	34353.65
514.893	34390.52
515.095	34640.37
515.297	35049.96
515.499	35353.06
515.701	35742.17
515.904	35932.64
516.106	36295.13
516.308	36409.81
516.51	36993.48
516.712	36823.5
516.914	37466.56
517.116	37804.48
517.318	37818.81
517.52	38261.18
517.722	37960.12
517.925	38810.03
518.127	39152.04
518.329	39172.52
518.531	38793.65
518.733	40278.43
518.935	40012.19
519.136	40006.05
519.338	40409.5
519.54	40663.44
519.742	41361.8
519.944	41353.61
520.146	42111.36
520.348	41599.37
520.55	42185.08
520.752	42250.62
520.954	42797.43
521.155	42668.4
521.357	43372.91
521.559	43598.18
521.761	44110.17
521.963	43747.68
522.164	43956.58
522.366	43942.24
522.568	44472.67
522.77	44534.1
522.971	45113.68
523.173	44749.14
523.375	45254.99
523.576	45044.05
523.778	45281.61
523.98	45369.68
524.181	45662.54
524.383	46086.46
524.584	46451
524.786	46158.14
524.988	46180.67
525.189	46700.86
525.391	46672.18
525.592	46764.34
525.794	46924.08
525.995	47104.31
526.197	47255.85
526.398	47042.87
526.6	47278.38
526.801	47573.29
527.003	47810.85
527.204	47681.83
527.406	48304.41
527.607	47601.96
527.808	48230.69
528.01	47309.1
528.211	47857.96
528.412	48591.13
528.614	48234.78
528.815	48105.76
529.016	48423.2
529.218	47821.09
529.419	48503.07
529.62	47794.47
529.822	48314.65
530.023	48048.42
530.224	48797.98
530.425	48189.73
530.626	47317.29
530.828	47628.59
531.029	48179.49
531.23	48148.77
531.431	48075.04
531.632	48072.99
531.833	48312.61
532.035	48283.94
532.236	48167.2
532.437	48156.96
532.638	47601.96
532.839	48019.75
533.04	48136.48
533.241	47817
533.442	48189.73
533.643	47769.9
533.844	47485.23
534.045	47960.36
534.246	47354.16
534.447	47714.6
534.648	47567.15
534.849	47352.11
535.05	47493.42
535.251	47671.59
535.451	47759.66
535.652	47866.15
535.853	47198.51
536.054	47200.56
536.255	47597.87
536.456	46752.05
536.657	47423.79
536.857	47001.91
537.058	46930.23
537.259	46803.25
537.46	46944.56
537.66	46764.34
537.861	46995.76
538.062	46762.29
538.263	47569.19
538.463	46690.62
538.664	46760.25
538.865	47028.53
539.065	47186.22
539.266	46707
539.466	46797.11
539.667	46246.21
539.868	46821.69
540.068	46633.27
540.269	46666.04
540.469	46500.15
540.67	46608.7
540.87	46420.28
541.071	46547.26
541.271	46287.17
541.472	46229.82
541.672	46137.66
541.873	45971.78
542.073	45590.86
542.274	46537.02
542.474	45803.85
542.675	45345.1
542.875	46289.21
543.075	46192.96
543.276	45369.68
543.476	46068.03
543.676	45658.44
543.877	46037.31
544.077	45928.77
544.277	45523.27
544.478	46016.83
544.678	46068.03
544.878	45482.31
545.078	46211.39
545.279	45533.51
545.479	45551.94
545.679	45709.64
545.879	45898.05
546.079	45721.93
546.28	45820.23
546.48	45597
546.68	45969.73
546.88	45474.12
547.08	45783.37
547.28	45508.94
547.48	45510.99
547.68	45957.44
547.88	45330.76
548.081	45439.31
548.281	45599.05
548.481	45601.1
548.681	45809.99
548.881	45824.32
549.081	45666.63
549.28	45576.52
549.48	45814.08
549.68	45529.42
549.88	46004.55
550.08	45214.03
550.28	45685.06
550.48	45236.56
550.68	45971.78
550.88	45445.45
551.08	45678.92
551.279	45707.59
551.479	45312.33
551.679	45781.32
551.879	45687.11
552.079	46188.86
552.278	45379.92
552.478	46125.38
552.678	45943.11
552.878	45875.52
553.077	45742.41
553.277	45441.35
553.477	45975.87
553.676	45738.31
553.876	45611.34
554.076	45672.78
554.275	45662.54
554.475	45482.31
554.674	45562.18
554.874	45730.12
555.074	45533.51
555.273	46162.24
555.473	45910.34
555.672	45871.43
555.872	45629.77
556.071	46078.27
556.271	46547.26
556.47	45809.99
556.67	45574.47
556.869	45879.62
557.068	46043.46
557.268	45928.77
557.467	45834.56
557.667	45797.7
557.866	45785.41
558.065	45513.03
558.265	45609.29
558.464	46096.7
558.663	46330.17
558.863	45214.03
559.062	46457.15
559.261	45443.4
559.461	46287.17
559.66	45576.52
559.859	45799.75
560.058	45455.69
560.258	45551.94
560.457	45611.34
560.656	45764.93
560.855	45752.65
561.054	46000.45
561.253	45607.24
561.453	45615.43
561.652	45721.93
561.851	45928.77
562.05	45551.94
562.249	45427.02
562.448	45961.54
562.647	45447.5
562.846	45531.47
563.045	45656.39
563.244	45224.27
563.443	45588.81
563.642	44831.06
563.841	45343.05
564.04	45203.79
564.239	45551.94
564.438	45142.35
564.637	45560.14
564.836	45338.96
565.035	44786
565.234	45277.52
565.432	44650.84
565.631	44894.55
565.83	45422.92
566.029	44808.53
566.228	44620.12
566.427	44642.65
566.625	44699.99
566.824	44497.24
567.023	44654.93
567.222	43993.44
567.42	44540.25
567.619	44128.61
567.818	44826.96
568.016	43929.95
568.215	44728.66
568.414	44157.28
568.612	44255.58
568.811	44058.98
569.01	43909.47
569.208	43446.63
569.407	43897.19
569.605	43135.34
569.804	43886.95
570.002	43428.2
570.201	43442.54
570.4	42959.22
570.598	43026.8
570.797	43303.28
570.995	43014.51
571.193	42652.02
571.392	43684.2
571.59	42549.62
571.789	42991.98
571.987	42955.12
572.186	42293.63
572.384	42160.51
572.582	42873.2
572.781	42844.53
572.979	41888.13
573.177	42178.94
573.376	42584.44
573.574	41865.6
573.772	42135.93
573.971	41771.39
574.169	41683.33
574.367	41453.96
574.565	41599.37
574.763	41771.39
574.962	41437.58
575.16	41050.51
575.358	41128.33
575.556	40632.72
575.754	41109.9
575.952	40235.42
576.151	40982.93
576.349	40079.77
576.547	40604.05
576.745	40448.41
576.943	40782.23
577.141	40468.89
577.339	40651.16
577.537	40053.15
577.735	39948.7
577.933	39944.61
578.131	39928.22
578.329	39858.59
578.527	39338.41
578.725	39276.97
578.923	40032.67
579.121	39342.5
579.319	39383.46
579.516	39465.38
579.714	39670.18
579.912	39170.47
580.11	38435.25
580.308	38875.57
580.506	39113.13
580.704	38201.79
580.901	38631.86
581.099	39043.5
581.297	38148.54
581.495	38087.1
581.692	38527.41
581.89	37902.78
582.088	38576.56
582.285	38005.18
582.483	37953.98
582.681	37806.53
582.878	37818.81
583.076	37542.34
583.274	37628.35
583.471	37310.92
583.669	37384.65
583.866	37108.17
584.064	37829.05
584.262	36733.39
584.459	37308.87
584.657	36862.41
584.854	37134.79
585.052	36499.92
585.249	36854.22
585.447	36745.68
585.644	36282.84
585.841	36846.03
586.039	36667.86
586.236	35920.35
586.434	36108.76
586.631	36137.43
586.828	36047.32
587.026	36041.18
587.223	36280.79
587.42	35918.3
587.618	35543.52
587.815	35611.1
588.012	35727.84
588.21	35338.72
588.407	35752.41
588.604	35310.05
588.801	35525.09
588.999	35209.7
589.196	35144.17
589.393	34904.56
589.59	34847.21
589.787	34591.22
589.984	34828.78
590.182	34546.16
590.379	34957.8
590.576	34361.84
590.773	34464.24
590.97	34163.19
591.167	34277.88
591.364	33958.39
591.561	33868.28
591.758	33892.86
591.955	34167.29
592.152	34198.01
592.349	33944.06
592.546	33870.33
592.743	33905.15
592.94	33600
593.137	33767.93
593.334	33612.29
593.531	33239.56
593.727	33550.85
593.924	33673.73
594.121	33366.53
594.318	33536.51
594.515	33200.65
594.712	33446.4
594.908	33159.69
595.105	33141.25
595.302	32901.64
595.499	32870.92
595.696	32905.74
595.892	32662.03
596.089	32643.6
596.286	33047.05
596.482	32930.31
596.679	32647.69
596.876	32717.32
597.072	32322.07
597.269	32778.76
597.466	32580.11
597.662	32481.81
597.859	32666.13
598.055	32389.65
598.252	32352.79
598.448	32524.82
598.645	32494.1
598.841	32223.76
599.038	32252.44
599.234	31941.14
599.431	31777.31
599.627	32307.73
599.824	31713.82
600.02	32117.27
600.217	32088.6
600.413	31750.68
600.609	32117.27
600.806	31793.69
601.002	32145.94
601.198	31967.77
601.395	31650.33
601.591	31687.2
601.787	31820.31
601.984	31867.42
602.18	31994.39
602.376	31597.09
602.572	31924.76
602.769	31470.11
602.965	31646.24
603.161	32029.21
603.357	31488.54
603.553	31517.22
603.75	31511.07
603.946	31267.36
604.142	31691.29
604.338	31293.99
604.534	31676.96
604.73	31470.11
604.926	31881.75
605.122	31646.24
605.318	30958.12
605.514	31369.76
605.71	31162.92
605.906	31253.03
606.102	31722.01
606.298	31543.84
606.494	31210.02
606.69	31470.11
606.886	31885.85
607.082	31183.4
607.278	31756.83
607.474	31195.68
607.67	31672.86
607.866	31279.65
608.062	32053.78
608.257	31414.82
608.453	31760.92
608.649	31580.7
608.845	31400.48
609.041	31590.94
609.236	31664.67
609.432	31466.02
609.628	31570.46
609.824	31752.73
610.019	31466.02
610.215	31650.33
610.411	31623.71
610.606	31719.96
610.802	31715.87
610.998	31787.55
611.193	31709.72
611.389	31736.35
611.584	31777.31
611.78	31552.03
611.976	31971.86
612.171	31920.66
612.367	31662.62
612.562	31377.95
612.758	31402.53
612.953	31754.78
613.149	32039.45
613.344	31347.23
613.539	32008.73
613.735	31707.68
613.93	31959.58
614.126	31695.39
614.321	32147.99
614.517	31842.84
614.712	31636
614.907	31496.74
615.103	31644.19
615.298	31664.67
615.493	32080.41
615.688	31543.84
615.884	32283.16
616.079	30890.54
616.274	31590.94
616.47	31713.82
616.665	31590.94
616.86	31787.55
617.055	31676.96
617.25	31492.64
617.445	31879.71
617.641	31406.62
617.836	31353.38
618.031	30978.6
618.226	31480.35
618.421	31054.37
618.616	31433.25
618.811	30734.89
619.006	31367.71
619.201	30601.77
619.396	31169.06
619.591	30431.79
619.786	31033.89
619.981	30569.01
620.176	30751.27
620.371	30270
620.566	30446.13
620.761	30091.83
620.956	30274.1
621.151	29940.28
621.346	29876.79
621.541	29702.71
621.735	30282.29
621.93	29606.46
622.125	29694.52
622.32	29246.02
622.515	29411.9
622.709	29430.33
622.904	28889.67
623.099	29016.65
623.294	28781.13
623.488	28158.55
623.683	28815.94
623.878	28101.2
624.072	28500.56
624.267	28000.85
624.462	28125.78
624.656	27834.97
624.851	28050
625.046	27601.5
625.24	27581.02
625.435	27267.68
625.629	27476.57
625.824	27095.65
626.018	27511.39
626.213	26581.61
626.407	26966.63
626.602	26303.09
626.796	26815.08
626.991	26440.3
627.185	26655.34
627.38	26157.68
627.574	26063.47
627.768	25815.67
627.963	25737.85
628.157	25776.76
628.352	25549.43
628.546	25244.29
628.74	25377.4
628.935	25211.52
629.129	25311.87
629.323	24826.5
629.517	25019.01
629.712	24640.14
629.906	24482.44
630.1	24453.77
630.294	24513.16
630.489	24048.27
630.683	24328.84
630.877	24029.84
631.071	23911.06
631.265	23929.49
631.459	23523.99
631.653	23448.22
631.848	23880.34
632.042	23083.68
632.236	23519.9
632.43	23044.77
632.624	22909.6
632.818	22659.75
633.012	22684.33
633.206	22399.66
633.4	22418.09
633.594	22465.19
633.788	22219.44
633.982	22297.26
634.176	22215.34
634.369	22055.6
634.563	21809.84
634.757	21709.49
634.951	21674.68
635.145	21447.35
635.339	21619.38
635.533	21492.41
635.726	21400.25
635.92	20888.26
636.114	21002.94
636.308	20798.15
636.501	21142.21
636.695	20720.32
636.889	20519.62
637.083	20474.57
637.276	20318.92
637.47	20372.17
637.664	20103.89
637.857	20357.83
638.051	20126.41
638.244	19634.9
638.438	19778.26
638.632	19618.52
638.825	19364.57
639.019	19454.68
639.212	19133.15
639.406	19276.51
639.599	19059.42
639.793	18987.74
639.986	18567.91
640.18	18680.55
640.373	18727.65
640.567	18320.1
640.76	18510.57
640.954	18373.35
641.147	18189.03
641.34	18152.17
641.534	18299.62
641.727	18027.24
641.92	17900.27
642.114	17769.2
642.307	17578.74
642.5	17558.26
642.694	17459.96
642.887	17386.23
643.08	17529.59
643.273	17117.95
643.467	16964.35
643.66	16890.62
643.853	16855.81
644.046	16820.99
644.239	16825.09
644.432	16489.22
644.626	16399.11
644.819	16319.24
645.012	16395.01
645.205	16265.99
645.398	16055.05
645.591	15870.73
645.784	16071.43
645.977	15866.64
646.17	15860.49
646.363	15592.21
646.556	15487.76
646.749	15325.97
646.942	15612.69
647.135	15223.58
647.328	15178.52
647.521	15121.18
647.714	14893.85
647.907	14947.1
648.099	14912.28
648.292	14752.54
648.485	14756.64
648.678	14656.29
648.871	14469.92
649.064	14371.62
649.256	14326.57
649.449	13962.03
649.642	14324.52
649.835	14058.28
650.027	14170.92
650.22	13749.04
650.413	13796.14
650.605	13726.51
650.798	13763.37
650.991	13589.3
651.183	13740.85
651.376	13544.24
651.568	13482.8
651.761	13263.67
651.954	13564.72
652.146	13079.35
652.339	13191.99
652.531	13175.61
652.724	13026.11
652.916	12839.74
653.109	13022.01
653.301	12868.41
653.494	12589.89
653.686	12655.42
653.879	12770.11
654.071	12493.63
654.263	12319.56
654.456	12424
654.648	12460.87
654.84	12366.66
655.033	12159.81
655.225	12012.36
655.417	12143.43
655.61	11946.83
655.802	11942.73
655.994	11645.77
656.186	12053.32
656.379	11739.98
656.571	11840.33
656.763	11617.1
656.955	11520.85
657.148	11469.65
657.34	11623.25
657.532	11285.33
657.724	11395.92
657.916	11404.11
658.108	11203.41
658.3	11160.41
658.492	11029.34
658.684	11000.66
658.876	11008.86
659.068	10957.66
659.26	10654.56
659.452	10974.04
659.644	10793.82
659.836	10492.77
660.028	10693.47
660.22	10386.27
660.412	10294.11
660.604	10443.62
660.796	10404.71
660.988	10150.76
661.18	10115.94
661.372	10001.26
661.563	10079.08
661.755	9935.72
661.947	10154.85
662.139	9927.53
662.331	9978.73
662.522	9730.92
662.714	9735.02
662.906	9667.44
663.097	9501.55
663.289	9712.49
663.481	9585.52
663.673	9550.7
663.864	9550.7
664.056	9261.94
664.247	9380.72
664.439	9378.67
664.631	9243.51
664.822	9173.88
665.014	8983.41
665.205	9151.35
665.397	9003.89
665.588	9132.92
665.78	8997.75
665.971	9001.85
666.163	8872.82
666.354	8711.04
666.546	8725.37
666.737	8594.3
666.929	8747.9
667.12	8735.61
667.311	8766.33
667.503	8518.53
667.694	8403.84
667.885	8629.12
668.077	8297.35
668.268	8498.05
668.459	8145.8
668.651	8213.38
668.842	8395.65
669.033	8178.56
669.224	8170.37
669.416	8289.15
669.607	8223.62
669.798	8125.32
669.989	8217.47
670.18	8084.36
670.371	8051.59
670.563	8102.79
670.754	7834.5
670.945	7865.22
671.136	7799.69
671.327	7908.23
671.518	7748.49
671.709	7814.02
671.9	7760.78
672.091	7682.95
672.282	7510.93
672.473	7383.95
672.664	7519.12
672.855	7420.81
673.046	7498.64
673.237	7613.32
673.428	7463.82
673.619	7398.29
673.809	7289.74
674	7467.92
674.191	7316.37
674.382	7455.63
674.573	7340.94
674.764	7342.99
674.954	7351.18
675.145	7265.17
675.336	7314.32
675.527	7242.64
675.717	7244.69
675.908	6951.83
676.099	7166.87
676.289	7148.43
676.48	7103.38
676.671	6925.21
676.861	7121.81
677.052	6908.82
677.243	6845.34
677.433	7011.22
677.624	6876.06
677.814	6798.23
678.005	6990.74
678.195	6845.34
678.386	7007.13
678.576	6839.19
678.767	6736.79
678.957	6841.24
679.148	6841.24
679.338	6921.11
679.529	6658.97
679.719	6800.28
679.909	6849.43
680.1	6673.31
680.29	6740.89
680.481	6658.97
680.671	6652.83
680.861	6626.2
681.052	6658.97
681.242	6620.06
681.432	6669.21
681.622	6718.36
681.813	6611.87
682.003	6507.42
682.193	6523.8
682.383	6570.91
682.573	6527.9
682.764	6437.79
682.954	6507.42
683.144	6546.33
683.334	6355.87
683.524	6448.03
683.714	6343.58
683.904	6323.1
684.094	6396.83
684.284	6353.82
684.474	6519.71
684.664	6331.3
684.854	6202.27
685.044	6302.62
685.234	6351.78
685.424	6257.57
685.614	6069.16
685.804	6228.9
685.994	6372.25
686.184	6200.23
686.374	6079.4
686.564	6245.28
686.753	6378.4
686.943	6089.64
687.133	6060.96
687.323	6069.16
687.513	5993.38
687.702	6093.73
687.892	6136.74
688.082	6044.58
688.272	6028.2
688.461	6153.12
688.651	6073.25
688.841	5962.66
689.03	5958.57
689.22	5921.7
689.41	6144.93
689.599	5774.25
689.789	5809.06
689.979	5923.75
690.168	5858.21
690.358	5858.21
690.547	5807.02
690.737	5811.11
690.926	5804.97
691.116	5776.3
691.305	5839.78
691.495	5661.61
691.684	5641.13
691.874	5663.66
692.063	5700.52
692.252	5553.07
692.442	5706.66
692.631	5503.92
692.82	5604.27
693.01	5442.48
693.199	5485.48
693.388	5422
693.578	5413.81
693.767	5577.64
693.956	5481.39
694.146	5307.31
694.335	5485.48
694.524	5315.5
694.713	5452.72
694.902	5438.38
695.092	5458.86
695.281	5309.36
695.47	5225.39
695.659	5338.03
695.848	5176.24
696.037	5333.93
696.226	5348.27
696.415	5229.49
696.604	5237.68
696.793	5180.34
696.982	5290.93
697.171	5270.45
697.36	5106.61
697.549	5151.67
697.738	5151.67
697.927	4938.68
698.116	5030.84
698.305	5194.67
698.494	5071.79
698.683	5073.84
698.872	5147.57
699.061	5053.36
699.25	5026.74
699.438	4920.24
699.627	5106.61
699.816	5135.28
700.005	4981.68
700.193	5022.64
700.382	4963.25
700.571	5008.31
700.76	4852.66
700.948	4887.48
701.137	4828.09
701.326	4873.14
701.514	4688.82
701.703	4733.88
701.892	4811.7
702.08	4778.94
702.269	4797.37
702.457	4643.77
702.646	4864.95
702.834	4750.26
703.023	4670.39
703.212	4791.22
703.4	4770.74
703.589	4580.28
703.777	4578.23
703.965	4490.17
704.154	4555.71
704.342	4688.82
704.531	4522.94
704.719	4570.04
704.907	4733.88
705.096	4567.99
705.284	4504.51
705.472	4553.66
705.661	4559.8
705.849	4527.03
706.037	4430.78
706.226	4594.62
706.414	4447.16
706.602	4295.61
706.79	4488.12
706.979	4414.4
707.167	4256.7
707.355	4477.88
707.543	4361.15
707.731	4504.51
707.919	4314.05
708.107	4164.54
708.296	4330.43
708.484	4195.26
708.672	4275.13
708.86	4203.46
709.048	4266.94
709.236	4105.15
709.424	4287.42
709.612	4228.03
709.8	4115.39
709.988	4123.59
710.176	4121.54
710.364	4266.94
710.551	4113.35
710.739	4008.9
710.927	4217.79
711.115	4096.96
711.303	4045.76
711.491	3984.32
711.679	4023.23
711.866	4088.77
712.054	4006.85
712.242	3963.84
712.43	4082.63
712.617	3963.84
712.805	3957.7
712.993	4053.95
713.181	3922.88
713.368	3834.82
713.556	3881.92
713.744	3875.78
713.931	3939.27
714.119	3845.06
714.306	3781.57
714.494	3918.79
714.682	3804.1
714.869	3697.61
715.057	3759.05
715.244	3769.29
715.432	3744.71
715.619	3703.75
715.807	3785.67
715.994	3810.25
716.182	3687.37
716.369	3646.41
716.556	3730.38
716.744	3845.06
716.931	3652.55
717.119	3701.7
717.306	3771.33
717.493	3791.81
717.681	3662.79
717.868	3574.73
718.055	3613.64
718.242	3570.63
718.43	3480.52
718.617	3578.83
718.804	3529.67
718.991	3431.37
719.179	3374.03
719.366	3584.97
719.553	3627.98
719.74	3580.87
719.927	3455.95
720.114	3498.95
720.301	3515.34
720.488	3423.18
720.676	3380.17
720.863	3482.57
721.05	3449.8
721.237	3484.62
721.424	3185.62
721.611	3501
721.798	3333.07
721.985	3292.11
722.172	3230.67
722.358	3245.01
722.545	3228.62
722.732	3296.21
722.919	3425.23
723.106	3316.69
723.293	3150.8
723.48	3193.81
723.667	3245.01
723.853	3283.92
724.04	3245.01
724.227	3324.88
724.414	3154.9
724.6	3240.91
724.787	3197.9
724.974	3349.45
725.161	3148.75
725.347	3085.26
725.534	3165.14
725.72	3169.23
725.907	3115.98
726.094	3197.9
726.28	3130.32
726.467	3042.26
726.653	3083.22
726.84	2931.67
727.027	3105.74
727.213	3089.36
727.4	3199.95
727.586	2964.43
727.773	2968.53
727.959	3050.45
728.145	3089.36
728.332	3115.98
728.518	2997.2
728.705	3062.74
728.891	2874.32
729.077	2968.53
729.264	2939.86
729.45	2900.95
729.636	2878.42
729.823	3054.55
730.009	2964.43
730.195	2917.33
730.382	2972.63
730.568	2921.43
730.754	2857.94
730.94	2849.75
731.126	2907.09
731.313	3005.39
731.499	2868.18
731.685	2911.19
731.871	2970.58
732.057	2868.18
732.243	2935.76
732.429	2776.02
732.615	2903
732.801	2859.99
732.987	2884.56
733.173	2767.83
733.359	2747.35
733.545	2737.11
733.731	2886.61
733.917	2825.17
734.103	2810.84
734.289	2821.08
734.475	2739.16
734.661	2816.98
734.847	2591.7
735.033	2814.93
735.219	2788.31
735.404	2647
735.59	2591.7
735.776	2638.81
735.962	2784.21
736.148	2735.06
736.333	2649.05
736.519	2563.03
736.705	2710.49
736.89	2642.9
737.076	2638.81
737.262	2628.57
737.447	2728.92
737.633	2509.79
737.819	2663.38
738.004	2730.97
738.19	2612.18
738.375	2653.14
738.561	2556.89
738.747	2599.9
738.932	2581.46
739.118	2606.04
739.303	2579.42
739.489	2458.59
739.674	2448.35
739.859	2425.82
740.045	2528.22
740.23	2560.98
740.416	2546.65
740.601	2489.31
740.786	2354.14
740.972	2391
741.157	2487.26
741.342	2333.66
741.528	2341.85
741.713	2515.93
741.898	2477.02
742.084	2393.05
742.269	2415.58
742.454	2401.24
742.639	2360.28
742.824	2356.19
743.01	2327.52
743.195	2415.58
743.38	2350.04
743.565	2360.28
743.75	2325.47
743.935	2210.78
744.12	2272.22
744.305	2194.4
744.49	2190.3
744.675	2184.16
744.86	2178.01
745.045	2075.62
745.23	2198.49
745.415	2139.1
745.6	2143.2
745.785	2139.1
745.97	2229.21
746.155	2186.21
746.34	2235.36
746.525	2141.15
746.71	2024.42
746.895	2067.42
747.079	2073.57
747.264	2036.7
747.449	2106.34
747.634	2075.62
747.819	2112.48
748.003	2032.61
748.188	1989.6
748.373	1989.6
748.557	2057.18
748.742	1924.07
748.927	1907.68
749.111	1950.69
749.296	1969.12
749.481	1997.79
749.665	1827.81
749.85	1883.11
750.034	1850.34
750.219	1971.17
750.404	1809.38
750.588	1844.2
750.773	1831.91
750.957	1809.38
751.141	1805.28
751.326	1874.92
751.51	1643.49
751.695	1735.65
751.879	1793
752.064	1821.67
752.248	1758.18
752.432	1727.46
752.617	1696.74
752.801	1694.69
752.985	1623.02
753.17	1592.3
753.354	1735.65
753.538	1612.78
753.722	1600.49
753.907	1614.82
754.091	1612.78
754.275	1588.2
754.459	1549.29
754.643	1623.02
754.828	1547.24
755.012	1606.63
755.196	1493.99
755.38	1403.88
755.564	1534.95
755.748	1518.57
755.932	1530.86
756.116	1539.05
756.3	1469.42
756.484	1502.19
756.668	1498.09
756.852	1364.97
757.036	1414.12
757.22	1442.79
757.404	1375.21
757.588	1453.03
757.772	1428.46
757.956	1412.07
758.14	1328.11
758.323	1358.83
758.507	1440.75
758.691	1278.96
758.875	1364.97
759.059	1377.26
759.242	1377.26
759.426	1367.02
759.61	1379.31
759.794	1248.24
759.977	1278.96
760.161	1342.44
760.345	1420.27
760.528	1289.2
760.712	1356.78
760.895	1264.62
761.079	1307.63
761.263	1328.11
761.446	1190.89
761.63	1229.81
761.813	1254.38
761.997	1115.12
762.18	1162.22
762.364	1289.2
762.547	1170.41
762.731	1299.44
762.914	1238
763.098	1104.88
763.281	1172.46
763.464	1113.07
763.648	1240.05
763.831	1162.22
764.015	1205.23
764.198	1211.37
764.381	1203.18
764.564	1129.45
764.748	1121.26
764.931	1143.79
765.114	1131.5
765.297	1166.32
765.481	1104.88
765.664	1096.69
765.847	1000.43
766.03	1162.22
766.213	1065.97
766.397	1059.82
766.58	1088.5
766.763	1141.74
766.946	1092.59
767.129	1084.4
767.312	1037.3
767.495	1047.54
767.678	1033.2
767.861	965.62
768.044	1020.91
768.227	1088.5
768.41	1096.69
768.593	1125.36
768.776	1127.41
768.959	1008.62
769.142	1111.02
769.324	998.38
769.507	1076.21
769.69	1049.58
769.873	990.19
770.056	1074.16
770.239	967.67
770.421	1035.25
770.604	1047.54
770.787	1031.15
770.97	924.66
771.152	924.66
771.335	1010.67
771.518	959.47
771.7	1018.86
771.883	848.88
772.066	1008.62
772.248	814.07
772.431	1027.06
772.613	1031.15
772.796	908.27
772.978	1006.58
773.161	938.99
773.343	873.46
773.526	863.22
773.708	836.6
773.891	863.22
774.073	945.14
774.256	842.74
774.438	965.62
774.621	891.89
774.803	955.38
774.985	885.75
775.168	809.97
775.35	859.12
775.532	820.21
775.715	752.63
775.897	797.68
776.079	824.31
776.261	857.07
776.444	840.69
776.626	795.64
776.808	824.31
776.99	812.02
777.173	795.64
777.355	818.16
777.537	816.12
777.719	752.63
777.901	762.87
778.083	846.84
778.265	769.01
778.447	736.24
778.629	826.36
778.811	709.62
778.993	779.25
779.175	738.29
779.357	789.49
779.539	621.56
779.721	736.24
779.903	744.44
780.085	764.92
780.267	705.53
780.449	711.67
780.631	752.63
780.812	705.53
780.994	683
781.176	699.38
781.358	629.75
781.54	662.52
781.721	695.29
781.903	701.43
782.085	635.89
782.267	646.13
782.448	576.5
782.63	642.04
782.812	623.61
782.993	592.89
783.175	646.13
783.357	574.46
783.538	642.04
783.72	510.97
783.901	588.79
784.083	623.61
784.264	635.89
784.446	560.12
784.627	508.92
784.809	629.75
784.99	576.5
785.172	578.55
785.353	510.97
785.535	549.88
785.716	537.59
785.897	451.58
786.079	549.88
786.26	605.17
786.441	498.68
786.623	482.3
786.804	531.45
786.985	539.64
787.167	549.88
787.348	574.46
787.529	482.3
787.71	506.87
787.891	531.45
788.073	502.78
788.254	433.15
788.435	461.82
788.616	445.43
788.797	441.34
788.978	445.43
789.159	474.1
789.34	435.19
789.522	467.96
789.703	527.35
789.884	504.82
790.065	533.5
790.246	506.87
790.427	476.15
790.607	525.3
790.788	517.11
790.969	449.53
791.15	457.72
791.331	424.95
791.512	402.43
791.693	377.85
791.874	441.34
792.054	513.02
792.235	453.63
792.416	433.15
792.597	433.15
792.778	429.05
792.958	369.66
793.139	396.28
793.32	416.76
793.5	394.23
793.681	461.82
793.862	420.86
794.042	451.58
794.223	345.08
794.404	400.38
794.584	289.79
794.765	359.42
794.945	318.46
795.126	427
795.306	367.61
795.487	383.99
795.667	392.19
795.848	416.76
796.028	394.23
796.209	394.23
796.389	351.23
796.57	336.89
796.75	334.84
796.93	367.61
797.111	259.07
797.291	318.46
797.471	343.03
797.652	404.47
797.832	355.32
798.012	316.41
798.192	277.5
798.373	334.84
798.553	345.08
798.733	320.51
798.913	308.22
799.093	297.98
799.274	334.84
799.454	330.75
799.634	355.32
799.814	351.23
799.994	281.6
800.174	351.23
800.354	343.03
800.534	209.92
800.714	293.88
800.894	285.69
801.074	226.3
801.254	263.16
801.434	275.45
801.614	312.32
801.794	277.5
801.974	1027.06
802.154	312.32
802.334	222.2
802.514	224.25
802.693	267.26
802.873	222.2
803.053	285.69
803.233	293.88
803.413	265.21
803.592	347.13
803.772	244.73
803.952	371.71
804.131	285.69
804.311	283.64
804.491	306.17
804.67	273.4
804.85	250.88
805.03	273.4
805.209	336.89
805.389	271.36
805.568	203.77
805.748	220.16
805.928	224.25
806.107	277.5
806.287	199.68
806.466	269.31
806.646	285.69
806.825	318.46
807.004	318.46
807.184	310.27
807.363	220.16
807.543	273.4
807.722	232.44
807.901	246.78
808.081	279.55
808.26	222.2
808.439	222.2
808.619	214.01
808.798	197.63
808.977	269.31
809.156	125.95
809.336	224.25
809.515	293.88
809.694	214.01
809.873	240.64
810.052	214.01
810.231	271.36
810.411	211.96
810.59	254.97
810.769	197.63
810.948	236.54
811.127	148.48
811.306	269.31
811.485	162.81
811.664	246.78
811.843	259.07
812.022	189.44
812.201	197.63
812.38	183.29
812.559	207.87
812.737	246.78
812.916	189.44
813.095	171.01
813.274	162.81
813.453	214.01
813.632	269.31
813.811	220.16
813.989	99.33
814.168	187.39
814.347	207.87
814.526	148.48
814.704	220.16
814.883	242.68
815.062	228.35
815.24	173.05
815.419	99.33
815.598	230.4
815.776	197.63
815.955	187.39
816.133	148.48
816.312	240.64
816.49	175.1
816.669	132.09
816.847	183.29
817.026	218.11
817.204	214.01
817.383	140.29
817.561	185.34
817.74	185.34
817.918	254.97
818.097	154.62
818.275	136.19
818.453	177.15
818.632	142.33
818.81	171.01
818.988	111.61
819.167	113.66
819.345	168.96
819.523	156.67
819.701	164.86
819.879	156.67
820.058	185.34
820.236	220.16
820.414	156.67
820.592	128
820.77	146.43
820.948	156.67
821.127	97.28
821.305	160.77
821.483	179.2
821.661	222.2
821.839	130.05
822.017	173.05
822.195	154.62
822.373	189.44
822.551	138.24
822.729	177.15
822.907	136.19
823.085	211.96
823.262	203.77
823.44	128
823.618	205.82
823.796	171.01
823.974	109.57
824.152	115.71
824.329	150.53
824.507	152.57
824.685	119.81
824.863	205.82
825.04	87.04
825.218	138.24
825.396	138.24
825.574	138.24
825.751	179.2
825.929	203.77
826.107	66.56
826.284	132.09
826.462	162.81
826.639	211.96
826.817	72.7
826.994	107.52
827.172	123.9
827.349	189.44
827.527	80.89
827.704	105.47
827.882	154.62
828.059	121.85
828.237	119.81
828.414	195.58
828.591	105.47
828.769	60.42
828.946	115.71
829.124	173.05
829.301	121.85
829.478	226.3
829.655	140.29
829.833	228.35
830.01	80.89
830.187	101.37
830.364	144.38
830.542	146.43
830.719	117.76
830.896	128
831.073	158.72
831.25	132.09
831.427	107.52
831.604	195.58
831.782	84.99
831.959	160.77
832.136	121.85
832.313	113.66
832.49	125.95
832.667	162.81
832.844	134.14
833.021	72.7
833.198	146.43
833.374	154.62
833.551	82.94
833.728	109.57
833.905	150.53
834.082	35.84
834.259	74.75
834.436	195.58
834.612	74.75
834.789	187.39
834.966	48.13
835.143	166.91
835.319	99.33
835.496	80.89
835.673	68.61
835.85	140.29
836.026	179.2
836.203	189.44
836.38	64.51
836.556	162.81
836.733	130.05
836.909	101.37
837.086	17.41
837.262	113.66
837.439	76.8
837.616	84.99
837.792	132.09
837.968	76.8
838.145	48.13
838.321	17.41
838.498	93.18
838.674	105.47
838.851	-17.41
839.027	56.32
839.203	72.7
839.38	103.42
839.556	99.33
839.732	64.51
839.909	89.09
840.085	68.61
840.261	89.09
840.437	80.89
840.614	23.55
840.79	105.47
840.966	175.1
841.142	89.09
841.318	39.94
841.494	125.95
841.671	46.08
841.847	105.47
842.023	80.89
842.199	121.85
842.375	177.15
842.551	74.75
842.727	66.56
842.903	148.48
843.079	99.33
843.255	148.48
843.431	93.18
843.607	78.85
843.783	-11.26
843.959	171.01
844.134	97.28
844.31	136.19
844.486	109.57
844.662	82.94
844.838	89.09
845.013	97.28
845.189	113.66
845.365	107.52
845.541	50.18
845.716	95.23
845.892	101.37
846.068	160.77
846.244	41.98
846.419	130.05
846.595	72.7
846.77	29.7
846.946	97.28
847.122	113.66
847.297	11.26
847.473	121.85
847.648	23.55
847.824	80.89
847.999	56.32
848.175	52.22
848.35	99.33
848.526	109.57
848.701	80.89
848.876	58.37
849.052	101.37
849.227	66.56
849.403	39.94
849.578	56.32
849.753	58.37
849.929	97.28
850.104	23.55
850.279	33.79
850.454	3.07
850.63	76.8
850.805	60.42
850.98	27.65
851.155	97.28
851.33	158.72
851.505	9.22
851.681	66.56
851.856	179.2
852.031	82.94
852.206	142.33
852.381	121.85
852.556	84.99
852.731	105.47
852.906	35.84
853.081	25.6
853.256	179.2
853.431	15.36
853.606	89.09
853.781	48.13
853.956	56.32
854.131	130.05
854.305	9.22
854.48	19.46
854.655	11.26
854.83	68.61
855.005	1.02
855.18	50.18
855.354	64.51
855.529	113.66
855.704	25.6
855.879	54.27
856.053	1.02
856.228	72.7
856.403	-52.22
856.577	60.42
856.752	89.09
856.926	23.55
857.101	44.03
857.276	46.08
857.45	80.89
857.625	60.42
857.799	72.7
857.974	68.61
858.148	11.26
858.323	37.89
858.497	35.84
858.672	84.99
858.846	62.46
859.02	31.74
859.195	27.65
859.369	27.65
859.543	48.13
859.718	91.13
859.892	46.08
860.066	15.36
860.241	146.43
860.415	35.84
860.589	95.23
860.763	41.98
860.938	41.98
861.112	60.42
861.286	41.98
861.46	84.99
861.634	68.61
861.808	48.13
861.982	82.94
862.157	52.22
862.331	15.36
862.505	27.65
862.679	33.79
862.853	-31.74
863.027	52.22
863.201	64.51
863.375	23.55
863.549	44.03
863.722	87.04
863.896	142.33
864.07	-9.22
864.244	1.02
864.418	58.37
864.592	-9.22
864.766	23.55
864.939	101.37
865.113	1.02
865.287	82.94
865.461	48.13
865.634	80.89
865.808	-33.79
865.982	72.7
866.156	-17.41
866.329	-9.22
866.503	-5.12
866.676	84.99
866.85	82.94
867.024	29.7
867.197	11.26
867.371	101.37
867.544	50.18
867.718	-1.02
867.891	3.07
868.065	-33.79
868.238	41.98
868.412	31.74
868.585	105.47
868.759	91.13
868.932	1.02
869.105	-25.6
869.279	-3.07
869.452	68.61
869.625	105.47
869.799	56.32
869.972	31.74
870.145	52.22
870.319	107.52
870.492	39.94
870.665	25.6
870.838	39.94
871.011	-46.08
871.185	113.66
871.358	48.13
871.531	50.18
871.704	74.75
871.877	7.17
872.05	5.12
872.223	-5.12
872.396	91.13
872.569	80.89
872.742	66.56
872.915	68.61
873.088	-25.6
873.261	64.51
873.434	39.94
873.607	23.55
873.78	76.8
873.953	-21.5
874.126	58.37
874.299	35.84
874.471	33.79
874.644	-68.61
874.817	48.13
874.99	95.23
875.163	44.03
875.335	115.71
875.508	-1.02
875.681	23.55
875.853	138.24
876.026	56.32
876.199	58.37
876.371	76.8
876.544	66.56
876.717	44.03
876.889	35.84
877.062	97.28
877.234	23.55
877.407	99.33
877.579	31.74
877.752	52.22
877.924	35.84
878.097	23.55
878.269	-17.41
878.442	82.94
878.614	35.84
878.786	7.17
878.959	68.61
879.131	74.75
879.303	-46.08
879.476	50.18
879.648	44.03
879.82	113.66
879.993	19.46
880.165	27.65
880.337	-17.41
880.509	52.22
880.681	-1.02
880.854	82.94
881.026	64.51
881.198	128
881.37	39.94
881.542	-21.5
881.714	68.61
881.886	7.17
882.058	37.89
882.23	5.12
882.402	-11.26
882.574	39.94
882.746	56.32
882.918	117.76
883.09	-41.98
883.262	-11.26
883.434	23.55
883.606	25.6
883.778	76.8
883.95	136.19
884.122	64.51
884.293	56.32
884.465	64.51
884.637	23.55
884.809	41.98
884.98	23.55
885.152	91.13
885.324	44.03
885.496	60.42
885.667	33.79
885.839	-37.89
886.011	80.89
886.182	17.41
886.354	11.26
886.525	58.37
886.697	123.9
886.869	-9.22
887.04	-25.6
887.212	-13.31
887.383	97.28
887.555	11.26
887.726	23.55
887.897	7.17
888.069	35.84
888.24	48.13
888.412	35.84
888.583	62.46
888.754	11.26
888.926	60.42
889.097	11.26
889.268	-15.36
889.44	66.56
889.611	39.94
889.782	50.18
889.953	-64.51
890.125	142.33
890.296	31.74
890.467	-3.07
890.638	58.37
890.809	17.41
890.98	-1.02
891.151	39.94
891.323	27.65
891.494	27.65
891.665	-72.7
891.836	101.37
892.007	58.37
892.178	-21.5
892.349	89.09
892.52	84.99
892.691	31.74
892.862	-23.55
893.032	-35.84
893.203	13.31
893.374	7.17
893.545	27.65
893.716	-33.79
893.887	41.98
894.057	-23.55
894.228	-21.5
894.399	25.6
894.57	19.46
894.74	-48.13
894.911	44.03
895.082	3.07
895.253	23.55
895.423	56.32
895.594	17.41
895.764	-33.79
895.935	-29.7
896.106	52.22
896.276	23.55
896.447	74.75
896.617	33.79
896.788	89.09
896.958	72.7
897.129	11.26
897.299	25.6
897.47	9.22
897.64	-13.31
897.81	-9.22
897.981	46.08
898.151	-48.13
898.322	-13.31
898.492	-25.6
898.662	-56.32
898.832	56.32
899.003	48.13
899.173	68.61
899.343	-54.27
899.513	44.03
