Data from USB4F104151__94__14-30-43-720.txt Node

Date: Thu Mar 13 14:30:43 EDT 2025
User: louis
Spectrometer: USB4F10415
Trigger mode: 4
Integration Time (sec): 2.500000E-2
Scans to average: 1
Electric dark correction enabled: true
Nonlinearity correction enabled: false
Boxcar width: 0
XAxis mode: Wavelengths
Number of Pixels in Spectrum: 3648
>>>>>Begin Spectral Data<<<<<
178.204	-143.53
178.424	-143.53
178.644	-143.53
178.864	-172.2
179.084	-188.58
179.304	-53.42
179.524	-49.32
179.744	-24.75
179.964	20.31
180.184	-6.31
180.404	3.93
180.624	18.26
180.844	3.93
181.064	-2.22
181.283	53.08
181.503	10.07
181.723	26.45
181.943	-59.56
182.163	94.04
182.383	-73.9
182.602	51.03
182.822	77.65
183.042	20.31
183.262	12.12
183.482	-20.65
183.701	53.08
183.921	-0.17
184.141	-59.56
184.361	3.93
184.58	126.8
184.8	48.98
185.02	20.31
185.239	79.7
185.459	36.69
185.679	73.56
185.898	-18.6
186.118	20.31
186.338	-16.55
186.557	81.75
186.777	-69.8
186.997	3.93
187.216	-4.27
187.436	120.66
187.655	-8.36
187.875	32.6
188.095	16.21
188.314	71.51
188.534	89.94
188.753	40.79
188.973	67.41
189.192	28.5
189.412	-10.41
189.631	-34.99
189.851	-73.9
190.07	14.17
190.29	-16.55
190.509	-22.7
190.729	81.75
190.948	53.08
191.168	251.73
191.387	139.09
191.607	-12.46
191.826	20.31
192.045	69.46
192.265	-69.8
192.484	5.97
192.704	12.12
192.923	-0.17
193.142	128.85
193.362	53.08
193.581	143.19
193.8	85.84
194.02	106.32
194.239	-37.03
194.458	38.74
194.678	20.31
194.897	67.41
195.116	-61.61
195.335	102.23
195.555	51.03
195.774	34.64
195.993	34.64
196.212	44.88
196.432	-2.22
196.651	30.55
196.87	-45.23
197.089	143.19
197.308	53.08
197.528	46.93
197.747	-24.75
197.966	55.12
198.185	10.07
198.404	12.12
198.623	-18.6
198.842	16.21
199.062	94.04
199.281	126.8
199.5	40.79
199.719	65.36
199.938	28.5
200.157	79.7
200.376	-30.89
200.595	20.31
200.814	30.55
201.033	-32.94
201.252	44.88
201.471	30.55
201.69	-32.94
201.909	102.23
202.128	-4.27
202.347	89.94
202.566	1.88
202.785	69.46
203.004	-20.65
203.223	102.23
203.442	63.32
203.661	20.31
203.879	44.88
204.098	55.12
204.317	40.79
204.536	126.8
204.755	44.88
204.974	77.65
205.193	-28.84
205.411	98.13
205.63	112.47
205.849	-65.71
206.068	-2.22
206.287	22.36
206.505	104.28
206.724	36.69
206.943	53.08
207.162	28.5
207.381	48.98
207.599	-10.41
207.818	-24.75
208.037	20.31
208.255	14.17
208.474	10.07
208.693	71.51
208.911	28.5
209.13	-10.41
209.349	24.4
209.567	22.36
209.786	57.17
210.005	114.52
210.223	71.51
210.442	-26.79
210.661	12.12
210.879	20.31
211.098	24.4
211.316	77.65
211.535	20.31
211.753	-4.27
211.972	-0.17
212.191	-47.27
212.409	46.93
212.628	100.18
212.846	30.55
213.065	122.71
213.283	36.69
213.502	46.93
213.72	73.56
213.938	77.65
214.157	36.69
214.375	110.42
214.594	61.27
214.812	28.5
215.031	14.17
215.249	28.5
215.467	32.6
215.686	-32.94
215.904	98.13
216.122	-96.43
216.341	69.46
216.559	67.41
216.778	81.75
216.996	51.03
217.214	30.55
217.432	69.46
217.651	-45.23
217.869	36.69
218.087	69.46
218.306	44.88
218.524	36.69
218.742	-4.27
218.96	30.55
219.179	34.64
219.397	81.75
219.615	104.28
219.833	122.71
220.051	12.12
220.27	120.66
220.488	85.84
220.706	46.93
220.924	-51.37
221.142	36.69
221.36	44.88
221.578	8.02
221.796	24.4
222.015	61.27
222.233	-28.84
222.451	85.84
222.669	-20.65
222.887	-20.65
223.105	-41.13
223.323	-51.37
223.541	53.08
223.759	73.56
223.977	-59.56
224.195	30.55
224.413	46.93
224.631	3.93
224.849	-12.46
225.067	55.12
225.285	-4.27
225.503	-0.17
225.721	-4.27
225.939	69.46
226.157	106.32
226.375	135
226.592	-6.31
226.81	10.07
227.028	46.93
227.246	83.8
227.464	67.41
227.682	14.17
227.9	26.45
228.117	32.6
228.335	53.08
228.553	28.5
228.771	69.46
228.989	57.17
229.206	28.5
229.424	28.5
229.642	28.5
229.86	40.79
230.077	-2.22
230.295	61.27
230.513	96.08
230.731	91.99
230.948	-32.94
231.166	44.88
231.384	1.88
231.601	22.36
231.819	20.31
232.037	5.97
232.254	-16.55
232.472	40.79
232.689	16.21
232.907	55.12
233.125	61.27
233.342	-18.6
233.56	-14.51
233.777	85.84
233.995	36.69
234.213	24.4
234.43	12.12
234.648	61.27
234.865	53.08
235.083	71.51
235.3	36.69
235.518	22.36
235.735	104.28
235.953	8.02
236.17	24.4
236.388	20.31
236.605	20.31
236.822	65.36
237.04	32.6
237.257	-34.99
237.475	-37.03
237.692	38.74
237.909	53.08
238.127	53.08
238.344	28.5
238.562	48.98
238.779	3.93
238.996	-12.46
239.214	83.8
239.431	55.12
239.648	77.65
239.865	20.31
240.083	83.8
240.3	36.69
240.517	-39.08
240.735	1.88
240.952	-12.46
241.169	69.46
241.386	-24.75
241.603	-32.94
241.821	-24.75
242.038	73.56
242.255	63.32
242.472	81.75
242.689	36.69
242.907	-32.94
243.124	65.36
243.341	36.69
243.558	3.93
243.775	44.88
243.992	-102.57
244.209	65.36
244.426	85.84
244.643	46.93
244.86	36.69
245.078	20.31
245.295	116.56
245.512	71.51
245.729	-16.55
245.946	-37.03
246.163	8.02
246.38	85.84
246.597	-20.65
246.814	-37.03
247.031	44.88
247.248	24.4
247.464	36.69
247.681	79.7
247.898	20.31
248.115	-4.27
248.332	-37.03
248.549	96.08
248.766	30.55
248.983	110.42
249.2	79.7
249.417	55.12
249.633	48.98
249.85	83.8
250.067	-6.31
250.284	-24.75
250.501	79.7
250.717	44.88
250.934	-4.27
251.151	53.08
251.368	-49.32
251.585	30.55
251.801	75.6
252.018	12.12
252.235	20.31
252.451	-0.17
252.668	44.88
252.885	-0.17
253.102	69.46
253.318	3.93
253.535	67.41
253.752	3.93
253.968	73.56
254.185	-28.84
254.401	77.65
254.618	46.93
254.835	-28.84
255.051	-4.27
255.268	38.74
255.484	46.93
255.701	48.98
255.917	55.12
256.134	-18.6
256.351	67.41
256.567	14.17
256.784	28.5
257	12.12
257.217	96.08
257.433	34.64
257.65	-10.41
257.866	112.47
258.082	24.4
258.299	85.84
258.515	12.12
258.732	-22.7
258.948	18.26
259.165	20.31
259.381	81.75
259.597	14.17
259.814	5.97
260.03	-53.42
260.246	46.93
260.463	114.52
260.679	77.65
260.895	53.08
261.112	40.79
261.328	28.5
261.544	61.27
261.761	55.12
261.977	-18.6
262.193	16.21
262.409	118.61
262.626	61.27
262.842	73.56
263.058	24.4
263.274	34.64
263.49	53.08
263.707	98.13
263.923	44.88
264.139	53.08
264.355	22.36
264.571	44.88
264.787	-18.6
265.004	87.89
265.22	77.65
265.436	40.79
265.652	1.88
265.868	20.31
266.084	20.31
266.3	28.5
266.516	98.13
266.732	44.88
266.948	40.79
267.164	28.5
267.38	5.97
267.596	-16.55
267.812	79.7
268.028	-45.23
268.244	12.12
268.46	75.6
268.676	-16.55
268.892	77.65
269.108	16.21
269.324	24.4
269.54	-59.56
269.756	63.32
269.972	-28.84
270.188	28.5
270.403	20.31
270.619	28.5
270.835	112.47
271.051	69.46
271.267	12.12
271.483	30.55
271.698	32.6
271.914	40.79
272.13	32.6
272.346	28.5
272.562	71.51
272.777	102.23
272.993	8.02
273.209	-4.27
273.425	51.03
273.64	12.12
273.856	69.46
274.072	1.88
274.287	-2.22
274.503	57.17
274.719	85.84
274.934	98.13
275.15	3.93
275.366	10.07
275.581	-12.46
275.797	96.08
276.012	22.36
276.228	20.31
276.444	8.02
276.659	22.36
276.875	22.36
277.09	69.46
277.306	-49.32
277.521	42.84
277.737	28.5
277.952	81.75
278.168	122.71
278.383	53.08
278.599	77.65
278.814	137.04
279.03	48.98
279.245	77.65
279.461	-10.41
279.676	87.89
279.892	-49.32
280.107	-24.75
280.322	30.55
280.538	44.88
280.753	-24.75
280.969	55.12
281.184	5.97
281.399	79.7
281.615	14.17
281.83	-0.17
282.045	-10.41
282.26	24.4
282.476	24.4
282.691	61.27
282.906	69.46
283.122	89.94
283.337	-63.66
283.552	28.5
283.767	22.36
283.983	44.88
284.198	81.75
284.413	53.08
284.628	14.17
284.843	-20.65
285.058	98.13
285.274	24.4
285.489	-10.41
285.704	85.84
285.919	44.88
286.134	120.66
286.349	44.88
286.564	12.12
286.779	3.93
286.995	28.5
287.21	-10.41
287.425	53.08
287.64	30.55
287.855	34.64
288.07	-73.9
288.285	5.97
288.5	100.18
288.715	94.04
288.93	28.5
289.145	36.69
289.36	89.94
289.575	79.7
289.79	5.97
290.004	53.08
290.219	26.45
290.434	12.12
290.649	24.4
290.864	44.88
291.079	38.74
291.294	-12.46
291.509	-45.23
291.724	-10.41
291.938	46.93
292.153	28.5
292.368	-4.27
292.583	14.17
292.798	32.6
293.012	36.69
293.227	34.64
293.442	-26.79
293.657	-20.65
293.871	114.52
294.086	36.69
294.301	77.65
294.516	30.55
294.73	85.84
294.945	-12.46
295.16	12.12
295.374	67.41
295.589	126.8
295.804	5.97
296.018	30.55
296.233	110.42
296.447	-10.41
296.662	-37.03
296.877	30.55
297.091	36.69
297.306	18.26
297.52	36.69
297.735	85.84
297.949	-2.22
298.164	69.46
298.378	22.36
298.593	57.17
298.807	44.88
299.022	24.4
299.236	65.36
299.451	-37.03
299.665	53.08
299.88	-4.27
300.094	126.8
300.309	77.65
300.523	16.21
300.737	36.69
300.952	126.8
301.166	22.36
301.381	-8.36
301.595	-20.65
301.809	85.84
302.024	28.5
302.238	14.17
302.452	110.42
302.667	10.07
302.881	63.32
303.095	100.18
303.309	48.98
303.524	61.27
303.738	-10.41
303.952	14.17
304.166	3.93
304.381	-37.03
304.595	124.76
304.809	-12.46
305.023	26.45
305.237	71.51
305.452	71.51
305.666	20.31
305.88	3.93
306.094	61.27
306.308	79.7
306.522	89.94
306.736	53.08
306.95	83.8
307.164	94.04
307.379	79.7
307.593	57.17
307.807	67.41
308.021	1.88
308.235	67.41
308.449	-6.31
308.663	-4.27
308.877	175.95
309.091	55.12
309.305	44.88
309.519	-57.51
309.733	79.7
309.947	14.17
310.161	57.17
310.374	46.93
310.588	69.46
310.802	63.32
311.016	51.03
311.23	69.46
311.444	-43.18
311.658	44.88
311.872	55.12
312.085	22.36
312.299	71.51
312.513	104.28
312.727	24.4
312.941	38.74
313.154	69.46
313.368	-4.27
313.582	-0.17
313.796	28.5
314.009	57.17
314.223	16.21
314.437	85.84
314.651	38.74
314.864	18.26
315.078	10.07
315.292	85.84
315.505	-4.27
315.719	71.51
315.933	110.42
316.146	30.55
316.36	55.12
316.573	46.93
316.787	14.17
317.001	96.08
317.214	-45.23
317.428	94.04
317.641	-16.55
317.855	36.69
318.068	48.98
318.282	12.12
318.495	139.09
318.709	12.12
318.922	8.02
319.136	53.08
319.349	81.75
319.563	34.64
319.776	-10.41
319.99	36.69
320.203	63.32
320.417	67.41
320.63	128.85
320.843	159.57
321.057	-16.55
321.27	-30.89
321.483	55.12
321.697	130.9
321.91	130.9
322.124	69.46
322.337	67.41
322.55	12.12
322.763	-18.6
322.977	85.84
323.19	57.17
323.403	149.33
323.617	85.84
323.83	44.88
324.043	71.51
324.256	48.98
324.469	46.93
324.683	87.89
324.896	-24.75
325.109	20.31
325.322	16.21
325.535	128.85
325.748	14.17
325.962	44.88
326.175	16.21
326.388	106.32
326.601	28.5
326.814	73.56
327.027	83.8
327.24	102.23
327.453	36.69
327.666	57.17
327.879	38.74
328.092	44.88
328.305	-18.6
328.518	69.46
328.731	32.6
328.944	36.69
329.157	14.17
329.37	69.46
329.583	61.27
329.796	135
330.009	-4.27
330.222	20.31
330.435	102.23
330.648	104.28
330.861	-47.27
331.073	-12.46
331.286	53.08
331.499	20.31
331.712	-53.42
331.925	-39.08
332.138	-8.36
332.35	118.61
332.563	18.26
332.776	87.89
332.989	16.21
333.202	-24.75
333.414	-20.65
333.627	30.55
333.84	79.7
334.053	124.76
334.265	85.84
334.478	5.97
334.691	3.93
334.903	32.6
335.116	-4.27
335.329	44.88
335.541	112.47
335.754	77.65
335.966	20.31
336.179	53.08
336.392	69.46
336.604	40.79
336.817	65.36
337.029	53.08
337.242	36.69
337.454	40.79
337.667	77.65
337.88	48.98
338.092	110.42
338.305	53.08
338.517	-57.51
338.729	53.08
338.942	51.03
339.154	34.64
339.367	40.79
339.579	165.71
339.792	-2.22
340.004	94.04
340.217	-10.41
340.429	104.28
340.641	48.98
340.854	-2.22
341.066	-20.65
341.278	104.28
341.491	126.8
341.703	-18.6
341.915	-34.99
342.128	69.46
342.34	65.36
342.552	12.12
342.764	102.23
342.977	30.55
343.189	75.6
343.401	-0.17
343.613	-12.46
343.826	85.84
344.038	16.21
344.25	141.14
344.462	24.4
344.674	94.04
344.886	-12.46
345.099	110.42
345.311	30.55
345.523	28.5
345.735	40.79
345.947	-0.17
346.159	-12.46
346.371	44.88
346.583	-2.22
346.795	128.85
347.007	40.79
347.219	53.08
347.431	77.65
347.643	167.76
347.855	36.69
348.067	94.04
348.279	71.51
348.491	91.99
348.703	118.61
348.915	151.38
349.127	28.5
349.339	32.6
349.551	85.84
349.763	96.08
349.975	71.51
350.187	112.47
350.399	32.6
350.61	65.36
350.822	44.88
351.034	32.6
351.246	53.08
351.458	65.36
351.669	77.65
351.881	-4.27
352.093	40.79
352.305	79.7
352.517	16.21
352.728	36.69
352.94	124.76
353.152	106.32
353.363	-2.22
353.575	141.14
353.787	128.85
353.999	89.94
354.21	89.94
354.422	42.84
354.633	20.31
354.845	53.08
355.057	40.79
355.268	67.41
355.48	81.75
355.692	85.84
355.903	32.6
356.115	81.75
356.326	-61.61
356.538	114.52
356.749	46.93
356.961	175.95
357.172	-16.55
357.384	16.21
357.595	108.37
357.807	48.98
358.018	-37.03
358.23	48.98
358.441	85.84
358.653	118.61
358.864	51.03
359.075	71.51
359.287	30.55
359.498	102.23
359.709	63.32
359.921	10.07
360.132	44.88
360.344	5.97
360.555	14.17
360.766	71.51
360.977	36.69
361.189	100.18
361.4	-24.75
361.611	77.65
361.823	69.46
362.034	61.27
362.245	28.5
362.456	38.74
362.667	79.7
362.879	36.69
363.09	63.32
363.301	118.61
363.512	36.69
363.723	106.32
363.935	-12.46
364.146	69.46
364.357	3.93
364.568	94.04
364.779	30.55
364.99	69.46
365.201	28.5
365.412	98.13
365.623	-43.18
365.834	108.37
366.045	126.8
366.256	87.89
366.467	89.94
366.678	53.08
366.889	10.07
367.1	36.69
367.311	71.51
367.522	71.51
367.733	110.42
367.944	57.17
368.155	48.98
368.366	104.28
368.577	57.17
368.788	22.36
368.999	65.36
369.209	126.8
369.42	44.88
369.631	153.43
369.842	53.08
370.053	69.46
370.264	94.04
370.474	32.6
370.685	98.13
370.896	-12.46
371.107	96.08
371.317	87.89
371.528	-12.46
371.739	57.17
371.95	126.8
372.16	73.56
372.371	89.94
372.582	-6.31
372.792	30.55
373.003	32.6
373.214	61.27
373.424	44.88
373.635	-12.46
373.846	77.65
374.056	24.4
374.267	118.61
374.477	73.56
374.688	3.93
374.898	61.27
375.109	8.02
375.319	135
375.53	77.65
375.74	69.46
375.951	16.21
376.161	118.61
376.372	71.51
376.582	46.93
376.793	61.27
377.003	46.93
377.214	1.88
377.424	55.12
377.635	102.23
377.845	-16.55
378.055	71.51
378.266	14.17
378.476	81.75
378.686	94.04
378.897	67.41
379.107	38.74
379.317	18.26
379.528	30.55
379.738	100.18
379.948	14.17
380.158	20.31
380.369	46.93
380.579	53.08
380.789	-2.22
380.999	69.46
381.21	118.61
381.42	71.51
381.63	53.08
381.84	128.85
382.05	85.84
382.261	94.04
382.471	167.76
382.681	96.08
382.891	16.21
383.101	38.74
383.311	122.71
383.521	3.93
383.731	120.66
383.941	137.04
384.151	71.51
384.361	55.12
384.571	69.46
384.781	69.46
384.991	110.42
385.201	89.94
385.411	100.18
385.621	63.32
385.831	36.69
386.041	48.98
386.251	106.32
386.461	112.47
386.671	8.02
386.881	46.93
387.091	145.24
387.301	77.65
387.511	79.7
387.72	112.47
387.93	69.46
388.14	-0.17
388.35	69.46
388.56	98.13
388.769	73.56
388.979	104.28
389.189	-4.27
389.399	61.27
389.609	42.84
389.818	67.41
390.028	87.89
390.238	69.46
390.447	137.04
390.657	57.17
390.867	12.12
391.076	75.6
391.286	89.94
391.496	143.19
391.705	30.55
391.915	139.09
392.125	79.7
392.334	79.7
392.544	161.62
392.753	87.89
392.963	20.31
393.172	77.65
393.382	55.12
393.591	128.85
393.801	81.75
394.01	135
394.22	139.09
394.429	51.03
394.639	147.28
394.848	85.84
395.058	81.75
395.267	94.04
395.477	98.13
395.686	171.86
395.895	110.42
396.105	112.47
396.314	118.61
396.524	196.43
396.733	81.75
396.942	147.28
397.152	126.8
397.361	180.05
397.57	89.94
397.78	118.61
397.989	139.09
398.198	180.05
398.407	102.23
398.617	71.51
398.826	104.28
399.035	114.52
399.244	110.42
399.453	96.08
399.663	110.42
399.872	159.57
400.081	85.84
400.29	114.52
400.499	53.08
400.708	247.63
400.917	161.62
401.127	169.81
401.336	22.36
401.545	204.63
401.754	145.24
401.963	223.06
402.172	196.43
402.381	87.89
402.59	151.38
402.799	153.43
403.008	128.85
403.217	192.34
403.426	167.76
403.635	151.38
403.844	120.66
404.053	200.53
404.262	206.67
404.471	274.26
404.68	194.39
404.888	249.68
405.097	135
405.306	198.48
405.515	128.85
405.724	235.35
405.933	227.15
406.142	167.76
406.35	231.25
406.559	184.15
406.768	184.15
406.977	229.2
407.185	200.53
407.394	255.83
407.603	204.63
407.812	251.73
408.02	339.79
408.229	350.03
408.438	278.35
408.646	268.11
408.855	288.59
409.064	307.02
409.272	354.13
409.481	372.56
409.69	325.46
409.898	335.7
410.107	376.66
410.315	347.98
410.524	419.66
410.733	393.04
410.941	470.86
411.15	503.63
411.358	511.82
411.567	573.26
411.775	587.6
411.984	442.19
412.192	544.59
412.401	569.16
412.609	548.68
412.818	524.11
413.026	577.36
413.234	571.21
413.443	606.03
413.651	696.14
413.86	759.63
414.068	782.15
414.276	771.91
414.485	630.6
414.693	790.35
414.901	913.22
415.11	812.87
415.318	849.74
415.526	1056.58
415.734	1007.43
415.943	974.66
416.151	1027.91
416.359	1044.29
416.567	1142.6
416.776	1003.33
416.984	1195.84
417.192	1261.38
417.4	1247.04
417.608	1199.94
417.817	1355.58
418.025	1322.82
418.233	1455.94
418.441	1414.98
418.649	1527.61
418.857	1570.62
419.065	1646.4
419.273	1627.96
419.481	1638.2
419.689	1855.29
419.897	1783.61
420.105	1808.19
420.313	1972.02
420.521	2076.47
420.729	2101.05
420.937	2121.52
421.145	2115.38
421.353	2398
421.561	2424.62
421.769	2559.79
421.977	2660.14
422.185	2547.5
422.393	2715.44
422.601	2944.81
422.809	2924.33
423.017	2879.27
423.224	2989.86
423.432	3022.63
423.64	3053.35
423.848	3444.51
424.056	3206.95
424.263	3501.86
424.471	3438.37
424.679	3600.16
424.887	3772.19
425.094	4124.44
425.302	4108.05
425.51	4130.58
425.718	4128.53
425.925	4265.75
426.133	4413.2
426.341	4689.68
426.548	4800.27
426.756	4882.19
426.964	4865.8
427.171	5101.32
427.379	5361.41
427.586	5435.14
427.794	5672.7
428.001	5930.75
428.209	6147.83
428.417	5951.23
428.624	6399.73
428.832	6377.2
429.039	6297.33
429.247	6250.23
429.454	6885.1
429.662	7411.43
429.869	6921.96
430.076	7538.4
430.284	7173.86
430.491	7575.27
430.699	8146.65
430.906	8054.49
431.114	8203.99
431.321	8347.35
431.528	8525.52
431.736	9211.59
431.943	9526.98
432.15	9227.98
432.358	9180.87
432.565	9891.52
432.772	9748.16
432.979	10518.2
433.187	10032.83
433.394	10356.41
433.601	11263.66
433.808	11284.14
434.016	11146.92
434.223	11656.87
434.43	12242.59
434.637	12215.96
434.844	12990.1
435.052	13336.2
435.259	12748.43
435.466	12959.38
435.673	12986
435.88	14009.98
436.087	14417.53
436.294	14528.12
436.501	14257.79
436.708	14624.37
436.915	15007.34
437.122	15642.21
437.329	15582.82
437.537	16193.12
437.743	16381.53
437.95	16207.45
438.157	17372.75
438.364	17708.62
438.571	17739.33
438.778	17694.28
438.985	19412.53
439.192	18484.8
439.399	19166.77
439.606	18607.67
439.813	19689
440.02	21067.28
440.227	20575.77
440.433	20538.91
440.64	21024.28
440.847	20768.28
441.054	21589.52
441.261	22711.8
441.467	22523.39
441.674	23002.61
441.881	23784.94
442.088	23997.93
442.294	23524.85
442.501	23936.49
442.708	24745.44
442.914	25253.33
443.121	26820.03
443.328	25679.31
443.534	27778.48
443.741	26965.43
443.948	26801.6
444.154	28646.82
444.361	28284.33
444.568	28376.48
444.774	28343.72
444.981	28669.34
445.187	29552.02
445.394	30983.55
445.6	30670.21
445.807	33189.21
446.013	31927.66
446.22	32552.29
446.426	33860.94
446.633	34075.98
446.839	35507.51
447.046	33621.33
447.252	35851.57
447.459	35585.33
447.665	35644.73
447.871	37231.9
448.078	38688.01
448.284	36836.64
448.491	38167.82
448.697	39439.61
448.903	39652.6
449.11	40008.95
449.316	39585.02
449.522	40152.3
449.728	41104.61
449.935	41878.74
450.141	41544.92
450.347	42462.41
450.553	41016.55
450.76	41657.56
450.966	43097.28
451.172	42560.72
451.378	43441.34
451.584	42556.62
451.791	43574.46
451.997	43623.61
452.203	44391.6
452.409	44555.44
452.615	43918.52
452.821	42550.48
453.027	41835.73
453.233	44201.14
453.44	42441.93
453.646	42581.2
453.852	43349.18
454.058	43756.73
454.264	42321.1
454.47	43306.18
454.676	42194.13
454.882	43691.19
455.088	39722.23
455.294	40455.4
455.5	41164
455.705	41592.03
455.911	39492.86
456.117	39163.14
456.323	38036.75
456.529	36844.84
456.735	37954.83
456.941	36769.06
457.147	36672.81
457.352	35325.24
457.558	34889.02
457.764	35104.06
457.97	34475.34
458.176	33523.03
458.381	33625.43
458.587	32267.62
458.793	31915.37
458.999	30117.26
459.204	32286.06
459.41	31675.76
459.616	29582.74
459.821	29435.28
460.027	29449.62
460.233	28734.88
460.438	27446.71
460.644	27784.62
460.85	26594.75
461.055	26027.46
461.261	25646.54
461.466	23875.05
461.672	23082.49
461.878	24800.73
462.083	23414.26
462.289	22740.47
462.494	22519.29
462.7	21435.92
462.905	20925.97
463.111	21954.05
463.316	21868.04
463.522	21356.05
463.727	21569.04
463.932	21296.66
464.138	21169.68
464.343	21206.55
464.549	20618.78
464.754	20981.27
464.959	21235.22
465.165	20962.84
465.37	20090.4
465.575	19500.59
465.781	20321.82
465.986	20301.34
466.191	19682.86
466.397	19496.49
466.602	18214.46
466.807	19134
467.012	19127.86
467.218	18908.72
467.423	18822.71
467.628	18787.89
467.833	19566.12
468.038	18609.72
468.244	18282.05
468.449	19134
468.654	18529.85
468.859	18101.83
469.064	18091.59
469.269	17690.18
469.474	17628.74
469.679	17602.12
469.885	17387.08
470.09	17681.99
470.295	17538.63
470.5	17083.98
470.705	16881.24
470.91	16440.92
471.115	16608.86
471.32	16672.34
471.525	16531.03
471.73	16244.32
471.935	16254.56
472.139	15603.3
472.344	15683.17
472.549	15740.52
472.754	15654.5
472.959	15306.35
473.164	14915.19
473.369	14947.95
473.574	15410.79
473.778	15095.41
473.983	14925.43
474.188	14839.41
474.393	14278.27
474.598	14276.22
474.802	14173.82
475.007	14079.61
475.212	13948.54
475.417	13577.86
475.621	13547.14
475.826	13606.53
476.031	13303.43
476.235	13250.19
476.44	13520.52
476.645	12867.22
476.849	13037.2
477.054	12869.26
477.259	12674.71
477.463	12773.01
477.668	12375.7
477.872	12531.35
478.077	12420.76
478.282	11892.38
478.486	12115.61
478.691	11837.09
478.895	12015.26
479.1	11724.45
479.304	11663.01
479.509	11439.78
479.713	11769.51
479.918	11603.62
480.122	11224.75
480.326	11194.03
480.531	10968.75
480.735	11316.9
480.94	11284.14
481.144	11366.06
481.348	10880.69
481.553	11103.92
481.757	10702.51
481.961	11091.63
482.166	11091.63
482.37	11247.27
482.574	10823.34
482.778	10856.11
482.983	11181.74
483.187	10907.31
483.391	10972.85
483.595	10944.17
483.8	10645.17
484.004	11013.81
484.208	10788.53
484.412	10860.21
484.616	10931.89
484.821	10970.8
485.025	10768.05
485.229	10983.09
485.433	10688.18
485.637	10856.11
485.841	10802.86
486.045	10827.44
486.249	10833.58
486.453	10720.95
486.657	10903.21
486.861	11026.09
487.065	10641.07
487.269	10651.31
487.473	10641.07
487.677	10786.48
487.881	10831.54
488.085	10694.32
488.289	10876.59
488.493	10686.13
488.697	10755.76
488.901	10722.99
489.105	11073.2
489.309	11120.3
489.512	10876.59
489.716	10849.97
489.92	10997.42
490.124	10731.19
490.328	11003.57
490.531	10858.16
490.735	11022
490.939	10966.7
491.143	10950.32
491.346	10962.61
491.55	11214.51
491.754	10991.28
491.958	11214.51
492.161	11275.95
492.365	11148.97
492.569	11179.69
492.772	11265.71
492.976	11366.06
493.18	11366.06
493.383	11519.65
493.587	11472.55
493.79	11796.13
493.994	11734.69
494.197	11554.47
494.401	11613.86
494.605	11620
494.808	12062.37
495.012	11972.25
495.215	12107.42
495.419	11900.58
495.622	12091.04
495.825	12205.72
496.029	12252.83
496.232	12445.34
496.436	12574.36
496.639	12668.56
496.843	12439.19
497.046	12875.41
497.249	12922.51
497.453	12979.86
497.656	13178.51
497.859	13178.51
498.063	13592.2
498.266	13704.84
498.469	13561.48
498.673	13883.01
498.876	13852.29
499.079	13909.63
499.282	14153.34
499.485	14601.85
499.689	14481.02
499.892	14456.44
500.095	14569.08
500.298	14904.95
500.501	14798.45
500.705	15277.68
500.908	15660.65
501.111	15429.23
501.314	15818.34
501.517	15576.68
501.72	16105.06
501.923	16090.72
502.126	16086.62
502.329	16387.68
502.532	16432.73
502.735	16479.83
502.938	17000.02
503.141	16907.86
503.344	17137.23
503.547	17227.34
503.75	17544.78
503.953	17843.78
504.156	17993.28
504.359	18277.95
504.562	18110.02
504.765	18556.47
504.968	18787.89
505.17	18824.76
505.373	18914.87
505.576	18953.78
505.779	19226.16
505.982	19682.86
506.185	19828.26
506.387	19809.83
506.59	20082.21
506.793	20305.44
506.996	20403.74
507.198	21124.63
507.401	20940.31
507.604	21184.02
507.807	21624.33
508.009	21687.82
508.212	21909
508.415	22117.89
508.617	22468.09
508.82	22570.49
509.022	22308.35
509.225	23000.57
509.428	23021.05
509.63	23422.45
509.833	23272.95
510.035	23891.43
510.238	24047.08
510.44	24133.09
510.643	24538.59
510.845	24790.49
511.048	24671.71
511.25	25054.68
511.453	25193.94
511.655	26027.46
511.858	25753.04
512.06	25748.94
512.262	26279.36
512.465	26062.28
512.667	26813.88
512.87	26932.67
513.072	26916.28
513.274	27432.37
513.477	28177.83
513.679	27766.19
513.881	28269.99
514.084	28538.27
514.286	28261.8
514.488	28624.29
514.69	29320.6
514.893	29576.59
515.095	29466
515.297	30035.34
515.499	29705.62
515.701	30696.83
515.904	30457.22
516.106	30832
516.308	31169.91
516.51	31686
516.712	31716.72
516.914	31976.81
517.116	32259.43
517.318	32296.3
517.52	32558.44
517.722	32611.68
517.925	33156.44
518.127	33410.39
518.329	33736.02
518.531	33600.85
518.733	34149.71
518.935	34227.53
519.136	34063.69
519.338	34456.9
519.54	34680.13
519.742	35124.54
519.944	35525.94
520.146	35665.21
520.348	36230.44
520.55	36199.72
520.752	36244.78
520.954	36742.44
521.155	36674.85
521.357	37047.58
521.559	37213.47
521.761	37225.76
521.963	37391.64
522.164	37793.04
522.366	37565.72
522.568	38165.77
522.77	38257.93
522.971	38878.47
523.173	38167.82
523.375	38753.54
523.576	38771.97
523.778	38925.57
523.98	39601.4
524.181	39286.01
524.383	39281.92
524.584	39664.89
524.786	39716.09
524.988	39658.74
525.189	40084.72
525.391	40158.45
525.592	40271.09
525.794	40482.03
525.995	39982.32
526.197	40256.75
526.398	40283.37
526.6	41002.21
526.801	40500.46
527.003	40953.06
527.204	40709.35
527.406	41362.65
527.607	41014.5
527.808	41215.2
528.01	40731.88
528.211	40969.44
528.412	41702.62
528.614	41372.89
528.815	41319.65
529.016	41813.21
529.218	41424.09
529.419	41184.48
529.62	41143.52
529.822	41448.67
530.023	41235.68
530.224	41280.74
530.425	41360.61
530.626	40942.82
530.828	40832.23
531.029	41489.63
531.23	41266.4
531.431	41141.47
531.632	41104.61
531.833	41010.4
532.035	41184.48
532.236	40817.89
532.437	40752.36
532.638	41096.42
532.839	41088.23
533.04	41102.56
533.241	40688.87
533.442	41381.09
533.643	40748.26
533.844	40373.49
534.045	40961.25
534.246	40377.58
534.447	40897.77
534.648	40502.51
534.849	40514.8
535.05	40246.51
535.251	40441.07
535.451	40387.82
535.652	40735.98
535.853	40215.79
536.054	40027.38
536.255	40547.56
536.456	39863.54
536.657	40377.58
536.857	40359.15
537.058	39845.11
537.259	40326.38
537.46	39771.38
537.66	39855.35
537.861	39939.32
538.062	40006.9
538.263	39726.33
538.463	39974.13
538.664	39484.67
538.865	39871.73
539.065	39804.15
539.266	39386.36
539.466	40025.33
539.667	39159.04
539.868	39875.83
540.068	39404.8
540.269	39118.08
540.469	39466.24
540.67	38980.87
540.87	39648.5
541.071	38888.71
541.271	39527.67
541.472	39136.51
541.672	38898.95
541.873	38860.04
542.073	38491.4
542.274	39232.77
542.474	39200
542.675	38804.74
542.875	39277.82
543.075	38751.49
543.276	38724.87
543.476	38964.48
543.676	38935.81
543.877	39318.78
544.077	38700.29
544.277	38898.95
544.478	38550.79
544.678	39331.07
544.878	38567.18
545.078	38753.54
545.279	38270.22
545.479	38307.08
545.679	38872.32
545.879	38645
546.079	38782.21
546.28	38618.38
546.48	38573.32
546.68	38534.41
546.88	38794.5
547.08	38694.15
547.28	38929.67
547.48	38241.55
547.68	38728.97
547.88	38563.08
548.081	38655.24
548.281	38552.84
548.481	38630.66
548.681	38921.48
548.881	38784.26
549.081	38477.07
549.28	38817.03
549.48	38907.14
549.68	38925.57
549.88	38845.7
550.08	38675.72
550.28	38839.56
550.48	38405.39
550.68	38974.72
550.88	38468.87
551.08	38515.98
551.279	38876.42
551.479	38595.85
551.679	39011.59
551.879	38917.38
552.079	38954.24
552.278	38706.44
552.478	39240.96
552.678	39011.59
552.878	38882.56
553.077	38913.28
553.277	39062.79
553.477	39353.6
553.676	39253.25
553.876	39101.7
554.076	38853.89
554.275	39118.08
554.475	38468.87
554.674	39423.23
554.874	38995.2
555.074	38989.06
555.273	39234.81
555.473	39222.53
555.672	39181.57
555.872	38898.95
556.071	39386.36
556.271	39673.08
556.47	39183.62
556.67	38698.25
556.869	39251.2
557.068	39679.22
557.268	39140.61
557.467	39042.31
557.667	38778.12
557.866	39216.38
558.065	38976.77
558.265	39265.53
558.464	39079.17
558.663	39625.98
558.863	38876.42
559.062	39769.33
559.261	38913.28
559.461	39691.51
559.66	39001.35
559.859	39122.18
560.058	39216.38
560.258	39197.95
560.457	39038.21
560.656	39650.55
560.855	39179.52
561.054	39200
561.253	39238.91
561.453	39474.43
561.652	39281.92
561.851	39150.85
562.05	39120.13
562.249	38755.59
562.448	39515.39
562.647	39075.07
562.846	39093.5
563.045	39169.28
563.244	38905.09
563.443	39132.42
563.642	38454.54
563.841	38927.62
564.04	38726.92
564.239	38634.76
564.438	38288.65
564.637	39058.69
564.836	38909.19
565.035	38630.66
565.234	38784.26
565.432	38354.19
565.631	38374.67
565.83	38706.44
566.029	38561.03
566.228	38401.29
566.427	38645
566.625	38266.13
566.824	38128.91
567.023	38315.28
567.222	37954.83
567.42	38307.08
567.619	37928.21
567.818	37791
568.016	38249.74
568.215	38434.06
568.414	37952.79
568.612	37995.79
568.811	37725.46
569.01	37764.37
569.208	37293.34
569.407	37635.35
569.605	37018.91
569.804	37838.1
570.002	37113.12
570.201	37012.77
570.4	37127.45
570.598	36867.36
570.797	36771.11
570.995	37012.77
571.193	36506.92
571.392	37023.01
571.59	36508.97
571.789	36666.66
571.987	36769.06
572.186	36863.27
572.384	36283.69
572.582	36091.18
572.781	36298.03
572.979	36054.32
573.177	35958.06
573.376	36291.88
573.574	35779.89
573.772	36066.61
573.971	35603.77
574.169	35507.51
574.367	35247.42
574.565	35429.69
574.763	35527.99
574.962	35339.58
575.16	34942.27
575.358	35251.52
575.556	34663.75
575.754	35214.65
575.952	34817.35
576.151	34831.68
576.349	34532.68
576.547	34557.25
576.745	34590.02
576.943	34485.58
577.141	34223.44
577.339	34475.34
577.537	34157.9
577.735	33922.38
577.933	34032.97
578.131	33977.68
578.329	33891.66
578.527	33600.85
578.725	33850.7
578.923	33703.25
579.121	33797.46
579.319	33652.05
579.516	33547.61
579.714	33269.08
579.912	33154.4
580.11	32900.45
580.308	33135.96
580.506	32769.38
580.704	32544.1
580.901	32542.05
581.099	33201.5
581.297	32621.92
581.495	32173.42
581.692	32640.36
581.89	32230.76
582.088	32556.39
582.285	32081.26
582.483	31907.18
582.681	32175.47
582.878	31602.04
583.076	31880.56
583.274	31769.97
583.471	31315.32
583.669	31845.74
583.866	31364.47
584.064	31554.93
584.262	31196.54
584.459	31528.31
584.657	31296.89
584.854	31460.73
585.052	30989.69
585.249	31118.71
585.447	30786.94
585.644	30614.91
585.841	30762.37
586.039	31206.78
586.236	30563.71
586.434	30676.35
586.631	30676.35
586.828	30545.28
587.026	30260.62
587.223	30186.89
587.42	30389.64
587.618	30238.09
587.815	30225.8
588.012	29957.52
588.21	29851.02
588.407	30422.41
588.604	29787.53
588.801	29635.99
588.999	29654.42
589.196	29693.33
589.393	29556.11
589.59	29388.18
589.787	29461.91
589.984	29136.28
590.182	29224.34
590.379	29592.98
590.576	29162.9
590.773	29363.61
590.97	28900.76
591.167	29603.22
591.364	28741.02
591.561	28900.76
591.758	28505.51
591.955	28759.45
592.152	29015.45
592.349	28603.81
592.546	28738.97
592.743	29044.12
592.94	28437.92
593.137	28669.34
593.334	28626.34
593.531	28659.1
593.727	28380.58
593.924	28302.76
594.121	28288.42
594.318	28458.4
594.515	27989.42
594.712	28480.93
594.908	28085.67
595.105	28392.87
595.302	27882.92
595.499	27946.41
595.696	28063.15
595.892	27690.41
596.089	28026.28
596.286	28050.86
596.482	27952.55
596.679	27733.42
596.876	27985.32
597.072	27538.87
597.269	27801.01
597.466	27762.09
597.662	27731.37
597.859	27637.17
598.055	27889.07
598.252	27684.27
598.448	27655.6
598.645	27768.24
598.841	27434.42
599.038	27725.23
599.234	27700.65
599.431	27514.29
599.627	27340.21
599.824	27680.17
600.02	27489.71
600.217	27573.68
600.413	27467.19
600.609	27192.76
600.806	27557.3
601.002	27573.68
601.198	27182.52
601.395	27166.13
601.591	27327.92
601.787	27381.17
601.984	26926.52
602.18	27454.9
602.376	27200.95
602.572	27104.7
602.769	27381.17
602.965	26869.18
603.161	27297.2
603.357	27350.45
603.553	27375.03
603.75	27618.74
603.946	27557.3
604.142	27411.89
604.338	26893.75
604.534	27297.2
604.73	27233.72
604.926	26918.33
605.122	27456.95
605.318	27119.03
605.514	27368.88
605.71	27624.88
605.906	27018.68
606.102	27096.5
606.298	27213.24
606.494	27268.53
606.69	27200.95
606.886	27573.68
607.082	26920.38
607.278	27327.92
607.474	27078.07
607.67	27667.89
607.866	26846.65
608.062	27164.09
608.257	27184.57
608.453	27323.83
608.649	27577.78
608.845	27264.44
609.041	27215.29
609.236	27301.3
609.432	27346.36
609.628	27225.53
609.824	27583.92
610.019	27151.8
610.215	27375.03
610.411	27585.97
610.606	27125.18
610.802	27854.25
610.998	27600.3
611.193	27610.54
611.389	27282.87
611.584	27340.21
611.78	27538.87
611.976	27258.29
612.171	27323.83
612.367	27399.6
612.562	27649.46
612.758	27307.44
612.953	27344.31
613.149	27657.65
613.344	27596.21
613.539	28042.67
613.735	27522.48
613.93	27727.28
614.126	27282.87
614.321	27811.24
614.517	27608.5
614.712	27864.49
614.907	27567.54
615.103	27678.13
615.298	27336.12
615.493	27790.77
615.688	27039.16
615.884	28138.92
616.079	27157.94
616.274	27887.02
616.47	27399.6
616.665	27921.84
616.86	27379.12
617.055	27159.99
617.25	27415.99
617.445	27274.68
617.641	26918.33
617.836	27166.13
618.031	26869.18
618.226	27409.84
618.421	26987.96
618.616	27428.27
618.811	26756.54
619.006	27504.05
619.201	26361.28
619.396	26996.15
619.591	26496.45
619.786	26817.98
619.981	26506.69
620.176	27264.44
620.371	26006.98
620.566	26588.61
620.761	26273.22
620.956	26385.86
621.151	26045.9
621.346	26361.28
621.541	25966.03
621.735	26123.72
621.93	25486.8
622.125	25566.67
622.32	25275.86
622.515	25564.62
622.709	25069.01
622.904	25138.65
623.099	25116.12
623.294	25163.22
623.488	24702.43
623.683	24810.97
623.878	24468.96
624.072	24509.92
624.267	24696.28
624.462	24651.23
624.656	24266.21
624.851	24389.09
625.046	24124.9
625.24	24057.32
625.435	23956.97
625.629	23803.37
625.824	23512.56
626.018	23760.36
626.213	23176.69
626.407	23391.73
626.602	23246.32
626.796	23154.16
626.991	22810.11
627.185	23033.33
627.38	22681.08
627.574	22631.93
627.768	22375.94
627.963	22588.92
628.157	22484.48
628.352	22203.91
628.546	21892.62
628.74	22132.23
628.935	21677.58
629.129	21679.63
629.323	21767.69
629.517	21691.91
629.712	21407.25
629.906	21374.48
630.1	21028.37
630.294	20856.34
630.489	21280.27
630.683	21007.89
630.877	20923.93
631.071	20702.75
631.265	20704.79
631.459	20586.01
631.653	20336.16
631.848	20491.8
632.042	20362.78
632.236	20321.82
632.43	19910.18
632.624	19967.52
632.818	19645.99
633.012	19701.29
633.206	19476.01
633.4	19756.58
633.594	19134
633.788	19578.41
633.982	19416.62
634.176	19334.7
634.369	18822.71
634.563	18941.49
634.757	18947.64
634.951	19125.81
635.145	18826.81
635.339	18781.75
635.533	18372.16
635.726	18513.47
635.92	18224.7
636.114	18349.63
636.308	18103.87
636.501	17966.66
636.695	18110.02
636.889	18007.62
637.083	17718.85
637.276	17837.64
637.47	17518.15
637.664	17344.08
637.857	17509.96
638.051	17430.09
638.244	17026.64
638.438	16940.63
638.632	16911.96
638.825	16760.41
639.019	16871
639.212	16633.43
639.406	16451.16
639.599	16584.28
639.793	16094.82
639.986	16307.8
640.18	16412.25
640.373	16242.27
640.567	16035.42
640.76	15992.42
640.954	15670.89
641.147	16000.61
641.34	15535.72
641.534	15758.95
641.727	15597.16
641.92	15767.14
642.114	15482.47
642.307	15238.76
642.5	15083.12
642.694	15054.45
642.887	14993.01
643.08	14968.43
643.273	14884.47
643.467	14702.2
643.66	14583.41
643.853	14569.08
644.046	14325.37
644.239	14354.04
644.432	14300.8
644.626	14159.49
644.819	14081.66
645.012	14003.84
645.205	14016.13
645.398	13995.65
645.591	13721.22
645.784	13817.47
645.977	13387.4
646.17	13639.3
646.363	13411.98
646.556	13313.67
646.749	13260.43
646.942	13590.15
647.135	13266.57
647.328	13325.96
647.521	13262.47
647.714	12897.94
647.907	13020.81
648.099	12871.31
648.292	12942.99
648.485	12775.06
648.678	12512.92
648.871	12226.2
649.064	12471.96
649.256	12435.1
649.449	12316.31
649.642	12263.07
649.835	12062.37
650.027	12043.93
650.22	12101.28
650.413	12105.37
650.605	11851.42
650.798	11810.47
650.991	12062.37
651.183	11869.86
651.376	11908.77
651.568	11523.75
651.761	11497.13
651.954	11374.25
652.146	11603.62
652.339	11486.89
652.531	11316.9
652.724	11155.12
652.916	11103.92
653.109	11058.86
653.301	11214.51
653.494	11194.03
653.686	10809.01
653.879	11062.96
654.071	10761.91
654.263	10761.91
654.456	10563.25
654.648	10673.84
654.84	10634.93
655.033	10612.4
655.225	10710.71
655.417	10325.69
655.61	10532.53
655.802	10374.84
655.994	10331.83
656.186	10096.32
656.379	9977.53
656.571	10194.62
656.763	10014.4
656.955	10043.07
657.148	10170.04
657.34	10016.44
657.532	9778.88
657.724	9875.13
657.916	9782.98
658.108	9825.98
658.3	9672.39
658.492	9512.64
658.684	9494.21
658.876	9428.68
659.068	9563.84
659.26	9223.88
659.452	9287.37
659.644	9428.68
659.836	9211.59
660.028	9047.76
660.22	8971.98
660.412	9041.61
660.604	8910.54
660.796	8902.35
660.988	9031.37
661.18	8861.39
661.372	8711.89
661.563	8826.57
661.755	8552.15
661.947	8672.98
662.139	8605.39
662.331	8687.31
662.522	8431.32
662.714	8511.19
662.906	8402.65
663.097	8402.65
663.289	8337.11
663.481	8279.77
663.673	8167.13
663.864	8376.02
664.056	8099.55
664.247	8072.92
664.439	7991
664.631	8023.77
664.822	7859.93
665.014	8027.87
665.205	7761.63
665.397	7964.38
665.588	8009.44
665.78	7788.25
665.971	7491.3
666.163	7706.34
666.354	7624.42
666.546	7685.86
666.737	7599.84
666.929	7483.11
667.12	7345.89
667.311	7483.11
667.503	7329.51
667.694	7329.51
667.885	7286.5
668.077	7458.53
668.268	7220.97
668.459	7349.99
668.651	7048.94
668.842	7134.95
669.033	7169.77
669.224	6964.97
669.416	7022.31
669.607	7177.96
669.798	6944.49
669.989	7098.09
670.18	6987.5
670.371	6919.92
670.563	6721.26
670.754	6827.76
670.945	6686.45
671.136	6792.94
671.327	6745.84
671.518	6680.3
671.709	6700.78
671.9	6606.58
672.091	6639.34
672.282	6567.67
672.473	6614.77
672.664	6549.23
672.855	6606.58
673.046	6377.2
673.237	6526.71
673.428	6635.25
673.619	6565.62
673.809	6270.71
674	6305.53
674.191	6246.13
674.382	6311.67
674.573	6346.48
674.764	6182.65
674.954	6344.44
675.145	6385.4
675.336	6223.61
675.527	6221.56
675.717	6311.67
675.908	6291.19
676.099	6170.36
676.289	6059.77
676.48	6153.98
676.671	6002.43
676.861	6033.15
677.052	5971.71
677.243	5998.33
677.433	5875.45
677.624	6078.2
677.814	5943.03
678.005	6082.3
678.195	5943.03
678.386	5822.2
678.576	5828.35
678.767	5805.82
678.957	5981.95
679.148	5861.12
679.338	5787.39
679.529	5797.63
679.719	5785.34
679.909	5863.16
680.1	5725.95
680.29	5918.46
680.481	5668.61
680.671	5816.06
680.861	5693.18
681.052	5738.24
681.242	5684.99
681.432	5891.84
681.622	5566.21
681.813	5674.75
682.003	5721.85
682.193	5771.01
682.383	5768.96
682.573	5560.06
682.764	5680.89
682.954	5603.07
683.144	5641.98
683.334	5584.64
683.524	5639.94
683.714	5674.75
683.904	5443.33
684.094	5500.67
684.284	5551.87
684.474	5619.46
684.664	5592.83
684.854	5525.25
685.044	5467.91
685.234	5396.23
685.424	5461.76
685.614	5445.38
685.804	5383.94
685.994	5424.9
686.184	5463.81
686.374	5492.48
686.564	5459.71
686.753	5377.8
686.943	5197.57
687.133	5379.84
687.323	5246.73
687.513	5304.07
687.702	5228.29
687.892	5095.18
688.082	5248.77
688.272	5353.22
688.461	5353.22
688.651	5213.96
688.841	5173
689.03	5209.86
689.22	5216.01
689.41	5234.44
689.599	5117.7
689.789	5066.5
689.979	5027.59
690.168	5134.09
690.358	5097.22
690.547	5035.78
690.737	5111.56
690.926	5054.22
691.116	5041.93
691.305	4990.73
691.495	4943.63
691.684	4847.37
691.874	4912.91
692.063	4962.06
692.252	4960.01
692.442	4960.01
692.631	4845.32
692.82	4769.55
693.01	4847.37
693.199	4773.64
693.388	4579.09
693.578	4802.32
693.767	4783.88
693.956	4751.12
694.146	4673.29
694.335	4751.12
694.524	4689.68
694.713	4697.87
694.902	4636.43
695.092	4708.11
695.281	4507.41
695.47	4681.49
695.659	4558.61
695.848	4495.12
696.037	4525.84
696.226	4574.99
696.415	4566.8
696.604	4611.85
696.793	4456.21
696.982	4380.43
697.171	4484.88
697.36	4570.9
697.549	4470.55
697.738	4419.35
697.927	4468.5
698.116	4421.39
698.305	4353.81
698.494	4325.14
698.683	4337.43
698.872	4402.96
699.061	4423.44
699.25	4214.55
699.438	4249.36
699.627	4402.96
699.816	4267.8
700.005	4149.01
700.193	4255.51
700.382	4300.56
700.571	4316.95
700.76	4235.03
700.948	4271.89
701.137	4206.36
701.326	4198.17
701.514	4181.78
701.703	4075.29
701.892	4321.04
702.08	4140.82
702.269	4157.21
702.457	4118.29
702.646	4142.87
702.834	4185.88
703.023	4153.11
703.212	4146.97
703.4	4077.34
703.589	4019.99
703.777	4126.49
703.965	3897.11
704.154	3987.22
704.342	4099.86
704.531	4005.66
704.719	3905.31
704.907	3890.97
705.096	3819.29
705.284	3893.02
705.472	3903.26
705.661	3751.71
705.849	3968.79
706.037	3794.72
706.226	3948.31
706.414	3864.35
706.602	3772.19
706.79	3847.96
706.979	3604.25
707.167	3718.94
707.355	3807
707.543	3718.94
707.731	3829.53
707.919	3655.45
708.107	3553.06
708.296	3690.27
708.484	3569.44
708.672	3626.78
708.86	3583.77
709.048	3663.65
709.236	3659.55
709.424	3645.21
709.612	3651.36
709.8	3538.72
709.988	3538.72
710.176	3555.1
710.364	3559.2
710.551	3501.86
710.739	3528.48
710.927	3657.5
711.115	3510.05
711.303	3575.58
711.491	3557.15
711.679	3391.27
711.866	3524.38
712.054	3469.09
712.242	3575.58
712.43	3421.99
712.617	3374.88
712.805	3374.88
712.993	3415.84
713.181	3303.2
713.368	3333.92
713.556	3481.38
713.744	3282.72
713.931	3426.08
714.119	3243.81
714.306	3284.77
714.494	3338.02
714.682	3292.96
714.869	3129.13
715.057	3190.56
715.244	3202.85
715.432	3434.27
715.619	3280.68
715.807	3354.4
715.994	3225.38
716.182	3249.96
716.369	3102.5
716.556	3190.56
716.744	3096.36
716.931	3098.41
717.119	3100.45
717.306	3125.03
717.493	3104.55
717.681	2967.34
717.868	3215.14
718.055	3069.73
718.242	2938.66
718.43	3082.02
718.617	3010.34
718.804	2993.96
718.991	3118.89
719.179	2996.01
719.366	2989.86
719.553	3125.03
719.74	2985.77
719.927	3016.49
720.114	3084.07
720.301	2977.58
720.488	2936.62
720.676	2895.66
720.863	2944.81
721.05	3016.49
721.237	2987.82
721.424	2893.61
721.611	2897.71
721.798	2846.51
721.985	2811.69
722.172	2821.93
722.358	2813.74
722.545	2699.05
722.732	2768.68
722.919	3000.1
723.106	2797.35
723.293	2813.74
723.48	2707.24
723.667	2750.25
723.853	2838.31
724.04	2862.89
724.227	2684.72
724.414	2799.4
724.6	2797.35
724.787	2678.57
724.974	2715.44
725.161	2748.2
725.347	2715.44
725.534	2615.09
725.72	2740.01
725.907	2758.44
726.094	2713.39
726.28	2701.1
726.467	2625.33
726.653	2703.15
726.84	2608.94
727.027	2627.37
727.213	2592.56
727.4	2662.19
727.586	2633.52
727.773	2678.57
727.959	2651.95
728.145	2588.46
728.332	2512.69
728.518	2496.3
728.705	2674.48
728.891	2510.64
729.077	2555.69
729.264	2563.89
729.45	2522.93
729.636	2645.8
729.823	2490.16
730.009	2578.22
730.195	2543.41
730.382	2567.98
730.568	2477.87
730.754	2527.02
730.94	2473.78
731.126	2400.05
731.313	2510.64
731.499	2486.06
731.685	2510.64
731.871	2504.5
732.057	2559.79
732.243	2461.49
732.429	2475.82
732.615	2522.93
732.801	2426.67
732.987	2295.6
733.173	2506.54
733.359	2387.76
733.545	2395.95
733.731	2228.02
733.917	2494.26
734.103	2273.07
734.289	2398
734.475	2291.51
734.661	2453.3
734.847	2402.1
735.033	2387.76
735.219	2250.55
735.404	2432.82
735.59	2314.03
735.776	2279.22
735.962	2236.21
736.148	2326.32
736.333	2295.6
736.519	2127.67
736.705	2354.99
736.89	2258.74
737.076	2305.84
737.262	2236.21
737.447	2273.07
737.633	2256.69
737.819	2250.55
738.004	2066.23
738.19	2176.82
738.375	2199.35
738.561	2248.5
738.747	2252.59
738.932	2125.62
739.118	2307.89
739.303	2029.37
739.489	2168.63
739.674	2166.58
739.859	2027.32
740.045	2152.24
740.23	2111.29
740.416	2058.04
740.601	2094.9
740.786	2176.82
740.972	2125.62
741.157	2092.85
741.342	2012.98
741.528	1953.59
741.713	2109.24
741.898	1992.5
742.084	2060.09
742.269	2072.37
742.454	1986.36
742.639	1996.6
742.824	1994.55
743.01	2008.89
743.195	1994.55
743.38	1986.36
743.565	1939.26
743.75	1924.92
743.935	1916.73
744.12	1967.93
744.305	1857.34
744.49	1988.41
744.675	1898.3
744.86	1867.58
745.045	1875.77
745.23	1871.67
745.415	1980.22
745.6	1906.49
745.785	1840.95
745.97	1810.23
746.155	1953.59
746.34	1838.91
746.525	1912.63
746.71	1791.8
746.895	1752.89
747.079	1781.56
747.264	1724.22
747.449	1834.81
747.634	1677.12
747.819	1761.08
748.003	1687.36
748.188	1773.37
748.373	1730.36
748.557	1609.53
748.742	1691.45
748.927	1724.22
749.111	1640.25
749.296	1619.77
749.481	1711.93
749.665	1658.68
749.85	1740.6
750.034	1605.44
750.219	1617.72
750.404	1494.85
750.588	1646.4
750.773	1488.7
750.957	1570.62
751.141	1468.22
751.326	1544
751.51	1523.52
751.695	1453.89
751.879	1439.55
752.064	1531.71
752.248	1544
752.432	1527.61
752.617	1566.53
752.801	1361.73
752.985	1439.55
753.17	1486.65
753.354	1433.41
753.538	1421.12
753.722	1425.22
753.907	1421.12
754.091	1388.35
754.275	1414.98
754.459	1365.82
754.643	1398.59
754.828	1333.06
755.012	1396.54
755.196	1322.82
755.38	1312.58
755.564	1214.27
755.748	1298.24
755.932	1193.8
756.116	1267.52
756.3	1306.43
756.484	1238.85
756.668	1277.76
756.852	1124.16
757.036	1226.56
757.22	1210.18
757.404	1212.23
757.588	1158.98
757.772	1308.48
757.956	1171.27
758.14	1144.64
758.323	1138.5
758.507	1191.75
758.691	1230.66
758.875	1218.37
759.059	1152.84
759.242	1177.41
759.426	1103.68
759.61	1150.79
759.794	1103.68
759.977	1199.94
760.161	1167.17
760.345	1118.02
760.528	1085.25
760.712	1070.92
760.895	1095.49
761.079	1079.11
761.263	1048.39
761.446	1066.82
761.63	997.19
761.813	1122.12
761.997	1036.1
762.18	1005.38
762.364	1060.68
762.547	1126.21
762.731	937.8
762.914	1046.34
763.098	1011.53
763.281	1005.38
763.464	1027.91
763.648	1007.43
763.831	1036.1
764.015	1015.62
764.198	982.85
764.381	954.18
764.564	921.42
764.748	978.76
764.931	1044.29
765.114	929.61
765.297	1029.96
765.481	941.89
765.664	913.22
765.847	978.76
766.03	1066.82
766.213	915.27
766.397	937.8
766.58	876.36
766.763	864.07
766.946	913.22
767.129	913.22
767.312	941.89
767.495	898.89
767.678	986.95
767.861	950.09
768.044	945.99
768.227	929.61
768.41	847.69
768.593	966.47
768.776	978.76
768.959	872.26
769.142	884.55
769.324	859.98
769.507	978.76
769.69	827.21
769.873	794.44
770.056	855.88
770.239	839.5
770.421	857.93
770.604	831.3
770.787	812.87
770.97	862.02
771.152	821.06
771.335	841.54
771.518	757.58
771.7	806.73
771.883	874.31
772.066	757.58
772.248	900.94
772.431	753.48
772.613	776.01
772.796	761.67
772.978	851.78
773.161	839.5
773.343	751.43
773.526	829.26
773.708	683.85
773.891	733
774.073	720.71
774.256	778.06
774.438	839.5
774.621	708.43
774.803	806.73
774.985	667.47
775.168	847.69
775.35	790.35
775.532	804.68
775.715	716.62
775.897	726.86
776.079	679.75
776.261	761.67
776.444	757.58
776.626	632.65
776.808	636.75
776.99	749.39
777.173	679.75
777.355	634.7
777.537	675.66
777.719	667.47
777.901	595.79
778.083	692.04
778.265	595.79
778.447	692.04
778.629	556.88
778.811	628.56
778.993	636.75
779.175	696.14
779.357	618.32
779.539	542.54
779.721	669.52
779.903	638.8
780.085	606.03
780.267	612.17
780.449	581.45
780.631	673.61
780.812	663.37
780.994	595.79
781.176	503.63
781.358	560.97
781.54	569.16
781.721	581.45
781.903	589.64
782.085	520.01
782.267	610.12
782.448	593.74
782.63	474.96
782.812	479.05
782.993	501.58
783.175	462.67
783.357	513.87
783.538	513.87
783.72	489.29
783.901	511.82
784.083	544.59
784.264	532.3
784.446	497.49
784.627	376.66
784.809	511.82
784.99	501.58
785.172	538.45
785.353	429.9
785.535	438.09
785.716	470.86
785.897	436.05
786.079	520.01
786.26	438.09
786.441	429.9
786.623	444.24
786.804	505.68
786.985	477.01
787.167	364.37
787.348	460.62
787.529	415.57
787.71	466.77
787.891	495.44
788.073	352.08
788.254	382.8
788.435	462.67
788.616	427.85
788.797	360.27
788.978	325.46
789.159	413.52
789.34	397.14
789.522	429.9
789.703	382.8
789.884	376.66
790.065	411.47
790.246	427.85
790.427	366.42
790.607	440.14
790.788	448.33
790.969	364.37
791.15	317.26
791.331	339.79
791.512	325.46
791.693	364.37
791.874	331.6
792.054	401.23
792.235	364.37
792.416	372.56
792.597	347.98
792.778	302.93
792.958	335.7
793.139	368.46
793.32	352.08
793.5	282.45
793.681	358.22
793.862	382.8
794.042	319.31
794.223	284.5
794.404	309.07
794.584	245.59
794.765	360.27
794.945	390.99
795.126	255.83
795.306	347.98
795.487	343.89
795.667	221.01
795.848	325.46
796.028	235.35
796.209	333.65
796.389	343.89
796.57	282.45
796.75	208.72
796.93	331.6
797.111	307.02
797.291	284.5
797.471	284.5
797.652	268.11
797.832	276.31
798.012	284.5
798.192	298.83
798.373	235.35
798.553	286.54
798.733	268.11
798.913	257.87
799.093	198.48
799.274	288.59
799.454	270.16
799.634	229.2
799.814	282.45
799.994	204.63
800.174	216.91
800.354	192.34
800.534	214.87
800.714	216.91
800.894	200.53
801.074	186.19
801.254	167.76
801.434	278.35
801.614	192.34
801.794	247.63
801.974	839.5
802.154	194.39
802.334	300.88
802.514	167.76
802.693	278.35
802.873	233.3
803.053	225.11
803.233	282.45
803.413	298.83
803.592	235.35
803.772	173.91
803.952	237.39
804.131	212.82
804.311	206.67
804.491	315.22
804.67	216.91
804.85	192.34
805.03	233.3
805.209	268.11
805.389	184.15
805.568	184.15
805.748	108.37
805.928	216.91
806.107	212.82
806.287	235.35
806.466	184.15
806.646	241.49
806.825	169.81
807.004	180.05
807.184	259.92
807.363	274.26
807.543	198.48
807.722	159.57
807.901	169.81
808.081	186.19
808.26	194.39
808.439	216.91
808.619	171.86
808.798	155.47
808.977	200.53
809.156	135
809.336	145.24
809.515	235.35
809.694	167.76
809.873	227.15
810.052	91.99
810.231	163.67
810.411	147.28
810.59	188.24
810.769	151.38
810.948	178
811.127	77.65
811.306	167.76
811.485	143.19
811.664	167.76
811.843	102.23
812.022	194.39
812.201	194.39
812.38	110.42
812.559	190.29
812.737	137.04
812.916	167.76
813.095	167.76
813.274	141.14
813.453	169.81
813.632	155.47
813.811	143.19
813.989	77.65
814.168	167.76
814.347	102.23
814.526	98.13
814.704	196.43
814.883	169.81
815.062	94.04
815.24	98.13
815.419	71.51
815.598	167.76
815.776	85.84
815.955	102.23
816.133	85.84
816.312	153.43
816.49	153.43
816.669	143.19
816.847	165.71
817.026	190.29
817.204	161.62
817.383	98.13
817.561	36.69
817.74	65.36
817.918	184.15
818.097	77.65
818.275	147.28
818.453	143.19
818.632	130.9
818.81	153.43
818.988	112.47
819.167	124.76
819.345	143.19
819.523	141.14
819.701	132.95
819.879	169.81
820.058	143.19
820.236	65.36
820.414	85.84
820.592	32.6
820.77	114.52
820.948	73.56
821.127	155.47
821.305	61.27
821.483	89.94
821.661	132.95
821.839	175.95
822.017	87.89
822.195	69.46
822.373	137.04
822.551	63.32
822.729	124.76
822.907	190.29
823.085	169.81
823.262	53.08
823.44	69.46
823.618	155.47
823.796	106.32
823.974	104.28
824.152	135
824.329	122.71
824.507	143.19
824.685	130.9
824.863	44.88
825.04	143.19
825.218	16.21
825.396	73.56
825.574	151.38
825.751	110.42
825.929	73.56
826.107	124.76
826.284	94.04
826.462	118.61
826.639	77.65
826.817	55.12
826.994	85.84
827.172	48.98
827.349	188.24
827.527	98.13
827.704	61.27
827.882	128.85
828.059	44.88
828.237	96.08
828.414	233.3
828.591	79.7
828.769	46.93
828.946	126.8
829.124	147.28
829.301	51.03
829.478	79.7
829.655	77.65
829.833	65.36
830.01	98.13
830.187	126.8
830.364	48.98
830.542	46.93
830.719	159.57
830.896	147.28
831.073	110.42
831.25	116.56
831.427	44.88
831.604	14.17
831.782	40.79
831.959	122.71
832.136	145.24
832.313	202.58
832.49	73.56
832.667	110.42
832.844	28.5
833.021	118.61
833.198	28.5
833.374	94.04
833.551	143.19
833.728	135
833.905	85.84
834.082	32.6
834.259	53.08
834.436	94.04
834.612	-16.55
834.789	104.28
834.966	20.31
835.143	110.42
835.319	28.5
835.496	102.23
835.673	77.65
835.85	155.47
836.026	77.65
836.203	128.85
836.38	112.47
836.556	12.12
836.733	77.65
836.909	137.04
837.086	10.07
837.262	79.7
837.439	34.64
837.616	61.27
837.792	77.65
837.968	79.7
838.145	30.55
838.321	8.02
838.498	65.36
838.674	104.28
838.851	85.84
839.027	75.6
839.203	40.79
839.38	-28.84
839.556	69.46
839.732	63.32
839.909	44.88
840.085	85.84
840.261	18.26
840.437	-4.27
840.614	61.27
840.79	-10.41
840.966	77.65
841.142	44.88
841.318	71.51
841.494	32.6
841.671	28.5
841.847	-6.31
842.023	-77.99
842.199	38.74
842.375	57.17
842.551	30.55
842.727	24.4
842.903	161.62
843.079	57.17
843.255	110.42
843.431	-41.13
843.607	30.55
843.783	-10.41
843.959	59.22
844.134	3.93
844.31	126.8
844.486	12.12
844.662	36.69
844.838	38.74
845.013	36.69
845.189	5.97
845.365	69.46
845.541	16.21
845.716	69.46
845.892	75.6
846.068	12.12
846.244	32.6
846.419	-12.46
846.595	57.17
846.77	57.17
846.946	69.46
847.122	73.56
847.297	44.88
847.473	87.89
847.648	71.51
847.824	32.6
847.999	-116.9
848.175	-8.36
848.35	30.55
848.526	98.13
848.701	51.03
848.876	104.28
849.052	73.56
849.227	61.27
849.403	46.93
849.578	24.4
849.753	34.64
849.929	104.28
850.104	14.17
850.279	65.36
850.454	53.08
850.63	112.47
850.805	1.88
850.98	46.93
851.155	22.36
851.33	61.27
851.505	-6.31
851.681	137.04
851.856	-37.03
852.031	118.61
852.206	106.32
852.381	-28.84
852.556	36.69
852.731	-34.99
852.906	30.55
853.081	61.27
853.256	63.32
853.431	30.55
853.606	42.84
853.781	53.08
853.956	8.02
854.131	30.55
854.305	32.6
854.48	-8.36
854.655	44.88
854.83	28.5
855.005	65.36
855.18	98.13
855.354	22.36
855.529	14.17
855.704	-20.65
855.879	69.46
856.053	104.28
856.228	36.69
856.403	-10.41
856.577	79.7
856.752	-20.65
856.926	79.7
857.101	-53.42
857.276	57.17
857.45	118.61
857.625	85.84
857.799	55.12
857.974	8.02
858.148	22.36
858.323	69.46
858.497	20.31
858.672	22.36
858.846	61.27
859.02	36.69
859.195	-45.23
859.369	63.32
859.543	44.88
859.718	24.4
859.892	85.84
860.066	44.88
860.241	10.07
860.415	-37.03
860.589	-10.41
860.763	48.98
860.938	20.31
861.112	32.6
861.286	77.65
861.46	36.69
861.634	22.36
861.808	118.61
861.982	-28.84
862.157	10.07
862.331	65.36
862.505	-61.61
862.679	-12.46
862.853	26.45
863.027	34.64
863.201	-4.27
863.375	-0.17
863.549	-0.17
863.722	57.17
863.896	57.17
864.07	67.41
864.244	53.08
864.418	24.4
864.592	1.88
864.766	-12.46
864.939	67.41
865.113	14.17
865.287	5.97
865.461	-47.27
865.634	12.12
865.808	53.08
865.982	30.55
866.156	14.17
866.329	-37.03
866.503	106.32
866.676	3.93
866.85	14.17
867.024	28.5
867.197	-20.65
867.371	67.41
867.544	-28.84
867.718	-39.08
867.891	87.89
868.065	-0.17
868.238	-2.22
868.412	67.41
868.585	69.46
868.759	-26.79
868.932	12.12
869.105	44.88
869.279	63.32
869.452	-59.56
869.625	36.69
869.799	-10.41
869.972	12.12
870.145	-14.51
870.319	-10.41
870.492	36.69
870.665	26.45
870.838	-32.94
871.011	-73.9
871.185	32.6
871.358	-10.41
871.531	30.55
871.704	28.5
871.877	16.21
872.05	-26.79
872.223	-67.75
872.396	89.94
872.569	61.27
872.742	-37.03
872.915	61.27
873.088	-51.37
873.261	-12.46
873.434	46.93
873.607	-4.27
873.78	71.51
873.953	-49.32
874.126	-37.03
874.299	118.61
874.471	22.36
874.644	-10.41
874.817	53.08
874.99	53.08
875.163	14.17
875.335	42.84
875.508	-2.22
875.681	-73.9
875.853	-12.46
876.026	-32.94
876.199	22.36
876.371	75.6
876.544	57.17
876.717	57.17
876.889	-69.8
877.062	44.88
877.234	-102.57
877.407	42.84
877.579	110.42
877.752	73.56
877.924	53.08
878.097	-4.27
878.269	48.98
878.442	42.84
878.614	36.69
878.786	73.56
878.959	18.26
879.131	36.69
879.303	-28.84
879.476	-53.42
879.648	-4.27
879.82	-37.03
879.993	-67.75
880.165	16.21
880.337	5.97
880.509	20.31
880.681	-98.47
880.854	3.93
881.026	81.75
881.198	34.64
881.37	-14.51
881.542	-37.03
881.714	48.98
881.886	46.93
882.058	67.41
882.23	79.7
882.402	-37.03
882.574	-8.36
882.746	53.08
882.918	67.41
883.09	-24.75
883.262	-4.27
883.434	-20.65
883.606	-69.8
883.778	-22.7
883.95	87.89
884.122	-20.65
884.293	36.69
884.465	53.08
884.637	1.88
884.809	-37.03
884.98	14.17
885.152	-86.19
885.324	-10.41
885.496	8.02
885.667	-12.46
885.839	30.55
886.011	53.08
886.182	55.12
886.354	69.46
886.525	57.17
886.697	-10.41
886.869	-10.41
887.04	-10.41
887.212	53.08
887.383	3.93
887.555	-53.42
887.726	-26.79
887.897	-16.55
888.069	12.12
888.24	65.36
888.412	89.94
888.583	-49.32
888.754	79.7
888.926	3.93
889.097	-41.13
889.268	-45.23
889.44	20.31
889.611	-28.84
889.782	36.69
889.953	-24.75
890.125	14.17
890.296	-12.46
890.467	-10.41
890.638	-12.46
890.809	28.5
890.98	-16.55
891.151	-28.84
891.323	-10.41
891.494	3.93
891.665	85.84
891.836	-75.95
892.007	-20.65
892.178	53.08
892.349	28.5
892.52	-24.75
892.691	-55.47
892.862	-39.08
893.032	-4.27
893.203	-16.55
893.374	-26.79
893.545	65.36
893.716	-43.18
893.887	77.65
894.057	24.4
894.228	-4.27
894.399	-61.61
894.57	63.32
894.74	-10.41
894.911	30.55
895.082	44.88
895.253	-75.95
895.423	-26.79
895.594	1.88
895.764	30.55
895.935	28.5
896.106	-12.46
896.276	-49.32
896.447	5.97
896.617	-71.85
896.788	-10.41
896.958	53.08
897.129	-63.66
897.299	-41.13
897.47	53.08
897.64	81.75
897.81	18.26
897.981	46.93
898.151	-45.23
898.322	53.08
898.492	83.8
898.662	22.36
898.832	8.02
899.003	-12.46
899.173	12.12
899.343	-59.56
899.513	-8.36
