Data from USB4F104151__111__14-31-08-537.txt Node

Date: Thu Mar 13 14:31:08 EDT 2025
User: louis
Spectrometer: USB4F10415
Trigger mode: 4
Integration Time (sec): 2.500000E-2
Scans to average: 1
Electric dark correction enabled: true
Nonlinearity correction enabled: false
Boxcar width: 0
XAxis mode: Wavelengths
Number of Pixels in Spectrum: 3648
>>>>>Begin Spectral Data<<<<<
178.204	-183.63
178.424	-183.63
178.644	-183.63
178.864	-177.49
179.084	-173.39
179.304	-44.37
179.524	4.78
179.744	-13.65
179.964	60.07
180.184	27.31
180.404	82.6
180.624	-60.76
180.844	29.35
181.064	-118.1
181.283	-42.32
181.503	70.31
181.723	4.78
181.943	-44.37
182.163	23.21
182.383	29.35
182.602	-15.7
182.822	-19.8
183.042	41.64
183.262	29.35
183.482	-44.37
183.701	53.93
183.921	43.69
184.141	-93.52
184.361	72.36
184.58	-30.04
184.8	-11.61
185.02	-32.08
185.239	-3.41
185.459	-17.75
185.679	31.4
185.898	-27.99
186.118	45.74
186.338	-81.24
186.557	-7.51
186.777	8.87
186.997	58.03
187.216	-54.61
187.436	-3.41
187.655	-15.7
187.875	29.35
188.095	-27.99
188.314	113.32
188.534	66.22
188.753	45.74
188.973	37.55
189.192	-36.18
189.412	15.02
189.631	86.7
189.851	-40.28
190.07	55.98
190.29	27.31
190.509	55.98
190.729	-3.41
190.948	45.74
191.168	213.67
191.387	62.12
191.607	47.79
191.826	-25.94
192.045	96.94
192.265	58.03
192.484	-11.61
192.704	-30.04
192.923	-27.99
193.142	64.17
193.362	76.46
193.581	78.51
193.8	8.87
194.02	27.31
194.239	68.27
194.458	-68.95
194.678	-11.61
194.897	-44.37
195.116	51.88
195.335	45.74
195.555	58.03
195.774	-7.51
195.993	27.31
196.212	-34.13
196.432	-25.94
196.651	-79.19
196.87	31.4
197.089	131.75
197.308	64.17
197.528	17.07
197.747	-54.61
197.966	-34.13
198.185	15.02
198.404	-25.94
198.623	55.98
198.842	70.31
199.062	55.98
199.281	8.87
199.5	-3.41
199.719	-25.94
199.938	-9.56
200.157	35.5
200.376	49.83
200.595	82.6
200.814	-15.7
201.033	-11.61
201.252	82.6
201.471	58.03
201.69	37.55
201.909	-25.94
202.128	12.97
202.347	4.78
202.566	70.31
202.785	45.74
203.004	17.07
203.223	33.45
203.442	-5.46
203.661	37.55
203.879	60.07
204.098	76.46
204.317	-66.9
204.536	-3.41
204.755	37.55
204.974	-11.61
205.193	70.31
205.411	62.12
205.63	-23.89
205.849	119.46
206.068	15.02
206.287	29.35
206.505	86.7
206.724	-32.08
206.943	37.55
207.162	-19.8
207.381	37.55
207.599	78.51
207.818	66.22
208.037	4.78
208.255	92.84
208.474	21.16
208.693	-3.41
208.911	17.07
209.13	-42.32
209.349	-1.37
209.567	86.7
209.786	21.16
210.005	21.16
210.223	53.93
210.442	-36.18
210.661	45.74
210.879	72.36
211.098	29.35
211.316	-1.37
211.535	4.78
211.753	-17.75
211.972	53.93
212.191	12.97
212.409	-17.75
212.628	4.78
212.846	-25.94
213.065	33.45
213.283	70.31
213.502	8.87
213.72	12.97
213.938	33.45
214.157	-15.7
214.375	39.59
214.594	21.16
214.812	33.45
215.031	21.16
215.249	-11.61
215.467	23.21
215.686	-32.08
215.904	82.6
216.122	-62.8
216.341	117.42
216.559	-34.13
216.778	53.93
216.996	27.31
217.214	-7.51
217.432	-64.85
217.651	23.21
217.869	-9.56
218.087	66.22
218.306	-1.37
218.524	-36.18
218.742	15.02
218.96	23.21
219.179	15.02
219.397	47.79
219.615	94.89
219.833	-21.85
220.051	12.97
220.27	29.35
220.488	37.55
220.706	23.21
220.924	78.51
221.142	-1.37
221.36	62.12
221.578	0.68
221.796	-25.94
222.015	-15.7
222.233	39.59
222.451	70.31
222.669	-34.13
222.887	31.4
223.105	123.56
223.323	-17.75
223.541	47.79
223.759	47.79
223.977	-42.32
224.195	55.98
224.413	66.22
224.631	119.46
224.849	-11.61
225.067	62.12
225.285	10.92
225.503	-27.99
225.721	-42.32
225.939	4.78
226.157	-56.66
226.375	78.51
226.592	15.02
226.81	-1.37
227.028	37.55
227.246	119.46
227.464	29.35
227.682	4.78
227.9	45.74
228.117	-40.28
228.335	29.35
228.553	-23.89
228.771	-21.85
228.989	-17.75
229.206	66.22
229.424	12.97
229.642	-56.66
229.86	-36.18
230.077	6.83
230.295	-40.28
230.513	19.11
230.731	29.35
230.948	31.4
231.166	10.92
231.384	90.79
231.601	53.93
231.819	127.66
232.037	82.6
232.254	-7.51
232.472	12.97
232.689	-42.32
232.907	62.12
233.125	-85.33
233.342	12.97
233.56	-40.28
233.777	-1.37
233.995	-66.9
234.213	31.4
234.43	12.97
234.648	29.35
234.865	-19.8
235.083	12.97
235.3	33.45
235.518	-25.94
235.735	41.64
235.953	86.7
236.17	-48.47
236.388	4.78
236.605	45.74
236.822	23.21
237.04	15.02
237.257	58.03
237.475	6.83
237.692	45.74
237.909	-23.89
238.127	-83.28
238.344	21.16
238.562	41.64
238.779	-25.94
238.996	23.21
239.214	51.88
239.431	19.11
239.648	4.78
239.865	29.35
240.083	66.22
240.3	53.93
240.517	4.78
240.735	62.12
240.952	70.31
241.169	121.51
241.386	-27.99
241.603	4.78
241.821	-32.08
242.038	90.79
242.255	31.4
242.472	-83.28
242.689	15.02
242.907	-23.89
243.124	-44.37
243.341	58.03
243.558	17.07
243.775	4.78
243.992	25.26
244.209	94.89
244.426	39.59
244.643	82.6
244.86	29.35
245.078	31.4
245.295	66.22
245.512	23.21
245.729	-1.37
245.946	37.55
246.163	-3.41
246.38	78.51
246.597	4.78
246.814	-11.61
247.031	0.68
247.248	37.55
247.464	37.55
247.681	33.45
247.898	62.12
248.115	70.31
248.332	2.73
248.549	-30.04
248.766	39.59
248.983	88.75
249.2	8.87
249.417	64.17
249.633	92.84
249.85	37.55
250.067	29.35
250.284	-40.28
250.501	-19.8
250.717	66.22
250.934	4.78
251.151	60.07
251.368	-3.41
251.585	41.64
251.801	-77.14
252.018	27.31
252.235	37.55
252.451	49.83
252.668	4.78
252.885	37.55
253.102	-36.18
253.318	31.4
253.535	-23.89
253.752	-75.09
253.968	-36.18
254.185	23.21
254.401	-9.56
254.618	-3.41
254.835	45.74
255.051	105.13
255.268	-34.13
255.484	-17.75
255.701	-3.41
255.917	70.31
256.134	45.74
256.351	-36.18
256.567	-11.61
256.784	82.6
257	4.78
257.217	94.89
257.433	94.89
257.65	4.78
257.866	64.17
258.082	-17.75
258.299	15.02
258.515	-9.56
258.732	-13.65
258.948	-19.8
259.165	2.73
259.381	-19.8
259.597	15.02
259.814	21.16
260.03	55.98
260.246	12.97
260.463	41.64
260.679	80.55
260.895	-7.51
261.112	37.55
261.328	-32.08
261.544	-50.52
261.761	62.12
261.977	27.31
262.193	-32.08
262.409	15.02
262.626	-3.41
262.842	76.46
263.058	29.35
263.274	39.59
263.49	66.22
263.707	51.88
263.923	70.31
264.139	-23.89
264.355	53.93
264.571	45.74
264.787	43.69
265.004	21.16
265.22	19.11
265.436	103.08
265.652	-48.47
265.868	4.78
266.084	39.59
266.3	4.78
266.516	-3.41
266.732	39.59
266.948	-23.89
267.164	105.13
267.38	4.78
267.596	33.45
267.812	15.02
268.028	86.7
268.244	-19.8
268.46	25.26
268.676	-3.41
268.892	80.55
269.108	-9.56
269.324	51.88
269.54	-58.71
269.756	94.89
269.972	-15.7
270.188	62.12
270.403	10.92
270.619	64.17
270.835	-11.61
271.051	21.16
271.267	33.45
271.483	8.87
271.698	4.78
271.914	19.11
272.13	82.6
272.346	12.97
272.562	27.31
272.777	31.4
272.993	-11.61
273.209	-1.37
273.425	8.87
273.64	60.07
273.856	84.65
274.072	-1.37
274.287	-34.13
274.503	62.12
274.719	-1.37
274.934	45.74
275.15	-93.52
275.366	33.45
275.581	-34.13
275.797	45.74
276.012	45.74
276.228	23.21
276.444	0.68
276.659	4.78
276.875	-46.42
277.09	33.45
277.306	-50.52
277.521	78.51
277.737	78.51
277.952	-7.51
278.168	-7.51
278.383	88.75
278.599	15.02
278.814	105.13
279.03	-19.8
279.245	86.7
279.461	-15.7
279.676	47.79
279.892	37.55
280.107	-11.61
280.322	-23.89
280.538	6.83
280.753	12.97
280.969	0.68
281.184	66.22
281.399	70.31
281.615	121.51
281.83	0.68
282.045	76.46
282.26	12.97
282.476	31.4
282.691	-9.56
282.906	0.68
283.122	4.78
283.337	-40.28
283.552	55.98
283.767	-3.41
283.983	21.16
284.198	-32.08
284.413	98.99
284.628	-64.85
284.843	-19.8
285.058	41.64
285.274	58.03
285.489	-83.28
285.704	78.51
285.919	-17.75
286.134	72.36
286.349	45.74
286.564	-42.32
286.779	125.61
286.995	-5.46
287.21	19.11
287.425	103.08
287.64	41.64
287.855	51.88
288.07	23.21
288.285	-13.65
288.5	94.89
288.715	58.03
288.93	33.45
289.145	45.74
289.36	4.78
289.575	6.83
289.79	27.31
290.004	88.75
290.219	86.7
290.434	74.41
290.649	21.16
290.864	35.5
291.079	23.21
291.294	-5.46
291.509	29.35
291.724	49.83
291.938	-34.13
292.153	53.93
292.368	-58.71
292.583	41.64
292.798	29.35
293.012	12.97
293.227	17.07
293.442	41.64
293.657	47.79
293.871	70.31
294.086	53.93
294.301	70.31
294.516	21.16
294.73	-15.7
294.945	37.55
295.16	94.89
295.374	4.78
295.589	78.51
295.804	33.45
296.018	29.35
296.233	72.36
296.447	72.36
296.662	12.97
296.877	70.31
297.091	94.89
297.306	70.31
297.52	-25.94
297.735	53.93
297.949	53.93
298.164	107.18
298.378	10.92
298.593	51.88
298.807	98.99
299.022	-42.32
299.236	-73.04
299.451	41.64
299.665	21.16
299.88	53.93
300.094	78.51
300.309	43.69
300.523	2.73
300.737	-34.13
300.952	39.59
301.166	23.21
301.381	80.55
301.595	39.59
301.809	76.46
302.024	4.78
302.238	-19.8
302.452	-75.09
302.667	21.16
302.881	49.83
303.095	64.17
303.309	92.84
303.524	-42.32
303.738	15.02
303.952	-7.51
304.166	78.51
304.381	-58.71
304.595	12.97
304.809	-7.51
305.023	37.55
305.237	35.5
305.452	-27.99
305.666	107.18
305.88	64.17
306.094	66.22
306.308	12.97
306.522	37.55
306.736	19.11
306.95	31.4
307.164	2.73
307.379	27.31
307.593	62.12
307.807	12.97
308.021	-3.41
308.235	23.21
308.449	62.12
308.663	-32.08
308.877	66.22
309.091	62.12
309.305	88.75
309.519	6.83
309.733	23.21
309.947	-19.8
310.161	21.16
310.374	80.55
310.588	33.45
310.802	17.07
311.016	-3.41
311.23	12.97
311.444	6.83
311.658	4.78
311.872	4.78
312.085	45.74
312.299	70.31
312.513	76.46
312.727	80.55
312.941	-81.24
313.154	84.65
313.368	49.83
313.582	49.83
313.796	-9.56
314.009	-15.7
314.223	88.75
314.437	17.07
314.651	53.93
314.864	21.16
315.078	21.16
315.292	-11.61
315.505	107.18
315.719	88.75
315.933	12.97
316.146	-54.61
316.36	8.87
316.573	23.21
316.787	49.83
317.001	72.36
317.214	-42.32
317.428	10.92
317.641	82.6
317.855	-52.56
318.068	-40.28
318.282	62.12
318.495	105.13
318.709	62.12
318.922	10.92
319.136	45.74
319.349	-19.8
319.563	17.07
319.776	10.92
319.99	-11.61
320.203	53.93
320.417	105.13
320.63	-5.46
320.843	78.51
321.057	29.35
321.27	-34.13
321.483	94.89
321.697	35.5
321.91	35.5
322.124	-9.56
322.337	88.75
322.55	-81.24
322.763	27.31
322.977	12.97
323.19	58.03
323.403	17.07
323.617	-38.23
323.83	72.36
324.043	-23.89
324.256	41.64
324.469	-19.8
324.683	4.78
324.896	47.79
325.109	15.02
325.322	-58.71
325.535	53.93
325.748	33.45
325.962	-32.08
326.175	82.6
326.388	53.93
326.601	76.46
326.814	37.55
327.027	62.12
327.24	113.32
327.453	-36.18
327.666	55.98
327.879	64.17
328.092	47.79
328.305	29.35
328.518	70.31
328.731	15.02
328.944	-48.47
329.157	62.12
329.37	19.11
329.583	12.97
329.796	47.79
330.009	-36.18
330.222	62.12
330.435	8.87
330.648	62.12
330.861	23.21
331.073	70.31
331.286	-11.61
331.499	25.26
331.712	39.59
331.925	113.32
332.138	6.83
332.35	23.21
332.563	-3.41
332.776	-36.18
332.989	-3.41
333.202	4.78
333.414	45.74
333.627	-9.56
333.84	15.02
334.053	6.83
334.265	47.79
334.478	41.64
334.691	-1.37
334.903	66.22
335.116	-32.08
335.329	4.78
335.541	53.93
335.754	76.46
335.966	25.26
336.179	29.35
336.392	-9.56
336.604	-3.41
336.817	31.4
337.029	23.21
337.242	55.98
337.454	4.78
337.667	62.12
337.88	51.88
338.092	8.87
338.305	94.89
338.517	12.97
338.729	12.97
338.942	62.12
339.154	43.69
339.367	4.78
339.579	12.97
339.792	-73.04
340.004	37.55
340.217	-23.89
340.429	-3.41
340.641	53.93
340.854	76.46
341.066	-11.61
341.278	72.36
341.491	101.03
341.703	58.03
341.915	-27.99
342.128	82.6
342.34	29.35
342.552	21.16
342.764	-19.8
342.977	4.78
343.189	33.45
343.401	45.74
343.613	55.98
343.826	90.79
344.038	25.26
344.25	127.66
344.462	70.31
344.674	-48.47
344.886	82.6
345.099	6.83
345.311	49.83
345.523	33.45
345.735	-3.41
345.947	6.83
346.159	53.93
346.371	53.93
346.583	-9.56
346.795	111.27
347.007	12.97
347.219	6.83
347.431	49.83
347.643	17.07
347.855	6.83
348.067	47.79
348.279	-1.37
348.491	4.78
348.703	88.75
348.915	66.22
349.127	27.31
349.339	-17.75
349.551	-30.04
349.763	64.17
349.975	107.18
350.187	170.66
350.399	58.03
350.61	129.7
350.822	8.87
351.034	98.99
351.246	41.64
351.458	-3.41
351.669	70.31
351.881	103.08
352.093	29.35
352.305	70.31
352.517	47.79
352.728	68.27
352.94	80.55
353.152	33.45
353.363	27.31
353.575	55.98
353.787	66.22
353.999	62.12
354.21	51.88
354.422	-32.08
354.633	21.16
354.845	103.08
355.057	-58.71
355.268	66.22
355.48	47.79
355.692	-32.08
355.903	15.02
356.115	-13.65
356.326	74.41
356.538	172.71
356.749	49.83
356.961	94.89
357.172	86.7
357.384	-27.99
357.595	107.18
357.807	72.36
358.018	19.11
358.23	-11.61
358.441	37.55
358.653	70.31
358.864	4.78
359.075	4.78
359.287	12.97
359.498	45.74
359.709	82.6
359.921	10.92
360.132	53.93
360.344	8.87
360.555	37.55
360.766	23.21
360.977	-11.61
361.189	64.17
361.4	53.93
361.611	78.51
361.823	37.55
362.034	-11.61
362.245	45.74
362.456	-52.56
362.667	86.7
362.879	-3.41
363.09	78.51
363.301	53.93
363.512	-13.65
363.723	86.7
363.935	88.75
364.146	37.55
364.357	66.22
364.568	45.74
364.779	90.79
364.99	35.5
365.201	45.74
365.412	92.84
365.623	-36.18
365.834	103.08
366.045	12.97
366.256	62.12
366.467	37.55
366.678	4.78
366.889	17.07
367.1	-13.65
367.311	60.07
367.522	80.55
367.733	66.22
367.944	109.22
368.155	-15.7
368.366	74.41
368.577	127.66
368.788	49.83
368.999	62.12
369.209	6.83
369.42	94.89
369.631	113.32
369.842	88.75
370.053	27.31
370.264	111.27
370.474	-15.7
370.685	47.79
370.896	4.78
371.107	37.55
371.317	0.68
371.528	4.78
371.739	78.51
371.95	111.27
372.16	6.83
372.371	37.55
372.582	103.08
372.792	78.51
373.003	37.55
373.214	-13.65
373.424	103.08
373.635	-11.61
373.846	37.55
374.056	55.98
374.267	-19.8
374.477	4.78
374.688	19.11
374.898	-17.75
375.109	53.93
375.319	-21.85
375.53	51.88
375.74	29.35
375.951	-36.18
376.161	29.35
376.372	72.36
376.582	37.55
376.793	37.55
377.003	53.93
377.214	35.5
377.424	135.85
377.635	45.74
377.845	53.93
378.055	68.27
378.266	-30.04
378.476	33.45
378.686	0.68
378.897	58.03
379.107	58.03
379.317	98.99
379.528	62.12
379.738	51.88
379.948	115.37
380.158	45.74
380.369	58.03
380.579	55.98
380.789	15.02
380.999	105.13
381.21	37.55
381.42	86.7
381.63	31.4
381.84	55.98
382.05	-1.37
382.261	43.69
382.471	111.27
382.681	4.78
382.891	12.97
383.101	29.35
383.311	8.87
383.521	-1.37
383.731	98.99
383.941	41.64
384.151	113.32
384.361	70.31
384.571	-9.56
384.781	62.12
384.991	37.55
385.201	37.55
385.411	137.9
385.621	88.75
385.831	80.55
386.041	23.21
386.251	-9.56
386.461	168.62
386.671	33.45
386.881	62.12
387.091	17.07
387.301	139.94
387.511	66.22
387.72	51.88
387.93	21.16
388.14	29.35
388.35	-21.85
388.56	33.45
388.769	103.08
388.979	4.78
389.189	41.64
389.399	27.31
389.609	41.64
389.818	39.59
390.028	98.99
390.238	6.83
390.447	-40.28
390.657	21.16
390.867	82.6
391.076	-5.46
391.286	8.87
391.496	-25.94
391.705	45.74
391.915	88.75
392.125	17.07
392.334	53.93
392.544	94.89
392.753	53.93
392.963	111.27
393.172	76.46
393.382	39.59
393.591	152.23
393.801	78.51
394.01	96.94
394.22	119.46
394.429	31.4
394.639	6.83
394.848	135.85
395.058	84.65
395.267	127.66
395.477	29.35
395.686	72.36
395.895	131.75
396.105	148.14
396.314	88.75
396.524	58.03
396.733	64.17
396.942	131.75
397.152	98.99
397.361	117.42
397.57	139.94
397.78	185
397.989	74.41
398.198	156.33
398.407	144.04
398.617	154.28
398.826	146.09
399.035	148.14
399.244	160.42
399.453	129.7
399.663	156.33
399.872	129.7
400.081	29.35
400.29	103.08
400.499	80.55
400.708	115.37
400.917	105.13
401.127	146.09
401.336	119.46
401.545	225.96
401.754	103.08
401.963	176.81
402.172	62.12
402.381	107.18
402.59	49.83
402.799	115.37
403.008	193.19
403.217	162.47
403.426	135.85
403.635	152.23
403.844	135.85
404.053	203.43
404.262	180.9
404.471	225.96
404.68	176.81
404.888	144.04
405.097	146.09
405.306	225.96
405.515	160.42
405.724	152.23
405.933	191.14
406.142	203.43
406.35	303.78
406.559	207.53
406.768	234.15
406.977	281.25
407.185	289.45
407.394	275.11
407.603	228.01
407.812	205.48
408.02	287.4
408.229	303.78
408.438	215.72
408.646	266.92
408.855	287.4
409.064	330.41
409.272	318.12
409.481	406.18
409.69	277.16
409.898	365.22
410.107	488.1
410.315	375.46
410.524	367.27
410.733	391.84
410.941	418.47
411.15	393.89
411.358	471.72
411.567	555.68
411.775	479.91
411.984	522.91
412.192	670.37
412.401	484
412.609	520.87
412.818	580.26
413.026	635.55
413.234	709.28
413.443	580.26
413.651	641.7
413.86	645.79
414.068	760.48
414.276	821.92
414.485	783.01
414.693	823.97
414.901	955.04
415.11	844.45
415.318	916.12
415.526	991.9
415.734	991.9
415.943	963.23
416.151	1032.86
416.359	985.76
416.567	1116.83
416.776	1213.08
416.984	1307.29
417.192	1256.09
417.4	1237.66
417.608	1233.56
417.817	1374.87
418.025	1360.53
418.233	1563.28
418.441	1507.99
418.649	1514.13
418.857	1698.45
419.065	1706.64
419.273	1686.16
419.481	1743.5
419.689	1913.49
419.897	1972.88
420.105	1962.64
420.313	1956.49
420.521	1985.16
420.729	2108.04
420.937	2189.96
421.145	2325.13
421.353	2310.79
421.561	2495.11
421.769	2536.07
421.977	2556.55
422.185	2677.38
422.393	2902.65
422.601	2859.65
422.809	2927.23
423.017	3170.94
423.224	3080.83
423.432	3181.18
423.64	3236.47
423.848	3543.67
424.056	3279.48
424.263	3742.32
424.471	3764.85
424.679	3871.34
424.887	4026.99
425.094	4016.75
425.302	4231.79
425.51	4325.99
425.718	4303.46
425.925	4510.31
426.133	4485.73
426.341	4921.95
426.548	5061.21
426.756	5001.82
426.964	5132.89
427.171	5454.42
427.379	5597.78
427.586	5716.56
427.794	5913.17
428.001	6103.63
428.209	6472.26
428.417	6277.71
428.624	6781.51
428.832	6660.68
429.039	6681.16
429.247	6664.77
429.454	7320.12
429.662	7868.98
429.869	7385.66
430.076	7819.83
430.284	7545.4
430.491	7991.86
430.699	8315.44
430.906	8432.17
431.114	8604.2
431.321	8813.09
431.528	8935.97
431.736	9531.93
431.943	9884.18
432.15	9775.64
432.358	9675.29
432.565	10383.88
432.772	10265.1
432.979	10676.74
433.187	11063.81
433.394	11119.1
433.601	11837.94
433.808	11751.93
434.016	11829.75
434.223	12274.16
434.43	13111.78
434.637	12595.69
434.844	13531.61
435.052	13560.28
435.259	13791.7
435.466	13767.13
435.673	13703.64
435.88	14717.39
436.087	15428.03
436.294	15348.16
436.501	14965.19
436.708	15290.82
436.915	15509.95
437.122	16396.72
437.329	16556.46
437.537	17222.05
437.743	17394.08
437.95	16970.15
438.157	18174.36
438.364	18577.81
438.571	18481.55
438.778	18319.76
438.985	20375.92
439.192	19515.78
439.399	20257.14
439.606	19480.96
439.813	21176.68
440.02	22442.32
440.227	21334.37
440.433	21416.29
440.64	21864.8
440.847	21987.68
441.054	22782.29
441.261	24084.8
441.467	23791.94
441.674	24400.18
441.881	25295.14
442.088	24992.05
442.294	24736.05
442.501	25317.67
442.708	26028.32
442.914	27076.88
443.121	27969.79
443.328	27556.1
443.534	29194.48
443.741	28293.37
443.948	28197.12
444.154	30064.86
444.361	30185.69
444.568	29939.94
444.774	30073.06
444.981	30316.76
445.187	31172.81
445.394	32714.94
445.6	32198.85
445.807	35006.61
446.013	34039.97
446.22	34185.38
446.426	35952.77
446.633	35715.21
446.839	37171.32
447.046	35453.07
447.252	37816.43
447.459	37898.34
447.665	37611.63
447.871	39012.44
448.078	40835.13
448.284	39094.36
448.491	39882.83
448.697	41586.74
448.903	41869.36
449.11	41928.75
449.316	41379.89
449.522	42178.6
449.728	43393.04
449.935	43712.53
450.141	43968.52
450.347	44572.67
450.553	42895.39
450.76	43769.87
450.966	45074.43
451.172	44632.07
451.378	45844.46
451.584	44943.36
451.791	45645.81
451.997	45697.01
452.203	46737.38
452.409	46700.51
452.615	46485.48
452.821	44597.25
453.027	43915.28
453.233	46512.1
453.44	44625.92
453.646	44965.88
453.852	45205.5
454.058	46133.23
454.264	44550.15
454.47	45672.43
454.676	44308.49
454.882	45926.38
455.088	42022.95
455.294	43135
455.5	43118.62
455.705	43792.4
455.911	42117.16
456.117	40943.67
456.323	40708.16
456.529	38674.52
456.735	40220.74
456.941	39346.26
457.147	38422.62
457.352	37664.88
457.558	37378.16
457.764	37408.88
457.97	36325.5
458.176	35803.27
458.381	35207.31
458.587	33794.21
458.793	33771.69
458.999	31885.51
459.204	34097.31
459.41	33788.07
459.616	31058.13
459.821	31045.84
460.027	31088.85
460.233	29937.89
460.438	29171.95
460.644	29528.3
460.85	28092.67
461.055	27560.2
461.261	27369.74
461.466	25049.39
461.672	24604.98
461.878	26437.91
462.083	24629.55
462.289	24244.54
462.494	24097.08
462.7	22763.86
462.905	22382.93
463.111	23155.02
463.316	23155.02
463.522	22882.64
463.727	22704.46
463.932	22694.22
464.138	22325.59
464.343	22204.76
464.549	21662.05
464.754	22499.67
464.959	22352.21
465.165	22147.42
465.37	21295.46
465.575	20771.18
465.781	21426.53
465.986	21440.87
466.191	21041.51
466.397	20298.1
466.602	19478.91
466.807	20261.24
467.012	20216.18
467.218	20003.19
467.423	19542.4
467.628	19882.36
467.833	20842.86
468.038	19671.42
468.244	19546.5
468.449	19708.29
468.654	19345.8
468.859	19112.33
469.064	19188.1
469.269	18616.72
469.474	18493.84
469.679	18758.03
469.885	18176.41
470.09	18405.78
470.295	18198.93
470.5	18092.44
470.705	18078.1
470.91	17539.49
471.115	17457.57
471.32	17844.63
471.525	18012.57
471.73	17256.87
471.935	17394.08
472.139	16890.28
472.344	16880.04
472.549	16456.11
472.754	16554.41
472.959	16357.81
473.164	15944.12
473.369	15800.76
473.574	16097.72
473.778	16011.7
473.983	16011.7
474.188	15866.3
474.393	15368.64
474.598	15327.68
474.802	15012.29
475.007	15008.2
475.212	15049.16
475.417	14457.29
475.621	14402
475.826	14709.19
476.031	14189.01
476.235	13756.89
476.44	14358.99
476.645	13726.17
476.849	13892.05
477.054	13736.41
477.259	13406.69
477.463	13504.99
477.668	13384.16
477.872	13390.3
478.077	13103.59
478.282	12796.39
478.486	13132.26
478.691	12718.57
478.895	12718.57
479.1	12524.01
479.304	12511.72
479.509	12169.71
479.713	12448.24
479.918	12292.59
480.122	12085.75
480.326	11950.58
480.531	12122.61
480.735	11969.01
480.94	11827.7
481.144	12194.29
481.348	11747.83
481.553	11858.42
481.757	11713.02
481.961	11747.83
482.166	11866.61
482.37	11760.12
482.574	11414.01
482.778	11522.55
482.983	11885.05
483.187	11618.81
483.391	11895.29
483.595	11375.1
483.8	11420.16
484.004	11751.93
484.208	11850.23
484.412	11565.56
484.616	11725.3
484.821	11567.61
485.025	11414.01
485.229	11741.69
485.433	11592.19
485.637	11651.58
485.841	11452.92
486.045	11444.73
486.249	11563.51
486.453	11461.12
486.657	11575.8
486.861	11545.08
487.065	11311.61
487.269	11583.99
487.473	11598.33
487.677	11557.37
487.881	11753.98
488.085	11663.86
488.289	11565.56
488.493	11426.3
488.697	11706.87
488.901	11825.65
489.105	11727.35
489.309	11637.24
489.512	11911.67
489.716	11432.44
489.92	11721.21
490.124	11690.49
490.328	11858.42
490.531	11799.03
490.735	11901.43
490.939	11850.23
491.143	11989.49
491.346	11942.39
491.55	12116.47
491.754	11928.05
491.958	12184.05
492.161	11936.24
492.365	12153.33
492.569	12104.18
492.772	12063.22
492.976	12276.21
493.18	12339.69
493.383	12526.06
493.587	12468.72
493.79	12614.12
493.994	12378.61
494.197	12513.77
494.401	12403.18
494.605	12808.68
494.808	13013.48
495.012	12917.22
495.215	12878.31
495.419	13263.33
495.622	12892.65
495.825	12978.66
496.029	13203.94
496.232	13390.3
496.436	13341.15
496.639	13652.44
496.843	13445.6
497.046	13935.06
497.249	14463.44
497.453	13799.9
497.656	14342.61
497.859	14297.55
498.063	14526.92
498.266	14666.19
498.469	14760.39
498.673	14639.56
498.876	15086.02
499.079	15301.06
499.282	14985.67
499.485	15602.11
499.689	15350.21
499.892	15647.16
500.095	15794.62
500.298	16153.01
500.501	16122.29
500.705	16560.56
500.908	16652.72
501.111	16478.64
501.314	16939.43
501.517	17156.52
501.72	17379.75
501.923	16974.25
502.126	17559.97
502.329	18004.38
502.532	17832.35
502.735	18004.38
502.938	18411.92
503.141	18506.13
503.344	18928.01
503.547	18801.04
503.75	18964.87
503.953	19605.89
504.156	19659.13
504.359	19409.28
504.562	19777.92
504.765	20142.46
504.968	20171.13
505.17	20476.27
505.373	20506.99
505.576	20748.65
505.779	20746.61
505.982	21078.38
506.185	21471.59
506.387	21653.86
506.59	21999.96
506.793	22571.35
506.996	22198.62
507.198	22575.44
507.401	22509.91
507.604	22901.07
507.807	23136.59
508.009	23585.09
508.212	23519.56
508.415	23793.98
508.617	24074.56
508.82	24537.4
509.022	24291.64
509.225	24916.27
509.428	25067.82
509.63	25454.89
509.833	24990
510.035	26063.13
510.238	25874.72
510.44	26089.76
510.643	26732.82
510.845	26792.21
511.048	26716.43
511.25	27001.1
511.453	27228.43
511.655	28459.26
511.858	27621.64
512.06	28068.09
512.262	28297.47
512.465	28584.18
512.667	28809.46
512.87	28944.62
513.072	29231.34
513.274	29829.35
513.477	30132.45
513.679	30257.37
513.881	30083.3
514.084	30701.78
514.286	30544.09
514.488	30849.24
514.69	31654.09
514.893	31899.84
515.095	31865.03
515.297	32422.08
515.499	32198.85
515.701	32473.28
515.904	33183.92
516.106	33085.62
516.308	33804.45
516.51	33618.09
516.712	33720.49
516.914	34248.86
517.116	34554.01
517.318	34769.05
517.52	34824.34
517.722	35070.1
517.925	35418.25
518.127	35940.49
518.329	36028.55
518.531	36089.99
518.733	36624.51
518.935	36903.03
519.136	36638.84
519.338	37410.93
519.54	37617.77
519.742	37902.44
519.944	37447.79
520.146	38211.68
520.348	38701.15
520.55	38252.64
520.752	39252.05
520.954	39204.95
521.155	38946.9
521.357	39878.73
521.559	39522.38
521.761	40220.74
521.963	39972.94
522.164	40214.6
522.366	40724.54
522.568	40742.97
522.77	40589.38
522.971	41355.32
523.173	41248.82
523.375	41623.6
523.576	41379.89
523.778	41644.08
523.98	42147.88
524.181	42561.57
524.383	41832.49
524.584	42575.9
524.786	42526.75
524.988	42536.99
525.189	42821.66
525.391	42805.28
525.592	43077.66
525.794	43106.33
525.995	43407.38
526.197	43302.93
526.398	43083.8
526.6	43671.57
526.801	43833.36
527.003	43984.91
527.204	43864.08
527.406	44195.85
527.607	43907.08
527.808	44220.42
528.01	43735.06
528.211	43538.45
528.412	44673.02
528.614	44294.15
528.815	44441.6
529.016	44793.86
529.218	44001.29
529.419	44277.77
529.62	44400.65
529.822	44236.81
530.023	44132.36
530.224	44711.94
530.425	44324.87
530.626	43952.14
530.828	44232.71
531.029	44886.01
531.23	44505.09
531.431	44644.35
531.632	44437.51
531.833	44984.32
532.035	44689.41
532.236	44736.51
532.437	44607.49
532.638	44064.78
532.839	44109.83
533.04	44775.42
533.241	44300.29
533.442	45056
533.643	44490.76
533.844	44421.12
534.045	44374.02
534.246	43642.9
534.447	44296.2
534.648	44210.18
534.849	44673.02
535.05	44007.44
535.251	44310.53
535.451	44044.3
535.652	44376.07
535.853	44238.86
536.054	44425.22
536.255	44431.36
536.456	43821.07
536.657	44318.73
536.857	43649.04
537.058	43935.76
537.259	43954.19
537.46	43956.24
537.66	43743.25
537.861	44210.18
538.062	44214.28
538.263	43911.18
538.463	43640.85
538.664	43935.76
538.865	44193.8
539.065	43649.04
539.266	43296.79
539.466	44021.77
539.667	43345.94
539.868	44032.01
540.068	43597.84
540.269	43329.56
540.469	43704.34
540.67	43245.59
540.87	43671.57
541.071	43192.34
541.271	43694.1
541.472	43190.3
541.672	43100.18
541.873	43186.2
542.073	42706.97
542.274	43802.64
542.474	43155.48
542.675	42924.06
542.875	43911.18
543.075	43030.55
543.276	42711.07
543.476	43675.66
543.676	43137.05
543.877	43384.85
544.077	43307.03
544.277	43005.98
544.478	43429.91
544.678	43655.18
544.878	43309.08
545.078	43380.76
545.279	42649.63
545.479	43132.95
545.679	43448.34
545.879	43165.72
546.079	43221.02
546.28	42864.67
546.48	43065.37
546.68	43077.66
546.88	43212.82
547.08	43094.04
547.28	43124.76
547.48	42586.14
547.68	43503.63
547.88	43190.3
548.081	43388.95
548.281	42821.66
548.481	42829.85
548.681	43763.73
548.881	43296.79
549.081	42967.07
549.28	42780.7
549.48	43616.27
549.68	43118.62
549.88	43376.66
550.08	42936.35
550.28	43272.21
550.48	43241.49
550.68	43589.65
550.88	42932.25
551.08	43046.94
551.279	42919.96
551.479	43157.53
551.679	43237.4
551.879	43292.69
552.079	43259.93
552.278	43143.19
552.478	43173.91
552.678	43175.96
552.878	43386.9
553.077	43214.87
553.277	43108.38
553.477	43102.23
553.676	43419.67
553.876	43626.51
554.076	43173.91
554.275	42801.18
554.475	42674.21
554.674	43130.9
554.874	43331.61
555.074	43417.62
555.273	43386.9
555.473	43448.34
555.672	43071.51
555.872	43042.84
556.071	43141.14
556.271	43436.05
556.47	43442.2
556.67	43010.07
556.869	43008.03
557.068	43247.64
557.268	42956.83
557.467	42952.73
557.667	43474.96
557.866	43014.17
558.065	43253.78
558.265	43137.05
558.464	43401.24
558.663	43810.83
558.863	42885.15
559.062	43505.68
559.261	43124.76
559.461	43679.76
559.66	42874.91
559.859	43546.64
560.058	42917.92
560.258	43214.87
560.457	42504.23
560.656	43354.13
560.855	42885.15
561.054	43214.87
561.253	42946.59
561.453	42797.09
561.652	43108.38
561.851	43114.52
562.05	42936.35
562.249	42674.21
562.448	43145.24
562.647	42866.72
562.846	42942.49
563.045	43114.52
563.244	42143.78
563.443	43450.39
563.642	42139.69
563.841	42887.2
564.04	42696.74
564.239	43044.89
564.438	42786.85
564.637	42805.28
564.836	43057.18
565.035	42334.24
565.234	43284.5
565.432	42487.84
565.631	42330.15
565.83	42264.61
566.029	42647.58
566.228	42532.9
566.427	42493.99
566.625	42248.23
566.824	42137.64
567.023	42164.26
567.222	42113.06
567.42	42293.29
567.619	41887.79
567.818	41889.84
568.016	42035.24
568.215	42350.63
568.414	41551.92
568.612	42086.44
568.811	41791.53
569.01	41922.6
569.208	41345.08
569.407	41855.02
569.605	41283.64
569.804	41734.19
570.002	41504.82
570.201	41547.82
570.4	40900.67
570.598	40712.25
570.797	40904.76
570.995	41455.67
571.193	40659.01
571.392	41355.32
571.59	40970.3
571.789	40575.04
571.987	40847.42
572.186	40478.78
572.384	40439.87
572.582	40454.21
572.781	40835.13
572.979	40142.92
573.177	40061
573.376	40462.4
573.574	40206.41
573.772	40110.15
573.971	39856.2
574.169	39723.08
574.367	39477.33
574.565	40089.67
574.763	39510.1
574.962	39495.76
575.16	39282.77
575.358	39389.27
575.556	39120.98
575.754	39716.94
575.952	38740.06
576.151	39174.23
576.349	38795.35
576.547	38580.32
576.745	39108.69
576.943	38735.96
577.141	38672.48
577.339	38965.34
577.537	38832.22
577.735	38565.98
577.933	38178.92
578.131	38430.82
578.329	38350.95
578.527	37814.38
578.725	37847.15
578.923	38340.71
579.121	37791.85
579.319	37953.64
579.516	38123.62
579.714	37890.15
579.912	37619.82
580.11	37724.27
580.308	37607.53
580.506	37341.3
580.704	36771.96
580.901	36984.95
581.099	37003.38
581.297	36604.03
581.495	36397.18
581.692	36911.22
581.89	36628.6
582.088	36892.79
582.285	36589.69
582.483	37128.31
582.681	36565.12
582.878	36661.37
583.076	36333.7
583.274	36503.68
583.471	36001.93
583.669	36149.38
583.866	35815.56
584.064	36192.39
584.262	35836.04
584.459	35870.86
584.657	35657.87
584.854	35428.49
585.052	34838.68
585.249	35704.97
585.447	35879.05
585.644	34889.88
585.841	35152.02
586.039	35379.34
586.236	35090.58
586.434	35004.56
586.631	35068.05
586.828	35086.48
587.026	34916.5
587.223	34758.81
587.42	34812.06
587.618	34957.46
587.815	34367.65
588.012	34394.27
588.21	34365.6
588.407	34633.88
588.604	34195.62
588.801	33835.17
588.999	33925.28
589.196	33857.7
589.393	34089.12
589.59	33857.7
589.787	33177.78
589.984	33429.68
590.182	33222.83
590.379	33824.93
590.576	33468.59
590.773	33251.5
590.97	32962.74
591.167	33534.12
591.364	33106.1
591.561	33405.1
591.758	32997.56
591.955	32778.42
592.152	32723.13
592.349	32977.08
592.546	32866.49
592.743	32745.66
592.94	32430.27
593.137	32555.19
593.334	32829.62
593.531	32288.96
593.727	32188.61
593.924	32082.11
594.121	31987.91
594.318	32301.25
594.515	31875.27
594.712	32585.91
594.908	32055.49
595.105	31905.99
595.302	31736.01
595.499	32037.06
595.696	32067.78
595.892	31633.61
596.089	31922.37
596.286	31639.75
596.482	31670.47
596.679	31439.05
596.876	31641.8
597.072	31348.94
597.269	31500.49
597.466	31039.7
597.662	31363.28
597.859	31494.35
598.055	31213.77
598.252	31047.89
598.448	30951.63
598.645	31008.98
598.841	30916.82
599.038	30914.77
599.234	30730.45
599.431	30486.75
599.627	30392.54
599.824	31312.08
600.02	30773.46
600.217	30568.66
600.413	30623.96
600.609	30664.92
600.806	30347.48
601.002	31006.93
601.198	30431.45
601.395	30609.62
601.591	30390.49
601.787	30370.01
601.984	30380.25
602.18	30841.04
602.376	30367.96
602.572	30136.54
602.769	30261.47
602.965	29907.17
603.161	30318.81
603.357	30296.28
603.553	30296.28
603.75	30294.24
603.946	30247.13
604.142	30511.32
604.338	29774.05
604.534	30200.03
604.73	29718.76
604.926	29907.17
605.122	30093.54
605.318	29800.68
605.514	29884.64
605.71	29696.23
605.906	30019.81
606.102	30232.8
606.298	29901.03
606.494	30279.9
606.69	29937.89
606.886	29802.72
607.082	29411.56
607.278	30138.59
607.474	29632.74
607.67	30064.86
607.866	29376.75
608.062	30173.41
608.257	29890.79
608.453	29884.64
608.649	30083.3
608.845	29800.68
609.041	30107.87
609.236	30175.45
609.432	29782.24
609.628	29984.99
609.824	30066.91
610.019	29755.62
610.215	29729
610.411	30032.1
610.606	29620.45
610.802	29923.55
610.998	29505.77
611.193	29761.76
611.389	29636.84
611.584	29872.35
611.78	29784.29
611.976	29964.51
612.171	29960.42
612.367	30042.34
612.562	29808.87
612.758	29415.66
612.953	29468.9
613.149	30105.82
613.344	29681.89
613.539	30099.68
613.735	29905.12
613.93	30105.82
614.126	29606.12
614.321	30058.72
614.517	29825.25
614.712	29671.65
614.907	29790.44
615.103	30165.21
615.298	29567.21
615.493	29833.44
615.688	30116.06
615.884	30341.34
616.079	29604.07
616.274	29745.38
616.47	29419.75
616.665	30085.34
616.86	29219.05
617.055	29612.26
617.25	29595.88
617.445	29460.71
617.641	29499.62
617.836	29460.71
618.031	29210.86
618.226	29710.57
618.421	29642.98
618.616	29581.54
618.811	29038.83
619.006	29135.09
619.201	28754.16
619.396	29272.3
619.591	28758.26
619.786	29176.05
619.981	28428.54
620.176	28778.74
620.371	28682.49
620.566	28627.19
620.761	28444.92
620.956	28598.52
621.151	27834.63
621.346	28430.58
621.541	27848.96
621.735	28078.33
621.93	27515.14
622.125	27848.96
622.32	27427.08
622.515	27359.5
622.709	27613.45
622.904	27472.14
623.099	27177.23
623.294	27437.32
623.488	26956.05
623.683	27066.64
623.878	26601.75
624.072	26519.83
624.267	26331.42
624.462	26464.53
624.656	26192.15
624.851	26132.76
625.046	26155.29
625.24	26052.89
625.435	25714.98
625.629	25735.46
625.824	25807.14
626.018	25475.37
626.213	25069.87
626.407	25301.29
626.602	24934.7
626.796	25143.59
626.991	25080.11
627.185	24754.48
627.38	24467.77
627.574	24432.95
627.768	24140.09
627.963	24295.74
628.157	23990.59
628.352	24068.41
628.546	23619.91
628.74	23748.93
628.935	23396.68
629.129	23470.4
629.323	23441.73
629.517	23533.89
629.712	23374.15
629.906	23490.88
630.1	22899.02
630.294	23011.66
630.489	22903.12
630.683	22929.74
630.877	22583.63
631.071	22380.89
631.265	22483.28
631.459	22131.03
631.653	22042.97
631.848	21944.67
632.042	21770.59
632.236	21793.12
632.43	21823.84
632.624	21674.34
632.818	21639.52
633.012	21113.19
633.206	21518.69
633.4	21340.52
633.594	21092.71
633.788	20859.24
633.982	20963.69
634.176	20975.98
634.369	20638.06
634.563	20871.53
634.757	20558.19
634.951	20511.09
635.145	20511.09
635.339	20283.77
635.533	20017.53
635.726	20019.58
635.92	20128.12
636.114	19730.81
636.308	19652.99
636.501	19767.68
636.695	19399.04
636.889	19460.48
637.083	19315.08
637.276	19315.08
637.47	18819.47
637.664	18856.33
637.857	18936.2
638.051	18794.89
638.244	18727.31
638.438	18602.38
638.632	18719.12
638.825	18387.35
639.019	18311.57
639.212	18254.23
639.406	17957.27
639.599	17895.83
639.793	17932.7
639.986	17639.84
640.18	17850.78
640.373	17625.5
640.567	17410.47
640.76	17602.97
640.954	17226.15
641.147	17113.51
641.34	17301.92
641.534	17465.76
641.727	17074.6
641.92	16857.51
642.114	16626.09
642.307	16880.04
642.5	16611.76
642.694	16478.64
642.887	16372.14
643.08	16484.78
643.273	16290.23
643.467	16294.32
643.66	16105.91
643.853	16112.05
644.046	15999.41
644.239	15970.74
644.432	15618.49
644.626	15714.75
644.819	15454.65
645.012	15659.45
645.205	15737.27
645.398	15376.83
645.591	15311.3
645.784	15221.19
645.977	15045.06
646.17	15102.4
646.363	14993.86
646.556	14664.14
646.749	14830.02
646.942	14674.38
647.135	14660.04
647.328	14719.43
647.521	14289.36
647.714	14254.55
647.907	14191.06
648.099	14168.53
648.292	14266.83
648.485	13965.78
648.678	13726.17
648.871	13619.67
649.064	13607.39
649.256	13810.14
649.449	13603.29
649.642	13609.43
649.835	13504.99
650.027	13482.46
650.22	13361.63
650.413	13316.58
650.605	13074.92
650.798	13064.68
650.991	12902.89
651.183	13165.03
651.376	12843.49
651.568	12962.28
651.761	12884.45
651.954	12870.12
652.146	12653.03
652.339	12704.23
652.531	12415.47
652.724	12620.27
652.916	12046.83
653.109	12274.16
653.301	12280.3
653.494	12272.11
653.686	12040.69
653.879	12358.13
654.071	12120.56
654.263	11891.19
654.456	11964.92
654.648	11878.9
654.84	11510.27
655.033	11688.44
655.225	11592.19
655.417	11702.78
655.61	11674.1
655.802	11588.09
655.994	11420.16
656.186	11258.37
656.379	11289.09
656.571	11414.01
656.763	11051.52
656.955	11002.37
657.148	11194.88
657.34	10990.08
657.532	10871.3
657.724	10994.18
657.916	10969.6
658.108	10840.58
658.3	10664.46
658.492	10715.66
658.684	10580.49
658.876	10478.09
659.068	10672.65
659.26	10433.04
659.452	10615.3
659.644	10467.85
659.836	10066.45
660.028	10170.9
660.22	9916.95
660.412	10056.21
660.604	10195.47
660.796	10041.87
660.988	9996.82
661.18	9869.84
661.372	9689.62
661.563	9925.14
661.755	9785.88
661.947	9703.96
662.139	9540.12
662.331	9663
662.522	9505.31
662.714	9347.61
662.906	9329.18
663.097	9310.75
663.289	9234.97
663.481	9343.52
663.673	9191.97
663.864	9228.83
664.056	9103.9
664.247	9056.8
664.439	8860.2
664.631	9138.72
664.822	9081.38
665.014	8974.88
665.205	8870.44
665.397	8749.61
665.588	8733.22
665.78	8720.93
665.971	8776.23
666.163	8737.32
666.354	8704.55
666.546	8487.47
666.737	8509.99
666.929	8567.34
667.12	8217.13
667.311	8534.57
667.503	8364.59
667.694	8297
667.885	8147.5
668.077	8213.04
668.268	8092.21
668.459	8133.17
668.651	8286.76
668.842	8002.1
669.033	7973.43
669.224	7891.51
669.416	8077.87
669.607	8004.14
669.798	8049.2
669.989	7920.18
670.18	7813.68
670.371	7742
670.563	7713.33
670.754	7901.75
670.945	7807.54
671.136	7584.31
671.327	7418.43
671.518	7576.12
671.709	7567.93
671.9	7625.27
672.091	7496.25
672.282	7461.43
672.473	7232.06
672.664	7459.38
672.855	7246.4
673.046	7324.22
673.237	7467.58
673.428	7303.74
673.619	7402.04
673.809	7117.37
674	7111.23
674.191	7191.1
674.382	7156.29
674.573	7135.81
674.764	7070.27
674.954	7174.72
675.145	7094.85
675.336	6916.67
675.527	7191.1
675.717	7070.27
675.908	6888
676.099	6965.82
676.289	6990.4
676.48	6871.62
676.671	6869.57
676.861	6838.85
677.052	6685.25
677.243	6773.32
677.433	6683.2
677.624	6842.95
677.814	6763.08
678.005	6697.54
678.195	6844.99
678.386	6681.16
678.576	6627.91
678.767	6484.55
678.957	6337.1
679.148	6722.12
679.338	6574.66
679.529	6582.85
679.719	6615.62
679.909	6656.58
680.1	6525.51
680.29	6650.44
680.481	6378.06
680.671	6488.65
680.861	6488.65
681.052	6519.37
681.242	6406.73
681.432	6412.87
681.622	6462.02
681.813	6206.03
682.003	6275.66
682.193	6169.16
682.383	6398.54
682.573	6222.41
682.764	6304.33
682.954	6324.81
683.144	6365.77
683.334	6337.1
683.524	6335.05
683.714	6251.08
683.904	6302.28
684.094	6357.58
684.284	6070.86
684.474	6289.99
684.664	6165.07
684.854	6138.44
685.044	5984.85
685.234	5972.56
685.424	5995.09
685.614	6144.59
685.804	6097.49
685.994	6025.81
686.184	6036.05
686.374	5921.36
686.564	5804.63
686.753	5900.88
686.943	5886.54
687.133	5773.91
687.323	5634.64
687.513	5937.74
687.702	5802.58
687.892	5755.47
688.082	5675.6
688.272	5698.13
688.461	5837.39
688.651	5976.66
688.841	5681.75
689.03	5536.34
689.22	5618.26
689.41	5495.38
689.599	5526.1
689.789	5571.16
689.979	5618.26
690.168	5665.36
690.358	5419.61
690.547	5608.02
690.737	5483.09
690.926	5411.42
691.116	5390.94
691.305	5386.84
691.495	5384.79
691.684	5435.99
691.874	5499.48
692.063	5304.92
692.252	5395.03
692.442	5276.25
692.631	5175.9
692.82	5304.92
693.01	5149.28
693.199	5231.19
693.388	4977.25
693.578	5067.36
693.767	5116.51
693.956	5069.41
694.146	5063.26
694.335	5077.6
694.524	5077.6
694.713	5194.33
694.902	5034.59
695.092	5077.6
695.281	5081.69
695.47	4962.91
695.659	5030.49
695.848	4993.63
696.037	5040.73
696.226	4934.24
696.415	4842.08
696.604	4977.25
696.793	4784.74
696.982	4684.39
697.171	4969.05
697.36	4844.13
697.549	4723.3
697.738	4786.79
697.927	4735.59
698.116	4858.46
698.305	4690.53
698.494	4657.76
698.683	4708.96
698.872	4854.37
699.061	4776.55
699.25	4586.08
699.438	4600.42
699.627	4768.35
699.816	4657.76
700.005	4686.44
700.193	4688.48
700.382	4594.28
700.571	4665.96
700.76	4592.23
700.948	4618.85
701.137	4475.49
701.326	4493.93
701.514	4328.04
701.703	4477.54
701.892	4323.94
702.08	4571.75
702.269	4510.31
702.457	4330.09
702.646	4330.09
702.834	4313.7
703.023	4184.68
703.212	4250.22
703.4	4280.94
703.589	4293.23
703.777	4250.22
703.965	4237.93
704.154	4239.98
704.342	4168.3
704.531	4190.83
704.719	4043.37
704.907	4145.77
705.096	4151.92
705.284	4172.39
705.472	4061.8
705.661	4065.9
705.849	4049.52
706.037	4119.15
706.226	4190.83
706.414	4100.72
706.602	3940.97
706.79	4145.77
706.979	4020.85
707.167	3955.31
707.355	3986.03
707.543	4004.46
707.731	3846.77
707.919	3969.65
708.107	3824.24
708.296	4063.85
708.484	3836.53
708.672	3828.34
708.86	3897.97
709.048	3875.44
709.236	3725.94
709.424	3893.87
709.612	3781.23
709.8	3756.66
709.988	3885.68
710.176	3756.66
710.364	3727.99
710.551	3748.47
710.739	3889.78
710.927	3621.49
711.115	3662.45
711.303	3711.6
711.491	3783.28
711.679	3650.16
711.866	3652.21
712.054	3783.28
712.242	3646.07
712.43	3547.76
712.617	3609.2
712.805	3510.9
712.993	3535.48
713.181	3461.75
713.368	3541.62
713.556	3551.86
713.744	3453.56
713.931	3578.48
714.119	3564.15
714.306	3586.68
714.494	3435.13
714.682	3543.67
714.869	3445.37
715.057	3402.36
715.244	3381.88
715.432	3445.37
715.619	3424.89
715.807	3295.86
715.994	3441.27
716.182	3308.15
716.369	3232.38
716.556	3281.53
716.744	3322.49
716.931	3256.95
717.119	3408.5
717.306	3248.76
717.493	3252.86
717.681	3277.43
717.868	3220.09
718.055	3297.91
718.242	3256.95
718.43	3256.95
718.617	3170.94
718.804	3201.66
718.991	3179.13
719.179	3136.12
719.366	3156.6
719.553	3093.12
719.74	3076.73
719.927	3089.02
720.114	3068.54
720.301	3060.35
720.488	2966.14
720.676	3121.79
720.863	3068.54
721.05	3115.64
721.237	2937.47
721.424	2970.24
721.611	3005.05
721.798	2941.57
721.985	2867.84
722.172	2890.37
722.358	2863.74
722.545	3019.39
722.732	2849.41
722.919	2974.33
723.106	2908.8
723.293	3048.06
723.48	2906.75
723.667	2857.6
723.853	2964.09
724.04	3039.87
724.227	2855.55
724.414	2876.03
724.6	2824.83
724.787	2857.6
724.974	2773.63
725.161	2882.17
725.347	2847.36
725.534	2808.45
725.72	2814.59
725.907	2822.78
726.094	2847.36
726.28	2691.71
726.467	2794.11
726.653	2669.19
726.84	2732.67
727.027	2783.87
727.213	2765.44
727.4	2626.18
727.586	2742.91
727.773	2704
727.959	2773.63
728.145	2630.27
728.332	2634.37
728.518	2640.51
728.705	2720.39
728.891	2695.81
729.077	2548.36
729.264	2597.51
729.45	2546.31
729.636	2720.39
729.823	2521.73
730.009	2556.55
730.195	2593.41
730.382	2577.03
730.568	2527.88
730.754	2521.73
730.94	2407.05
731.126	2564.74
731.313	2617.99
731.499	2585.22
731.685	2521.73
731.871	2538.12
732.057	2523.78
732.243	2454.15
732.429	2540.16
732.615	2398.85
732.801	2652.8
732.987	2542.21
733.173	2400.9
733.359	2458.25
733.545	2507.4
733.731	2585.22
733.917	2484.87
734.103	2398.85
734.289	2431.62
734.475	2448.01
734.661	2527.88
734.847	2423.43
735.033	2370.18
735.219	2368.13
735.404	2445.96
735.59	2370.18
735.776	2347.65
735.962	2407.05
736.148	2312.84
736.333	2333.32
736.519	2318.98
736.705	2372.23
736.89	2347.65
737.076	2429.57
737.262	2208.39
737.447	2300.55
737.633	2284.17
737.819	2183.82
738.004	2249.35
738.19	2337.41
738.375	2200.2
738.561	2235.02
738.747	2292.36
738.932	2081.42
739.118	2323.08
739.303	2177.67
739.489	2118.28
739.674	2235.02
739.859	2237.06
740.045	2134.67
740.23	2118.28
740.416	2099.85
740.601	2095.75
740.786	2167.43
740.972	2058.89
741.157	2192.01
741.342	2009.74
741.528	1989.26
741.713	2142.86
741.898	2122.38
742.084	2044.56
742.269	2085.51
742.454	1997.45
742.639	2108.04
742.824	2019.98
743.01	2134.67
743.195	2005.64
743.38	2022.03
743.565	1870.48
743.75	2034.32
743.935	1979.02
744.12	2040.46
744.305	1907.34
744.49	1917.58
744.675	1938.06
744.86	1927.82
745.045	1888.91
745.23	1946.25
745.415	1852.05
745.6	1925.77
745.785	1735.31
745.97	1931.92
746.155	1850
746.34	1847.95
746.525	1825.42
746.71	1837.71
746.895	1841.81
747.079	1753.74
747.264	1899.15
747.449	1905.29
747.634	1835.66
747.819	1733.26
748.003	1729.17
748.188	1663.63
748.373	1776.27
748.557	1766.03
748.742	1634.96
748.927	1741.46
749.111	1626.77
749.296	1663.63
749.481	1708.69
749.665	1637.01
749.85	1579.67
750.034	1602.19
750.219	1692.3
750.404	1553.04
750.588	1651.35
750.773	1448.6
750.957	1479.32
751.141	1622.67
751.326	1555.09
751.51	1571.47
751.695	1532.56
751.879	1456.79
752.064	1585.81
752.248	1501.84
752.432	1544.85
752.617	1491.6
752.801	1536.66
752.985	1407.64
753.17	1491.6
753.354	1471.12
753.538	1426.07
753.722	1385.11
753.907	1321.62
754.091	1323.67
754.275	1424.02
754.459	1393.3
754.643	1348.25
754.828	1403.54
755.012	1313.43
755.196	1301.14
755.38	1344.15
755.564	1315.48
755.748	1381.01
755.932	1364.63
756.116	1323.67
756.3	1245.85
756.484	1251.99
756.668	1231.51
756.852	1301.14
757.036	1254.04
757.22	1235.61
757.404	1211.03
757.588	1092.25
757.772	1225.37
757.956	1266.33
758.14	1272.47
758.323	1176.22
758.507	1229.46
758.691	1151.64
758.875	1208.98
759.059	1204.89
759.242	1200.79
759.426	1159.83
759.61	1090.2
759.794	1137.31
759.977	1213.08
760.161	1165.98
760.345	1092.25
760.528	1145.5
760.712	1118.87
760.895	1153.69
761.079	1047.19
761.263	1129.11
761.446	1024.67
761.63	1178.26
761.813	1030.81
761.997	1145.5
762.18	993.95
762.364	1053.34
762.547	942.75
762.731	1022.62
762.914	1008.28
763.098	1028.76
763.281	959.13
763.464	1000.09
763.648	1036.95
763.831	1077.91
764.015	979.61
764.198	1041.05
764.381	1116.83
764.564	1028.76
764.748	895.64
764.931	934.56
765.114	989.85
765.297	946.84
765.481	909.98
765.664	973.47
765.847	883.36
766.03	969.37
766.213	1004.19
766.397	932.51
766.58	885.41
766.763	946.84
766.946	969.37
767.129	938.65
767.312	901.79
767.495	905.88
767.678	883.36
767.861	856.73
768.044	897.69
768.227	905.88
768.41	973.47
768.593	875.17
768.776	916.12
768.959	826.01
769.142	914.08
769.324	832.16
769.507	848.54
769.69	817.82
769.873	864.93
770.056	971.42
770.239	901.79
770.421	938.65
770.604	885.41
770.787	832.16
770.97	852.64
771.152	864.93
771.335	848.54
771.518	807.58
771.7	873.12
771.883	864.93
772.066	754.34
772.248	864.93
772.431	897.69
772.613	856.73
772.796	737.95
772.978	783.01
773.161	858.78
773.343	737.95
773.526	836.25
773.708	785.05
773.891	719.52
774.073	778.91
774.256	801.44
774.438	834.21
774.621	717.47
774.803	826.01
774.985	647.84
775.168	799.39
775.35	758.43
775.532	737.95
775.715	717.47
775.897	656.03
776.079	719.52
776.261	713.38
776.444	668.32
776.626	717.47
776.808	762.53
776.99	694.94
777.173	660.13
777.355	600.74
777.537	641.7
777.719	684.7
777.901	629.41
778.083	653.98
778.265	709.28
778.447	619.17
778.629	713.38
778.811	660.13
778.993	651.94
779.175	684.7
779.357	570.02
779.539	561.83
779.721	570.02
779.903	637.6
780.085	645.79
780.267	580.26
780.449	619.17
780.631	627.36
780.812	645.79
780.994	656.03
781.176	578.21
781.358	496.29
781.54	670.37
781.721	615.07
781.903	565.92
782.085	514.72
782.267	453.28
782.448	529.06
782.63	582.31
782.812	541.35
782.993	522.91
783.175	520.87
783.357	537.25
783.538	555.68
783.72	438.95
783.901	541.35
784.083	490.15
784.264	473.76
784.446	449.19
784.627	473.76
784.809	500.39
784.99	455.33
785.172	449.19
785.353	479.91
785.535	463.52
785.716	447.14
785.897	434.85
786.079	449.19
786.26	484
786.441	453.28
786.623	430.76
786.804	481.96
786.985	449.19
787.167	441
787.348	443.04
787.529	430.76
787.71	457.38
787.891	414.37
788.073	365.22
788.254	352.93
788.435	432.8
788.616	418.47
788.797	359.08
788.978	383.65
789.159	340.65
789.34	426.66
789.522	365.22
789.703	422.56
789.884	481.96
790.065	391.84
790.246	524.96
790.427	309.93
790.607	348.84
790.788	441
790.969	322.21
791.15	393.89
791.331	410.28
791.512	357.03
791.693	225.96
791.874	357.03
792.054	357.03
792.235	432.8
792.416	297.64
792.597	334.5
792.778	367.27
792.958	336.55
793.139	299.69
793.32	381.6
793.5	277.16
793.681	416.42
793.862	250.53
794.042	299.69
794.223	203.43
794.404	275.11
794.584	244.39
794.765	342.69
794.945	297.64
795.126	252.58
795.306	383.65
795.487	295.59
795.667	334.5
795.848	285.35
796.028	299.69
796.209	271.01
796.389	373.41
796.57	332.45
796.75	334.5
796.93	340.65
797.111	271.01
797.291	291.49
797.471	250.53
797.652	225.96
797.832	254.63
798.012	332.45
798.192	236.2
798.373	283.3
798.553	213.67
798.733	221.86
798.913	221.86
799.093	266.92
799.274	236.2
799.454	242.34
799.634	283.3
799.814	311.97
799.994	242.34
800.174	326.31
800.354	213.67
800.534	211.62
800.714	285.35
800.894	244.39
801.074	185
801.254	283.3
801.434	291.49
801.614	228.01
801.794	209.58
801.974	807.58
802.154	203.43
802.334	217.77
802.514	146.09
802.693	281.25
802.873	191.14
803.053	260.77
803.233	217.77
803.413	209.58
803.592	217.77
803.772	172.71
803.952	240.29
804.131	217.77
804.311	199.34
804.491	289.45
804.67	213.67
804.85	201.38
805.03	148.14
805.209	228.01
805.389	209.58
805.568	303.78
805.748	193.19
805.928	178.86
806.107	201.38
806.287	189.1
806.466	185
806.646	207.53
806.825	209.58
807.004	176.81
807.184	144.04
807.363	242.34
807.543	205.48
807.722	119.46
807.901	271.01
808.081	168.62
808.26	70.31
808.439	152.23
808.619	242.34
808.798	144.04
808.977	176.81
809.156	234.15
809.336	164.52
809.515	203.43
809.694	189.1
809.873	78.51
810.052	144.04
810.231	182.95
810.411	133.8
810.59	268.97
810.769	168.62
810.948	146.09
811.127	94.89
811.306	217.77
811.485	127.66
811.664	144.04
811.843	191.14
812.022	225.96
812.201	119.46
812.38	148.14
812.559	70.31
812.737	170.66
812.916	82.6
813.095	185
813.274	154.28
813.453	109.22
813.632	107.18
813.811	193.19
813.989	103.08
814.168	121.51
814.347	74.41
814.526	131.75
814.704	148.14
814.883	162.47
815.062	98.99
815.24	156.33
815.419	133.8
815.598	88.75
815.776	94.89
815.955	139.94
816.133	66.22
816.312	141.99
816.49	109.22
816.669	203.43
816.847	152.23
817.026	111.27
817.204	74.41
817.383	103.08
817.561	119.46
817.74	119.46
817.918	127.66
818.097	156.33
818.275	78.51
818.453	162.47
818.632	168.62
818.81	135.85
818.988	148.14
819.167	121.51
819.345	62.12
819.523	74.41
819.701	62.12
819.879	105.13
820.058	193.19
820.236	121.51
820.414	103.08
820.592	127.66
820.77	49.83
820.948	78.51
821.127	29.35
821.305	197.29
821.483	29.35
821.661	72.36
821.839	53.93
822.017	111.27
822.195	131.75
822.373	72.36
822.551	94.89
822.729	133.8
822.907	49.83
823.085	111.27
823.262	96.94
823.44	39.59
823.618	86.7
823.796	115.37
823.974	74.41
824.152	70.31
824.329	78.51
824.507	88.75
824.685	94.89
824.863	111.27
825.04	88.75
825.218	115.37
825.396	105.13
825.574	78.51
825.751	60.07
825.929	111.27
826.107	58.03
826.284	-1.37
826.462	12.97
826.639	90.79
826.817	25.26
826.994	103.08
827.172	80.55
827.349	111.27
827.527	31.4
827.704	160.42
827.882	74.41
828.059	41.64
828.237	70.31
828.414	107.18
828.591	58.03
828.769	68.27
828.946	21.16
829.124	62.12
829.301	129.7
829.478	96.94
829.655	76.46
829.833	53.93
830.01	23.21
830.187	78.51
830.364	96.94
830.542	27.31
830.719	111.27
830.896	111.27
831.073	33.45
831.25	78.51
831.427	86.7
831.604	70.31
831.782	-15.7
831.959	86.7
832.136	19.11
832.313	31.4
832.49	111.27
832.667	148.14
832.844	6.83
833.021	156.33
833.198	43.69
833.374	119.46
833.551	84.65
833.728	72.36
833.905	162.47
834.082	-32.08
834.259	135.85
834.436	70.31
834.612	111.27
834.789	113.32
834.966	94.89
835.143	111.27
835.319	29.35
835.496	43.69
835.673	37.55
835.85	70.31
836.026	88.75
836.203	-7.51
836.38	29.35
836.556	105.13
836.733	8.87
836.909	70.31
837.086	90.79
837.262	29.35
837.439	-21.85
837.616	37.55
837.792	41.64
837.968	74.41
838.145	41.64
838.321	33.45
838.498	47.79
838.674	68.27
838.851	68.27
839.027	55.98
839.203	98.99
839.38	107.18
839.556	80.55
839.732	84.65
839.909	-3.41
840.085	86.7
840.261	35.5
840.437	88.75
840.614	-19.8
840.79	62.12
840.966	103.08
841.142	111.27
841.318	58.03
841.494	39.59
841.671	74.41
841.847	-1.37
842.023	-56.66
842.199	74.41
842.375	86.7
842.551	-60.76
842.727	35.5
842.903	137.9
843.079	51.88
843.255	12.97
843.431	-11.61
843.607	45.74
843.783	-15.7
843.959	88.75
844.134	47.79
844.31	53.93
844.486	53.93
844.662	-19.8
844.838	-44.37
845.013	119.46
845.189	19.11
845.365	29.35
845.541	37.55
845.716	41.64
845.892	27.31
846.068	-52.56
846.244	29.35
846.419	119.46
846.595	-44.37
846.77	-1.37
846.946	70.31
847.122	6.83
847.297	49.83
847.473	23.21
847.648	-50.52
847.824	78.51
847.999	-32.08
848.175	78.51
848.35	4.78
848.526	94.89
848.701	39.59
848.876	78.51
849.052	35.5
849.227	35.5
849.403	53.93
849.578	35.5
849.753	0.68
849.929	21.16
850.104	-46.42
850.279	-27.99
850.454	4.78
850.63	98.99
850.805	80.55
850.98	43.69
851.155	-7.51
851.33	31.4
851.505	-60.76
851.681	58.03
851.856	53.93
852.031	0.68
852.206	29.35
852.381	62.12
852.556	-15.7
852.731	80.55
852.906	21.16
853.081	2.73
853.256	21.16
853.431	21.16
853.606	-36.18
853.781	-9.56
853.956	17.07
854.131	101.03
854.305	21.16
854.48	-23.89
854.655	-21.85
854.83	23.21
855.005	103.08
855.18	-48.47
855.354	-5.46
855.529	43.69
855.704	12.97
855.879	88.75
856.053	6.83
856.228	47.79
856.403	-32.08
856.577	62.12
856.752	-25.94
856.926	21.16
857.101	25.26
857.276	-17.75
857.45	98.99
857.625	-1.37
857.799	12.97
857.974	-19.8
858.148	-11.61
858.323	62.12
858.497	8.87
858.672	-15.7
858.846	70.31
859.02	33.45
859.195	45.74
859.369	66.22
859.543	64.17
859.718	12.97
859.892	-7.51
860.066	6.83
860.241	-101.72
860.415	23.21
860.589	37.55
860.763	12.97
860.938	23.21
861.112	29.35
861.286	-23.89
861.46	4.78
861.634	-11.61
861.808	72.36
861.982	37.55
862.157	-3.41
862.331	0.68
862.505	-77.14
862.679	84.65
862.853	-48.47
863.027	-27.99
863.201	39.59
863.375	-56.66
863.549	49.83
863.722	-15.7
863.896	-3.41
864.07	-9.56
864.244	-9.56
864.418	66.22
864.592	33.45
864.766	29.35
864.939	-66.9
865.113	15.02
865.287	105.13
865.461	-19.8
865.634	37.55
865.808	-71
865.982	-32.08
866.156	-52.56
866.329	-101.72
866.503	-19.8
866.676	29.35
866.85	6.83
867.024	-60.76
867.197	10.92
867.371	-11.61
867.544	-19.8
867.718	-17.75
867.891	58.03
868.065	-34.13
868.238	-13.65
868.412	21.16
868.585	-3.41
868.759	31.4
868.932	-40.28
869.105	-32.08
869.279	6.83
869.452	-36.18
869.625	-30.04
869.799	-1.37
869.972	-101.72
870.145	4.78
870.319	21.16
870.492	-50.52
870.665	15.02
870.838	55.98
871.011	15.02
871.185	-11.61
871.358	-3.41
871.531	-3.41
871.704	-48.47
871.877	-32.08
872.05	55.98
872.223	-89.43
872.396	66.22
872.569	12.97
872.742	-85.33
872.915	17.07
873.088	-23.89
873.261	-11.61
873.434	39.59
873.607	-27.99
873.78	33.45
873.953	-19.8
874.126	-3.41
874.299	23.21
874.471	-34.13
874.644	-58.71
874.817	39.59
874.99	45.74
875.163	-27.99
875.335	90.79
875.508	-54.61
875.681	66.22
875.853	-21.85
876.026	-52.56
876.199	-3.41
876.371	37.55
876.544	0.68
876.717	-25.94
876.889	23.21
877.062	0.68
877.234	12.97
877.407	-11.61
877.579	-32.08
877.752	78.51
877.924	-15.7
878.097	15.02
878.269	-25.94
878.442	96.94
878.614	-1.37
878.786	49.83
878.959	21.16
879.131	-11.61
879.303	-46.42
879.476	4.78
879.648	21.16
879.82	10.92
879.993	4.78
880.165	0.68
880.337	-19.8
880.509	6.83
880.681	-142.68
880.854	-68.95
881.026	0.68
881.198	17.07
881.37	-23.89
881.542	-56.66
881.714	-56.66
881.886	6.83
882.058	8.87
882.23	-75.09
882.402	-25.94
882.574	-7.51
882.746	4.78
882.918	-38.23
883.09	-11.61
883.262	29.35
883.434	15.02
883.606	-11.61
883.778	-36.18
883.95	10.92
884.122	-30.04
884.293	55.98
884.465	51.88
884.637	31.4
884.809	-93.52
884.98	49.83
885.152	35.5
885.324	-44.37
885.496	-36.18
885.667	29.35
885.839	-3.41
886.011	0.68
886.182	-85.33
886.354	33.45
886.525	33.45
886.697	37.55
886.869	-34.13
887.04	-9.56
887.212	21.16
887.383	41.64
887.555	-17.75
887.726	43.69
887.897	45.74
888.069	-7.51
888.24	-15.7
888.412	-44.37
888.583	-25.94
888.754	31.4
888.926	-50.52
889.097	-27.99
889.268	47.79
889.44	-3.41
889.611	-81.24
889.782	-25.94
889.953	-23.89
890.125	-13.65
890.296	-19.8
890.467	-15.7
890.638	-44.37
890.809	-25.94
890.98	-73.04
891.151	25.26
891.323	29.35
891.494	-52.56
891.665	-42.32
891.836	45.74
892.007	-17.75
892.178	41.64
892.349	-27.99
892.52	19.11
892.691	37.55
892.862	-56.66
893.032	-101.72
893.203	-3.41
893.374	8.87
893.545	29.35
893.716	19.11
893.887	29.35
894.057	17.07
894.228	-1.37
894.399	-54.61
894.57	62.12
894.74	-66.9
894.911	70.31
895.082	-101.72
895.253	-36.18
895.423	-7.51
895.594	121.51
895.764	-89.43
895.935	-9.56
896.106	6.83
896.276	-118.1
896.447	-11.61
896.617	-32.08
896.788	31.4
896.958	4.78
897.129	-42.32
897.299	-60.76
897.47	-3.41
897.64	49.83
897.81	-3.41
897.981	0.68
898.151	-23.89
898.322	6.83
898.492	6.83
898.662	-17.75
898.832	-66.9
899.003	8.87
899.173	-40.28
899.343	-44.37
899.513	-11.61
