Data from USB4F104151__283__14-34-46-350.txt Node

Date: Thu Mar 13 14:34:46 EDT 2025
User: louis
Spectrometer: USB4F10415
Trigger mode: 4
Integration Time (sec): 2.500000E-2
Scans to average: 1
Electric dark correction enabled: true
Nonlinearity correction enabled: false
Boxcar width: 0
XAxis mode: Wavelengths
Number of Pixels in Spectrum: 3648
>>>>>Begin Spectral Data<<<<<
178.204	-159.57
178.424	-159.57
178.644	-159.57
178.864	-169.81
179.084	-245.59
179.304	34.99
179.524	49.32
179.744	-63.32
179.964	-22.36
180.184	30.89
180.404	2.22
180.624	37.03
180.844	18.6
181.064	-18.26
181.283	-26.45
181.503	-36.69
181.723	-5.97
181.943	-55.12
182.163	2.22
182.383	-18.26
182.602	96.43
182.822	67.75
183.042	51.37
183.262	-63.32
183.482	-28.5
183.701	26.79
183.921	-102.23
184.141	-20.31
184.361	-73.56
184.58	45.23
184.8	32.94
185.02	16.55
185.239	-24.4
185.459	20.65
185.679	26.79
185.898	-79.7
186.118	20.65
186.338	-110.42
186.557	-1.88
186.777	14.51
186.997	94.38
187.216	45.23
187.436	34.99
187.655	-16.21
187.875	53.42
188.095	94.38
188.314	86.19
188.534	75.95
188.753	-28.5
188.973	45.23
189.192	18.6
189.412	2.22
189.631	-1.88
189.851	2.22
190.07	-14.17
190.29	-14.17
190.509	-46.93
190.729	10.41
190.948	-30.55
191.168	92.33
191.387	26.79
191.607	-71.51
191.826	65.71
192.045	18.6
192.265	0.17
192.484	53.42
192.704	-14.17
192.923	-46.93
193.142	71.85
193.362	-30.55
193.581	77.99
193.8	0.17
194.02	43.18
194.239	-81.75
194.458	-69.46
194.678	30.89
194.897	2.22
195.116	-42.84
195.335	32.94
195.555	45.23
195.774	71.85
195.993	43.18
196.212	16.55
196.432	-108.37
196.651	-55.12
196.87	-1.88
197.089	153.77
197.308	84.14
197.528	-12.12
197.747	-67.41
197.966	8.36
198.185	57.51
198.404	-32.6
198.623	-1.88
198.842	26.79
199.062	4.27
199.281	104.62
199.5	4.27
199.719	57.51
199.938	26.79
200.157	102.57
200.376	47.27
200.595	-22.36
200.814	34.99
201.033	10.41
201.252	22.7
201.471	18.6
201.69	61.61
201.909	-1.88
202.128	45.23
202.347	-5.97
202.566	47.27
202.785	-1.88
203.004	-36.69
203.223	65.71
203.442	-5.97
203.661	16.55
203.879	-46.93
204.098	43.18
204.317	-83.8
204.536	75.95
204.755	8.36
204.974	22.7
205.193	34.99
205.411	80.04
205.63	61.61
205.849	16.55
206.068	-55.12
206.287	-10.07
206.505	14.51
206.724	-30.55
206.943	10.41
207.162	-3.93
207.381	16.55
207.599	20.65
207.818	84.14
208.037	-12.12
208.255	-44.88
208.474	10.41
208.693	-42.84
208.911	92.33
209.13	6.31
209.349	18.6
209.567	-1.88
209.786	14.51
210.005	34.99
210.223	28.84
210.442	-44.88
210.661	129.19
210.879	2.22
211.098	-14.17
211.316	-1.88
211.535	-36.69
211.753	-30.55
211.972	-5.97
212.191	-36.69
212.409	37.03
212.628	14.51
212.846	-12.12
213.065	67.75
213.283	43.18
213.502	102.57
213.72	34.99
213.938	43.18
214.157	-30.55
214.375	20.65
214.594	-5.97
214.812	2.22
215.031	37.03
215.249	53.42
215.467	26.79
215.686	26.79
215.904	30.89
216.122	30.89
216.341	-16.21
216.559	10.41
216.778	69.8
216.996	-5.97
217.214	12.46
217.432	-22.36
217.651	-20.31
217.869	18.6
218.087	-53.08
218.306	-38.74
218.524	28.84
218.742	-116.56
218.96	12.46
219.179	34.99
219.397	22.7
219.615	59.56
219.833	34.99
220.051	-59.22
220.27	18.6
220.488	-12.12
220.706	4.27
220.924	16.55
221.142	-5.97
221.36	-38.74
221.578	-24.4
221.796	0.17
222.015	32.94
222.233	4.27
222.451	57.51
222.669	4.27
222.887	6.31
223.105	-36.69
223.323	-40.79
223.541	-30.55
223.759	-1.88
223.977	71.85
224.195	26.79
224.413	-24.4
224.631	-14.17
224.849	-18.26
225.067	65.71
225.285	2.22
225.503	55.47
225.721	-22.36
225.939	59.56
226.157	6.31
226.375	145.58
226.592	71.85
226.81	30.89
227.028	-18.26
227.246	77.99
227.464	-36.69
227.682	73.9
227.9	12.46
228.117	67.75
228.335	-30.55
228.553	49.32
228.771	77.99
228.989	-22.36
229.206	2.22
229.424	-38.74
229.642	-98.13
229.86	2.22
230.077	-5.97
230.295	18.6
230.513	4.27
230.731	-5.97
230.948	-18.26
231.166	71.85
231.384	2.22
231.601	-5.97
231.819	55.47
232.037	-12.12
232.254	8.36
232.472	-51.03
232.689	4.27
232.907	47.27
233.125	12.46
233.342	10.41
233.56	-20.31
233.777	-83.8
233.995	22.7
234.213	92.33
234.43	-10.07
234.648	22.7
234.865	-14.17
235.083	59.56
235.3	-14.17
235.518	53.42
235.735	2.22
235.953	80.04
236.17	-22.36
236.388	0.17
236.605	20.65
236.822	59.56
237.04	26.79
237.257	45.23
237.475	-38.74
237.692	14.51
237.909	2.22
238.127	-30.55
238.344	-14.17
238.562	59.56
238.779	12.46
238.996	-5.97
239.214	-1.88
239.431	51.37
239.648	-14.17
239.865	108.71
240.083	65.71
240.3	-10.07
240.517	12.46
240.735	22.7
240.952	10.41
241.169	108.71
241.386	26.79
241.603	14.51
241.821	10.41
242.038	37.03
242.255	-12.12
242.472	24.75
242.689	26.79
242.907	43.18
243.124	-46.93
243.341	84.14
243.558	10.41
243.775	-14.17
243.992	-34.64
244.209	4.27
244.426	51.37
244.643	51.37
244.86	-1.88
245.078	43.18
245.295	63.66
245.512	-28.5
245.729	51.37
245.946	-12.12
246.163	-3.93
246.38	-14.17
246.597	26.79
246.814	-46.93
247.031	2.22
247.248	-14.17
247.464	10.41
247.681	2.22
247.898	34.99
248.115	18.6
248.332	14.51
248.549	63.66
248.766	153.77
248.983	-1.88
249.2	-5.97
249.417	18.6
249.633	-10.07
249.85	-12.12
250.067	-12.12
250.284	10.41
250.501	-38.74
250.717	16.55
250.934	-14.17
251.151	-8.02
251.368	-38.74
251.585	51.37
251.801	-26.45
252.018	10.41
252.235	51.37
252.451	12.46
252.668	-22.36
252.885	37.03
253.102	-1.88
253.318	6.31
253.535	69.8
253.752	-38.74
253.968	-137.04
254.185	6.31
254.401	-14.17
254.618	43.18
254.835	4.27
255.051	30.89
255.268	12.46
255.484	90.28
255.701	10.41
255.917	43.18
256.134	-16.21
256.351	20.65
256.567	-55.12
256.784	45.23
257	-28.5
257.217	37.03
257.433	-3.93
257.65	34.99
257.866	10.41
258.082	2.22
258.299	-59.22
258.515	59.56
258.732	-81.75
258.948	-59.22
259.165	10.41
259.381	-28.5
259.597	61.61
259.814	4.27
260.03	-30.55
260.246	59.56
260.463	-24.4
260.679	69.8
260.895	41.13
261.112	39.08
261.328	-22.36
261.544	-87.89
261.761	75.95
261.977	-36.69
262.193	59.56
262.409	10.41
262.626	26.79
262.842	116.9
263.058	20.65
263.274	92.33
263.49	-1.88
263.707	73.9
263.923	12.46
264.139	-44.88
264.355	51.37
264.571	26.79
264.787	28.84
265.004	-26.45
265.22	26.79
265.436	16.55
265.652	43.18
265.868	6.31
266.084	-28.5
266.3	26.79
266.516	24.75
266.732	-30.55
266.948	26.79
267.164	14.51
267.38	2.22
267.596	57.51
267.812	104.62
268.028	-69.46
268.244	-30.55
268.46	-16.21
268.676	-38.74
268.892	-20.31
269.108	-55.12
269.324	-26.45
269.54	28.84
269.756	47.27
269.972	-34.64
270.188	32.94
270.403	-10.07
270.619	22.7
270.835	8.36
271.051	37.03
271.267	-18.26
271.483	75.95
271.698	26.79
271.914	-1.88
272.13	39.08
272.346	16.55
272.562	18.6
272.777	37.03
272.993	-5.97
273.209	-12.12
273.425	-55.12
273.64	-71.51
273.856	6.31
274.072	-83.8
274.287	-71.51
274.503	-14.17
274.719	69.8
274.934	-63.32
275.15	6.31
275.366	32.94
275.581	-44.88
275.797	-5.97
276.012	-24.4
276.228	2.22
276.444	-18.26
276.659	92.33
276.875	47.27
277.09	-22.36
277.306	-10.07
277.521	59.56
277.737	41.13
277.952	55.47
278.168	34.99
278.383	106.67
278.599	-12.12
278.814	84.14
279.03	10.41
279.245	20.65
279.461	4.27
279.676	53.42
279.892	-55.12
280.107	-38.74
280.322	6.31
280.538	6.31
280.753	0.17
280.969	-5.97
281.184	-34.64
281.399	149.67
281.615	41.13
281.83	20.65
282.045	-38.74
282.26	-59.22
282.476	-61.27
282.691	30.89
282.906	24.75
283.122	-46.93
283.337	-51.03
283.552	84.14
283.767	2.22
283.983	20.65
284.198	-5.97
284.413	18.6
284.628	22.7
284.843	47.27
285.058	77.99
285.274	-63.32
285.489	26.79
285.704	-3.93
285.919	77.99
286.134	-12.12
286.349	-30.55
286.564	59.56
286.779	-30.55
286.995	14.51
287.21	30.89
287.425	-8.02
287.64	-26.45
287.855	55.47
288.07	-28.5
288.285	39.08
288.5	10.41
288.715	14.51
288.93	-5.97
289.145	-14.17
289.36	34.99
289.575	-44.88
289.79	37.03
290.004	-3.93
290.219	69.8
290.434	-79.7
290.649	-18.26
290.864	34.99
291.079	45.23
291.294	41.13
291.509	10.41
291.724	41.13
291.938	-30.55
292.153	10.41
292.368	10.41
292.583	39.08
292.798	-51.03
293.012	2.22
293.227	67.75
293.442	53.42
293.657	121
293.871	94.38
294.086	-36.69
294.301	84.14
294.516	10.41
294.73	47.27
294.945	-10.07
295.16	-1.88
295.374	84.14
295.589	77.99
295.804	20.65
296.018	51.37
296.233	-10.07
296.447	26.79
296.662	10.41
296.877	-38.74
297.091	51.37
297.306	8.36
297.52	69.8
297.735	80.04
297.949	-40.79
298.164	26.79
298.378	4.27
298.593	34.99
298.807	-22.36
299.022	43.18
299.236	26.79
299.451	69.8
299.665	100.52
299.88	-61.27
300.094	-5.97
300.309	92.33
300.523	6.31
300.737	-14.17
300.952	26.79
301.166	2.22
301.381	-36.69
301.595	45.23
301.809	-46.93
302.024	-30.55
302.238	-14.17
302.452	26.79
302.667	86.19
302.881	67.75
303.095	53.42
303.309	39.08
303.524	-12.12
303.738	-10.07
303.952	-55.12
304.166	4.27
304.381	-18.26
304.595	41.13
304.809	-36.69
305.023	37.03
305.237	-20.31
305.452	-38.74
305.666	14.51
305.88	10.41
306.094	-14.17
306.308	37.03
306.522	-3.93
306.736	53.42
306.95	34.99
307.164	30.89
307.379	-55.12
307.593	59.56
307.807	30.89
308.021	47.27
308.235	18.6
308.449	-14.17
308.663	10.41
308.877	34.99
309.091	-3.93
309.305	61.61
309.519	-14.17
309.733	2.22
309.947	-51.03
310.161	-5.97
310.374	6.31
310.588	104.62
310.802	-22.36
311.016	-10.07
311.23	32.94
311.444	49.32
311.658	4.27
311.872	34.99
312.085	41.13
312.299	59.56
312.513	57.51
312.727	-20.31
312.941	-67.41
313.154	84.14
313.368	12.46
313.582	-26.45
313.796	-32.6
314.009	-3.93
314.223	14.51
314.437	34.99
314.651	20.65
314.864	-12.12
315.078	-38.74
315.292	-36.69
315.505	-30.55
315.719	26.79
315.933	-44.88
316.146	-22.36
316.36	-38.74
316.573	47.27
316.787	-63.32
317.001	26.79
317.214	63.66
317.428	6.31
317.641	-1.88
317.855	12.46
318.068	2.22
318.282	-3.93
318.495	22.7
318.709	4.27
318.922	-8.02
319.136	118.95
319.349	55.47
319.563	6.31
319.776	-10.07
319.99	-20.31
320.203	30.89
320.417	-53.08
320.63	6.31
320.843	88.23
321.057	4.27
321.27	2.22
321.483	18.6
321.697	55.47
321.91	-46.93
322.124	-18.26
322.337	51.37
322.55	-16.21
322.763	8.36
322.977	24.75
323.19	-46.93
323.403	22.7
323.617	26.79
323.83	34.99
324.043	14.51
324.256	12.46
324.469	-91.99
324.683	18.6
324.896	-61.27
325.109	-12.12
325.322	26.79
325.535	51.37
325.748	67.75
325.962	10.41
326.175	-12.12
326.388	37.03
326.601	71.85
326.814	-34.64
327.027	26.79
327.24	92.33
327.453	2.22
327.666	39.08
327.879	-10.07
328.092	43.18
328.305	-10.07
328.518	92.33
328.731	-3.93
328.944	-46.93
329.157	-3.93
329.37	86.19
329.583	67.75
329.796	55.47
330.009	26.79
330.222	-30.55
330.435	53.42
330.648	69.8
330.861	-36.69
331.073	43.18
331.286	18.6
331.499	34.99
331.712	-48.98
331.925	-22.36
332.138	71.85
332.35	26.79
332.563	-20.31
332.776	67.75
332.989	30.89
333.202	51.37
333.414	-30.55
333.627	-32.6
333.84	57.51
334.053	2.22
334.265	-22.36
334.478	8.36
334.691	43.18
334.903	-5.97
335.116	-5.97
335.329	26.79
335.541	22.7
335.754	28.84
335.966	-24.4
336.179	30.89
336.392	34.99
336.604	-12.12
336.817	4.27
337.029	94.38
337.242	-34.64
337.454	84.14
337.667	-36.69
337.88	67.75
338.092	-5.97
338.305	12.46
338.517	43.18
338.729	37.03
338.942	26.79
339.154	22.7
339.367	22.7
339.579	-59.22
339.792	-34.64
340.004	34.99
340.217	6.31
340.429	34.99
340.641	18.6
340.854	-30.55
341.066	-96.08
341.278	45.23
341.491	75.95
341.703	-20.31
341.915	-65.36
342.128	14.51
342.34	34.99
342.552	-38.74
342.764	2.22
342.977	34.99
343.189	34.99
343.401	55.47
343.613	-96.08
343.826	49.32
344.038	14.51
344.25	45.23
344.462	-20.31
344.674	37.03
344.886	2.22
345.099	55.47
345.311	34.99
345.523	51.37
345.735	-34.64
345.947	45.23
346.159	20.65
346.371	-42.84
346.583	75.95
346.795	55.47
347.007	-44.88
347.219	20.65
347.431	-40.79
347.643	32.94
347.855	-1.88
348.067	39.08
348.279	-18.26
348.491	18.6
348.703	-22.36
348.915	45.23
349.127	53.42
349.339	67.75
349.551	61.61
349.763	10.41
349.975	71.85
350.187	34.99
350.399	69.8
350.61	43.18
350.822	80.04
351.034	118.95
351.246	55.47
351.458	-5.97
351.669	22.7
351.881	-3.93
352.093	73.9
352.305	43.18
352.517	-30.55
352.728	63.66
352.94	2.22
353.152	26.79
353.363	-69.46
353.575	43.18
353.787	37.03
353.999	-20.31
354.21	2.22
354.422	-20.31
354.633	-1.88
354.845	-38.74
355.057	57.51
355.268	-5.97
355.48	63.66
355.692	10.41
355.903	30.89
356.115	2.22
356.326	-24.4
356.538	125.1
356.749	53.42
356.961	67.75
357.172	14.51
357.384	2.22
357.595	49.32
357.807	39.08
358.018	-3.93
358.23	-61.27
358.441	92.33
358.653	45.23
358.864	104.62
359.075	45.23
359.287	30.89
359.498	47.27
359.709	59.56
359.921	32.94
360.132	14.51
360.344	14.51
360.555	-63.32
360.766	55.47
360.977	63.66
361.189	69.8
361.4	18.6
361.611	51.37
361.823	75.95
362.034	4.27
362.245	-1.88
362.456	69.8
362.667	67.75
362.879	59.56
363.09	14.51
363.301	43.18
363.512	104.62
363.723	39.08
363.935	-24.4
364.146	41.13
364.357	-63.32
364.568	26.79
364.779	18.6
364.99	67.75
365.201	-18.26
365.412	100.52
365.623	30.89
365.834	34.99
366.045	-30.55
366.256	94.38
366.467	69.8
366.678	30.89
366.889	59.56
367.1	-14.17
367.311	82.09
367.522	10.41
367.733	55.47
367.944	127.14
368.155	45.23
368.366	51.37
368.577	37.03
368.788	30.89
368.999	18.6
369.209	-44.88
369.42	69.8
369.631	133.29
369.842	65.71
370.053	2.22
370.264	4.27
370.474	53.42
370.685	4.27
370.896	34.99
371.107	43.18
371.317	59.56
371.528	41.13
371.739	53.42
371.95	59.56
372.16	59.56
372.371	20.65
372.582	28.84
372.792	10.41
373.003	77.99
373.214	45.23
373.424	77.99
373.635	-24.4
373.846	47.27
374.056	22.7
374.267	84.14
374.477	18.6
374.688	26.79
374.898	32.94
375.109	41.13
375.319	10.41
375.53	77.99
375.74	100.52
375.951	-34.64
376.161	71.85
376.372	65.71
376.582	-12.12
376.793	37.03
377.003	-22.36
377.214	-5.97
377.424	57.51
377.635	2.22
377.845	-8.02
378.055	39.08
378.266	0.17
378.476	92.33
378.686	55.47
378.897	55.47
379.107	61.61
379.317	-3.93
379.528	45.23
379.738	131.24
379.948	-63.32
380.158	82.09
380.369	6.31
380.579	49.32
380.789	2.22
380.999	53.42
381.21	12.46
381.42	26.79
381.63	-18.26
381.84	28.84
382.05	80.04
382.261	12.46
382.471	69.8
382.681	2.22
382.891	69.8
383.101	34.99
383.311	4.27
383.521	-14.17
383.731	92.33
383.941	16.55
384.151	43.18
384.361	47.27
384.571	34.99
384.781	59.56
384.991	43.18
385.201	112.81
385.411	41.13
385.621	65.71
385.831	10.41
386.041	30.89
386.251	-22.36
386.461	53.42
386.671	77.99
386.881	30.89
387.091	-10.07
387.301	26.79
387.511	53.42
387.72	28.84
387.93	53.42
388.14	20.65
388.35	37.03
388.56	65.71
388.769	104.62
388.979	59.56
389.189	-22.36
389.399	-12.12
389.609	34.99
389.818	118.95
390.028	30.89
390.238	84.14
390.447	12.46
390.657	-12.12
390.867	28.84
391.076	-18.26
391.286	71.85
391.496	45.23
391.705	110.76
391.915	108.71
392.125	61.61
392.334	22.7
392.544	37.03
392.753	18.6
392.963	14.51
393.172	88.23
393.382	30.89
393.591	129.19
393.801	-5.97
394.01	133.29
394.22	20.65
394.429	75.95
394.639	18.6
394.848	-24.4
395.058	67.75
395.267	88.23
395.477	80.04
395.686	55.47
395.895	125.1
396.105	125.1
396.314	18.6
396.524	10.41
396.733	61.61
396.942	108.71
397.152	73.9
397.361	92.33
397.57	75.95
397.78	73.9
397.989	116.9
398.198	141.48
398.407	104.62
398.617	10.41
398.826	22.7
399.035	34.99
399.244	133.29
399.453	45.23
399.663	26.79
399.872	84.14
400.081	137.38
400.29	133.29
400.499	92.33
400.708	153.77
400.917	86.19
401.127	133.29
401.336	63.66
401.545	151.72
401.754	82.09
401.963	92.33
402.172	100.52
402.381	10.41
402.59	37.03
402.799	65.71
403.008	51.37
403.217	110.76
403.426	141.48
403.635	129.19
403.844	149.67
404.053	28.84
404.262	92.33
404.471	151.72
404.68	174.25
404.888	77.99
405.097	77.99
405.306	82.09
405.515	137.38
405.724	151.72
405.933	145.58
406.142	194.73
406.35	90.28
406.559	174.25
406.768	231.59
406.977	207.02
407.185	125.1
407.394	227.5
407.603	159.91
407.812	157.86
408.02	237.74
408.229	190.63
408.438	227.5
408.646	131.24
408.855	235.69
409.064	264.36
409.272	252.07
409.481	340.13
409.69	182.44
409.898	280.74
410.107	299.17
410.315	305.32
410.524	231.59
410.733	329.89
410.941	282.79
411.15	342.18
411.358	299.17
411.567	411.81
411.775	305.32
411.984	362.66
412.192	350.37
412.401	397.48
412.609	454.82
412.818	444.58
413.026	477.35
413.234	481.44
413.443	516.26
413.651	536.74
413.86	493.73
414.068	673.95
414.276	737.44
414.485	592.03
414.693	606.37
414.901	759.97
415.11	719.01
415.318	620.71
415.526	731.3
415.734	719.01
415.943	698.53
416.151	817.31
416.359	854.17
416.567	872.61
416.776	874.65
416.984	893.09
417.192	946.33
417.4	1024.16
417.608	1042.59
417.817	1050.78
418.025	1136.79
418.233	1151.13
418.441	1091.74
418.649	1149.08
418.857	1294.49
419.065	1280.15
419.273	1235.1
419.481	1355.93
419.689	1357.97
419.897	1329.3
420.105	1546.39
420.313	1540.24
420.521	1663.12
420.729	1710.22
420.937	1605.78
421.145	1675.41
421.353	1839.25
421.561	1945.74
421.769	1927.31
421.977	1972.36
422.185	2035.85
422.393	2146.44
422.601	2275.46
422.809	2328.71
423.017	2306.18
423.224	2422.92
423.432	2443.4
423.64	2519.17
423.848	2699.39
424.056	2685.06
424.263	2902.14
424.471	2959.49
424.679	2863.23
424.887	3092.6
425.094	3197.05
425.302	3158.14
425.51	3369.08
425.718	3297.4
425.925	3467.38
426.133	3663.99
426.341	3717.23
426.548	3985.52
426.756	3919.98
426.964	4006
427.171	4178.03
427.379	4216.94
427.586	4343.91
427.794	4495.46
428.001	4647.01
428.209	4925.54
428.417	4745.31
428.624	5214.3
428.832	5187.68
429.039	5064.8
429.247	5089.37
429.454	5574.74
429.662	6023.25
429.869	5728.34
430.076	5998.67
430.284	5671
430.491	6047.82
430.699	6385.74
430.906	6338.63
431.114	6303.82
431.321	6772.8
431.528	6694.98
431.736	7206.97
431.943	7596.09
432.15	7237.69
432.358	7524.41
432.565	7919.67
432.772	7759.92
432.979	8290.35
433.187	8409.13
433.394	8458.28
433.601	9007.14
433.808	9013.28
434.016	9013.28
434.223	9179.17
434.43	10047.51
434.637	9558.04
434.844	10405.9
435.052	10323.98
435.259	10561.55
435.466	10502.15
435.673	10479.63
435.88	11112.45
436.087	11663.35
436.294	11616.25
436.501	11425.79
436.708	11683.83
436.915	11974.64
437.122	12525.55
437.329	12527.6
437.537	12953.57
437.743	12875.75
437.95	13006.82
438.157	13578.2
438.364	13844.44
438.571	13883.35
438.778	14333.9
438.985	15462.33
439.192	14628.81
439.399	15196.1
439.606	14864.33
439.813	15804.35
440.02	16713.64
440.227	16066.49
440.433	16193.46
440.64	16746.41
440.847	16455.6
441.054	16975.78
441.261	18401.17
441.467	17844.12
441.674	18329.49
441.881	19056.52
442.088	18894.73
442.294	18782.09
442.501	19060.62
442.708	19562.37
442.914	20336.5
443.121	21112.68
443.328	20463.47
443.534	22054.75
443.741	21350.24
443.948	20989.8
444.154	22830.93
444.361	22290.26
444.568	22603.6
444.774	22493.01
444.981	22998.86
445.187	23484.23
445.394	24457.01
445.6	24184.63
445.807	26425.11
446.013	25155.37
446.22	25771.81
446.426	27072.27
446.633	27201.29
446.839	27807.49
447.046	26668.82
447.252	28481.27
447.459	28366.59
447.665	28294.91
447.871	29738.72
448.078	30672.6
448.284	29069.04
448.491	30230.24
448.697	30867.16
448.903	31633.1
449.11	31176.4
449.316	31092.43
449.522	32126.66
449.728	32456.38
449.935	32951.99
450.141	32775.86
450.347	33816.23
450.553	32587.45
450.76	33003.19
450.966	34311.84
451.172	33859.24
451.378	35008.15
451.584	33992.36
451.791	34846.36
451.997	34719.38
452.203	35466.89
452.409	35178.13
452.615	35085.97
452.821	33445.55
453.027	33541.8
453.233	35006.1
453.44	33232.56
453.646	33988.26
453.852	34393.76
454.058	34694.81
454.264	33826.47
454.47	34227.87
454.676	33527.47
454.882	34485.92
455.088	31450.83
455.294	32343.74
455.5	32382.65
455.705	32523.96
455.911	31475.4
456.117	30949.07
456.323	30633.69
456.529	28860.15
456.735	30080.74
456.941	29200.11
457.147	28851.95
457.352	27795.2
457.558	27571.97
457.764	27801.35
457.97	27414.28
458.176	26539.8
458.381	26580.76
458.587	25196.33
458.793	25331.5
458.999	23934.78
459.204	25499.43
459.41	25067.31
459.616	23011.15
459.821	23287.62
460.027	23054.15
460.233	22314.84
460.438	21335.91
460.644	21464.93
460.85	20864.88
461.055	20608.88
461.261	20238.2
461.466	18616.21
461.672	18286.48
461.878	19584.9
462.083	18194.33
462.289	18018.2
462.494	17645.47
462.7	16787.37
462.905	16445.36
463.111	16910.25
463.316	17008.55
463.522	16904.1
463.727	16594.86
463.932	16717.74
464.138	16320.43
464.343	16437.17
464.549	16005.05
464.754	16514.99
464.959	16519.09
465.165	16336.82
465.37	15486.91
465.575	15075.27
465.781	15734.71
465.986	15632.32
466.191	15286.21
466.397	14907.34
466.602	14077.91
466.807	14497.74
467.012	14675.91
467.218	14569.42
467.423	14299.09
467.628	14469.07
467.833	15110.08
468.038	14403.53
468.244	13957.08
468.449	14485.45
468.654	14051.28
468.859	13895.64
469.064	13936.6
469.269	13275.1
469.474	13404.13
469.679	13854.68
469.885	13365.21
470.09	13496.28
470.295	13492.19
470.5	12986.34
470.705	13096.93
470.91	12808.17
471.115	12703.72
471.32	13017.06
471.525	12761.06
471.73	12363.76
471.935	12417.01
472.139	12054.51
472.344	12292.08
472.549	11810.81
472.754	12029.94
472.959	11579.39
473.164	11388.92
473.369	11337.73
473.574	11757.56
473.778	11610.11
473.983	11223.04
474.188	11384.83
474.393	10676.23
474.598	11040.77
474.802	10686.47
475.007	10696.71
475.212	10653.7
475.417	10381.32
475.621	10344.46
475.826	10350.6
476.031	10319.89
476.235	9955.35
476.44	10340.36
476.645	9912.34
476.849	9914.39
477.054	9652.25
477.259	9709.59
477.463	9588.76
477.668	9429.02
477.872	9609.24
478.077	9453.59
478.282	9148.45
478.486	9152.54
478.691	9046.05
478.895	9216.03
479.1	8808.48
479.304	9029.66
479.509	8771.62
479.713	8931.36
479.918	8650.79
480.122	8570.92
480.326	8671.27
480.531	8595.5
480.735	8523.82
480.94	8353.84
481.144	8714.28
481.348	8321.07
481.553	8398.89
481.757	8296.49
481.961	8558.63
482.166	8605.74
482.37	8419.37
482.574	8290.35
482.778	8233.01
482.983	8450.09
483.187	8218.67
483.391	8247.34
483.595	8249.39
483.8	8247.34
484.004	8243.24
484.208	8370.22
484.412	8226.86
484.616	8263.72
484.821	8366.12
485.025	8142.89
485.229	8138.8
485.433	8282.16
485.637	8167.47
485.841	8097.84
486.045	8190
486.249	8255.53
486.453	8040.5
486.657	8190
486.861	8218.67
487.065	8222.77
487.269	8208.43
487.473	7931.95
487.677	8290.35
487.881	8200.24
488.085	8081.46
488.289	8136.75
488.493	8212.53
488.697	8269.87
488.901	8161.33
489.105	8312.88
489.309	8101.94
489.512	8321.07
489.716	8046.64
489.92	8120.37
490.124	8089.65
490.328	8343.6
490.531	8316.97
490.735	8316.97
490.939	8439.85
491.143	8304.68
491.346	8296.49
491.55	8532.01
491.754	8411.18
491.958	8218.67
492.161	8415.27
492.365	8368.17
492.569	8532.01
492.772	8611.88
492.976	8501.29
493.18	8448.04
493.383	8734.76
493.587	8622.12
493.79	8781.86
493.994	8685.61
494.197	8712.23
494.401	8730.66
494.605	8767.52
494.808	8984.61
495.012	8984.61
495.215	8933.41
495.419	9027.62
495.622	9062.43
495.825	8912.93
496.029	9076.77
496.232	9429.02
496.436	9283.61
496.639	9644.06
496.843	9586.71
497.046	9627.67
497.249	9676.82
497.453	9658.39
497.656	9717.78
497.859	9816.08
498.063	9971.73
498.266	10065.94
498.469	10016.79
498.673	10192.91
498.876	10405.9
499.079	10461.2
499.282	10334.22
499.485	10813.45
499.689	10508.3
499.892	10772.49
500.095	10684.42
500.298	11046.91
500.501	10860.55
500.705	11100.16
500.908	11171.84
501.111	11311.1
501.314	11696.12
501.517	11747.32
501.72	11642.87
501.923	11790.33
502.126	12111.86
502.329	12249.07
502.532	12130.29
502.735	12183.54
502.938	12400.62
503.141	12496.88
503.344	12689.39
503.547	12888.04
503.75	12935.14
503.953	13152.23
504.156	13047.78
504.359	13273.06
504.562	13508.57
504.765	13688.79
504.968	13797.34
505.17	13789.14
505.373	14051.28
505.576	14286.8
505.779	14323.66
505.982	14444.49
506.185	14712.78
506.387	14745.55
506.59	14780.36
506.793	14989.25
506.996	15167.43
507.198	15599.55
507.401	15271.87
507.604	15585.21
507.807	15964.09
508.009	15919.03
508.212	16093.11
508.415	16287.67
508.617	16529.33
508.82	16484.27
509.022	16568.24
509.225	16842.67
509.428	16725.93
509.63	17059.75
509.833	17295.27
510.035	17729.44
510.238	17688.48
510.44	17674.14
510.643	17848.22
510.845	18501.52
511.048	18448.27
511.25	18784.14
511.453	18556.82
511.655	18853.77
511.858	18780.04
512.06	19107.72
512.262	19120.01
512.465	19326.85
512.667	19527.55
512.87	20014.97
513.072	19900.28
513.274	20094.84
513.477	20426.61
513.679	20660.08
513.881	20672.37
514.084	20879.21
514.286	21272.42
514.488	20944.75
514.69	21716.83
514.893	21542.75
515.095	21970.78
515.297	21800.8
515.499	22234.97
515.701	22439.76
515.904	22740.82
516.106	22515.54
516.308	23031.63
516.51	23371.59
516.712	23088.97
516.914	23400.26
517.116	23801.66
517.318	23760.7
517.52	24045.37
517.722	24041.28
517.925	24155.96
518.127	24667.95
518.329	24848.18
518.531	24528.69
518.733	24969.01
518.935	25376.55
519.136	25433.89
519.338	25265.96
519.54	25507.62
519.742	26210.07
519.944	25777.95
520.146	26251.03
520.348	26541.85
520.55	26582.81
520.752	26418.97
520.954	26963.73
521.155	26609.43
521.357	27068.17
521.559	27275.02
521.761	27559.69
521.963	27625.22
522.164	27709.19
522.366	27924.22
522.568	28028.67
522.77	27940.61
522.971	28219.13
523.173	28096.25
523.375	28288.76
523.576	28063.49
523.778	28399.35
523.98	28927.73
524.181	28733.17
524.383	28878.58
524.584	29089.52
524.786	29087.47
524.988	28909.3
525.189	29365.99
525.391	29669.09
525.592	29546.22
525.794	29718.25
525.995	29710.05
526.197	29673.19
526.398	29578.98
526.6	29828.84
526.801	29712.1
527.003	29816.55
527.204	29957.86
527.406	30060.26
527.607	29916.9
527.808	29961.95
528.01	29525.74
528.211	29863.65
528.412	30420.7
528.614	30160.61
528.815	30033.63
529.016	30205.66
529.218	30207.71
529.419	30021.34
529.62	30150.37
529.822	29996.77
530.023	30062.3
530.224	30029.54
530.425	30043.87
530.626	29365.99
530.828	29843.17
531.029	30279.39
531.23	30011.1
531.431	29576.94
531.632	30265.05
531.833	30033.63
532.035	29617.89
532.236	29984.48
532.437	30314.2
532.638	29503.21
532.839	29755.11
533.04	29550.31
533.241	29439.72
533.442	29849.32
533.643	29519.59
533.844	29703.91
534.045	29365.99
534.246	29222.64
534.447	29679.33
534.648	29497.06
534.849	29777.64
535.05	29234.92
535.251	29533.93
535.451	28997.36
535.652	29488.87
535.853	29443.82
536.054	29591.27
536.255	29499.11
536.456	29167.34
536.657	29482.73
536.857	28944.11
537.058	29091.57
537.259	29130.48
537.46	29200.11
537.66	29075.18
537.861	29144.81
538.062	28561.14
538.263	29126.38
538.463	28708.6
538.664	28882.67
538.865	29114.09
539.065	28989.17
539.266	28737.27
539.466	28876.53
539.667	28423.93
539.868	29046.51
540.068	28802.8
540.269	28811
540.469	28860.15
540.67	28628.73
540.87	28243.71
541.071	28344.06
541.271	28608.25
541.472	28524.28
541.672	28471.03
541.873	28342.01
542.073	28374.78
542.274	28630.77
542.474	28395.26
542.675	28157.69
542.875	28487.42
543.075	28315.39
543.276	28167.93
543.476	28796.66
543.676	27975.42
543.877	28395.26
544.077	28292.86
544.277	28430.07
544.478	28296.95
544.678	28456.7
544.878	28253.95
545.078	28258.04
545.279	28112.64
545.479	28198.65
545.679	28133.12
545.879	28098.3
546.079	28153.6
546.28	28286.72
546.48	28012.29
546.68	27985.66
546.88	28260.09
547.08	28290.81
547.28	28212.99
547.48	28139.26
547.68	28299
547.88	28151.55
548.081	28397.31
548.281	27928.32
548.481	27991.81
548.681	28206.84
548.881	28344.06
549.081	27973.38
549.28	27780.87
549.48	28481.27
549.68	28296.95
549.88	28761.84
550.08	27911.94
550.28	28188.41
550.48	28337.91
550.68	28403.45
550.88	28204.8
551.08	28153.6
551.279	28327.67
551.479	27905.79
551.679	28536.57
551.879	28223.23
552.079	28659.45
552.278	28026.62
552.478	28382.97
552.678	28251.9
552.878	28253.95
553.077	28468.98
553.277	28159.74
553.477	28620.53
553.676	28653.3
553.876	28681.97
554.076	28286.72
554.275	28329.72
554.475	28083.97
554.674	28366.59
554.874	28845.81
555.074	28536.57
555.273	28524.28
555.473	28804.85
555.672	28655.35
555.872	28339.96
556.071	28847.86
556.271	28792.56
556.47	28438.26
556.67	28413.69
556.869	28884.72
557.068	28776.18
557.268	28780.28
557.467	28511.99
557.667	28802.8
557.866	28495.61
558.065	28677.88
558.265	29015.79
558.464	28677.88
558.663	28798.71
558.863	28497.66
559.062	28993.26
559.261	28632.82
559.461	29060.85
559.66	28366.59
559.859	28153.6
560.058	28503.8
560.258	28423.93
560.457	28602.1
560.656	28847.86
560.855	28731.12
561.054	28587.77
561.253	28499.7
561.453	28794.61
561.652	28733.17
561.851	28677.88
562.05	28677.88
562.249	28673.78
562.448	28854
562.647	28729.08
562.846	28378.87
563.045	28595.96
563.244	28634.87
563.443	28581.62
563.642	28141.31
563.841	28438.26
564.04	28563.19
564.239	28669.69
564.438	28270.33
564.637	28389.11
564.836	28325.63
565.035	28370.68
565.234	28452.6
565.432	28294.91
565.631	28180.22
565.83	28643.06
566.029	28200.7
566.228	28122.88
566.427	27989.76
566.625	27977.47
566.824	27889.41
567.023	27924.22
567.222	27770.63
567.42	28174.08
567.619	27768.58
567.818	28040.96
568.016	27707.14
568.215	27666.18
568.414	27995.9
568.612	27670.28
568.811	27731.72
569.01	27199.24
569.208	27361.03
569.407	27688.71
569.605	27281.16
569.804	27361.03
570.002	27293.45
570.201	27629.32
570.4	27213.58
570.598	26877.71
570.797	27150.09
570.995	27055.89
571.193	26799.89
571.392	26906.38
571.59	26519.32
571.789	26775.31
571.987	26943.25
572.186	26492.69
572.384	26758.93
572.582	26586.9
572.781	26433.3
572.979	26353.43
573.177	26441.5
573.376	26691.35
573.574	26363.67
573.772	26343.19
573.971	26124.06
574.169	25712.42
574.367	25687.84
574.565	25911.07
574.763	25757.47
574.962	25734.95
575.16	25046.83
575.358	25288.49
575.556	25192.23
575.754	25714.47
575.952	25208.62
576.151	25503.53
576.349	25308.97
576.547	25173.8
576.745	25259.82
576.943	25302.82
577.141	25136.94
577.339	25116.46
577.537	24928.05
577.735	24995.63
577.933	24745.78
578.131	24637.23
578.329	24434.49
578.527	24289.08
578.725	24323.9
578.923	24811.31
579.121	24493.88
579.319	24295.22
579.516	24221.5
579.714	23834.43
579.912	24334.14
580.11	23988.03
580.308	24092.48
580.506	23940.93
580.704	23461.7
580.901	23762.75
581.099	23961.41
581.297	23754.56
581.495	23504.71
581.692	23631.68
581.89	23492.42
582.088	23588.67
582.285	23324.49
582.483	23572.29
582.681	23340.87
582.878	23392.07
583.076	23017.29
583.274	22984.52
583.471	22951.76
583.669	22939.47
583.866	23015.24
584.064	23285.58
584.262	22683.47
584.459	22933.32
584.657	22718.29
584.854	22662.99
585.052	22660.94
585.249	22691.66
585.447	22538.07
585.644	22304.6
585.841	22450
586.039	22632.27
586.236	22435.67
586.434	22257.5
586.631	22370.13
586.828	22179.67
587.026	22046.55
587.223	22007.64
587.42	21964.64
587.618	22267.73
587.815	21780.32
588.012	21651.3
588.21	21639.01
588.407	22089.56
588.604	21620.58
588.801	21546.85
588.999	21788.51
589.196	21489.51
589.393	21608.29
589.59	21098.34
589.787	21475.17
589.984	21288.81
590.182	21272.42
590.379	21581.67
590.576	21215.08
590.773	21260.13
590.97	21245.8
591.167	21202.79
591.364	20866.92
591.561	20934.51
591.758	21182.31
591.955	20875.12
592.152	21106.54
592.349	20875.12
592.546	20787.05
592.743	20852.59
592.94	20893.55
593.137	20518.77
593.334	20707.18
593.531	20541.3
593.727	20846.44
593.924	20780.91
594.121	20500.34
594.318	20604.78
594.515	20926.32
594.712	20598.64
594.908	20471.67
595.105	20506.48
595.302	20354.93
595.499	20510.58
595.696	20402.04
595.892	20326.26
596.089	20287.35
596.286	20479.86
596.482	20252.53
596.679	20260.73
596.876	20520.82
597.072	20512.63
597.269	20285.3
597.466	20252.53
597.662	20416.37
597.859	20187
598.055	20187
598.252	20275.06
598.448	20258.68
598.645	20258.68
598.841	20098.94
599.038	20289.4
599.234	20219.77
599.431	20109.18
599.627	20309.88
599.824	20412.28
600.02	20029.31
600.217	20332.4
600.413	20154.23
600.609	20412.28
600.806	20029.31
601.002	20522.87
601.198	20406.13
601.395	20242.29
601.591	20170.61
601.787	20467.57
601.984	20416.37
602.18	20479.86
602.376	20504.43
602.572	20262.77
602.769	20713.33
602.965	20291.45
603.161	20598.64
603.357	20436.85
603.553	20778.86
603.75	20461.43
603.946	20410.23
604.142	20602.74
604.338	20404.08
604.534	20748.14
604.73	20529.01
604.926	20404.08
605.122	20828.01
605.318	20707.18
605.514	20797.29
605.71	20686.7
605.906	20793.2
606.102	20811.63
606.298	20891.5
606.494	20903.79
606.69	20924.27
606.886	21182.31
607.082	20682.61
607.278	21411.68
607.474	20954.99
607.67	20993.9
607.866	20957.03
608.062	21178.22
608.257	20981.61
608.453	21317.48
608.649	21301.09
608.845	21034.86
609.041	21561.19
609.236	21317.48
609.432	21534.56
609.628	21270.37
609.824	21352.29
610.019	21628.77
610.215	21520.23
610.411	21587.81
610.606	21786.46
610.802	21772.13
610.998	21593.95
611.193	21827.42
611.389	21786.46
611.584	21698.4
611.78	21667.68
611.976	21989.21
612.171	21991.26
612.367	22038.36
612.562	21610.34
612.758	21632.86
612.953	21837.66
613.149	21802.85
613.344	21974.88
613.539	22228.82
613.735	22273.88
613.93	22331.22
614.126	22017.88
614.321	22228.82
614.517	22151
614.712	22095.71
614.907	21604.19
615.103	21847.9
615.298	22077.27
615.493	22454.1
615.688	22064.99
615.884	22413.14
616.079	22071.13
616.274	22058.84
616.47	22308.69
616.665	22128.47
616.86	22292.31
617.055	22042.46
617.25	21995.36
617.445	22450
617.641	22218.58
617.836	22245.21
618.031	22011.74
618.226	22224.73
618.421	22128.47
618.616	22267.73
618.811	21768.03
619.006	22122.33
619.201	21475.17
619.396	22032.22
619.591	21819.23
619.786	21923.68
619.981	21583.71
620.176	21757.79
620.371	21446.5
620.566	21430.12
620.761	21409.64
620.956	21575.52
621.151	21370.72
621.346	21604.19
621.541	21112.68
621.735	21426.02
621.93	21145.45
622.125	21022.57
622.32	20828.01
622.515	20860.78
622.709	20735.85
622.904	20727.66
623.099	20977.51
623.294	20948.84
623.488	20406.13
623.683	20406.13
623.878	20021.11
624.072	20440.95
624.267	20565.87
624.462	20051.83
624.656	19883.9
624.851	20197.24
625.046	19812.22
625.24	19894.14
625.435	19824.51
625.629	19808.12
625.824	19419.01
626.018	19611.52
626.213	18855.82
626.407	19285.89
626.602	19255.17
626.796	19165.06
626.991	19085.19
627.185	18921.35
627.38	19050.38
627.574	18460.56
627.768	18704.27
627.963	18630.54
628.157	18352.02
628.352	18677.65
628.546	18186.13
628.74	18358.16
628.935	18253.72
629.129	18126.74
629.323	17772.44
629.517	18020.25
629.712	17868.7
629.906	17926.04
630.1	17672.09
630.294	17749.92
630.489	17299.36
630.683	17541.02
630.877	17172.39
631.071	17397.67
631.265	17221.54
631.459	17203.11
631.653	17072.04
631.848	16983.98
632.042	16893.86
632.236	17213.35
632.43	16443.31
632.624	16664.49
632.818	16531.37
633.012	16615.34
633.206	16404.4
633.4	16467.89
633.594	16140.21
633.788	16082.87
633.982	16254.9
634.176	16009.14
634.369	16115.64
634.563	15697.85
634.757	15640.51
634.951	15687.61
635.145	15814.59
635.339	15636.41
635.533	15306.69
635.726	15396.8
635.92	15013.83
636.114	15296.45
636.308	15095.75
636.501	15032.26
636.695	15038.41
636.889	14974.92
637.083	14841.8
637.276	14624.72
637.47	14757.83
637.664	14643.15
637.857	14497.74
638.051	14421.97
638.244	14225.36
638.438	14241.75
638.632	14227.41
638.825	14014.42
639.019	13873.11
639.212	13950.93
639.406	13893.59
639.599	13856.73
639.793	13635.55
639.986	13326.3
640.18	13346.78
640.373	13512.67
640.567	13260.77
640.76	13533.15
640.954	13084.64
641.147	13060.07
641.34	13166.56
641.534	13058.02
641.727	12902.37
641.92	12929
642.114	12705.77
642.307	12865.51
642.5	12535.79
642.694	12476.4
642.887	12398.57
643.08	12369.9
643.273	12472.3
643.467	12314.61
643.66	12222.45
643.853	12369.9
644.046	11851.77
644.239	11968.5
644.432	11685.88
644.626	11624.44
644.819	11528.19
645.012	11747.32
645.205	11476.99
645.398	11470.84
645.591	11419.64
645.784	11405.31
645.977	11106.31
646.17	11393.02
646.363	11102.21
646.556	11089.92
646.749	11046.91
646.942	11257.85
647.135	11020.29
647.328	11110.4
647.521	10807.3
647.714	10602.5
647.907	10573.83
648.099	10487.82
648.292	10758.15
648.485	10528.78
648.678	10145.81
648.871	10512.39
649.064	10348.56
649.256	10330.13
649.449	10180.62
649.642	10000.4
649.835	10053.65
650.027	9998.35
650.22	9859.09
650.413	9951.25
650.605	9803.8
650.798	9840.66
650.991	9596.95
651.183	9396.25
651.376	9572.38
651.568	9777.17
651.761	9639.96
651.954	9388.06
652.146	9437.21
652.339	9281.57
652.531	9347.1
652.724	9347.1
652.916	9293.85
653.109	9185.31
653.301	9195.55
653.494	9130.02
653.686	8824.87
653.879	8992.8
654.071	8986.66
654.263	8736.81
654.456	8898.59
654.648	8869.92
654.84	8587.3
655.033	8448.04
655.225	8652.84
655.417	8464.43
655.61	8697.89
655.802	8380.46
655.994	8542.25
656.186	8456.23
656.379	8206.38
656.571	8546.34
656.763	8161.33
656.955	8187.95
657.148	8212.53
657.34	8132.65
657.532	8073.26
657.724	8060.98
657.916	8120.37
658.108	7977.01
658.3	7876.66
658.492	7876.66
658.684	7743.54
658.876	7706.68
659.068	7721.01
659.26	7630.9
659.452	7843.89
659.644	7800.88
659.836	7579.7
660.028	7391.29
660.22	7442.49
660.412	7319.61
660.604	7440.44
660.796	7299.13
660.988	7497.78
661.18	7219.26
661.372	7260.22
661.563	7323.71
661.755	7098.43
661.947	7180.35
662.139	7000.13
662.331	6967.36
662.522	7028.8
662.714	6975.55
662.906	6860.87
663.097	6998.08
663.289	6703.17
663.481	6678.6
663.673	6737.99
663.864	6932.54
664.056	6604.87
664.247	6688.84
664.439	6502.47
664.631	6506.57
664.822	6508.62
665.014	6631.49
665.205	6357.07
665.397	6408.26
665.588	6289.48
665.78	6295.63
665.971	6309.96
666.163	6430.79
666.354	6334.54
666.546	6189.13
666.737	6232.14
666.929	5941.33
667.12	6064.21
667.311	5955.66
667.503	5992.53
667.694	6115.41
667.885	5851.22
668.077	6076.49
668.268	5912.66
668.459	5865.55
668.651	6025.29
668.842	5863.51
669.033	5752.91
669.224	5664.85
669.416	5804.11
669.607	5734.48
669.798	5826.64
669.989	5875.79
670.18	5650.52
670.371	5627.99
670.563	5681.24
670.754	5476.44
670.945	5415
671.136	5595.22
671.327	5451.86
671.518	5437.53
671.709	5734.48
671.9	5597.27
672.091	5566.55
672.282	5427.29
672.473	5386.33
672.664	5384.28
672.855	5425.24
673.046	5396.57
673.237	5310.55
673.428	5451.86
673.619	5304.41
673.809	5345.37
674	5173.34
674.191	5316.7
674.382	5152.86
674.573	5236.83
674.764	5230.68
674.954	5240.92
675.145	5042.27
675.336	5148.76
675.527	5126.24
675.717	5154.91
675.908	5050.46
676.099	5263.45
676.289	5146.72
676.48	5052.51
676.671	5150.81
676.861	5066.85
677.052	5044.32
677.243	5136.48
677.433	5077.09
677.624	5021.79
677.814	5029.98
678.005	5064.8
678.195	5220.44
678.386	4939.87
678.576	5017.69
678.767	4837.47
678.957	5089.37
679.148	5118.04
679.338	4870.24
679.529	4966.49
679.719	4937.82
679.909	5101.66
680.1	4993.12
680.29	4900.96
680.481	4962.4
680.671	4874.34
680.861	4925.54
681.052	4876.38
681.242	4978.78
681.432	4913.25
681.622	4745.31
681.813	4667.49
682.003	4876.38
682.193	4816.99
682.383	4802.66
682.573	4706.4
682.764	4728.93
682.954	4763.75
683.144	4784.23
683.334	4730.98
683.524	4900.96
683.714	4821.09
683.904	4833.38
684.094	4921.44
684.284	4743.27
684.474	4864.1
684.664	4647.01
684.854	4761.7
685.044	4657.25
685.234	4724.83
685.424	4753.51
685.614	4556.9
685.804	4730.98
685.994	4687.97
686.184	4800.61
686.374	4663.4
686.564	4587.62
686.753	4634.72
686.943	4745.31
687.133	4561
687.323	4493.41
687.513	4421.74
687.702	4507.75
687.892	4540.52
688.082	4558.95
688.272	4425.83
688.461	4567.14
688.651	4616.29
688.841	4413.54
689.03	4483.17
689.22	4397.16
689.41	4565.09
689.599	4436.07
689.789	4401.26
689.979	4411.5
690.168	4415.59
690.358	4384.87
690.547	4305
690.737	4345.96
690.926	4425.83
691.116	4261.99
691.305	4372.58
691.495	4274.28
691.684	4233.32
691.874	4323.43
692.063	4362.34
692.252	4352.1
692.442	4186.22
692.631	4286.57
692.82	4194.41
693.01	4339.82
693.199	4165.74
693.388	4212.84
693.578	4321.38
693.767	4221.03
693.956	4120.68
694.146	4286.57
694.335	4034.67
694.524	4155.5
694.713	4196.46
694.902	4042.86
695.092	4163.69
695.281	3999.85
695.47	4106.35
695.659	4083.82
695.848	4114.54
696.037	4008.05
696.226	4182.12
696.415	3983.47
696.604	4073.58
696.793	3872.88
696.982	4077.68
697.171	4171.88
697.36	4108.4
697.549	3977.33
697.738	3969.13
697.927	4100.2
698.116	3919.98
698.305	3942.51
698.494	4069.48
698.683	3995.76
698.872	3844.21
699.061	4059.24
699.25	3911.79
699.438	3864.69
699.627	3799.15
699.816	3879.02
700.005	3962.99
700.193	3881.07
700.382	3854.45
700.571	3866.74
700.76	3958.89
700.948	3891.31
701.137	3876.98
701.326	3754.1
701.514	3795.06
701.703	3895.41
701.892	3723.38
702.08	3881.07
702.269	3829.87
702.457	3688.56
702.646	3758.19
702.834	3879.02
703.023	3643.51
703.212	3801.2
703.4	3635.32
703.589	3690.61
703.777	3706.99
703.965	3715.19
704.154	3651.7
704.342	3692.66
704.531	3674.23
704.719	3747.95
704.907	3696.75
705.096	3606.64
705.284	3614.84
705.472	3510.39
705.661	3565.68
705.849	3577.97
706.037	3545.2
706.226	3508.34
706.414	3461.24
706.602	3571.83
706.79	3557.49
706.979	3461.24
707.167	3455.09
707.355	3606.64
707.543	3485.81
707.731	3565.68
707.919	3534.96
708.107	3500.15
708.296	3436.66
708.484	3344.5
708.672	3315.83
708.86	3201.15
709.048	3479.67
709.236	3405.94
709.424	3414.13
709.612	3399.8
709.8	3248.25
709.988	3289.21
710.176	3430.52
710.364	3434.61
710.551	3328.12
710.739	3311.74
710.927	3229.82
711.115	3324.02
711.303	3344.5
711.491	3373.18
711.679	3313.78
711.866	3377.27
712.054	3266.68
712.242	3172.47
712.43	3207.29
712.617	3186.81
712.805	3254.39
712.993	3278.97
713.181	3139.71
713.368	3229.82
713.556	3246.2
713.744	3053.69
713.931	3246.2
714.119	3149.95
714.306	3121.28
714.494	3137.66
714.682	3205.24
714.869	3090.56
715.057	3131.51
715.244	3016.83
715.432	3092.6
715.619	2988.16
715.807	3006.59
715.994	3115.13
716.182	2904.19
716.369	3147.9
716.556	3057.79
716.744	3137.66
716.931	2934.91
717.119	3149.95
717.306	3029.12
717.493	2975.87
717.681	3002.49
717.868	2984.06
718.055	2932.86
718.242	2916.48
718.43	2969.73
718.617	2885.76
718.804	2955.39
718.991	2906.24
719.179	2947.2
719.366	2754.69
719.553	2830.46
719.74	2871.42
719.927	2881.66
720.114	2914.43
720.301	2904.19
720.488	2822.27
720.676	2846.85
720.863	2762.88
721.05	2908.29
721.237	2848.9
721.424	2754.69
721.611	2816.13
721.798	2666.63
721.985	2781.31
722.172	2640
722.358	2783.36
722.545	2754.69
722.732	2629.76
722.919	2728.07
723.106	2623.62
723.293	2672.77
723.48	2746.5
723.667	2740.35
723.853	2723.97
724.04	2599.04
724.227	2568.32
724.414	2674.82
724.6	2705.54
724.787	2709.63
724.974	2678.91
725.161	2621.57
725.347	2535.56
725.534	2609.28
725.72	2562.18
725.907	2640
726.094	2568.32
726.28	2599.04
726.467	2461.83
726.653	2500.74
726.84	2574.47
727.027	2746.5
727.213	2574.47
727.4	2754.69
727.586	2633.86
727.773	2617.47
727.959	2531.46
728.145	2578.56
728.332	2408.58
728.518	2476.16
728.705	2519.17
728.891	2470.02
729.077	2461.83
729.264	2402.44
729.45	2510.98
729.636	2484.36
729.823	2465.93
730.009	2467.97
730.195	2416.77
730.382	2435.21
730.568	2500.74
730.754	2427.01
730.94	2320.52
731.126	2424.97
731.313	2556.04
731.499	2431.11
731.685	2488.45
731.871	2517.12
732.057	2347.14
732.243	2408.58
732.429	2336.9
732.615	2332.81
732.801	2445.45
732.987	2402.44
733.173	2320.52
733.359	2422.92
733.545	2236.55
733.731	2207.88
733.917	2390.15
734.103	2287.75
734.289	2355.33
734.475	2238.6
734.661	2353.29
734.847	2388.1
735.033	2341
735.219	2275.46
735.404	2246.79
735.59	2302.09
735.776	2267.27
735.962	2377.86
736.148	2269.32
736.333	2103.43
736.519	2185.35
736.705	2216.07
736.89	2222.22
737.076	2177.16
737.262	2140.3
737.447	2234.5
737.633	2109.58
737.819	2154.63
738.004	2101.39
738.19	2123.91
738.375	2148.49
738.561	2312.33
738.747	2181.26
738.932	2156.68
739.118	2199.69
739.303	2125.96
739.489	2185.35
739.674	2011.28
739.859	1984.65
740.045	2019.47
740.23	2068.62
740.416	2044.04
740.601	2107.53
740.786	2087.05
740.972	2115.72
741.157	2017.42
741.342	2035.85
741.528	1996.94
741.713	1953.93
741.898	2001.04
742.084	1919.12
742.269	1927.31
742.454	1947.79
742.639	1988.75
742.824	2062.48
743.01	1935.5
743.195	2054.28
743.38	1929.36
743.565	1900.69
743.75	1927.31
743.935	1872.01
744.12	1960.08
744.305	1786
744.49	1949.84
744.675	1880.21
744.86	1898.64
745.045	1904.78
745.23	1800.34
745.415	1806.48
745.6	1915.02
745.785	1771.66
745.97	1861.77
746.155	1720.46
746.34	1861.77
746.525	1648.79
746.71	1880.21
746.895	1763.47
747.079	1779.86
747.264	1659.03
747.449	1790.1
747.634	1714.32
747.819	1659.03
748.003	1673.36
748.188	1661.07
748.373	1710.22
748.557	1624.21
748.742	1659.03
748.927	1620.11
749.111	1616.02
749.296	1689.74
749.481	1591.44
749.665	1611.92
749.85	1599.63
750.034	1675.41
750.219	1542.29
750.404	1478.8
750.588	1585.3
750.773	1460.37
750.957	1527.96
751.141	1439.89
751.326	1427.6
751.51	1441.94
751.695	1452.18
751.879	1464.47
752.064	1503.38
752.248	1419.41
752.432	1433.75
752.617	1482.9
752.801	1460.37
752.985	1427.6
753.17	1423.51
753.354	1394.84
753.538	1337.49
753.722	1306.77
753.907	1403.03
754.091	1308.82
754.275	1347.73
754.459	1353.88
754.643	1282.2
754.828	1271.96
755.012	1396.89
755.196	1251.48
755.38	1218.71
755.564	1206.42
755.748	1216.66
755.932	1167.51
756.116	1253.53
756.3	1247.38
756.484	1157.27
756.668	1231
756.852	1271.96
757.036	1120.41
757.22	1120.41
757.404	1140.89
757.588	1200.28
757.772	1153.18
757.956	1206.42
758.14	1165.46
758.323	1087.64
758.507	1183.9
758.691	1085.59
758.875	1028.25
759.059	1095.83
759.242	1239.19
759.426	1050.78
759.61	1046.68
759.794	1046.68
759.977	1079.45
760.161	1192.09
760.345	1081.5
760.528	1001.63
760.712	1001.63
760.895	1028.25
761.079	1026.2
761.263	1028.25
761.446	1030.3
761.63	1067.16
761.813	1018.01
761.997	989.34
762.18	989.34
762.364	1077.4
762.547	1003.68
762.731	927.9
762.914	907.42
763.098	997.53
763.281	903.32
763.464	960.67
763.648	1005.72
763.831	1011.87
764.015	919.71
764.198	882.85
764.381	985.24
764.564	1036.44
764.748	882.85
764.931	899.23
765.114	944.28
765.297	946.33
765.481	872.61
765.664	891.04
765.847	790.69
766.03	936.09
766.213	929.95
766.397	975
766.58	788.64
766.763	850.08
766.946	817.31
767.129	893.09
767.312	747.68
767.495	708.77
767.678	759.97
767.861	862.37
768.044	878.75
768.227	944.28
768.41	848.03
768.593	837.79
768.776	796.83
768.959	753.82
769.142	825.5
769.324	776.35
769.507	768.16
769.69	852.13
769.873	872.61
770.056	880.8
770.239	856.22
770.421	792.73
770.604	796.83
770.787	796.83
770.97	702.62
771.152	788.64
771.335	714.91
771.518	764.06
771.7	813.21
771.883	843.93
772.066	774.3
772.248	716.96
772.431	784.54
772.613	700.58
772.796	745.63
772.978	682.14
773.161	858.27
773.343	676
773.526	788.64
773.708	714.91
773.891	702.62
774.073	723.1
774.256	780.45
774.438	825.5
774.621	649.38
774.803	723.1
774.985	706.72
775.168	626.85
775.35	624.8
775.532	702.62
775.715	682.14
775.897	731.3
776.079	702.62
776.261	665.76
776.444	657.57
776.626	594.08
776.808	620.71
776.99	643.23
777.173	649.38
777.355	592.03
777.537	612.51
777.719	698.53
777.901	604.32
778.083	571.55
778.265	600.23
778.447	628.9
778.629	534.69
778.811	538.79
778.993	618.66
779.175	610.47
779.357	624.8
779.539	526.5
779.721	577.7
779.903	608.42
780.085	501.92
780.267	555.17
780.449	583.84
780.631	501.92
780.812	559.27
780.994	526.5
781.176	510.11
781.358	532.64
781.54	544.93
781.721	540.83
781.903	497.83
782.085	510.11
782.267	497.83
782.448	428.2
782.63	501.92
782.812	471.2
782.993	530.59
783.175	483.49
783.357	477.35
783.538	456.87
783.72	534.69
783.901	430.24
784.083	458.92
784.264	430.24
784.446	411.81
784.627	364.71
784.809	512.16
784.99	452.77
785.172	456.87
785.353	403.62
785.535	395.43
785.716	397.48
785.897	411.81
786.079	366.76
786.26	477.35
786.441	473.25
786.623	368.81
786.804	319.65
786.985	323.75
787.167	422.05
787.348	493.73
787.529	370.85
787.71	315.56
787.891	309.41
788.073	276.65
788.254	356.52
788.435	387.24
788.616	366.76
788.797	321.7
788.978	348.33
789.159	346.28
789.34	329.89
789.522	352.42
789.703	272.55
789.884	321.7
790.065	405.67
790.246	362.66
790.427	338.09
790.607	297.13
790.788	391.33
790.969	342.18
791.15	346.28
791.331	346.28
791.512	280.74
791.693	284.84
791.874	237.74
792.054	420
792.235	379.04
792.416	299.17
792.597	284.84
792.778	305.32
792.958	362.66
793.139	307.37
793.32	340.13
793.5	198.82
793.681	268.45
793.862	266.41
794.042	305.32
794.223	247.97
794.404	258.21
794.584	198.82
794.765	346.28
794.945	278.69
795.126	272.55
795.306	243.88
795.487	348.33
795.667	241.83
795.848	239.78
796.028	233.64
796.209	239.78
796.389	247.97
796.57	331.94
796.75	223.4
796.93	219.3
797.111	204.97
797.291	207.02
797.471	231.59
797.652	235.69
797.832	239.78
798.012	256.17
798.192	284.84
798.373	190.63
798.553	172.2
798.733	188.58
798.913	198.82
799.093	225.45
799.274	256.17
799.454	219.3
799.634	225.45
799.814	317.61
799.994	178.34
800.174	225.45
800.354	219.3
800.534	180.39
800.714	211.11
800.894	174.25
801.074	180.39
801.254	180.39
801.434	166.06
801.614	118.95
801.794	184.49
801.974	991.39
802.154	217.26
802.334	215.21
802.514	137.38
802.693	143.53
802.873	100.52
803.053	141.48
803.233	194.73
803.413	174.25
803.592	182.44
803.772	247.97
803.952	155.82
804.131	194.73
804.311	178.34
804.491	182.44
804.67	133.29
804.85	190.63
805.03	266.41
805.209	211.11
805.389	176.3
805.568	170.15
805.748	157.86
805.928	207.02
806.107	174.25
806.287	200.87
806.466	170.15
806.646	186.54
806.825	88.23
807.004	174.25
807.184	121
807.363	174.25
807.543	104.62
807.722	192.68
807.901	166.06
808.081	166.06
808.26	182.44
808.439	92.33
808.619	178.34
808.798	149.67
808.977	121
809.156	200.87
809.336	159.91
809.515	176.3
809.694	100.52
809.873	135.34
810.052	166.06
810.231	184.49
810.411	198.82
810.59	182.44
810.769	143.53
810.948	37.03
811.127	141.48
811.306	168.1
811.485	61.61
811.664	141.48
811.843	157.86
812.022	141.48
812.201	125.1
812.38	114.86
812.559	135.34
812.737	168.1
812.916	100.52
813.095	141.48
813.274	80.04
813.453	151.72
813.632	75.95
813.811	161.96
813.989	135.34
814.168	168.1
814.347	168.1
814.526	110.76
814.704	135.34
814.883	200.87
815.062	77.99
815.24	53.42
815.419	94.38
815.598	71.85
815.776	-28.5
815.955	102.57
816.133	20.65
816.312	110.76
816.49	108.71
816.669	112.81
816.847	118.95
817.026	166.06
817.204	129.19
817.383	102.57
817.561	94.38
817.74	170.15
817.918	86.19
818.097	34.99
818.275	45.23
818.453	149.67
818.632	80.04
818.81	143.53
818.988	51.37
819.167	129.19
819.345	139.43
819.523	84.14
819.701	53.42
819.879	80.04
820.058	129.19
820.236	211.11
820.414	75.95
820.592	125.1
820.77	75.95
820.948	-1.88
821.127	77.99
821.305	180.39
821.483	77.99
821.661	135.34
821.839	94.38
822.017	92.33
822.195	26.79
822.373	118.95
822.551	80.04
822.729	75.95
822.907	-14.17
823.085	112.81
823.262	77.99
823.44	67.75
823.618	80.04
823.796	141.48
823.974	51.37
824.152	94.38
824.329	47.27
824.507	80.04
824.685	145.58
824.863	65.71
825.04	67.75
825.218	149.67
825.396	102.57
825.574	125.1
825.751	112.81
825.929	55.47
826.107	110.76
826.284	51.37
826.462	59.56
826.639	100.52
826.817	6.31
826.994	45.23
827.172	108.71
827.349	110.76
827.527	18.6
827.704	22.7
827.882	69.8
828.059	88.23
828.237	45.23
828.414	94.38
828.591	43.18
828.769	145.58
828.946	69.8
829.124	96.43
829.301	67.75
829.478	34.99
829.655	55.47
829.833	141.48
830.01	-3.93
830.187	123.05
830.364	71.85
830.542	69.8
830.719	121
830.896	20.65
831.073	45.23
831.25	131.24
831.427	59.56
831.604	-26.45
831.782	49.32
831.959	69.8
832.136	77.99
832.313	71.85
832.49	61.61
832.667	18.6
832.844	-34.64
833.021	94.38
833.198	22.7
833.374	2.22
833.551	45.23
833.728	155.82
833.905	80.04
834.082	18.6
834.259	0.17
834.436	121
834.612	53.42
834.789	59.56
834.966	65.71
835.143	32.94
835.319	30.89
835.496	129.19
835.673	20.65
835.85	80.04
836.026	41.13
836.203	96.43
836.38	63.66
836.556	18.6
836.733	-46.93
836.909	145.58
837.086	77.99
837.262	34.99
837.439	-3.93
837.616	-75.6
837.792	80.04
837.968	37.03
838.145	-34.64
838.321	26.79
838.498	-22.36
838.674	145.58
838.851	63.66
839.027	2.22
839.203	-55.12
839.38	59.56
839.556	-38.74
839.732	63.66
839.909	-51.03
840.085	118.95
840.261	55.47
840.437	26.79
840.614	37.03
840.79	-44.88
840.966	10.41
841.142	-38.74
841.318	24.75
841.494	69.8
841.671	47.27
841.847	20.65
842.023	43.18
842.199	63.66
842.375	84.14
842.551	-5.97
842.727	-46.93
842.903	34.99
843.079	-12.12
843.255	26.79
843.431	37.03
843.607	-1.88
843.783	2.22
843.959	110.76
844.134	12.46
844.31	61.61
844.486	20.65
844.662	37.03
844.838	49.32
845.013	2.22
845.189	12.46
845.365	18.6
845.541	16.55
845.716	12.46
845.892	30.89
846.068	84.14
846.244	-24.4
846.419	34.99
846.595	16.55
846.77	-5.97
846.946	34.99
847.122	37.03
847.297	22.7
847.473	118.95
847.648	-22.36
847.824	41.13
847.999	-59.22
848.175	2.22
848.35	14.51
848.526	2.22
848.701	59.56
848.876	22.7
849.052	12.46
849.227	-63.32
849.403	34.99
849.578	32.94
849.753	39.08
849.929	75.95
850.104	2.22
850.279	-55.12
850.454	53.42
850.63	-3.93
850.805	43.18
850.98	100.52
851.155	16.55
851.33	4.27
851.505	-22.36
851.681	45.23
851.856	-42.84
852.031	86.19
852.206	10.41
852.381	41.13
852.556	4.27
852.731	-85.84
852.906	30.89
853.081	47.27
853.256	-3.93
853.431	12.46
853.606	67.75
853.781	-55.12
853.956	-34.64
854.131	75.95
854.305	-46.93
854.48	75.95
854.655	12.46
854.83	-22.36
855.005	-32.6
855.18	26.79
855.354	43.18
855.529	28.84
855.704	37.03
855.879	-1.88
856.053	20.65
856.228	26.79
856.403	-46.93
856.577	45.23
856.752	-10.07
856.926	-22.36
857.101	10.41
857.276	-85.84
857.45	47.27
857.625	53.42
857.799	49.32
857.974	-1.88
858.148	-83.8
858.323	-38.74
858.497	2.22
858.672	34.99
858.846	-110.42
859.02	55.47
859.195	12.46
859.369	-3.93
859.543	8.36
859.718	69.8
859.892	-38.74
860.066	2.22
860.241	-16.21
860.415	-30.55
860.589	24.75
860.763	8.36
860.938	30.89
861.112	-77.65
861.286	-3.93
861.46	-3.93
861.634	34.99
861.808	137.38
861.982	-38.74
862.157	-22.36
862.331	6.31
862.505	-51.03
862.679	-12.12
862.853	12.46
863.027	-69.46
863.201	37.03
863.375	-28.5
863.549	-26.45
863.722	-40.79
863.896	26.79
864.07	-1.88
864.244	12.46
864.418	41.13
864.592	-10.07
864.766	26.79
864.939	73.9
865.113	-71.51
865.287	26.79
865.461	-116.56
865.634	-18.26
865.808	-75.6
865.982	-38.74
866.156	-24.4
866.329	-22.36
866.503	-55.12
866.676	41.13
866.85	-57.17
867.024	-1.88
867.197	43.18
867.371	71.85
867.544	12.46
867.718	-12.12
867.891	-42.84
868.065	-1.88
868.238	-18.26
868.412	86.19
868.585	12.46
868.759	-46.93
868.932	-42.84
869.105	-26.45
869.279	-38.74
869.452	2.22
869.625	-10.07
869.799	4.27
869.972	-71.51
870.145	-30.55
870.319	-73.56
870.492	-3.93
870.665	12.46
870.838	4.27
871.011	0.17
871.185	-44.88
871.358	-14.17
871.531	-14.17
871.704	63.66
871.877	2.22
872.05	-40.79
872.223	-28.5
872.396	-51.03
872.569	63.66
872.742	-69.46
872.915	18.6
873.088	-34.64
873.261	-5.97
873.434	-36.69
873.607	-69.46
873.78	-63.32
873.953	-10.07
874.126	-1.88
874.299	-3.93
874.471	-63.32
874.644	80.04
874.817	4.27
874.99	-38.74
875.163	-36.69
875.335	41.13
875.508	-10.07
875.681	34.99
875.853	-81.75
876.026	-91.99
876.199	47.27
876.371	26.79
876.544	-51.03
876.717	26.79
876.889	-16.21
877.062	55.47
877.234	-14.17
877.407	-38.74
877.579	-44.88
877.752	0.17
877.924	-16.21
878.097	26.79
878.269	47.27
878.442	-51.03
878.614	100.52
878.786	-77.65
878.959	-22.36
879.131	14.51
879.303	-59.22
879.476	14.51
879.648	18.6
879.82	6.31
879.993	-108.37
880.165	-10.07
880.337	-63.32
880.509	24.75
880.681	-18.26
880.854	-67.41
881.026	26.79
881.198	67.75
881.37	22.7
881.542	-18.26
881.714	-26.45
881.886	-51.03
882.058	59.56
882.23	-3.93
882.402	2.22
882.574	10.41
882.746	-14.17
882.918	47.27
883.09	57.51
883.262	-53.08
883.434	10.41
883.606	-77.65
883.778	-1.88
883.95	47.27
884.122	-96.08
884.293	-42.84
884.465	-30.55
884.637	108.71
884.809	-28.5
884.98	28.84
885.152	-12.12
885.324	-10.07
885.496	2.22
885.667	-3.93
885.839	-8.02
886.011	18.6
886.182	-46.93
886.354	-16.21
886.525	28.84
886.697	-5.97
886.869	-5.97
887.04	-71.51
887.212	4.27
887.383	129.19
887.555	94.38
887.726	-26.45
887.897	-104.28
888.069	-79.7
888.24	18.6
888.412	37.03
888.583	-57.17
888.754	-71.51
888.926	-20.31
889.097	-44.88
889.268	-30.55
889.44	-10.07
889.611	-38.74
889.782	-12.12
889.953	-67.41
890.125	57.51
890.296	-34.64
890.467	-83.8
890.638	-63.32
890.809	-8.02
890.98	-16.21
891.151	51.37
891.323	39.08
891.494	-28.5
891.665	-55.12
891.836	20.65
892.007	-75.6
892.178	-20.31
892.349	51.37
892.52	-10.07
892.691	69.8
892.862	-63.32
893.032	2.22
893.203	-1.88
893.374	-55.12
893.545	47.27
893.716	-87.89
893.887	28.84
894.057	-75.6
894.228	-53.08
894.399	-18.26
894.57	43.18
894.74	-67.41
894.911	-22.36
895.082	-1.88
895.253	-10.07
895.423	-44.88
895.594	30.89
895.764	-1.88
895.935	18.6
896.106	69.8
896.276	-32.6
896.447	84.14
896.617	-46.93
896.788	-10.07
896.958	18.6
897.129	-110.42
897.299	-100.18
897.47	26.79
897.64	-38.74
897.81	-30.55
897.981	-20.31
898.151	2.22
898.322	-5.97
898.492	-55.12
898.662	-65.36
898.832	-42.84
899.003	6.31
899.173	-34.64
899.343	-46.93
899.513	-94.04
