Data from USB4F104151__294__14-34-53-823.txt Node

Date: Thu Mar 13 14:34:53 EDT 2025
User: louis
Spectrometer: USB4F10415
Trigger mode: 4
Integration Time (sec): 2.500000E-2
Scans to average: 1
Electric dark correction enabled: true
Nonlinearity correction enabled: false
Boxcar width: 0
XAxis mode: Wavelengths
Number of Pixels in Spectrum: 3648
>>>>>Begin Spectral Data<<<<<
178.204	-140.8
178.424	-140.8
178.644	-140.8
178.864	-132.61
179.084	-173.57
179.304	0.51
179.524	-1.54
179.744	-75.26
179.964	0.51
180.184	4.61
180.404	-3.58
180.624	27.14
180.844	6.66
181.064	-22.02
181.283	-13.82
181.503	31.23
181.723	45.57
181.943	-38.4
182.163	150.01
182.383	27.14
182.602	59.9
182.822	-1.54
183.042	64
183.262	-44.54
183.482	18.94
183.701	35.33
183.921	31.23
184.141	27.14
184.361	84.48
184.58	6.66
184.8	14.85
185.02	-40.45
185.239	29.18
185.459	23.04
185.679	76.29
185.898	20.99
186.118	76.29
186.338	-5.63
186.557	27.14
186.777	-11.78
186.997	-9.73
187.216	-11.78
187.436	72.19
187.655	92.67
187.875	68.09
188.095	37.38
188.314	119.29
188.534	78.33
188.753	43.52
188.973	113.15
189.192	59.9
189.412	92.67
189.631	-1.54
189.851	80.38
190.07	92.67
190.29	18.94
190.509	33.28
190.729	80.38
190.948	53.76
191.168	174.59
191.387	156.16
191.607	45.57
191.826	47.62
192.045	-58.88
192.265	-13.82
192.484	47.62
192.704	47.62
192.923	-5.63
193.142	66.05
193.362	94.72
193.581	104.96
193.8	80.38
194.02	43.52
194.239	-50.69
194.458	76.29
194.678	2.56
194.897	18.94
195.116	-3.58
195.335	6.66
195.555	117.25
195.774	35.33
195.993	111.1
196.212	23.04
196.432	-1.54
196.651	18.94
196.87	82.43
197.089	117.25
197.308	-28.16
197.528	2.56
197.747	-75.26
197.966	53.76
198.185	133.63
198.404	27.14
198.623	37.38
198.842	68.09
199.062	64
199.281	2.56
199.5	-5.63
199.719	-1.54
199.938	78.33
200.157	90.62
200.376	68.09
200.595	-1.54
200.814	45.57
201.033	-19.97
201.252	70.14
201.471	-1.54
201.69	78.33
201.909	-52.74
202.128	70.14
202.347	25.09
202.566	51.71
202.785	92.67
203.004	-44.54
203.223	76.29
203.442	84.48
203.661	-5.63
203.879	-5.63
204.098	147.97
204.317	72.19
204.536	47.62
204.755	109.05
204.974	23.04
205.193	78.33
205.411	61.95
205.63	59.9
205.849	2.56
206.068	10.75
206.287	31.23
206.505	76.29
206.724	55.81
206.943	0.51
207.162	55.81
207.381	33.28
207.599	-9.73
207.818	86.53
208.037	20.99
208.255	29.18
208.474	76.29
208.693	102.91
208.911	31.23
209.13	55.81
209.349	82.43
209.567	4.61
209.786	55.81
210.005	94.72
210.223	2.56
210.442	-26.11
210.661	111.1
210.879	39.42
211.098	43.52
211.316	113.15
211.535	57.86
211.753	82.43
211.972	43.52
212.191	55.81
212.409	90.62
212.628	109.05
212.846	10.75
213.065	43.52
213.283	76.29
213.502	88.57
213.72	68.09
213.938	23.04
214.157	53.76
214.375	-3.58
214.594	-46.59
214.812	125.44
215.031	4.61
215.249	55.81
215.467	86.53
215.686	31.23
215.904	51.71
216.122	2.56
216.341	90.62
216.559	51.71
216.778	84.48
216.996	53.76
217.214	-19.97
217.432	109.05
217.651	-36.35
217.869	0.51
218.087	27.14
218.306	47.62
218.524	68.09
218.742	6.66
218.96	92.67
219.179	31.23
219.397	23.04
219.615	150.01
219.833	66.05
220.051	88.57
220.27	10.75
220.488	35.33
220.706	76.29
220.924	92.67
221.142	-3.58
221.36	18.94
221.578	6.66
221.796	51.71
222.015	57.86
222.233	2.56
222.451	182.78
222.669	88.57
222.887	109.05
223.105	37.38
223.323	68.09
223.541	51.71
223.759	55.81
223.977	10.75
224.195	102.91
224.413	53.76
224.631	61.95
224.849	20.99
225.067	37.38
225.285	-9.73
225.503	84.48
225.721	-42.5
225.939	-22.02
226.157	-19.97
226.375	141.82
226.592	-60.93
226.81	12.8
227.028	76.29
227.246	96.77
227.464	59.9
227.682	35.33
227.9	51.71
228.117	55.81
228.335	-19.97
228.553	70.14
228.771	129.53
228.989	35.33
229.206	4.61
229.424	41.47
229.642	-1.54
229.86	4.61
230.077	47.62
230.295	51.71
230.513	109.05
230.731	113.15
230.948	41.47
231.166	64
231.384	-9.73
231.601	80.38
231.819	113.15
232.037	-13.82
232.254	86.53
232.472	43.52
232.689	20.99
232.907	31.23
233.125	59.9
233.342	31.23
233.56	-34.3
233.777	20.99
233.995	51.71
234.213	92.67
234.43	35.33
234.648	43.52
234.865	35.33
235.083	59.9
235.3	27.14
235.518	-7.68
235.735	78.33
235.953	68.09
236.17	55.81
236.388	84.48
236.605	10.75
236.822	102.91
237.04	51.71
237.257	35.33
237.475	35.33
237.692	35.33
237.909	53.76
238.127	27.14
238.344	14.85
238.562	43.52
238.779	27.14
238.996	55.81
239.214	96.77
239.431	59.9
239.648	-17.92
239.865	61.95
240.083	84.48
240.3	27.14
240.517	47.62
240.735	10.75
240.952	47.62
241.169	41.47
241.386	59.9
241.603	12.8
241.821	-5.63
242.038	70.14
242.255	37.38
242.472	4.61
242.689	27.14
242.907	27.14
243.124	59.9
243.341	84.48
243.558	-26.11
243.775	18.94
243.992	53.76
244.209	55.81
244.426	64
244.643	59.9
244.86	-46.59
245.078	61.95
245.295	39.42
245.512	61.95
245.729	6.66
245.946	12.8
246.163	20.99
246.38	-22.02
246.597	100.86
246.814	68.09
247.031	35.33
247.248	51.71
247.464	35.33
247.681	78.33
247.898	10.75
248.115	-7.68
248.332	-42.5
248.549	61.95
248.766	76.29
248.983	88.57
249.2	31.23
249.417	72.19
249.633	23.04
249.85	39.42
250.067	43.52
250.284	109.05
250.501	35.33
250.717	10.75
250.934	51.71
251.151	27.14
251.368	84.48
251.585	37.38
251.801	-46.59
252.018	53.76
252.235	37.38
252.451	2.56
252.668	10.75
252.885	68.09
253.102	92.67
253.318	-7.68
253.535	25.09
253.752	16.9
253.968	-13.82
254.185	2.56
254.401	64
254.618	39.42
254.835	-19.97
255.051	104.96
255.268	59.9
255.484	10.75
255.701	18.94
255.917	43.52
256.134	-13.82
256.351	76.29
256.567	-5.63
256.784	100.86
257	51.71
257.217	70.14
257.433	53.76
257.65	86.53
257.866	47.62
258.082	27.14
258.299	-46.59
258.515	27.14
258.732	64
258.948	29.18
259.165	98.81
259.381	-13.82
259.597	70.14
259.814	4.61
260.03	49.66
260.246	84.48
260.463	29.18
260.679	94.72
260.895	29.18
261.112	35.33
261.328	39.42
261.544	2.56
261.761	12.8
261.977	78.33
262.193	-54.78
262.409	43.52
262.626	70.14
262.842	64
263.058	12.8
263.274	117.25
263.49	-17.92
263.707	61.95
263.923	43.52
264.139	-46.59
264.355	-13.82
264.571	53.76
264.787	35.33
265.004	53.76
265.22	100.86
265.436	4.61
265.652	80.38
265.868	2.56
266.084	-1.54
266.3	27.14
266.516	-13.82
266.732	18.94
266.948	43.52
267.164	49.66
267.38	23.04
267.596	43.52
267.812	64
268.028	125.44
268.244	-38.4
268.46	41.47
268.676	61.95
268.892	41.47
269.108	80.38
269.324	-19.97
269.54	10.75
269.756	100.86
269.972	-40.45
270.188	104.96
270.403	-60.93
270.619	102.91
270.835	53.76
271.051	84.48
271.267	-38.4
271.483	14.85
271.698	61.95
271.914	72.19
272.13	31.23
272.346	-9.73
272.562	51.71
272.777	31.23
272.993	45.57
273.209	-3.58
273.425	10.75
273.64	-22.02
273.856	76.29
274.072	61.95
274.287	150.01
274.503	2.56
274.719	100.86
274.934	-22.02
275.15	-22.02
275.366	12.8
275.581	-85.5
275.797	59.9
276.012	72.19
276.228	10.75
276.444	31.23
276.659	23.04
276.875	10.75
277.09	78.33
277.306	6.66
277.521	145.92
277.737	70.14
277.952	31.23
278.168	51.71
278.383	39.42
278.599	80.38
278.814	12.8
279.03	-1.54
279.245	84.48
279.461	68.09
279.676	143.87
279.892	55.81
280.107	66.05
280.322	-79.36
280.538	-13.82
280.753	10.75
280.969	-5.63
281.184	27.14
281.399	70.14
281.615	70.14
281.83	59.9
282.045	27.14
282.26	4.61
282.476	-1.54
282.691	98.81
282.906	96.77
283.122	-28.16
283.337	-3.58
283.552	78.33
283.767	2.56
283.983	98.81
284.198	92.67
284.413	43.52
284.628	6.66
284.843	66.05
285.058	8.7
285.274	-5.63
285.489	43.52
285.704	27.14
285.919	45.57
286.134	31.23
286.349	39.42
286.564	53.76
286.779	127.49
286.995	45.57
287.21	10.75
287.425	59.9
287.64	129.53
287.855	74.24
288.07	-5.63
288.285	49.66
288.5	98.81
288.715	76.29
288.93	43.52
289.145	-44.54
289.36	117.25
289.575	-17.92
289.79	72.19
290.004	51.71
290.219	27.14
290.434	-38.4
290.649	51.71
290.864	-19.97
291.079	10.75
291.294	-13.82
291.509	78.33
291.724	-62.98
291.938	-77.31
292.153	92.67
292.368	14.85
292.583	43.52
292.798	27.14
293.012	72.19
293.227	-15.87
293.442	-19.97
293.657	51.71
293.871	39.42
294.086	70.14
294.301	72.19
294.516	86.53
294.73	43.52
294.945	6.66
295.16	10.75
295.374	33.28
295.589	111.1
295.804	45.57
296.018	-9.73
296.233	72.19
296.447	96.77
296.662	45.57
296.877	94.72
297.091	45.57
297.306	133.63
297.52	29.18
297.735	4.61
297.949	127.49
298.164	94.72
298.378	43.52
298.593	-1.54
298.807	23.04
299.022	41.47
299.236	86.53
299.451	-22.02
299.665	51.71
299.88	68.09
300.094	64
300.309	6.66
300.523	18.94
300.737	51.71
300.952	55.81
301.166	64
301.381	6.66
301.595	64
301.809	59.9
302.024	18.94
302.238	76.29
302.452	88.57
302.667	51.71
302.881	152.06
303.095	35.33
303.309	29.18
303.524	-13.82
303.738	27.14
303.952	-30.21
304.166	100.86
304.381	-26.11
304.595	68.09
304.809	47.62
305.023	92.67
305.237	-19.97
305.452	2.56
305.666	84.48
305.88	61.95
306.094	84.48
306.308	111.1
306.522	43.52
306.736	86.53
306.95	45.57
307.164	10.75
307.379	6.66
307.593	170.49
307.807	72.19
308.021	94.72
308.235	35.33
308.449	-26.11
308.663	47.62
308.877	133.63
309.091	-67.07
309.305	78.33
309.519	10.75
309.733	37.38
309.947	-77.31
310.161	117.25
310.374	49.66
310.588	166.4
310.802	0.51
311.016	-79.36
311.23	33.28
311.444	-3.58
311.658	-19.97
311.872	92.67
312.085	68.09
312.299	2.56
312.513	45.57
312.727	-28.16
312.941	-30.21
313.154	43.52
313.368	25.09
313.582	51.71
313.796	43.52
314.009	14.85
314.223	129.53
314.437	59.9
314.651	18.94
314.864	4.61
315.078	-19.97
315.292	70.14
315.505	2.56
315.719	72.19
315.933	27.14
316.146	51.71
316.36	59.9
316.573	51.71
316.787	6.66
317.001	78.33
317.214	14.85
317.428	2.56
317.641	-1.54
317.855	-13.82
318.068	35.33
318.282	53.76
318.495	109.05
318.709	135.68
318.922	-17.92
319.136	152.06
319.349	25.09
319.563	59.9
319.776	72.19
319.99	-9.73
320.203	66.05
320.417	-17.92
320.63	-5.63
320.843	100.86
321.057	43.52
321.27	92.67
321.483	92.67
321.697	37.38
321.91	70.14
322.124	51.71
322.337	68.09
322.55	96.77
322.763	-22.02
322.977	4.61
323.19	31.23
323.403	-3.58
323.617	84.48
323.83	72.19
324.043	29.18
324.256	55.81
324.469	27.14
324.683	78.33
324.896	49.66
325.109	53.76
325.322	-13.82
325.535	27.14
325.748	-5.63
325.962	51.71
326.175	10.75
326.388	37.38
326.601	43.52
326.814	137.73
327.027	18.94
327.24	152.06
327.453	0.51
327.666	123.39
327.879	35.33
328.092	76.29
328.305	80.38
328.518	41.47
328.731	-9.73
328.944	-50.69
329.157	20.99
329.37	8.7
329.583	66.05
329.796	152.06
330.009	37.38
330.222	78.33
330.435	55.81
330.648	33.28
330.861	29.18
331.073	35.33
331.286	109.05
331.499	-5.63
331.712	53.76
331.925	-1.54
332.138	76.29
332.35	72.19
332.563	72.19
332.776	64
332.989	66.05
333.202	20.99
333.414	119.29
333.627	35.33
333.84	20.99
334.053	12.8
334.265	35.33
334.478	-11.78
334.691	96.77
334.903	12.8
335.116	-11.78
335.329	109.05
335.541	27.14
335.754	84.48
335.966	55.81
336.179	-46.59
336.392	-69.12
336.604	76.29
336.817	111.1
337.029	80.38
337.242	23.04
337.454	37.38
337.667	-1.54
337.88	133.63
338.092	25.09
338.305	78.33
338.517	27.14
338.729	43.52
338.942	90.62
339.154	-22.02
339.367	23.04
339.579	86.53
339.792	14.85
340.004	16.9
340.217	-17.92
340.429	102.91
340.641	12.8
340.854	43.52
341.066	20.99
341.278	61.95
341.491	74.24
341.703	29.18
341.915	-26.11
342.128	20.99
342.34	18.94
342.552	76.29
342.764	27.14
342.977	14.85
343.189	76.29
343.401	27.14
343.613	10.75
343.826	-13.82
344.038	80.38
344.25	-7.68
344.462	8.7
344.674	92.67
344.886	68.09
345.099	57.86
345.311	109.05
345.523	35.33
345.735	27.14
345.947	51.71
346.159	29.18
346.371	43.52
346.583	-3.58
346.795	188.93
347.007	23.04
347.219	102.91
347.431	61.95
347.643	68.09
347.855	-9.73
348.067	45.57
348.279	74.24
348.491	-3.58
348.703	8.7
348.915	43.52
349.127	29.18
349.339	72.19
349.551	39.42
349.763	76.29
349.975	80.38
350.187	121.34
350.399	61.95
350.61	-3.58
350.822	-30.21
351.034	68.09
351.246	-9.73
351.458	100.86
351.669	86.53
351.881	29.18
352.093	125.44
352.305	84.48
352.517	100.86
352.728	96.77
352.94	29.18
353.152	10.75
353.363	57.86
353.575	23.04
353.787	150.01
353.999	51.71
354.21	172.54
354.422	51.71
354.633	47.62
354.845	76.29
355.057	64
355.268	121.34
355.48	84.48
355.692	61.95
355.903	61.95
356.115	4.61
356.326	-30.21
356.538	125.44
356.749	64
356.961	27.14
357.172	14.85
357.384	76.29
357.595	78.33
357.807	4.61
358.018	-56.83
358.23	10.75
358.441	59.9
358.653	31.23
358.864	43.52
359.075	20.99
359.287	29.18
359.498	96.77
359.709	127.49
359.921	10.75
360.132	88.57
360.344	92.67
360.555	18.94
360.766	27.14
360.977	31.23
361.189	43.52
361.4	18.94
361.611	92.67
361.823	117.25
362.034	100.86
362.245	31.23
362.456	55.81
362.667	127.49
362.879	53.76
363.09	23.04
363.301	96.77
363.512	98.81
363.723	4.61
363.935	158.21
364.146	84.48
364.357	78.33
364.568	45.57
364.779	-26.11
364.99	133.63
365.201	74.24
365.412	55.81
365.623	16.9
365.834	100.86
366.045	43.52
366.256	55.81
366.467	10.75
366.678	80.38
366.889	96.77
367.1	55.81
367.311	154.11
367.522	43.52
367.733	92.67
367.944	94.72
368.155	-22.02
368.366	111.1
368.577	76.29
368.788	92.67
368.999	-3.58
369.209	100.86
369.42	94.72
369.631	139.77
369.842	41.47
370.053	-19.97
370.264	152.06
370.474	29.18
370.685	117.25
370.896	76.29
371.107	92.67
371.317	78.33
371.528	-22.02
371.739	98.81
371.95	129.53
372.16	72.19
372.371	43.52
372.582	68.09
372.792	43.52
373.003	92.67
373.214	92.67
373.424	88.57
373.635	-5.63
373.846	100.86
374.056	57.86
374.267	78.33
374.477	27.14
374.688	12.8
374.898	49.66
375.109	55.81
375.319	35.33
375.53	158.21
375.74	0.51
375.951	61.95
376.161	123.39
376.372	70.14
376.582	39.42
376.793	119.29
377.003	76.29
377.214	107.01
377.424	59.9
377.635	121.34
377.845	18.94
378.055	141.82
378.266	43.52
378.476	133.63
378.686	92.67
378.897	70.14
379.107	39.42
379.317	70.14
379.528	64
379.738	76.29
379.948	27.14
380.158	170.49
380.369	51.71
380.579	84.48
380.789	57.86
380.999	35.33
381.21	43.52
381.42	170.49
381.63	127.49
381.84	23.04
382.05	84.48
382.261	-19.97
382.471	133.63
382.681	78.33
382.891	117.25
383.101	-3.58
383.311	76.29
383.521	-1.54
383.731	129.53
383.941	23.04
384.151	-5.63
384.361	4.61
384.571	104.96
384.781	78.33
384.991	182.78
385.201	176.64
385.411	68.09
385.621	78.33
385.831	78.33
386.041	51.71
386.251	6.66
386.461	55.81
386.671	45.57
386.881	125.44
387.091	55.81
387.301	80.38
387.511	90.62
387.72	145.92
387.93	127.49
388.14	-79.36
388.35	29.18
388.56	94.72
388.769	68.09
388.979	80.38
389.189	18.94
389.399	143.87
389.609	80.38
389.818	35.33
390.028	66.05
390.238	59.9
390.447	59.9
390.657	78.33
390.867	72.19
391.076	74.24
391.286	84.48
391.496	51.71
391.705	82.43
391.915	133.63
392.125	90.62
392.334	47.62
392.544	119.29
392.753	43.52
392.963	80.38
393.172	137.73
393.382	74.24
393.591	107.01
393.801	51.71
394.01	150.01
394.22	154.11
394.429	113.15
394.639	31.23
394.848	162.3
395.058	59.9
395.267	76.29
395.477	119.29
395.686	111.1
395.895	145.92
396.105	199.16
396.314	68.09
396.524	137.73
396.733	133.63
396.942	121.34
397.152	100.86
397.361	150.01
397.57	137.73
397.78	125.44
397.989	154.11
398.198	170.49
398.407	125.44
398.617	156.16
398.826	135.68
399.035	145.92
399.244	162.3
399.453	143.87
399.663	111.1
399.872	160.25
400.081	88.57
400.29	154.11
400.499	152.06
400.708	182.78
400.917	150.01
401.127	55.81
401.336	162.3
401.545	113.15
401.754	207.36
401.963	133.63
402.172	82.43
402.381	111.1
402.59	133.63
402.799	176.64
403.008	168.45
403.217	168.45
403.426	184.83
403.635	113.15
403.844	145.92
404.053	215.55
404.262	137.73
404.471	256.51
404.68	231.93
404.888	109.05
405.097	215.55
405.306	207.36
405.515	190.97
405.724	158.21
405.933	174.59
406.142	223.74
406.35	186.88
406.559	227.84
406.768	215.55
406.977	256.51
407.185	258.56
407.394	252.41
407.603	229.88
407.812	266.75
408.02	289.28
408.229	297.47
408.438	315.9
408.646	287.23
408.855	285.18
409.064	371.19
409.272	303.61
409.481	397.82
409.69	354.81
409.898	340.47
410.107	363
410.315	274.94
410.524	416.25
410.733	373.24
410.941	403.96
411.15	481.78
411.358	444.92
411.567	526.84
411.775	438.78
411.984	504.31
412.192	592.37
412.401	494.07
412.609	608.76
412.818	690.68
413.026	543.22
413.234	616.95
413.443	702.97
413.651	694.77
413.86	711.16
414.068	750.07
414.276	799.22
414.485	750.07
414.693	829.94
414.901	961.01
415.11	952.82
415.318	817.65
415.526	977.39
415.734	963.06
415.943	981.49
416.151	1075.7
416.359	1012.21
416.567	1042.93
416.776	1102.32
416.984	1184.24
417.192	1247.72
417.4	1221.1
417.608	1257.96
417.817	1241.58
418.025	1382.89
418.233	1411.56
418.441	1358.32
418.649	1530.34
418.857	1546.73
419.065	1665.51
419.273	1657.32
419.481	1759.72
419.689	1808.87
419.897	1864.16
420.105	1896.93
420.313	1952.23
420.521	2161.12
420.729	2116.06
420.937	2173.41
421.145	2150.88
421.353	2451.93
421.561	2402.78
421.769	2425.31
421.977	2515.42
422.185	2533.85
422.393	2664.92
422.601	2869.72
422.809	2847.19
423.017	2980.31
423.224	3054.03
423.432	3158.48
423.64	3131.86
423.848	3361.23
424.056	3326.41
424.263	3547.59
424.471	3516.87
424.679	3598.79
424.887	3787.21
425.094	3951.04
425.302	3891.65
425.51	4118.98
425.718	4282.81
425.925	4309.44
426.133	4352.45
426.341	4669.88
426.548	4813.24
426.756	4848.05
426.964	4960.69
427.171	5257.65
427.379	5413.29
427.586	5401.01
427.794	5573.03
428.001	5880.23
428.209	6136.23
428.417	6072.74
428.624	6357.41
428.832	6285.73
429.039	6353.31
429.247	6418.85
429.454	6969.75
429.662	7537.04
429.869	7023
430.076	7514.51
430.284	7252.37
430.491	7459.21
430.699	7862.66
430.906	8143.24
431.114	8153.48
431.321	8538.49
431.528	8546.69
431.736	9062.77
431.943	9431.41
432.15	9195.89
432.358	9337.2
432.565	9853.29
432.772	9744.75
432.979	10244.45
433.187	10326.37
433.394	10498.4
433.601	11315.54
433.808	11223.38
434.016	11159.89
434.223	11622.73
434.43	12233.03
434.637	11934.03
434.844	12806.46
435.052	12933.43
435.259	13109.56
435.466	13177.14
435.673	13029.69
435.88	13916.46
436.087	14604.58
436.294	14635.3
436.501	14276.9
436.708	14493.99
436.915	14946.59
437.122	15583.51
437.329	15841.55
437.537	16132.36
437.743	16128.27
437.95	16173.32
438.157	17115.39
438.364	17815.79
438.571	17680.63
438.778	17762.54
438.985	19112.16
439.192	18288.87
439.399	19194.08
439.606	18643.17
439.813	19933.39
440.02	20834.5
440.227	20576.45
440.433	19927.25
440.64	21102.78
440.847	20777.15
441.054	21227.71
441.261	22870.18
441.467	22479.02
441.674	22816.93
441.881	23990.42
442.088	23595.16
442.294	23490.71
442.501	24101.01
442.708	24672.39
442.914	25344.13
443.121	26902.63
443.328	25927.8
443.534	27521.12
443.741	26665.07
443.948	26251.38
444.154	28401.74
444.361	28532.81
444.568	28405.84
444.774	28663.88
444.981	28817.48
445.187	29788.22
445.394	30924.84
445.6	30201.91
445.807	33429.51
446.013	32036.89
446.22	32493.58
446.426	33732.61
446.633	33851.39
446.839	35065.83
447.046	33636.35
447.252	35528.67
447.459	35719.13
447.665	35473.38
447.871	36589.52
448.078	38727.6
448.284	36964.3
448.491	37609.41
448.697	38983.6
448.903	39843.74
449.11	39839.65
449.316	39389.09
449.522	40187.8
449.728	41131.92
449.935	41674.63
450.141	41430.92
450.347	42354.55
450.553	40767.38
450.76	41469.83
450.966	42741.62
451.172	42465.14
451.378	43212.65
451.584	42907.51
451.791	43509.61
451.997	43300.72
452.203	44476.25
452.409	43681.64
452.615	43951.97
452.821	42393.47
453.027	42080.13
453.233	44054.37
453.44	42229.63
453.646	42805.11
453.852	42905.46
454.058	44177.25
454.264	42362.75
454.47	43251.56
454.676	42110.85
454.882	43628.39
455.088	40042.4
455.294	40574.87
455.5	40951.7
455.705	41426.82
455.911	40095.64
456.117	39260.07
456.323	38803.38
456.529	36542.42
456.735	38115.26
456.941	37408.71
457.147	36665.3
457.352	35477.47
457.558	35332.07
457.764	35272.68
457.97	34689.01
458.176	33662.97
458.381	34131.96
458.587	32653.33
458.793	31952.92
458.999	30750.76
459.204	32454.67
459.41	31746.08
459.616	29679.68
459.821	29503.55
460.027	29710.39
460.233	28864.58
460.438	27695.19
460.644	27816.02
460.85	26828.9
461.055	26095.73
461.261	26083.44
461.466	23939.22
461.672	23275.68
461.878	25092.23
462.083	23500.95
462.289	22732.97
462.494	22741.16
462.7	21754.04
462.905	21262.52
463.111	21604.53
463.316	22044.85
463.522	21465.27
463.727	21352.63
463.932	21420.22
464.138	20959.42
464.343	21012.67
464.549	20277.45
464.754	21133.5
464.959	21084.35
465.165	20822.21
465.37	19826.9
465.575	19292.38
465.781	19978.45
465.986	20238.54
466.191	19241.18
466.397	19130.59
466.602	17946.86
466.807	19073.24
467.012	18747.62
467.218	18680.03
467.423	18587.88
467.628	18616.55
467.833	19417.3
468.038	18794.72
468.244	18188.52
468.449	18540.77
468.654	18409.7
468.859	17811.7
469.064	17918.19
469.269	17225.98
469.474	17287.42
469.679	17393.91
469.885	17211.64
470.09	17002.75
470.295	17154.3
470.5	16996.6
470.705	16855.29
470.91	16400.65
471.115	16314.63
471.32	16695.55
471.525	16773.38
471.73	16288.01
471.935	16232.71
472.139	15446.29
472.344	15943.95
472.549	15509.78
472.754	15517.97
472.959	15126.81
473.164	14760.22
473.369	14559.52
473.574	15190.3
473.778	14895.39
473.983	14993.69
474.188	14717.22
474.393	13895.98
474.598	14086.44
474.802	14035.24
475.007	14000.43
475.212	14053.67
475.417	13404.47
475.621	13338.93
475.826	13656.37
476.031	13287.73
476.235	12874.04
476.44	13449.52
476.645	13052.22
476.849	12943.67
477.054	12712.25
477.259	12601.66
477.463	12503.36
477.668	12314.95
477.872	12210.5
478.077	12323.14
478.282	11872.59
478.486	11897.16
478.691	11692.37
478.895	11786.57
479.1	11762
479.304	12003.66
479.509	11321.68
479.713	11661.65
479.918	11358.55
480.122	11250
480.326	11245.91
480.531	11215.19
480.735	11254.1
480.94	11170.13
481.144	11471.18
481.348	10744.16
481.553	10953.05
481.757	10916.19
481.961	10862.94
482.166	11112.79
482.37	10914.14
482.574	10799.45
482.778	10635.61
482.983	11104.6
483.187	10828.12
483.391	10918.23
483.595	10652
483.8	10752.35
484.004	10600.8
484.208	10733.92
484.412	10805.6
484.616	10955.1
484.821	10850.65
485.025	10443.1
485.229	10826.07
485.433	10664.29
485.637	10766.68
485.841	10465.63
486.045	10553.69
486.249	10738.01
486.453	10639.71
486.657	10709.34
486.861	10547.55
487.065	10447.2
487.269	10543.46
487.473	10402.15
487.677	10516.83
487.881	10740.06
488.085	10486.11
488.289	10838.36
488.493	10658.14
488.697	10914.14
488.901	10860.89
489.105	10596.7
489.309	10774.88
489.512	10838.36
489.716	10672.48
489.92	10647.9
490.124	10744.16
490.328	11028.82
490.531	10660.19
490.735	10948.95
490.939	10676.57
491.143	10989.91
491.346	10889.56
491.55	10889.56
491.754	11008.34
491.958	10819.93
492.161	11061.59
492.365	11088.21
492.569	10848.6
492.772	11182.42
492.976	11213.14
493.18	11258.2
493.383	11389.27
493.587	11235.67
493.79	11315.54
493.994	11428.18
494.197	11489.62
494.401	11635.02
494.605	11678.03
494.808	11653.45
495.012	11659.6
495.215	11749.71
495.419	12038.47
495.622	11735.37
495.825	12071.24
496.029	11862.35
496.232	12110.15
496.436	12058.95
496.639	12519.74
496.843	12423.49
497.046	12792.12
497.249	12792.12
497.453	12919.1
497.656	13105.46
497.859	12953.91
498.063	12953.91
498.266	13224.25
498.469	13361.46
498.673	13445.43
498.876	13617.46
499.079	13545.78
499.282	13617.46
499.485	14154.02
499.689	14063.91
499.892	14170.41
500.095	14145.83
500.298	14709.02
500.501	14663.97
500.705	14887.2
500.908	15098.14
501.111	15157.53
501.314	15577.36
501.517	15378.71
501.72	15446.29
501.923	15382.81
502.126	16120.07
502.329	16152.84
502.532	16347.4
502.735	16263.43
502.938	16632.07
503.141	16490.76
503.344	16808.19
503.547	17111.29
503.75	17193.21
503.953	17549.56
504.156	17608.95
504.359	17731.83
504.562	17615.09
504.765	18108.65
504.968	18071.79
505.17	18532.58
505.373	18571.49
505.576	18837.73
505.779	19071.2
505.982	18882.78
506.185	19538.13
506.387	19415.26
506.59	19742.93
506.793	19990.73
506.996	19865.81
507.198	20429
507.401	20230.35
507.604	20416.71
507.807	21029.06
508.009	21299.39
508.212	21573.81
508.415	21643.45
508.617	21870.77
508.82	21680.31
509.022	21745.84
509.225	22325.42
509.428	22565.03
509.63	22694.05
509.833	22661.29
510.035	23443.61
510.238	23001.25
510.44	23355.55
510.643	23783.57
510.845	23931.03
511.048	23830.68
511.25	24475.79
511.453	24340.62
511.655	25524.35
511.858	25086.08
512.06	25565.31
512.262	25520.25
512.465	25663.61
512.667	26091.63
512.87	26269.81
513.072	26275.95
513.274	26581.1
513.477	26525.8
513.679	27068.51
513.881	27611.23
514.084	27629.66
514.286	27641.95
514.488	28115.03
514.69	28563.53
514.893	28454.99
515.095	28567.63
515.297	29405.25
515.499	29012.04
515.701	29343.81
515.904	29792.31
516.106	30007.35
516.308	30148.66
516.51	30804.01
516.712	30564.4
516.914	30593.07
517.116	31195.17
517.318	31275.04
517.52	31686.68
517.722	31668.25
517.925	32167.96
518.127	32497.68
518.329	32141.33
518.531	32661.52
518.733	33327.11
518.935	33228.8
519.136	33323.01
519.338	33849.34
519.54	33296.39
519.742	34213.88
519.944	34461.68
520.146	34682.86
520.348	34619.38
520.55	35053.55
520.752	35074.02
520.954	35471.33
521.155	34961.39
521.357	36018.14
521.559	35907.55
521.761	36511.7
521.963	36323.29
522.164	36331.48
522.366	36741.07
522.568	37048.27
522.77	37148.62
522.971	37369.8
523.173	37203.91
523.375	37255.11
523.576	37576.64
523.778	37849.02
523.98	37795.78
524.181	38223.8
524.383	37916.61
524.584	38518.71
524.786	38152.12
524.988	38074.3
525.189	38662.07
525.391	38746.03
525.592	38942.64
525.794	39006.12
525.995	38965.17
526.197	39088.04
526.398	39264.17
526.6	39255.98
526.801	39157.67
527.003	39163.82
527.204	39292.84
527.406	39522.21
527.607	39282.6
527.808	39626.66
528.01	39430.05
528.211	39145.39
528.412	40689.56
528.614	39972.77
528.815	39813.02
529.016	40492.95
529.218	39870.37
529.419	40112.03
529.62	39954.33
529.822	39839.65
530.023	40040.35
530.224	40122.27
530.425	39903.14
530.626	39557.03
530.828	39616.42
531.029	40353.69
531.23	40011.68
531.431	39641
531.632	39978.91
531.833	40146.84
532.035	39399.33
532.236	39634.85
532.437	39802.78
532.638	39192.49
532.839	39841.7
533.04	39638.95
533.241	39428.01
533.442	39888.8
533.643	39323.56
533.844	39452.58
534.045	39536.55
534.246	39020.46
534.447	39557.03
534.648	39047.08
534.849	39407.53
535.05	39120.81
535.251	39020.46
535.451	38844.34
535.652	39567.27
535.853	38551.48
536.054	39096.24
536.255	39262.12
536.456	38764.46
536.657	39276.46
536.857	39042.99
537.058	38555.57
537.259	38821.81
537.46	39174.06
537.66	38934.45
537.861	39018.41
538.062	38696.88
538.263	38844.34
538.463	38821.81
538.664	38985.65
538.865	38868.91
539.065	38715.31
539.266	38483.89
539.466	38985.65
539.667	37982.14
539.868	38815.66
540.068	38457.27
540.269	38176.7
540.469	38369.21
540.67	38164.41
540.87	38434.74
541.071	38295.48
541.271	38434.74
541.472	37967.8
541.672	37976
541.873	38025.15
542.073	37713.86
542.274	38334.39
542.474	37976
542.675	37564.35
542.875	38328.25
543.075	37840.83
543.276	37633.99
543.476	38096.83
543.676	37867.45
543.877	37969.85
544.077	38197.18
544.277	37916.61
544.478	37910.46
544.678	37914.56
544.878	37892.03
545.078	37527.49
545.279	38031.29
545.479	37789.63
545.679	37976
545.879	37711.81
546.079	38010.81
546.28	37631.94
546.48	37617.6
546.68	38145.98
546.88	37814.21
547.08	37838.78
547.28	37535.68
547.48	37248.97
547.68	37957.56
547.88	37408.71
548.081	37664.71
548.281	37523.4
548.481	37937.09
548.681	37705.66
548.881	37769.15
549.081	37738.43
549.28	37783.49
549.48	38043.58
549.68	37738.43
549.88	38303.67
550.08	37957.56
550.28	38021.05
550.48	37674.95
550.68	38385.59
550.88	37750.72
551.08	37812.16
551.279	38068.16
551.479	37801.92
551.679	37787.58
551.879	37994.43
552.079	37859.26
552.278	37470.15
552.478	37965.76
552.678	37955.52
552.878	38475.7
553.077	37785.54
553.277	38049.72
553.477	38207.42
553.676	38051.77
553.876	38086.59
554.076	37992.38
554.275	37720
554.475	37421
554.674	37806.02
554.874	38092.73
555.074	37941.18
555.273	38045.63
555.473	38154.17
555.672	37820.35
555.872	38082.49
556.071	38242.23
556.271	38412.21
556.47	38256.57
556.67	37922.75
556.869	38113.21
557.068	38385.59
557.268	38193.08
557.467	38621.11
557.667	38227.9
557.866	37894.08
558.065	38301.62
558.265	38088.63
558.464	38240.18
558.663	38166.46
558.863	38215.61
559.062	38873.01
559.261	38156.22
559.461	38793.14
559.66	38084.54
559.859	38094.78
560.058	38008.76
560.258	38006.72
560.457	37951.42
560.656	38303.67
560.855	38084.54
561.054	38389.69
561.253	37644.23
561.453	38287.29
561.652	38289.34
561.851	38434.74
562.05	38610.87
562.249	37867.45
562.448	38508.47
562.647	38193.08
562.846	38188.99
563.045	38121.4
563.244	38072.25
563.443	38121.4
563.642	37822.4
563.841	37910.46
564.04	37883.84
564.239	38551.48
564.438	37855.17
564.637	38367.16
564.836	38119.35
565.035	37656.51
565.234	37803.97
565.432	37703.62
565.631	37808.06
565.83	38010.81
566.029	37590.98
566.228	37769.15
566.427	37267.4
566.625	37523.4
566.824	37226.44
567.023	37631.94
567.222	36579.28
567.42	37294.02
567.619	37246.92
567.818	37265.35
568.016	37099.47
568.215	37593.03
568.414	36999.12
568.612	37283.78
568.811	36331.48
569.01	36796.37
569.208	36501.46
569.407	37015.5
569.605	36429.78
569.804	36962.25
570.002	36208.6
570.201	36673.49
570.4	35983.32
570.598	36028.38
570.797	36288.47
570.995	36124.63
571.193	35672.03
571.392	35745.76
571.59	35534.82
571.789	35792.86
571.987	35733.47
572.186	35399.65
572.384	35276.77
572.582	35545.06
572.781	35524.58
572.979	34809.84
573.177	35407.84
573.376	35385.32
573.574	35241.96
573.772	35280.87
573.971	34781.17
574.169	34758.64
574.367	34422.77
574.565	34951.15
574.763	34357.24
574.962	34498.55
575.16	34033.66
575.358	34123.77
575.556	34041.85
575.754	34598.9
575.952	33916.92
576.151	34064.38
576.349	33583.1
576.547	33589.25
576.745	33966.07
576.943	33912.83
577.141	33642.49
577.339	33570.82
577.537	33267.72
577.735	33533.95
577.933	32825.36
578.131	33304.58
578.329	32991.24
578.527	32516.11
578.725	32712.72
578.923	32651.28
579.121	32735.24
579.319	32800.78
579.516	32430.1
579.714	32380.95
579.912	32426
580.11	32346.13
580.308	32354.32
580.506	32268.31
580.704	31993.88
580.901	32026.65
581.099	32112.66
581.297	31678.49
581.495	31588.38
581.692	31625.25
581.89	31563.81
582.088	31711.26
582.285	31424.54
582.483	31391.78
582.681	31246.37
582.878	30978.09
583.076	30664.75
583.274	31060.01
583.471	30664.75
583.669	31213.6
583.866	30564.4
584.064	30930.98
584.262	30390.32
584.459	30773.29
584.657	30916.65
584.854	30562.35
585.052	30224.43
585.249	30693.42
585.447	30562.35
585.644	30203.96
585.841	29878.33
586.039	30066.74
586.236	29874.23
586.434	29984.82
586.631	29599.8
586.828	29792.31
587.026	29929.53
587.223	29628.48
587.42	29657.15
587.618	29687.87
587.815	29546.56
588.012	29413.44
588.21	29214.79
588.407	29435.97
588.604	29214.79
588.801	29139.01
588.999	29073.48
589.196	28946.5
589.393	28807.24
589.59	28917.83
589.787	28715.08
589.984	28633.16
590.182	28541
590.379	28739.66
590.576	28356.69
590.773	28565.58
590.97	28637.26
591.167	28422.22
591.364	27842.65
591.561	28184.66
591.758	28139.6
591.955	28004.44
592.152	28444.75
592.349	27877.46
592.546	28225.62
592.743	28149.84
592.94	27431.01
593.137	27967.57
593.334	27773.02
593.531	27482.2
593.727	27797.59
593.924	27840.6
594.121	27658.33
594.318	27807.83
594.515	27594.84
594.712	28035.16
594.908	27367.52
595.105	27588.7
595.302	27314.27
595.499	27459.68
595.696	27127.91
595.892	27109.47
596.089	27459.68
596.286	27469.92
596.482	27521.12
596.679	27240.54
596.876	27500.64
597.072	27269.22
597.269	27320.42
597.466	27140.19
597.662	27164.77
597.859	27236.45
598.055	26929.25
598.252	27000.93
598.448	27084.9
598.645	27050.08
598.841	27009.12
599.038	27076.71
599.234	27011.17
599.431	27142.24
599.627	26722.41
599.824	26708.07
600.02	26902.63
600.217	27263.07
600.413	26886.25
600.609	26904.68
600.806	26509.42
601.002	27086.95
601.198	27017.32
601.395	26699.88
601.591	26759.27
601.787	26847.33
601.984	26751.08
602.18	27082.85
602.376	26732.65
602.572	26755.18
602.769	26992.74
602.965	26415.21
603.161	26941.54
603.357	26278
603.553	26744.94
603.75	26968.16
603.946	27017.32
604.142	27021.41
604.338	26845.29
604.534	26951.78
604.73	26830.95
604.926	26863.72
605.122	26826.85
605.318	26996.84
605.514	26814.57
605.71	26796.14
605.906	26867.81
606.102	26787.94
606.298	27000.93
606.494	27015.27
606.69	27197.54
606.886	27140.19
607.082	27021.41
607.278	27058.28
607.474	26910.82
607.67	27250.78
607.866	27039.84
608.062	27474.01
608.257	27285.6
608.453	26992.74
608.649	27230.3
608.845	27093.09
609.041	27177.06
609.236	27349.09
609.432	27371.61
609.628	27369.57
609.824	27375.71
610.019	27304.03
610.215	27494.49
610.411	27512.92
610.606	27408.48
610.802	27371.61
610.998	27836.5
611.193	27625.56
611.389	27242.59
611.584	27215.97
611.78	27560.03
611.976	27832.41
612.171	27535.45
612.367	27691.1
612.562	27619.42
612.758	27101.28
612.953	27308.13
613.149	27799.64
613.344	27482.2
613.539	28082.26
613.735	27529.31
613.93	27719.77
614.126	27816.02
614.321	27482.2
614.517	27910.23
614.712	27586.65
614.907	27385.95
615.103	27816.02
615.298	27600.99
615.493	27752.54
615.688	27527.26
615.884	28198.99
616.079	27492.44
616.274	27740.25
616.47	27715.67
616.665	27682.91
616.86	27363.42
617.055	27418.72
617.25	27349.09
617.445	27793.5
617.641	27322.46
617.836	27838.55
618.031	27324.51
618.226	27398.24
618.421	27244.64
618.616	27770.97
618.811	27082.85
619.006	27308.13
619.201	27031.65
619.396	27562.08
619.591	26787.94
619.786	27005.03
619.981	26660.97
620.176	27009.12
620.371	26615.91
620.566	26945.64
620.761	26429.55
620.956	26656.87
621.151	26515.56
621.346	26566.76
621.541	26163.31
621.735	26292.33
621.93	25759.86
622.125	26056.82
622.32	25593.98
622.515	25849.97
622.709	25514.11
622.904	25622.65
623.099	25526.39
623.294	25612.41
623.488	25272.45
623.683	25512.06
623.878	24955.01
624.072	25010.31
624.267	25208.96
624.462	24782.98
624.656	24858.76
624.851	24619.14
625.046	24537.23
625.24	24461.45
625.435	24035.47
625.629	24346.76
625.824	24035.47
626.018	24012.95
626.213	23722.13
626.407	24078.48
626.602	23308.44
626.796	23789.72
626.991	23601.3
627.185	23160.99
627.38	23201.95
627.574	23230.62
627.768	22800.55
627.963	22569.13
628.157	22638.76
628.352	22898.85
628.546	22393
628.74	22765.73
628.935	22444.2
629.129	22163.63
629.323	22069.42
629.517	21924.02
629.712	21766.32
629.906	21711.03
630.1	21528.76
630.294	21729.46
630.489	21678.26
630.683	21477.56
630.877	21295.29
631.071	21067.97
631.265	21424.31
631.459	21051.58
631.653	21070.01
631.848	20641.99
632.042	20955.33
632.236	20693.19
632.43	20596.93
632.624	20523.21
632.818	20256.97
633.012	20103.37
633.206	20084.94
633.4	20168.91
633.594	19511.51
633.788	20132.04
633.982	19787.99
634.176	19880.14
634.369	19493.08
634.563	19433.69
634.757	19321.05
634.951	19312.86
635.145	19290.33
635.339	19187.93
635.533	19116.25
635.726	18925.79
635.92	18645.22
636.114	18634.98
636.308	18344.17
636.501	18624.74
636.695	18540.77
636.889	18202.86
637.083	17959.15
637.276	18116.84
637.47	17983.73
637.664	17811.7
637.857	17862.9
638.051	17977.58
638.244	17529.08
638.438	17410.29
638.632	17516.79
638.825	16900.35
639.019	17176.83
639.212	16879.87
639.406	16984.32
639.599	16910.59
639.793	16840.96
639.986	16787.71
640.18	16591.11
640.373	16730.37
640.567	16337.16
640.76	16670.98
640.954	16050.44
641.147	16163.08
641.34	16079.11
641.534	16042.25
641.727	16226.57
641.92	15931.66
642.114	15851.79
642.307	15704.34
642.5	15411.48
642.694	15438.1
642.887	15223.06
643.08	15585.55
643.273	15284.5
643.467	15200.54
643.66	14981.4
643.853	14913.82
644.046	14897.44
644.239	14608.67
644.432	14623.01
644.626	14602.53
644.819	14387.49
645.012	14491.94
645.205	14534.95
645.398	14190.89
645.591	14217.51
645.784	14264.61
645.977	14022.95
646.17	13996.33
646.363	13918.51
646.556	13711.66
646.749	13691.18
646.942	13517.11
647.135	13607.22
647.328	13588.78
647.521	13375.8
647.714	13283.64
647.907	13470
648.099	13222.2
648.292	13127.99
648.485	12953.91
648.678	12734.78
648.871	12865.85
649.064	12839.23
649.256	12898.62
649.449	12704.06
649.642	12519.74
649.835	12474.69
650.027	12341.57
650.22	12394.82
650.413	12269.89
650.605	12390.72
650.798	12175.69
650.991	12095.82
651.183	12245.32
651.376	11993.42
651.568	11880.78
651.761	11823.44
651.954	11712.85
652.146	11655.5
652.339	11659.6
652.531	11733.32
652.724	11571.54
652.916	11217.24
653.109	11295.06
653.301	11264.34
653.494	11311.44
653.686	10907.99
653.879	11325.78
654.071	11045.21
654.263	11069.78
654.456	11170.13
654.648	10834.27
654.84	10989.91
655.033	10815.83
655.225	10918.23
655.417	10590.56
655.61	10611.04
655.802	10668.38
655.994	10471.78
656.186	10541.41
656.379	10422.62
656.571	10185.06
656.763	10170.72
656.955	10183.01
657.148	10080.61
657.34	10092.9
657.532	10129.77
657.724	9972.07
657.916	10004.84
658.108	10043.75
658.3	10010.98
658.492	9861.48
658.684	9797.99
658.876	9957.74
659.068	9511.28
659.26	9570.67
659.452	9632.11
659.644	9513.33
659.836	9482.61
660.028	9486.7
660.22	9195.89
660.412	9269.62
660.604	9247.09
660.796	9021.81
660.988	9218.42
661.18	9079.16
661.372	8892.79
661.563	8954.23
661.755	9007.48
661.947	8808.83
662.139	8767.87
662.331	8821.11
662.522	8829.31
662.714	8608.12
662.906	8522.11
663.097	8616.32
663.289	8501.63
663.481	8432
663.673	8350.08
663.864	8323.46
664.056	8323.46
664.247	8481.15
664.439	8130.95
664.631	8104.32
664.822	8114.56
665.014	8143.24
665.205	7995.78
665.397	7932.29
665.588	8112.52
665.78	7928.2
665.971	7707.02
666.163	8020.36
666.354	7909.77
666.546	7864.71
666.737	7692.68
666.929	7727.5
667.12	7623.05
667.311	7612.81
667.503	7596.43
667.694	7670.15
667.885	7534.99
668.077	7555.47
668.268	7395.73
668.459	7350.67
668.651	7260.56
668.842	7297.42
669.033	7276.94
669.224	7319.95
669.416	7272.85
669.607	7252.37
669.798	7170.45
669.989	7244.18
670.18	7174.55
670.371	7051.67
670.563	7096.72
670.754	7023
670.945	6943.13
671.136	6984.09
671.327	6875.54
671.518	6883.73
671.709	6769.05
671.9	6773.14
672.091	6922.65
672.282	6863.26
672.473	6699.42
672.664	6877.59
672.855	6752.66
673.046	6709.66
673.237	6621.59
673.428	6637.98
673.619	6621.59
673.809	6459.81
674	6642.07
674.191	6646.17
674.382	6402.46
674.573	6478.24
674.764	6386.08
674.954	6584.73
675.145	6402.46
675.336	6396.32
675.527	6461.85
675.717	6433.18
675.908	6351.26
676.099	6523.29
676.289	6293.92
676.48	6168.99
676.671	6154.66
676.861	6285.73
677.052	6068.64
677.243	6134.18
677.433	6203.81
677.624	6330.78
677.814	6212
678.005	6295.97
678.195	6257.06
678.386	6121.89
678.576	6105.51
678.767	6191.52
678.957	6123.94
679.148	6001.06
679.338	6130.08
679.529	6123.94
679.719	5982.63
679.909	6052.26
680.1	5968.29
680.29	5970.34
680.481	5894.57
680.671	6054.31
680.861	6048.16
681.052	5970.34
681.242	5943.72
681.432	5941.67
681.622	6003.11
681.813	5837.22
682.003	5953.96
682.193	5829.03
682.383	5951.91
682.573	6099.36
682.764	6025.64
682.954	5855.65
683.144	5958.05
683.334	5794.22
683.524	5917.09
683.714	5843.37
683.904	5695.91
684.094	5896.61
684.284	5859.75
684.474	5888.42
684.664	5736.87
684.854	5949.86
685.044	5597.61
685.234	5706.15
685.424	5722.54
685.614	5714.34
685.804	5743.02
685.994	5697.96
686.184	5749.16
686.374	5683.63
686.564	5687.72
686.753	5730.73
686.943	5558.7
687.133	5634.47
687.323	5679.53
687.513	5503.4
687.702	5544.36
687.892	5474.73
688.082	5452.2
688.272	5509.55
688.461	5468.59
688.651	5687.72
688.841	5394.86
689.03	5466.54
689.22	5265.84
689.41	5419.44
689.599	5388.72
689.789	5499.31
689.979	5314.99
690.168	5335.47
690.358	5321.13
690.547	5271.98
690.737	5220.78
690.926	5099.95
691.116	5149.11
691.305	5263.79
691.495	5224.88
691.684	5171.63
691.874	5192.11
692.063	5216.69
692.252	5171.63
692.442	4966.84
692.631	5097.91
692.82	5249.46
693.01	5097.91
693.199	5036.47
693.388	5020.08
693.578	4905.4
693.767	5054.9
693.956	5034.42
694.146	5030.32
694.335	4966.84
694.524	4866.49
694.713	5054.9
694.902	4882.87
695.092	4985.27
695.281	4899.25
695.47	5028.28
695.659	4905.4
695.848	4852.15
696.037	4729.27
696.226	4905.4
696.415	4725.18
696.604	4866.49
696.793	4684.22
696.982	4917.68
697.171	4829.62
697.36	4757.94
697.549	4639.16
697.738	4764.09
697.927	4630.97
698.116	4725.18
698.305	4708.79
698.494	4878.77
698.683	4731.32
698.872	4704.7
699.061	4563.39
699.25	4762.04
699.438	4594.11
699.627	4592.06
699.816	4604.35
700.005	4610.49
700.193	4633.02
700.382	4590.01
700.571	4604.35
700.76	4542.91
700.948	4524.47
701.137	4618.68
701.326	4493.76
701.514	4446.65
701.703	4403.64
701.892	4483.52
702.08	4512.19
702.269	4284.86
702.457	4344.25
702.646	4422.08
702.834	4286.91
703.023	4360.64
703.212	4471.23
703.4	4368.83
703.589	4270.53
703.777	4311.49
703.965	4319.68
704.154	4262.33
704.342	4278.72
704.531	4233.66
704.719	4164.03
704.907	4336.06
705.096	4200.9
705.284	4084.16
705.472	4116.93
705.661	4204.99
705.849	4182.46
706.037	4213.18
706.226	4061.63
706.414	4172.22
706.602	4084.16
706.79	4219.33
706.979	4286.91
707.167	4041.15
707.355	4123.07
707.543	4063.68
707.731	4174.27
707.919	4049.35
708.107	3983.81
708.296	3865.03
708.484	4131.26
708.672	3973.57
708.86	3944.9
709.048	3940.8
709.236	3967.43
709.424	4032.96
709.612	3756.49
709.8	3908.04
709.988	3758.53
710.176	3920.32
710.364	3875.27
710.551	3822.02
710.739	3938.76
710.927	3838.41
711.115	3819.97
711.303	3797.45
711.491	3905.99
711.679	3879.36
711.866	3862.98
712.054	3758.53
712.242	3658.18
712.43	3803.59
712.617	3781.06
712.805	3672.52
712.993	3672.52
713.181	3643.85
713.368	3695.05
713.556	3688.9
713.744	3619.27
713.931	3746.25
714.119	3602.89
714.306	3492.3
714.494	3570.12
714.682	3572.17
714.869	3426.76
715.057	3574.22
715.244	3496.39
715.432	3576.27
715.619	3404.24
715.807	3477.96
715.994	3500.49
716.182	3537.35
716.369	3494.35
716.556	3557.83
716.744	3473.87
716.931	3344.84
717.119	3508.68
717.306	3459.53
717.493	3455.44
717.681	3439.05
717.868	3404.24
718.055	3465.68
718.242	3408.33
718.43	3402.19
718.617	3379.66
718.804	3379.66
718.991	3355.08
719.179	3482.06
719.366	3297.74
719.553	3336.65
719.74	3205.58
719.927	3236.3
720.114	3256.78
720.301	3072.47
720.488	3322.32
720.676	3361.23
720.863	3254.73
721.05	3336.65
721.237	3213.77
721.424	3303.89
721.611	3199.44
721.798	3064.27
721.985	3064.27
722.172	3013.07
722.358	3140.05
722.545	3107.28
722.732	3090.9
722.919	3094.99
723.106	3076.56
723.293	3150.29
723.48	3117.52
723.667	3156.43
723.853	3017.17
724.04	3094.99
724.227	3238.35
724.414	3140.05
724.6	3033.55
724.787	3076.56
724.974	3004.88
725.161	3011.03
725.347	3013.07
725.534	3033.55
725.72	3000.79
725.907	3078.61
726.094	3074.51
726.28	2943.44
726.467	2808.28
726.653	2970.07
726.84	2892.24
727.027	2910.68
727.213	2945.49
727.4	2894.29
727.586	2953.68
727.773	2814.42
727.959	2927.06
728.145	2869.72
728.332	2908.63
728.518	2736.6
728.705	2896.34
728.891	2845.14
729.077	2812.37
729.264	2841.04
729.45	2836.95
729.636	2845.14
729.823	2929.11
730.009	2755.03
730.195	2886.1
730.382	2839
730.568	2765.27
730.754	2814.42
730.94	2722.26
731.126	2689.49
731.313	2765.27
731.499	2748.89
731.685	2779.61
731.871	2689.49
732.057	2679.26
732.243	2812.37
732.429	2720.21
732.615	2814.42
732.801	2849.24
732.987	2671.06
733.173	2666.97
733.359	2742.74
733.545	2673.11
733.731	2703.83
733.917	2748.89
734.103	2763.22
734.289	2707.93
734.475	2513.37
734.661	2742.74
734.847	2697.69
735.033	2593.24
735.219	2724.31
735.404	2542.04
735.59	2587.1
735.776	2529.75
735.962	2572.76
736.148	2623.96
736.333	2619.86
736.519	2447.83
736.705	2484.7
736.89	2439.64
737.076	2642.39
737.262	2380.25
737.447	2476.51
737.633	2468.31
737.819	2464.22
738.004	2640.34
738.19	2460.12
738.375	2302.43
738.561	2615.77
738.747	2525.66
738.932	2355.68
739.118	2568.66
739.303	2544.09
739.489	2496.99
739.674	2451.93
739.859	2329.05
740.045	2550.23
740.23	2435.55
740.416	2271.71
740.601	2345.44
740.786	2374.11
740.972	2281.95
741.157	2329.05
741.342	2208.22
741.528	2349.53
741.713	2261.47
741.898	2263.52
742.084	2339.29
742.269	2304.48
742.454	2273.76
742.639	2310.62
742.824	2300.38
743.01	2288.09
743.195	2337.24
743.38	2157.02
743.565	2216.41
743.75	2265.57
743.935	2230.75
744.12	2240.99
744.305	2177.5
744.49	2167.26
744.675	2126.3
744.86	2093.54
745.045	2109.92
745.23	2142.69
745.415	2101.73
745.6	2126.3
745.785	2118.11
745.97	2136.54
746.155	2124.26
746.34	2159.07
746.525	1946.08
746.71	2144.74
746.895	2048.48
747.079	2036.19
747.264	2028
747.449	2044.38
747.634	1964.51
747.819	1993.19
748.003	1903.07
748.188	1960.42
748.373	1931.75
748.557	1825.25
748.742	1937.89
748.927	1827.3
749.111	1989.09
749.296	1927.65
749.481	1888.74
749.665	1806.82
749.85	1858.02
750.034	1921.51
750.219	1872.36
750.404	1700.33
750.588	1821.16
750.773	1786.34
750.957	1772
751.141	1735.14
751.326	1780.2
751.51	1599.98
751.695	1661.41
751.879	1716.71
752.064	1679.85
752.248	1642.98
752.432	1685.99
752.617	1636.84
752.801	1632.74
752.985	1575.4
753.17	1706.47
753.354	1616.36
753.538	1626.6
753.722	1554.92
753.907	1559.02
754.091	1536.49
754.275	1542.63
754.459	1405.42
754.643	1516.01
754.828	1483.24
755.012	1475.05
755.196	1544.68
755.38	1460.71
755.564	1395.18
755.748	1468.91
755.932	1481.19
756.116	1534.44
756.3	1466.86
756.484	1346.03
756.668	1391.08
756.852	1429.99
757.036	1386.99
757.22	1364.46
757.404	1303.02
757.588	1448.43
757.772	1370.6
757.956	1268.2
758.14	1370.6
758.323	1247.72
758.507	1311.21
758.691	1358.32
758.875	1411.56
759.059	1386.99
759.242	1206.77
759.426	1284.59
759.61	1294.83
759.794	1325.55
759.977	1249.77
760.161	1331.69
760.345	1315.31
760.528	1214.96
760.712	1239.53
760.895	1208.81
761.079	1317.36
761.263	1194.48
761.446	1067.5
761.63	1239.53
761.813	1208.81
761.997	1178.09
762.18	1079.79
762.364	1233.39
762.547	1141.23
762.731	1182.19
762.914	1208.81
763.098	1124.85
763.281	1106.42
763.464	1112.56
763.648	1124.85
763.831	1145.33
764.015	1036.78
764.198	1090.03
764.381	1090.03
764.564	1161.71
764.748	1225.2
764.931	1077.74
765.114	1104.37
765.297	1120.75
765.481	1071.6
765.664	1090.03
765.847	1042.93
766.03	1008.11
766.213	1018.35
766.397	995.82
766.58	1034.74
766.763	1047.02
766.946	1001.97
767.129	1018.35
767.312	1042.93
767.495	1036.78
767.678	989.68
767.861	1004.02
768.044	958.96
768.227	1004.02
768.41	922.1
768.593	928.24
768.776	971.25
768.959	889.33
769.142	1008.11
769.324	967.15
769.507	956.91
769.69	987.63
769.873	975.35
770.056	944.63
770.239	1010.16
770.421	946.67
770.604	874.99
770.787	918
770.97	965.11
771.152	944.63
771.335	856.56
771.518	870.9
771.7	989.68
771.883	1030.64
772.066	899.57
772.248	915.95
772.431	913.91
772.613	911.86
772.796	905.71
772.978	985.58
773.161	821.75
773.343	907.76
773.526	836.08
773.708	821.75
773.891	858.61
774.073	874.99
774.256	846.32
774.438	838.13
774.621	780.79
774.803	823.8
774.985	877.04
775.168	823.8
775.35	756.21
775.532	748.02
775.715	766.45
775.897	748.02
776.079	840.18
776.261	752.12
776.444	788.98
776.626	782.84
776.808	819.7
776.99	725.49
777.173	739.83
777.355	713.21
777.537	793.08
777.719	715.25
777.901	668.15
778.083	797.17
778.265	690.68
778.447	807.41
778.629	717.3
778.811	735.73
778.993	743.92
779.175	723.44
779.357	602.61
779.539	750.07
779.721	707.06
779.903	717.3
780.085	647.67
780.267	676.34
780.449	655.86
780.631	715.25
780.812	690.68
780.994	717.3
781.176	629.24
781.358	575.99
781.54	653.81
781.721	598.52
781.903	633.33
782.085	616.95
782.267	653.81
782.448	543.22
782.63	596.47
782.812	600.57
782.993	535.03
783.175	543.22
783.357	545.27
783.538	575.99
783.72	545.27
783.901	498.17
784.083	571.9
784.264	485.88
784.446	553.46
784.627	528.89
784.809	621.05
784.99	543.22
785.172	471.54
785.353	522.74
785.535	494.07
785.716	502.26
785.897	512.5
786.079	528.89
786.26	469.5
786.441	502.26
786.623	424.44
786.804	473.59
786.985	498.17
787.167	549.37
787.348	477.69
787.529	420.35
787.71	559.61
787.891	483.83
788.073	471.54
788.254	426.49
788.435	545.27
788.616	444.92
788.797	363
788.978	481.78
789.159	469.5
789.34	369.15
789.522	375.29
789.703	399.87
789.884	469.5
790.065	440.83
790.246	430.59
790.427	373.24
790.607	485.88
790.788	414.2
790.969	399.87
791.15	428.54
791.331	274.94
791.512	383.48
791.693	381.43
791.874	330.23
792.054	432.63
792.235	406.01
792.416	285.18
792.597	342.52
792.778	389.63
792.958	391.67
793.139	408.06
793.32	379.39
793.5	330.23
793.681	395.77
793.862	379.39
794.042	330.23
794.223	297.47
794.404	365.05
794.584	258.56
794.765	332.28
794.945	272.89
795.126	391.67
795.306	348.67
795.487	317.95
795.667	322.04
795.848	414.2
796.028	301.56
796.209	365.05
796.389	336.38
796.57	356.86
796.75	252.41
796.93	264.7
797.111	356.86
797.291	338.43
797.471	301.56
797.652	379.39
797.832	256.51
798.012	272.89
798.192	309.76
798.373	320
798.553	276.99
798.733	256.51
798.913	252.41
799.093	293.37
799.274	324.09
799.454	297.47
799.634	365.05
799.814	211.45
799.994	322.04
800.174	317.95
800.354	203.26
800.534	240.12
800.714	229.88
800.894	211.45
801.074	236.03
801.254	264.7
801.434	315.9
801.614	240.12
801.794	205.31
801.974	1042.93
802.154	330.23
802.334	227.84
802.514	168.45
802.693	209.4
802.873	190.97
803.053	336.38
803.233	219.64
803.413	313.85
803.592	272.89
803.772	209.4
803.952	293.37
804.131	215.55
804.311	233.98
804.491	225.79
804.67	168.45
804.85	291.32
805.03	272.89
805.209	260.6
805.389	244.22
805.568	242.17
805.748	248.32
805.928	274.94
806.107	236.03
806.287	195.07
806.466	207.36
806.646	182.78
806.825	236.03
807.004	170.49
807.184	225.79
807.363	283.13
807.543	176.64
807.722	170.49
807.901	217.6
808.081	209.4
808.26	152.06
808.439	160.25
808.619	160.25
808.798	219.64
808.977	182.78
809.156	250.36
809.336	203.26
809.515	236.03
809.694	154.11
809.873	174.59
810.052	180.73
810.231	242.17
810.411	152.06
810.59	186.88
810.769	190.97
810.948	209.4
811.127	117.25
811.306	207.36
811.485	201.21
811.664	186.88
811.843	203.26
812.022	205.31
812.201	170.49
812.38	274.94
812.559	166.4
812.737	184.83
812.916	78.33
813.095	109.05
813.274	174.59
813.453	133.63
813.632	170.49
813.811	219.64
813.989	158.21
814.168	190.97
814.347	166.4
814.526	129.53
814.704	193.02
814.883	215.55
815.062	199.16
815.24	242.17
815.419	139.77
815.598	182.78
815.776	109.05
815.955	233.98
816.133	135.68
816.312	223.74
816.49	115.2
816.669	182.78
816.847	145.92
817.026	84.48
817.204	195.07
817.383	123.39
817.561	195.07
817.74	205.31
817.918	150.01
818.097	53.76
818.275	119.29
818.453	166.4
818.632	193.02
818.81	174.59
818.988	135.68
819.167	88.57
819.345	121.34
819.523	174.59
819.701	190.97
819.879	117.25
820.058	115.2
820.236	113.15
820.414	172.54
820.592	98.81
820.77	96.77
820.948	190.97
821.127	100.86
821.305	168.45
821.483	66.05
821.661	133.63
821.839	158.21
822.017	111.1
822.195	162.3
822.373	174.59
822.551	123.39
822.729	141.82
822.907	143.87
823.085	184.83
823.262	158.21
823.44	102.91
823.618	111.1
823.796	170.49
823.974	80.38
824.152	70.14
824.329	168.45
824.507	125.44
824.685	156.16
824.863	96.77
825.04	133.63
825.218	96.77
825.396	180.73
825.574	55.81
825.751	47.62
825.929	150.01
826.107	107.01
826.284	47.62
826.462	115.2
826.639	133.63
826.817	84.48
826.994	137.73
827.172	70.14
827.349	178.69
827.527	129.53
827.704	121.34
827.882	104.96
828.059	141.82
828.237	117.25
828.414	125.44
828.591	-1.54
828.769	68.09
828.946	43.52
829.124	129.53
829.301	166.4
829.478	143.87
829.655	86.53
829.833	51.71
830.01	82.43
830.187	117.25
830.364	137.73
830.542	92.67
830.719	205.31
830.896	170.49
831.073	84.48
831.25	10.75
831.427	64
831.604	111.1
831.782	125.44
831.959	141.82
832.136	57.86
832.313	96.77
832.49	68.09
832.667	109.05
832.844	76.29
833.021	190.97
833.198	104.96
833.374	127.49
833.551	55.81
833.728	94.72
833.905	143.87
834.082	72.19
834.259	111.1
834.436	102.91
834.612	51.71
834.789	29.18
834.966	39.42
835.143	39.42
835.319	49.66
835.496	127.49
835.673	61.95
835.85	150.01
836.026	100.86
836.203	119.29
836.38	115.2
836.556	53.76
836.733	55.81
836.909	117.25
837.086	45.57
837.262	27.14
837.439	96.77
837.616	45.57
837.792	98.81
837.968	76.29
838.145	27.14
838.321	76.29
838.498	59.9
838.674	45.57
838.851	86.53
839.027	82.43
839.203	90.62
839.38	125.44
839.556	84.48
839.732	109.05
839.909	43.52
840.085	92.67
840.261	55.81
840.437	92.67
840.614	20.99
840.79	152.06
840.966	64
841.142	98.81
841.318	57.86
841.494	109.05
841.671	113.15
841.847	-28.16
842.023	-13.82
842.199	82.43
842.375	72.19
842.551	-1.54
842.727	76.29
842.903	29.18
843.079	-19.97
843.255	168.45
843.431	6.66
843.607	104.96
843.783	-19.97
843.959	16.9
844.134	72.19
844.31	100.86
844.486	-46.59
844.662	68.09
844.838	72.19
845.013	57.86
845.189	76.29
845.365	92.67
845.541	23.04
845.716	162.3
845.892	119.29
846.068	64
846.244	127.49
846.419	127.49
846.595	-5.63
846.77	-62.98
846.946	64
847.122	18.94
847.297	29.18
847.473	174.59
847.648	20.99
847.824	109.05
847.999	35.33
848.175	61.95
848.35	-40.45
848.526	59.9
848.701	-9.73
848.876	76.29
849.052	74.24
849.227	51.71
849.403	59.9
849.578	12.8
849.753	43.52
849.929	135.68
850.104	35.33
850.279	47.62
850.454	51.71
850.63	133.63
850.805	39.42
850.98	27.14
851.155	92.67
851.33	39.42
851.505	-5.63
851.681	80.38
851.856	-5.63
852.031	76.29
852.206	-1.54
852.381	29.18
852.556	4.61
852.731	47.62
852.906	102.91
853.081	39.42
853.256	76.29
853.431	6.66
853.606	2.56
853.781	76.29
853.956	-54.78
854.131	51.71
854.305	-11.78
854.48	80.38
854.655	-50.69
854.83	-79.36
855.005	37.38
855.18	35.33
855.354	0.51
855.529	100.86
855.704	64
855.879	18.94
856.053	-42.5
856.228	76.29
856.403	20.99
856.577	82.43
856.752	68.09
856.926	104.96
857.101	4.61
857.276	10.75
857.45	74.24
857.625	47.62
857.799	80.38
857.974	-22.02
858.148	55.81
858.323	43.52
858.497	29.18
858.672	43.52
858.846	-5.63
859.02	100.86
859.195	18.94
859.369	111.1
859.543	12.8
859.718	43.52
859.892	20.99
860.066	10.75
860.241	41.47
860.415	-62.98
860.589	10.75
860.763	12.8
860.938	59.9
861.112	39.42
861.286	59.9
861.46	14.85
861.634	55.81
861.808	29.18
861.982	-32.26
862.157	33.28
862.331	-5.63
862.505	-7.68
862.679	-69.12
862.853	8.7
863.027	27.14
863.201	127.49
863.375	-69.12
863.549	37.38
863.722	12.8
863.896	141.82
864.07	2.56
864.244	74.24
864.418	82.43
864.592	66.05
864.766	20.99
864.939	37.38
865.113	35.33
865.287	59.9
865.461	-5.63
865.634	64
865.808	-1.54
865.982	-28.16
866.156	-48.64
866.329	2.56
866.503	39.42
866.676	70.14
866.85	23.04
867.024	80.38
867.197	90.62
867.371	37.38
867.544	117.25
867.718	-79.36
867.891	88.57
868.065	-9.73
868.238	-30.21
868.412	41.47
868.585	68.09
868.759	64
868.932	76.29
869.105	2.56
869.279	55.81
869.452	-17.92
869.625	18.94
869.799	-9.73
869.972	35.33
870.145	-5.63
870.319	23.04
870.492	6.66
870.665	-1.54
870.838	18.94
871.011	8.7
871.185	-19.97
871.358	10.75
871.531	45.57
871.704	2.56
871.877	45.57
872.05	2.56
872.223	-46.59
872.396	35.33
872.569	-26.11
872.742	-38.4
872.915	84.48
873.088	23.04
873.261	37.38
873.434	96.77
873.607	-93.69
873.78	31.23
873.953	-30.21
874.126	43.52
874.299	72.19
874.471	-7.68
874.644	-67.07
874.817	72.19
874.99	125.44
875.163	35.33
875.335	31.23
875.508	8.7
875.681	31.23
875.853	-69.12
876.026	96.77
876.199	35.33
876.371	4.61
876.544	0.51
876.717	80.38
876.889	-3.58
877.062	43.52
877.234	14.85
877.407	-108.03
877.579	55.81
877.752	82.43
877.924	6.66
878.097	43.52
878.269	109.05
878.442	-9.73
878.614	72.19
878.786	53.76
878.959	23.04
879.131	59.9
879.303	-58.88
879.476	-19.97
879.648	37.38
879.82	72.19
879.993	27.14
880.165	-30.21
880.337	-42.5
880.509	45.57
880.681	20.99
880.854	74.24
881.026	47.62
881.198	78.33
881.37	-60.93
881.542	27.14
881.714	55.81
881.886	-3.58
882.058	64
882.23	43.52
882.402	14.85
882.574	14.85
882.746	-19.97
882.918	68.09
883.09	29.18
883.262	10.75
883.434	-1.54
883.606	-13.82
883.778	-28.16
883.95	61.95
884.122	53.76
884.293	51.71
884.465	23.04
884.637	61.95
884.809	23.04
884.98	59.9
885.152	-5.63
885.324	45.57
885.496	6.66
885.667	-22.02
885.839	70.14
886.011	117.25
886.182	20.99
886.354	12.8
886.525	51.71
886.697	31.23
886.869	-28.16
887.04	45.57
887.212	111.1
887.383	4.61
887.555	84.48
887.726	33.28
887.897	20.99
888.069	0.51
888.24	-13.82
888.412	27.14
888.583	43.52
888.754	-1.54
888.926	-34.3
889.097	0.51
889.268	59.9
889.44	14.85
889.611	-54.78
889.782	-22.02
889.953	10.75
890.125	35.33
890.296	-67.07
890.467	35.33
890.638	-28.16
890.809	43.52
890.98	14.85
891.151	78.33
891.323	55.81
891.494	107.01
891.665	-34.3
891.836	-22.02
892.007	0.51
892.178	4.61
892.349	10.75
892.52	-38.4
892.691	-69.12
892.862	47.62
893.032	-54.78
893.203	-38.4
893.374	27.14
893.545	31.23
893.716	-11.78
893.887	64
894.057	53.76
894.228	23.04
894.399	-30.21
894.57	64
894.74	-26.11
894.911	-22.02
895.082	-105.98
895.253	-36.35
895.423	-22.02
895.594	47.62
895.764	-19.97
895.935	-50.69
896.106	84.48
896.276	6.66
896.447	14.85
896.617	-22.02
896.788	31.23
896.958	-30.21
897.129	14.85
897.299	12.8
897.47	55.81
897.64	78.33
897.81	51.71
897.981	80.38
898.151	18.94
898.322	-5.63
898.492	-22.02
898.662	-1.54
898.832	2.56
899.003	23.04
899.173	4.61
899.343	25.09
899.513	4.61
