Data from USB4F104151__141__14-31-49-701.txt Node

Date: Thu Mar 13 14:31:49 EDT 2025
User: louis
Spectrometer: USB4F10415
Trigger mode: 4
Integration Time (sec): 2.500000E-2
Scans to average: 1
Electric dark correction enabled: true
Nonlinearity correction enabled: false
Boxcar width: 0
XAxis mode: Wavelengths
Number of Pixels in Spectrum: 3648
>>>>>Begin Spectral Data<<<<<
178.204	-84.99
178.424	-84.99
178.644	-84.99
178.864	-115.71
179.084	-128
179.304	-3.07
179.524	-5.12
179.744	13.31
179.964	84.99
180.184	-68.61
180.404	7.17
180.624	-33.79
180.844	-3.07
181.064	-27.65
181.283	1.02
181.503	33.79
181.723	1.02
181.943	-35.84
182.163	140.29
182.383	-41.98
182.602	33.79
182.822	21.5
183.042	58.37
183.262	-19.46
183.482	72.7
183.701	37.89
183.921	82.94
184.141	-3.07
184.361	60.42
184.58	46.08
184.8	-17.41
185.02	5.12
185.239	95.23
185.459	19.46
185.679	146.43
185.898	5.12
186.118	80.89
186.338	72.7
186.557	89.09
186.777	-15.36
186.997	64.51
187.216	66.56
187.436	82.94
187.655	78.85
187.875	70.65
188.095	21.5
188.314	115.71
188.534	41.98
188.753	-5.12
188.973	103.42
189.192	56.32
189.412	17.41
189.631	13.31
189.851	33.79
190.07	74.75
190.29	-72.7
190.509	37.89
190.729	-39.94
190.948	111.61
191.168	158.72
191.387	54.27
191.607	46.08
191.826	56.32
192.045	13.31
192.265	50.18
192.484	29.7
192.704	-27.65
192.923	-39.94
193.142	177.15
193.362	-9.22
193.581	93.18
193.8	25.6
194.02	74.75
194.239	29.7
194.458	87.04
194.678	-37.89
194.897	39.94
195.116	25.6
195.335	29.7
195.555	7.17
195.774	-21.5
195.993	15.36
196.212	29.7
196.432	5.12
196.651	46.08
196.87	-46.08
197.089	54.27
197.308	-39.94
197.528	76.8
197.747	-66.56
197.966	5.12
198.185	80.89
198.404	80.89
198.623	60.42
198.842	111.61
199.062	130.05
199.281	48.13
199.5	13.31
199.719	52.22
199.938	15.36
200.157	37.89
200.376	37.89
200.595	74.75
200.814	46.08
201.033	-19.46
201.252	60.42
201.471	5.12
201.69	21.5
201.909	17.41
202.128	103.42
202.347	74.75
202.566	13.31
202.785	-27.65
203.004	7.17
203.223	54.27
203.442	-3.07
203.661	5.12
203.879	95.23
204.098	-7.17
204.317	13.31
204.536	103.42
204.755	111.61
204.974	62.46
205.193	-23.55
205.411	125.95
205.63	-5.12
205.849	-17.41
206.068	41.98
206.287	41.98
206.505	95.23
206.724	33.79
206.943	19.46
207.162	37.89
207.381	33.79
207.599	89.09
207.818	39.94
208.037	72.7
208.255	78.85
208.474	-17.41
208.693	13.31
208.911	7.17
209.13	31.74
209.349	68.61
209.567	19.46
209.786	109.57
210.005	-9.22
210.223	62.46
210.442	39.94
210.661	13.31
210.879	-48.13
211.098	-11.26
211.316	9.22
211.535	25.6
211.753	29.7
211.972	21.5
212.191	-11.26
212.409	-3.07
212.628	82.94
212.846	23.55
213.065	119.81
213.283	70.65
213.502	-11.26
213.72	58.37
213.938	62.46
214.157	-19.46
214.375	44.03
214.594	-11.26
214.812	78.85
215.031	66.56
215.249	1.02
215.467	70.65
215.686	66.56
215.904	56.32
216.122	-27.65
216.341	74.75
216.559	-7.17
216.778	7.17
216.996	33.79
217.214	66.56
217.432	99.33
217.651	37.89
217.869	25.6
218.087	-9.22
218.306	-17.41
218.524	19.46
218.742	15.36
218.96	54.27
219.179	-7.17
219.397	-19.46
219.615	97.28
219.833	25.6
220.051	19.46
220.27	89.09
220.488	82.94
220.706	-19.46
220.924	66.56
221.142	56.32
221.36	-11.26
221.578	37.89
221.796	5.12
222.015	103.42
222.233	25.6
222.451	154.62
222.669	7.17
222.887	70.65
223.105	-39.94
223.323	39.94
223.541	-27.65
223.759	62.46
223.977	93.18
224.195	-27.65
224.413	25.6
224.631	39.94
224.849	17.41
225.067	109.57
225.285	-3.07
225.503	13.31
225.721	25.6
225.939	39.94
226.157	82.94
226.375	103.42
226.592	46.08
226.81	23.55
227.028	37.89
227.246	50.18
227.464	21.5
227.682	37.89
227.9	29.7
228.117	33.79
228.335	54.27
228.553	82.94
228.771	15.36
228.989	-17.41
229.206	21.5
229.424	70.65
229.642	23.55
229.86	48.13
230.077	62.46
230.295	-17.41
230.513	72.7
230.731	13.31
230.948	156.67
231.166	46.08
231.384	-19.46
231.601	58.37
231.819	97.28
232.037	-1.02
232.254	1.02
232.472	-35.84
232.689	-15.36
232.907	33.79
233.125	-60.42
233.342	-9.22
233.56	-44.03
233.777	-23.55
233.995	-17.41
234.213	46.08
234.43	91.13
234.648	-41.98
234.865	7.17
235.083	23.55
235.3	-31.74
235.518	66.56
235.735	5.12
235.953	58.37
236.17	58.37
236.388	56.32
236.605	-11.26
236.822	29.7
237.04	54.27
237.257	64.51
237.475	21.5
237.692	99.33
237.909	31.74
238.127	37.89
238.344	80.89
238.562	52.22
238.779	39.94
238.996	15.36
239.214	13.31
239.431	66.56
239.648	37.89
239.865	78.85
240.083	64.51
240.3	119.81
240.517	23.55
240.735	103.42
240.952	41.98
241.169	119.81
241.386	7.17
241.603	44.03
241.821	-11.26
242.038	70.65
242.255	87.04
242.472	80.89
242.689	25.6
242.907	50.18
243.124	27.65
243.341	13.31
243.558	37.89
243.775	-27.65
243.992	21.5
244.209	9.22
244.426	82.94
244.643	107.52
244.86	56.32
245.078	21.5
245.295	-3.07
245.512	74.75
245.729	-68.61
245.946	13.31
246.163	56.32
246.38	15.36
246.597	-21.5
246.814	-23.55
247.031	13.31
247.248	48.13
247.464	25.6
247.681	78.85
247.898	62.46
248.115	46.08
248.332	31.74
248.549	62.46
248.766	29.7
248.983	66.56
249.2	-35.84
249.417	113.66
249.633	5.12
249.85	111.61
250.067	41.98
250.284	44.03
250.501	23.55
250.717	80.89
250.934	-25.6
251.151	60.42
251.368	-5.12
251.585	23.55
251.801	46.08
252.018	33.79
252.235	29.7
252.451	13.31
252.668	-52.22
252.885	29.7
253.102	35.84
253.318	1.02
253.535	7.17
253.752	-64.51
253.968	17.41
254.185	-35.84
254.401	37.89
254.618	146.43
254.835	-23.55
255.051	64.51
255.268	60.42
255.484	54.27
255.701	-7.17
255.917	148.48
256.134	-3.07
256.351	25.6
256.567	41.98
256.784	60.42
257	-72.7
257.217	105.47
257.433	89.09
257.65	91.13
257.866	33.79
258.082	25.6
258.299	-52.22
258.515	119.81
258.732	23.55
258.948	15.36
259.165	33.79
259.381	33.79
259.597	-3.07
259.814	31.74
260.03	62.46
260.246	-33.79
260.463	52.22
260.679	70.65
260.895	87.04
261.112	103.42
261.328	-1.02
261.544	-3.07
261.761	130.05
261.977	37.89
262.193	7.17
262.409	56.32
262.626	15.36
262.842	48.13
263.058	29.7
263.274	128
263.49	11.26
263.707	-1.02
263.923	68.61
264.139	-15.36
264.355	72.7
264.571	58.37
264.787	33.79
265.004	70.65
265.22	13.31
265.436	5.12
265.652	31.74
265.868	11.26
266.084	72.7
266.3	-17.41
266.516	-19.46
266.732	-21.5
266.948	-3.07
267.164	70.65
267.38	72.7
267.596	17.41
267.812	58.37
268.028	15.36
268.244	31.74
268.46	33.79
268.676	-11.26
268.892	-11.26
269.108	82.94
269.324	33.79
269.54	41.98
269.756	-9.22
269.972	7.17
270.188	44.03
270.403	58.37
270.619	-3.07
270.835	1.02
271.051	99.33
271.267	-44.03
271.483	15.36
271.698	66.56
271.914	64.51
272.13	-25.6
272.346	13.31
272.562	-15.36
272.777	62.46
272.993	17.41
273.209	15.36
273.425	17.41
273.64	7.17
273.856	111.61
274.072	46.08
274.287	72.7
274.503	19.46
274.719	48.13
274.934	-11.26
275.15	9.22
275.366	46.08
275.581	39.94
275.797	35.84
276.012	123.9
276.228	48.13
276.444	29.7
276.659	46.08
276.875	-35.84
277.09	56.32
277.306	5.12
277.521	62.46
277.737	13.31
277.952	78.85
278.168	-13.31
278.383	80.89
278.599	-19.46
278.814	21.5
279.03	31.74
279.245	105.47
279.461	29.7
279.676	33.79
279.892	-93.18
280.107	-66.56
280.322	-17.41
280.538	-19.46
280.753	21.5
280.969	113.66
281.184	21.5
281.399	113.66
281.615	62.46
281.83	-1.02
282.045	-44.03
282.26	-19.46
282.476	31.74
282.691	74.75
282.906	-17.41
283.122	44.03
283.337	17.41
283.552	33.79
283.767	31.74
283.983	115.71
284.198	44.03
284.413	13.31
284.628	37.89
284.843	89.09
285.058	78.85
285.274	-21.5
285.489	25.6
285.704	27.65
285.919	-46.08
286.134	-27.65
286.349	11.26
286.564	25.6
286.779	33.79
286.995	15.36
287.21	-33.79
287.425	109.57
287.64	13.31
287.855	87.04
288.07	-21.5
288.285	103.42
288.5	80.89
288.715	58.37
288.93	15.36
289.145	17.41
289.36	82.94
289.575	-93.18
289.79	78.85
290.004	54.27
290.219	91.13
290.434	68.61
290.649	-44.03
290.864	41.98
291.079	15.36
291.294	56.32
291.509	60.42
291.724	35.84
291.938	37.89
292.153	54.27
292.368	-15.36
292.583	80.89
292.798	78.85
293.012	58.37
293.227	66.56
293.442	128
293.657	62.46
293.871	54.27
294.086	62.46
294.301	66.56
294.516	87.04
294.73	15.36
294.945	21.5
295.16	-11.26
295.374	-1.02
295.589	9.22
295.804	54.27
296.018	3.07
296.233	95.23
296.447	89.09
296.662	21.5
296.877	111.61
297.091	37.89
297.306	58.37
297.52	23.55
297.735	60.42
297.949	-7.17
298.164	74.75
298.378	54.27
298.593	29.7
298.807	-3.07
299.022	19.46
299.236	87.04
299.451	39.94
299.665	21.5
299.88	39.94
300.094	78.85
300.309	37.89
300.523	87.04
300.737	54.27
300.952	-17.41
301.166	13.31
301.381	80.89
301.595	76.8
301.809	21.5
302.024	-1.02
302.238	29.7
302.452	31.74
302.667	-3.07
302.881	123.9
303.095	156.67
303.309	31.74
303.524	21.5
303.738	-52.22
303.952	-27.65
304.166	72.7
304.381	37.89
304.595	121.85
304.809	58.37
305.023	-3.07
305.237	-25.6
305.452	33.79
305.666	46.08
305.88	37.89
306.094	-19.46
306.308	27.65
306.522	80.89
306.736	138.24
306.95	66.56
307.164	99.33
307.379	46.08
307.593	56.32
307.807	58.37
308.021	35.84
308.235	58.37
308.449	74.75
308.663	39.94
308.877	3.07
309.091	136.19
309.305	15.36
309.519	11.26
309.733	78.85
309.947	7.17
310.161	62.46
310.374	15.36
310.588	78.85
310.802	23.55
311.016	23.55
311.23	52.22
311.444	60.42
311.658	25.6
311.872	105.47
312.085	111.61
312.299	62.46
312.513	60.42
312.727	15.36
312.941	19.46
313.154	7.17
313.368	76.8
313.582	109.57
313.796	62.46
314.009	-17.41
314.223	87.04
314.437	56.32
314.651	1.02
314.864	80.89
315.078	13.31
315.292	7.17
315.505	17.41
315.719	78.85
315.933	41.98
316.146	62.46
316.36	-23.55
316.573	56.32
316.787	87.04
317.001	5.12
317.214	50.18
317.428	37.89
317.641	-50.18
317.855	17.41
318.068	15.36
318.282	89.09
318.495	105.47
318.709	54.27
318.922	17.41
319.136	70.65
319.349	19.46
319.563	50.18
319.776	95.23
319.99	-35.84
320.203	105.47
320.417	13.31
320.63	64.51
320.843	97.28
321.057	33.79
321.27	7.17
321.483	7.17
321.697	109.57
321.91	50.18
322.124	140.29
322.337	50.18
322.55	50.18
322.763	66.56
322.977	-3.07
323.19	78.85
323.403	46.08
323.617	33.79
323.83	87.04
324.043	5.12
324.256	48.13
324.469	70.65
324.683	105.47
324.896	15.36
325.109	23.55
325.322	9.22
325.535	17.41
325.748	29.7
325.962	136.19
326.175	46.08
326.388	46.08
326.601	95.23
326.814	62.46
327.027	1.02
327.24	128
327.453	5.12
327.666	54.27
327.879	76.8
328.092	39.94
328.305	50.18
328.518	-15.36
328.731	31.74
328.944	95.23
329.157	19.46
329.37	54.27
329.583	138.24
329.796	89.09
330.009	-3.07
330.222	58.37
330.435	128
330.648	56.32
330.861	7.17
331.073	7.17
331.286	89.09
331.499	54.27
331.712	1.02
331.925	35.84
332.138	37.89
332.35	62.46
332.563	31.74
332.776	132.09
332.989	46.08
333.202	97.28
333.414	70.65
333.627	-3.07
333.84	23.55
334.053	70.65
334.265	103.42
334.478	25.6
334.691	78.85
334.903	46.08
335.116	41.98
335.329	64.51
335.541	7.17
335.754	97.28
335.966	17.41
336.179	5.12
336.392	-50.18
336.604	-15.36
336.817	70.65
337.029	107.52
337.242	70.65
337.454	7.17
337.667	46.08
337.88	101.37
338.092	13.31
338.305	19.46
338.517	-15.36
338.729	62.46
338.942	58.37
339.154	66.56
339.367	56.32
339.579	56.32
339.792	60.42
340.004	87.04
340.217	31.74
340.429	80.89
340.641	-17.41
340.854	15.36
341.066	-23.55
341.278	-11.26
341.491	115.71
341.703	89.09
341.915	31.74
342.128	25.6
342.34	82.94
342.552	33.79
342.764	50.18
342.977	-29.7
343.189	-25.6
343.401	29.7
343.613	-13.31
343.826	105.47
344.038	1.02
344.25	78.85
344.462	-3.07
344.674	9.22
344.886	54.27
345.099	62.46
345.311	39.94
345.523	46.08
345.735	-31.74
345.947	-11.26
346.159	70.65
346.371	7.17
346.583	-74.75
346.795	138.24
347.007	-3.07
347.219	60.42
347.431	66.56
347.643	78.85
347.855	87.04
348.067	41.98
348.279	58.37
348.491	56.32
348.703	56.32
348.915	-52.22
349.127	11.26
349.339	62.46
349.551	46.08
349.763	84.99
349.975	-1.02
350.187	25.6
350.399	128
350.61	46.08
350.822	5.12
351.034	89.09
351.246	21.5
351.458	132.09
351.669	91.13
351.881	37.89
352.093	48.13
352.305	15.36
352.517	54.27
352.728	58.37
352.94	58.37
353.152	70.65
353.363	70.65
353.575	82.94
353.787	82.94
353.999	-11.26
354.21	121.85
354.422	-31.74
354.633	29.7
354.845	21.5
355.057	21.5
355.268	87.04
355.48	-13.31
355.692	37.89
355.903	74.75
356.115	5.12
356.326	27.65
356.538	87.04
356.749	91.13
356.961	103.42
357.172	29.7
357.384	48.13
357.595	105.47
357.807	54.27
358.018	56.32
358.23	29.7
358.441	115.71
358.653	31.74
358.864	-11.26
359.075	21.5
359.287	15.36
359.498	-13.31
359.709	58.37
359.921	44.03
360.132	39.94
360.344	68.61
360.555	54.27
360.766	3.07
360.977	27.65
361.189	39.94
361.4	37.89
361.611	101.37
361.823	72.7
362.034	80.89
362.245	-7.17
362.456	68.61
362.667	62.46
362.879	29.7
363.09	54.27
363.301	62.46
363.512	99.33
363.723	76.8
363.935	7.17
364.146	109.57
364.357	82.94
364.568	103.42
364.779	78.85
364.99	103.42
365.201	-48.13
365.412	148.48
365.623	17.41
365.834	39.94
366.045	-3.07
366.256	13.31
366.467	115.71
366.678	105.47
366.889	54.27
367.1	62.46
367.311	93.18
367.522	54.27
367.733	128
367.944	97.28
368.155	31.74
368.366	21.5
368.577	46.08
368.788	80.89
368.999	105.47
369.209	44.03
369.42	91.13
369.631	119.81
369.842	50.18
370.053	78.85
370.264	54.27
370.474	3.07
370.685	56.32
370.896	23.55
371.107	15.36
371.317	113.66
371.528	7.17
371.739	91.13
371.95	95.23
372.16	128
372.371	72.7
372.582	23.55
372.792	23.55
373.003	31.74
373.214	74.75
373.424	91.13
373.635	39.94
373.846	46.08
374.056	46.08
374.267	29.7
374.477	60.42
374.688	-52.22
374.898	13.31
375.109	-19.46
375.319	13.31
375.53	128
375.74	-15.36
375.951	39.94
376.161	29.7
376.372	64.51
376.582	13.31
376.793	121.85
377.003	41.98
377.214	33.79
377.424	103.42
377.635	46.08
377.845	76.8
378.055	82.94
378.266	3.07
378.476	37.89
378.686	111.61
378.897	123.9
379.107	50.18
379.317	37.89
379.528	-19.46
379.738	123.9
379.948	23.55
380.158	50.18
380.369	3.07
380.579	156.67
380.789	-9.22
380.999	41.98
381.21	48.13
381.42	91.13
381.63	33.79
381.84	64.51
382.05	33.79
382.261	1.02
382.471	62.46
382.681	56.32
382.891	78.85
383.101	54.27
383.311	31.74
383.521	27.65
383.731	39.94
383.941	105.47
384.151	119.81
384.361	-3.07
384.571	72.7
384.781	37.89
384.991	105.47
385.201	134.14
385.411	74.75
385.621	29.7
385.831	144.38
386.041	1.02
386.251	15.36
386.461	123.9
386.671	-31.74
386.881	1.02
387.091	17.41
387.301	113.66
387.511	64.51
387.72	132.09
387.93	60.42
388.14	44.03
388.35	31.74
388.56	82.94
388.769	95.23
388.979	113.66
389.189	-33.79
389.399	87.04
389.609	39.94
389.818	87.04
390.028	11.26
390.238	56.32
390.447	107.52
390.657	46.08
390.867	107.52
391.076	41.98
391.286	80.89
391.496	29.7
391.705	46.08
391.915	95.23
392.125	58.37
392.334	39.94
392.544	93.18
392.753	111.61
392.963	111.61
393.172	48.13
393.382	78.85
393.591	119.81
393.801	46.08
394.01	70.65
394.22	80.89
394.429	80.89
394.639	39.94
394.848	119.81
395.058	91.13
395.267	70.65
395.477	111.61
395.686	37.89
395.895	101.37
396.105	173.05
396.314	130.05
396.524	15.36
396.733	62.46
396.942	132.09
397.152	168.96
397.361	105.47
397.57	209.92
397.78	138.24
397.989	177.15
398.198	158.72
398.407	70.65
398.617	140.29
398.826	78.85
399.035	121.85
399.244	70.65
399.453	54.27
399.663	54.27
399.872	179.2
400.081	66.56
400.29	201.72
400.499	31.74
400.708	105.47
400.917	89.09
401.127	125.95
401.336	13.31
401.545	154.62
401.754	142.33
401.963	103.42
402.172	128
402.381	72.7
402.59	87.04
402.799	111.61
403.008	179.2
403.217	82.94
403.426	142.33
403.635	87.04
403.844	214.01
404.053	181.25
404.262	177.15
404.471	250.88
404.68	177.15
404.888	138.24
405.097	123.9
405.306	144.38
405.515	216.06
405.724	146.43
405.933	203.77
406.142	140.29
406.35	287.74
406.559	261.12
406.768	222.2
406.977	261.12
407.185	283.64
407.394	211.96
407.603	244.73
407.812	234.49
408.02	199.68
408.229	310.27
408.438	295.93
408.646	252.92
408.855	273.4
409.064	279.55
409.272	316.41
409.481	394.23
409.69	310.27
409.898	340.99
410.107	338.94
410.315	357.37
410.524	373.75
410.733	359.42
410.941	377.85
411.15	474.1
411.358	455.67
411.567	396.28
411.775	480.25
411.984	455.67
412.192	472.06
412.401	447.48
412.609	525.3
412.818	619.51
413.026	498.68
413.234	523.26
413.443	523.26
413.651	449.53
413.86	674.81
414.068	596.98
414.276	721.91
414.485	693.24
414.693	670.71
414.901	791.54
415.11	881.65
415.318	775.16
415.526	752.63
415.734	801.78
415.943	906.23
416.151	973.81
416.359	926.71
416.567	1004.53
416.776	1045.49
416.984	1160.17
417.192	1192.94
417.4	1049.58
417.608	1229.81
417.817	1192.94
418.025	1283.05
418.233	1367.02
418.441	1319.92
418.649	1328.11
418.857	1364.97
419.065	1602.54
419.273	1510.38
419.481	1561.58
419.689	1645.54
419.897	1715.17
420.105	1631.21
420.313	1815.52
420.521	1942.5
420.729	1932.26
420.937	1891.3
421.145	1938.4
421.353	2118.62
421.561	2151.39
421.769	2286.56
421.977	2366.43
422.185	2345.95
422.393	2466.78
422.601	2634.71
422.809	2642.9
423.017	2601.94
423.224	2802.65
423.432	2905.04
423.64	2968.53
423.848	3120.08
424.056	2970.58
424.263	3300.3
424.471	3040.21
424.679	3388.36
424.887	3451.85
425.094	3544.01
425.302	3634.12
425.51	3838.92
425.718	3857.35
425.925	3896.26
426.133	4033.47
426.341	4330.43
426.548	4438.97
426.756	4484.03
426.964	4391.87
427.171	4842.42
427.379	4791.22
427.586	5026.74
427.794	5108.66
428.001	5378.99
428.209	5604.27
428.417	5522.35
428.624	5936.04
428.832	5858.21
429.039	5761.96
429.247	5647.27
429.454	6341.54
429.662	6732.7
429.869	6255.52
430.076	6869.91
430.284	6548.38
430.491	6767.51
430.699	7484.3
430.906	7441.29
431.114	7547.79
431.321	7435.15
431.528	7824.26
431.736	8158.08
431.943	8500.09
432.15	8371.07
432.358	8711.04
432.565	8958.84
432.772	8962.94
432.979	9544.56
433.187	9497.46
433.394	9487.22
433.601	10228.58
433.808	10457.95
434.016	10175.33
434.223	10672.99
434.43	11381.59
434.637	10994.52
434.844	11580.24
435.052	11760.46
435.259	11703.12
435.466	11950.92
435.673	11834.19
435.88	12759.87
436.087	13396.79
436.294	13296.44
436.501	13175.61
436.708	13202.23
436.915	13914.92
437.122	14140.2
437.329	14342.95
437.537	14674.72
437.743	14988.06
437.95	14748.45
438.157	15563.54
438.364	15891.21
438.571	15919.89
438.778	16042.76
438.985	17423.09
439.192	16988.92
439.399	17341.18
439.606	17005.31
439.813	17896.17
440.02	18881.25
440.227	18596.58
440.433	18512.61
440.64	19532.5
440.847	18907.87
441.054	19485.4
441.261	20658.88
441.467	20394.7
441.674	20947.65
441.881	21623.48
442.088	21660.34
442.294	21355.19
442.501	22031.02
442.708	22403.75
442.914	22944.42
443.121	24218.25
443.328	23517.85
443.534	25432.7
443.741	24783.49
443.948	24013.46
444.154	26163.82
444.361	25719.42
444.568	25989.75
444.774	25932.4
444.981	26030.71
445.187	27257.44
445.394	28035.67
445.6	28072.53
445.807	30532.14
446.013	28858.95
446.22	29608.51
446.426	30652.97
446.633	30960.17
446.839	32209.43
447.046	30650.92
447.252	32711.18
447.459	32725.52
447.665	32281.11
447.871	33890.81
448.078	35324.39
448.284	33419.78
448.491	34341.36
448.697	35389.92
448.903	36473.3
449.11	36254.17
449.316	35824.09
449.522	36624.85
449.728	37413.32
449.935	37489.09
450.141	37628.35
450.347	38672.82
450.553	37124.55
450.76	37632.45
450.966	38779.31
451.172	38611.38
451.378	39655.84
451.584	38805.94
451.791	39625.12
451.997	39709.09
452.203	40421.78
452.409	40348.06
452.615	39987.61
452.821	38465.97
453.027	37732.8
453.233	40085.92
453.44	38156.73
453.646	38595
453.852	38795.7
454.058	39567.78
454.264	38666.67
454.47	39465.38
454.676	37982.65
454.882	39227.82
455.088	36268.5
455.294	36551.12
455.5	37200.33
455.705	37183.94
455.911	35989.98
456.117	35326.44
456.323	35031.53
456.529	33024.52
456.735	34537.97
456.941	33657.34
457.147	32866.83
457.352	31818.27
457.558	31359.52
457.764	31394.34
457.97	30833.19
458.176	30134.84
458.381	30464.56
458.587	28953.16
458.793	28875.34
458.999	27142.75
459.204	29055.56
459.41	28201.55
459.616	26686.06
459.821	26753.64
460.027	26829.41
460.233	25850.49
460.438	24711.81
460.644	25041.54
460.85	24085.14
461.055	23239.33
461.261	23431.83
461.466	21689.01
461.672	20607.69
461.878	22530.73
462.083	20974.27
462.289	20634.31
462.494	20554.44
462.7	19380.95
462.905	19141.34
463.111	19747.54
463.316	19661.52
463.522	19040.99
463.727	19299.03
463.932	19104.48
464.138	18875.1
464.343	18979.55
464.549	18463.46
464.754	19405.53
464.959	19155.68
465.165	18924.26
465.37	18176.75
465.575	17631.99
465.781	18477.8
465.986	18289.38
466.191	17734.39
466.397	17394.42
466.602	16610.05
466.807	16947.97
467.012	17103.61
467.218	17203.96
467.423	16790.27
467.628	17054.46
467.833	17560.31
468.038	16382.73
468.244	16468.74
468.449	16835.33
468.654	16276.23
468.859	16626.43
469.064	16007.95
469.269	15627.03
469.474	15651.6
469.679	15946.51
469.885	15549.2
470.09	15942.41
470.295	15723.28
470.5	15219.48
470.705	15565.59
470.91	14889.76
471.115	14902.04
471.32	15192.86
471.525	15098.65
471.73	14527.27
471.935	14574.37
472.139	14070.57
472.344	14400.29
472.549	14107.43
472.754	14076.71
472.959	13652.78
473.164	13337.4
473.369	13136.7
473.574	13892.4
473.778	13286.2
473.983	13204.28
474.188	13382.45
474.393	12757.82
474.598	12751.68
474.802	12450.63
475.007	12929.85
475.212	12657.47
475.417	12301.12
475.621	12188.49
475.826	12440.39
476.031	12041.03
476.235	11721.55
476.44	11920.2
476.645	11598.67
476.849	11729.74
477.054	11631.44
477.259	11402.07
477.463	11639.63
477.668	11201.37
477.872	11162.45
478.077	10990.42
478.282	10949.46
478.486	10810.2
478.691	10597.21
478.895	10543.97
479.1	10296.16
479.304	10453.86
479.509	10492.77
479.713	10384.23
479.918	10445.66
480.122	10132.33
480.326	10310.5
480.531	10238.82
480.735	10029.93
480.94	10038.12
481.144	10507.1
481.348	9859.95
481.553	10091.37
481.757	9558.89
481.961	9923.43
482.166	9933.67
482.37	9937.77
482.574	9653.1
482.778	9700.2
482.983	10175.33
483.187	10101.61
483.391	9685.87
483.595	10081.13
483.8	9673.58
484.004	9831.27
484.208	9878.38
484.412	9700.2
484.616	9569.13
484.821	9743.21
485.025	9495.41
485.229	9780.07
485.433	9757.55
485.637	9708.4
485.841	9749.36
486.045	9573.23
486.249	9753.45
486.453	9732.97
486.657	9749.36
486.861	9685.87
487.065	9556.85
487.269	9853.8
487.473	9411.44
487.677	9839.47
487.881	9829.23
488.085	9638.76
488.289	9927.53
488.493	9630.57
488.697	9732.97
488.901	9929.58
489.105	9667.44
489.309	9859.95
489.512	9978.73
489.716	9739.12
489.92	9675.63
490.124	9728.88
490.328	9905
490.531	10117.99
490.735	9786.22
490.939	9968.49
491.143	10009.45
491.346	10040.17
491.55	9878.38
491.754	10001.26
491.958	10171.24
492.161	9880.43
492.365	9962.34
492.569	10128.23
492.772	10136.42
492.976	10277.73
493.18	10193.76
493.383	10539.87
493.587	10474.34
493.79	10468.19
493.994	10320.74
494.197	10550.11
494.401	10677.09
494.605	10576.73
494.808	10871.64
495.012	10716
495.215	10892.12
495.419	10900.31
495.622	10908.51
495.825	11146.07
496.029	10990.42
496.232	11359.06
496.436	11176.79
496.639	11696.97
496.843	11408.21
497.046	11604.81
497.249	11762.51
497.453	11842.38
497.656	11912.01
497.859	11912.01
498.063	11840.33
498.266	12032.84
498.469	12180.29
498.673	12440.39
498.876	12430.15
499.079	12548.93
499.282	12604.22
499.485	13122.36
499.689	12770.11
499.892	13177.65
500.095	13095.74
500.298	13521.71
500.501	13325.11
500.705	13800.24
500.908	13722.41
501.111	13822.77
501.314	13867.82
501.517	14166.82
501.72	14275.37
501.923	14596.9
502.126	14701.34
502.329	14869.28
502.532	14803.74
502.735	14996.25
502.938	15192.86
503.141	15039.26
503.344	15684.37
503.547	15782.67
503.75	15774.48
503.953	16130.83
504.156	16059.15
504.359	16362.25
504.562	16294.66
504.765	16669.44
504.968	16931.58
505.17	16888.57
505.373	17029.88
505.576	17345.27
505.779	17367.8
505.982	17554.16
506.185	17734.39
506.387	17576.69
506.59	18275.05
506.793	18344.68
506.996	18309.86
507.198	18905.82
507.401	18615.01
507.604	18893.54
507.807	19456.73
508.009	19608.28
508.212	19499.73
508.415	19595.99
508.617	20140.75
508.82	20058.83
509.022	19890.9
509.225	20447.94
509.428	20622.02
509.63	20914.88
509.833	20798.15
510.035	21543.61
510.238	21361.34
510.44	21715.64
510.643	22049.46
510.845	22022.83
511.048	22162.09
511.25	22258.35
511.453	22635.17
511.655	23188.13
511.858	23030.43
512.06	22962.85
512.262	23311
512.465	23171.74
512.667	23575.19
512.87	23814.8
513.072	24230.54
513.274	24361.61
513.477	24677
513.679	24720.01
513.881	25186.94
514.084	25236.09
514.286	25016.96
514.488	25490.04
514.69	26208.88
514.893	26157.68
515.095	26387.05
515.297	26667.63
515.499	26561.13
515.701	27017.83
515.904	27337.31
516.106	27452
516.308	27658.84
516.51	28207.7
516.712	27683.42
516.914	28322.38
517.116	29145.67
517.318	28797.51
517.52	28869.19
517.722	28799.56
517.925	29352.51
518.127	29387.33
518.329	29948.47
518.531	29669.95
518.733	30339.63
518.935	30380.59
519.136	30442.03
519.338	30659.12
519.54	30798.38
519.742	31240.74
519.944	31339.04
520.146	31605.28
520.348	31650.33
520.55	31939.1
520.752	31793.69
520.954	32180.76
521.155	31980.06
521.357	32518.67
521.559	32557.58
521.761	33331.72
521.963	33040.9
522.164	33567.23
522.366	33448.45
522.568	33626.62
522.77	33620.48
522.971	34103.8
523.173	33942.01
523.375	34343.41
523.576	34111.99
523.778	34537.97
523.98	34318.84
524.181	34728.43
524.383	34623.98
524.584	34965.99
524.786	34906.6
524.988	34978.28
525.189	35287.53
525.391	35398.12
525.592	35322.34
525.794	35791.33
525.995	35604.96
526.197	35520.99
526.398	35656.16
526.6	35846.62
526.801	36104.67
527.003	35627.49
527.204	35930.59
527.406	36260.31
527.607	36157.91
527.808	36241.88
528.01	35914.2
528.211	36112.86
528.412	36942.28
528.614	36669.9
528.815	36794.83
529.016	36862.41
529.218	36532.69
529.419	36379.09
529.62	36835.79
529.822	36465.11
530.023	36563.41
530.224	36553.17
530.425	36456.92
530.626	35983.83
530.828	35867.1
531.029	36950.48
531.23	36162.01
531.431	36553.17
531.632	36674
531.833	36717.01
532.035	36694.48
532.236	36461.01
532.437	36393.43
532.638	36442.58
532.839	36542.93
533.04	36358.61
533.241	36227.54
533.442	36952.52
533.643	36405.72
533.844	36174.3
534.045	36415.96
534.246	36057.56
534.447	36530.64
534.648	36180.44
534.849	36166.1
535.05	36325.85
535.251	36229.59
535.451	35879.39
535.652	36334.04
535.853	35998.17
536.054	36207.06
536.255	36227.54
536.456	35815.9
536.657	36508.11
536.857	35957.21
537.058	35916.25
537.259	36071.9
537.46	36049.37
537.66	36153.82
537.861	36286.93
538.062	35793.37
538.263	35830.24
538.463	36014.55
538.664	35611.1
538.865	35938.78
539.065	35910.11
539.266	35494.37
539.466	35826.14
539.667	35525.09
539.868	36350.42
540.068	36090.33
540.269	35402.21
540.469	35940.83
540.67	35664.35
540.87	35389.92
541.071	35545.57
541.271	35774.94
541.472	35602.91
541.672	35387.88
541.873	35371.49
542.073	34974.19
542.274	35641.82
542.474	35236.33
542.675	35215.85
542.875	35267.05
543.075	35301.86
543.276	34642.42
543.476	35604.96
543.676	34867.69
543.877	35586.53
544.077	35631.58
544.277	35260.9
544.478	35181.03
544.678	35555.81
544.878	35213.8
545.078	35457.51
545.279	35228.13
545.479	34824.68
545.679	34726.38
545.879	35381.73
546.079	34998.76
546.28	35230.18
546.48	34812.4
546.68	35324.39
546.88	35103.21
547.08	34931.18
547.28	35273.19
547.48	34882.03
547.68	35383.78
547.88	34996.71
548.081	35131.88
548.281	35045.87
548.481	34982.38
548.681	35076.58
548.881	35336.68
549.081	35158.5
549.28	34679.28
549.48	35422.69
549.68	35086.82
549.88	35498.47
550.08	34859.5
550.28	35170.79
550.48	34982.38
550.68	35279.33
550.88	34830.83
551.08	35109.35
551.279	35396.07
551.479	34675.18
551.679	35318.25
551.879	34820.59
552.079	35068.39
552.278	34630.13
552.478	35318.25
552.678	34812.4
552.878	35686.88
553.077	35160.55
553.277	34763.25
553.477	35181.03
553.676	35070.44
553.876	35006.95
554.076	34961.9
554.275	34728.43
554.475	34722.29
554.674	35305.96
554.874	34922.99
555.074	34886.12
555.273	35217.89
555.473	35262.95
555.672	34920.94
555.872	35199.46
556.071	35248.61
556.271	35115.5
556.47	34990.57
556.67	34824.68
556.869	34744.81
557.068	35277.29
557.268	35088.87
557.467	34865.64
557.667	35262.95
557.866	35170.79
558.065	34853.36
558.265	34941.42
558.464	34787.82
558.663	35090.92
558.863	34777.58
559.062	35344.87
559.261	35058.15
559.461	35561.95
559.66	34617.84
559.859	35054.06
560.058	34976.23
560.258	35072.49
560.457	34832.88
560.656	35146.22
560.855	34699.76
561.054	34910.7
561.253	34781.68
561.453	34982.38
561.652	35088.87
561.851	34933.23
562.05	34841.07
562.249	34998.76
562.448	35285.48
562.647	34873.84
562.846	34836.97
563.045	34810.35
563.244	34798.06
563.443	34900.46
563.642	34370.04
563.841	35047.91
564.04	34810.35
564.239	35105.26
564.438	34460.15
564.637	34769.39
564.836	34540.02
565.035	34400.76
565.234	34832.88
565.432	34630.13
565.631	34357.75
565.83	34425.33
566.029	34441.71
566.228	34529.78
566.427	34271.73
566.625	34288.12
566.824	33874.43
567.023	34169.33
567.222	33704.45
567.42	34148.85
567.619	33985.02
567.818	34028.02
568.016	33833.47
568.215	34259.45
568.414	33516.03
568.612	34077.18
568.811	34226.68
569.01	33583.62
569.208	33180.17
569.407	33368.58
569.605	33460.74
569.804	33753.6
570.002	33458.69
570.201	33395.2
570.4	33458.69
570.598	33131.01
570.797	32958.99
570.995	33096.2
571.193	32735.76
571.392	33188.36
571.59	32676.37
571.789	33030.66
571.987	32907.79
572.186	32752.14
572.384	32768.52
572.582	32889.35
572.781	32965.13
572.979	32502.29
573.177	32645.65
573.376	32584.21
573.574	32076.31
573.772	32502.29
573.971	32307.73
574.169	32102.93
574.367	31832.6
574.565	32260.63
574.763	31707.68
574.962	32014.87
575.16	31750.68
575.358	31736.35
575.556	31437.34
575.754	31795.74
575.952	31285.79
576.151	31648.29
576.349	31339.04
576.547	31246.88
576.745	31326.75
576.943	31592.99
577.141	31547.93
577.339	31388.19
577.537	31459.87
577.735	30947.88
577.933	30362.16
578.131	30941.74
578.329	30904.87
578.527	30415.41
578.725	30790.19
578.923	30765.61
579.121	30661.16
579.319	30448.18
579.516	30593.58
579.714	30396.98
579.912	30143.03
580.11	30421.55
580.308	30163.51
580.506	30118.45
580.704	29563.45
580.901	29872.7
581.099	29884.98
581.297	30009.91
581.495	29508.16
581.692	30155.32
581.89	29430.33
582.088	29694.52
582.285	29520.45
582.483	30054.97
582.681	29506.11
582.878	29188.67
583.076	28951.11
583.274	29592.12
583.471	28877.38
583.669	29174.34
583.866	28574.28
584.064	29053.51
584.262	28791.37
584.459	28723.79
584.657	28817.99
584.854	29076.04
585.052	28527.18
585.249	28543.56
585.447	28082.77
585.644	27929.17
585.841	28314.19
586.039	28392.01
586.236	28453.45
586.434	28093.01
586.631	28041.81
586.828	28273.23
587.026	27693.66
587.223	27832.92
587.42	27476.57
587.618	28140.11
587.815	27707.99
588.012	27503.2
588.21	27191.91
588.407	27482.72
588.604	27443.81
588.801	27273.82
588.999	27173.47
589.196	27634.27
589.393	27499.1
589.59	27044.45
589.787	26972.77
589.984	27277.92
590.182	26931.81
590.379	27374.17
590.576	26868.33
590.773	26608.23
590.97	26983.01
591.167	26593.9
591.364	26593.9
591.561	26655.34
591.758	26221.17
591.955	26591.85
592.152	26169.97
592.349	26227.31
592.546	26331.76
592.743	26405.49
592.94	26004.08
593.137	26126.96
593.334	26249.84
593.531	25524.86
593.727	25774.71
593.924	25766.52
594.121	25735.8
594.318	26073.71
594.515	25518.71
594.712	25881.21
594.908	25354.88
595.105	25653.88
595.302	25412.22
595.499	25811.57
595.696	25248.38
595.892	25217.66
596.089	25625.21
596.286	25473.66
596.482	25229.95
596.679	25318.01
596.876	25385.6
597.072	25053.83
597.269	25191.04
597.466	25199.23
597.662	25307.77
597.859	25039.49
598.055	25162.37
598.252	24619.66
598.448	25344.64
598.645	24896.13
598.841	24713.86
599.038	24935.04
599.234	25188.99
599.431	24818.31
599.627	24644.23
599.824	24736.39
600.02	24451.72
600.217	24787.59
600.413	24730.25
600.609	24701.58
600.806	24697.48
601.002	24777.35
601.198	24560.27
601.395	24355.47
601.591	24451.72
601.787	24760.97
601.984	24552.07
602.18	24734.34
602.376	24378
602.572	24500.87
602.769	24590.98
602.965	24330.89
603.161	24693.38
603.357	24468.11
603.553	24439.44
603.75	24494.73
603.946	24400.52
604.142	24654.47
604.338	24107.66
604.534	24433.29
604.73	24099.47
604.926	24443.53
605.122	24564.36
605.318	24357.52
605.514	24308.37
605.71	24048.27
605.906	24091.28
606.102	24160.91
606.298	24586.89
606.494	24476.3
606.69	24500.87
606.886	24578.7
607.082	24191.63
607.278	24531.59
607.474	24210.06
607.67	24304.27
607.866	24162.96
608.062	24267.41
608.257	24443.53
608.453	24371.85
608.649	24533.64
608.845	24451.72
609.041	24253.07
609.236	24371.85
609.432	24031.89
609.628	24345.23
609.824	24304.27
610.019	24312.46
610.215	24492.68
610.411	24785.54
610.606	24371.85
610.802	24763.01
610.998	24437.39
611.193	24953.48
611.389	24601.22
611.584	24408.72
611.78	24681.1
611.976	24328.84
612.171	24617.61
612.367	24421
612.562	24674.95
612.758	24316.56
612.953	24005.27
613.149	24590.98
613.344	24240.78
613.539	24724.1
613.735	24824.45
613.93	24375.95
614.126	24550.03
614.321	24984.19
614.517	24580.74
614.712	24836.74
614.907	24310.41
615.103	24779.4
615.298	24404.62
615.493	24836.74
615.688	24236.69
615.884	24679.05
616.079	24179.34
616.274	24621.7
616.47	24560.27
616.665	24648.33
616.86	24515.21
617.055	24525.45
617.25	24429.2
617.445	24668.81
617.641	24021.65
617.836	24326.8
618.031	24236.69
618.226	24431.24
618.421	24148.62
618.616	24476.3
618.811	23997.07
619.006	24701.58
619.201	23792.28
619.396	24193.68
619.591	23937.68
619.786	24240.78
619.981	23560.86
620.176	24113.81
620.371	23704.21
620.566	23886.48
620.761	23495.32
620.956	23753.37
621.151	23306.91
621.346	23587.48
621.541	22819.49
621.735	23714.45
621.93	23048.86
622.125	23116.45
622.32	22749.86
622.515	23114.4
622.709	22596.26
622.904	22733.48
623.099	22309.55
623.294	22543.02
623.488	22481.58
623.683	22211.25
623.878	22082.22
624.072	22250.16
624.267	22098.61
624.462	21756.6
624.656	21680.82
624.851	21871.28
625.046	21258.94
625.24	21609.14
625.435	21293.76
625.629	21516.98
625.824	21017.28
626.018	21129.92
626.213	20761.28
626.407	20996.8
626.602	20675.27
626.796	20783.81
626.991	20681.41
627.185	20656.84
627.38	20144.84
627.574	20255.43
627.768	20089.55
627.963	20189.9
628.157	20101.84
628.352	20316.87
628.546	19725.01
628.74	20003.53
628.935	19811.03
629.129	19598.04
629.323	19512.02
629.517	19524.31
629.712	19290.84
629.906	19200.73
630.1	19059.42
630.294	18965.21
630.489	19040.99
630.683	19137.24
630.877	18658.02
631.071	18586.34
631.265	18817.76
631.459	18463.46
631.653	18529
631.848	18543.33
632.042	18436.84
632.236	18205.42
632.43	17828.59
632.624	18264.81
632.818	17877.74
633.012	17836.78
633.206	17603.32
633.4	17797.87
633.594	17482.49
633.788	17683.19
633.982	17660.66
634.176	17347.32
634.369	17568.5
634.563	17152.76
634.757	16939.77
634.951	17203.96
635.145	17234.68
635.339	16947.97
635.533	16552.71
635.726	16636.67
635.92	16470.79
636.114	16380.68
636.308	16284.42
636.501	16556.8
636.695	16241.42
636.889	16130.83
637.083	15899.41
637.276	16018.19
637.47	15727.38
637.664	15889.17
637.857	15547.15
638.051	15741.71
638.244	15465.24
638.438	15670.03
638.632	15414.04
638.825	15110.94
639.019	15000.35
639.212	15215.38
639.406	14867.23
639.599	14936.86
639.793	14807.84
639.986	14713.63
640.18	14816.03
640.373	14760.73
640.567	14455.59
640.76	14676.77
640.954	14426.92
641.147	14168.87
641.34	14187.3
641.534	14414.63
641.727	13890.35
641.92	13947.69
642.114	13718.32
642.307	13966.12
642.5	13706.03
642.694	13574.96
642.887	13638.45
643.08	13564.72
643.273	13536.05
643.467	13407.03
643.66	13163.32
643.853	13302.58
644.046	12841.79
644.239	12907.32
644.432	13118.26
644.626	12833.6
644.819	12919.61
645.012	12792.64
645.205	12741.44
645.398	12567.36
645.591	12620.61
645.784	12450.63
645.977	12452.67
646.17	12460.87
646.363	12254.02
646.556	12258.12
646.749	12213.06
646.942	12198.73
647.135	12014.41
647.328	11842.38
647.521	11877.19
647.714	11516.75
647.907	11598.67
648.099	11477.84
648.292	11572.05
648.485	11662.16
648.678	11473.74
648.871	11377.49
649.064	11178.84
649.256	11457.36
649.449	11293.52
649.642	11197.27
649.835	11082.58
650.027	11209.56
650.22	11162.45
650.413	10797.92
650.605	10957.66
650.798	10672.99
650.991	10761.05
651.183	10691.42
651.376	10607.45
651.568	10699.61
651.761	10548.06
651.954	10414.95
652.146	10261.35
652.339	10406.75
652.531	10414.95
652.724	10158.95
652.916	10146.66
653.109	10128.23
653.301	9943.91
653.494	10097.51
653.686	9917.29
653.879	9921.38
654.071	9900.9
654.263	9995.11
654.456	9827.18
654.648	9892.71
654.84	9589.61
655.033	9474.93
655.225	9573.23
655.417	9415.54
655.61	9583.47
655.802	9517.93
655.994	9251.7
656.186	9263.99
656.379	9067.38
656.571	9431.92
656.763	9110.39
656.955	9284.47
657.148	9212.79
657.34	8958.84
657.532	9053.05
657.724	9122.68
657.916	8950.65
658.108	8846.2
658.3	8770.43
658.492	8756.09
658.684	8547.2
658.876	8631.16
659.068	8622.97
659.26	8633.21
659.452	8567.68
659.644	8516.48
659.836	8369.02
660.028	8592.25
660.22	8260.48
660.412	8264.58
660.604	8106.88
660.796	8258.43
660.988	8098.69
661.18	8151.94
661.372	7994.25
661.563	8176.52
661.755	7926.66
661.947	7820.17
662.139	8022.92
662.331	7828.36
662.522	7783.31
662.714	7852.94
662.906	7560.08
663.097	7766.92
663.289	7758.73
663.481	7588.75
663.673	7431.05
663.864	7361.42
664.056	7648.14
664.247	7508.88
664.439	7490.45
664.631	7349.14
664.822	7500.69
665.014	7275.41
665.205	7263.12
665.397	7177.11
665.588	7183.25
665.78	7199.63
665.971	7000.98
666.163	7152.53
666.354	6943.64
666.546	7025.56
666.737	7000.98
666.929	6992.79
667.12	6794.14
667.311	6656.92
667.503	6790.04
667.694	6886.29
667.885	6656.92
668.077	6824.86
668.268	6550.43
668.459	6658.97
668.651	6554.52
668.842	6595.48
669.033	6632.35
669.224	6572.96
669.416	6732.7
669.607	6550.43
669.798	6458.27
669.989	6566.81
670.18	6591.39
670.371	6364.06
670.563	6206.37
670.754	6222.75
670.945	6314.91
671.136	6210.47
671.327	6155.17
671.518	6093.73
671.709	6112.16
671.9	6245.28
672.091	6316.96
672.282	6034.34
672.473	6071.2
672.664	6110.11
672.855	5952.42
673.046	6052.77
673.237	6192.03
673.428	6020
673.619	5905.32
673.809	5872.55
674	5829.54
674.191	5974.95
674.382	5870.5
674.573	5813.16
674.764	5876.65
674.954	5895.08
675.145	5759.91
675.336	5764.01
675.527	5526.44
675.717	5809.06
675.908	5606.31
676.099	5641.13
676.289	5675.95
676.48	5677.99
676.671	5655.47
676.861	5729.19
677.052	5356.46
677.243	5493.68
677.433	5452.72
677.624	5675.95
677.814	5485.48
678.005	5442.48
678.195	5411.76
678.386	5567.4
678.576	5462.96
678.767	5387.18
678.957	5350.32
679.148	5551.02
679.338	5479.34
679.529	5401.52
679.719	5438.38
679.909	5487.53
680.1	5356.46
680.29	5520.3
680.481	5356.46
680.671	5227.44
680.861	5305.26
681.052	5391.28
681.242	5327.79
681.432	5301.17
681.622	5272.5
681.813	5231.54
682.003	5338.03
682.193	5303.22
682.383	5415.85
682.573	5340.08
682.764	5188.53
682.954	5292.98
683.144	5282.74
683.334	5092.27
683.524	5176.24
683.714	5071.79
683.904	5118.9
684.094	5129.14
684.284	5180.34
684.474	5174.19
684.664	5077.94
684.854	5243.82
685.044	5114.8
685.234	4991.92
685.424	4928.44
685.614	4985.78
685.804	5190.58
685.994	4922.29
686.184	5075.89
686.374	4922.29
686.564	5094.32
686.753	4953.01
686.943	4789.17
687.133	4862.9
687.323	4903.86
687.513	4838.33
687.702	4821.94
687.892	4789.17
688.082	4783.03
688.272	4852.66
688.461	4635.58
688.651	4864.95
688.841	4780.98
689.03	4717.5
689.22	4740.02
689.41	4572.09
689.599	4580.28
689.789	4647.87
689.979	4826.04
690.168	4690.87
690.358	4500.41
690.547	4490.17
690.737	4580.28
690.926	4545.47
691.116	4514.75
691.305	4645.82
691.495	4518.84
691.684	4510.65
691.874	4539.32
692.063	4457.4
692.252	4529.08
692.442	4492.22
692.631	4375.49
692.82	4289.47
693.01	4297.66
693.199	4291.52
693.388	4301.76
693.578	4432.83
693.767	4289.47
693.956	4305.85
694.146	4252.61
694.335	4258.75
694.524	4285.37
694.713	4166.59
694.902	4219.84
695.092	4330.43
695.281	4148.16
695.47	4197.31
695.659	4199.36
695.848	4080.58
696.037	4264.89
696.226	4250.56
696.415	3990.47
696.604	4258.75
696.793	4119.49
696.982	4088.77
697.171	4117.44
697.36	4092.87
697.549	4090.82
697.738	4051.91
697.927	3929.03
698.116	4043.71
698.305	3980.23
698.494	3933.12
698.683	3859.4
698.872	4150.21
699.061	3986.37
699.25	4084.67
699.438	3787.72
699.627	3814.34
699.816	3939.27
700.005	3929.03
700.193	3855.3
700.382	3929.03
700.571	3961.8
700.76	3775.43
700.948	3941.32
701.137	3783.62
701.326	3806.15
701.514	3857.35
701.703	3824.58
701.892	3650.5
702.08	3716.04
702.269	3707.85
702.457	3691.46
702.646	3734.47
702.834	3648.46
703.023	3703.75
703.212	3634.12
703.4	3662.79
703.589	3537.87
703.777	3683.27
703.965	3478.47
704.154	3523.53
704.342	3503.05
704.531	3595.21
704.719	3611.59
704.907	3650.5
705.096	3595.21
705.284	3503.05
705.472	3566.54
705.661	3568.59
705.849	3382.22
706.037	3558.35
706.226	3376.08
706.414	3458
706.602	3478.47
706.79	3380.17
706.979	3490.76
707.167	3390.41
707.355	3331.02
707.543	3447.76
707.731	3390.41
707.919	3349.45
708.107	3367.88
708.296	3304.4
708.484	3453.9
708.672	3333.07
708.86	3343.31
709.048	3261.39
709.236	3247.05
709.424	3236.81
709.612	3335.12
709.8	3269.58
709.988	3261.39
710.176	3216.33
710.364	3240.91
710.551	3314.64
710.739	3261.39
710.927	3175.38
711.115	3234.77
711.303	3193.81
711.491	3169.23
711.679	3146.7
711.866	3191.76
712.054	3234.77
712.242	3089.36
712.43	3085.26
712.617	2980.82
712.805	2991.06
712.993	2958.29
713.181	2935.76
713.368	3097.55
713.556	3109.84
713.744	2941.91
713.931	3111.89
714.119	2929.62
714.306	2954.19
714.494	3081.17
714.682	2999.25
714.869	2851.8
715.057	2937.81
715.244	2880.47
715.432	2886.61
715.619	2859.99
715.807	2788.31
715.994	2964.43
716.182	2855.89
716.369	2894.8
716.556	2935.76
716.744	2778.07
716.931	2814.93
717.119	2900.95
717.306	2892.76
717.493	2814.93
717.681	2804.69
717.868	2765.78
718.055	2788.31
718.242	2771.93
718.43	2855.89
718.617	2773.97
718.804	2747.35
718.991	2700.25
719.179	2792.41
719.366	2673.62
719.553	2667.48
719.74	2575.32
719.927	2644.95
720.114	2692.05
720.301	2675.67
720.488	2544.6
720.676	2538.46
720.863	2612.18
721.05	2634.71
721.237	2489.31
721.424	2612.18
721.611	2692.05
721.798	2491.35
721.985	2696.15
722.172	2583.51
722.358	2591.7
722.545	2503.64
722.732	2540.51
722.919	2526.17
723.106	2397.15
723.293	2587.61
723.48	2565.08
723.667	2507.74
723.853	2479.07
724.04	2493.4
724.227	2427.87
724.414	2440.15
724.6	2464.73
724.787	2513.88
724.974	2456.54
725.161	2384.86
725.347	2421.72
725.534	2368.48
725.72	2348
725.907	2421.72
726.094	2286.56
726.28	2350.04
726.467	2352.09
726.653	2331.61
726.84	2399.2
727.027	2272.22
727.213	2319.32
727.4	2266.08
727.586	2249.69
727.773	2266.08
727.959	2286.56
728.145	2311.13
728.332	2192.35
728.518	2321.37
728.705	2317.28
728.891	2323.42
729.077	2270.17
729.264	2178.01
729.45	2270.17
729.636	2167.77
729.823	2194.4
730.009	2325.47
730.195	2214.88
730.382	2178.01
730.568	2274.27
730.754	2208.73
730.94	2079.71
731.126	2161.63
731.313	2249.69
731.499	2200.54
731.685	2094.05
731.871	2167.77
732.057	2169.82
732.243	2184.16
732.429	2235.36
732.615	2130.91
732.801	2124.77
732.987	2016.23
733.173	2077.66
733.359	1952.74
733.545	2048.99
733.731	2028.51
733.917	1995.75
734.103	2018.27
734.289	2061.28
734.475	2065.38
734.661	2157.54
734.847	2092
735.033	2042.85
735.219	2073.57
735.404	2028.51
735.59	1885.16
735.776	1932.26
735.962	2087.9
736.148	1960.93
736.333	2077.66
736.519	1856.48
736.705	1950.69
736.89	1942.5
737.076	1889.25
737.262	1836
737.447	1924.07
737.633	1856.48
737.819	1971.17
738.004	1987.55
738.19	1874.92
738.375	1967.07
738.561	1786.85
738.747	1883.11
738.932	1909.73
739.118	1895.4
739.303	1946.59
739.489	1813.48
739.674	1893.35
739.859	1766.37
740.045	1815.52
740.23	1831.91
740.416	1793
740.601	1799.14
740.786	1856.48
740.972	1668.07
741.157	1782.76
741.342	1749.99
741.528	1766.37
741.713	1772.52
741.898	1692.65
742.084	1842.15
742.269	1741.8
742.454	1823.72
742.639	1764.33
742.824	1737.7
743.01	1661.93
743.195	1803.24
743.38	1582.06
743.565	1721.32
743.75	1709.03
743.935	1602.54
744.12	1721.32
744.305	1637.35
744.49	1610.73
744.675	1625.06
744.86	1635.3
745.045	1635.3
745.23	1537
745.415	1577.96
745.6	1547.24
745.785	1571.82
745.97	1688.55
746.155	1623.02
746.34	1645.54
746.525	1491.95
746.71	1643.49
746.895	1455.08
747.079	1432.55
747.264	1487.85
747.449	1561.58
747.634	1522.66
747.819	1559.53
748.003	1520.62
748.188	1375.21
748.373	1434.6
748.557	1397.74
748.742	1393.64
748.927	1436.65
749.111	1434.6
749.296	1367.02
749.481	1397.74
749.665	1332.2
749.85	1426.41
750.034	1293.29
750.219	1418.22
750.404	1340.4
750.588	1328.11
750.773	1422.31
750.957	1281
751.141	1287.15
751.326	1291.24
751.51	1178.61
751.695	1264.62
751.879	1324.01
752.064	1209.33
752.248	1250.28
752.432	1311.72
752.617	1270.76
752.801	1252.33
752.985	1192.94
753.17	1219.57
753.354	1154.03
753.538	1178.61
753.722	1201.13
753.907	1172.46
754.091	1094.64
754.275	1225.71
754.459	1154.03
754.643	1131.5
754.828	1180.65
755.012	1221.61
755.196	1182.7
755.38	1090.54
755.564	1045.49
755.748	1137.65
755.932	1070.06
756.116	1111.02
756.3	1086.45
756.484	1045.49
756.668	1111.02
756.852	1004.53
757.036	973.81
757.22	1119.21
757.404	1010.67
757.588	943.09
757.772	1059.82
757.956	1053.68
758.14	1037.3
758.323	906.23
758.507	1104.88
758.691	996.34
758.875	1082.35
759.059	1070.06
759.242	979.95
759.426	934.9
759.61	982
759.794	965.62
759.977	873.46
760.161	1092.59
760.345	1004.53
760.528	941.04
760.712	893.94
760.895	949.23
761.079	973.81
761.263	898.03
761.446	807.92
761.63	996.34
761.813	803.83
761.997	879.6
762.18	844.79
762.364	941.04
762.547	881.65
762.731	918.51
762.914	824.31
763.098	803.83
763.281	861.17
763.464	824.31
763.648	910.32
763.831	869.36
764.015	826.36
764.198	840.69
764.381	902.13
764.564	930.8
764.748	836.6
764.931	889.84
765.114	912.37
765.297	834.55
765.481	820.21
765.664	826.36
765.847	750.58
766.03	824.31
766.213	844.79
766.397	775.16
766.58	809.97
766.763	816.12
766.946	783.35
767.129	848.88
767.312	766.96
767.495	789.49
767.678	746.48
767.861	779.25
768.044	721.91
768.227	779.25
768.41	701.43
768.593	760.82
768.776	807.92
768.959	746.48
769.142	799.73
769.324	728.05
769.507	801.78
769.69	744.44
769.873	631.8
770.056	816.12
770.239	769.01
770.421	709.62
770.604	775.16
770.787	723.96
770.97	721.91
771.152	648.18
771.335	693.24
771.518	652.28
771.7	676.85
771.883	637.94
772.066	699.38
772.248	676.85
772.431	766.96
772.613	607.22
772.796	738.29
772.978	662.52
773.161	693.24
773.343	619.51
773.526	639.99
773.708	613.37
773.891	670.71
774.073	654.33
774.256	639.99
774.438	693.24
774.621	668.66
774.803	709.62
774.985	621.56
775.168	664.57
775.35	670.71
775.532	652.28
775.715	590.84
775.897	629.75
776.079	611.32
776.261	666.61
776.444	500.73
776.626	547.83
776.808	553.98
776.99	504.82
777.173	607.22
777.355	551.93
777.537	570.36
777.719	560.12
777.901	594.93
778.083	564.22
778.265	541.69
778.447	539.64
778.629	556.02
778.811	465.91
778.993	543.74
779.175	508.92
779.357	472.06
779.539	470.01
779.721	455.67
779.903	594.93
780.085	496.63
780.267	578.55
780.449	476.15
780.631	541.69
780.812	580.6
780.994	459.77
781.176	396.28
781.358	558.07
781.54	435.19
781.721	521.21
781.903	527.35
782.085	439.29
782.267	470.01
782.448	455.67
782.63	506.87
782.812	375.8
782.993	490.49
783.175	439.29
783.357	402.43
783.538	480.25
783.72	381.95
783.901	465.91
784.083	390.14
784.264	445.43
784.446	367.61
784.627	381.95
784.809	406.52
784.99	515.06
785.172	357.37
785.353	345.08
785.535	443.39
785.716	334.84
785.897	361.47
786.079	310.27
786.26	455.67
786.441	439.29
786.623	318.46
786.804	375.8
786.985	263.16
787.167	392.19
787.348	390.14
787.529	367.61
787.71	379.9
787.891	334.84
788.073	400.38
788.254	357.37
788.435	390.14
788.616	359.42
788.797	306.17
788.978	375.8
789.159	265.21
789.34	365.56
789.522	267.26
789.703	318.46
789.884	297.98
790.065	259.07
790.246	369.66
790.427	369.66
790.607	408.57
790.788	281.6
790.969	353.27
791.15	359.42
791.331	332.79
791.512	328.7
791.693	334.84
791.874	244.73
792.054	406.52
792.235	291.84
792.416	336.89
792.597	226.3
792.778	318.46
792.958	308.22
793.139	300.03
793.32	320.51
793.5	160.77
793.681	347.13
793.862	347.13
794.042	240.64
794.223	316.41
794.404	226.3
794.584	283.64
794.765	209.92
794.945	277.5
795.126	244.73
795.306	242.68
795.487	222.2
795.667	261.12
795.848	232.44
796.028	230.4
796.209	269.31
796.389	281.6
796.57	154.62
796.75	275.45
796.93	261.12
797.111	166.91
797.291	201.72
797.471	234.49
797.652	175.1
797.832	267.26
798.012	218.11
798.192	160.77
798.373	230.4
798.553	263.16
798.733	254.97
798.913	214.01
799.093	254.97
799.274	246.78
799.454	226.3
799.634	218.11
799.814	263.16
799.994	224.25
800.174	236.54
800.354	316.41
800.534	168.96
800.714	152.57
800.894	136.19
801.074	185.34
801.254	136.19
801.434	148.48
801.614	236.54
801.794	189.44
801.974	859.12
802.154	123.9
802.334	234.49
802.514	218.11
802.693	146.43
802.873	201.72
803.053	193.53
803.233	216.06
803.413	291.84
803.592	162.81
803.772	177.15
803.952	164.86
804.131	148.48
804.311	236.54
804.491	220.16
804.67	121.85
804.85	113.66
805.03	218.11
805.209	191.49
805.389	115.71
805.568	201.72
805.748	80.89
805.928	168.96
806.107	189.44
806.287	185.34
806.466	193.53
806.646	128
806.825	130.05
807.004	152.57
807.184	195.58
807.363	130.05
807.543	142.33
807.722	168.96
807.901	207.87
808.081	259.07
808.26	125.95
808.439	189.44
808.619	152.57
808.798	152.57
808.977	177.15
809.156	144.38
809.336	130.05
809.515	168.96
809.694	185.34
809.873	29.7
810.052	214.01
810.231	205.82
810.411	136.19
810.59	224.25
810.769	128
810.948	130.05
811.127	31.74
811.306	144.38
811.485	123.9
811.664	142.33
811.843	185.34
812.022	220.16
812.201	197.63
812.38	175.1
812.559	66.56
812.737	144.38
812.916	117.76
813.095	29.7
813.274	121.85
813.453	115.71
813.632	84.99
813.811	201.72
813.989	119.81
814.168	80.89
814.347	48.13
814.526	130.05
814.704	154.62
814.883	177.15
815.062	148.48
815.24	156.67
815.419	58.37
815.598	128
815.776	128
815.955	95.23
816.133	46.08
816.312	74.75
816.49	78.85
816.669	78.85
816.847	78.85
817.026	37.89
817.204	130.05
817.383	74.75
817.561	99.33
817.74	74.75
817.918	130.05
818.097	148.48
818.275	-19.46
818.453	95.23
818.632	109.57
818.81	103.42
818.988	128
819.167	58.37
819.345	123.9
819.523	125.95
819.701	103.42
819.879	136.19
820.058	80.89
820.236	76.8
820.414	70.65
820.592	123.9
820.77	74.75
820.948	154.62
821.127	132.09
821.305	97.28
821.483	25.6
821.661	173.05
821.839	128
822.017	50.18
822.195	109.57
822.373	156.67
822.551	48.13
822.729	160.77
822.907	134.14
823.085	160.77
823.262	33.79
823.44	31.74
823.618	66.56
823.796	158.72
823.974	107.52
824.152	78.85
824.329	74.75
824.507	111.61
824.685	62.46
824.863	107.52
825.04	-17.41
825.218	72.7
825.396	78.85
825.574	87.04
825.751	111.61
825.929	130.05
826.107	78.85
826.284	111.61
826.462	99.33
826.639	31.74
826.817	46.08
826.994	68.61
827.172	23.55
827.349	70.65
827.527	89.09
827.704	111.61
827.882	41.98
828.059	95.23
828.237	70.65
828.414	64.51
828.591	74.75
828.769	74.75
828.946	54.27
829.124	146.43
829.301	95.23
829.478	97.28
829.655	123.9
829.833	97.28
830.01	15.36
830.187	111.61
830.364	66.56
830.542	56.32
830.719	91.13
830.896	140.29
831.073	62.46
831.25	123.9
831.427	105.47
831.604	58.37
831.782	25.6
831.959	62.46
832.136	89.09
832.313	95.23
832.49	72.7
832.667	138.24
832.844	46.08
833.021	87.04
833.198	74.75
833.374	72.7
833.551	62.46
833.728	48.13
833.905	115.71
834.082	15.36
834.259	62.46
834.436	132.09
834.612	-35.84
834.789	95.23
834.966	91.13
835.143	95.23
835.319	13.31
835.496	58.37
835.673	78.85
835.85	111.61
836.026	107.52
836.203	39.94
836.38	68.61
836.556	13.31
836.733	-11.26
836.909	99.33
837.086	46.08
837.262	13.31
837.439	-27.65
837.616	52.22
837.792	48.13
837.968	52.22
838.145	25.6
838.321	33.79
838.498	97.28
838.674	48.13
838.851	21.5
839.027	17.41
839.203	46.08
839.38	46.08
839.556	64.51
839.732	29.7
839.909	29.7
840.085	25.6
840.261	11.26
840.437	62.46
840.614	62.46
840.79	82.94
840.966	23.55
841.142	78.85
841.318	101.37
841.494	54.27
841.671	54.27
841.847	74.75
842.023	23.55
842.199	64.51
842.375	82.94
842.551	29.7
842.727	-27.65
842.903	95.23
843.079	29.7
843.255	109.57
843.431	21.5
843.607	107.52
843.783	-41.98
843.959	130.05
844.134	-3.07
844.31	89.09
844.486	74.75
844.662	-44.03
844.838	78.85
845.013	64.51
845.189	87.04
845.365	5.12
845.541	33.79
845.716	91.13
845.892	44.03
846.068	70.65
846.244	-33.79
846.419	54.27
846.595	17.41
846.77	46.08
846.946	138.24
847.122	80.89
847.297	78.85
847.473	115.71
847.648	-35.84
847.824	95.23
847.999	-27.65
848.175	39.94
848.35	99.33
848.526	46.08
848.701	119.81
848.876	-25.6
849.052	13.31
849.227	-3.07
849.403	37.89
849.578	41.98
849.753	7.17
849.929	62.46
850.104	-17.41
850.279	48.13
850.454	97.28
850.63	37.89
850.805	111.61
850.98	39.94
851.155	9.22
851.33	103.42
851.505	-23.55
851.681	95.23
851.856	46.08
852.031	87.04
852.206	97.28
852.381	13.31
852.556	52.22
852.731	89.09
852.906	95.23
853.081	76.8
853.256	78.85
853.431	23.55
853.606	-3.07
853.781	54.27
853.956	41.98
854.131	21.5
854.305	-11.26
854.48	1.02
854.655	15.36
854.83	41.98
855.005	128
855.18	-15.36
855.354	-17.41
855.529	25.6
855.704	62.46
855.879	99.33
856.053	66.56
856.228	46.08
856.403	15.36
856.577	21.5
856.752	-13.31
856.926	3.07
857.101	62.46
857.276	13.31
857.45	115.71
857.625	70.65
857.799	-11.26
857.974	-11.26
858.148	-60.42
858.323	37.89
858.497	3.07
858.672	17.41
858.846	21.5
859.02	107.52
859.195	-11.26
859.369	-31.74
859.543	13.31
859.718	23.55
859.892	-74.75
860.066	76.8
860.241	-82.94
860.415	78.85
860.589	62.46
860.763	19.46
860.938	29.7
861.112	-58.37
861.286	41.98
861.46	11.26
861.634	-11.26
861.808	46.08
861.982	54.27
862.157	-39.94
862.331	-44.03
862.505	-9.22
862.679	-19.46
862.853	-41.98
863.027	50.18
863.201	56.32
863.375	7.17
863.549	46.08
863.722	11.26
863.896	95.23
864.07	-23.55
864.244	17.41
864.418	93.18
864.592	1.02
864.766	80.89
864.939	89.09
865.113	19.46
865.287	13.31
865.461	17.41
865.634	9.22
865.808	9.22
865.982	87.04
866.156	7.17
866.329	1.02
866.503	70.65
866.676	21.5
866.85	33.79
867.024	56.32
867.197	31.74
867.371	5.12
867.544	-23.55
867.718	-99.33
867.891	31.74
868.065	52.22
868.238	-19.46
868.412	46.08
868.585	-1.02
868.759	-19.46
868.932	48.13
869.105	-25.6
869.279	37.89
869.452	17.41
869.625	31.74
869.799	74.75
869.972	9.22
870.145	-19.46
870.319	82.94
870.492	29.7
870.665	-33.79
870.838	-25.6
871.011	-39.94
871.185	-7.17
871.358	39.94
871.531	13.31
871.704	13.31
871.877	44.03
872.05	15.36
872.223	-50.18
872.396	25.6
872.569	54.27
872.742	-5.12
872.915	23.55
873.088	-17.41
873.261	-93.18
873.434	7.17
873.607	3.07
873.78	62.46
873.953	-72.7
874.126	7.17
874.299	58.37
874.471	-15.36
874.644	11.26
874.817	39.94
874.99	111.61
875.163	-35.84
875.335	48.13
875.508	-19.46
875.681	111.61
875.853	21.5
876.026	-11.26
876.199	5.12
876.371	64.51
876.544	62.46
876.717	-3.07
876.889	-17.41
877.062	-35.84
877.234	-19.46
877.407	58.37
877.579	-33.79
877.752	-3.07
877.924	80.89
878.097	25.6
878.269	48.13
878.442	-58.37
878.614	-11.26
878.786	21.5
878.959	-19.46
879.131	9.22
879.303	-11.26
879.476	1.02
879.648	29.7
879.82	-11.26
879.993	50.18
880.165	31.74
880.337	15.36
880.509	-1.02
880.681	9.22
880.854	-39.94
881.026	37.89
881.198	78.85
881.37	17.41
881.542	-97.28
881.714	37.89
881.886	-35.84
882.058	31.74
882.23	46.08
882.402	23.55
882.574	-31.74
882.746	62.46
882.918	52.22
883.09	-29.7
883.262	7.17
883.434	-15.36
883.606	-27.65
883.778	-11.26
883.95	25.6
884.122	11.26
884.293	13.31
884.465	-19.46
884.637	54.27
884.809	7.17
884.98	-7.17
885.152	-11.26
885.324	-41.98
885.496	62.46
885.667	54.27
885.839	31.74
886.011	95.23
886.182	50.18
886.354	62.46
886.525	5.12
886.697	7.17
886.869	-29.7
887.04	52.22
887.212	78.85
887.383	37.89
887.555	41.98
887.726	-101.37
887.897	21.5
888.069	72.7
888.24	78.85
888.412	-19.46
888.583	-80.89
888.754	13.31
888.926	-39.94
889.097	5.12
889.268	-9.22
889.44	15.36
889.611	-44.03
889.782	-44.03
889.953	1.02
890.125	56.32
890.296	-7.17
890.467	-31.74
890.638	5.12
890.809	39.94
890.98	41.98
891.151	31.74
891.323	-37.89
891.494	21.5
891.665	-31.74
891.836	54.27
892.007	9.22
892.178	-1.02
892.349	-35.84
892.52	-3.07
892.691	13.31
892.862	-29.7
893.032	-7.17
893.203	-11.26
893.374	66.56
893.545	62.46
893.716	-37.89
893.887	56.32
894.057	-64.51
894.228	27.65
894.399	5.12
894.57	23.55
894.74	-9.22
894.911	48.13
895.082	-3.07
895.253	46.08
895.423	11.26
895.594	72.7
895.764	29.7
895.935	23.55
896.106	-60.42
896.276	-41.98
896.447	-21.5
896.617	3.07
896.788	-93.18
896.958	13.31
897.129	25.6
897.299	7.17
897.47	111.61
897.64	72.7
897.81	-56.32
897.981	46.08
898.151	-11.26
898.322	9.22
898.492	3.07
898.662	48.13
898.832	58.37
899.003	-41.98
899.173	56.32
899.343	1.02
899.513	-1.02
