Data from USB4F104151__195__14-33-10-552.txt Node

Date: Thu Mar 13 14:33:10 EDT 2025
User: louis
Spectrometer: USB4F10415
Trigger mode: 4
Integration Time (sec): 2.500000E-2
Scans to average: 1
Electric dark correction enabled: true
Nonlinearity correction enabled: false
Boxcar width: 0
XAxis mode: Wavelengths
Number of Pixels in Spectrum: 3648
>>>>>Begin Spectral Data<<<<<
178.204	-167.25
178.424	-167.25
178.644	-167.25
178.864	-140.63
179.084	-171.35
179.304	-9.56
179.524	21.16
179.744	4.78
179.964	4.78
180.184	29.35
180.404	4.78
180.624	-7.51
180.844	4.78
181.064	-44.37
181.283	39.59
181.503	-64.85
181.723	17.07
181.943	-95.57
182.163	47.79
182.383	-19.8
182.602	8.87
182.822	82.6
183.042	17.07
183.262	-42.32
183.482	-21.85
183.701	62.12
183.921	78.51
184.141	-36.18
184.361	-7.51
184.58	53.93
184.8	-23.89
185.02	-64.85
185.239	103.08
185.459	4.78
185.679	21.16
185.898	-87.38
186.118	113.32
186.338	-1.37
186.557	78.51
186.777	-11.61
186.997	21.16
187.216	23.21
187.436	45.74
187.655	37.55
187.875	58.03
188.095	-103.76
188.314	47.79
188.534	78.51
188.753	12.97
188.973	70.31
189.192	37.55
189.412	58.03
189.631	-30.04
189.851	-15.7
190.07	96.94
190.29	-77.14
190.509	-7.51
190.729	-3.41
190.948	37.55
191.168	31.4
191.387	64.17
191.607	12.97
191.826	21.16
192.045	23.21
192.265	62.12
192.484	37.55
192.704	31.4
192.923	31.4
193.142	119.46
193.362	53.93
193.581	94.89
193.8	21.16
194.02	41.64
194.239	-50.52
194.458	86.7
194.678	15.02
194.897	-32.08
195.116	-50.52
195.335	-3.41
195.555	-9.56
195.774	-1.37
195.993	43.69
196.212	-25.94
196.432	64.17
196.651	2.73
196.87	68.27
197.089	70.31
197.308	62.12
197.528	162.47
197.747	-11.61
197.966	37.55
198.185	53.93
198.404	47.79
198.623	25.26
198.842	29.35
199.062	0.68
199.281	121.51
199.5	4.78
199.719	82.6
199.938	55.98
200.157	84.65
200.376	82.6
200.595	-25.94
200.814	-25.94
201.033	35.5
201.252	-1.37
201.471	-7.51
201.69	-34.13
201.909	53.93
202.128	55.98
202.347	78.51
202.566	-66.9
202.785	-36.18
203.004	-44.37
203.223	98.99
203.442	23.21
203.661	6.83
203.879	49.83
204.098	68.27
204.317	-3.41
204.536	78.51
204.755	23.21
204.974	-7.51
205.193	21.16
205.411	88.75
205.63	37.55
205.849	58.03
206.068	-27.99
206.287	45.74
206.505	113.32
206.724	-3.41
206.943	35.5
207.162	39.59
207.381	37.55
207.599	-15.7
207.818	-13.65
208.037	53.93
208.255	62.12
208.474	53.93
208.693	78.51
208.911	8.87
209.13	25.26
209.349	12.97
209.567	70.31
209.786	86.7
210.005	31.4
210.223	8.87
210.442	-27.99
210.661	23.21
210.879	31.4
211.098	12.97
211.316	17.07
211.535	82.6
211.753	62.12
211.972	4.78
212.191	23.21
212.409	-19.8
212.628	53.93
212.846	-3.41
213.065	41.64
213.283	103.08
213.502	-3.41
213.72	47.79
213.938	45.74
214.157	72.36
214.375	-66.9
214.594	29.35
214.812	-13.65
215.031	-34.13
215.249	23.21
215.467	45.74
215.686	-17.75
215.904	12.97
216.122	-23.89
216.341	127.66
216.559	31.4
216.778	19.11
216.996	98.99
217.214	53.93
217.432	45.74
217.651	-58.71
217.869	-3.41
218.087	-36.18
218.306	-7.51
218.524	47.79
218.742	0.68
218.96	35.5
219.179	31.4
219.397	-1.37
219.615	90.79
219.833	23.21
220.051	6.83
220.27	45.74
220.488	53.93
220.706	-60.76
220.924	62.12
221.142	23.21
221.36	51.88
221.578	21.16
221.796	111.27
222.015	103.08
222.233	39.59
222.451	78.51
222.669	-3.41
222.887	-13.65
223.105	23.21
223.323	-1.37
223.541	37.55
223.759	0.68
223.977	-5.46
224.195	58.03
224.413	4.78
224.631	98.99
224.849	8.87
225.067	58.03
225.285	21.16
225.503	19.11
225.721	-11.61
225.939	-34.13
226.157	84.65
226.375	111.27
226.592	0.68
226.81	62.12
227.028	21.16
227.246	94.89
227.464	-3.41
227.682	0.68
227.9	72.36
228.117	43.69
228.335	-7.51
228.553	17.07
228.771	70.31
228.989	-7.51
229.206	29.35
229.424	-17.75
229.642	33.45
229.86	-7.51
230.077	64.17
230.295	62.12
230.513	78.51
230.731	-27.99
230.948	70.31
231.166	17.07
231.384	6.83
231.601	-25.94
231.819	45.74
232.037	-36.18
232.254	-58.71
232.472	-34.13
232.689	0.68
232.907	21.16
233.125	66.22
233.342	-19.8
233.56	39.59
233.777	31.4
233.995	-25.94
234.213	21.16
234.43	33.45
234.648	-32.08
234.865	12.97
235.083	0.68
235.3	37.55
235.518	-11.61
235.735	96.94
235.953	53.93
236.17	-32.08
236.388	-68.95
236.605	-38.23
236.822	-40.28
237.04	12.97
237.257	70.31
237.475	-23.89
237.692	0.68
237.909	-9.56
238.127	31.4
238.344	78.51
238.562	-9.56
238.779	55.98
238.996	23.21
239.214	12.97
239.431	25.26
239.648	6.83
239.865	8.87
240.083	37.55
240.3	66.22
240.517	-25.94
240.735	-9.56
240.952	25.26
241.169	72.36
241.386	70.31
241.603	-34.13
241.821	-25.94
242.038	-3.41
242.255	41.64
242.472	-52.56
242.689	29.35
242.907	96.94
243.124	31.4
243.341	23.21
243.558	86.7
243.775	15.02
243.992	-15.7
244.209	-17.75
244.426	135.85
244.643	123.56
244.86	39.59
245.078	23.21
245.295	94.89
245.512	33.45
245.729	8.87
245.946	39.59
246.163	-1.37
246.38	45.74
246.597	123.56
246.814	37.55
247.031	17.07
247.248	21.16
247.464	64.17
247.681	45.74
247.898	0.68
248.115	12.97
248.332	-17.75
248.549	-7.51
248.766	19.11
248.983	111.27
249.2	12.97
249.417	64.17
249.633	41.64
249.85	23.21
250.067	-23.89
250.284	-48.47
250.501	88.75
250.717	47.79
250.934	-5.46
251.151	27.31
251.368	-21.85
251.585	137.9
251.801	119.46
252.018	6.83
252.235	74.41
252.451	17.07
252.668	-1.37
252.885	8.87
253.102	74.41
253.318	29.35
253.535	49.83
253.752	53.93
253.968	-5.46
254.185	4.78
254.401	37.55
254.618	17.07
254.835	0.68
255.051	45.74
255.268	31.4
255.484	55.98
255.701	58.03
255.917	88.75
256.134	12.97
256.351	-36.18
256.567	4.78
256.784	15.02
257	74.41
257.217	49.83
257.433	29.35
257.65	4.78
257.866	53.93
258.082	33.45
258.299	-5.46
258.515	88.75
258.732	17.07
258.948	-3.41
259.165	49.83
259.381	15.02
259.597	-11.61
259.814	35.5
260.03	27.31
260.246	-36.18
260.463	64.17
260.679	8.87
260.895	62.12
261.112	37.55
261.328	23.21
261.544	-54.61
261.761	199.34
261.977	12.97
262.193	-77.14
262.409	21.16
262.626	15.02
262.842	55.98
263.058	12.97
263.274	39.59
263.49	10.92
263.707	-36.18
263.923	-15.7
264.139	-11.61
264.355	68.27
264.571	-40.28
264.787	-13.65
265.004	68.27
265.22	41.64
265.436	29.35
265.652	45.74
265.868	-3.41
266.084	4.78
266.3	12.97
266.516	-52.56
266.732	41.64
266.948	37.55
267.164	64.17
267.38	29.35
267.596	25.26
267.812	39.59
268.028	107.18
268.244	-11.61
268.46	10.92
268.676	49.83
268.892	-11.61
269.108	4.78
269.324	8.87
269.54	72.36
269.756	37.55
269.972	-32.08
270.188	53.93
270.403	51.88
270.619	-1.37
270.835	4.78
271.051	43.69
271.267	-50.52
271.483	10.92
271.698	74.41
271.914	72.36
272.13	25.26
272.346	43.69
272.562	21.16
272.777	53.93
272.993	-64.85
273.209	94.89
273.425	39.59
273.64	-17.75
273.856	94.89
274.072	19.11
274.287	-7.51
274.503	29.35
274.719	-7.51
274.934	-17.75
275.15	-23.89
275.366	23.21
275.581	-1.37
275.797	80.55
276.012	47.79
276.228	72.36
276.444	21.16
276.659	80.55
276.875	-27.99
277.09	51.88
277.306	17.07
277.521	45.74
277.737	35.5
277.952	80.55
278.168	47.79
278.383	127.66
278.599	-68.95
278.814	62.12
279.03	39.59
279.245	29.35
279.461	80.55
279.676	72.36
279.892	45.74
280.107	-44.37
280.322	-30.04
280.538	-15.7
280.753	-27.99
280.969	45.74
281.184	-48.47
281.399	37.55
281.615	96.94
281.83	-11.61
282.045	-54.61
282.26	12.97
282.476	76.46
282.691	55.98
282.906	-23.89
283.122	53.93
283.337	29.35
283.552	39.59
283.767	-44.37
283.983	80.55
284.198	39.59
284.413	-1.37
284.628	-68.95
284.843	4.78
285.058	66.22
285.274	37.55
285.489	21.16
285.704	53.93
285.919	45.74
286.134	12.97
286.349	80.55
286.564	-9.56
286.779	127.66
286.995	86.7
287.21	-44.37
287.425	88.75
287.64	0.68
287.855	25.26
288.07	-32.08
288.285	70.31
288.5	82.6
288.715	72.36
288.93	-44.37
289.145	23.21
289.36	64.17
289.575	6.83
289.79	8.87
290.004	66.22
290.219	41.64
290.434	86.7
290.649	55.98
290.864	45.74
291.079	-21.85
291.294	66.22
291.509	66.22
291.724	-50.52
291.938	6.83
292.153	86.7
292.368	12.97
292.583	29.35
292.798	70.31
293.012	19.11
293.227	119.46
293.442	103.08
293.657	135.85
293.871	4.78
294.086	62.12
294.301	45.74
294.516	39.59
294.73	-25.94
294.945	51.88
295.16	62.12
295.374	111.27
295.589	12.97
295.804	74.41
296.018	29.35
296.233	74.41
296.447	74.41
296.662	-9.56
296.877	0.68
297.091	31.4
297.306	33.45
297.52	23.21
297.735	31.4
297.949	12.97
298.164	-34.13
298.378	62.12
298.593	137.9
298.807	-58.71
299.022	4.78
299.236	55.98
299.451	49.83
299.665	64.17
299.88	-36.18
300.094	105.13
300.309	8.87
300.523	119.46
300.737	37.55
300.952	86.7
301.166	31.4
301.381	15.02
301.595	31.4
301.809	84.65
302.024	60.07
302.238	-60.76
302.452	12.97
302.667	25.26
302.881	78.51
303.095	-27.99
303.309	21.16
303.524	-27.99
303.738	-27.99
303.952	25.26
304.166	107.18
304.381	2.73
304.595	62.12
304.809	0.68
305.023	135.85
305.237	37.55
305.452	49.83
305.666	12.97
305.88	103.08
306.094	107.18
306.308	8.87
306.522	45.74
306.736	39.59
306.95	47.79
307.164	78.51
307.379	15.02
307.593	84.65
307.807	84.65
308.021	53.93
308.235	86.7
308.449	45.74
308.663	8.87
308.877	74.41
309.091	12.97
309.305	41.64
309.519	-1.37
309.733	88.75
309.947	-40.28
310.161	55.98
310.374	-9.56
310.588	55.98
310.802	78.51
311.016	41.64
311.23	8.87
311.444	49.83
311.658	23.21
311.872	146.09
312.085	35.5
312.299	55.98
312.513	86.7
312.727	72.36
312.941	-13.65
313.154	21.16
313.368	41.64
313.582	62.12
313.796	-1.37
314.009	70.31
314.223	98.99
314.437	137.9
314.651	25.26
314.864	29.35
315.078	90.79
315.292	53.93
315.505	62.12
315.719	70.31
315.933	51.88
316.146	31.4
316.36	53.93
316.573	70.31
316.787	-32.08
317.001	37.55
317.214	-17.75
317.428	21.16
317.641	53.93
317.855	68.27
318.068	17.07
318.282	-3.41
318.495	105.13
318.709	-17.75
318.922	94.89
319.136	70.31
319.349	53.93
319.563	23.21
319.776	53.93
319.99	-58.71
320.203	31.4
320.417	17.07
320.63	35.5
320.843	162.47
321.057	6.83
321.27	31.4
321.483	21.16
321.697	82.6
321.91	47.79
322.124	12.97
322.337	119.46
322.55	0.68
322.763	-9.56
322.977	-60.76
323.19	-25.94
323.403	70.31
323.617	12.97
323.83	70.31
324.043	45.74
324.256	101.03
324.469	12.97
324.683	53.93
324.896	10.92
325.109	62.12
325.322	58.03
325.535	70.31
325.748	148.14
325.962	-46.42
326.175	39.59
326.388	90.79
326.601	68.27
326.814	8.87
327.027	62.12
327.24	127.66
327.453	-3.41
327.666	55.98
327.879	19.11
328.092	96.94
328.305	2.73
328.518	29.35
328.731	-48.47
328.944	-36.18
329.157	0.68
329.37	41.64
329.583	29.35
329.796	70.31
330.009	-21.85
330.222	78.51
330.435	119.46
330.648	98.99
330.861	127.66
331.073	53.93
331.286	60.07
331.499	62.12
331.712	-64.85
331.925	31.4
332.138	58.03
332.35	72.36
332.563	-36.18
332.776	4.78
332.989	-27.99
333.202	37.55
333.414	12.97
333.627	78.51
333.84	-34.13
334.053	23.21
334.265	4.78
334.478	-9.56
334.691	39.59
334.903	41.64
335.116	-11.61
335.329	68.27
335.541	-75.09
335.754	84.65
335.966	-3.41
336.179	-11.61
336.392	-7.51
336.604	41.64
336.817	78.51
337.029	49.83
337.242	45.74
337.454	111.27
337.667	84.65
337.88	72.36
338.092	25.26
338.305	31.4
338.517	68.27
338.729	94.89
338.942	103.08
339.154	53.93
339.367	41.64
339.579	39.59
339.792	21.16
340.004	129.7
340.217	53.93
340.429	21.16
340.641	15.02
340.854	25.26
341.066	15.02
341.278	86.7
341.491	66.22
341.703	150.18
341.915	-27.99
342.128	8.87
342.34	27.31
342.552	-11.61
342.764	25.26
342.977	12.97
343.189	64.17
343.401	94.89
343.613	80.55
343.826	82.6
344.038	4.78
344.25	53.93
344.462	37.55
344.674	29.35
344.886	51.88
345.099	64.17
345.311	111.27
345.523	21.16
345.735	39.59
345.947	12.97
346.159	8.87
346.371	33.45
346.583	49.83
346.795	119.46
347.007	39.59
347.219	47.79
347.431	17.07
347.643	86.7
347.855	15.02
348.067	60.07
348.279	17.07
348.491	27.31
348.703	21.16
348.915	72.36
349.127	62.12
349.339	80.55
349.551	-48.47
349.763	115.37
349.975	8.87
350.187	-38.23
350.399	105.13
350.61	39.59
350.822	55.98
351.034	133.8
351.246	-7.51
351.458	37.55
351.669	2.73
351.881	72.36
352.093	62.12
352.305	68.27
352.517	144.04
352.728	111.27
352.94	4.78
353.152	62.12
353.363	-34.13
353.575	8.87
353.787	62.12
353.999	-9.56
354.21	178.86
354.422	55.98
354.633	17.07
354.845	33.45
355.057	86.7
355.268	37.55
355.48	74.41
355.692	-3.41
355.903	98.99
356.115	53.93
356.326	-77.14
356.538	90.79
356.749	62.12
356.961	94.89
357.172	31.4
357.384	33.45
357.595	105.13
357.807	70.31
358.018	15.02
358.23	66.22
358.441	137.9
358.653	12.97
358.864	76.46
359.075	74.41
359.287	113.32
359.498	12.97
359.709	19.11
359.921	55.98
360.132	55.98
360.344	105.13
360.555	-3.41
360.766	80.55
360.977	37.55
361.189	62.12
361.4	17.07
361.611	55.98
361.823	103.08
362.034	29.35
362.245	-34.13
362.456	68.27
362.667	51.88
362.879	4.78
363.09	135.85
363.301	6.83
363.512	64.17
363.723	47.79
363.935	-9.56
364.146	144.04
364.357	25.26
364.568	72.36
364.779	4.78
364.99	10.92
365.201	-3.41
365.412	70.31
365.623	45.74
365.834	86.7
366.045	0.68
366.256	86.7
366.467	45.74
366.678	49.83
366.889	43.69
367.1	74.41
367.311	64.17
367.522	45.74
367.733	-19.8
367.944	70.31
368.155	62.12
368.366	105.13
368.577	39.59
368.788	23.21
368.999	47.79
369.209	-25.94
369.42	94.89
369.631	148.14
369.842	-15.7
370.053	113.32
370.264	82.6
370.474	35.5
370.685	27.31
370.896	78.51
371.107	55.98
371.317	4.78
371.528	115.37
371.739	113.32
371.95	31.4
372.16	31.4
372.371	4.78
372.582	45.74
372.792	94.89
373.003	78.51
373.214	64.17
373.424	62.12
373.635	2.73
373.846	156.33
374.056	80.55
374.267	60.07
374.477	86.7
374.688	96.94
374.898	96.94
375.109	43.69
375.319	37.55
375.53	105.13
375.74	6.83
375.951	12.97
376.161	109.22
376.372	66.22
376.582	49.83
376.793	-3.41
377.003	-9.56
377.214	15.02
377.424	51.88
377.635	-19.8
377.845	47.79
378.055	164.52
378.266	39.59
378.476	43.69
378.686	53.93
378.897	21.16
379.107	113.32
379.317	64.17
379.528	-50.52
379.738	15.02
379.948	70.31
380.158	113.32
380.369	51.88
380.579	62.12
380.789	39.59
380.999	131.75
381.21	131.75
381.42	152.23
381.63	105.13
381.84	94.89
382.05	80.55
382.261	137.9
382.471	76.46
382.681	29.35
382.891	119.46
383.101	137.9
383.311	33.45
383.521	39.59
383.731	84.65
383.941	105.13
384.151	96.94
384.361	15.02
384.571	111.27
384.781	111.27
384.991	150.18
385.201	107.18
385.411	82.6
385.621	37.55
385.831	146.09
386.041	76.46
386.251	117.42
386.461	86.7
386.671	107.18
386.881	53.93
387.091	72.36
387.301	70.31
387.511	37.55
387.72	107.18
387.93	72.36
388.14	21.16
388.35	60.07
388.56	90.79
388.769	82.6
388.979	103.08
389.189	43.69
389.399	103.08
389.609	160.42
389.818	103.08
390.028	88.75
390.238	119.46
390.447	29.35
390.657	137.9
390.867	15.02
391.076	19.11
391.286	64.17
391.496	105.13
391.705	45.74
391.915	88.75
392.125	105.13
392.334	53.93
392.544	119.46
392.753	84.65
392.963	86.7
393.172	201.38
393.382	64.17
393.591	154.28
393.801	82.6
394.01	199.34
394.22	160.42
394.429	107.18
394.639	78.51
394.848	185
395.058	105.13
395.267	78.51
395.477	107.18
395.686	119.46
395.895	168.62
396.105	121.51
396.314	139.94
396.524	53.93
396.733	119.46
396.942	217.77
397.152	66.22
397.361	117.42
397.57	64.17
397.78	29.35
397.989	133.8
398.198	260.77
398.407	133.8
398.617	94.89
398.826	78.51
399.035	129.7
399.244	185
399.453	170.66
399.663	119.46
399.872	144.04
400.081	119.46
400.29	260.77
400.499	164.52
400.708	176.81
400.917	141.99
401.127	127.66
401.336	129.7
401.545	154.28
401.754	203.43
401.963	252.58
402.172	166.57
402.381	144.04
402.59	195.24
402.799	152.23
403.008	164.52
403.217	156.33
403.426	146.09
403.635	111.27
403.844	115.37
404.053	164.52
404.262	172.71
404.471	254.63
404.68	205.48
404.888	205.48
405.097	160.42
405.306	172.71
405.515	193.19
405.724	152.23
405.933	234.15
406.142	195.24
406.35	201.38
406.559	234.15
406.768	174.76
406.977	307.88
407.185	246.44
407.394	314.02
407.603	305.83
407.812	334.5
408.02	375.46
408.229	309.93
408.438	291.49
408.646	193.19
408.855	348.84
409.064	271.01
409.272	381.6
409.481	457.38
409.69	359.08
409.898	375.46
410.107	430.76
410.315	430.76
410.524	350.89
410.733	465.57
410.941	494.24
411.15	551.59
411.358	514.72
411.567	635.55
411.775	461.48
411.984	645.79
412.192	588.45
412.401	576.16
412.609	680.61
412.818	670.37
413.026	631.46
413.234	602.79
413.443	774.81
413.651	615.07
413.86	807.58
414.068	787.1
414.276	821.92
414.485	815.77
414.693	967.32
414.901	1049.24
415.11	993.95
415.318	1045.15
415.526	1061.53
415.734	1073.82
415.943	1198.74
416.151	1129.11
416.359	1168.02
416.567	1315.48
416.776	1249.94
416.984	1403.54
417.192	1434.26
417.4	1411.73
417.608	1329.81
417.817	1483.41
418.025	1505.94
418.233	1587.86
418.441	1587.86
418.649	1669.78
418.857	1766.03
419.065	1958.54
419.273	1882.77
419.481	1872.53
419.689	2015.88
419.897	2034.32
420.105	2024.08
420.313	2146.95
420.521	2237.06
420.729	2335.37
420.937	2409.09
421.145	2405
421.353	2550.4
421.561	2783.87
421.769	2757.25
421.977	2912.89
422.185	2898.56
422.393	3162.75
422.601	3287.67
422.809	3168.89
423.017	3334.78
423.224	3261.05
423.432	3617.4
423.64	3523.19
423.848	3906.16
424.056	3730.03
424.263	4049.52
424.471	4043.37
424.679	4065.9
424.887	4342.38
425.094	4487.78
425.302	4495.97
425.51	4717.15
425.718	4758.11
425.925	4924
426.133	5075.55
426.341	5284.44
426.548	5577.3
426.756	5567.06
426.964	5648.98
427.171	5896.78
427.379	6025.81
427.586	6177.36
427.794	6429.26
428.001	6515.27
428.209	7098.94
428.417	6914.63
428.624	7449.14
428.832	7422.52
429.039	7285.31
429.247	7496.25
429.454	8008.24
429.662	8415.79
429.869	8020.53
430.076	8503.85
430.284	8065.58
430.491	8507.94
430.699	9054.75
430.906	9228.83
431.114	9108
431.321	9441.82
431.528	9853.46
431.736	10408.46
431.943	10859.01
432.15	10506.76
432.358	10560.01
432.565	11317.76
432.772	11328
432.979	11686.39
433.187	12130.8
433.394	11950.58
433.601	12792.3
433.808	12796.39
434.016	12835.3
434.223	13195.75
434.43	14062.04
434.637	14002.65
434.844	14707.15
435.052	14809.54
435.259	14995.91
435.466	14997.96
435.673	14907.85
435.88	15995.32
436.087	16660.91
436.294	16718.25
436.501	16472.5
436.708	16587.18
436.915	17170.85
437.122	17920.41
437.329	17754.52
437.537	18442.64
437.743	18575.76
437.95	18502.03
438.157	19499.39
438.364	19986.81
438.571	20083.06
438.778	20277.62
438.985	21961.05
439.192	21408.1
439.399	21719.39
439.606	21440.87
439.813	22612.31
440.02	23974.2
440.227	23611.71
440.433	23445.83
440.64	23953.73
440.847	23789.89
441.054	24412.47
441.261	26210.59
441.467	25463.08
441.674	26132.76
441.881	26939.66
442.088	27056.4
442.294	26865.94
442.501	27580.68
442.708	28117.25
442.914	29157.61
443.121	29995.23
443.328	29133.04
443.534	31447.24
443.741	30783.7
443.948	30372.06
444.154	32258.24
444.361	32407.74
444.568	32465.08
444.774	32317.63
444.981	32915.64
445.187	33939.62
445.394	35270.8
445.6	34709.66
445.807	37806.19
446.013	36382.85
446.22	37089.4
446.426	38522.97
446.633	38678.62
446.839	40138.82
447.046	38486.11
447.252	40650.81
447.459	40544.32
447.665	40208.45
447.871	42188.84
448.078	43894.8
448.284	41863.21
448.491	43032.6
448.697	44365.83
448.903	44974.08
449.11	45391.86
449.316	44734.46
449.522	45187.07
449.728	46317.54
449.935	47089.63
450.141	46860.26
450.347	47937.49
450.553	46589.92
450.76	47124.44
450.966	48615.36
451.172	48170.96
451.378	49373.11
451.584	48246.73
451.791	49741.75
451.997	49121.21
452.203	49838
452.409	49766.32
452.615	49465.27
452.821	47869.9
453.027	47290.33
453.233	49534.9
453.44	48330.7
453.646	48388.04
453.852	48322.51
454.058	49307.58
454.264	48150.48
454.47	48953.28
454.676	47933.39
454.882	49092.54
455.088	45049.85
455.294	46024.68
455.5	46475.24
455.705	47003.61
455.911	45035.52
456.117	43730.96
456.323	44042.25
456.529	41242.68
456.735	43370.52
456.941	42104.87
457.147	41642.03
457.352	39958.6
457.558	39831.63
457.764	39823.43
457.97	39116.89
458.176	37980.26
458.381	38049.89
458.587	36282.5
458.793	36546.68
458.999	34381.98
459.204	36806.78
459.41	36001.93
459.616	33706.15
459.821	33423.53
460.027	33362.09
460.233	32618.68
460.438	31138
460.644	31533.26
460.85	30023.9
461.055	29403.37
461.261	29669.61
461.466	26984.72
461.672	26425.62
461.878	28438.78
462.083	26509.59
462.289	26083.61
462.494	25741.6
462.7	24449.33
462.905	23626.05
463.111	24504.63
463.316	24994.09
463.522	24148.28
463.727	24541.49
463.932	24273.21
464.138	24029.5
464.343	23947.58
464.549	23470.4
464.754	23935.29
464.959	24009.02
465.165	23689.54
465.37	22620.5
465.575	22215
465.781	23191.88
465.986	23130.44
466.191	22493.52
466.397	21506.4
466.602	20746.61
466.807	21737.82
467.012	21565.79
467.218	21664.1
467.423	21188.97
467.628	21315.94
467.833	22112.6
468.038	21078.38
468.244	20595.06
468.449	21471.59
468.654	20642.16
468.859	20468.08
469.064	20408.69
469.269	19560.83
469.474	19632.51
469.679	20224.37
469.885	19812.73
470.09	20089.21
470.295	19683.71
470.5	19071.37
470.705	19644.8
470.91	18717.07
471.115	18762.12
471.32	19155.33
471.525	18854.28
471.73	18514.32
471.935	18381.2
472.139	17674.65
472.344	17942.94
472.549	17783.2
472.754	17629.6
472.959	17166.76
473.164	16785.83
473.369	16699.82
473.574	17129.89
473.778	17447.33
473.983	17011.11
474.188	17078.69
474.393	16030.13
474.598	16196.02
474.802	16228.79
475.007	16048.57
475.212	16099.76
475.417	15301.06
475.621	15180.23
475.826	15475.13
476.031	15272.39
476.235	14823.88
476.44	15034.82
476.645	14971.33
476.849	14756.3
477.054	14651.85
477.259	14617.04
477.463	14445.01
477.668	14152.15
477.872	14123.48
478.077	13900.25
478.282	13529.56
478.486	13611.48
478.691	13386.21
478.895	13320.67
479.1	13402.59
479.304	13314.53
479.509	12939.75
479.713	13156.83
479.918	12947.94
480.122	12704.23
480.326	12909.03
480.531	12999.14
480.735	12855.78
480.94	12456.43
481.144	13038.05
481.348	12530.16
481.553	12769.77
481.757	12360.17
481.961	12503.53
482.166	12653.03
482.37	12423.66
482.574	12331.5
482.778	12392.94
482.983	12542.44
483.187	12462.57
483.391	12599.79
483.595	12237.3
483.8	12171.76
484.004	12306.93
484.208	12450.28
484.412	12368.37
484.616	12259.82
484.821	12358.13
485.025	12169.71
485.229	12380.65
485.433	12358.13
485.637	12169.71
485.841	12249.58
486.045	12038.64
486.249	12282.35
486.453	12169.71
486.657	12263.92
486.861	12349.93
487.065	12012.02
487.269	12411.37
487.473	11901.43
487.677	12300.78
487.881	12362.22
488.085	12282.35
488.289	12249.58
488.493	11989.49
488.697	12519.92
488.901	12270.06
489.105	12276.21
489.309	12067.31
489.512	12415.47
489.716	12134.9
489.92	12501.48
490.124	12407.28
490.328	12517.87
490.531	12536.3
490.735	12556.78
490.939	12456.43
491.143	12423.66
491.346	12753.38
491.55	12597.74
491.754	12552.68
491.958	12620.27
492.161	12775.91
492.365	12726.76
492.569	12646.89
492.772	12712.42
492.976	12896.74
493.18	13031.91
493.383	13124.07
493.587	13253.09
493.79	13267.42
493.994	13240.8
494.197	13353.44
494.401	13281.76
494.605	13283.81
494.808	13554.14
495.012	13580.76
495.215	13621.72
495.419	13775.32
495.622	13732.31
495.825	13865.43
496.029	13988.31
496.232	14365.14
496.436	14164.43
496.639	14660.04
496.843	14490.06
497.046	14727.63
497.249	14834.12
497.453	14948.81
497.656	15040.97
497.859	14954.95
498.063	15389.12
498.266	15579.58
498.469	15528.38
498.673	15690.17
498.876	15866.3
499.079	16116.15
499.282	15759.8
499.485	16767.4
499.689	16415.15
499.892	16757.16
500.095	16456.11
500.298	17029.54
500.501	16955.82
500.705	17424.8
500.908	17553.82
501.111	17553.82
501.314	17609.12
501.517	17912.22
501.72	18067.86
501.923	18094.49
502.126	18448.79
502.329	19026.31
502.532	18860.43
502.735	18905.48
502.938	19233.16
503.141	19280.26
503.344	19665.28
503.547	19831.16
503.75	20130.17
503.953	20255.09
504.156	20119.93
504.359	20760.94
504.562	20617.58
504.765	21223.78
504.968	21262.69
505.17	21518.69
505.373	21539.17
505.576	21999.96
505.779	22237.53
505.982	22102.36
506.185	22563.15
506.387	22579.54
506.59	22958.41
506.793	23363.91
506.996	23519.56
507.198	23742.78
507.401	23710.02
507.604	24039.74
507.807	24564.02
508.009	24666.42
508.212	24906.03
508.415	24674.61
508.617	25178.41
508.82	25434.41
509.022	25329.96
509.225	26214.68
509.428	26122.52
509.63	26505.49
509.833	26542.36
510.035	26937.62
510.238	27121.93
510.44	27169.04
510.643	27840.77
510.845	27521.29
511.048	27924.74
511.25	28383.48
511.453	28412.15
511.655	29343.98
511.858	29157.61
512.06	29405.42
512.262	29622.5
512.465	29753.57
512.667	30134.49
512.87	30136.54
513.072	30453.98
513.274	31226.06
513.477	31217.87
513.679	31248.59
513.881	31809.73
514.084	32014.53
514.286	32172.22
514.488	32383.16
514.69	33220.78
514.893	33431.72
515.095	33390.77
515.297	33716.39
515.499	33761.45
515.701	34187.42
515.904	34433.18
516.106	34943.13
516.308	34891.93
516.51	35264.66
516.712	35262.61
516.914	36059.27
517.116	36116.61
517.318	36475.01
517.52	36397.18
517.722	36292.74
517.925	36956.28
518.127	37363.82
518.329	37736.55
518.531	37240.95
518.733	37984.36
518.935	38262.88
519.136	38402.14
519.338	39026.78
519.54	38973.53
519.742	39180.37
519.944	39741.52
520.146	39919.69
520.348	40034.38
520.55	40212.55
520.752	40441.92
520.954	41383.99
521.155	40976.44
521.357	41529.39
521.559	41416.75
521.761	42440.74
521.963	41752.62
522.164	42035.24
522.366	42338.34
522.568	42709.02
522.77	42567.71
522.971	43415.57
523.173	42860.57
523.375	43245.59
523.576	43350.04
523.778	43837.45
523.98	44064.78
524.181	44050.44
524.383	43851.79
524.584	44703.74
524.786	44412.93
524.988	44179.46
525.189	44920.83
525.391	45049.85
525.592	44916.73
525.794	45281.27
525.995	45109.24
526.197	45041.66
526.398	45201.4
526.6	45451.25
526.801	45367.29
527.003	45588.47
527.204	45295.61
527.406	45998.06
527.607	45570.04
527.808	46348.26
528.01	44969.98
528.211	45535.22
528.412	46438.37
528.614	46405.61
528.815	46381.03
529.016	46653.41
529.218	46194.67
529.419	46168.04
529.62	46055.4
529.822	46016.49
530.023	45891.57
530.224	45983.72
530.425	46268.39
530.626	46209
530.828	45731.82
531.029	46362.6
531.23	45709.3
531.431	45772.78
531.632	46444.52
531.833	46063.6
532.035	46522.34
532.236	46022.64
532.437	46401.51
532.638	45740.02
532.839	45910
533.04	46235.63
533.241	45635.57
533.442	46286.82
533.643	45830.13
533.844	46065.64
534.045	46213.1
534.246	45672.43
534.447	45828.08
534.648	45598.71
534.849	45801.46
535.05	45144.06
535.251	45811.7
535.451	45584.37
535.652	45549.56
535.853	45709.3
536.054	45701.11
536.255	45649.91
536.456	44914.69
536.657	45774.83
536.857	45465.59
537.058	45146.11
537.259	45686.77
537.46	45355
537.66	44969.98
537.861	44929.02
538.062	45152.25
538.263	45189.11
538.463	45068.28
538.664	44984.32
538.865	45170.68
539.065	45492.21
539.266	44625.92
539.466	45244.41
539.667	44662.79
539.868	45178.87
540.068	44658.69
540.269	44646.4
540.469	45080.57
540.67	44040.2
540.87	44713.98
541.071	45029.37
541.271	44978.17
541.472	44687.36
541.672	44494.85
541.873	44257.29
542.073	44320.77
542.274	44627.97
542.474	44601.35
542.675	43741.2
542.875	44701.7
543.075	44494.85
543.276	43610.13
543.476	44869.63
543.676	43909.13
543.877	44408.84
544.077	44277.77
544.277	44384.26
544.478	44136.46
544.678	44347.4
544.878	44697.6
545.078	44423.17
545.279	43782.16
545.479	44091.4
545.679	44394.5
545.879	44156.94
546.079	44056.59
546.28	43874.32
546.48	43825.17
546.68	44560.39
546.88	44367.88
547.08	44126.22
547.28	43968.52
547.48	43872.27
547.68	44277.77
547.88	43532.31
548.081	44529.67
548.281	44017.67
548.481	43958.28
548.681	44122.12
548.881	43952.14
549.081	44296.2
549.28	43558.93
549.48	44482.56
549.68	44425.22
549.88	44560.39
550.08	43870.22
550.28	44017.67
550.48	43960.33
550.68	44218.38
550.88	44163.08
551.08	43814.93
551.279	44185.61
551.479	43550.74
551.679	44333.06
551.879	44197.9
552.079	44195.85
552.278	43741.2
552.478	43978.76
552.678	43905.04
552.878	44470.28
553.077	44464.13
553.277	43825.17
553.477	44705.79
553.676	44023.82
553.876	44156.94
554.076	43984.91
554.275	44238.86
554.475	43692.05
554.674	44070.92
554.874	44406.79
555.074	44156.94
555.273	44656.64
555.473	44648.45
555.672	43886.6
555.872	44228.62
556.071	44261.38
556.271	44746.75
556.47	44300.29
556.67	43825.17
556.869	44462.08
557.068	44156.94
557.268	44109.83
557.467	44136.46
557.667	44099.59
557.866	43968.52
558.065	44285.96
558.265	44072.97
558.464	43812.88
558.663	44486.66
558.863	43974.67
559.062	44464.13
559.261	43763.73
559.461	44390.41
559.66	43771.92
559.859	44070.92
560.058	44185.61
560.258	44277.77
560.457	44054.54
560.656	44122.12
560.855	44173.32
561.054	44460.04
561.253	43900.94
561.453	44527.62
561.652	44079.11
561.851	44056.59
562.05	44161.03
562.249	43550.74
562.448	44310.53
562.647	43667.47
562.846	43892.75
563.045	43759.63
563.244	43698.19
563.443	44378.12
563.642	43526.16
563.841	44048.39
564.04	43618.32
564.239	44185.61
564.438	43149.34
564.637	43702.29
564.836	43591.7
565.035	43319.32
565.234	43851.79
565.432	43077.66
565.631	43268.12
565.83	43452.44
566.029	43014.17
566.228	43116.57
566.427	43460.63
566.625	43194.39
566.824	42797.09
567.023	43438.1
567.222	42123.3
567.42	43124.76
567.619	42645.54
567.818	42805.28
568.016	42696.74
568.215	42858.52
568.414	42625.06
568.612	42917.92
568.811	42670.11
569.01	42246.18
569.208	42301.48
569.407	42606.62
569.605	42213.41
569.804	42121.26
570.002	42086.44
570.201	42289.19
570.4	42068.01
570.598	42108.97
570.797	41795.63
570.995	41842.73
571.193	41312.31
571.392	42025
571.59	41345.08
571.789	41918.51
571.987	41525.3
572.186	41355.32
572.384	41138.23
572.582	41234.49
572.781	41238.58
572.979	40929.34
573.177	40958.01
573.376	40921.15
573.574	40421.44
573.772	40706.11
573.971	40659.01
574.169	40583.23
574.367	39962.7
574.565	40200.26
574.763	40069.19
574.962	39993.42
575.16	39907.4
575.358	39839.82
575.556	39471.18
575.754	40034.38
575.952	39503.95
576.151	39788.62
576.349	39264.34
576.547	39405.65
576.745	39506
576.943	39379.03
577.141	39116.89
577.339	39020.63
577.537	38838.36
577.735	38856.79
577.933	38602.85
578.131	38654.04
578.329	38541.41
578.527	38594.65
578.725	38568.03
578.923	38430.82
579.121	38309.99
579.319	38295.65
579.516	38275.17
579.714	37922.92
579.912	37912.68
580.11	37576.81
580.308	37808.23
580.506	37449.84
580.704	36896.89
580.901	37195.89
581.099	37556.33
581.297	37259.38
581.495	37216.37
581.692	37224.56
581.89	36733.05
582.088	37101.68
582.285	37073.01
582.483	36956.28
582.681	36751.48
582.878	37073.01
583.076	36481.15
583.274	36587.64
583.471	36071.56
583.669	36255.87
583.866	36130.95
584.064	36171.91
584.262	35588.24
584.459	36075.65
584.657	36096.13
584.854	35956.87
585.052	35373.2
585.249	35524.75
585.447	35817.61
585.644	35319.95
585.841	35594.38
586.039	35657.87
586.236	34963.61
586.434	34635.93
586.631	35205.27
586.828	35102.87
587.026	35078.29
587.223	34912.41
587.42	34533.53
587.618	34642.07
587.815	34257.06
588.012	34089.12
588.21	34570.4
588.407	34556.06
588.604	34435.23
588.801	33771.69
588.999	34252.96
589.196	33968.29
589.393	34193.57
589.59	33757.35
589.787	33919.14
589.984	33904.81
590.182	33501.36
590.379	33777.83
590.576	33278.13
590.773	33562.79
590.97	33218.74
591.167	33632.43
591.364	32872.63
591.561	33396.91
591.758	32983.22
591.955	32770.23
592.152	33089.71
592.349	33081.52
592.546	32958.64
592.743	32925.88
592.94	32209.09
593.137	32565.43
593.334	32923.83
593.531	32237.76
593.727	32864.44
593.924	32665.78
594.121	32035.01
594.318	32549.05
594.515	32200.9
594.712	32110.78
594.908	32139.46
595.105	32149.7
595.302	31949
595.499	32131.26
595.696	32063.68
595.892	31879.36
596.089	31776.97
596.286	31658.18
596.482	31545.55
596.679	31885.51
596.876	31824.07
597.072	31830.21
597.269	31463.63
597.466	31449.29
597.662	31563.98
597.859	31326.41
598.055	31611.08
598.252	31215.82
598.448	31217.87
598.645	30984.4
598.841	30767.32
599.038	31258.83
599.234	31176.91
599.431	31002.83
599.627	31111.38
599.824	31463.63
600.02	30955.73
600.217	31332.56
600.413	30914.77
600.609	30918.87
600.806	30746.84
601.002	31019.22
601.198	30972.11
601.395	30951.63
601.591	30925.01
601.787	30609.62
601.984	30558.42
602.18	31045.84
602.376	30505.18
602.572	30466.27
602.769	30925.01
602.965	30234.85
603.161	30980.31
603.357	30318.81
603.553	30795.99
603.75	30503.13
603.946	30302.43
604.142	30656.73
604.338	30228.7
604.534	30929.11
604.73	30122.21
604.926	30425.31
605.122	30298.33
605.318	30480.6
605.514	30539.99
605.71	30300.38
605.906	30349.53
606.102	30558.42
606.298	30468.31
606.494	30658.77
606.69	30238.94
606.886	30550.23
607.082	30146.78
607.278	30871.76
607.474	30226.65
607.67	30265.56
607.866	30210.27
608.062	30544.09
608.257	30433.5
608.453	30296.28
608.649	30845.14
608.845	30623.96
609.041	30505.18
609.236	30783.7
609.432	30722.26
609.628	30390.49
609.824	30224.61
610.019	30492.89
610.215	30636.25
610.411	30836.95
610.606	30361.82
610.802	30896.34
610.998	30376.16
611.193	30810.32
611.389	30427.35
611.584	30572.76
611.78	30795.99
611.976	30533.85
612.171	30853.33
612.367	31037.65
612.562	30623.96
612.758	30236.89
612.953	30189.79
613.149	30703.83
613.344	30664.92
613.539	31006.93
613.735	31156.43
613.93	30720.21
614.126	30562.52
614.321	30779.6
614.517	30873.81
614.712	30990.55
614.907	29999.33
615.103	30750.93
615.298	30206.17
615.493	31238.35
615.688	30132.45
615.884	31103.18
616.079	30116.06
616.274	30572.76
616.47	30533.85
616.665	30402.78
616.86	30558.42
617.055	30519.51
617.25	30177.5
617.445	30605.53
617.641	29984.99
617.836	30443.74
618.031	30427.35
618.226	30460.12
618.421	30374.11
618.616	30384.35
618.811	29944.03
619.006	30390.49
619.201	29731.04
619.396	30269.66
619.591	29423.85
619.786	29966.56
619.981	29470.95
620.176	29860.07
620.371	29079.79
620.566	29425.9
620.761	29169.9
620.956	29520.1
621.151	29065.46
621.346	29270.25
621.541	28913.91
621.735	29157.61
621.93	28434.68
622.125	28903.67
622.32	28369.15
622.515	28946.67
622.709	28221.69
622.904	28084.48
623.099	28018.94
623.294	28174.59
623.488	27484.42
623.683	27767.04
623.878	27285.77
624.072	27504.9
624.267	27439.37
624.462	27017.49
624.656	26865.94
624.851	27146.51
625.046	26902.8
625.24	26913.04
625.435	26519.83
625.629	26507.54
625.824	26482.97
626.018	26251.55
626.213	25837.86
626.407	26278.17
626.602	25487.65
626.796	25710.88
626.991	25805.09
627.185	25780.51
627.38	25508.13
627.574	25628.96
627.768	25182.51
627.963	25035.05
628.157	24492.34
628.352	24684.85
628.546	24437.05
628.74	24475.96
628.935	24289.59
629.129	24420.66
629.323	23990.59
629.517	24174.91
629.712	23984.44
629.906	23771.46
630.1	23677.25
630.294	23472.45
630.489	23798.08
630.683	23454.02
630.877	23069
631.071	23224.65
631.265	23150.92
631.459	22868.3
631.653	23046.47
631.848	23101.77
632.042	22788.43
632.236	22710.61
632.43	22552.91
632.624	22757.71
632.818	22233.43
633.012	22333.78
633.206	21930.33
633.4	22057.31
633.594	21629.28
633.788	21932.38
633.982	21748.06
634.176	21528.93
634.369	21436.77
634.563	21404
634.757	21002.6
634.951	21270.89
635.145	21084.52
635.339	20904.3
635.533	20930.92
635.726	20859.24
635.92	20601.2
636.114	20701.55
636.308	20488.56
636.501	20193.65
636.695	19698.05
636.889	20353.4
637.083	19833.21
637.276	19540.35
637.47	19937.66
637.664	19427.71
637.857	19487.11
638.051	19478.91
638.244	19411.33
638.438	19253.64
638.632	19093.9
638.825	18934.15
639.019	18794.89
639.212	18715.02
639.406	18700.69
639.599	18377.11
639.793	18672.01
639.986	18209.17
640.18	18629.01
640.373	18338.19
640.567	17944.98
640.76	18084.25
640.954	17879.45
641.147	17721.76
641.34	17633.69
641.534	17652.13
641.727	17637.79
641.92	17641.89
642.114	17430.94
642.307	17230.24
642.5	17109.41
642.694	16826.79
642.887	16679.34
643.08	17000.87
643.273	16677.29
643.467	16830.89
643.66	16605.61
643.853	16525.74
644.046	16282.03
644.239	16247.22
644.432	16169.4
644.626	15978.93
644.819	15933.88
645.012	15770.04
645.205	15892.92
645.398	15774.14
645.591	15765.95
645.784	15505.85
645.977	15227.33
646.17	15399.36
646.363	15307.2
646.556	15212.99
646.749	14938.57
646.942	15131.08
647.135	14916.04
647.328	14946.76
647.521	14899.66
647.714	14504.4
647.907	14373.33
648.099	14696.91
648.292	14629.32
648.485	14424.53
648.678	14197.2
648.871	14043.6
649.064	14117.33
649.256	14201.3
649.449	14019.03
649.642	14068.18
649.835	13625.82
650.027	13750.74
650.22	13638.11
650.413	13533.66
650.605	13607.39
650.798	13429.21
650.991	13357.53
651.183	13302.24
651.376	13138.4
651.568	13097.44
651.761	13087.2
651.954	13023.72
652.146	13144.55
652.339	12732.9
652.531	12696.04
652.724	12911.08
652.916	12739.05
653.109	12460.52
653.301	12538.35
653.494	12345.84
653.686	12329.45
653.879	12499.44
654.071	12169.71
654.263	12042.74
654.456	11969.01
654.648	12100.08
654.84	11973.11
655.033	11610.62
655.225	11727.35
655.417	11809.27
655.61	11858.42
655.802	11606.52
655.994	11690.49
656.186	11622.91
656.379	11440.64
656.571	11506.17
656.763	11491.84
656.955	11203.07
657.148	11315.71
657.34	11391.48
657.532	10932.74
657.724	11227.65
657.916	11098.63
658.108	10936.84
658.3	10822.15
658.492	10795.53
658.684	10588.68
658.876	10732.04
659.068	10633.74
659.26	10646.02
659.452	10549.77
659.644	10478.09
659.836	10254.86
660.028	10408.46
660.22	10439.18
660.412	10148.37
660.604	10056.21
660.796	10191.38
660.988	10043.92
661.18	10072.59
661.372	9880.08
661.563	10011.15
661.755	10070.55
661.947	9789.97
662.139	9816.6
662.331	9783.83
662.522	9613.85
662.714	9380.38
662.906	9593.37
663.097	9501.21
663.289	9337.37
663.481	9257.5
663.673	9230.88
663.864	9138.72
664.056	9114.14
664.247	9056.8
664.439	8942.11
664.631	9116.19
664.822	8962.59
665.014	8860.2
665.205	9103.9
665.397	8794.66
665.588	8792.61
665.78	8755.75
665.971	8794.66
666.163	8581.67
666.354	8722.98
666.546	8524.33
666.737	8319.53
666.929	8610.34
667.12	8391.21
667.311	8450.6
667.503	8354.35
667.694	8405.55
667.885	8120.88
668.077	8335.92
668.268	8129.07
668.459	8225.33
668.651	8288.81
668.842	7928.37
669.033	8057.39
669.224	8016.43
669.416	8282.67
669.607	7733.81
669.798	7770.68
669.989	7723.57
670.18	7909.94
670.371	7594.55
670.563	7750.2
670.754	7737.91
670.945	7582.26
671.136	7617.08
671.327	7787.06
671.518	7586.36
671.709	7443
671.9	7590.45
672.091	7514.68
672.282	7619.13
672.473	7369.27
672.664	7508.54
672.855	7467.58
673.046	7352.89
673.237	7365.18
673.428	7375.42
673.619	7264.83
673.809	7137.85
674	7199.29
674.191	7246.4
674.382	6959.68
674.573	7199.29
674.764	7094.85
674.954	7008.83
675.145	6885.95
675.336	6894.15
675.527	6801.99
675.717	7090.75
675.908	6916.67
676.099	6945.34
676.289	6898.24
676.48	6771.27
676.671	6662.72
676.861	6918.72
677.052	6832.71
677.243	6709.83
677.433	6746.69
677.624	6642.25
677.814	6595.14
678.005	6634.05
678.195	6615.62
678.386	6576.71
678.576	6543.94
678.767	6621.77
678.957	6572.61
679.148	6453.83
679.338	6560.33
679.529	6416.97
679.719	6505.03
679.909	6511.18
680.1	6355.53
680.29	6509.13
680.481	6625.86
680.671	6468.17
680.861	6494.79
681.052	6355.53
681.242	6146.64
681.432	6517.32
681.622	6361.67
681.813	6232.65
682.003	6296.14
682.193	6183.5
682.383	6197.84
682.573	6113.87
682.764	5986.9
682.954	6376.01
683.144	6257.23
683.334	6203.98
683.524	6077.01
683.714	6199.88
683.904	6093.39
684.094	6107.73
684.284	6111.82
684.474	6218.32
684.664	6130.25
684.854	6003.28
685.044	5980.75
685.234	5964.37
685.424	5902.93
685.614	5976.66
685.804	6017.61
685.994	5972.56
686.184	5864.02
686.374	6025.81
686.564	5796.43
686.753	5866.07
686.943	5837.39
687.133	5812.82
687.323	5827.15
687.513	5827.15
687.702	5618.26
687.892	5757.52
688.082	5685.84
688.272	5691.99
688.461	5546.58
688.651	5737.04
688.841	5597.78
689.03	5669.46
689.22	5624.4
689.41	5499.48
689.599	5608.02
689.789	5700.18
689.979	5610.07
690.168	5509.72
690.358	5442.14
690.547	5362.26
690.737	5511.77
690.926	5497.43
691.116	5345.88
691.305	5390.94
691.495	5337.69
691.684	5364.31
691.874	5362.26
692.063	5448.28
692.252	5313.11
692.442	5349.98
692.631	5235.29
692.82	5345.88
693.01	5182.04
693.199	5192.28
693.388	5182.04
693.578	5165.66
693.767	5196.38
693.956	5290.59
694.146	5083.74
694.335	5108.32
694.524	5096.03
694.713	5100.12
694.902	4995.68
695.092	5100.12
695.281	5159.52
695.47	5034.59
695.659	4915.81
695.848	5026.4
696.037	4995.68
696.226	4967.01
696.415	4903.52
696.604	4899.42
696.793	5071.45
696.982	4799.07
697.171	4985.44
697.36	4840.03
697.549	4680.29
697.738	4764.26
697.927	4717.15
698.116	4915.81
698.305	4706.91
698.494	4799.07
698.683	4917.86
698.872	4702.82
699.061	4725.35
699.25	4706.91
699.438	4706.91
699.627	4600.42
699.816	4584.04
700.005	4629.09
700.193	4719.2
700.382	4657.76
700.571	4620.9
700.76	4719.2
700.948	4608.61
701.137	4555.37
701.326	4493.93
701.514	4397.67
701.703	4438.63
701.892	4510.31
702.08	4469.35
702.269	4424.3
702.457	4551.27
702.646	4391.53
702.834	4487.78
703.023	4395.62
703.212	4467.3
703.4	4233.83
703.589	4211.31
703.777	4305.51
703.965	4315.75
704.154	4567.65
704.342	4358.76
704.531	4158.06
704.719	4127.34
704.907	4334.18
705.096	4174.44
705.284	4321.9
705.472	4272.75
705.661	4156.01
705.849	4190.83
706.037	4153.96
706.226	4213.35
706.414	4076.14
706.602	4070
706.79	4055.66
706.979	3977.84
707.167	3983.98
707.355	4029.04
707.543	4145.77
707.731	4096.62
707.919	4029.04
708.107	4026.99
708.296	3949.17
708.484	4018.8
708.672	3811.95
708.86	3971.69
709.048	3961.45
709.236	3795.57
709.424	3938.93
709.612	3910.25
709.8	3787.38
709.988	3803.76
710.176	3797.62
710.364	3850.86
710.551	3783.28
710.739	3764.85
710.927	3705.46
711.115	3906.16
711.303	3785.33
711.491	3738.23
711.679	3768.95
711.866	3555.96
712.054	3844.72
712.242	3609.2
712.43	3775.09
712.617	3824.24
712.805	3601.01
712.993	3609.2
713.181	3543.67
713.368	3582.58
713.556	3697.27
713.744	3676.79
713.931	3674.74
714.119	3527.28
714.306	3510.9
714.494	3521.14
714.682	3515
714.869	3517.04
715.057	3494.52
715.244	3437.17
715.432	3553.91
715.619	3543.67
715.807	3510.9
715.994	3338.87
716.182	3390.07
716.369	3318.39
716.556	3431.03
716.744	3240.57
716.931	3299.96
717.119	3338.87
717.306	3240.57
717.493	3230.33
717.681	3218.04
717.868	3338.87
718.055	3396.21
718.242	3201.66
718.43	3285.62
718.617	3310.2
718.804	3215.99
718.991	3254.9
719.179	3224.19
719.366	3248.76
719.553	3256.95
719.74	3134.07
719.927	3113.6
720.114	3109.5
720.301	3060.35
720.488	3121.79
720.676	3129.98
720.863	3193.47
721.05	3175.03
721.237	3175.03
721.424	3111.55
721.611	3068.54
721.798	3177.08
721.985	2984.57
722.172	3019.39
722.358	3097.21
722.545	3052.16
722.732	3109.5
722.919	3060.35
723.106	3013.24
723.293	2968.19
723.48	3005.05
723.667	2964.09
723.853	2896.51
724.04	2947.71
724.227	3046.01
724.414	2890.37
724.6	2914.94
724.787	2978.43
724.974	2998.91
725.161	2974.33
725.347	2744.96
725.534	2888.32
725.72	2904.7
725.907	2781.82
726.094	2751.1
726.28	2781.82
726.467	2781.82
726.653	2708.1
726.84	2859.65
727.027	2882.17
727.213	2755.2
727.4	2794.11
727.586	2691.71
727.773	2740.86
727.959	2800.26
728.145	2814.59
728.332	2644.61
728.518	2785.92
728.705	2847.36
728.891	2658.95
729.077	2646.66
729.264	2679.43
729.45	2671.23
729.636	2650.75
729.823	2593.41
730.009	2611.84
730.195	2626.18
730.382	2669.19
730.568	2650.75
730.754	2626.18
730.94	2660.99
731.126	2708.1
731.313	2579.08
731.499	2587.27
731.685	2587.27
731.871	2658.95
732.057	2638.47
732.243	2546.31
732.429	2538.12
732.615	2652.8
732.801	2482.82
732.987	2501.25
733.173	2560.64
733.359	2454.15
733.545	2572.93
733.731	2609.79
733.917	2615.94
734.103	2538.12
734.289	2538.12
734.475	2529.92
734.661	2398.85
734.847	2456.2
735.033	2380.42
735.219	2327.18
735.404	2538.12
735.59	2357.89
735.776	2372.23
735.962	2462.34
736.148	2323.08
736.333	2384.52
736.519	2310.79
736.705	2437.77
736.89	2405
737.076	2415.24
737.262	2179.72
737.447	2355.85
737.633	2208.39
737.819	2327.18
738.004	2275.98
738.19	2282.12
738.375	2370.18
738.561	2241.16
738.747	2253.45
738.932	2210.44
739.118	2314.89
739.303	2194.06
739.489	2265.74
739.674	2243.21
739.859	2122.38
740.045	2194.06
740.23	2192.01
740.416	2144.91
740.601	2220.68
740.786	2232.97
740.972	2171.53
741.157	2140.81
741.342	2081.42
741.528	2103.95
741.713	2183.82
741.898	2122.38
742.084	2077.32
742.269	2144.91
742.454	2118.28
742.639	2085.51
742.824	2132.62
743.01	2103.95
743.195	2026.12
743.38	1936.01
743.565	2044.56
743.75	2083.47
743.935	1995.4
744.12	1987.21
744.305	1874.57
744.49	2007.69
744.675	1946.25
744.86	2052.75
745.045	1983.12
745.23	1876.62
745.415	2022.03
745.6	1960.59
745.785	1923.73
745.97	2028.17
746.155	1909.39
746.34	1872.53
746.525	1735.31
746.71	1921.68
746.895	1757.84
747.079	1905.29
747.264	1868.43
747.449	1776.27
747.634	1899.15
747.819	1852.05
748.003	1798.8
748.188	1712.78
748.373	1729.17
748.557	1749.65
748.742	1708.69
748.927	1647.25
749.111	1749.65
749.296	1716.88
749.481	1643.15
749.665	1651.35
749.85	1700.5
750.034	1798.8
750.219	1708.69
750.404	1604.24
750.588	1639.06
750.773	1575.57
750.957	1553.04
751.141	1567.38
751.326	1594
751.51	1516.18
751.695	1563.28
751.879	1491.6
752.064	1596.05
752.248	1495.7
752.432	1524.37
752.617	1561.23
752.801	1651.35
752.985	1467.03
753.17	1397.4
753.354	1493.65
753.538	1520.28
753.722	1338.01
753.907	1430.16
754.091	1391.25
754.275	1462.93
754.459	1440.4
754.643	1393.3
754.828	1352.34
755.012	1370.77
755.196	1348.25
755.38	1372.82
755.564	1268.38
755.748	1372.82
755.932	1260.18
756.116	1352.34
756.3	1340.05
756.484	1393.3
756.668	1346.2
756.852	1219.22
757.036	1149.59
757.22	1217.18
757.404	1233.56
757.588	1241.75
757.772	1249.94
757.956	1278.62
758.14	1280.66
758.323	1159.83
758.507	1120.92
758.691	1233.56
758.875	1200.79
759.059	1147.55
759.242	1143.45
759.426	1188.5
759.61	1217.18
759.794	1204.89
759.977	1159.83
760.161	1204.89
760.345	1237.66
760.528	1192.6
760.712	1225.37
760.895	1174.17
761.079	1032.86
761.263	1129.11
761.446	1006.24
761.63	1163.93
761.813	1139.35
761.997	1028.76
762.18	991.9
762.364	1057.43
762.547	1018.52
762.731	1018.52
762.914	1069.72
763.098	1071.77
763.281	1004.19
763.464	977.56
763.648	1022.62
763.831	1024.67
764.015	1082.01
764.198	1036.95
764.381	967.32
764.564	1045.15
764.748	969.37
764.931	1008.28
765.114	1039
765.297	955.04
765.481	979.61
765.664	934.56
765.847	971.42
766.03	967.32
766.213	965.28
766.397	885.41
766.58	1000.09
766.763	907.93
766.946	889.5
767.129	944.8
767.312	922.27
767.495	987.8
767.678	823.97
767.861	887.45
768.044	1010.33
768.227	971.42
768.41	883.36
768.593	854.69
768.776	897.69
768.959	875.17
769.142	948.89
769.324	875.17
769.507	932.51
769.69	807.58
769.873	897.69
770.056	932.51
770.239	864.93
770.421	914.08
770.604	891.55
770.787	828.06
770.97	936.6
771.152	836.25
771.335	901.79
771.518	869.02
771.7	848.54
771.883	856.73
772.066	877.21
772.248	840.35
772.431	905.88
772.613	862.88
772.796	701.09
772.978	866.97
773.161	907.93
773.343	754.34
773.526	801.44
773.708	754.34
773.891	801.44
774.073	799.39
774.256	770.72
774.438	883.36
774.621	699.04
774.803	770.72
774.985	817.82
775.168	760.48
775.35	758.43
775.532	758.43
775.715	699.04
775.897	766.62
776.079	719.52
776.261	748.19
776.444	662.18
776.626	692.9
776.808	694.94
776.99	678.56
777.173	711.33
777.355	676.51
777.537	676.51
777.719	643.74
777.901	758.43
778.083	793.25
778.265	666.27
778.447	684.7
778.629	619.17
778.811	662.18
778.993	676.51
779.175	639.65
779.357	594.59
779.539	594.59
779.721	631.46
779.903	707.23
780.085	625.31
780.267	639.65
780.449	537.25
780.631	633.5
780.812	631.46
780.994	563.87
781.176	602.79
781.358	537.25
781.54	676.51
781.721	619.17
781.903	574.11
782.085	602.79
782.267	572.07
782.448	473.76
782.63	531.11
782.812	492.2
782.993	631.46
783.175	512.67
783.357	551.59
783.538	492.2
783.72	545.44
783.901	455.33
784.083	508.58
784.264	522.91
784.446	447.14
784.627	430.76
784.809	522.91
784.99	477.86
785.172	465.57
785.353	545.44
785.535	441
785.716	471.72
785.897	479.91
786.079	504.48
786.26	447.14
786.441	408.23
786.623	416.42
786.804	365.22
786.985	467.62
787.167	369.32
787.348	430.76
787.529	441
787.71	430.76
787.891	432.8
788.073	395.94
788.254	416.42
788.435	447.14
788.616	520.87
788.797	434.85
788.978	408.23
789.159	438.95
789.34	414.37
789.522	383.65
789.703	346.79
789.884	461.48
790.065	375.46
790.246	465.57
790.427	383.65
790.607	397.99
790.788	348.84
790.969	283.3
791.15	350.89
791.331	369.32
791.512	303.78
791.693	307.88
791.874	328.36
792.054	303.78
792.235	373.41
792.416	365.22
792.597	340.65
792.778	363.17
792.958	342.69
793.139	336.55
793.32	332.45
793.5	344.74
793.681	400.04
793.862	299.69
794.042	318.12
794.223	357.03
794.404	307.88
794.584	311.97
794.765	275.11
794.945	291.49
795.126	361.13
795.306	342.69
795.487	326.31
795.667	205.48
795.848	348.84
796.028	365.22
796.209	369.32
796.389	357.03
796.57	307.88
796.75	293.54
796.93	209.58
797.111	250.53
797.291	254.63
797.471	348.84
797.652	191.14
797.832	260.77
798.012	254.63
798.192	225.96
798.373	258.73
798.553	219.82
798.733	295.59
798.913	217.77
799.093	258.73
799.274	279.21
799.454	268.97
799.634	314.02
799.814	250.53
799.994	344.74
800.174	365.22
800.354	283.3
800.534	244.39
800.714	299.69
800.894	260.77
801.074	223.91
801.254	260.77
801.434	283.3
801.614	268.97
801.794	268.97
801.974	983.71
802.154	264.87
802.334	285.35
802.514	209.58
802.693	217.77
802.873	236.2
803.053	307.88
803.233	299.69
803.413	250.53
803.592	182.95
803.772	211.62
803.952	209.58
804.131	139.94
804.311	262.82
804.491	193.19
804.67	96.94
804.85	152.23
805.03	283.3
805.209	234.15
805.389	228.01
805.568	182.95
805.748	309.93
805.928	131.75
806.107	156.33
806.287	238.25
806.466	238.25
806.646	137.9
806.825	160.42
807.004	187.05
807.184	148.14
807.363	289.45
807.543	230.06
807.722	148.14
807.901	176.81
808.081	168.62
808.26	111.27
808.439	135.85
808.619	225.96
808.798	160.42
808.977	148.14
809.156	219.82
809.336	211.62
809.515	250.53
809.694	172.71
809.873	152.23
810.052	199.34
810.231	268.97
810.411	178.86
810.59	238.25
810.769	154.28
810.948	268.97
811.127	137.9
811.306	168.62
811.485	141.99
811.664	168.62
811.843	156.33
812.022	228.01
812.201	129.7
812.38	164.52
812.559	146.09
812.737	129.7
812.916	127.66
813.095	111.27
813.274	185
813.453	113.32
813.632	180.9
813.811	127.66
813.989	94.89
814.168	162.47
814.347	70.31
814.526	109.22
814.704	172.71
814.883	221.86
815.062	152.23
815.24	178.86
815.419	211.62
815.598	199.34
815.776	82.6
815.955	111.27
816.133	121.51
816.312	135.85
816.49	144.04
816.669	193.19
816.847	70.31
817.026	123.56
817.204	152.23
817.383	117.42
817.561	90.79
817.74	160.42
817.918	154.28
818.097	121.51
818.275	72.36
818.453	168.62
818.632	211.62
818.81	180.9
818.988	127.66
819.167	105.13
819.345	168.62
819.523	64.17
819.701	105.13
819.879	185
820.058	123.56
820.236	109.22
820.414	98.99
820.592	162.47
820.77	137.9
820.948	127.66
821.127	86.7
821.305	172.71
821.483	135.85
821.661	53.93
821.839	68.27
822.017	98.99
822.195	135.85
822.373	103.08
822.551	170.66
822.729	121.51
822.907	72.36
823.085	160.42
823.262	98.99
823.44	107.18
823.618	111.27
823.796	88.75
823.974	172.71
824.152	119.46
824.329	62.12
824.507	94.89
824.685	193.19
824.863	78.51
825.04	88.75
825.218	88.75
825.396	94.89
825.574	78.51
825.751	2.73
825.929	127.66
826.107	-9.56
826.284	135.85
826.462	96.94
826.639	94.89
826.817	49.83
826.994	105.13
827.172	33.45
827.349	135.85
827.527	164.52
827.704	72.36
827.882	123.56
828.059	86.7
828.237	74.41
828.414	107.18
828.591	-3.41
828.769	117.42
828.946	88.75
829.124	195.24
829.301	66.22
829.478	12.97
829.655	109.22
829.833	72.36
830.01	2.73
830.187	82.6
830.364	82.6
830.542	103.08
830.719	72.36
830.896	29.35
831.073	80.55
831.25	103.08
831.427	55.98
831.604	76.46
831.782	53.93
831.959	62.12
832.136	60.07
832.313	39.59
832.49	111.27
832.667	62.12
832.844	103.08
833.021	111.27
833.198	35.5
833.374	90.79
833.551	21.16
833.728	49.83
833.905	101.03
834.082	21.16
834.259	35.5
834.436	72.36
834.612	64.17
834.789	31.4
834.966	-3.41
835.143	53.93
835.319	49.83
835.496	121.51
835.673	103.08
835.85	160.42
836.026	127.66
836.203	10.92
836.38	115.37
836.556	51.88
836.733	29.35
836.909	115.37
837.086	4.78
837.262	8.87
837.439	105.13
837.616	70.31
837.792	55.98
837.968	70.31
838.145	23.21
838.321	88.75
838.498	8.87
838.674	80.55
838.851	8.87
839.027	82.6
839.203	76.46
839.38	111.27
839.556	66.22
839.732	103.08
839.909	70.31
840.085	94.89
840.261	72.36
840.437	-9.56
840.614	45.74
840.79	185
840.966	53.93
841.142	29.35
841.318	47.79
841.494	62.12
841.671	72.36
841.847	4.78
842.023	96.94
842.199	17.07
842.375	62.12
842.551	-9.56
842.727	-3.41
842.903	4.78
843.079	6.83
843.255	90.79
843.431	0.68
843.607	25.26
843.783	-3.41
843.959	123.56
844.134	35.5
844.31	49.83
844.486	4.78
844.662	94.89
844.838	39.59
845.013	8.87
845.189	21.16
845.365	-25.94
845.541	31.4
845.716	12.97
845.892	41.64
846.068	29.35
846.244	-21.85
846.419	-13.65
846.595	-17.75
846.77	62.12
846.946	76.46
847.122	76.46
847.297	-27.99
847.473	35.5
847.648	33.45
847.824	4.78
847.999	-30.04
848.175	41.64
848.35	45.74
848.526	135.85
848.701	35.5
848.876	154.28
849.052	55.98
849.227	-44.37
849.403	-23.89
849.578	-3.41
849.753	94.89
849.929	78.51
850.104	12.97
850.279	39.59
850.454	6.83
850.63	-9.56
850.805	0.68
850.98	25.26
851.155	-60.76
851.33	-85.33
851.505	23.21
851.681	144.04
851.856	23.21
852.031	21.16
852.206	-15.7
852.381	15.02
852.556	25.26
852.731	78.51
852.906	62.12
853.081	37.55
853.256	121.51
853.431	6.83
853.606	-1.37
853.781	-44.37
853.956	6.83
854.131	-3.41
854.305	-23.89
854.48	12.97
854.655	45.74
854.83	-27.99
855.005	23.21
855.18	31.4
855.354	66.22
855.529	88.75
855.704	-89.43
855.879	133.8
856.053	-42.32
856.228	53.93
856.403	4.78
856.577	45.74
856.752	-9.56
856.926	55.98
857.101	72.36
857.276	55.98
857.45	25.26
857.625	39.59
857.799	8.87
857.974	17.07
858.148	17.07
858.323	111.27
858.497	29.35
858.672	2.73
858.846	37.55
859.02	15.02
859.195	-44.37
859.369	45.74
859.543	2.73
859.718	-30.04
859.892	45.74
860.066	33.45
860.241	-7.51
860.415	4.78
860.589	31.4
860.763	41.64
860.938	-85.33
861.112	31.4
861.286	25.26
861.46	10.92
861.634	12.97
861.808	17.07
861.982	0.68
862.157	-36.18
862.331	17.07
862.505	-15.7
862.679	4.78
862.853	-19.8
863.027	-54.61
863.201	78.51
863.375	-36.18
863.549	82.6
863.722	-19.8
863.896	15.02
864.07	29.35
864.244	-54.61
864.418	4.78
864.592	53.93
864.766	25.26
864.939	-19.8
865.113	-13.65
865.287	37.55
865.461	-15.7
865.634	47.79
865.808	-11.61
865.982	55.98
866.156	29.35
866.329	-40.28
866.503	58.03
866.676	58.03
866.85	-48.47
867.024	-60.76
867.197	23.21
867.371	105.13
867.544	-34.13
867.718	47.79
867.891	12.97
868.065	-5.46
868.238	-11.61
868.412	49.83
868.585	27.31
868.759	17.07
868.932	-7.51
869.105	23.21
869.279	8.87
869.452	29.35
869.625	0.68
869.799	-25.94
869.972	21.16
870.145	4.78
870.319	21.16
870.492	-11.61
870.665	-44.37
870.838	-11.61
871.011	6.83
871.185	-7.51
871.358	-3.41
871.531	17.07
871.704	49.83
871.877	53.93
872.05	-38.23
872.223	47.79
872.396	6.83
872.569	21.16
872.742	-11.61
872.915	62.12
873.088	4.78
873.261	-7.51
873.434	45.74
873.607	15.02
873.78	33.45
873.953	-32.08
874.126	4.78
874.299	23.21
874.471	-1.37
874.644	23.21
874.817	-54.61
874.99	107.18
875.163	23.21
875.335	6.83
875.508	12.97
875.681	10.92
875.853	-36.18
876.026	-34.13
876.199	0.68
876.371	-9.56
876.544	12.97
876.717	-52.56
876.889	21.16
877.062	-52.56
877.234	-23.89
877.407	-3.41
877.579	4.78
877.752	-52.56
877.924	-27.99
878.097	0.68
878.269	-5.46
878.442	55.98
878.614	29.35
878.786	-36.18
878.959	0.68
879.131	78.51
879.303	-60.76
879.476	-60.76
879.648	72.36
879.82	-44.37
879.993	-34.13
880.165	2.73
880.337	-23.89
880.509	-1.37
880.681	-13.65
880.854	-17.75
881.026	-9.56
881.198	74.41
881.37	23.21
881.542	49.83
881.714	-17.75
881.886	-19.8
882.058	33.45
882.23	21.16
882.402	-32.08
882.574	21.16
882.746	25.26
882.918	62.12
883.09	88.75
883.262	-32.08
883.434	53.93
883.606	37.55
883.778	-50.52
883.95	96.94
884.122	10.92
884.293	23.21
884.465	-36.18
884.637	47.79
884.809	-19.8
884.98	37.55
885.152	53.93
885.324	53.93
885.496	-34.13
885.667	-5.46
885.839	-58.71
886.011	121.51
886.182	53.93
886.354	-19.8
886.525	49.83
886.697	4.78
886.869	17.07
887.04	-3.41
887.212	8.87
887.383	60.07
887.555	-42.32
887.726	-48.47
887.897	-66.9
888.069	55.98
888.24	-19.8
888.412	10.92
888.583	2.73
888.754	-126.29
888.926	49.83
889.097	-40.28
889.268	-19.8
889.44	4.78
889.611	-36.18
889.782	-34.13
889.953	29.35
890.125	-42.32
890.296	12.97
890.467	-34.13
890.638	-58.71
890.809	92.84
890.98	-13.65
891.151	37.55
891.323	-19.8
891.494	45.74
891.665	-44.37
891.836	-68.95
892.007	25.26
892.178	-23.89
892.349	-23.89
892.52	-32.08
892.691	-52.56
892.862	-27.99
893.032	-38.23
893.203	-60.76
893.374	-23.89
893.545	0.68
893.716	29.35
893.887	68.27
894.057	-44.37
894.228	64.17
894.399	-50.52
894.57	39.59
894.74	-19.8
894.911	-3.41
895.082	-66.9
895.253	0.68
895.423	-42.32
895.594	8.87
895.764	47.79
895.935	-77.14
896.106	60.07
896.276	68.27
896.447	-3.41
896.617	39.59
896.788	-1.37
896.958	-42.32
897.129	-40.28
897.299	-3.41
897.47	47.79
897.64	-52.56
897.81	-11.61
897.981	-50.52
898.151	-27.99
898.322	-15.7
898.492	-9.56
898.662	-9.56
898.832	4.78
899.003	-34.13
899.173	-3.41
899.343	8.87
899.513	-23.89
