Data from USB4F104151__233__14-34-02-788.txt Node

Date: Thu Mar 13 14:34:02 EDT 2025
User: louis
Spectrometer: USB4F10415
Trigger mode: 4
Integration Time (sec): 2.500000E-2
Scans to average: 1
Electric dark correction enabled: true
Nonlinearity correction enabled: false
Boxcar width: 0
XAxis mode: Wavelengths
Number of Pixels in Spectrum: 3648
>>>>>Begin Spectral Data<<<<<
178.204	-176.98
178.424	-176.98
178.644	-176.98
178.864	-213.84
179.084	-115.54
179.304	-13.14
179.524	58.54
179.744	-41.81
179.964	66.73
180.184	-17.24
180.404	-17.24
180.624	-7
180.844	23.72
181.064	-15.19
181.283	-31.57
181.503	-70.48
181.723	64.68
181.943	15.53
182.163	72.87
182.383	5.29
182.602	48.3
182.822	-31.57
183.042	7.34
183.262	56.49
183.482	52.39
183.701	-23.38
183.921	40.11
184.141	36.01
184.361	7.34
184.58	11.43
184.8	7.34
185.02	-25.43
185.239	56.49
185.459	7.34
185.679	79.02
185.898	-39.76
186.118	1.19
186.338	-29.52
186.557	31.91
186.777	-17.24
186.997	-0.85
187.216	44.2
187.436	42.15
187.655	95.4
187.875	25.77
188.095	50.35
188.314	124.07
188.534	17.58
188.753	-2.9
188.973	3.24
189.192	93.35
189.412	-7
189.631	68.78
189.851	17.58
190.07	109.74
190.29	-99.16
190.509	25.77
190.729	-54.1
190.948	23.72
191.168	181.42
191.387	81.07
191.607	-45.91
191.826	105.64
192.045	117.93
192.265	64.68
192.484	40.11
192.704	-37.72
192.923	-13.14
193.142	83.11
193.362	38.06
193.581	113.83
193.8	93.35
194.02	156.84
194.239	56.49
194.458	7.34
194.678	-4.95
194.897	138.41
195.116	5.29
195.335	52.39
195.555	-25.43
195.774	58.54
195.993	91.31
196.212	31.91
196.432	7.34
196.651	1.19
196.87	9.39
197.089	5.29
197.308	19.63
197.528	62.63
197.747	-9.05
197.966	7.34
198.185	99.5
198.404	-17.24
198.623	72.87
198.842	33.96
199.062	83.11
199.281	44.2
199.5	48.3
199.719	9.39
199.938	40.11
200.157	31.91
200.376	117.93
200.595	31.91
200.814	81.07
201.033	36.01
201.252	-15.19
201.471	99.5
201.69	66.73
201.909	31.91
202.128	81.07
202.347	25.77
202.566	3.24
202.785	31.91
203.004	-4.95
203.223	109.74
203.442	-9.05
203.661	48.3
203.879	128.17
204.098	44.2
204.317	15.53
204.536	66.73
204.755	56.49
204.974	15.53
205.193	56.49
205.411	183.46
205.63	105.64
205.849	124.07
206.068	31.91
206.287	27.82
206.505	15.53
206.724	11.43
206.943	-4.95
207.162	72.87
207.381	109.74
207.599	9.39
207.818	19.63
208.037	23.72
208.255	11.43
208.474	68.78
208.693	3.24
208.911	15.53
209.13	33.96
209.349	7.34
209.567	58.54
209.786	113.83
210.005	130.22
210.223	89.26
210.442	33.96
210.661	33.96
210.879	40.11
211.098	44.2
211.316	27.82
211.535	27.82
211.753	15.53
211.972	44.2
212.191	31.91
212.409	60.59
212.628	31.91
212.846	-17.24
213.065	83.11
213.283	58.54
213.502	23.72
213.72	60.59
213.938	40.11
214.157	-50
214.375	60.59
214.594	-15.19
214.812	81.07
215.031	23.72
215.249	-31.57
215.467	64.68
215.686	9.39
215.904	33.96
216.122	50.35
216.341	50.35
216.559	-0.85
216.778	97.45
216.996	40.11
217.214	1.19
217.432	23.72
217.651	5.29
217.869	15.53
218.087	66.73
218.306	7.34
218.524	52.39
218.742	-4.95
218.96	-4.95
219.179	33.96
219.397	74.92
219.615	85.16
219.833	15.53
220.051	-0.85
220.27	91.31
220.488	62.63
220.706	-4.95
220.924	23.72
221.142	40.11
221.36	42.15
221.578	66.73
221.796	25.77
222.015	64.68
222.233	105.64
222.451	48.3
222.669	15.53
222.887	21.67
223.105	-54.1
223.323	11.43
223.541	-13.14
223.759	72.87
223.977	11.43
224.195	107.69
224.413	115.88
224.631	-9.05
224.849	-45.91
225.067	66.73
225.285	74.92
225.503	-56.15
225.721	-45.91
225.939	91.31
226.157	54.44
226.375	115.88
226.592	5.29
226.81	60.59
227.028	99.5
227.246	76.97
227.464	85.16
227.682	40.11
227.9	52.39
228.117	113.83
228.335	81.07
228.553	7.34
228.771	97.45
228.989	64.68
229.206	68.78
229.424	-25.43
229.642	33.96
229.86	33.96
230.077	101.55
230.295	11.43
230.513	25.77
230.731	113.83
230.948	85.16
231.166	89.26
231.384	36.01
231.601	48.3
231.819	36.01
232.037	1.19
232.254	21.67
232.472	40.11
232.689	52.39
232.907	56.49
233.125	66.73
233.342	17.58
233.56	7.34
233.777	64.68
233.995	-25.43
234.213	105.64
234.43	17.58
234.648	23.72
234.865	52.39
235.083	83.11
235.3	-9.05
235.518	11.43
235.735	33.96
235.953	81.07
236.17	38.06
236.388	58.54
236.605	31.91
236.822	101.55
237.04	36.01
237.257	17.58
237.475	74.92
237.692	40.11
237.909	-21.33
238.127	-25.43
238.344	31.91
238.562	48.3
238.779	1.19
238.996	72.87
239.214	50.35
239.431	31.91
239.648	70.83
239.865	113.83
240.083	72.87
240.3	81.07
240.517	89.26
240.735	40.11
240.952	-15.19
241.169	48.3
241.386	64.68
241.603	19.63
241.821	7.34
242.038	-4.95
242.255	93.35
242.472	33.96
242.689	25.77
242.907	15.53
243.124	54.44
243.341	62.63
243.558	56.49
243.775	56.49
243.992	11.43
244.209	105.64
244.426	105.64
244.643	40.11
244.86	76.97
245.078	72.87
245.295	-0.85
245.512	56.49
245.729	64.68
245.946	29.87
246.163	-17.24
246.38	-37.72
246.597	72.87
246.814	7.34
247.031	-15.19
247.248	36.01
247.464	33.96
247.681	56.49
247.898	56.49
248.115	60.59
248.332	-82.77
248.549	-21.33
248.766	113.83
248.983	52.39
249.2	-15.19
249.417	56.49
249.633	-39.76
249.85	99.5
250.067	54.44
250.284	64.68
250.501	-2.9
250.717	83.11
250.934	-47.96
251.151	54.44
251.368	-25.43
251.585	36.01
251.801	25.77
252.018	54.44
252.235	31.91
252.451	3.24
252.668	79.02
252.885	132.26
253.102	44.2
253.318	87.21
253.535	60.59
253.752	-25.43
253.968	40.11
254.185	-76.63
254.401	17.58
254.618	76.97
254.835	19.63
255.051	81.07
255.268	27.82
255.484	74.92
255.701	64.68
255.917	93.35
256.134	40.11
256.351	72.87
256.567	7.34
256.784	31.91
257	-13.14
257.217	38.06
257.433	70.83
257.65	40.11
257.866	93.35
258.082	1.19
258.299	7.34
258.515	48.3
258.732	-13.14
258.948	-21.33
259.165	105.64
259.381	11.43
259.597	74.92
259.814	25.77
260.03	23.72
260.246	40.11
260.463	-4.95
260.679	113.83
260.895	17.58
261.112	89.26
261.328	56.49
261.544	31.91
261.761	146.6
261.977	-0.85
262.193	-25.43
262.409	31.91
262.626	25.77
262.842	89.26
263.058	40.11
263.274	74.92
263.49	117.93
263.707	42.15
263.923	81.07
264.139	36.01
264.355	60.59
264.571	54.44
264.787	44.2
265.004	23.72
265.22	25.77
265.436	-19.29
265.652	50.35
265.868	31.91
266.084	15.53
266.3	42.15
266.516	-50
266.732	72.87
266.948	89.26
267.164	66.73
267.38	11.43
267.596	46.25
267.812	148.65
268.028	44.2
268.244	-17.24
268.46	105.64
268.676	9.39
268.892	115.88
269.108	33.96
269.324	-37.72
269.54	36.01
269.756	60.59
269.972	56.49
270.188	56.49
270.403	9.39
270.619	-0.85
270.835	74.92
271.051	58.54
271.267	21.67
271.483	48.3
271.698	97.45
271.914	101.55
272.13	17.58
272.346	91.31
272.562	31.91
272.777	83.11
272.993	27.82
273.209	56.49
273.425	68.78
273.64	36.01
273.856	56.49
274.072	23.72
274.287	19.63
274.503	103.59
274.719	83.11
274.934	48.3
275.15	-31.57
275.366	124.07
275.581	-88.92
275.797	-17.24
276.012	17.58
276.228	-23.38
276.444	25.77
276.659	72.87
276.875	17.58
277.09	81.07
277.306	27.82
277.521	52.39
277.737	-15.19
277.952	76.97
278.168	68.78
278.383	58.54
278.599	-15.19
278.814	17.58
279.03	60.59
279.245	64.68
279.461	40.11
279.676	74.92
279.892	40.11
280.107	-2.9
280.322	58.54
280.538	56.49
280.753	13.48
280.969	101.55
281.184	48.3
281.399	64.68
281.615	58.54
281.83	50.35
282.045	15.53
282.26	17.58
282.476	124.07
282.691	97.45
282.906	72.87
283.122	31.91
283.337	36.01
283.552	21.67
283.767	50.35
283.983	27.82
284.198	58.54
284.413	107.69
284.628	-58.2
284.843	23.72
285.058	-0.85
285.274	44.2
285.489	93.35
285.704	89.26
285.919	-50
286.134	50.35
286.349	21.67
286.564	23.72
286.779	50.35
286.995	44.2
287.21	-35.67
287.425	31.91
287.64	36.01
287.855	27.82
288.07	-0.85
288.285	60.59
288.5	93.35
288.715	38.06
288.93	11.43
289.145	40.11
289.36	89.26
289.575	50.35
289.79	-0.85
290.004	25.77
290.219	89.26
290.434	66.73
290.649	17.58
290.864	89.26
291.079	56.49
291.294	83.11
291.509	99.5
291.724	-15.19
291.938	23.72
292.153	54.44
292.368	56.49
292.583	48.3
292.798	93.35
293.012	1.19
293.227	62.63
293.442	72.87
293.657	15.53
293.871	74.92
294.086	91.31
294.301	124.07
294.516	85.16
294.73	79.02
294.945	17.58
295.16	50.35
295.374	7.34
295.589	40.11
295.804	31.91
296.018	15.53
296.233	-9.05
296.447	23.72
296.662	-50
296.877	74.92
297.091	122.02
297.306	17.58
297.52	-7
297.735	89.26
297.949	89.26
298.164	89.26
298.378	89.26
298.593	11.43
298.807	29.87
299.022	15.53
299.236	154.79
299.451	36.01
299.665	-7
299.88	42.15
300.094	7.34
300.309	74.92
300.523	13.48
300.737	52.39
300.952	40.11
301.166	-4.95
301.381	48.3
301.595	58.54
301.809	29.87
302.024	48.3
302.238	23.72
302.452	89.26
302.667	76.97
302.881	52.39
303.095	83.11
303.309	7.34
303.524	40.11
303.738	79.02
303.952	103.59
304.166	144.55
304.381	-19.29
304.595	142.5
304.809	23.72
305.023	52.39
305.237	-4.95
305.452	7.34
305.666	42.15
305.88	11.43
306.094	1.19
306.308	103.59
306.522	95.4
306.736	95.4
306.95	13.48
307.164	-11.09
307.379	11.43
307.593	97.45
307.807	130.22
308.021	146.6
308.235	25.77
308.449	11.43
308.663	-17.24
308.877	23.72
309.091	42.15
309.305	5.29
309.519	-50
309.733	23.72
309.947	11.43
310.161	109.74
310.374	40.11
310.588	-0.85
310.802	95.4
311.016	70.83
311.23	27.82
311.444	1.19
311.658	17.58
311.872	115.88
312.085	105.64
312.299	83.11
312.513	56.49
312.727	66.73
312.941	-9.05
313.154	-33.62
313.368	56.49
313.582	124.07
313.796	44.2
314.009	-0.85
314.223	76.97
314.437	64.68
314.651	-7
314.864	62.63
315.078	74.92
315.292	44.2
315.505	7.34
315.719	74.92
315.933	7.34
316.146	27.82
316.36	58.54
316.573	126.12
316.787	40.11
317.001	42.15
317.214	42.15
317.428	105.64
317.641	-29.52
317.855	13.48
318.068	-25.43
318.282	74.92
318.495	146.6
318.709	124.07
318.922	-33.62
319.136	19.63
319.349	117.93
319.563	44.2
319.776	113.83
319.99	-64.34
320.203	66.73
320.417	-23.38
320.63	85.16
320.843	113.83
321.057	74.92
321.27	-33.62
321.483	72.87
321.697	162.98
321.91	89.26
322.124	29.87
322.337	1.19
322.55	-15.19
322.763	93.35
322.977	72.87
323.19	-76.63
323.403	52.39
323.617	-0.85
323.83	68.78
324.043	23.72
324.256	11.43
324.469	-13.14
324.683	58.54
324.896	72.87
325.109	60.59
325.322	31.91
325.535	122.02
325.748	85.16
325.962	23.72
326.175	72.87
326.388	130.22
326.601	44.2
326.814	126.12
327.027	48.3
327.24	105.64
327.453	-29.52
327.666	54.44
327.879	48.3
328.092	-17.24
328.305	113.83
328.518	119.98
328.731	27.82
328.944	40.11
329.157	72.87
329.37	-0.85
329.583	74.92
329.796	128.17
330.009	-15.19
330.222	117.93
330.435	40.11
330.648	122.02
330.861	-19.29
331.073	113.83
331.286	89.26
331.499	52.39
331.712	36.01
331.925	1.19
332.138	3.24
332.35	54.44
332.563	58.54
332.776	62.63
332.989	33.96
333.202	74.92
333.414	21.67
333.627	48.3
333.84	83.11
334.053	72.87
334.265	-7
334.478	23.72
334.691	1.19
334.903	60.59
335.116	89.26
335.329	36.01
335.541	42.15
335.754	85.16
335.966	-0.85
336.179	31.91
336.392	-82.77
336.604	113.83
336.817	87.21
337.029	48.3
337.242	-13.14
337.454	72.87
337.667	56.49
337.88	74.92
338.092	15.53
338.305	62.63
338.517	85.16
338.729	119.98
338.942	52.39
339.154	91.31
339.367	19.63
339.579	42.15
339.792	11.43
340.004	105.64
340.217	33.96
340.429	27.82
340.641	13.48
340.854	-7
341.066	-52.05
341.278	48.3
341.491	91.31
341.703	79.02
341.915	31.91
342.128	132.26
342.34	25.77
342.552	109.74
342.764	36.01
342.977	31.91
343.189	44.2
343.401	25.77
343.613	11.43
343.826	50.35
344.038	-17.24
344.25	111.78
344.462	-9.05
344.674	29.87
344.886	81.07
345.099	68.78
345.311	64.68
345.523	46.25
345.735	11.43
345.947	-27.48
346.159	-9.05
346.371	11.43
346.583	124.07
346.795	93.35
347.007	-0.85
347.219	113.83
347.431	33.96
347.643	109.74
347.855	52.39
348.067	119.98
348.279	-9.05
348.491	76.97
348.703	72.87
348.915	83.11
349.127	-4.95
349.339	52.39
349.551	11.43
349.763	89.26
349.975	81.07
350.187	89.26
350.399	81.07
350.61	31.91
350.822	107.69
351.034	72.87
351.246	38.06
351.458	87.21
351.669	54.44
351.881	83.11
352.093	56.49
352.305	89.26
352.517	-0.85
352.728	130.22
352.94	72.87
353.152	97.45
353.363	11.43
353.575	33.96
353.787	81.07
353.999	44.2
354.21	83.11
354.422	25.77
354.633	25.77
354.845	50.35
355.057	40.11
355.268	81.07
355.48	115.88
355.692	-0.85
355.903	56.49
356.115	89.26
356.326	-41.81
356.538	74.92
356.749	138.41
356.961	130.22
357.172	50.35
357.384	25.77
357.595	52.39
357.807	99.5
358.018	68.78
358.23	33.96
358.441	160.94
358.653	83.11
358.864	40.11
359.075	19.63
359.287	15.53
359.498	97.45
359.709	130.22
359.921	64.68
360.132	-9.05
360.344	60.59
360.555	36.01
360.766	89.26
360.977	74.92
361.189	25.77
361.4	-17.24
361.611	85.16
361.823	179.37
362.034	17.58
362.245	31.91
362.456	138.41
362.667	58.54
362.879	48.3
363.09	89.26
363.301	54.44
363.512	81.07
363.723	89.26
363.935	-60.24
364.146	44.2
364.357	111.78
364.568	50.35
364.779	25.77
364.99	58.54
365.201	-33.62
365.412	122.02
365.623	-9.05
365.834	72.87
366.045	36.01
366.256	64.68
366.467	85.16
366.678	9.39
366.889	3.24
367.1	58.54
367.311	97.45
367.522	105.64
367.733	134.31
367.944	83.11
368.155	48.3
368.366	95.4
368.577	124.07
368.788	74.92
368.999	97.45
369.209	50.35
369.42	165.03
369.631	115.88
369.842	89.26
370.053	9.39
370.264	130.22
370.474	48.3
370.685	56.49
370.896	17.58
371.107	54.44
371.317	74.92
371.528	111.78
371.739	27.82
371.95	89.26
372.16	58.54
372.371	7.34
372.582	85.16
372.792	85.16
373.003	50.35
373.214	58.54
373.424	40.11
373.635	23.72
373.846	101.55
374.056	60.59
374.267	115.88
374.477	56.49
374.688	46.25
374.898	60.59
375.109	5.29
375.319	91.31
375.53	142.5
375.74	85.16
375.951	50.35
376.161	91.31
376.372	60.59
376.582	23.72
376.793	-4.95
377.003	1.19
377.214	81.07
377.424	101.55
377.635	83.11
377.845	60.59
378.055	99.5
378.266	60.59
378.476	33.96
378.686	156.84
378.897	72.87
379.107	60.59
379.317	64.68
379.528	-56.15
379.738	79.02
379.948	25.77
380.158	50.35
380.369	122.02
380.579	50.35
380.789	52.39
380.999	31.91
381.21	126.12
381.42	68.78
381.63	9.39
381.84	74.92
382.05	130.22
382.261	93.35
382.471	40.11
382.681	68.78
382.891	91.31
383.101	27.82
383.311	7.34
383.521	23.72
383.731	83.11
383.941	64.68
384.151	56.49
384.361	66.73
384.571	126.12
384.781	66.73
384.991	146.6
385.201	134.31
385.411	76.97
385.621	29.87
385.831	23.72
386.041	81.07
386.251	29.87
386.461	97.45
386.671	66.73
386.881	83.11
387.091	68.78
387.301	50.35
387.511	70.83
387.72	122.02
387.93	21.67
388.14	40.11
388.35	72.87
388.56	83.11
388.769	48.3
388.979	68.78
389.189	3.24
389.399	64.68
389.609	93.35
389.818	56.49
390.028	15.53
390.238	11.43
390.447	42.15
390.657	89.26
390.867	64.68
391.076	50.35
391.286	105.64
391.496	97.45
391.705	40.11
391.915	138.41
392.125	60.59
392.334	9.39
392.544	126.12
392.753	19.63
392.963	31.91
393.172	109.74
393.382	68.78
393.591	171.18
393.801	50.35
394.01	89.26
394.22	60.59
394.429	56.49
394.639	11.43
394.848	64.68
395.058	68.78
395.267	83.11
395.477	50.35
395.686	105.64
395.895	138.41
396.105	177.32
396.314	144.55
396.524	113.83
396.733	81.07
396.942	13.48
397.152	124.07
397.361	162.98
397.57	146.6
397.78	81.07
397.989	142.5
398.198	179.37
398.407	162.98
398.617	66.73
398.826	107.69
399.035	40.11
399.244	144.55
399.453	105.64
399.663	154.79
399.872	122.02
400.081	68.78
400.29	146.6
400.499	87.21
400.708	167.08
400.917	48.3
401.127	85.16
401.336	40.11
401.545	171.18
401.754	99.5
401.963	113.83
402.172	130.22
402.381	138.41
402.59	138.41
402.799	165.03
403.008	187.56
403.217	130.22
403.426	203.94
403.635	144.55
403.844	171.18
404.053	128.17
404.262	105.64
404.471	240.81
404.68	167.08
404.888	208.04
405.097	107.69
405.306	167.08
405.515	154.79
405.724	240.81
405.933	187.56
406.142	259.24
406.35	199.85
406.559	154.79
406.768	185.51
406.977	271.53
407.185	267.43
407.394	253.09
407.603	195.75
407.812	281.77
408.02	210.09
408.229	279.72
408.438	244.9
408.646	316.58
408.855	337.06
409.064	337.06
409.272	347.3
409.481	365.73
409.69	337.06
409.898	285.86
410.107	378.02
410.315	320.68
410.524	369.83
410.733	400.55
410.941	353.45
411.15	484.52
411.358	433.32
411.567	470.18
411.775	468.13
411.984	470.18
412.192	443.56
412.401	531.62
412.609	584.87
412.818	578.72
413.026	609.44
413.234	621.73
413.443	613.54
413.651	644.26
413.86	650.4
414.068	695.46
414.276	801.95
414.485	730.27
414.693	738.46
414.901	937.12
415.11	797.85
415.318	914.59
415.526	867.49
415.734	867.49
415.943	1027.23
416.151	973.98
416.359	877.73
416.567	928.92
416.776	1066.14
416.984	1186.97
417.192	1164.44
417.4	1195.16
417.608	1168.54
417.817	1219.74
418.025	1297.56
418.233	1467.54
418.441	1359
418.649	1334.42
418.857	1510.55
419.065	1547.41
419.273	1516.69
419.481	1531.03
419.689	1797.26
419.897	1842.32
420.105	1858.7
420.313	1903.76
420.521	1899.66
420.729	1907.85
420.937	2088.07
421.145	2200.71
421.353	2286.73
421.561	2440.33
421.769	2417.8
421.977	2505.86
422.185	2389.13
422.393	2499.72
422.601	2882.69
422.809	2763.9
423.017	2827.39
423.224	2784.38
423.432	3083.39
423.64	2958.46
423.848	3251.32
424.056	3175.55
424.263	3411.06
424.471	3382.39
424.679	3458.17
424.887	3579
425.094	3714.16
425.302	3834.99
425.51	3964.01
425.718	4144.24
425.925	4097.13
426.133	4318.31
426.341	4480.1
426.548	4746.34
426.756	4586.6
426.964	4775.01
427.171	5086.3
427.379	5250.14
427.586	5172.32
427.794	5315.67
428.001	5629.01
428.209	5983.31
428.417	5749.84
428.624	6235.21
428.832	6210.64
429.039	6120.53
429.247	6079.57
429.454	6716.48
429.662	7367.74
429.869	6620.23
430.076	7177.28
430.284	6995.01
430.491	7412.79
430.699	7785.52
430.906	7584.82
431.114	7777.33
431.321	8068.14
431.528	8080.43
431.736	8690.73
431.943	9010.21
432.15	9128.99
432.358	8854.56
432.565	9481.24
432.772	9468.95
432.979	9884.69
433.187	10044.43
433.394	10003.47
433.601	10632.2
433.808	10779.65
434.016	10681.35
434.223	11363.33
434.43	11873.27
434.637	11574.27
434.844	12547.05
435.052	12323.82
435.259	12567.53
435.466	12645.35
435.673	12415.98
435.88	13069.28
436.087	14058.45
436.294	13751.26
436.501	13771.74
436.708	13669.34
436.915	14316.5
437.122	15010.76
437.329	15098.82
437.537	15047.62
437.743	15694.78
437.95	15680.44
438.157	16360.37
438.364	16982.95
438.571	16925.61
438.778	16997.29
438.985	18195.35
439.192	17828.76
439.399	18303.89
439.606	18074.52
439.813	18842.51
440.02	19985.27
440.227	19768.19
440.433	19487.62
440.64	20458.35
440.847	20224.89
441.054	20378.48
441.261	21936.99
441.467	21480.29
441.674	22088.54
441.881	22752.08
442.088	22831.95
442.294	22496.08
442.501	23112.52
442.708	23266.12
442.914	24636.21
443.121	25307.94
443.328	24873.78
443.534	26432.28
443.741	25705.25
443.948	25385.77
444.154	27573
444.361	27247.37
444.568	27120.4
444.774	27450.12
444.981	27704.07
445.187	28353.27
445.394	29680.36
445.6	29373.16
445.807	31871.68
446.013	30649.05
446.22	31181.52
446.426	32113.34
446.633	32805.56
446.839	33520.3
447.046	32158.4
447.252	34067.11
447.459	34015.91
447.665	34097.83
447.871	35515.02
448.078	37395.06
448.284	35181.2
448.491	35988.1
448.697	37624.43
448.903	38234.72
449.11	38414.94
449.316	37843.56
449.522	38388.32
449.728	39381.59
449.935	39914.06
450.141	39647.82
450.347	40448.58
450.553	39574.09
450.76	39832.14
450.966	40981.05
451.172	40931.9
451.378	41507.38
451.584	40651.33
451.791	41804.33
451.997	41521.71
452.203	42308.13
452.409	42512.93
452.615	42070.57
452.821	40022.6
453.027	40065.61
453.233	41970.22
453.44	40254.02
453.646	41089.59
453.852	41144.89
454.058	41644.59
454.264	40131.14
454.47	41409.07
454.676	40219.2
454.882	41742.89
455.088	37808.75
455.294	38867.55
455.5	39203.41
455.705	39514.7
455.911	37843.56
456.117	37204.59
456.323	36784.76
456.529	34798.23
456.735	36395.65
456.941	35209.87
457.147	34724.5
457.352	33675.94
457.558	33454.76
457.764	33823.4
457.97	32559.8
458.176	32221.89
458.381	31853.25
458.587	30628.57
458.793	30380.76
458.999	28621.56
459.204	30917.33
459.41	29774.56
459.616	28019.46
459.821	28293.88
460.027	27927.3
460.233	27405.06
460.438	26376.98
460.644	26108.7
460.85	25293.61
461.055	24468.28
461.261	24501.04
461.466	22932.3
461.672	21971.8
461.878	23491.4
462.083	22289.24
462.289	21814.11
462.494	21320.55
462.7	20667.25
462.905	19862.4
463.111	20542.32
463.316	20429.68
463.522	20202.36
463.727	20532.08
463.932	20151.16
464.138	20032.38
464.343	19714.94
464.549	19561.34
464.754	20032.38
464.959	19757.95
465.165	19807.1
465.37	18908.04
465.575	18316.18
465.781	19159.94
465.986	19055.5
466.191	18520.98
466.397	18097.05
466.602	17185.7
466.807	18029.46
467.012	17955.74
467.218	18002.84
467.423	17562.53
467.628	17550.24
467.833	18643.85
468.038	17650.59
468.244	17269.67
468.449	17839
468.654	17374.11
468.859	17105.83
469.064	16937.9
469.269	16350.13
469.474	16677.8
469.679	16737.2
469.885	16483.25
470.09	16339.89
470.295	16309.17
470.5	15950.78
470.705	16114.61
470.91	15752.12
471.115	15551.42
471.32	15819.71
471.525	15788.99
471.73	15367.1
471.935	15207.36
472.139	14703.56
472.344	15002.57
472.549	14580.68
472.754	14785.48
472.959	14328.78
473.164	14035.92
473.369	13847.51
473.574	14275.54
473.778	14054.36
473.983	13806.55
474.188	13878.23
474.393	13388.77
474.598	13478.88
474.802	13155.3
475.007	13358.05
475.212	13360.09
475.417	12809.19
475.621	12807.14
475.826	12768.23
476.031	12491.76
476.235	12360.69
476.44	12825.57
476.645	12186.61
476.849	12266.48
477.054	12096.5
477.259	11926.52
477.463	11731.96
477.668	11764.73
477.872	11609.08
478.077	11564.03
478.282	11445.24
478.486	11166.72
478.691	11166.72
478.895	11232.26
479.1	11209.73
479.304	11099.14
479.509	10697.74
479.713	10984.45
479.918	10714.12
480.122	10558.47
480.326	10820.61
480.531	10636.3
480.735	10771.46
480.94	10540.04
481.144	10697.74
481.348	10308.62
481.553	10562.57
481.757	10251.28
481.961	10243.09
482.166	10501.13
482.37	10468.36
482.574	10109.97
482.778	10372.11
482.983	10368.01
483.187	10261.52
483.391	10247.18
483.595	10107.92
483.8	10124.3
484.004	10433.55
484.208	10390.54
484.412	10116.11
484.616	10216.46
484.821	10251.28
485.025	9919.51
485.229	10320.91
485.433	10124.3
485.637	10136.59
485.841	10171.41
486.045	10333.2
486.249	10216.46
486.453	10075.15
486.657	10144.78
486.861	10210.32
487.065	10056.72
487.269	10071.06
487.473	10009.62
487.677	10165.26
487.881	10343.44
488.085	10204.17
488.289	10073.1
488.493	10224.65
488.697	10202.13
488.901	10343.44
489.105	10167.31
489.309	10312.72
489.512	10347.53
489.716	10204.17
489.92	10124.3
490.124	10079.25
490.328	10431.5
490.531	10159.12
490.735	10304.53
490.939	10193.94
491.143	10521.61
491.346	10400.78
491.55	10591.24
491.754	10306.57
491.958	10312.72
492.161	10429.45
492.365	10574.86
492.569	10447.88
492.772	10439.69
492.976	10753.03
493.18	10750.98
493.383	10755.08
493.587	10828.81
493.79	10910.72
493.994	10640.39
494.197	11015.17
494.401	10910.72
494.605	11041.79
494.808	11111.43
495.012	11172.86
495.215	11109.38
495.419	11439.1
495.622	11287.55
495.825	11688.95
496.029	11518.97
496.232	11791.35
496.436	11885.56
496.639	12182.51
496.843	11961.33
497.046	12166.13
497.249	12104.69
497.453	12035.06
497.656	12454.89
497.859	12682.22
498.063	12567.53
498.266	12780.52
498.469	12813.29
498.673	12803.05
498.876	12981.22
499.079	13247.46
499.282	12942.31
499.485	13437.92
499.689	13347.81
499.892	13655
500.095	13515.74
500.298	13898.71
500.501	13812.7
500.705	14273.49
500.908	14236.63
501.111	14660.55
501.314	14740.43
501.517	14490.57
501.72	14805.96
501.923	14736.33
502.126	14918.6
502.329	15522.75
502.532	15416.26
502.735	15475.65
502.938	15913.91
503.141	15793.08
503.344	15946.68
503.547	16157.62
503.75	16161.72
503.953	16759.72
504.156	16808.87
504.359	17136.55
504.562	16999.34
504.765	17171.36
504.968	17664.93
505.17	17521.57
505.373	17634.21
505.576	18178.97
505.779	18156.44
505.982	18162.58
506.185	18645.9
506.387	18774.92
506.59	18891.66
506.793	19145.61
506.996	18809.74
507.198	19774.33
507.401	19716.99
507.604	19786.62
507.807	20087.67
508.009	20372.34
508.212	20530.03
508.415	20661.1
508.617	21101.42
508.82	20937.58
509.022	20695.92
509.225	21412.71
509.428	21621.6
509.63	21861.21
509.833	21736.29
510.035	22166.36
510.238	22342.49
510.44	22385.49
510.643	22856.53
510.845	22811.47
511.048	23038.8
511.25	23399.24
511.453	23409.48
511.655	24214.33
511.858	23868.22
512.06	23964.48
512.262	24408.89
512.465	24640.31
512.667	24683.31
512.87	25125.68
513.072	25277.22
513.274	25459.49
513.477	25617.19
513.679	25867.04
513.881	26114.84
514.084	26442.52
514.286	26575.64
514.488	26716.95
514.69	27386.63
514.893	27179.79
515.095	27403.02
515.297	27564.81
515.499	28199.68
515.701	28437.24
515.904	28383.99
516.106	28594.93
516.308	28797.68
516.51	29235.95
516.712	29264.62
516.914	29387.5
517.116	30042.85
517.318	29967.07
517.52	30182.11
517.722	30042.85
517.925	30634.71
518.127	30743.25
518.329	31228.62
518.531	31146.7
518.733	31718.09
518.935	31683.27
519.136	31630.02
519.338	32164.54
519.54	32139.97
519.742	32504.51
519.944	32725.69
520.146	33059.51
520.348	33268.4
520.55	33342.13
520.752	33309.36
520.954	34085.54
521.155	33735.34
521.357	33933.99
521.559	34558.62
521.761	34841.24
521.963	34779.8
522.164	34515.61
522.366	35166.87
522.568	35392.14
522.77	35388.05
522.971	35844.74
523.173	35558.03
523.375	36022.92
523.576	35928.71
523.778	35977.86
523.98	36530.81
524.181	36303.49
524.383	36407.94
524.584	36561.53
524.786	36856.44
524.988	36553.34
525.189	36762.23
525.391	37390.96
525.592	37321.33
525.794	36907.64
525.995	37313.14
526.197	37137.01
526.398	37655.15
526.6	37513.84
526.801	37739.11
527.003	37909.1
527.204	38136.42
527.406	38038.12
527.607	38085.22
527.808	38431.33
528.01	37646.96
528.211	37775.98
528.412	38531.68
528.614	38247.01
528.815	38220.39
529.016	38433.38
529.218	37909.1
529.419	38212.2
529.62	38072.93
529.822	38122.08
530.023	38326.88
530.224	38324.83
530.425	38285.92
530.626	38210.15
530.828	38009.45
531.029	38564.45
531.23	38109.8
531.431	38081.13
531.632	38369.89
531.833	38132.32
532.035	38128.23
532.236	38312.55
532.437	38492.77
532.638	38175.33
532.839	38353.51
533.04	38527.58
533.241	38042.21
533.442	38302.31
533.643	37902.95
533.844	38199.91
534.045	37956.2
534.246	37810.79
534.447	37995.11
534.648	37462.64
534.849	37835.37
535.05	37481.07
535.251	37855.85
535.451	37786.22
535.652	37876.33
535.853	37591.66
536.054	37644.91
536.255	38044.26
536.456	37335.66
536.657	37827.18
536.857	37569.13
537.058	37388.91
537.259	37741.16
537.46	37732.97
537.66	37196.4
537.861	37284.47
538.062	37464.69
538.263	37642.86
538.463	37247.6
538.664	37386.86
538.865	37096.05
539.065	37341.81
539.266	36948.6
539.466	37796.46
539.667	37212.79
539.868	37397.1
540.068	37292.66
540.269	36889.21
540.469	37333.62
540.67	36729.47
540.87	36989.56
541.071	36991.61
541.271	37444.21
541.472	36975.22
541.672	36956.79
541.873	37048.95
542.073	36586.11
542.274	37198.45
542.474	36661.88
542.675	36786.81
542.875	36803.19
543.075	36751.99
543.276	36084.36
543.476	36962.93
543.676	36686.46
543.877	36700.79
544.077	36766.33
544.277	36737.66
544.478	36842.1
544.678	36588.16
544.878	36751.99
545.078	36336.26
545.279	36426.37
545.479	36639.36
545.679	36440.7
545.879	36549.24
546.079	36477.57
546.28	36192.9
546.48	36430.46
546.68	36862.58
546.88	36637.31
547.08	36473.47
547.28	36639.36
547.48	36000.39
547.68	36547.2
547.88	36102.79
548.081	36780.67
548.281	36678.27
548.481	36577.92
548.681	36539.01
548.881	36579.96
549.081	36330.11
549.28	36264.58
549.48	36950.65
549.68	36532.86
549.88	37005.94
550.08	36698.75
550.28	36731.51
550.48	36043.4
550.68	36733.56
550.88	36522.62
551.08	36684.41
551.279	37012.09
551.479	36176.51
551.679	36606.59
551.879	36493.95
552.079	36876.92
552.278	36676.22
552.478	36684.41
552.678	36446.85
552.878	36700.79
553.077	36348.54
553.277	36053.64
553.477	37067.38
553.676	36643.45
553.876	36653.69
554.076	36694.65
554.275	36784.76
554.475	36459.13
554.674	36868.73
554.874	37038.71
555.074	36483.71
555.273	36823.67
555.473	37036.66
555.672	36569.72
555.872	36917.88
556.071	37016.18
556.271	37055.09
556.47	36751.99
556.67	36582.01
556.869	36801.15
557.068	36946.55
557.268	36751.99
557.467	37100.15
557.667	37171.83
557.866	36772.47
558.065	36803.19
558.265	37073.52
558.464	37087.86
558.663	36950.65
558.863	36633.21
559.062	37440.11
559.261	36647.55
559.461	37157.49
559.66	36270.72
559.859	36883.06
560.058	36821.62
560.258	36299.39
560.457	36240
560.656	37124.72
560.855	36766.33
561.054	36899.45
561.253	36440.7
561.453	37116.53
561.652	36713.08
561.851	36934.26
562.05	36926.07
562.249	36643.45
562.448	36921.98
562.647	37012.09
562.846	37053.05
563.045	36563.58
563.244	36323.97
563.443	36745.85
563.642	36194.95
563.841	36768.38
564.04	36457.09
564.239	36592.25
564.438	36366.98
564.637	36536.96
564.836	36670.08
565.035	36375.17
565.234	36371.07
565.432	36047.49
565.631	36409.98
565.83	36369.02
566.029	36450.94
566.228	36113.03
566.427	35832.46
566.625	35934.85
566.824	35646.09
567.023	35771.02
567.222	35451.53
567.42	36360.83
567.619	35844.74
567.818	35779.21
568.016	35777.16
568.215	35922.57
568.414	35799.69
568.612	35881.61
568.811	35197.59
569.01	35797.64
569.208	35246.74
569.407	35820.17
569.605	35160.72
569.804	35404.43
570.002	35107.47
570.201	35019.41
570.4	34964.12
570.598	35091.09
570.797	34855.57
570.995	35115.67
571.193	34314.91
571.392	34894.49
571.59	34687.64
571.789	34589.34
571.987	34642.59
572.186	34341.53
572.384	34071.2
572.582	34452.12
572.781	34681.5
572.979	33634.99
573.177	34349.73
573.376	34552.48
573.574	33710.76
573.772	34128.55
573.971	33823.4
574.169	33792.68
574.367	33389.23
574.565	33890.98
574.763	33260.21
574.962	33176.24
575.16	33161.9
575.358	33372.85
575.556	32873.14
575.754	33770.15
575.952	32895.67
576.151	32852.66
576.349	33053.36
576.547	32905.91
576.745	32721.59
576.943	32823.99
577.141	33024.69
577.339	32692.92
577.537	32555.71
577.735	32699.06
577.933	31701.7
578.131	32479.93
578.329	32301.76
578.527	32152.26
578.725	32236.22
578.923	32117.44
579.121	31869.64
579.319	31703.75
579.516	32209.6
579.714	31924.93
579.912	31273.68
580.11	31578.82
580.308	31447.75
580.506	30903
580.704	31105.74
580.901	31314.64
581.099	31468.23
581.297	30896.85
581.495	30884.56
581.692	31132.37
581.89	30909.14
582.088	31302.35
582.285	30425.82
582.483	30925.52
582.681	30720.73
582.878	30479.07
583.076	30413.53
583.274	30913.23
583.471	30329.56
583.669	30333.66
583.866	29973.22
584.064	30630.62
584.262	29737.7
584.459	30466.78
584.657	29678.31
584.854	29852.39
585.052	29625.06
585.249	29913.83
585.447	29893.35
585.644	29461.23
585.841	29414.12
586.039	29909.73
586.236	29211.37
586.434	29285.1
586.631	29635.3
586.828	29358.83
587.026	29285.1
587.223	29051.63
587.42	29074.16
587.618	29278.96
587.815	28850.93
588.012	28867.31
588.21	28959.47
588.407	28967.66
588.604	28711.67
588.801	28625.65
588.999	28838.64
589.196	28408.57
589.393	28615.41
589.59	28650.23
589.787	28353.27
589.984	28287.74
590.182	28015.36
590.379	28429.05
590.576	27878.15
590.773	28336.89
590.97	27884.29
591.167	28205.82
591.364	27669.25
591.561	28041.98
591.758	27939.58
591.955	28017.41
592.152	27904.77
592.349	27607.81
592.546	28064.51
592.743	27742.98
592.94	27331.34
593.137	27302.67
593.334	27810.56
593.531	27036.43
593.727	27425.54
593.924	27077.39
594.121	26913.55
594.318	27220.75
594.515	26921.74
594.712	27222.8
594.908	26983.18
595.105	26913.55
595.302	26798.87
595.499	27224.84
595.696	26872.59
595.892	26667.8
596.089	26819.35
596.286	26678.04
596.482	26583.83
596.679	26635.03
596.876	26866.45
597.072	26843.92
597.269	26444.57
597.466	26286.87
597.662	26553.11
597.859	26489.62
598.055	26770.19
598.252	26106.65
598.448	26411.8
598.645	26694.42
598.841	26356.5
599.038	26090.27
599.234	26442.52
599.431	26188.57
599.627	26401.56
599.824	26358.55
600.02	26010.4
600.217	26600.21
600.413	26174.24
600.609	26270.49
600.806	26258.2
601.002	26395.42
601.198	26106.65
601.395	26063.64
601.591	26200.86
601.787	26194.71
601.984	25854.75
602.18	26589.97
602.376	25944.86
602.572	25764.64
602.769	26112.8
602.965	26026.78
603.161	26247.96
603.357	26037.02
603.553	26307.35
603.75	26381.08
603.946	25957.15
604.142	26276.63
604.338	25916.19
604.534	26493.72
604.73	25981.73
604.926	25963.29
605.122	26221.34
605.318	25893.66
605.514	25994.01
605.71	26139.42
605.906	26034.97
606.102	26151.71
606.298	26290.97
606.494	26157.85
606.69	26651.41
606.886	26311.45
607.082	25871.14
607.278	26346.26
607.474	25807.65
607.67	25770.79
607.866	25840.42
608.062	26512.15
608.257	26467.09
608.453	26503.96
608.649	26235.67
608.845	26225.43
609.041	26221.34
609.236	26610.45
609.432	26358.55
609.628	26434.33
609.824	26409.75
610.019	26575.64
610.215	26479.38
610.411	26934.03
610.606	26372.89
610.802	26852.11
610.998	26444.57
611.193	26483.48
611.389	26630.93
611.584	26696.47
611.78	26237.72
611.976	26641.17
612.171	26483.48
612.367	26805.01
612.562	26641.17
612.758	26340.12
612.953	26385.18
613.149	27101.97
613.344	26456.85
613.539	27036.43
613.735	26927.89
613.93	26825.49
614.126	26549.01
614.321	26999.57
614.517	26743.57
614.712	26506.01
614.907	26585.88
615.103	27116.3
615.298	26581.78
615.493	27343.63
615.688	26831.63
615.884	27187.98
616.079	26637.08
616.274	26972.94
616.47	26815.25
616.665	27056.91
616.86	26737.43
617.055	26694.42
617.25	26651.41
617.445	26592.02
617.641	26395.42
617.836	26966.8
618.031	26428.18
618.226	26743.57
618.421	26430.23
618.616	26716.95
618.811	26247.96
619.006	26716.95
619.201	26024.73
619.396	26551.06
619.591	25910.05
619.786	26389.27
619.981	25991.97
620.176	26172.19
620.371	26104.6
620.566	26231.58
620.761	25357.1
620.956	25998.11
621.151	25758.5
621.346	25979.68
621.541	25223.98
621.735	25811.74
621.93	25215.79
622.125	25279.27
622.32	24689.46
622.515	25264.94
622.709	24849.2
622.904	24847.15
623.099	24548.15
623.294	24902.45
623.488	24460.09
623.683	24838.96
623.878	24019.77
624.072	24527.67
624.267	24193.85
624.462	24023.87
624.656	23903.04
624.851	23984.96
625.046	23634.75
625.24	23653.19
625.435	23434.05
625.629	23268.17
625.824	23141.19
626.018	23556.93
626.213	23028.56
626.407	23292.74
626.602	22928.2
626.796	22872.91
626.991	22584.15
627.185	22920.01
627.38	22565.71
627.574	22451.03
627.768	22235.99
627.963	22008.67
628.157	21965.66
628.352	22121.31
628.546	21691.23
628.74	21984.09
628.935	21910.36
629.129	21830.49
629.323	21261.16
629.517	21486.43
629.712	21318.5
629.906	21103.46
630.1	20964.2
630.294	20943.72
630.489	20945.77
630.683	20958.06
630.877	20730.73
631.071	20626.29
631.265	20814.7
631.459	20278.13
631.653	20306.8
631.848	20292.47
632.042	20312.95
632.236	20296.56
632.43	19837.82
632.624	19895.16
632.818	19917.69
633.012	19426.18
633.206	19579.78
633.4	19577.73
633.594	19258.24
633.788	19327.88
633.982	19383.17
634.176	19213.19
634.369	19020.68
634.563	19010.44
634.757	18752.4
634.951	18860.94
635.145	18797.45
635.339	18701.2
635.533	18324.37
635.726	18326.42
635.92	18187.16
636.114	18277.27
636.308	18156.44
636.501	18105.24
636.695	18033.56
636.889	17679.26
637.083	17644.45
637.276	17552.29
637.47	17501.09
637.664	17329.06
637.857	17365.92
638.051	17427.36
638.244	17255.33
638.438	17097.64
638.632	17077.16
638.825	16966.57
639.019	16761.77
639.212	16802.73
639.406	16774.06
639.599	16432.05
639.793	16640.94
639.986	16047.03
640.18	16276.4
640.373	16233.39
640.567	16157.62
640.76	16042.93
640.954	15895.48
641.147	15801.27
641.34	15635.39
641.534	16034.74
641.727	15666.11
641.92	15481.79
642.114	15305.67
642.307	15557.57
642.5	15219.65
642.694	15203.27
642.887	14867.4
643.08	15072.2
643.273	15057.86
643.467	14871.5
643.66	14740.43
643.853	14617.55
644.046	14420.94
644.239	14660.55
644.432	14425.04
644.626	13999.06
644.819	14162.9
645.012	14369.74
645.205	14169.04
645.398	13984.73
645.591	13835.22
645.784	14146.51
645.977	13636.57
646.17	13652.95
646.363	13796.31
646.556	13462.49
646.749	13474.78
646.942	13452.25
647.135	13550.56
647.328	13376.48
647.521	13132.77
647.714	13007.84
647.907	12970.98
648.099	13073.38
648.292	12727.27
648.485	12940.26
648.678	12717.03
648.871	12645.35
649.064	12688.36
649.256	12602.35
649.449	12458.99
649.642	12518.38
649.835	12082.16
650.027	12147.7
650.22	12141.55
650.413	12125.17
650.605	12106.74
650.798	12205.04
650.991	12010.48
651.183	11947
651.376	11631.61
651.568	11860.98
651.761	11762.68
651.954	11910.13
652.146	11584.51
652.339	11447.29
652.531	11402.24
652.724	11484.16
652.916	11070.47
653.109	11414.52
653.301	11174.91
653.494	11338.75
653.686	11017.22
653.879	11082.75
654.071	11019.27
654.263	10994.69
654.456	10896.39
654.648	10980.36
654.84	10650.63
655.033	10787.85
655.225	10415.12
655.417	10601.48
655.61	10494.99
655.802	10517.51
655.994	10380.3
656.186	10441.74
656.379	10245.13
656.571	10271.76
656.763	10107.92
656.955	10095.63
657.148	10120.21
657.34	10148.88
657.532	9993.23
657.724	9778.2
657.916	9954.32
658.108	9966.61
658.3	9741.33
658.492	9608.22
658.684	9673.75
658.876	9364.51
659.068	9616.41
659.26	9282.59
659.452	9536.54
659.644	9462.81
659.836	9370.65
660.028	9333.79
660.22	9200.67
660.412	9288.73
660.604	9030.69
660.796	9145.38
660.988	8952.87
661.18	8918.05
661.372	9200.67
661.563	9012.26
661.755	8666.15
661.947	8772.64
662.139	8862.76
662.331	8760.36
662.522	8676.39
662.714	8813.6
662.906	8471.59
663.097	8395.82
663.289	8363.05
663.481	8291.37
663.673	8432.68
663.864	8305.71
664.056	8315.95
664.247	8277.04
664.439	8002.61
664.631	8184.88
664.822	8121.39
665.014	8143.92
665.205	8045.62
665.397	7748.66
665.588	7922.74
665.78	8014.9
665.971	7826.48
666.163	7953.46
666.354	7855.15
666.546	7830.58
666.737	7648.31
666.929	7750.71
667.12	7724.08
667.311	7511.1
667.503	7603.25
667.694	7625.78
667.885	7455.8
668.077	7357.5
668.268	7347.26
668.459	7240.76
668.651	7343.16
668.842	7298.11
669.033	7273.53
669.224	7167.04
669.416	7265.34
669.607	7248.96
669.798	6945.86
669.989	7066.69
670.18	6972.48
670.371	7105.6
670.563	6831.17
670.754	6941.76
670.945	6888.51
671.136	6935.62
671.327	6818.88
671.518	6800.45
671.709	6835.27
671.9	6732.87
672.091	6743.11
672.282	6648.9
672.473	6532.17
672.664	6743.11
672.855	6732.87
673.046	6689.86
673.237	6786.12
673.428	6507.59
673.619	6577.22
673.809	6405.19
674	6358.09
674.191	6409.29
674.382	6491.21
674.573	6472.78
674.764	6407.24
674.954	6292.55
675.145	6378.57
675.336	6397
675.527	6251.6
675.717	6415.43
675.908	6177.87
676.099	6276.17
676.289	6059.09
676.48	5987.41
676.671	6149.2
676.861	6192.2
677.052	6165.58
677.243	6036.56
677.433	6044.75
677.624	6046.8
677.814	6210.64
678.005	6061.13
678.195	5987.41
678.386	6003.79
678.576	5887.06
678.767	5807.19
678.957	6151.24
679.148	5917.78
679.338	5921.87
679.529	6028.37
679.719	5811.28
679.909	5932.11
680.1	5852.24
680.29	5903.44
680.481	5827.67
680.671	5815.38
680.861	5868.63
681.052	5803.09
681.242	5766.23
681.432	5827.67
681.622	5700.69
681.813	5686.36
682.003	5827.67
682.193	5938.26
682.383	5706.84
682.573	5745.75
682.764	5710.93
682.954	5569.62
683.144	5653.59
683.334	5743.7
683.524	5647.44
683.714	5686.36
683.904	5565.53
684.094	5696.6
684.284	5667.92
684.474	5651.54
684.664	5436.5
684.854	5508.18
685.044	5499.99
685.234	5340.25
685.424	5323.87
685.614	5594.2
685.804	5522.52
685.994	5405.78
686.184	5538.9
686.374	5465.18
686.564	5407.83
686.753	5336.15
686.943	5454.94
687.133	5395.54
687.323	5287
687.513	5465.18
687.702	5254.23
687.892	5094.49
688.082	5135.45
688.272	5209.18
688.461	5258.33
688.651	5270.62
688.841	5153.88
689.03	5094.49
689.22	5143.64
689.41	5057.63
689.599	5139.55
689.789	5086.3
689.979	5086.3
690.168	5000.29
690.358	5020.77
690.547	4953.18
690.737	4889.7
690.926	4932.7
691.116	4914.27
691.305	5090.4
691.495	4852.83
691.684	4793.44
691.874	5028.96
692.063	4885.6
692.252	4777.06
692.442	4869.22
692.631	4703.33
692.82	4988
693.01	4762.72
693.199	4848.74
693.388	4826.21
693.578	4813.92
693.767	4758.63
693.956	4705.38
694.146	4682.85
694.335	4625.51
694.524	4746.34
694.713	4779.11
694.902	4596.84
695.092	4656.23
695.281	4641.89
695.47	4631.65
695.659	4502.63
695.848	4703.33
696.037	4590.69
696.226	4508.77
696.415	4529.25
696.604	4570.21
696.793	4607.08
696.982	4349.03
697.171	4332.65
697.36	4365.42
697.549	4514.92
697.738	4443.24
697.927	4283.5
698.116	4435.05
698.305	4422.76
698.494	4408.42
698.683	4373.61
698.872	4459.62
699.061	4242.54
699.25	4334.7
699.438	4414.57
699.627	4318.31
699.816	4373.61
700.005	4250.73
700.193	4228.2
700.382	4275.31
700.571	4164.72
700.76	4301.93
700.948	4242.54
701.137	4234.35
701.326	4217.96
701.514	4172.91
701.703	4134
701.892	4136.04
702.08	4168.81
702.269	4043.88
702.457	4113.52
702.646	4078.7
702.834	4072.56
703.023	4084.84
703.212	4160.62
703.4	3931.25
703.589	4062.32
703.777	3976.3
703.965	4037.74
704.154	4011.12
704.342	3947.63
704.531	3947.63
704.719	3968.11
704.907	3914.86
705.096	4062.32
705.284	3873.9
705.472	3923.05
705.661	3867.76
705.849	3769.46
706.037	3914.86
706.226	3834.99
706.414	3865.71
706.602	3800.18
706.79	3908.72
706.979	3900.53
707.167	3783.79
707.355	3546.23
707.543	3863.66
707.731	3765.36
707.919	3650.67
708.107	3654.77
708.296	3714.16
708.484	3759.22
708.672	3570.8
708.86	3720.31
709.048	3591.28
709.236	3708.02
709.424	3669.11
709.612	3683.44
709.8	3593.33
709.988	3648.63
710.176	3642.48
710.364	3720.31
710.551	3488.89
710.739	3560.56
710.927	3505.27
711.115	3476.6
711.303	3447.93
711.491	3392.63
711.679	3564.66
711.866	3501.17
712.054	3533.94
712.242	3366.01
712.43	3456.12
712.617	3521.65
712.805	3361.91
712.993	3427.45
713.181	3341.43
713.368	3318.9
713.556	3376.25
713.744	3261.56
713.931	3376.25
714.119	3312.76
714.306	3308.66
714.494	3353.72
714.682	3300.47
714.869	3224.7
715.057	3366.01
715.244	3173.5
715.432	3357.82
715.619	3171.45
715.807	3320.95
715.994	3177.59
716.182	3234.94
716.369	3228.79
716.556	3269.75
716.744	3107.96
716.931	3318.9
717.119	3175.55
717.306	3302.52
717.493	3095.68
717.681	3095.68
717.868	3128.44
718.055	3009.66
718.242	3042.43
718.43	3134.59
718.617	2999.42
718.804	3064.96
718.991	3095.68
719.179	3093.63
719.366	3144.83
719.553	3075.2
719.74	3005.56
719.927	2890.88
720.114	2780.29
720.301	3089.53
720.488	2841.73
720.676	2866.3
720.863	2931.84
721.05	2884.73
721.237	2901.12
721.424	2956.41
721.611	2886.78
721.798	2837.63
721.985	2784.38
722.172	2657.41
722.358	2786.43
722.545	2862.21
722.732	2899.07
722.919	2841.73
723.106	2712.71
723.293	2731.14
723.48	2833.54
723.667	2724.99
723.853	2811.01
724.04	2884.73
724.227	2620.55
724.414	2759.81
724.6	2808.96
724.787	2751.62
724.974	2862.21
725.161	2686.08
725.347	2657.41
725.534	2645.12
725.72	2694.27
725.907	2694.27
726.094	2722.95
726.28	2677.89
726.467	2671.75
726.653	2620.55
726.84	2651.27
727.027	2788.48
727.213	2585.73
727.4	2688.13
727.586	2544.77
727.773	2587.78
727.959	2614.4
728.145	2587.78
728.332	2518.15
728.518	2565.25
728.705	2612.35
728.891	2499.72
729.077	2448.52
729.264	2491.52
729.45	2645.12
729.636	2514.05
729.823	2452.61
730.009	2671.75
730.195	2604.16
730.382	2448.52
730.568	2460.81
730.754	2456.71
730.94	2507.91
731.126	2503.81
731.313	2555.01
731.499	2571.4
731.685	2469
731.871	2432.13
732.057	2442.37
732.243	2370.69
732.429	2458.76
732.615	2622.59
732.801	2419.85
732.987	2376.84
733.173	2464.9
733.359	2411.65
733.545	2391.17
733.731	2444.42
733.917	2362.5
734.103	2425.99
734.289	2411.65
734.475	2456.71
734.661	2284.68
734.847	2415.75
735.033	2342.02
735.219	2276.49
735.404	2264.2
735.59	2348.17
735.776	2280.58
735.962	2360.45
736.148	2401.41
736.333	2323.59
736.519	2350.21
736.705	2296.97
736.89	2243.72
737.076	2219.14
737.262	2198.67
737.447	2155.66
737.633	2243.72
737.819	2210.95
738.004	2272.39
738.19	2129.03
738.375	2342.02
738.561	2280.58
738.747	2301.06
738.932	2081.93
739.118	2305.16
739.303	2235.53
739.489	2163.85
739.674	2124.94
739.859	2120.84
740.045	2163.85
740.23	2112.65
740.416	2077.83
740.601	2153.61
740.786	2151.56
740.972	2022.54
741.157	2075.79
741.342	1916.05
741.528	1973.39
741.713	2104.46
741.898	2053.26
742.084	2077.83
742.269	2129.03
742.454	2000.01
742.639	2018.44
742.824	2063.5
743.01	1948.81
743.195	1991.82
743.38	1944.72
743.565	1957
743.75	1846.41
743.935	1899.66
744.12	1973.39
744.305	1891.47
744.49	1957
744.675	1877.13
744.86	1891.47
745.045	1830.03
745.23	1846.41
745.415	1879.18
745.6	1909.9
745.785	1803.41
745.97	1760.4
746.155	1885.33
746.34	1776.78
746.525	1909.9
746.71	1840.27
746.895	1836.17
747.079	1744.02
747.264	1770.64
747.449	1682.58
747.634	1787.02
747.819	1692.82
748.003	1715.34
748.188	1744.02
748.373	1735.82
748.557	1776.78
748.742	1596.56
748.927	1684.62
749.111	1553.55
749.296	1658
749.481	1672.34
749.665	1549.46
749.85	1666.19
750.034	1555.6
750.219	1590.42
750.404	1479.83
750.588	1555.6
750.773	1488.02
750.957	1508.5
751.141	1430.68
751.326	1547.41
751.51	1514.64
751.695	1459.35
751.879	1479.83
752.064	1524.88
752.248	1498.26
752.432	1488.02
752.617	1520.79
752.801	1342.61
752.985	1459.35
753.17	1344.66
753.354	1490.07
753.538	1434.77
753.722	1352.85
753.907	1397.91
754.091	1346.71
754.275	1361.05
754.459	1377.43
754.643	1334.42
754.828	1311.89
755.012	1361.05
755.196	1285.27
755.38	1342.61
755.564	1328.28
755.748	1359
755.932	1320.09
756.116	1277.08
756.3	1295.51
756.484	1180.82
756.668	1115.29
756.852	1098.91
757.036	1248.41
757.22	1180.82
757.404	1125.53
757.588	1203.35
757.772	1240.22
757.956	1125.53
758.14	1277.08
758.323	1139.87
758.507	1199.26
758.691	1199.26
758.875	1146.01
759.059	1227.93
759.242	1031.32
759.426	1139.87
759.61	1090.71
759.794	1107.1
759.977	1051.8
760.161	1158.3
760.345	1127.58
760.528	1131.67
760.712	1164.44
760.895	1066.14
761.079	1096.86
761.263	1117.34
761.446	1062.04
761.63	1014.94
761.813	988.32
761.997	965.79
762.18	1014.94
762.364	1076.38
762.547	984.22
762.731	971.93
762.914	1023.13
763.098	1039.51
763.281	986.27
763.464	978.08
763.648	935.07
763.831	961.69
764.015	963.74
764.198	978.08
764.381	1041.56
764.564	1043.61
764.748	949.4
764.931	978.08
765.114	1029.27
765.297	953.5
765.481	900.25
765.664	951.45
765.847	1019.04
766.03	1006.75
766.213	924.83
766.397	945.31
766.58	928.92
766.763	1010.84
766.946	836.77
767.129	892.06
767.312	822.43
767.495	867.49
767.678	865.44
767.861	904.35
768.044	873.63
768.227	961.69
768.41	875.68
768.593	826.53
768.776	847.01
768.959	834.72
769.142	965.79
769.324	818.33
769.507	814.24
769.69	916.64
769.873	844.96
770.056	840.86
770.239	951.45
770.421	851.1
770.604	871.58
770.787	842.91
770.97	851.1
771.152	853.15
771.335	773.28
771.518	705.7
771.7	863.39
771.883	806.05
772.066	777.37
772.248	789.66
772.431	869.53
772.613	773.28
772.796	830.62
772.978	836.77
773.161	883.87
773.343	851.1
773.526	711.84
773.708	695.46
773.891	631.97
774.073	724.13
774.256	752.8
774.438	777.37
774.621	683.17
774.803	754.85
774.985	646.3
775.168	724.13
775.35	670.88
775.532	720.03
775.715	705.7
775.897	746.66
776.079	644.26
776.261	783.52
776.444	748.7
776.626	615.59
776.808	695.46
776.99	703.65
777.173	715.94
777.355	601.25
777.537	636.06
777.719	609.44
777.901	683.17
778.083	670.88
778.265	605.35
778.447	699.55
778.629	593.06
778.811	638.11
778.993	631.97
779.175	615.59
779.357	752.8
779.539	531.62
779.721	617.63
779.903	574.63
780.085	664.74
780.267	580.77
780.449	597.15
780.631	664.74
780.812	658.59
780.994	515.23
781.176	568.48
781.358	576.67
781.54	617.63
781.721	623.78
781.903	500.9
782.085	474.28
782.267	574.63
782.448	527.52
782.63	517.28
782.812	603.3
782.993	521.38
783.175	531.62
783.357	507.04
783.538	478.37
783.72	504.99
783.901	457.89
784.083	416.93
784.264	527.52
784.446	400.55
784.627	416.93
784.809	476.32
784.99	474.28
785.172	482.47
785.353	433.32
785.535	515.23
785.716	447.65
785.897	437.41
786.079	406.69
786.26	464.04
786.441	552.1
786.623	316.58
786.804	466.08
786.985	351.4
787.167	388.26
787.348	367.78
787.529	511.14
787.71	457.89
787.891	476.32
788.073	324.77
788.254	349.35
788.435	400.55
788.616	461.99
788.797	400.55
788.978	408.74
789.159	351.4
789.34	416.93
789.522	312.49
789.703	388.26
789.884	361.64
790.065	341.16
790.246	410.79
790.427	408.74
790.607	345.25
790.788	472.23
790.969	355.49
791.15	416.93
791.331	312.49
791.512	345.25
791.693	335.01
791.874	359.59
792.054	392.36
792.235	353.45
792.416	339.11
792.597	359.59
792.778	380.07
792.958	384.16
793.139	265.38
793.32	361.64
793.5	261.29
793.681	429.22
793.862	380.07
794.042	302.25
794.223	287.91
794.404	343.21
794.584	294.05
794.765	337.06
794.945	294.05
795.126	335.01
795.306	355.49
795.487	289.96
795.667	335.01
795.848	306.34
796.028	232.62
796.209	382.12
796.389	345.25
796.57	326.82
796.75	302.25
796.93	271.53
797.111	261.29
797.291	300.2
797.471	355.49
797.652	285.86
797.832	244.9
798.012	287.91
798.192	300.2
798.373	187.56
798.553	261.29
798.733	312.49
798.913	296.1
799.093	199.85
799.274	269.48
799.454	279.72
799.634	361.64
799.814	230.57
799.994	230.57
800.174	263.33
800.354	230.57
800.534	189.61
800.714	271.53
800.894	175.27
801.074	244.9
801.254	263.33
801.434	220.33
801.614	253.09
801.794	222.38
801.974	969.88
802.154	244.9
802.334	244.9
802.514	189.61
802.693	257.19
802.873	259.24
803.053	232.62
803.233	218.28
803.413	246.95
803.592	173.22
803.772	220.33
803.952	265.38
804.131	130.22
804.311	269.48
804.491	265.38
804.67	236.71
804.85	156.84
805.03	201.9
805.209	228.52
805.389	144.55
805.568	222.38
805.748	214.18
805.928	230.57
806.107	197.8
806.287	269.48
806.466	212.14
806.646	203.94
806.825	216.23
807.004	162.98
807.184	208.04
807.363	222.38
807.543	203.94
807.722	240.81
807.901	183.46
808.081	226.47
808.26	173.22
808.439	187.56
808.619	156.84
808.798	179.37
808.977	146.6
809.156	191.66
809.336	150.7
809.515	105.64
809.694	154.79
809.873	175.27
810.052	171.18
810.231	167.08
810.411	224.42
810.59	244.9
810.769	126.12
810.948	255.14
811.127	181.42
811.306	150.7
811.485	95.4
811.664	214.18
811.843	228.52
812.022	173.22
812.201	222.38
812.38	64.68
812.559	181.42
812.737	126.12
812.916	117.93
813.095	230.57
813.274	177.32
813.453	222.38
813.632	132.26
813.811	203.94
813.989	156.84
814.168	167.08
814.347	91.31
814.526	103.59
814.704	220.33
814.883	191.66
815.062	140.46
815.24	179.37
815.419	126.12
815.598	175.27
815.776	105.64
815.955	72.87
816.133	105.64
816.312	193.7
816.49	58.54
816.669	103.59
816.847	68.78
817.026	122.02
817.204	148.65
817.383	148.65
817.561	60.59
817.74	165.03
817.918	173.22
818.097	111.78
818.275	160.94
818.453	214.18
818.632	158.89
818.81	115.88
818.988	142.5
819.167	101.55
819.345	68.78
819.523	52.39
819.701	97.45
819.879	91.31
820.058	162.98
820.236	158.89
820.414	117.93
820.592	101.55
820.77	132.26
820.948	113.83
821.127	60.59
821.305	167.08
821.483	109.74
821.661	126.12
821.839	115.88
822.017	40.11
822.195	76.97
822.373	162.98
822.551	142.5
822.729	165.03
822.907	89.26
823.085	97.45
823.262	126.12
823.44	158.89
823.618	107.69
823.796	124.07
823.974	113.83
824.152	183.46
824.329	81.07
824.507	154.79
824.685	115.88
824.863	105.64
825.04	60.59
825.218	83.11
825.396	99.5
825.574	115.88
825.751	89.26
825.929	146.6
826.107	99.5
826.284	162.98
826.462	142.5
826.639	154.79
826.817	105.64
826.994	162.98
827.172	99.5
827.349	171.18
827.527	54.44
827.704	130.22
827.882	76.97
828.059	115.88
828.237	68.78
828.414	160.94
828.591	15.53
828.769	130.22
828.946	91.31
829.124	142.5
829.301	162.98
829.478	105.64
829.655	83.11
829.833	113.83
830.01	25.77
830.187	156.84
830.364	50.35
830.542	105.64
830.719	109.74
830.896	52.39
831.073	97.45
831.25	93.35
831.427	171.18
831.604	119.98
831.782	-9.05
831.959	31.91
832.136	117.93
832.313	162.98
832.49	44.2
832.667	130.22
832.844	105.64
833.021	142.5
833.198	64.68
833.374	91.31
833.551	74.92
833.728	56.49
833.905	95.4
834.082	3.24
834.259	66.73
834.436	146.6
834.612	11.43
834.789	93.35
834.966	33.96
835.143	152.74
835.319	38.06
835.496	62.63
835.673	93.35
835.85	70.83
836.026	72.87
836.203	113.83
836.38	99.5
836.556	72.87
836.733	23.72
836.909	126.12
837.086	23.72
837.262	64.68
837.439	36.01
837.616	19.63
837.792	25.77
837.968	52.39
838.145	15.53
838.321	62.63
838.498	91.31
838.674	62.63
838.851	31.91
839.027	48.3
839.203	105.64
839.38	15.53
839.556	101.55
839.732	142.5
839.909	56.49
840.085	97.45
840.261	99.5
840.437	89.26
840.614	64.68
840.79	36.01
840.966	64.68
841.142	99.5
841.318	13.48
841.494	50.35
841.671	31.91
841.847	-7
842.023	76.97
842.199	122.02
842.375	74.92
842.551	-23.38
842.727	40.11
842.903	40.11
843.079	72.87
843.255	72.87
843.431	25.77
843.607	15.53
843.783	72.87
843.959	33.96
844.134	1.19
844.31	158.89
844.486	117.93
844.662	27.82
844.838	68.78
845.013	81.07
845.189	42.15
845.365	40.11
845.541	46.25
845.716	-17.24
845.892	97.45
846.068	9.39
846.244	-23.38
846.419	103.59
846.595	-21.33
846.77	-13.14
846.946	107.69
847.122	1.19
847.297	56.49
847.473	117.93
847.648	19.63
847.824	40.11
847.999	-50
848.175	9.39
848.35	31.91
848.526	138.41
848.701	66.73
848.876	99.5
849.052	15.53
849.227	50.35
849.403	52.39
849.578	25.77
849.753	56.49
849.929	93.35
850.104	-11.09
850.279	64.68
850.454	-4.95
850.63	60.59
850.805	13.48
850.98	48.3
851.155	103.59
851.33	103.59
851.505	23.72
851.681	66.73
851.856	33.96
852.031	113.83
852.206	107.69
852.381	-33.62
852.556	11.43
852.731	54.44
852.906	48.3
853.081	23.72
853.256	-4.95
853.431	93.35
853.606	60.59
853.781	1.19
853.956	17.58
854.131	27.82
854.305	-25.43
854.48	48.3
854.655	-0.85
854.83	23.72
855.005	42.15
855.18	74.92
855.354	76.97
855.529	50.35
855.704	-9.05
855.879	115.88
856.053	64.68
856.228	15.53
856.403	-52.05
856.577	83.11
856.752	-9.05
856.926	7.34
857.101	50.35
857.276	-9.05
857.45	7.34
857.625	31.91
857.799	79.02
857.974	66.73
858.148	3.24
858.323	56.49
858.497	7.34
858.672	7.34
858.846	-68.44
859.02	27.82
859.195	-29.52
859.369	7.34
859.543	-39.76
859.718	50.35
859.892	-0.85
860.066	68.78
860.241	5.29
860.415	56.49
860.589	-45.91
860.763	89.26
860.938	52.39
861.112	76.97
861.286	44.2
861.46	66.73
861.634	44.2
861.808	81.07
861.982	42.15
862.157	-66.39
862.331	23.72
862.505	76.97
862.679	-21.33
862.853	74.92
863.027	25.77
863.201	117.93
863.375	-33.62
863.549	89.26
863.722	56.49
863.896	23.72
864.07	-17.24
864.244	15.53
864.418	81.07
864.592	-9.05
864.766	3.24
864.939	40.11
865.113	44.2
865.287	48.3
865.461	-4.95
865.634	33.96
865.808	11.43
865.982	-41.81
866.156	-9.05
866.329	-4.95
866.503	15.53
866.676	3.24
866.85	19.63
867.024	56.49
867.197	13.48
867.371	132.26
867.544	21.67
867.718	60.59
867.891	50.35
868.065	42.15
868.238	-31.57
868.412	64.68
868.585	31.91
868.759	-15.19
868.932	-9.05
869.105	25.77
869.279	31.91
869.452	-15.19
869.625	19.63
869.799	23.72
869.972	-47.96
870.145	-19.29
870.319	76.97
870.492	-9.05
870.665	48.3
870.838	-27.48
871.011	-88.92
871.185	9.39
871.358	-45.91
871.531	66.73
871.704	40.11
871.877	-37.72
872.05	-47.96
872.223	-23.38
872.396	23.72
872.569	29.87
872.742	-29.52
872.915	97.45
873.088	-33.62
873.261	-9.05
873.434	-39.76
873.607	70.83
873.78	23.72
873.953	1.19
874.126	15.53
874.299	7.34
874.471	11.43
874.644	-39.76
874.817	-54.1
874.99	15.53
875.163	-35.67
875.335	33.96
875.508	-19.29
875.681	66.73
875.853	-58.2
876.026	-17.24
876.199	19.63
876.371	-23.38
876.544	17.58
876.717	5.29
876.889	17.58
877.062	23.72
877.234	-45.91
877.407	-15.19
877.579	17.58
877.752	48.3
877.924	-39.76
878.097	-4.95
878.269	-9.05
878.442	64.68
878.614	52.39
878.786	1.19
878.959	-35.67
879.131	36.01
879.303	-21.33
879.476	-27.48
879.648	48.3
879.82	58.54
879.993	-41.81
880.165	-39.76
880.337	-27.48
880.509	38.06
880.681	-23.38
880.854	-33.62
881.026	25.77
881.198	44.2
881.37	23.72
881.542	11.43
881.714	1.19
881.886	-9.05
882.058	-58.2
882.23	-9.05
882.402	-41.81
882.574	23.72
882.746	68.78
882.918	23.72
883.09	-33.62
883.262	-58.2
883.434	1.19
883.606	-47.96
883.778	19.63
883.95	29.87
884.122	-15.19
884.293	74.92
884.465	-27.48
884.637	72.87
884.809	31.91
884.98	9.39
885.152	5.29
885.324	33.96
885.496	-13.14
885.667	-0.85
885.839	-29.52
886.011	85.16
886.182	42.15
886.354	50.35
886.525	-15.19
886.697	-15.19
886.869	-9.05
887.04	68.78
887.212	7.34
887.383	44.2
887.555	-74.58
887.726	40.11
887.897	-29.52
888.069	-33.62
888.24	33.96
888.412	117.93
888.583	5.29
888.754	7.34
888.926	-64.34
889.097	9.39
889.268	-31.57
889.44	42.15
889.611	-37.72
889.782	7.34
889.953	-31.57
890.125	48.3
890.296	-21.33
890.467	-17.24
890.638	-9.05
890.809	23.72
890.98	-17.24
891.151	60.59
891.323	64.68
891.494	17.58
891.665	40.11
891.836	40.11
892.007	-9.05
892.178	40.11
892.349	36.01
892.52	-17.24
892.691	42.15
892.862	33.96
893.032	-15.19
893.203	50.35
893.374	15.53
893.545	31.91
893.716	-37.72
893.887	-31.57
894.057	-21.33
894.228	15.53
894.399	62.63
894.57	58.54
894.74	64.68
894.911	25.77
895.082	33.96
895.253	27.82
895.423	15.53
895.594	31.91
895.764	21.67
895.935	31.91
896.106	74.92
896.276	11.43
896.447	33.96
896.617	15.53
896.788	-72.53
896.958	85.16
897.129	-25.43
897.299	-21.33
897.47	83.11
897.64	91.31
897.81	-31.57
897.981	-15.19
898.151	-50
898.322	17.58
898.492	-29.52
898.662	56.49
898.832	1.19
899.003	-23.38
899.173	-15.19
899.343	44.2
899.513	-101.2
