Data from USB4F104151__272__14-34-39-152.txt Node

Date: Thu Mar 13 14:34:39 EDT 2025
User: louis
Spectrometer: USB4F10415
Trigger mode: 4
Integration Time (sec): 2.500000E-2
Scans to average: 1
Electric dark correction enabled: true
Nonlinearity correction enabled: false
Boxcar width: 0
XAxis mode: Wavelengths
Number of Pixels in Spectrum: 3648
>>>>>Begin Spectral Data<<<<<
178.204	-127.49
178.424	-127.49
178.644	-127.49
178.864	-109.05
179.084	-117.25
179.304	28.16
179.524	-8.7
179.744	-2.56
179.964	81.41
180.184	-66.05
180.404	54.78
180.624	-53.76
180.844	-14.85
181.064	7.68
181.283	-59.9
181.503	48.64
181.723	-14.85
181.943	13.82
182.163	105.98
182.383	91.65
182.602	34.3
182.822	99.84
183.042	71.17
183.262	-88.57
183.482	-68.09
183.701	56.83
183.921	73.21
184.141	54.78
184.361	87.55
184.58	24.06
184.8	38.4
185.02	-0.51
185.239	13.82
185.459	62.98
185.679	38.4
185.898	62.98
186.118	-4.61
186.338	40.45
186.557	118.27
186.777	-31.23
186.997	-16.9
187.216	87.55
187.436	58.88
187.655	46.59
187.875	58.88
188.095	24.06
188.314	73.21
188.534	15.87
188.753	34.3
188.973	144.89
189.192	79.36
189.412	60.93
189.631	40.45
189.851	46.59
190.07	71.17
190.29	69.12
190.509	-33.28
190.729	87.55
190.948	22.02
191.168	136.7
191.387	54.78
191.607	9.73
191.826	-49.66
192.045	1.54
192.265	13.82
192.484	62.98
192.704	46.59
192.923	1.54
193.142	148.99
193.362	32.26
193.581	26.11
193.8	65.02
194.02	71.17
194.239	34.3
194.458	22.02
194.678	1.54
194.897	58.88
195.116	5.63
195.335	83.45
195.555	110.08
195.774	75.26
195.993	110.08
196.212	34.3
196.432	38.4
196.651	89.6
196.87	89.6
197.089	71.17
197.308	122.37
197.528	56.83
197.747	-8.7
197.966	22.02
198.185	65.02
198.404	9.73
198.623	95.74
198.842	48.64
199.062	95.74
199.281	138.75
199.5	-27.14
199.719	38.4
199.938	48.64
200.157	124.41
200.376	13.82
200.595	54.78
200.814	5.63
201.033	9.73
201.252	81.41
201.471	40.45
201.69	62.98
201.909	24.06
202.128	81.41
202.347	5.63
202.566	99.84
202.785	54.78
203.004	13.82
203.223	132.61
203.442	26.11
203.661	-35.33
203.879	1.54
204.098	81.41
204.317	38.4
204.536	22.02
204.755	87.55
204.974	50.69
205.193	38.4
205.411	105.98
205.63	62.98
205.849	36.35
206.068	30.21
206.287	58.88
206.505	54.78
206.724	30.21
206.943	46.59
207.162	73.21
207.381	103.93
207.599	22.02
207.818	54.78
208.037	22.02
208.255	140.8
208.474	19.97
208.693	83.45
208.911	-33.28
209.13	30.21
209.349	48.64
209.567	-10.75
209.786	5.63
210.005	5.63
210.223	7.68
210.442	-25.09
210.661	89.6
210.879	30.21
211.098	-12.8
211.316	46.59
211.535	69.12
211.753	103.93
211.972	95.74
212.191	22.02
212.409	73.21
212.628	71.17
212.846	-57.86
213.065	46.59
213.283	120.32
213.502	60.93
213.72	103.93
213.938	58.88
214.157	32.26
214.375	126.46
214.594	48.64
214.812	62.98
215.031	9.73
215.249	26.11
215.467	103.93
215.686	9.73
215.904	87.55
216.122	54.78
216.341	105.98
216.559	5.63
216.778	95.74
216.996	112.13
217.214	-0.51
217.432	26.11
217.651	112.13
217.869	81.41
218.087	24.06
218.306	62.98
218.524	-2.56
218.742	-10.75
218.96	95.74
219.179	50.69
219.397	5.63
219.615	151.04
219.833	38.4
220.051	-35.33
220.27	75.26
220.488	87.55
220.706	103.93
220.924	-6.66
221.142	9.73
221.36	77.31
221.578	58.88
221.796	48.64
222.015	91.65
222.233	32.26
222.451	30.21
222.669	5.63
222.887	99.84
223.105	54.78
223.323	17.92
223.541	-53.76
223.759	93.69
223.977	30.21
224.195	118.27
224.413	89.6
224.631	56.83
224.849	42.5
225.067	62.98
225.285	9.73
225.503	32.26
225.721	5.63
225.939	65.02
226.157	81.41
226.375	130.56
226.592	9.73
226.81	71.17
227.028	62.98
227.246	108.03
227.464	42.5
227.682	73.21
227.9	116.22
228.117	-27.14
228.335	-14.85
228.553	54.78
228.771	95.74
228.989	5.63
229.206	148.99
229.424	22.02
229.642	44.54
229.86	56.83
230.077	103.93
230.295	85.5
230.513	-33.28
230.731	9.73
230.948	40.45
231.166	87.55
231.384	15.87
231.601	-8.7
231.819	136.7
232.037	56.83
232.254	-2.56
232.472	91.65
232.689	1.54
232.907	81.41
233.125	26.11
233.342	79.36
233.56	30.21
233.777	13.82
233.995	48.64
234.213	54.78
234.43	9.73
234.648	-33.28
234.865	-59.9
235.083	-2.56
235.3	-2.56
235.518	112.13
235.735	87.55
235.953	73.21
236.17	28.16
236.388	34.3
236.605	44.54
236.822	95.74
237.04	71.17
237.257	22.02
237.475	13.82
237.692	81.41
237.909	-2.56
238.127	46.59
238.344	17.92
238.562	95.74
238.779	-16.9
238.996	-35.33
239.214	30.21
239.431	95.74
239.648	81.41
239.865	114.17
240.083	50.69
240.3	1.54
240.517	7.68
240.735	54.78
240.952	26.11
241.169	17.92
241.386	103.93
241.603	46.59
241.821	38.4
242.038	38.4
242.255	54.78
242.472	34.3
242.689	50.69
242.907	67.07
243.124	32.26
243.341	46.59
243.558	38.4
243.775	1.54
243.992	-18.94
244.209	7.68
244.426	108.03
244.643	32.26
244.86	58.88
245.078	28.16
245.295	-8.7
245.512	-35.33
245.729	46.59
245.946	103.93
246.163	-18.94
246.38	48.64
246.597	22.02
246.814	32.26
247.031	1.54
247.248	103.93
247.464	81.41
247.681	58.88
247.898	54.78
248.115	132.61
248.332	-39.42
248.549	-10.75
248.766	122.37
248.983	120.32
249.2	95.74
249.417	108.03
249.633	52.74
249.85	56.83
250.067	42.5
250.284	79.36
250.501	124.41
250.717	87.55
250.934	-41.47
251.151	-2.56
251.368	48.64
251.585	58.88
251.801	83.45
252.018	40.45
252.235	13.82
252.451	32.26
252.668	36.35
252.885	110.08
253.102	83.45
253.318	-2.56
253.535	13.82
253.752	-8.7
253.968	11.78
254.185	-35.33
254.401	32.26
254.618	-6.66
254.835	112.13
255.051	126.46
255.268	26.11
255.484	38.4
255.701	52.74
255.917	56.83
256.134	42.5
256.351	81.41
256.567	15.87
256.784	34.3
257	13.82
257.217	30.21
257.433	110.08
257.65	73.21
257.866	62.98
258.082	5.63
258.299	103.93
258.515	52.74
258.732	46.59
258.948	30.21
259.165	30.21
259.381	65.02
259.597	44.54
259.814	93.69
260.03	69.12
260.246	-0.51
260.463	116.22
260.679	75.26
260.895	24.06
261.112	46.59
261.328	22.02
261.544	54.78
261.761	105.98
261.977	95.74
262.193	56.83
262.409	93.69
262.626	79.36
262.842	32.26
263.058	-16.9
263.274	30.21
263.49	65.02
263.707	81.41
263.923	48.64
264.139	28.16
264.355	52.74
264.571	120.32
264.787	46.59
265.004	67.07
265.22	89.6
265.436	-0.51
265.652	24.06
265.868	99.84
266.084	24.06
266.3	110.08
266.516	-25.09
266.732	75.26
266.948	46.59
267.164	97.79
267.38	71.17
267.596	112.13
267.812	95.74
268.028	40.45
268.244	56.83
268.46	-18.94
268.676	-41.47
268.892	73.21
269.108	42.5
269.324	71.17
269.54	-18.94
269.756	83.45
269.972	-80.38
270.188	15.87
270.403	-66.05
270.619	48.64
270.835	-14.85
271.051	46.59
271.267	15.87
271.483	1.54
271.698	65.02
271.914	-18.94
272.13	95.74
272.346	50.69
272.562	13.82
272.777	11.78
272.993	60.93
273.209	50.69
273.425	73.21
273.64	-55.81
273.856	87.55
274.072	-25.09
274.287	32.26
274.503	136.7
274.719	89.6
274.934	22.02
275.15	48.64
275.366	67.07
275.581	46.59
275.797	65.02
276.012	9.73
276.228	30.21
276.444	40.45
276.659	132.61
276.875	9.73
277.09	67.07
277.306	-18.94
277.521	99.84
277.737	95.74
277.952	62.98
278.168	11.78
278.383	83.45
278.599	95.74
278.814	103.93
279.03	48.64
279.245	38.4
279.461	54.78
279.676	58.88
279.892	-41.47
280.107	58.88
280.322	46.59
280.538	7.68
280.753	38.4
280.969	165.37
281.184	-14.85
281.399	62.98
281.615	13.82
281.83	-0.51
282.045	7.68
282.26	32.26
282.476	32.26
282.691	48.64
282.906	103.93
283.122	9.73
283.337	9.73
283.552	114.17
283.767	7.68
283.983	112.13
284.198	-6.66
284.413	83.45
284.628	56.83
284.843	-6.66
285.058	99.84
285.274	79.36
285.489	22.02
285.704	60.93
285.919	9.73
286.134	-10.75
286.349	1.54
286.564	-10.75
286.779	101.89
286.995	-0.51
287.21	-51.71
287.425	95.74
287.64	22.02
287.855	30.21
288.07	26.11
288.285	81.41
288.5	48.64
288.715	46.59
288.93	-55.81
289.145	73.21
289.36	30.21
289.575	38.4
289.79	34.3
290.004	22.02
290.219	83.45
290.434	-10.75
290.649	-0.51
290.864	99.84
291.079	-12.8
291.294	67.07
291.509	79.36
291.724	67.07
291.938	28.16
292.153	79.36
292.368	38.4
292.583	89.6
292.798	38.4
293.012	54.78
293.227	-10.75
293.442	-14.85
293.657	42.5
293.871	46.59
294.086	46.59
294.301	99.84
294.516	62.98
294.73	73.21
294.945	-0.51
295.16	34.3
295.374	99.84
295.589	34.3
295.804	73.21
296.018	-14.85
296.233	67.07
296.447	73.21
296.662	97.79
296.877	95.74
297.091	112.13
297.306	54.78
297.52	-0.51
297.735	71.17
297.949	-51.71
298.164	75.26
298.378	19.97
298.593	9.73
298.807	40.45
299.022	71.17
299.236	130.56
299.451	42.5
299.665	9.73
299.88	36.35
300.094	54.78
300.309	50.69
300.523	85.5
300.737	9.73
300.952	81.41
301.166	36.35
301.381	46.59
301.595	36.35
301.809	71.17
302.024	91.65
302.238	1.54
302.452	5.63
302.667	54.78
302.881	79.36
303.095	97.79
303.309	65.02
303.524	40.45
303.738	65.02
303.952	13.82
304.166	-14.85
304.381	-100.86
304.595	136.7
304.809	5.63
305.023	108.03
305.237	62.98
305.452	81.41
305.666	13.82
305.88	75.26
306.094	5.63
306.308	67.07
306.522	60.93
306.736	65.02
306.95	71.17
307.164	32.26
307.379	26.11
307.593	103.93
307.807	116.22
308.021	38.4
308.235	116.22
308.449	50.69
308.663	5.63
308.877	81.41
309.091	58.88
309.305	95.74
309.519	-43.52
309.733	103.93
309.947	-16.9
310.161	7.68
310.374	28.16
310.588	5.63
310.802	-43.52
311.016	-14.85
311.23	40.45
311.444	91.65
311.658	54.78
311.872	56.83
312.085	75.26
312.299	62.98
312.513	101.89
312.727	30.21
312.941	13.82
313.154	52.74
313.368	5.63
313.582	79.36
313.796	26.11
314.009	-16.9
314.223	67.07
314.437	26.11
314.651	67.07
314.864	-14.85
315.078	24.06
315.292	-35.33
315.505	13.82
315.719	62.98
315.933	65.02
316.146	103.93
316.36	1.54
316.573	87.55
316.787	22.02
317.001	67.07
317.214	-0.51
317.428	1.54
317.641	-10.75
317.855	32.26
318.068	26.11
318.282	38.4
318.495	89.6
318.709	13.82
318.922	38.4
319.136	48.64
319.349	87.55
319.563	50.69
319.776	50.69
319.99	5.63
320.203	89.6
320.417	54.78
320.63	73.21
320.843	24.06
321.057	-31.23
321.27	-16.9
321.483	22.02
321.697	165.37
321.91	24.06
322.124	71.17
322.337	79.36
322.55	73.21
322.763	58.88
322.977	-2.56
323.19	26.11
323.403	15.87
323.617	-2.56
323.83	87.55
324.043	19.97
324.256	-25.09
324.469	34.3
324.683	105.98
324.896	34.3
325.109	34.3
325.322	-16.9
325.535	71.17
325.748	71.17
325.962	3.58
326.175	34.3
326.388	54.78
326.601	13.82
326.814	112.13
327.027	5.63
327.24	128.51
327.453	3.58
327.666	122.37
327.879	26.11
328.092	32.26
328.305	71.17
328.518	5.63
328.731	-27.14
328.944	30.21
329.157	34.3
329.37	17.92
329.583	130.56
329.796	54.78
330.009	-76.29
330.222	202.24
330.435	30.21
330.648	99.84
330.861	1.54
331.073	36.35
331.286	62.98
331.499	62.98
331.712	24.06
331.925	1.54
332.138	56.83
332.35	116.22
332.563	19.97
332.776	95.74
332.989	26.11
333.202	65.02
333.414	87.55
333.627	48.64
333.84	46.59
334.053	30.21
334.265	42.5
334.478	40.45
334.691	58.88
334.903	42.5
335.116	17.92
335.329	-16.9
335.541	36.35
335.754	79.36
335.966	17.92
336.179	3.58
336.392	58.88
336.604	112.13
336.817	89.6
337.029	62.98
337.242	75.26
337.454	7.68
337.667	58.88
337.88	114.17
338.092	62.98
338.305	134.65
338.517	-31.23
338.729	44.54
338.942	32.26
339.154	-35.33
339.367	17.92
339.579	62.98
339.792	-6.66
340.004	79.36
340.217	48.64
340.429	73.21
340.641	7.68
340.854	65.02
341.066	17.92
341.278	124.41
341.491	69.12
341.703	71.17
341.915	54.78
342.128	128.51
342.34	87.55
342.552	5.63
342.764	5.63
342.977	58.88
343.189	58.88
343.401	120.32
343.613	9.73
343.826	87.55
344.038	32.26
344.25	62.98
344.462	24.06
344.674	58.88
344.886	34.3
345.099	-18.94
345.311	-0.51
345.523	99.84
345.735	5.63
345.947	79.36
346.159	71.17
346.371	38.4
346.583	-84.48
346.795	75.26
347.007	-45.57
347.219	65.02
347.431	24.06
347.643	71.17
347.855	7.68
348.067	144.89
348.279	-51.71
348.491	5.63
348.703	110.08
348.915	81.41
349.127	81.41
349.339	105.98
349.551	17.92
349.763	105.98
349.975	65.02
350.187	65.02
350.399	71.17
350.61	73.21
350.822	71.17
351.034	17.92
351.246	32.26
351.458	87.55
351.669	46.59
351.881	75.26
352.093	17.92
352.305	89.6
352.517	38.4
352.728	26.11
352.94	65.02
353.152	87.55
353.363	58.88
353.575	128.51
353.787	54.78
353.999	11.78
354.21	101.89
354.422	95.74
354.633	11.78
354.845	58.88
355.057	79.36
355.268	46.59
355.48	13.82
355.692	30.21
355.903	58.88
356.115	89.6
356.326	30.21
356.538	93.69
356.749	87.55
356.961	87.55
357.172	79.36
357.384	95.74
357.595	97.79
357.807	48.64
358.018	28.16
358.23	79.36
358.441	210.43
358.653	-2.56
358.864	65.02
359.075	71.17
359.287	79.36
359.498	71.17
359.709	40.45
359.921	136.7
360.132	5.63
360.344	62.98
360.555	-2.56
360.766	97.79
360.977	77.31
361.189	-2.56
361.4	89.6
361.611	71.17
361.823	105.98
362.034	69.12
362.245	-33.28
362.456	87.55
362.667	54.78
362.879	42.5
363.09	130.56
363.301	83.45
363.512	87.55
363.723	30.21
363.935	67.07
364.146	46.59
364.357	60.93
364.568	99.84
364.779	9.73
364.99	71.17
365.201	1.54
365.412	71.17
365.623	73.21
365.834	60.93
366.045	99.84
366.256	91.65
366.467	75.26
366.678	46.59
366.889	56.83
367.1	69.12
367.311	22.02
367.522	15.87
367.733	-16.9
367.944	128.51
368.155	5.63
368.366	148.99
368.577	91.65
368.788	97.79
368.999	50.69
369.209	24.06
369.42	128.51
369.631	120.32
369.842	50.69
370.053	62.98
370.264	30.21
370.474	36.35
370.685	71.17
370.896	136.7
371.107	79.36
371.317	-18.94
371.528	58.88
371.739	89.6
371.95	54.78
372.16	108.03
372.371	17.92
372.582	46.59
372.792	7.68
373.003	108.03
373.214	26.11
373.424	91.65
373.635	34.3
373.846	79.36
374.056	-0.51
374.267	30.21
374.477	54.78
374.688	5.63
374.898	62.98
375.109	81.41
375.319	46.59
375.53	122.37
375.74	120.32
375.951	5.63
376.161	126.46
376.372	79.36
376.582	56.83
376.793	112.13
377.003	15.87
377.214	34.3
377.424	50.69
377.635	95.74
377.845	13.82
378.055	87.55
378.266	73.21
378.476	17.92
378.686	56.83
378.897	73.21
379.107	38.4
379.317	11.78
379.528	26.11
379.738	130.56
379.948	40.45
380.158	99.84
380.369	120.32
380.579	71.17
380.789	30.21
380.999	79.36
381.21	136.7
381.42	62.98
381.63	62.98
381.84	116.22
382.05	69.12
382.261	95.74
382.471	50.69
382.681	56.83
382.891	112.13
383.101	28.16
383.311	71.17
383.521	89.6
383.731	138.75
383.941	60.93
384.151	-0.51
384.361	38.4
384.571	67.07
384.781	46.59
384.991	105.98
385.201	120.32
385.411	155.13
385.621	95.74
385.831	38.4
386.041	28.16
386.251	-14.85
386.461	153.09
386.671	103.93
386.881	15.87
387.091	38.4
387.301	99.84
387.511	95.74
387.72	112.13
387.93	13.82
388.14	-33.28
388.35	38.4
388.56	130.56
388.769	95.74
388.979	32.26
389.189	54.78
389.399	73.21
389.609	120.32
389.818	58.88
390.028	99.84
390.238	95.74
390.447	89.6
390.657	62.98
390.867	85.5
391.076	46.59
391.286	85.5
391.496	54.78
391.705	128.51
391.915	67.07
392.125	122.37
392.334	46.59
392.544	97.79
392.753	103.93
392.963	112.13
393.172	54.78
393.382	62.98
393.591	103.93
393.801	30.21
394.01	130.56
394.22	87.55
394.429	40.45
394.639	89.6
394.848	56.83
395.058	56.83
395.267	153.09
395.477	140.8
395.686	93.69
395.895	97.79
396.105	146.94
396.314	91.65
396.524	144.89
396.733	204.28
396.942	81.41
397.152	95.74
397.361	185.85
397.57	87.55
397.78	120.32
397.989	103.93
398.198	130.56
398.407	173.57
398.617	130.56
398.826	128.51
399.035	157.18
399.244	99.84
399.453	136.7
399.663	105.98
399.872	153.09
400.081	42.5
400.29	120.32
400.499	54.78
400.708	103.93
400.917	65.02
401.127	161.28
401.336	73.21
401.545	185.85
401.754	163.33
401.963	165.37
402.172	114.17
402.381	130.56
402.59	148.99
402.799	71.17
403.008	169.47
403.217	60.93
403.426	126.46
403.635	114.17
403.844	187.9
404.053	124.41
404.262	159.23
404.471	208.38
404.68	214.52
404.888	144.89
405.097	89.6
405.306	95.74
405.515	144.89
405.724	177.66
405.933	171.52
406.142	144.89
406.35	95.74
406.559	230.91
406.768	163.33
406.977	218.62
407.185	230.91
407.394	255.48
407.603	138.75
407.812	267.77
408.02	269.82
408.229	165.37
408.438	144.89
408.646	280.06
408.855	269.82
409.064	245.24
409.272	300.54
409.481	316.92
409.69	214.52
409.898	267.77
410.107	310.78
410.315	349.69
410.524	282.11
410.733	345.59
410.941	296.44
411.15	333.31
411.358	361.98
411.567	366.07
411.775	435.71
411.984	364.03
412.192	464.38
412.401	458.23
412.609	562.68
412.818	499.19
413.026	517.62
413.234	472.57
413.443	488.95
413.651	460.28
413.86	583.16
414.068	599.54
414.276	587.26
414.485	597.49
414.693	663.03
414.901	626.17
415.11	605.69
415.318	677.37
415.526	646.65
415.734	769.52
415.943	730.61
416.151	783.86
416.359	767.48
416.567	873.97
416.776	761.33
416.984	990.7
417.192	931.31
417.4	916.98
417.608	853.49
417.817	972.27
418.025	1035.76
418.233	1160.69
418.441	1048.05
418.649	1058.29
418.857	1205.74
419.065	1336.81
419.273	1222.13
419.481	1201.65
419.689	1277.42
419.897	1449.45
420.105	1445.35
420.313	1441.26
420.521	1451.5
420.729	1504.75
420.937	1545.7
421.145	1529.32
421.353	1777.12
421.561	1783.27
421.769	1811.94
421.977	1832.42
422.185	1861.09
422.393	2004.45
422.601	2139.62
422.809	2080.22
423.017	2143.71
423.224	2227.68
423.432	2248.16
423.64	2293.21
423.848	2495.96
424.056	2508.25
424.263	2756.05
424.471	2706.9
424.679	2717.14
424.887	2940.37
425.094	2985.43
425.302	2823.64
425.51	3020.24
425.718	3061.2
425.925	3208.66
426.133	3261.9
426.341	3364.3
426.548	3366.35
426.756	3634.63
426.964	3784.13
427.171	3845.57
427.379	4038.08
427.586	4052.42
427.794	4128.19
428.001	4234.69
428.209	4621.75
428.417	4408.76
428.624	4818.36
428.832	4896.18
429.039	4531.64
429.247	4689.34
429.454	5264.82
429.662	5383.6
429.869	5281.2
430.076	5438.89
430.284	5371.31
430.491	5604.78
430.699	5860.77
430.906	5985.7
431.114	5866.92
431.321	6260.13
431.528	6313.38
431.736	6610.33
431.943	6911.38
432.15	6743.45
432.358	6854.04
432.565	7208.34
432.772	7325.07
432.979	7464.33
433.187	7677.32
433.394	7824.78
433.601	8060.29
433.808	8207.75
434.016	8084.87
434.223	8574.33
434.43	9053.56
434.637	8889.72
434.844	9526.64
435.052	9430.38
435.259	9485.68
435.466	9536.88
435.673	9510.25
435.88	10155.37
436.087	10749.28
436.294	10505.57
436.501	10444.13
436.708	10601.82
436.915	11064.66
437.122	11339.09
437.329	11425.11
437.537	11801.93
437.743	11830.6
437.95	11734.35
438.157	12508.48
438.364	12950.84
438.571	12981.56
438.778	12856.64
438.985	14081.32
439.192	13610.29
439.399	13929.77
439.606	13638.96
439.813	14660.9
440.02	15312.15
440.227	14982.43
440.433	15148.31
440.64	15238.42
440.847	15058.2
441.054	15867.15
441.261	16702.72
441.467	16459.01
441.674	16817.41
441.881	17251.58
442.088	17423.61
442.294	17095.93
442.501	17446.13
442.708	17831.15
442.914	18765.03
443.121	19211.48
443.328	18799.84
443.534	20313.29
443.741	19789.01
443.948	19363.03
444.154	20772.04
444.361	21030.08
444.568	20788.42
444.774	20683.97
444.981	21175.48
445.187	21675.19
445.394	22469.8
445.6	22242.48
445.807	24501.39
446.013	23045.28
446.22	23352.48
446.426	24878.21
446.633	25195.65
446.839	25638.01
447.046	24802.44
447.252	26158.19
447.459	25877.62
447.665	25797.75
447.871	26879.08
448.078	28216.4
448.284	26934.37
448.491	27765.85
448.697	28777.54
448.903	29570.11
449.11	29187.14
449.316	28558.41
449.522	29611.07
449.728	30108.72
449.935	30342.19
450.141	30403.63
450.347	30950.44
450.553	30301.23
450.76	30798.89
450.966	31536.16
451.172	31114.28
451.378	32580.62
451.584	31220.77
451.791	32357.39
451.997	32066.58
452.203	32396.31
452.409	32451.6
452.615	32541.71
452.821	31114.28
453.027	30934.06
453.233	32154.65
453.44	31007.78
453.646	31372.32
453.852	31444
454.058	31878.17
454.264	31173.67
454.47	31992.86
454.676	30884.9
454.882	31642.65
455.088	29396.03
455.294	29684.8
455.5	29609.02
455.705	30401.58
455.911	29410.37
456.117	28621.9
456.323	28089.43
456.529	26766.44
456.735	27966.55
456.941	27079.78
457.147	27014.24
457.352	25654.39
457.558	25642.1
457.764	25371.77
457.97	25070.72
458.176	24614.02
458.381	24663.18
458.587	23348.38
458.793	23508.12
458.999	22088.88
459.204	23700.63
459.41	22957.22
459.616	21454.01
459.821	21408.95
460.027	21247.16
460.233	20800.71
460.438	19907.79
460.644	20075.73
460.85	19201.24
461.055	18560.23
461.261	18810.08
461.466	17276.15
461.672	16903.42
461.878	17962.22
462.083	16614.66
462.289	16624.9
462.494	16157.96
462.7	15699.22
462.905	15176.98
463.111	15467.8
463.316	15740.18
463.522	15265.05
463.727	15523.09
463.932	15234.33
464.138	14990.62
464.343	15142.17
464.549	14693.66
464.754	15486.23
464.959	15240.47
465.165	14789.92
465.37	14124.33
465.575	14200.1
465.781	14218.54
465.986	14433.57
466.191	14136.62
466.397	13395.25
466.602	13104.44
466.807	13493.55
467.012	13354.29
467.218	13579.57
467.423	13165.88
467.628	13440.31
467.833	13792.56
468.038	13335.86
468.244	12940.6
468.449	13268.28
468.654	12918.07
468.859	12746.05
469.064	12774.72
469.269	12311.88
469.474	12469.57
469.679	12571.97
469.885	12322.12
470.09	12291.4
470.295	12297.54
470.5	12268.87
470.705	12094.79
470.91	11736.4
471.115	11523.41
471.32	11930.95
471.525	11904.33
471.73	11558.22
471.935	11418.96
472.139	10966.36
472.344	11255.12
472.549	11050.33
472.754	10878.3
472.959	10591.58
473.164	10524
473.369	10534.24
473.574	10550.62
473.778	10489.18
473.983	10378.59
474.188	10503.52
474.393	10083.69
474.598	10089.83
474.802	10102.12
475.007	9831.79
475.212	9848.17
475.417	9504.11
475.621	9461.1
475.826	9524.59
476.031	9334.13
476.235	9268.59
476.44	9229.68
476.645	9043.32
476.849	9209.2
477.054	9131.38
477.259	8992.12
477.463	8932.73
477.668	8787.32
477.872	8678.78
478.077	8635.77
478.282	8476.03
478.486	8488.32
478.691	8224.13
478.895	8308.1
479.1	8191.36
479.304	8058.25
479.509	7886.22
479.713	8222.08
479.918	8019.33
480.122	7787.91
480.326	8025.48
480.531	7892.36
480.735	7824.78
480.94	7853.45
481.144	8078.72
481.348	7638.41
481.553	7617.93
481.757	7484.81
481.961	7861.64
482.166	7673.23
482.37	7736.71
482.574	7519.63
482.778	7427.47
482.983	7693.71
483.187	7581.07
483.391	7501.2
483.595	7456.14
483.8	7495.05
484.004	7536.01
484.208	7667.08
484.412	7714.19
484.616	7650.7
484.821	7540.11
485.025	7396.75
485.229	7591.31
485.433	7429.52
485.637	7398.8
485.841	7443.85
486.045	7378.32
486.249	7542.16
486.453	7447.95
486.657	7490.96
486.861	7558.54
487.065	7366.03
487.269	7378.32
487.473	7347.6
487.677	7445.9
487.881	7433.61
488.085	7398.8
488.289	7599.5
488.493	7333.26
488.697	7544.2
488.901	7482.77
489.105	7429.52
489.309	7654.8
489.512	7501.2
489.716	7538.06
489.92	7320.98
490.124	7406.99
490.328	7525.77
490.531	7493.01
490.735	7642.51
490.939	7671.18
491.143	7298.45
491.346	7460.24
491.55	7736.71
491.754	7732.62
491.958	7628.17
492.161	7644.56
492.365	7763.34
492.569	7714.19
492.772	7683.47
492.976	7787.91
493.18	7644.56
493.383	7796.11
493.587	7699.85
493.79	7980.42
493.994	7792.01
494.197	7843.21
494.401	8005
494.605	8045.96
494.808	8252.8
495.012	8301.95
495.215	8111.49
495.419	8396.16
495.622	8086.92
495.825	8504.7
496.029	8289.67
496.232	8570.24
496.436	8422.78
496.639	8607.1
496.843	8508.8
497.046	8623.48
497.249	8750.46
497.453	8844.67
497.656	8920.44
497.859	8844.67
498.063	8963.45
498.266	9008.5
498.469	9123.19
498.673	9127.28
498.876	9344.37
499.079	9262.45
499.282	9262.45
499.485	9694.57
499.689	9407.86
499.892	9704.81
500.095	9809.26
500.298	9885.03
500.501	9839.98
500.705	10179.94
500.908	10302.82
501.111	10143.08
501.314	10562.91
501.517	10548.58
501.72	10591.58
501.923	10564.96
502.126	10806.62
502.329	10958.17
502.532	10978.65
502.735	10927.45
502.938	11349.33
503.141	11242.84
503.344	11523.41
503.547	11556.18
503.75	11705.68
503.953	11834.7
504.156	11908.43
504.359	12041.54
504.562	12059.98
504.765	12438.85
504.968	12268.87
505.17	12506.43
505.373	12524.86
505.576	12703.04
505.779	12961.08
505.982	13030.71
506.185	13352.24
506.387	13223.22
506.59	13126.97
506.793	13641.01
506.996	13585.71
507.198	13892.91
507.401	13866.28
507.604	14048.55
507.807	14130.47
508.009	14202.15
508.212	14527.78
508.415	14687.52
508.617	14980.38
508.82	14918.94
509.022	14753.05
509.225	15078.68
509.428	15080.73
509.63	15183.13
509.833	15318.29
510.035	15971.6
510.238	15746.32
510.44	15916.3
510.643	16442.63
510.845	16266.5
511.048	16540.93
511.25	16477.44
511.453	16690.43
511.655	17261.82
511.858	16899.33
512.06	17229.05
512.262	17448.18
512.465	17192.19
512.667	17648.88
512.87	17888.5
513.072	17802.48
513.274	18261.23
513.477	18633.96
513.679	18691.3
513.881	18664.68
514.084	19043.55
514.286	18998.49
514.488	18887.9
514.69	19709.14
514.893	19709.14
515.095	19838.16
515.297	20096.21
515.499	20137.16
515.701	20020.43
515.904	20204.75
516.106	20456.65
516.308	20714.69
516.51	20972.74
516.712	21097.66
516.914	21062.85
517.116	21548.22
517.318	21361.85
517.52	21777.59
517.722	21710
517.925	21798.07
518.127	22414.51
518.329	22228.14
518.531	22340.78
518.733	22516.9
518.935	22863.01
519.136	22854.82
519.338	23248.03
519.54	23284.89
519.742	23387.29
519.944	23514.27
520.146	23708.82
520.348	24112.27
520.55	24116.37
520.752	24132.75
520.954	24466.57
521.155	24530.06
521.357	24517.77
521.559	24966.28
521.761	25318.53
521.963	25402.49
522.164	25246.85
522.366	25384.06
522.568	25379.96
522.77	25197.7
522.971	25627.77
523.173	25361.53
523.375	25842.81
523.576	25967.73
523.778	25818.23
523.98	25855.09
524.181	26176.62
524.383	26274.93
524.584	26489.96
524.786	26512.49
524.988	26446.96
525.189	26643.56
525.391	26825.83
525.592	26422.38
525.794	26735.72
525.995	26850.41
526.197	26688.62
526.398	26764.39
526.6	26887.27
526.801	26950.76
527.003	27106.4
527.204	26954.85
527.406	27257.95
527.607	26850.41
527.808	27239.52
528.01	26475.63
528.211	26934.37
528.412	27257.95
528.614	27090.02
528.815	27145.31
529.016	27300.96
529.218	26948.71
529.419	26977.38
529.62	27075.68
529.822	26694.76
530.023	27004
530.224	26891.37
530.425	26842.21
530.626	26913.89
530.828	26793.06
531.029	27348.06
531.23	26805.35
531.431	27006.05
531.632	26819.69
531.833	26864.74
532.035	26803.3
532.236	26938.47
532.437	26760.3
532.638	26393.71
532.839	26567.79
533.04	26696.81
533.241	26522.73
533.442	26774.63
533.643	26731.62
533.844	26741.86
534.045	26469.48
534.246	26178.67
534.447	26774.63
534.648	26307.69
534.849	26481.77
535.05	26152.05
535.251	26317.93
535.451	26047.6
535.652	26172.53
535.853	26201.2
536.054	26016.88
536.255	25949.3
536.456	25748.6
536.657	26526.83
536.857	25764.98
537.058	25617.53
537.259	26147.95
537.46	26217.58
537.66	25959.54
537.861	25932.92
538.062	25670.78
538.263	25441.4
538.463	25531.51
538.664	25599.1
538.865	25678.97
539.065	25590.91
539.266	25508.99
539.466	25623.67
539.667	25386.11
539.868	25656.44
540.068	25748.6
540.269	25128.06
540.469	25531.51
540.67	25154.69
540.87	25285.76
541.071	25455.74
541.271	25494.65
541.472	25351.29
541.672	25091.2
541.873	25050.24
542.073	25011.33
542.274	25009.28
542.474	24968.32
542.675	24882.31
542.875	25379.96
543.075	24747.14
543.276	24896.64
543.476	25289.85
543.676	24925.32
543.877	25042.05
544.077	25083.01
544.277	24921.22
544.478	24876.16
544.678	24931.46
544.878	25083.01
545.078	24884.36
545.279	25136.26
545.479	24763.53
545.679	25183.36
545.879	25076.87
546.079	24984.71
546.28	24929.41
546.48	24892.55
546.68	25171.07
546.88	24929.41
547.08	24910.98
547.28	24941.7
547.48	24358.03
547.68	24949.89
547.88	24546.44
548.081	25005.19
548.281	24728.71
548.481	24706.18
548.681	24984.71
548.881	25185.41
549.081	24947.84
549.28	24812.68
549.48	25263.23
549.68	24956.04
549.88	25187.46
550.08	24974.47
550.28	24759.43
550.48	25070.72
550.68	25209.98
550.88	24894.6
551.08	24919.17
551.279	25347.2
551.479	24976.51
551.679	25293.95
551.879	25083.01
552.079	25130.11
552.278	25134.21
552.478	25214.08
552.678	25169.02
552.878	25640.06
553.077	25207.94
553.277	25300.09
553.477	25576.57
553.676	25152.64
553.876	25576.57
554.076	25056.39
554.275	25205.89
554.475	25398.4
554.674	25322.62
554.874	25289.85
555.074	25468.03
555.273	25605.24
555.473	25541.75
555.672	25599.1
555.872	25707.64
556.071	25611.39
556.271	25752.7
556.47	25535.61
556.67	25336.96
556.869	25683.06
557.068	25511.03
557.268	25443.45
557.467	25519.23
557.667	25640.06
557.866	25867.38
558.065	25603.19
558.265	25605.24
558.464	25472.12
558.663	25920.63
558.863	25635.96
559.062	25877.62
559.261	25787.51
559.461	25644.15
559.66	25371.77
559.859	25566.33
560.058	25525.37
560.258	25959.54
560.457	25691.26
560.656	25678.97
560.855	25474.17
561.054	26113.14
561.253	25619.58
561.453	25629.82
561.652	26025.07
561.851	26113.14
562.05	25656.44
562.249	25533.56
562.448	25885.81
562.647	25777.27
562.846	25767.03
563.045	25787.51
563.244	25525.37
563.443	25863.29
563.642	25529.47
563.841	25816.18
564.04	25795.7
564.239	26043.51
564.438	25730.17
564.637	25728.12
564.836	25736.31
565.035	25472.12
565.234	25494.65
565.432	25361.53
565.631	25343.1
565.83	25427.07
566.029	25435.26
566.228	25416.83
566.427	25353.34
566.625	25044.1
566.824	25371.77
567.023	25422.97
567.222	24777.86
567.42	25121.92
567.619	24839.3
567.818	25017.47
568.016	25056.39
568.215	25302.14
568.414	25007.23
568.612	25171.07
568.811	24759.43
569.01	24726.66
569.208	24616.07
569.407	25070.72
569.605	24763.53
569.804	24769.67
570.002	24442
570.201	24482.95
570.4	24401.04
570.598	24204.43
570.797	24431.76
570.995	24153.23
571.193	24056.98
571.392	24298.64
571.59	23889.04
571.789	23899.28
571.987	23864.47
572.186	23946.39
572.384	23819.41
572.582	23729.3
572.781	23846.04
572.979	23391.39
573.177	23704.73
573.376	23372.96
573.574	23508.12
573.772	23303.32
573.971	23221.41
574.169	23348.38
574.367	23000.23
574.565	23057.57
574.763	22887.59
574.962	23055.52
575.16	22787.24
575.358	22944.93
575.556	22885.54
575.754	22641.83
575.952	22541.48
576.151	22693.03
576.349	22516.9
576.547	22426.79
576.745	22471.85
576.943	22414.51
577.141	22410.41
577.339	21998.77
577.537	22279.34
577.735	21824.69
577.933	21707.96
578.131	22174.89
578.329	21693.62
578.527	21599.41
578.725	21697.72
578.923	21937.33
579.121	21394.62
579.319	21621.94
579.516	21628.09
579.714	21671.09
579.912	21509.3
580.11	21327.03
580.308	21263.55
580.506	20966.59
580.704	20769.99
580.901	21390.52
581.099	21050.56
581.297	20876.48
581.495	20817.09
581.692	20952.26
581.89	20643.01
582.088	20819.14
582.285	20448.46
582.483	20817.09
582.681	20536.52
582.878	20655.3
583.076	20053.2
583.274	20503.75
583.471	20061.39
583.669	20661.44
583.866	20305.1
584.064	20055.25
584.262	19954.9
584.459	20364.49
584.657	20161.74
584.854	20274.38
585.052	19684.56
585.249	19735.76
585.447	19797.2
585.644	19653.84
585.841	19670.23
586.039	19989.71
586.236	19662.04
586.434	19530.97
586.631	19447
586.828	19647.7
587.026	19539.16
587.223	19191
587.42	19447
587.618	19449.05
587.815	19137.76
588.012	19115.23
588.21	19090.65
588.407	19600.6
588.604	18937.06
588.801	18762.98
588.999	19137.76
589.196	18736.35
589.393	18881.76
589.59	18998.49
589.787	18803.94
589.984	19215.58
590.182	18885.86
590.379	19086.56
590.576	18619.62
590.773	18851.04
590.97	18517.22
591.167	19059.93
591.364	18701.54
591.561	18898.14
591.758	18492.65
591.955	18435.3
592.152	18619.62
592.349	18533.61
592.546	18709.73
592.743	18392.3
592.94	18244.84
593.137	18375.91
593.334	18580.71
593.531	18502.89
593.727	18693.35
593.924	18539.75
594.121	18463.97
594.318	18447.59
594.515	18457.83
594.712	18369.77
594.908	18210.03
595.105	18183.4
595.302	18134.25
595.499	18412.78
595.696	18275.56
595.892	18207.98
596.089	18478.31
596.286	18404.58
596.482	18029.8
596.679	18019.57
596.876	18324.71
597.072	18224.36
597.269	18207.98
597.466	18148.59
597.662	18345.19
597.859	18535.65
598.055	18064.62
598.252	18234.6
598.448	18318.57
598.645	18070.76
598.841	18093.29
599.038	18234.6
599.234	18136.3
599.431	18214.12
599.627	18171.11
599.824	18390.25
600.02	18240.75
600.217	18431.21
600.413	18482.41
600.609	18371.82
600.806	18476.26
601.002	18629.86
601.198	18707.68
601.395	18431.21
601.591	18332.9
601.787	18511.08
601.984	18535.65
602.18	19156.19
602.376	18654.44
602.572	18590.95
602.769	18683.11
602.965	18717.92
603.161	19006.69
603.357	18781.41
603.553	18697.44
603.75	19064.03
603.946	18875.62
604.142	18928.86
604.338	18787.55
604.534	18975.97
604.73	19100.89
604.926	18787.55
605.122	18953.44
605.318	19012.83
605.514	19326.17
605.71	19070.17
605.906	19277.02
606.102	19350.74
606.298	19414.23
606.494	19385.56
606.69	19498.2
606.886	19383.51
607.082	19602.64
607.278	19717.33
607.474	19236.06
607.67	19756.24
607.866	19406.04
608.062	19770.58
608.257	19752.15
608.453	19875.02
608.649	19807.44
608.845	19682.52
609.041	19827.92
609.236	20063.44
609.432	19750.1
609.628	19936.46
609.824	20090.06
610.019	19936.46
610.215	20020.43
610.411	20327.63
610.606	20040.91
610.802	20239.56
610.998	20114.64
611.193	20327.63
611.389	20145.36
611.584	20233.42
611.78	20307.15
611.976	20425.93
612.171	20317.39
612.367	20397.26
612.562	20554.95
612.758	20393.16
612.953	20587.72
613.149	20436.17
613.344	20387.02
613.539	20516.04
613.735	20901.06
613.93	20782.27
614.126	20640.97
614.321	21128.38
614.517	20817.09
614.712	20954.3
614.907	20542.66
615.103	20909.25
615.298	20683.97
615.493	21085.37
615.688	21023.94
615.884	21478.58
616.079	20561.09
616.274	21003.46
616.47	20927.68
616.665	21173.44
616.86	20849.86
617.055	20939.97
617.25	20731.08
617.445	21081.28
617.641	20624.58
617.836	20612.29
618.031	20407.5
618.226	20874.43
618.421	20878.53
618.616	20958.4
618.811	20481.22
619.006	21161.15
619.201	20370.63
619.396	20686.02
619.591	20329.67
619.786	20823.23
619.981	20378.83
620.176	20538.57
620.371	20108.49
620.566	20438.22
620.761	20092.11
620.956	20354.25
621.151	20128.97
621.346	20176.08
621.541	19705.04
621.735	20094.16
621.93	19625.17
622.125	19981.52
622.32	19563.73
622.515	19897.55
622.709	19631.32
622.904	19746
623.099	19653.84
623.294	19553.49
623.488	19451.1
623.683	19172.57
623.878	19301.59
624.072	19283.16
624.267	19137.76
624.462	18889.95
624.656	19014.88
624.851	18986.21
625.046	18529.51
625.24	18722.02
625.435	18658.53
625.629	18609.38
625.824	18300.14
626.018	18273.51
626.213	17931.5
626.407	18081
626.602	18025.71
626.796	18126.06
626.991	17882.35
627.185	18081
627.38	17562.87
627.574	17499.38
627.768	17609.97
627.963	17618.16
628.157	17538.29
628.352	17439.99
628.546	17036.54
628.74	17313.02
628.935	16872.7
629.129	17014.01
629.323	16782.59
629.517	16809.22
629.712	16944.38
629.906	16614.66
630.1	16491.78
630.294	16700.67
630.489	16489.73
630.683	16454.92
630.877	16221.45
631.071	15893.77
631.265	16209.16
631.459	16096.52
631.653	15863.05
631.848	16123.15
632.042	15815.95
632.236	15983.88
632.43	15779.09
632.624	15734.03
632.818	15674.64
633.012	15383.83
633.206	15619.35
633.4	15488.28
633.594	15283.48
633.788	15228.18
633.982	15314.2
634.176	15181.08
634.369	14992.67
634.563	15097.11
634.757	14976.28
634.951	14873.89
635.145	14865.69
635.339	14609.7
635.533	14523.68
635.726	14456.1
635.92	14310.69
636.114	14222.63
636.308	14396.71
636.501	14476.58
636.695	14105.9
636.889	14011.69
637.083	14128.42
637.276	13944.11
637.47	13808.94
637.664	13743.41
637.857	13614.38
638.051	13552.95
638.244	13374.77
638.438	13342
638.632	13165.88
638.825	13229.37
639.019	12952.89
639.212	13196.6
639.406	12907.84
639.599	12842.3
639.793	12918.07
639.986	12700.99
640.18	12674.37
640.373	12698.94
640.567	12377.41
640.76	12539.2
640.954	12227.91
641.147	12168.52
641.34	12344.64
641.534	12174.66
641.727	12170.57
641.92	12080.46
642.114	11945.29
642.307	11738.44
642.5	11887.95
642.694	11457.87
642.887	11552.08
643.08	11517.26
643.273	11441.49
643.467	11498.83
643.66	11154.77
643.853	11066.71
644.046	11271.51
644.239	11122.01
644.432	11117.91
644.626	11001.18
644.819	10827.1
645.012	10755.42
645.205	10880.35
645.398	10734.94
645.591	10597.73
645.784	10626.4
645.977	10351.97
646.17	10503.52
646.363	10270.05
646.556	10171.75
646.749	10245.48
646.942	10149.22
647.135	10276.2
647.328	10048.87
647.521	10028.39
647.714	9964.9
647.907	9858.41
648.099	9897.32
648.292	9973.1
648.485	9768.3
648.678	9803.11
648.871	9639.28
649.064	9485.68
649.256	9487.73
649.449	9622.89
649.642	9446.77
649.835	9536.88
650.027	9364.85
650.22	9166.2
650.413	9158
650.605	9323.89
650.798	9039.22
650.991	9074.04
651.183	8848.76
651.376	8959.35
651.568	8789.37
651.761	8930.68
651.954	8906.1
652.146	8570.24
652.339	8828.28
652.531	8697.21
652.724	8652.16
652.916	8525.18
653.109	8433.02
653.301	8390.02
653.494	8418.69
653.686	8275.33
653.879	8543.61
654.071	8258.95
654.263	8306.05
654.456	8275.33
654.648	8353.15
654.84	8027.53
655.033	8058.25
655.225	8070.53
655.417	7796.11
655.61	8027.53
655.802	7894.41
655.994	7869.83
656.186	7937.41
656.379	7861.64
656.571	7775.63
656.763	7591.31
656.955	7650.7
657.148	7513.49
657.34	7681.42
657.532	7460.24
657.724	7517.58
657.916	7361.94
658.108	7363.98
658.3	7368.08
658.492	7370.13
658.684	7163.28
658.876	7437.71
659.068	7150.99
659.26	7054.74
659.452	7157.14
659.644	7161.23
659.836	6837.66
660.028	7054.74
660.22	6837.66
660.412	6708.63
660.604	6657.43
660.796	6890.9
660.988	6796.7
661.18	6856.09
661.372	6634.91
661.563	6866.33
661.755	6786.46
661.947	6518.17
662.139	6430.11
662.331	6501.79
662.522	6329.76
662.714	6446.49
662.906	6329.76
663.097	6452.64
663.289	6413.73
663.481	6479.26
663.673	6219.17
663.864	6223.27
664.056	6170.02
664.247	6104.48
664.439	6024.61
664.631	6102.43
664.822	5993.89
665.014	6022.56
665.205	5985.7
665.397	5901.73
665.588	5830.06
665.78	5813.67
665.971	5871.01
666.163	5828.01
666.354	5746.09
666.546	5752.23
666.737	5694.89
666.929	5688.75
667.12	5670.31
667.311	5572.01
667.503	5543.34
667.694	5594.54
667.885	5584.3
668.077	5543.34
668.268	5551.53
668.459	5340.59
668.651	5387.69
668.842	5494.19
669.033	5410.22
669.224	5248.43
669.416	5469.61
669.607	5258.67
669.798	5316.01
669.989	5410.22
670.18	5359.02
670.371	5115.31
670.563	5299.63
670.754	5207.47
670.945	5150.13
671.136	5182.9
671.327	5100.98
671.518	5143.99
671.709	5129.65
671.9	5164.47
672.091	5039.54
672.282	5107.12
672.473	5133.75
672.664	5049.78
672.855	4928.95
673.046	4939.19
673.237	5014.96
673.428	5010.87
673.619	4939.19
673.809	4863.41
674	4971.96
674.191	4937.14
674.382	4900.28
674.573	4806.07
674.764	4777.4
674.954	4896.18
675.145	4816.31
675.336	4736.44
675.527	4781.5
675.717	4707.77
675.908	4814.26
676.099	4720.06
676.289	4799.93
676.48	4750.78
676.671	4754.87
676.861	4627.9
677.052	4660.66
677.243	4666.81
677.433	4691.38
677.624	4666.81
677.814	4636.09
678.005	4781.5
678.195	4527.55
678.386	4648.38
678.576	4765.11
678.767	4699.58
678.957	4715.96
679.148	4599.23
679.338	4566.46
679.529	4539.83
679.719	4545.98
679.909	4699.58
680.1	4505.02
680.29	4584.89
680.481	4627.9
680.671	4718.01
680.861	4668.86
681.052	4523.45
681.242	4435.39
681.432	4578.75
681.622	4531.64
681.813	4486.59
682.003	4615.61
682.193	4474.3
682.383	4720.06
682.573	4578.75
682.764	4554.17
682.954	4660.66
683.144	4644.28
683.334	4443.58
683.524	4584.89
683.714	4562.36
683.904	4601.27
684.094	4539.83
684.284	4457.92
684.474	4496.83
684.664	4568.51
684.854	4433.34
685.044	4369.85
685.234	4539.83
685.424	4519.36
685.614	4292.03
685.804	4500.92
685.994	4398.52
686.184	4298.17
686.374	4535.74
686.564	4310.46
686.753	4359.61
686.943	4203.97
687.133	4406.72
687.323	4464.06
687.513	4412.86
687.702	4330.94
687.892	4410.81
688.082	4273.6
688.272	4328.89
688.461	4408.76
688.651	4201.92
688.841	4199.87
689.03	4283.84
689.22	4148.67
689.41	4320.7
689.599	4181.44
689.789	4337.09
689.979	4236.74
690.168	4214.21
690.358	4183.49
690.547	4079.04
690.737	4117.95
690.926	4226.5
691.116	4113.86
691.305	4183.49
691.495	4208.06
691.684	4160.96
691.874	4154.82
692.063	4195.78
692.252	4226.5
692.442	4132.29
692.631	4142.53
692.82	4111.81
693.01	4195.78
693.199	4154.82
693.388	4036.03
693.578	4046.27
693.767	3995.08
693.956	4007.36
694.146	4007.36
694.335	4019.65
694.524	3939.78
694.713	4122.05
694.902	4015.55
695.092	4005.31
695.281	4007.36
695.47	4036.03
695.659	3907.01
695.848	3997.12
696.037	3962.31
696.226	3896.77
696.415	3880.39
696.604	3798.47
696.793	3947.97
696.982	3847.62
697.171	4019.65
697.36	3911.11
697.549	3773.89
697.738	3864.01
697.927	3884.48
698.116	3988.93
698.305	3833.29
698.494	3814.85
698.683	3796.42
698.872	3941.83
699.061	3806.66
699.25	3888.58
699.438	3972.55
699.627	3759.56
699.816	3911.11
700.005	3847.62
700.193	3884.48
700.382	3747.27
700.571	3849.67
700.76	3732.94
700.948	3728.84
701.137	3634.63
701.326	3640.78
701.514	3798.47
701.703	3798.47
701.892	3622.34
702.08	3708.36
702.269	3628.49
702.457	3462.6
702.646	3552.71
702.834	3614.15
703.023	3702.22
703.212	3851.72
703.4	3636.68
703.589	3626.44
703.777	3698.12
703.965	3569.1
704.154	3677.64
704.342	3409.36
704.531	3530.19
704.719	3528.14
704.907	3794.37
705.096	3519.95
705.284	3483.08
705.472	3601.87
705.661	3497.42
705.849	3536.33
706.037	3624.39
706.226	3462.6
706.414	3552.71
706.602	3478.99
706.79	3448.27
706.979	3390.92
707.167	3509.71
707.355	3384.78
707.543	3366.35
707.731	3392.97
707.919	3360.2
708.107	3456.46
708.296	3407.31
708.484	3403.21
708.672	3538.38
708.86	3372.49
709.048	3478.99
709.236	3184.08
709.424	3251.66
709.612	3227.09
709.8	3327.44
709.988	3298.77
710.176	3347.92
710.364	3231.18
710.551	3210.7
710.739	3161.55
710.927	3184.08
711.115	3251.66
711.303	3087.82
711.491	3200.46
711.679	3130.83
711.866	3159.5
712.054	3216.85
712.242	3053.01
712.43	3304.91
712.617	3118.54
712.805	3145.17
712.993	3204.56
713.181	3073.49
713.368	3169.74
713.556	3069.39
713.744	3040.72
713.931	3192.27
714.119	3028.43
714.306	3071.44
714.494	3048.91
714.682	3046.87
714.869	2997.71
715.057	3061.2
715.244	2975.19
715.432	2901.46
715.619	2885.08
715.807	3028.43
715.994	2983.38
716.182	3061.2
716.369	2903.51
716.556	2954.71
716.744	2883.03
716.931	2954.71
717.119	2981.33
717.306	2954.71
717.493	2860.5
717.681	2889.17
717.868	2821.59
718.055	2962.9
718.242	2930.13
718.43	2901.46
718.617	2872.79
718.804	2770.39
718.991	2866.64
719.179	2846.16
719.366	2840.02
719.553	2801.11
719.74	2860.5
719.927	2792.92
720.114	2745.81
720.301	2760.15
720.488	2708.95
720.676	2737.62
720.863	2866.64
721.05	2772.44
721.237	2741.72
721.424	2694.61
721.611	2848.21
721.798	2686.42
721.985	2678.23
722.172	2602.46
722.358	2676.18
722.545	2612.7
722.732	2768.34
722.919	2833.88
723.106	2627.03
723.293	2715.09
723.48	2667.99
723.667	2528.73
723.853	2541.02
724.04	2633.18
724.227	2653.66
724.414	2653.66
724.6	2571.74
724.787	2643.42
724.974	2602.46
725.161	2516.44
725.347	2512.35
725.534	2524.63
725.72	2627.03
725.907	2504.15
726.094	2627.03
726.28	2563.54
726.467	2594.26
726.653	2440.67
726.84	2538.97
727.027	2618.84
727.213	2426.33
727.4	2502.11
727.586	2612.7
727.773	2465.24
727.959	2512.35
728.145	2495.96
728.332	2504.15
728.518	2428.38
728.705	2434.52
728.891	2405.85
729.077	2352.6
729.264	2377.18
729.45	2377.18
729.636	2438.62
729.823	2340.32
730.009	2461.15
730.195	2317.79
730.382	2383.32
730.568	2397.66
730.754	2373.08
730.94	2299.36
731.126	2262.49
731.313	2356.7
731.499	2295.26
731.685	2397.66
731.871	2401.76
732.057	2383.32
732.243	2397.66
732.429	2393.56
732.615	2323.93
732.801	2272.73
732.987	2309.6
733.173	2293.21
733.359	2262.49
733.545	2325.98
733.731	2299.36
733.917	2258.4
734.103	2260.45
734.289	2233.82
734.475	2274.78
734.661	2366.94
734.847	2186.72
735.033	2268.64
735.219	2225.63
735.404	2235.87
735.59	2295.26
735.776	2162.14
735.962	2242.01
736.148	2162.14
736.333	2213.34
736.519	2125.28
736.705	2227.68
736.89	2166.24
737.076	2127.33
737.262	2110.94
737.447	2170.33
737.633	2180.57
737.819	2153.95
738.004	2080.22
738.19	2135.52
738.375	2112.99
738.561	2018.79
738.747	2049.5
738.932	2082.27
739.118	2147.81
739.303	2106.85
739.489	2160.1
739.674	2037.22
739.859	2106.85
740.045	2004.45
740.23	2119.14
740.416	1965.54
740.601	1967.59
740.786	1897.96
740.972	1908.19
741.157	1988.07
741.342	1924.58
741.528	1959.39
741.713	2074.08
741.898	1971.68
742.084	1908.19
742.269	2022.88
742.454	1934.82
742.639	1957.35
742.824	1822.18
743.01	1863.14
743.195	1916.39
743.38	1840.61
743.565	1906.15
743.75	1891.81
743.935	1736.17
744.12	1807.84
744.305	1791.46
744.49	1770.98
744.675	1859.04
744.86	1734.12
745.045	1842.66
745.23	1785.32
745.415	1834.47
745.6	1852.9
745.785	1897.96
745.97	1738.21
746.155	1693.16
746.34	1779.17
746.525	1693.16
746.71	1750.5
746.895	1603.05
747.079	1668.58
747.264	1562.09
747.449	1758.69
747.634	1828.32
747.819	1750.5
748.003	1629.67
748.188	1713.64
748.373	1553.9
748.557	1644.01
748.742	1553.9
748.927	1566.18
749.111	1687.01
749.296	1514.98
749.481	1590.76
749.665	1537.51
749.85	1490.41
750.034	1457.64
750.219	1617.38
750.404	1433.07
750.588	1519.08
750.773	1482.22
750.957	1424.87
751.141	1514.98
751.326	1433.07
751.51	1330.67
751.695	1431.02
751.879	1412.59
752.064	1455.59
752.248	1431.02
752.432	1406.44
752.617	1402.35
752.801	1459.69
752.985	1318.38
753.17	1285.61
753.354	1447.4
753.538	1332.72
753.722	1334.76
753.907	1324.52
754.091	1246.7
754.275	1324.52
754.459	1283.56
754.643	1228.27
754.828	1222.13
755.012	1246.7
755.196	1271.28
755.38	1283.56
755.564	1269.23
755.748	1246.7
755.932	1209.84
756.116	1179.12
756.3	1230.32
756.484	1177.07
756.668	1250.8
756.852	1127.92
757.036	1185.26
757.22	1277.42
757.404	1144.3
757.588	1168.88
757.772	1121.77
757.956	1230.32
758.14	1074.67
758.323	1136.11
758.507	1103.34
758.691	996.85
758.875	1095.15
759.059	1093.1
759.242	1058.29
759.426	988.66
759.61	1080.82
759.794	1086.96
759.977	1009.14
760.161	1160.69
760.345	1111.54
760.528	1050.1
760.712	1078.77
760.895	988.66
761.079	1046
761.263	1013.23
761.446	1000.94
761.63	1031.66
761.813	992.75
761.997	898.55
762.18	943.6
762.364	1009.14
762.547	898.55
762.731	966.13
762.914	939.51
763.098	972.27
763.281	1021.42
763.464	955.89
763.648	898.55
763.831	841.2
764.015	886.26
764.198	1005.04
764.381	968.18
764.564	892.4
764.748	867.83
764.931	882.16
765.114	894.45
765.297	916.98
765.481	916.98
765.664	900.59
765.847	882.16
766.03	890.35
766.213	898.55
766.397	849.4
766.58	904.69
766.763	859.63
766.946	912.88
767.129	910.83
767.312	863.73
767.495	849.4
767.678	859.63
767.861	914.93
768.044	837.11
768.227	908.79
768.41	841.2
768.593	947.7
768.776	837.11
768.959	882.16
769.142	878.07
769.324	833.01
769.507	808.44
769.69	761.33
769.873	759.28
770.056	939.51
770.239	693.75
770.421	828.92
770.604	738.8
770.787	839.16
770.97	785.91
771.152	703.99
771.335	816.63
771.518	804.34
771.7	706.04
771.883	853.49
772.066	808.44
772.248	718.33
772.431	826.87
772.613	734.71
772.796	742.9
772.978	718.33
773.161	804.34
773.343	734.71
773.526	761.33
773.708	728.56
773.891	726.52
774.073	759.28
774.256	683.51
774.438	652.79
774.621	720.37
774.803	759.28
774.985	706.04
775.168	663.03
775.35	665.08
775.532	665.08
775.715	751.09
775.897	681.46
776.079	628.21
776.261	679.41
776.444	634.36
776.626	663.03
776.808	646.65
776.99	693.75
777.173	658.93
777.355	634.36
777.537	624.12
777.719	677.37
777.901	484.86
778.083	597.49
778.265	505.34
778.447	701.94
778.629	566.78
778.811	546.3
778.993	638.45
779.175	685.56
779.357	521.72
779.539	548.34
779.721	521.72
779.903	521.72
780.085	558.58
780.267	562.68
780.449	564.73
780.631	509.43
780.812	568.82
780.994	540.15
781.176	583.16
781.358	468.47
781.54	538.1
781.721	513.53
781.903	507.38
782.085	531.96
782.267	542.2
782.448	503.29
782.63	497.14
782.812	540.15
782.993	538.1
783.175	472.57
783.357	509.43
783.538	390.65
783.72	495.1
783.901	562.68
784.083	505.34
784.264	503.29
784.446	468.47
784.627	423.42
784.809	447.99
784.99	415.23
785.172	464.38
785.353	509.43
785.535	480.76
785.716	464.38
785.897	366.07
786.079	482.81
786.26	464.38
786.441	452.09
786.623	333.31
786.804	458.23
786.985	419.32
787.167	378.36
787.348	357.88
787.529	452.09
787.71	433.66
787.891	488.95
788.073	378.36
788.254	411.13
788.435	419.32
788.616	392.7
788.797	366.07
788.978	341.5
789.159	447.99
789.34	407.03
789.522	269.82
789.703	374.27
789.884	341.5
790.065	333.31
790.246	415.23
790.427	349.69
790.607	343.55
790.788	384.51
790.969	314.88
791.15	415.23
791.331	296.44
791.512	275.96
791.693	292.35
791.874	321.02
792.054	415.23
792.235	382.46
792.416	337.4
792.597	278.01
792.778	382.46
792.958	351.74
793.139	275.96
793.32	316.92
793.5	243.2
793.681	349.69
793.862	316.92
794.042	306.68
794.223	257.53
794.404	300.54
794.584	267.77
794.765	292.35
794.945	275.96
795.126	374.27
795.306	351.74
795.487	302.59
795.667	253.44
795.848	325.12
796.028	296.44
796.209	282.11
796.389	302.59
796.57	302.59
796.75	245.24
796.93	232.96
797.111	251.39
797.291	251.39
797.471	296.44
797.652	251.39
797.832	237.05
798.012	222.72
798.192	212.48
798.373	312.83
798.553	292.35
798.733	288.25
798.913	267.77
799.093	230.91
799.274	210.43
799.454	302.59
799.634	275.96
799.814	302.59
799.994	245.24
800.174	218.62
800.354	280.06
800.534	161.28
800.714	271.87
800.894	181.76
801.074	232.96
801.254	251.39
801.434	267.77
801.614	286.2
801.794	202.24
801.974	984.56
802.154	249.34
802.334	308.73
802.514	196.09
802.693	210.43
802.873	212.48
803.053	243.2
803.233	183.81
803.413	210.43
803.592	171.52
803.772	99.84
803.952	218.62
804.131	181.76
804.311	239.1
804.491	179.71
804.67	171.52
804.85	198.14
805.03	235
805.209	290.3
805.389	208.38
805.568	247.29
805.748	153.09
805.928	136.7
806.107	267.77
806.287	247.29
806.466	185.85
806.646	200.19
806.825	144.89
807.004	169.47
807.184	198.14
807.363	204.28
807.543	171.52
807.722	122.37
807.901	247.29
808.081	220.67
808.26	173.57
808.439	163.33
808.619	226.81
808.798	167.42
808.977	146.94
809.156	220.67
809.336	93.69
809.515	189.95
809.694	97.79
809.873	194.05
810.052	222.72
810.231	286.2
810.411	138.75
810.59	198.14
810.769	173.57
810.948	214.52
811.127	40.45
811.306	218.62
811.485	177.66
811.664	253.44
811.843	202.24
812.022	210.43
812.201	159.23
812.38	124.41
812.559	165.37
812.737	198.14
812.916	157.18
813.095	136.7
813.274	108.03
813.453	198.14
813.632	157.18
813.811	181.76
813.989	89.6
814.168	95.74
814.347	146.94
814.526	38.4
814.704	177.66
814.883	144.89
815.062	114.17
815.24	97.79
815.419	153.09
815.598	222.72
815.776	126.46
815.955	161.28
816.133	34.3
816.312	83.45
816.49	153.09
816.669	132.61
816.847	116.22
817.026	210.43
817.204	130.56
817.383	114.17
817.561	153.09
817.74	118.27
817.918	210.43
818.097	179.71
818.275	202.24
818.453	171.52
818.632	103.93
818.81	155.13
818.988	134.65
819.167	89.6
819.345	89.6
819.523	108.03
819.701	87.55
819.879	120.32
820.058	138.75
820.236	108.03
820.414	79.36
820.592	116.22
820.77	87.55
820.948	128.51
821.127	71.17
821.305	138.75
821.483	83.45
821.661	130.56
821.839	118.27
822.017	95.74
822.195	91.65
822.373	144.89
822.551	95.74
822.729	189.95
822.907	108.03
823.085	73.21
823.262	159.23
823.44	30.21
823.618	97.79
823.796	128.51
823.974	105.98
824.152	112.13
824.329	136.7
824.507	136.7
824.685	126.46
824.863	103.93
825.04	161.28
825.218	128.51
825.396	54.78
825.574	71.17
825.751	155.13
825.929	185.85
826.107	130.56
826.284	165.37
826.462	62.98
826.639	89.6
826.817	153.09
826.994	134.65
827.172	122.37
827.349	89.6
827.527	177.66
827.704	60.93
827.882	153.09
828.059	136.7
828.237	146.94
828.414	130.56
828.591	26.11
828.769	42.5
828.946	-20.99
829.124	196.09
829.301	153.09
829.478	30.21
829.655	58.88
829.833	62.98
830.01	32.26
830.187	71.17
830.364	140.8
830.542	105.98
830.719	91.65
830.896	153.09
831.073	71.17
831.25	95.74
831.427	171.52
831.604	67.07
831.782	44.54
831.959	97.79
832.136	26.11
832.313	120.32
832.49	50.69
832.667	85.5
832.844	32.26
833.021	99.84
833.198	99.84
833.374	71.17
833.551	67.07
833.728	48.64
833.905	62.98
834.082	62.98
834.259	153.09
834.436	138.75
834.612	75.26
834.789	75.26
834.966	112.13
835.143	95.74
835.319	65.02
835.496	3.58
835.673	167.42
835.85	136.7
836.026	36.35
836.203	71.17
836.38	58.88
836.556	46.59
836.733	89.6
836.909	120.32
837.086	42.5
837.262	153.09
837.439	79.36
837.616	75.26
837.792	99.84
837.968	124.41
838.145	54.78
838.321	122.37
838.498	46.59
838.674	62.98
838.851	71.17
839.027	73.21
839.203	30.21
839.38	130.56
839.556	71.17
839.732	108.03
839.909	87.55
840.085	112.13
840.261	-8.7
840.437	136.7
840.614	1.54
840.79	108.03
840.966	22.02
841.142	85.5
841.318	54.78
841.494	54.78
841.671	50.69
841.847	11.78
842.023	38.4
842.199	34.3
842.375	97.79
842.551	13.82
842.727	42.5
842.903	81.41
843.079	52.74
843.255	173.57
843.431	-0.51
843.607	140.8
843.783	95.74
843.959	81.41
844.134	120.32
844.31	48.64
844.486	54.78
844.662	9.73
844.838	54.78
845.013	87.55
845.189	73.21
845.365	103.93
845.541	44.54
845.716	13.82
845.892	144.89
846.068	42.5
846.244	15.87
846.419	89.6
846.595	79.36
846.77	32.26
846.946	124.41
847.122	79.36
847.297	87.55
847.473	56.83
847.648	30.21
847.824	-10.75
847.999	5.63
848.175	30.21
848.35	26.11
848.526	60.93
848.701	62.98
848.876	81.41
849.052	87.55
849.227	38.4
849.403	38.4
849.578	75.26
849.753	91.65
849.929	22.02
850.104	-61.95
850.279	81.41
850.454	177.66
850.63	22.02
850.805	120.32
850.98	54.78
851.155	13.82
851.33	32.26
851.505	-33.28
851.681	87.55
851.856	62.98
852.031	26.11
852.206	38.4
852.381	44.54
852.556	75.26
852.731	48.64
852.906	32.26
853.081	101.89
853.256	130.56
853.431	73.21
853.606	-10.75
853.781	79.36
853.956	46.59
854.131	24.06
854.305	30.21
854.48	40.45
854.655	-98.81
854.83	-12.8
855.005	9.73
855.18	108.03
855.354	40.45
855.529	46.59
855.704	-12.8
855.879	83.45
856.053	62.98
856.228	95.74
856.403	40.45
856.577	38.4
856.752	-2.56
856.926	32.26
857.101	75.26
857.276	15.87
857.45	30.21
857.625	95.74
857.799	-16.9
857.974	81.41
858.148	-43.52
858.323	40.45
858.497	52.74
858.672	40.45
858.846	-27.14
859.02	73.21
859.195	32.26
859.369	48.64
859.543	116.22
859.718	44.54
859.892	124.41
860.066	30.21
860.241	-6.66
860.415	-14.85
860.589	62.98
860.763	-20.99
860.938	-43.52
861.112	71.17
861.286	52.74
861.46	28.16
861.634	38.4
861.808	22.02
861.982	58.88
862.157	5.63
862.331	54.78
862.505	-2.56
862.679	97.79
862.853	9.73
863.027	32.26
863.201	83.45
863.375	-35.33
863.549	24.06
863.722	60.93
863.896	128.51
864.07	-10.75
864.244	73.21
864.418	34.3
864.592	73.21
864.766	36.35
864.939	42.5
865.113	-31.23
865.287	34.3
865.461	3.58
865.634	46.59
865.808	73.21
865.982	-107.01
866.156	79.36
866.329	1.54
866.503	99.84
866.676	103.93
866.85	30.21
867.024	-35.33
867.197	38.4
867.371	95.74
867.544	62.98
867.718	-4.61
867.891	54.78
868.065	26.11
868.238	62.98
868.412	-10.75
868.585	-6.66
868.759	-10.75
868.932	71.17
869.105	-25.09
869.279	144.89
869.452	155.13
869.625	-0.51
869.799	26.11
869.972	-27.14
870.145	-35.33
870.319	50.69
870.492	-0.51
870.665	22.02
870.838	46.59
871.011	5.63
871.185	38.4
871.358	73.21
871.531	97.79
871.704	5.63
871.877	50.69
872.05	48.64
872.223	97.79
872.396	-18.94
872.569	-10.75
872.742	-4.61
872.915	87.55
873.088	17.92
873.261	-25.09
873.434	17.92
873.607	54.78
873.78	-2.56
873.953	5.63
874.126	11.78
874.299	71.17
874.471	-2.56
874.644	44.54
874.817	46.59
874.99	144.89
875.163	19.97
875.335	19.97
875.508	60.93
875.681	130.56
875.853	-8.7
876.026	-4.61
876.199	87.55
876.371	30.21
876.544	26.11
876.717	54.78
876.889	-43.52
877.062	13.82
877.234	-2.56
877.407	-41.47
877.579	34.3
877.752	46.59
877.924	26.11
878.097	54.78
878.269	-2.56
878.442	-0.51
878.614	75.26
878.786	108.03
878.959	40.45
879.131	13.82
879.303	-10.75
879.476	65.02
879.648	-23.04
879.82	5.63
879.993	-12.8
880.165	7.68
880.337	58.88
880.509	65.02
880.681	-10.75
880.854	38.4
881.026	-31.23
881.198	54.78
881.37	42.5
881.542	-33.28
881.714	-2.56
881.886	34.3
882.058	46.59
882.23	105.98
882.402	13.82
882.574	38.4
882.746	32.26
882.918	46.59
883.09	38.4
883.262	9.73
883.434	67.07
883.606	7.68
883.778	7.68
883.95	62.98
884.122	-53.76
884.293	83.45
884.465	-35.33
884.637	24.06
884.809	-18.94
884.98	-2.56
885.152	99.84
885.324	62.98
885.496	13.82
885.667	-51.71
885.839	13.82
886.011	112.13
886.182	17.92
886.354	38.4
886.525	-2.56
886.697	34.3
886.869	1.54
887.04	-18.94
887.212	62.98
887.383	99.84
887.555	42.5
887.726	26.11
887.897	-18.94
888.069	17.92
888.24	71.17
888.412	-35.33
888.583	54.78
888.754	32.26
888.926	-39.42
889.097	-2.56
889.268	-2.56
889.44	73.21
889.611	22.02
889.782	7.68
889.953	-47.62
890.125	-2.56
890.296	-37.38
890.467	38.4
890.638	5.63
890.809	22.02
890.98	-68.09
891.151	22.02
891.323	83.45
891.494	-16.9
891.665	9.73
891.836	-16.9
892.007	46.59
892.178	40.45
892.349	-8.7
892.52	-59.9
892.691	17.92
892.862	56.83
893.032	-43.52
893.203	9.73
893.374	-25.09
893.545	87.55
893.716	-43.52
893.887	-0.51
894.057	-35.33
894.228	34.3
894.399	-14.85
894.57	71.17
894.74	50.69
894.911	9.73
895.082	-25.09
895.253	-14.85
895.423	-35.33
895.594	40.45
895.764	9.73
895.935	30.21
896.106	13.82
896.276	26.11
896.447	46.59
896.617	79.36
896.788	-2.56
896.958	46.59
897.129	19.97
897.299	-14.85
897.47	32.26
897.64	50.69
897.81	9.73
897.981	9.73
898.151	-10.75
898.322	26.11
898.492	42.5
898.662	-25.09
898.832	24.06
899.003	46.59
899.173	56.83
899.343	38.4
899.513	-10.75
