Data from USB4F104151__72__14-30-24-450.txt Node

Date: Thu Mar 13 14:30:24 EDT 2025
User: louis
Spectrometer: USB4F10415
Trigger mode: 4
Integration Time (sec): 2.500000E-2
Scans to average: 1
Electric dark correction enabled: true
Nonlinearity correction enabled: false
Boxcar width: 0
XAxis mode: Wavelengths
Number of Pixels in Spectrum: 3648
>>>>>Begin Spectral Data<<<<<
178.204	-79.7
178.424	-79.7
178.644	-79.7
178.864	-145.24
179.084	-145.24
179.304	75.95
179.524	4.27
179.744	-46.93
179.964	63.66
180.184	-38.74
180.404	51.37
180.624	-63.32
180.844	6.31
181.064	-44.88
181.283	-12.12
181.503	2.22
181.723	2.22
181.943	12.46
182.163	63.66
182.383	45.23
182.602	67.75
182.822	34.99
183.042	49.32
183.262	-18.26
183.482	-12.12
183.701	-20.31
183.921	6.31
184.141	26.79
184.361	104.62
184.58	53.42
184.8	34.99
185.02	53.42
185.239	94.38
185.459	26.79
185.679	102.57
185.898	-5.97
186.118	77.99
186.338	12.46
186.557	67.75
186.777	-30.55
186.997	73.9
187.216	26.79
187.436	116.9
187.655	86.19
187.875	118.95
188.095	-30.55
188.314	-18.26
188.534	-14.17
188.753	28.84
188.973	82.09
189.192	92.33
189.412	92.33
189.631	94.38
189.851	-18.26
190.07	43.18
190.29	2.22
190.509	43.18
190.729	10.41
190.948	100.52
191.168	110.76
191.387	71.85
191.607	108.71
191.826	77.99
192.045	-10.07
192.265	20.65
192.484	59.56
192.704	51.37
192.923	2.22
193.142	94.38
193.362	37.03
193.581	118.95
193.8	43.18
194.02	69.8
194.239	-1.88
194.458	75.95
194.678	41.13
194.897	67.75
195.116	-12.12
195.335	100.52
195.555	82.09
195.774	18.6
195.993	43.18
196.212	-20.31
196.432	37.03
196.651	-3.93
196.87	-20.31
197.089	166.06
197.308	51.37
197.528	51.37
197.747	37.03
197.966	53.42
198.185	149.67
198.404	4.27
198.623	69.8
198.842	137.38
199.062	75.95
199.281	55.47
199.5	39.08
199.719	16.55
199.938	-14.17
200.157	28.84
200.376	4.27
200.595	51.37
200.814	92.33
201.033	43.18
201.252	100.52
201.471	86.19
201.69	34.99
201.909	59.56
202.128	84.14
202.347	39.08
202.566	45.23
202.785	34.99
203.004	-18.26
203.223	100.52
203.442	2.22
203.661	28.84
203.879	127.14
204.098	86.19
204.317	-12.12
204.536	30.89
204.755	22.7
204.974	84.14
205.193	-20.31
205.411	123.05
205.63	51.37
205.849	34.99
206.068	59.56
206.287	49.32
206.505	37.03
206.724	92.33
206.943	4.27
207.162	86.19
207.381	92.33
207.599	-12.12
207.818	34.99
208.037	77.99
208.255	43.18
208.474	84.14
208.693	84.14
208.911	39.08
209.13	16.55
209.349	10.41
209.567	110.76
209.786	14.51
210.005	-1.88
210.223	4.27
210.442	37.03
210.661	53.42
210.879	-14.17
211.098	4.27
211.316	96.43
211.535	82.09
211.753	30.89
211.972	26.79
212.191	32.94
212.409	2.22
212.628	16.55
212.846	51.37
213.065	45.23
213.283	-18.26
213.502	43.18
213.72	75.95
213.938	18.6
214.157	28.84
214.375	55.47
214.594	-1.88
214.812	75.95
215.031	6.31
215.249	26.79
215.467	37.03
215.686	75.95
215.904	110.76
216.122	28.84
216.341	125.1
216.559	69.8
216.778	37.03
216.996	92.33
217.214	-5.97
217.432	116.9
217.651	8.36
217.869	80.04
218.087	80.04
218.306	69.8
218.524	10.41
218.742	55.47
218.96	131.24
219.179	53.42
219.397	57.51
219.615	92.33
219.833	26.79
220.051	65.71
220.27	80.04
220.488	96.43
220.706	-12.12
220.924	39.08
221.142	32.94
221.36	18.6
221.578	114.86
221.796	-14.17
222.015	94.38
222.233	45.23
222.451	34.99
222.669	30.89
222.887	51.37
223.105	-10.07
223.323	-22.36
223.541	22.7
223.759	51.37
223.977	67.75
224.195	98.47
224.413	100.52
224.631	84.14
224.849	30.89
225.067	129.19
225.285	84.14
225.503	-38.74
225.721	-1.88
225.939	59.56
226.157	51.37
226.375	75.95
226.592	-36.69
226.81	-5.97
227.028	47.27
227.246	61.61
227.464	47.27
227.682	20.65
227.9	14.51
228.117	59.56
228.335	43.18
228.553	82.09
228.771	51.37
228.989	51.37
229.206	55.47
229.424	18.6
229.642	26.79
229.86	53.42
230.077	51.37
230.295	80.04
230.513	108.71
230.731	73.9
230.948	41.13
231.166	53.42
231.384	14.51
231.601	53.42
231.819	125.1
232.037	59.56
232.254	-18.26
232.472	28.84
232.689	8.36
232.907	82.09
233.125	104.62
233.342	-44.88
233.56	-59.22
233.777	34.99
233.995	8.36
234.213	75.95
234.43	69.8
234.648	121
234.865	39.08
235.083	157.86
235.3	4.27
235.518	69.8
235.735	63.66
235.953	94.38
236.17	108.71
236.388	37.03
236.605	10.41
236.822	110.76
237.04	123.05
237.257	20.65
237.475	-22.36
237.692	125.1
237.909	26.79
238.127	77.99
238.344	51.37
238.562	-75.6
238.779	-51.03
238.996	4.27
239.214	77.99
239.431	67.75
239.648	30.89
239.865	92.33
240.083	34.99
240.3	51.37
240.517	16.55
240.735	22.7
240.952	92.33
241.169	100.52
241.386	92.33
241.603	34.99
241.821	88.23
242.038	90.28
242.255	34.99
242.472	-28.5
242.689	45.23
242.907	92.33
243.124	12.46
243.341	51.37
243.558	-22.36
243.775	24.75
243.992	10.41
244.209	75.95
244.426	125.1
244.643	10.41
244.86	30.89
245.078	12.46
245.295	16.55
245.512	-36.69
245.729	0.17
245.946	4.27
246.163	10.41
246.38	26.79
246.597	65.71
246.814	57.51
247.031	41.13
247.248	67.75
247.464	43.18
247.681	80.04
247.898	55.47
248.115	92.33
248.332	61.61
248.549	106.67
248.766	110.76
248.983	-14.17
249.2	6.31
249.417	77.99
249.633	8.36
249.85	67.75
250.067	67.75
250.284	67.75
250.501	92.33
250.717	75.95
250.934	4.27
251.151	112.81
251.368	12.46
251.585	92.33
251.801	34.99
252.018	67.75
252.235	77.99
252.451	10.41
252.668	69.8
252.885	59.56
253.102	-53.08
253.318	6.31
253.535	18.6
253.752	14.51
253.968	18.6
254.185	-30.55
254.401	10.41
254.618	92.33
254.835	28.84
255.051	116.9
255.268	14.51
255.484	47.27
255.701	47.27
255.917	53.42
256.134	-18.26
256.351	86.19
256.567	22.7
256.784	10.41
257	63.66
257.217	108.71
257.433	51.37
257.65	73.9
257.866	104.62
258.082	-14.17
258.299	34.99
258.515	80.04
258.732	2.22
258.948	34.99
259.165	61.61
259.381	-5.97
259.597	71.85
259.814	75.95
260.03	-8.02
260.246	94.38
260.463	53.42
260.679	129.19
260.895	69.8
261.112	47.27
261.328	16.55
261.544	26.79
261.761	153.77
261.977	61.61
262.193	10.41
262.409	18.6
262.626	-3.93
262.842	55.47
263.058	67.75
263.274	67.75
263.49	61.61
263.707	18.6
263.923	53.42
264.139	59.56
264.355	67.75
264.571	-8.02
264.787	26.79
265.004	80.04
265.22	71.85
265.436	37.03
265.652	30.89
265.868	43.18
266.084	12.46
266.3	18.6
266.516	14.51
266.732	-5.97
266.948	75.95
267.164	75.95
267.38	194.73
267.596	-5.97
267.812	22.7
268.028	84.14
268.244	-14.17
268.46	32.94
268.676	18.6
268.892	104.62
269.108	2.22
269.324	118.95
269.54	12.46
269.756	45.23
269.972	-5.97
270.188	84.14
270.403	-18.26
270.619	10.41
270.835	67.75
271.051	-46.93
271.267	55.47
271.483	-69.46
271.698	88.23
271.914	28.84
272.13	8.36
272.346	75.95
272.562	18.6
272.777	84.14
272.993	55.47
273.209	-12.12
273.425	108.71
273.64	-30.55
273.856	86.19
274.072	41.13
274.287	112.81
274.503	82.09
274.719	77.99
274.934	-3.93
275.15	45.23
275.366	51.37
275.581	69.8
275.797	37.03
276.012	-22.36
276.228	80.04
276.444	67.75
276.659	67.75
276.875	6.31
277.09	8.36
277.306	37.03
277.521	104.62
277.737	34.99
277.952	84.14
278.168	94.38
278.383	63.66
278.599	123.05
278.814	86.19
279.03	6.31
279.245	65.71
279.461	14.51
279.676	108.71
279.892	-5.97
280.107	4.27
280.322	28.84
280.538	82.09
280.753	10.41
280.969	28.84
281.184	20.65
281.399	94.38
281.615	75.95
281.83	92.33
282.045	-30.55
282.26	-22.36
282.476	-44.88
282.691	-26.45
282.906	147.62
283.122	0.17
283.337	-18.26
283.552	59.56
283.767	34.99
283.983	22.7
284.198	53.42
284.413	51.37
284.628	26.79
284.843	-14.17
285.058	55.47
285.274	94.38
285.489	24.75
285.704	32.94
285.919	12.46
286.134	-18.26
286.349	75.95
286.564	59.56
286.779	125.1
286.995	34.99
287.21	10.41
287.425	14.51
287.64	-8.02
287.855	108.71
288.07	-5.97
288.285	45.23
288.5	129.19
288.715	2.22
288.93	53.42
289.145	-20.31
289.36	26.79
289.575	28.84
289.79	92.33
290.004	-30.55
290.219	108.71
290.434	-12.12
290.649	-10.07
290.864	32.94
291.079	34.99
291.294	-22.36
291.509	49.32
291.724	67.75
291.938	8.36
292.153	47.27
292.368	88.23
292.583	14.51
292.798	141.48
293.012	49.32
293.227	116.9
293.442	34.99
293.657	30.89
293.871	18.6
294.086	-12.12
294.301	143.53
294.516	45.23
294.73	127.14
294.945	75.95
295.16	63.66
295.374	86.19
295.589	100.52
295.804	34.99
296.018	37.03
296.233	77.99
296.447	18.6
296.662	2.22
296.877	102.57
297.091	22.7
297.306	39.08
297.52	53.42
297.735	4.27
297.949	63.66
298.164	116.9
298.378	43.18
298.593	129.19
298.807	53.42
299.022	20.65
299.236	67.75
299.451	24.75
299.665	55.47
299.88	43.18
300.094	75.95
300.309	45.23
300.523	108.71
300.737	-22.36
300.952	45.23
301.166	129.19
301.381	10.41
301.595	30.89
301.809	16.55
302.024	118.95
302.238	30.89
302.452	108.71
302.667	34.99
302.881	34.99
303.095	26.79
303.309	90.28
303.524	26.79
303.738	53.42
303.952	2.22
304.166	80.04
304.381	34.99
304.595	84.14
304.809	-14.17
305.023	57.51
305.237	34.99
305.452	84.14
305.666	104.62
305.88	14.51
306.094	67.75
306.308	110.76
306.522	73.9
306.736	86.19
306.95	100.52
307.164	14.51
307.379	-69.46
307.593	67.75
307.807	125.1
308.021	67.75
308.235	121
308.449	-16.21
308.663	75.95
308.877	137.38
309.091	-16.21
309.305	108.71
309.519	-106.32
309.733	96.43
309.947	4.27
310.161	20.65
310.374	61.61
310.588	106.67
310.802	-48.98
311.016	-3.93
311.23	71.85
311.444	86.19
311.658	14.51
311.872	84.14
312.085	37.03
312.299	53.42
312.513	75.95
312.727	18.6
312.941	-30.55
313.154	84.14
313.368	16.55
313.582	114.86
313.796	14.51
314.009	2.22
314.223	92.33
314.437	69.8
314.651	114.86
314.864	6.31
315.078	20.65
315.292	-36.69
315.505	43.18
315.719	63.66
315.933	63.66
316.146	22.7
316.36	-32.6
316.573	-3.93
316.787	28.84
317.001	53.42
317.214	18.6
317.428	118.95
317.641	-36.69
317.855	45.23
318.068	26.79
318.282	84.14
318.495	67.75
318.709	67.75
318.922	-26.45
319.136	133.29
319.349	59.56
319.563	34.99
319.776	-1.88
319.99	47.27
320.203	69.8
320.417	18.6
320.63	55.47
320.843	71.85
321.057	94.38
321.27	22.7
321.483	30.89
321.697	98.47
321.91	30.89
322.124	26.79
322.337	75.95
322.55	51.37
322.763	100.52
322.977	55.47
323.19	-3.93
323.403	37.03
323.617	2.22
323.83	82.09
324.043	8.36
324.256	75.95
324.469	-5.97
324.683	51.37
324.896	24.75
325.109	20.65
325.322	4.27
325.535	75.95
325.748	86.19
325.962	30.89
326.175	-20.31
326.388	141.48
326.601	65.71
326.814	32.94
327.027	53.42
327.24	112.81
327.453	-67.41
327.666	39.08
327.879	34.99
328.092	80.04
328.305	114.86
328.518	67.75
328.731	34.99
328.944	77.99
329.157	116.9
329.37	69.8
329.583	45.23
329.796	90.28
330.009	55.47
330.222	-12.12
330.435	116.9
330.648	71.85
330.861	-24.4
331.073	67.75
331.286	100.52
331.499	86.19
331.712	43.18
331.925	82.09
332.138	61.61
332.35	104.62
332.563	88.23
332.776	100.52
332.989	-12.12
333.202	71.85
333.414	104.62
333.627	-12.12
333.84	133.29
334.053	71.85
334.265	77.99
334.478	22.7
334.691	45.23
334.903	43.18
335.116	80.04
335.329	71.85
335.541	59.56
335.754	88.23
335.966	61.61
336.179	77.99
336.392	45.23
336.604	75.95
336.817	49.32
337.029	141.48
337.242	55.47
337.454	59.56
337.667	102.57
337.88	145.58
338.092	118.95
338.305	108.71
338.517	37.03
338.729	26.79
338.942	32.94
339.154	28.84
339.367	-63.32
339.579	-8.02
339.792	88.23
340.004	75.95
340.217	63.66
340.429	34.99
340.641	-3.93
340.854	-71.51
341.066	20.65
341.278	61.61
341.491	129.19
341.703	6.31
341.915	53.42
342.128	108.71
342.34	-1.88
342.552	-16.21
342.764	47.27
342.977	22.7
343.189	55.47
343.401	71.85
343.613	-14.17
343.826	110.76
344.038	14.51
344.25	108.71
344.462	-20.31
344.674	59.56
344.886	10.41
345.099	125.1
345.311	61.61
345.523	53.42
345.735	-38.74
345.947	10.41
346.159	4.27
346.371	37.03
346.583	100.52
346.795	86.19
347.007	30.89
347.219	41.13
347.431	-67.41
347.643	80.04
347.855	53.42
348.067	28.84
348.279	61.61
348.491	55.47
348.703	-1.88
348.915	-5.97
349.127	6.31
349.339	104.62
349.551	-61.27
349.763	139.43
349.975	92.33
350.187	151.72
350.399	67.75
350.61	30.89
350.822	-32.6
351.034	80.04
351.246	-34.64
351.458	92.33
351.669	94.38
351.881	92.33
352.093	69.8
352.305	69.8
352.517	43.18
352.728	71.85
352.94	12.46
353.152	141.48
353.363	39.08
353.575	43.18
353.787	143.53
353.999	4.27
354.21	108.71
354.422	51.37
354.633	37.03
354.845	37.03
355.057	96.43
355.268	34.99
355.48	63.66
355.692	-18.26
355.903	73.9
356.115	28.84
356.326	10.41
356.538	161.96
356.749	67.75
356.961	75.95
357.172	55.47
357.384	69.8
357.595	-14.17
357.807	47.27
358.018	67.75
358.23	84.14
358.441	69.8
358.653	100.52
358.864	43.18
359.075	69.8
359.287	47.27
359.498	112.81
359.709	67.75
359.921	45.23
360.132	43.18
360.344	10.41
360.555	2.22
360.766	59.56
360.977	43.18
361.189	84.14
361.4	20.65
361.611	100.52
361.823	176.3
362.034	108.71
362.245	-12.12
362.456	88.23
362.667	86.19
362.879	61.61
363.09	24.75
363.301	53.42
363.512	43.18
363.723	75.95
363.935	10.41
364.146	170.15
364.357	18.6
364.568	77.99
364.779	-1.88
364.99	18.6
365.201	75.95
365.412	143.53
365.623	55.47
365.834	112.81
366.045	102.57
366.256	108.71
366.467	51.37
366.678	90.28
366.889	59.56
367.1	86.19
367.311	22.7
367.522	106.67
367.733	59.56
367.944	94.38
368.155	51.37
368.366	63.66
368.577	30.89
368.788	26.79
368.999	59.56
369.209	88.23
369.42	86.19
369.631	121
369.842	18.6
370.053	102.57
370.264	125.1
370.474	18.6
370.685	118.95
370.896	69.8
371.107	100.52
371.317	4.27
371.528	100.52
371.739	121
371.95	80.04
372.16	155.82
372.371	-10.07
372.582	51.37
372.792	71.85
373.003	133.29
373.214	127.14
373.424	24.75
373.635	34.99
373.846	116.9
374.056	94.38
374.267	47.27
374.477	108.71
374.688	37.03
374.898	-30.55
375.109	26.79
375.319	69.8
375.53	137.38
375.74	55.47
375.951	26.79
376.161	143.53
376.372	84.14
376.582	90.28
376.793	116.9
377.003	26.79
377.214	22.7
377.424	59.56
377.635	67.75
377.845	-34.64
378.055	100.52
378.266	14.51
378.476	112.81
378.686	129.19
378.897	59.56
379.107	39.08
379.317	57.51
379.528	45.23
379.738	123.05
379.948	41.13
380.158	145.58
380.369	96.43
380.579	190.63
380.789	125.1
380.999	53.42
381.21	67.75
381.42	127.14
381.63	59.56
381.84	61.61
382.05	-1.88
382.261	100.52
382.471	151.72
382.681	43.18
382.891	123.05
383.101	84.14
383.311	39.08
383.521	26.79
383.731	71.85
383.941	51.37
384.151	20.65
384.361	116.9
384.571	71.85
384.781	88.23
384.991	133.29
385.201	73.9
385.411	92.33
385.621	67.75
385.831	75.95
386.041	88.23
386.251	43.18
386.461	67.75
386.671	47.27
386.881	63.66
387.091	2.22
387.301	86.19
387.511	108.71
387.72	102.57
387.93	104.62
388.14	121
388.35	96.43
388.56	86.19
388.769	100.52
388.979	53.42
389.189	-22.36
389.399	51.37
389.609	84.14
389.818	147.62
390.028	84.14
390.238	69.8
390.447	37.03
390.657	37.03
390.867	2.22
391.076	59.56
391.286	98.47
391.496	53.42
391.705	43.18
391.915	53.42
392.125	116.9
392.334	24.75
392.544	59.56
392.753	51.37
392.963	-18.26
393.172	116.9
393.382	37.03
393.591	141.48
393.801	71.85
394.01	121
394.22	133.29
394.429	116.9
394.639	32.94
394.848	137.38
395.058	108.71
395.267	102.57
395.477	123.05
395.686	43.18
395.895	184.49
396.105	118.95
396.314	125.1
396.524	151.72
396.733	98.47
396.942	127.14
397.152	149.67
397.361	149.67
397.57	86.19
397.78	129.19
397.989	176.3
398.198	231.59
398.407	86.19
398.617	190.63
398.826	135.34
399.035	116.9
399.244	133.29
399.453	92.33
399.663	71.85
399.872	166.06
400.081	108.71
400.29	190.63
400.499	63.66
400.708	159.91
400.917	127.14
401.127	159.91
401.336	143.53
401.545	149.67
401.754	207.02
401.963	129.19
402.172	118.95
402.381	112.81
402.59	149.67
402.799	137.38
403.008	157.86
403.217	121
403.426	186.54
403.635	100.52
403.844	110.76
404.053	98.47
404.262	157.86
404.471	260.26
404.68	182.44
404.888	172.2
405.097	110.76
405.306	116.9
405.515	157.86
405.724	247.97
405.933	174.25
406.142	125.1
406.35	215.21
406.559	247.97
406.768	219.3
406.977	200.87
407.185	272.55
407.394	266.41
407.603	170.15
407.812	264.36
408.02	266.41
408.229	268.45
408.438	282.79
408.646	288.93
408.855	278.69
409.064	295.08
409.272	331.94
409.481	346.28
409.69	268.45
409.898	297.13
410.107	338.09
410.315	338.09
410.524	372.9
410.733	460.96
410.941	430.24
411.15	397.48
411.358	356.52
411.567	489.64
411.775	473.25
411.984	518.31
412.192	477.35
412.401	432.29
412.609	626.85
412.818	559.27
413.026	536.74
413.234	602.27
413.443	708.77
413.651	678.05
413.86	682.14
414.068	649.38
414.276	712.86
414.485	682.14
414.693	749.73
414.901	841.89
415.11	700.58
415.318	780.45
415.526	884.89
415.734	995.48
415.943	972.96
416.151	944.28
416.359	995.48
416.567	1044.63
416.776	1095.83
416.984	1153.18
417.192	1118.36
417.4	1083.55
417.608	1132.7
417.817	1101.98
418.025	1319.06
418.233	1470.61
418.441	1304.73
418.649	1417.37
418.857	1599.63
419.065	1419.41
419.273	1411.22
419.481	1536.15
419.689	1675.41
419.897	1616.02
420.105	1734.8
420.313	1822.86
420.521	1929.36
420.729	1861.77
420.937	2017.42
421.145	2009.23
421.353	2128.01
421.561	2230.41
421.769	2306.18
421.977	2332.81
422.185	2322.57
422.393	2357.38
422.601	2586.76
422.809	2623.62
423.017	2680.96
423.224	2760.83
423.432	2779.26
423.64	2875.52
423.848	3035.26
424.056	3018.88
424.263	3248.25
424.471	3201.15
424.679	3270.78
424.887	3340.41
425.094	3719.28
425.302	3637.36
425.51	3721.33
425.718	3870.83
425.925	3874.93
426.133	3930.22
426.341	4161.64
426.548	4376.68
426.756	4438.12
426.964	4425.83
427.171	4819.04
427.379	4950.11
427.586	5052.51
427.794	5058.65
428.001	5328.99
428.209	5558.36
428.417	5435.48
428.624	5908.56
428.832	5785.68
429.039	5941.33
429.247	6015.05
429.454	6438.98
429.662	6781
429.869	6279.24
430.076	6797.38
430.284	6668.36
430.491	7082.05
430.699	7309.37
430.906	7467.06
431.114	7436.35
431.321	7622.71
431.528	8091.7
431.736	8378.41
431.943	8874.02
432.15	8439.85
432.358	8685.61
432.565	9091.1
432.772	9021.47
432.979	9486.36
433.187	9580.57
433.394	9629.72
433.601	10235.92
433.808	10125.33
434.016	10119.18
434.223	10657.8
434.43	11374.59
434.637	11053.06
434.844	11905.01
435.052	11847.67
435.259	11857.91
435.466	11997.17
435.673	11952.12
435.88	12752.87
436.087	13275.1
436.294	13324.26
436.501	13209.57
436.708	13094.88
436.915	13864.92
437.122	14235.6
437.329	14069.72
437.537	14804.94
437.743	15128.52
437.95	14809.03
438.157	15310.79
438.364	16193.46
438.571	16062.39
438.778	16146.36
438.985	17696.67
439.192	16777.13
439.399	17657.76
439.606	17188.77
439.813	18134.93
440.02	18980.75
440.227	18730.89
440.433	18571.15
440.64	19355.52
440.847	19013.51
441.054	19419.01
441.261	20791.15
441.467	20551.54
441.674	20918.12
441.881	21786.46
442.088	21501.79
442.294	21536.61
442.501	21913.44
442.708	22419.28
442.914	23365.45
443.121	24612.66
443.328	23596.87
443.534	25286.44
443.741	24371
443.948	24229.69
444.154	26179.36
444.361	25845.54
444.568	25732.9
444.774	25976.61
444.981	26285.85
445.187	26926.86
445.394	28159.74
445.6	27668.23
445.807	30813.91
446.013	29239.02
446.22	29875.94
446.426	30752.47
446.633	30926.55
446.839	31981.25
447.046	30482.14
447.252	32702.14
447.459	32403.13
447.665	32292.54
447.871	34119.33
448.078	35188.37
448.284	33668.78
448.491	34385.57
448.697	36120.2
448.903	36347.52
449.11	36359.81
449.316	36081.28
449.522	36796.03
449.728	37541.49
449.935	37752.43
450.141	37881.45
450.347	38934.1
450.553	37434.99
450.76	38297.19
450.966	39343.7
451.172	38678.11
451.378	39611.98
451.584	38751.84
451.791	39818.83
451.997	39958.09
452.203	40359.49
452.409	40472.13
452.615	39919.18
452.821	39022.17
453.027	38512.22
453.233	40377.92
453.44	38792.79
453.646	39003.74
453.852	39124.57
454.058	39593.55
454.264	38544.99
454.47	39149.14
454.676	38555.23
454.882	39683.66
455.088	36017.8
455.294	36937.34
455.5	37332.59
455.705	37973.61
455.911	36175.49
456.117	35327.63
456.323	35092.12
456.529	33423.02
456.735	34586.27
456.941	33437.36
457.147	33066.67
457.352	32272.06
457.558	31780.55
457.764	31801.03
457.97	31106.77
458.176	30246.62
458.381	30525.14
458.587	29011.7
458.793	29003.5
458.999	27383.56
459.204	29431.53
459.41	28833.52
459.616	26674.96
459.821	26763.03
460.027	26726.16
460.233	25986.85
460.438	25249.58
460.644	25251.63
460.85	23840.57
461.055	23834.43
461.261	23504.71
461.466	21657.44
461.672	21063.53
461.878	22619.99
462.083	21292.9
462.289	20569.97
462.494	20432.75
462.7	19476.35
462.905	19074.95
463.111	19462.02
463.316	19627.9
463.522	19462.02
463.727	19367.81
463.932	19130.25
464.138	18851.72
464.343	19068.81
464.549	18409.36
464.754	19208.07
464.959	18993.03
465.165	18632.59
465.37	17950.62
465.575	17655.71
465.781	18010.01
465.986	18141.08
466.191	17387.43
466.397	17016.74
466.602	16412.59
466.807	17217.44
467.012	16877.48
467.218	16879.53
467.423	16519.09
467.628	16760.75
467.833	17362.85
468.038	16545.71
468.244	16256.95
468.449	16805.8
468.654	16234.42
468.859	16207.8
469.064	16349.11
469.269	15628.22
469.474	15574.97
469.679	15984.57
469.885	15429.57
470.09	15529.92
470.295	15374.27
470.5	15159.24
470.705	15359.94
470.91	14809.03
471.115	14710.73
471.32	14993.35
471.525	15026.12
471.73	14516.17
471.935	14387.15
472.139	14075.86
472.344	13938.65
472.549	13912.02
472.754	13746.14
472.959	13228
473.164	13160.42
473.369	13117.41
473.574	13510.62
473.778	13332.45
473.983	13336.54
474.188	13266.91
474.393	12576.75
474.598	12885.99
474.802	12691.43
475.007	12613.61
475.212	12523.5
475.417	11655.16
475.621	11945.97
475.826	12077.04
476.031	11683.83
476.235	11563
476.44	11784.18
476.645	11352.06
476.849	11565.05
477.054	11382.78
477.259	11180.03
477.463	11323.39
477.668	10977.28
477.872	10981.38
478.077	10768.39
478.282	10577.93
478.486	10565.64
478.691	10444.81
478.895	10465.29
479.1	10512.39
479.304	10500.11
479.509	10104.85
479.713	10235.92
479.918	9984.02
480.122	9857.04
480.326	10115.09
480.531	9965.59
480.735	9922.58
480.94	9713.69
481.144	10164.24
481.348	9658.39
481.553	9859.09
481.757	9594.9
481.961	9893.91
482.166	9621.53
482.37	9703.45
482.574	9619.48
482.778	9635.86
482.983	9867.28
483.187	9725.97
483.391	9715.73
483.595	9504.79
483.8	9402.4
484.004	9478.17
484.208	9463.83
484.412	9441.31
484.616	9521.18
484.821	9685.01
485.025	9549.85
485.229	9525.27
485.433	9392.16
485.637	9558.04
485.841	9275.42
486.045	9353.24
486.249	9562.14
486.453	9523.23
486.657	9555.99
486.861	9504.79
487.065	9359.39
487.269	9304.09
487.473	9220.13
487.677	9545.75
487.881	9488.41
488.085	9158.69
488.289	9496.6
488.493	9625.62
488.697	9443.35
488.901	9426.97
489.105	9267.23
489.309	9402.4
489.512	9408.54
489.716	9685.01
489.92	9381.92
490.124	9433.11
490.328	9629.72
490.531	9594.9
490.735	9482.27
490.939	9607.19
491.143	9314.33
491.346	9392.16
491.55	9580.57
491.754	9676.82
491.958	9846.8
492.161	9558.04
492.365	9771.03
492.569	9652.25
492.772	9678.87
492.976	9881.62
493.18	10029.07
493.383	9961.49
493.587	9889.81
493.79	10102.8
493.994	9920.53
494.197	10119.18
494.401	10192.91
494.605	10110.99
494.808	10340.36
495.012	10334.22
495.215	10373.13
495.419	10422.28
495.622	10432.52
495.825	10549.26
496.029	10545.16
496.232	10762.25
496.436	10668.04
496.639	11124.74
496.843	10792.97
497.046	11085.83
497.249	11190.27
497.453	11153.41
497.656	11421.69
497.859	11280.38
498.063	11524.09
498.266	11837.43
498.469	11706.36
498.673	11845.62
498.876	11968.5
499.079	11995.12
499.282	11890.68
499.485	12396.53
499.689	12179.44
499.892	12392.43
500.095	12564.46
500.298	12965.86
500.501	12621.8
500.705	12799.98
500.908	12978.15
501.111	13232.1
501.314	13260.77
501.517	13432.8
501.72	13690.84
501.923	13643.74
502.126	13649.88
502.329	14010.32
502.532	14092.24
502.735	14202.83
502.938	14346.19
503.141	14397.39
503.344	14591.95
503.547	14542.8
503.75	14823.37
503.953	15194.05
504.156	15091.65
504.359	15398.85
504.562	15568.83
504.765	15847.35
504.968	15679.42
505.17	16013.24
505.373	16050.1
505.576	16189.36
505.779	16465.84
505.982	16545.71
506.185	16947.11
506.387	16848.81
506.59	16869.29
506.793	17313.7
506.996	17299.36
507.198	17866.65
507.401	17657.76
507.604	17868.7
507.807	18257.81
508.009	18278.29
508.212	18689.93
508.415	18700.17
508.617	18792.33
508.82	18943.88
509.022	19265.41
509.225	19263.36
509.428	19668.86
509.63	19529.6
509.833	19742.59
510.035	20303.73
510.238	20270.97
510.44	20473.71
510.643	20655.98
510.845	20899.69
511.048	20897.64
511.25	21045.1
511.453	21290.85
511.655	21923.68
511.858	22054.75
512.06	22087.51
512.262	22263.64
512.465	22021.98
512.667	22447.96
512.87	22910.8
513.072	22671.18
513.274	23197.51
513.477	23443.27
513.679	23754.56
513.881	23760.7
514.084	24325.94
514.286	24174.39
514.488	24446.77
514.69	24954.67
514.893	24915.76
515.095	25001.77
515.297	25734.95
515.499	25472.81
515.701	25941.79
515.904	25925.41
516.106	26365.72
516.308	26730.26
516.51	26744.59
516.712	26838.8
516.914	26965.78
517.116	27240.2
517.318	27666.18
517.52	27612.93
517.722	27590.41
517.925	28106.49
518.127	28471.03
518.329	28657.4
518.531	28188.41
518.733	29048.56
518.935	29325.04
519.136	28903.15
519.338	29603.56
519.54	29525.74
519.742	30039.78
519.944	29853.41
520.146	30344.92
520.348	30559.96
520.55	30449.37
520.752	30265.05
520.954	31002.32
521.155	30719.7
521.357	31571.66
521.559	31291.09
521.761	31817.41
521.963	31762.12
522.164	31790.79
522.366	31946.44
522.568	32014.02
522.77	32282.3
522.971	32816.82
523.173	32585.4
523.375	32790.2
523.576	33201.84
523.778	32775.86
523.98	33216.18
524.181	33173.17
524.383	33181.36
524.584	33765.03
524.786	33343.15
524.988	33357.49
525.189	33652.39
525.391	33855.14
525.592	33744.55
525.794	34041.51
525.995	34176.67
526.197	33955.49
526.398	34313.89
526.6	34256.54
526.801	34078.37
527.003	34434.72
527.204	34211.49
527.406	34764.44
527.607	34588.31
527.808	34768.54
528.01	34297.5
528.211	34023.08
528.412	35284.62
528.614	34764.44
528.815	34721.43
529.016	34754.2
529.218	34115.23
529.419	34393.76
529.62	34422.43
529.822	34164.39
530.023	34354.85
530.224	34471.58
530.425	34322.08
530.626	34240.16
530.828	33918.63
531.029	34959
531.23	33947.3
531.431	34121.38
531.632	34322.08
531.833	34274.98
532.035	34264.74
532.236	34416.29
532.437	34191.01
532.638	34125.47
532.839	34121.38
533.04	34444.96
533.241	33683.11
533.442	34547.36
533.643	34533.02
533.844	33990.31
534.045	33777.32
534.246	33666.73
534.447	33885.86
534.648	33560.23
534.849	33517.23
535.05	33353.39
535.251	33431.21
535.451	33617.58
535.652	33726.12
535.853	33355.44
536.054	33337.01
536.255	33457.84
536.456	33220.27
536.657	33689.26
536.857	33314.48
537.058	32736.95
537.259	33269.42
537.46	33062.58
537.66	33224.37
537.861	32685.75
538.062	33263.28
538.263	33189.55
538.463	32925.36
538.664	32695.99
538.865	33017.52
539.065	32718.52
539.266	32335.55
539.466	32884.4
539.667	32128.7
539.868	32937.65
540.068	32562.87
540.269	32583.35
540.469	32773.81
540.67	32382.65
540.87	32339.65
541.071	32542.39
541.271	32571.07
541.472	32202.43
541.672	32380.6
541.873	32190.14
542.073	31899.33
542.274	32458.43
542.474	32218.82
542.675	31907.52
542.875	32706.23
543.075	31831.75
543.276	31522.51
543.476	32497.34
543.676	32157.38
543.877	32165.57
544.077	32206.53
544.277	32184
544.478	32063.17
544.678	32204.48
544.878	32083.65
545.078	32089.79
545.279	31821.51
545.479	32091.84
545.679	32220.86
545.879	31923.91
546.079	32044.74
546.28	31868.61
546.48	32048.83
546.68	31827.65
546.88	32167.62
547.08	31762.12
547.28	31964.87
547.48	31973.06
547.68	32138.94
547.88	31645.38
548.081	32157.38
548.281	32290.49
548.481	31932.1
548.681	31817.41
548.881	32059.07
549.081	31762.12
549.28	31948.48
549.48	32184
549.68	32052.93
549.88	32345.79
550.08	31733.45
550.28	31966.91
550.48	31551.18
550.68	32421.56
550.88	31862.47
551.08	32292.54
551.279	32382.65
551.479	31856.32
551.679	32356.03
551.879	32147.14
552.079	32519.87
552.278	32243.39
552.478	32095.94
552.678	32034.5
552.878	32485.05
553.077	32009.92
553.277	32171.71
553.477	32714.42
553.676	32288.45
553.876	32278.21
554.076	32302.78
554.275	32362.17
554.475	32435.9
554.674	32394.94
554.874	32280.25
555.074	32282.3
555.273	32669.37
555.473	32579.26
555.672	32669.37
555.872	32640.7
556.071	32814.77
556.271	32865.97
556.47	32435.9
556.67	32573.11
556.869	32632.5
557.068	32800.44
557.268	32413.37
557.467	32650.94
557.667	32239.29
557.866	32419.52
558.065	32734.9
558.265	32423.61
558.464	32693.94
558.663	33031.86
558.863	32124.61
559.062	32853.69
559.261	32407.23
559.461	33347.25
559.66	32335.55
559.859	32374.46
560.058	32440
560.258	32736.95
560.457	32423.61
560.656	32695.99
560.855	32331.45
561.054	32382.65
561.253	32480.96
561.453	32562.87
561.652	32679.61
561.851	33040.05
562.05	32573.11
562.249	32442.04
562.448	32779.96
562.647	32667.32
562.846	32720.57
563.045	32763.57
563.244	32288.45
563.443	32427.71
563.642	32493.24
563.841	32675.51
564.04	32145.09
564.239	32927.41
564.438	32165.57
564.637	32300.73
564.836	32566.97
565.035	31995.59
565.234	32159.42
565.432	32102.08
565.631	32239.29
565.83	32249.53
566.029	32057.03
566.228	32175.81
566.427	32143.04
566.625	31973.06
566.824	31610.57
567.023	31989.44
567.222	31362.76
567.42	32261.82
567.619	31796.93
567.818	31667.91
568.016	31852.23
568.215	31610.57
568.414	31672.01
568.612	31583.94
568.811	31254.22
569.01	31542.99
569.208	31133.39
569.407	31526.6
569.605	31053.52
569.804	31401.68
570.002	30904.02
570.201	31260.37
570.4	30693.08
570.598	30490.33
570.797	30615.26
570.995	30889.68
571.193	30338.78
571.392	31014.61
571.59	30183.13
571.789	30559.96
571.987	29994.72
572.186	30213.85
572.384	30043.87
572.582	30033.63
572.781	30078.69
572.979	29787.88
573.177	30060.26
573.376	29918.95
573.574	29384.43
573.772	30105.31
573.971	29728.49
574.169	29517.54
574.367	29284.08
574.565	29689.57
574.763	29099.76
574.962	29486.82
575.16	28854
575.358	28663.54
575.556	28974.83
575.754	29087.47
575.952	28350.2
576.151	29146.86
576.349	28722.93
576.547	28309.24
576.745	28456.7
576.943	28448.5
577.141	28075.77
577.339	28292.86
577.537	27754.24
577.735	28045.05
577.933	27832.07
578.131	28079.87
578.329	28051.2
578.527	27363.08
578.725	27514.63
578.923	27645.7
579.121	27463.43
579.319	27365.13
579.516	27541.25
579.714	27430.66
579.912	27176.72
580.11	27264.78
580.308	27195.15
580.506	27246.35
580.704	26902.29
580.901	27088.65
581.099	26846.99
581.297	26537.75
581.495	26597.14
581.692	26560.28
581.89	26236.7
582.088	26490.65
582.285	26312.47
582.483	26322.71
582.681	26134.3
582.878	26246.94
583.076	25921.31
583.274	26146.59
583.471	25911.07
583.669	26011.42
583.866	25939.74
584.064	26064.67
584.262	25503.53
584.459	25968.41
584.657	25499.43
584.854	25892.64
585.052	25411.37
585.249	25564.96
585.447	25255.72
585.644	25077.55
585.841	25282.34
586.039	25489.19
586.236	25030.44
586.434	24903.47
586.631	24921.9
586.828	24971.05
587.026	24989.49
587.223	24502.07
587.42	24811.31
587.618	24907.57
587.815	24686.39
588.012	24563.51
588.21	24571.7
588.407	24723.25
588.604	24438.58
588.801	24115
588.999	24547.12
589.196	24502.07
589.393	24340.28
589.59	24479.54
589.787	24059.71
589.984	24121.15
590.182	23521.09
590.379	24246.07
590.576	23985.98
590.773	23969.6
590.97	23887.68
591.167	24016.7
591.364	23756.61
591.561	24043.32
591.758	23596.87
591.955	23676.74
592.152	23586.63
592.349	23797.57
592.546	23570.24
592.743	23478.08
592.94	23299.91
593.137	23523.14
593.334	23742.27
593.531	23172.94
593.727	23684.93
593.924	23437.13
594.121	23261
594.318	23441.22
594.515	23381.83
594.712	23451.46
594.908	22847.31
595.105	23398.21
595.302	23062.35
595.499	23328.58
595.696	23201.61
595.892	23162.7
596.089	23168.84
596.286	23291.72
596.482	22941.52
596.679	23459.65
596.876	23062.35
597.072	22970.19
597.269	23191.37
597.466	22824.78
597.662	23136.07
597.859	23117.64
598.055	22916.94
598.252	22701.9
598.448	22806.35
598.645	22933.32
598.841	22619.99
599.038	23095.11
599.234	23084.87
599.431	23072.59
599.627	23080.78
599.824	23156.55
600.02	23283.53
600.217	23357.25
600.413	23160.65
600.609	23086.92
600.806	23246.66
601.002	23297.86
601.198	23418.69
601.395	23275.34
601.591	23480.13
601.787	23148.36
601.984	23129.93
602.18	23461.7
602.376	23420.74
602.572	23242.57
602.769	23568.2
602.965	23144.27
603.161	23430.98
603.357	23256.9
603.553	23576.39
603.75	23142.22
603.946	23531.33
604.142	23598.91
604.338	23232.33
604.534	23365.45
604.73	23242.57
604.926	23484.23
605.122	23799.62
605.318	23678.79
605.514	23734.08
605.71	23891.77
605.906	24080.19
606.102	23846.72
606.298	24055.61
606.494	23643.97
606.69	24110.91
606.886	24137.53
607.082	23717.7
607.278	24227.64
607.474	23899.97
607.67	24209.21
607.866	24014.65
608.062	24334.14
608.257	24168.25
608.453	24209.21
608.649	24649.52
608.845	24459.06
609.041	24244.02
609.236	24571.7
609.432	24557.36
609.628	24762.16
609.824	24309.56
610.019	24559.41
610.215	24377.14
610.411	24626.99
610.606	24620.85
610.802	24874.8
610.998	24760.11
611.193	25089.84
611.389	24682.29
611.584	24696.63
611.78	24915.76
611.976	24747.83
612.171	25249.58
612.367	24954.67
612.562	25026.35
612.758	24868.66
612.953	24518.45
613.149	25081.64
613.344	25108.27
613.539	25315.11
613.735	25208.62
613.93	25257.77
614.126	25247.53
614.321	25286.44
614.517	24852.27
614.712	24864.56
614.907	25141.04
615.103	25548.58
615.298	25276.2
615.493	25399.08
615.688	25075.5
615.884	25687.84
616.079	25143.08
616.274	25521.96
616.47	25306.92
616.665	25253.67
616.86	25231.15
617.055	25370.41
617.25	25206.57
617.445	25450.28
617.641	24805.17
617.836	25339.69
618.031	25104.17
618.226	25186.09
618.421	24983.34
618.616	25550.63
618.811	24948.53
619.006	25278.25
619.201	24463.16
619.396	25157.42
619.591	24555.32
619.786	25038.64
619.981	24612.66
620.176	24833.84
620.371	24444.73
620.566	24903.47
620.761	24586.04
620.956	24354.62
621.151	24420.15
621.346	24282.94
621.541	23883.58
621.735	24522.55
621.93	23816
622.125	24090.43
622.32	23416.65
622.515	23637.83
622.709	23533.38
622.904	23496.52
623.099	23496.52
623.294	23529.28
623.488	23119.69
623.683	23172.94
623.878	22867.79
624.072	23144.27
624.267	22953.8
624.462	22996.81
624.656	22714.19
624.851	22669.14
625.046	22286.17
625.24	22587.22
625.435	22056.79
625.629	22173.53
625.824	22026.07
626.018	22282.07
626.213	21817.18
626.407	21974.88
626.602	21653.34
626.796	21702.5
626.991	21981.02
627.185	21798.75
627.38	21440.36
627.574	21032.81
627.768	21237.61
627.963	21014.38
628.157	20823.92
628.352	20709.23
628.546	20610.93
628.74	20760.43
628.935	20641.65
629.129	20711.28
629.323	20457.33
629.517	20227.96
629.712	20070.26
629.906	20189.05
630.1	19904.38
630.294	19935.1
630.489	20027.26
630.683	20133.75
630.877	19568.51
631.071	19494.79
631.265	19591.04
631.459	19181.45
631.653	19226.5
631.848	19326.85
632.042	18937.74
632.236	19152.77
632.43	18634.64
632.624	19025.8
632.818	18513.81
633.012	18491.28
633.206	18423.7
633.4	18487.18
633.594	18083.73
633.788	18378.64
633.982	18450.32
634.176	18268.05
634.369	18100.12
634.563	17694.62
634.757	17950.62
634.951	17737.63
635.145	17657.76
635.339	18053.02
635.533	17248.16
635.726	17577.89
635.92	17270.69
636.114	17266.6
636.308	17295.27
636.501	16785.32
636.695	16641.96
636.889	16693.16
637.083	16656.3
637.276	16467.89
637.47	16701.36
637.664	16533.42
637.857	16551.85
638.051	16402.35
638.244	16250.8
638.438	15943.61
638.632	16033.72
638.825	16029.62
639.019	15685.56
639.212	15429.57
639.406	15785.91
639.599	15503.29
639.793	15394.75
639.986	15122.37
640.18	15120.32
640.373	15179.72
640.567	14741.45
640.76	15001.54
640.954	14919.62
641.147	14964.68
641.34	14575.56
641.534	14624.72
641.727	14260.18
641.92	14323.66
642.114	14368.72
642.307	14192.59
642.5	14104.53
642.694	14186.45
642.887	13899.73
643.08	14071.76
643.273	13733.85
643.467	13643.74
643.66	13297.63
643.853	13354.97
644.046	13357.02
644.239	13531.1
644.432	13246.43
644.626	13230.05
644.819	13023.2
645.012	13158.37
645.205	13225.95
645.398	12810.22
645.591	12732.39
645.784	12759.02
645.977	12638.19
646.17	12462.06
646.363	12427.25
646.556	12257.26
646.749	12363.76
646.942	12308.46
647.135	12244.98
647.328	12085.23
647.521	12132.34
647.714	11980.79
647.907	11880.44
648.099	11601.91
648.292	11950.07
648.485	11841.53
648.678	11937.78
648.871	11751.42
649.064	11257.85
649.256	11704.31
649.449	11530.23
649.642	11296.77
649.835	11175.94
650.027	11171.84
650.22	11149.31
650.413	11055.11
650.605	11126.78
650.798	10864.64
650.991	10872.84
651.183	10579.98
651.376	10766.34
651.568	10817.54
651.761	10465.29
651.954	10905.6
652.146	10577.93
652.339	10536.97
652.531	10536.97
652.724	10287.12
652.916	10209.29
653.109	10358.8
653.301	10045.46
653.494	10188.82
653.686	9873.43
653.879	9949.2
654.071	9898
654.263	10024.98
654.456	9865.24
654.648	9895.96
654.84	9619.48
655.033	9828.37
655.225	9594.9
655.417	9429.02
655.61	9646.1
655.802	9504.79
655.994	9224.22
656.186	9439.26
656.379	9377.82
656.571	9304.09
656.763	9160.73
656.955	9044
657.148	9254.94
657.34	9322.52
657.532	8970.27
657.724	8837.16
657.916	9060.38
658.108	8917.03
658.3	8849.44
658.492	8742.95
658.684	8634.41
658.876	8525.86
659.068	8521.77
659.26	8507.43
659.452	8579.11
659.644	8497.19
659.836	8276.01
660.028	8407.08
660.22	8353.84
660.412	8253.48
660.604	8187.95
660.796	8312.88
660.988	8269.87
661.18	7946.29
661.372	8022.06
661.563	7893.04
661.755	7890.99
661.947	8060.98
662.139	7972.91
662.331	7948.34
662.522	7718.96
662.714	7794.74
662.906	7649.33
663.097	7655.48
663.289	7647.29
663.481	7426.11
663.673	7483.45
663.864	7458.87
664.056	7467.06
664.247	7366.71
664.439	7227.45
664.631	7284.8
664.822	7333.95
665.014	7223.36
665.205	7178.3
665.397	7170.11
665.588	7114.81
665.78	7012.42
665.971	7059.52
666.163	6957.12
666.354	6940.74
666.546	6899.78
666.737	6899.78
666.929	6801.47
667.12	6844.48
667.311	6871.11
667.503	6670.4
667.694	6735.94
667.885	6662.21
668.077	6768.71
668.268	6563.91
668.459	6694.98
668.651	6559.81
668.842	6516.81
669.033	6498.38
669.224	6426.7
669.416	6293.58
669.607	6541.38
669.798	6436.94
669.989	6424.65
670.18	6230.09
670.371	6266.96
670.563	6080.59
670.754	6400.07
670.945	6176.84
671.136	6297.67
671.327	6170.7
671.518	6142.03
671.709	6148.17
671.9	6031.44
672.091	6142.03
672.282	6125.65
672.473	5974.1
672.664	6056.01
672.855	6074.45
673.046	6180.94
673.237	6109.26
673.428	5910.61
673.619	5935.18
673.809	5883.98
674	5943.38
674.191	5994.58
674.382	5797.97
674.573	5933.14
674.764	5795.92
674.954	5859.41
675.145	5535.83
675.336	5720.15
675.527	5673.04
675.717	5871.7
675.908	5714
676.099	5605.46
676.289	5695.57
676.48	5675.09
676.671	5720.15
676.861	5787.73
677.052	5402.71
677.243	5537.88
677.433	5675.09
677.624	5613.65
677.814	5505.11
678.005	5548.12
678.195	5498.97
678.386	5494.87
678.576	5513.3
678.767	5646.42
678.957	5458.01
679.148	5498.97
679.338	5478.49
679.529	5433.43
679.719	5574.74
679.909	5728.34
680.1	5515.35
680.29	5421.14
680.481	5566.55
680.671	5447.77
680.861	5513.3
681.052	5544.02
681.242	5376.09
681.432	5535.83
681.622	5406.81
681.813	5388.38
682.003	5355.61
682.193	5449.82
682.383	5386.33
682.573	5423.19
682.764	5367.9
682.954	5417.05
683.144	5568.6
683.334	5429.34
683.524	5302.36
683.714	5345.37
683.904	5345.37
684.094	5388.38
684.284	5607.51
684.474	5359.7
684.664	5400.66
684.854	5482.58
685.044	5285.98
685.234	5402.71
685.424	5371.99
685.614	5290.07
685.804	5441.62
685.994	5335.13
686.184	5400.66
686.374	5249.11
686.564	5195.87
686.753	5197.92
686.943	5181.53
687.133	5216.35
687.323	5230.68
687.513	5013.6
687.702	5148.76
687.892	5134.43
688.082	5126.24
688.272	5191.77
688.461	5101.66
688.651	5177.44
688.841	5339.23
689.03	5183.58
689.22	5128.28
689.41	5165.15
689.599	5212.25
689.789	4941.92
689.979	5175.39
690.168	5118.04
690.358	5060.7
690.547	5029.98
690.737	5097.56
690.926	5060.7
691.116	4999.26
691.305	4765.79
691.495	4999.26
691.684	4919.39
691.874	4943.97
692.063	4946.02
692.252	4814.95
692.442	4919.39
692.631	4857.95
692.82	4892.77
693.01	4706.4
693.199	4851.81
693.388	4745.31
693.578	4814.95
693.767	4845.66
693.956	4819.04
694.146	4722.79
694.335	4819.04
694.524	4661.35
694.713	4745.31
694.902	4827.23
695.092	4644.96
695.281	4606.05
695.47	4786.27
695.659	4804.71
695.848	4694.12
696.037	4647.01
696.226	4665.44
696.415	4583.52
696.604	4608.1
696.793	4581.48
696.982	4644.96
697.171	4696.16
697.36	4614.24
697.549	4569.19
697.738	4503.65
697.927	4470.89
698.116	4552.81
698.305	4573.28
698.494	4698.21
698.683	4499.56
698.872	4636.77
699.061	4499.56
699.25	4653.16
699.438	4528.23
699.627	4438.12
699.816	4534.37
700.005	4460.65
700.193	4497.51
700.382	4472.93
700.571	4524.13
700.76	4542.57
700.948	4466.79
701.137	4444.26
701.326	4405.35
701.514	4477.03
701.703	4384.87
701.892	4280.43
702.08	4436.07
702.269	4386.92
702.457	4307.05
702.646	4290.67
702.834	4309.1
703.023	4345.96
703.212	4239.47
703.4	4229.23
703.589	4192.36
703.777	4173.93
703.965	4032.62
704.154	4360.3
704.342	4341.86
704.531	4157.55
704.719	4079.72
704.907	4237.42
705.096	4085.87
705.284	4206.7
705.472	4020.33
705.661	4159.6
705.849	4034.67
706.037	4163.69
706.226	4112.49
706.414	4040.81
706.602	3983.47
706.79	3899.5
706.979	3977.33
707.167	4092.01
707.355	4049
707.543	3983.47
707.731	3993.71
707.919	4003.95
708.107	3885.17
708.296	4028.53
708.484	3827.82
708.672	3741.81
708.86	3936.37
709.048	3917.93
709.236	3829.87
709.424	3815.54
709.612	3786.86
709.8	3676.27
709.988	3786.86
710.176	3860.59
710.364	3752.05
710.551	3815.54
710.739	3735.67
710.927	3676.27
711.115	3778.67
711.303	3692.66
711.491	3647.6
711.679	3594.36
711.866	3711.09
712.054	3641.46
712.242	3543.16
712.43	3659.89
712.617	3596.4
712.805	3426.42
712.993	3459.19
713.181	3565.68
713.368	3655.79
713.556	3549.3
713.744	3567.73
713.931	3629.17
714.119	3459.19
714.306	3528.82
714.494	3543.16
714.682	3397.75
714.869	3451
715.057	3467.38
715.244	3266.68
715.432	3557.49
715.619	3434.61
715.807	3410.04
715.994	3442.81
716.182	3424.37
716.369	3369.08
716.556	3369.08
716.744	3283.06
716.931	3348.6
717.119	3522.68
717.306	3278.97
717.493	3319.93
717.681	3319.93
717.868	3172.47
718.055	3192.95
718.242	3410.04
718.43	3217.53
718.617	3262.58
718.804	3078.27
718.991	3254.39
719.179	3147.9
719.366	3082.36
719.553	3051.64
719.74	3135.61
719.927	3133.56
720.114	3137.66
720.301	3172.47
720.488	3235.96
720.676	3057.79
720.863	3123.32
721.05	3274.87
721.237	3086.46
721.424	3014.78
721.611	3184.76
721.798	2887.81
721.985	2982.01
722.172	2859.14
722.358	3078.27
722.545	3053.69
722.732	3053.69
722.919	3049.6
723.106	2924.67
723.293	2975.87
723.48	2939.01
723.667	3092.6
723.853	2906.24
724.04	2893.95
724.227	2961.53
724.414	2979.97
724.6	2939.01
724.787	2957.44
724.974	2969.73
725.161	2748.54
725.347	2797.7
725.534	2766.98
725.72	2852.99
725.907	2852.99
726.094	2844.8
726.28	2951.29
726.467	2818.18
726.653	2869.37
726.84	2656.39
727.027	2805.89
727.213	2787.46
727.4	2742.4
727.586	2836.61
727.773	2928.77
727.959	2773.12
728.145	2742.4
728.332	2713.73
728.518	2631.81
728.705	2738.3
728.891	2781.31
729.077	2730.11
729.264	2678.91
729.45	2592.9
729.636	2732.16
729.823	2623.62
730.009	2680.96
730.195	2574.47
730.382	2744.45
730.568	2644.1
730.754	2683.01
730.94	2506.88
731.126	2576.52
731.313	2623.62
731.499	2619.52
731.685	2611.33
731.871	2603.14
732.057	2590.85
732.243	2545.8
732.429	2685.06
732.615	2570.37
732.801	2508.93
732.987	2500.74
733.173	2562.18
733.359	2590.85
733.545	2525.32
733.731	2443.4
733.917	2398.34
734.103	2549.89
734.289	2373.77
734.475	2398.34
734.661	2603.14
734.847	2494.6
735.033	2396.29
735.219	2484.36
735.404	2463.88
735.59	2418.82
735.776	2467.97
735.962	2408.58
736.148	2502.79
736.333	2402.44
736.519	2519.17
736.705	2369.67
736.89	2386.05
737.076	2328.71
737.262	2316.42
737.447	2388.1
737.633	2293.9
737.819	2209.93
738.004	2222.22
738.19	2388.1
738.375	2349.19
738.561	2435.21
738.747	2254.98
738.932	2281.61
739.118	2345.09
739.303	2318.47
739.489	2205.83
739.674	2207.88
739.859	2185.35
740.045	2283.66
740.23	2369.67
740.416	2115.72
740.601	2146.44
740.786	2168.97
740.972	2142.35
741.157	2234.5
741.342	2111.63
741.528	2201.74
741.713	2039.95
741.898	2158.73
742.084	2123.91
742.269	2181.26
742.454	2183.31
742.639	2138.25
742.824	2066.57
743.01	2214.02
743.195	2017.42
743.38	2003.08
743.565	1925.26
743.75	2019.47
743.935	2091.15
744.12	1960.08
744.305	1960.08
744.49	1960.08
744.675	2013.32
744.86	1984.65
745.045	1910.93
745.23	1998.99
745.415	1919.12
745.6	1904.78
745.785	1955.98
745.97	1894.54
746.155	1986.7
746.34	1912.97
746.525	1886.35
746.71	1876.11
746.895	1880.21
747.079	1855.63
747.264	1699.98
747.449	1824.91
747.634	1804.43
747.819	1755.28
748.003	1724.56
748.188	1853.58
748.373	1788.05
748.557	1722.51
748.742	1722.51
748.927	1706.13
749.111	1738.9
749.296	1773.71
749.481	1724.56
749.665	1648.79
749.85	1702.03
750.034	1714.32
750.219	1583.25
750.404	1609.87
750.588	1628.31
750.773	1550.48
750.957	1616.02
751.141	1601.68
751.326	1663.12
751.51	1560.72
751.695	1583.25
751.879	1493.14
752.064	1626.26
752.248	1554.58
752.432	1593.49
752.617	1497.24
752.801	1458.32
752.985	1511.57
753.17	1478.8
753.354	1493.14
753.538	1353.88
753.722	1368.21
753.907	1384.6
754.091	1362.07
754.275	1456.28
754.459	1413.27
754.643	1435.8
754.828	1286.3
755.012	1284.25
755.196	1382.55
755.38	1308.82
755.564	1360.02
755.748	1337.49
755.932	1267.86
756.116	1368.21
756.3	1308.82
756.484	1343.64
756.668	1255.58
756.852	1206.42
757.036	1239.19
757.22	1220.76
757.404	1208.47
757.588	1280.15
757.772	1206.42
757.956	1298.58
758.14	1210.52
758.323	1208.47
758.507	1157.27
758.691	1255.58
758.875	1282.2
759.059	1286.3
759.242	1157.27
759.426	1112.22
759.61	1198.23
759.794	1091.74
759.977	1212.57
760.161	1192.09
760.345	1173.66
760.528	1050.78
760.712	1079.45
760.895	1104.03
761.079	1083.55
761.263	1026.2
761.446	956.57
761.63	1085.59
761.813	1058.97
761.997	1083.55
762.18	1061.02
762.364	1083.55
762.547	968.86
762.731	1108.12
762.914	1067.16
763.098	997.53
763.281	1011.87
763.464	1018.01
763.648	1093.79
763.831	1054.87
764.015	1026.2
764.198	985.24
764.381	991.39
764.564	1042.59
764.748	929.95
764.931	985.24
765.114	1005.72
765.297	1001.63
765.481	997.53
765.664	1003.68
765.847	1005.72
766.03	938.14
766.213	913.56
766.397	825.5
766.58	911.52
766.763	1005.72
766.946	821.41
767.129	936.09
767.312	938.14
767.495	919.71
767.678	911.52
767.861	952.48
768.044	895.13
768.227	993.44
768.41	942.24
768.593	921.76
768.776	919.71
768.959	915.61
769.142	915.61
769.324	870.56
769.507	895.13
769.69	839.84
769.873	891.04
770.056	893.09
770.239	829.6
770.421	870.56
770.604	841.89
770.787	862.37
770.97	815.26
771.152	870.56
771.335	895.13
771.518	731.3
771.7	915.61
771.883	921.76
772.066	860.32
772.248	802.97
772.431	802.97
772.613	796.83
772.796	800.93
772.978	792.73
773.161	825.5
773.343	719.01
773.526	780.45
773.708	784.54
773.891	749.73
774.073	776.35
774.256	731.3
774.438	886.94
774.621	743.58
774.803	796.83
774.985	774.3
775.168	739.49
775.35	727.2
775.532	772.25
775.715	635.04
775.897	678.05
776.079	719.01
776.261	815.26
776.444	663.71
776.626	696.48
776.808	706.72
776.99	651.42
777.173	682.14
777.355	682.14
777.537	733.34
777.719	700.58
777.901	637.09
778.083	673.95
778.265	567.46
778.447	686.24
778.629	678.05
778.811	592.03
778.993	702.62
779.175	645.28
779.357	676
779.539	618.66
779.721	632.99
779.903	587.94
780.085	653.47
780.267	622.75
780.449	690.34
780.631	544.93
780.812	567.46
780.994	542.88
781.176	602.27
781.358	536.74
781.54	506.02
781.721	635.04
781.903	618.66
782.085	559.27
782.267	645.28
782.448	487.59
782.63	546.98
782.812	518.31
782.993	454.82
783.175	514.21
783.357	448.68
783.538	577.7
783.72	514.21
783.901	510.11
784.083	495.78
784.264	612.51
784.446	485.54
784.627	499.88
784.809	477.35
784.99	452.77
785.172	491.68
785.353	489.64
785.535	481.44
785.716	463.01
785.897	405.67
786.079	413.86
786.26	454.82
786.441	430.24
786.623	444.58
786.804	477.35
786.985	420
787.167	364.71
787.348	344.23
787.529	370.85
787.71	399.52
787.891	411.81
788.073	379.04
788.254	469.16
788.435	420
788.616	436.39
788.797	391.33
788.978	407.72
789.159	379.04
789.34	415.91
789.522	340.13
789.703	370.85
789.884	329.89
790.065	350.37
790.246	532.64
790.427	395.43
790.607	493.73
790.788	422.05
790.969	377
791.15	438.44
791.331	422.05
791.512	368.81
791.693	286.89
791.874	370.85
792.054	452.77
792.235	370.85
792.416	282.79
792.597	307.37
792.778	403.62
792.958	329.89
793.139	288.93
793.32	290.98
793.5	303.27
793.681	387.24
793.862	338.09
794.042	354.47
794.223	311.46
794.404	260.26
794.584	313.51
794.765	260.26
794.945	331.94
795.126	372.9
795.306	290.98
795.487	338.09
795.667	354.47
795.848	317.61
796.028	276.65
796.209	377
796.389	364.71
796.57	276.65
796.75	297.13
796.93	280.74
797.111	264.36
797.291	250.02
797.471	327.85
797.652	256.17
797.832	288.93
798.012	383.14
798.192	274.6
798.373	247.97
798.553	247.97
798.733	338.09
798.913	227.5
799.093	278.69
799.274	252.07
799.454	288.93
799.634	245.93
799.814	317.61
799.994	260.26
800.174	268.45
800.354	239.78
800.534	247.97
800.714	225.45
800.894	198.82
801.074	303.27
801.254	243.88
801.434	303.27
801.614	166.06
801.794	194.73
801.974	862.37
802.154	211.11
802.334	379.04
802.514	196.78
802.693	250.02
802.873	211.11
803.053	235.69
803.233	241.83
803.413	264.36
803.592	178.34
803.772	250.02
803.952	252.07
804.131	188.58
804.311	233.64
804.491	231.59
804.67	182.44
804.85	243.88
805.03	198.82
805.209	247.97
805.389	174.25
805.568	161.96
805.748	227.5
805.928	223.4
806.107	243.88
806.287	266.41
806.466	176.3
806.646	176.3
806.825	141.48
807.004	223.4
807.184	159.91
807.363	237.74
807.543	174.25
807.722	112.81
807.901	282.79
808.081	256.17
808.26	157.86
808.439	166.06
808.619	135.34
808.798	114.86
808.977	209.06
809.156	96.43
809.336	129.19
809.515	215.21
809.694	182.44
809.873	192.68
810.052	215.21
810.231	194.73
810.411	180.39
810.59	223.4
810.769	141.48
810.948	297.13
811.127	198.82
811.306	116.9
811.485	174.25
811.664	266.41
811.843	164.01
812.022	190.63
812.201	161.96
812.38	182.44
812.559	178.34
812.737	223.4
812.916	75.95
813.095	166.06
813.274	84.14
813.453	139.43
813.632	207.02
813.811	133.29
813.989	143.53
814.168	133.29
814.347	133.29
814.526	198.82
814.704	202.92
814.883	209.06
815.062	143.53
815.24	192.68
815.419	170.15
815.598	127.14
815.776	45.23
815.955	135.34
816.133	98.47
816.312	168.1
816.49	159.91
816.669	178.34
816.847	153.77
817.026	157.86
817.204	129.19
817.383	118.95
817.561	129.19
817.74	118.95
817.918	192.68
818.097	133.29
818.275	133.29
818.453	135.34
818.632	100.52
818.81	174.25
818.988	88.23
819.167	104.62
819.345	174.25
819.523	123.05
819.701	166.06
819.879	133.29
820.058	129.19
820.236	198.82
820.414	61.61
820.592	166.06
820.77	110.76
820.948	133.29
821.127	84.14
821.305	170.15
821.483	149.67
821.661	100.52
821.839	166.06
822.017	110.76
822.195	59.56
822.373	114.86
822.551	100.52
822.729	198.82
822.907	10.41
823.085	196.78
823.262	235.69
823.44	43.18
823.618	174.25
823.796	86.19
823.974	84.14
824.152	118.95
824.329	94.38
824.507	141.48
824.685	100.52
824.863	190.63
825.04	77.99
825.218	141.48
825.396	47.27
825.574	155.82
825.751	123.05
825.929	213.16
826.107	118.95
826.284	67.75
826.462	190.63
826.639	96.43
826.817	116.9
826.994	96.43
827.172	114.86
827.349	125.1
827.527	127.14
827.704	37.03
827.882	63.66
828.059	127.14
828.237	39.08
828.414	149.67
828.591	24.75
828.769	75.95
828.946	114.86
829.124	88.23
829.301	110.76
829.478	94.38
829.655	100.52
829.833	102.57
830.01	71.85
830.187	125.1
830.364	92.33
830.542	114.86
830.719	157.86
830.896	34.99
831.073	80.04
831.25	34.99
831.427	82.09
831.604	92.33
831.782	59.56
831.959	110.76
832.136	18.6
832.313	-1.88
832.49	61.61
832.667	125.1
832.844	39.08
833.021	174.25
833.198	55.47
833.374	75.95
833.551	92.33
833.728	37.03
833.905	82.09
834.082	80.04
834.259	4.27
834.436	133.29
834.612	37.03
834.789	125.1
834.966	55.47
835.143	112.81
835.319	80.04
835.496	57.51
835.673	96.43
835.85	125.1
836.026	67.75
836.203	108.71
836.38	63.66
836.556	53.42
836.733	-51.03
836.909	129.19
837.086	37.03
837.262	34.99
837.439	0.17
837.616	47.27
837.792	51.37
837.968	77.99
838.145	59.56
838.321	102.57
838.498	84.14
838.674	61.61
838.851	59.56
839.027	32.94
839.203	55.47
839.38	75.95
839.556	92.33
839.732	174.25
839.909	-22.36
840.085	84.14
840.261	34.99
840.437	75.95
840.614	92.33
840.79	157.86
840.966	82.09
841.142	67.75
841.318	51.37
841.494	92.33
841.671	108.71
841.847	-1.88
842.023	84.14
842.199	202.92
842.375	65.71
842.551	24.75
842.727	71.85
842.903	118.95
843.079	77.99
843.255	104.62
843.431	12.46
843.607	121
843.783	18.6
843.959	67.75
844.134	-30.55
844.31	149.67
844.486	80.04
844.662	12.46
844.838	63.66
845.013	127.14
845.189	26.79
845.365	96.43
845.541	67.75
845.716	59.56
845.892	88.23
846.068	84.14
846.244	100.52
846.419	67.75
846.595	28.84
846.77	4.27
846.946	59.56
847.122	69.8
847.297	14.51
847.473	159.91
847.648	14.51
847.824	80.04
847.999	10.41
848.175	10.41
848.35	18.6
848.526	98.47
848.701	94.38
848.876	118.95
849.052	182.44
849.227	67.75
849.403	133.29
849.578	51.37
849.753	53.42
849.929	84.14
850.104	-46.93
850.279	86.19
850.454	88.23
850.63	121
850.805	26.79
850.98	18.6
851.155	98.47
851.33	63.66
851.505	30.89
851.681	129.19
851.856	4.27
852.031	80.04
852.206	86.19
852.381	10.41
852.556	51.37
852.731	84.14
852.906	75.95
853.081	24.75
853.256	77.99
853.431	43.18
853.606	22.7
853.781	55.47
853.956	18.6
854.131	-14.17
854.305	2.22
854.48	116.9
854.655	-1.88
854.83	30.89
855.005	41.13
855.18	12.46
855.354	32.94
855.529	51.37
855.704	6.31
855.879	106.67
856.053	-26.45
856.228	47.27
856.403	34.99
856.577	12.46
856.752	6.31
856.926	18.6
857.101	-10.07
857.276	12.46
857.45	57.51
857.625	45.23
857.799	18.6
857.974	108.71
858.148	-12.12
858.323	18.6
858.497	45.23
858.672	12.46
858.846	2.22
859.02	75.95
859.195	-22.36
859.369	86.19
859.543	-3.93
859.718	26.79
859.892	80.04
860.066	-5.97
860.241	26.79
860.415	39.08
860.589	-1.88
860.763	63.66
860.938	55.47
861.112	18.6
861.286	73.9
861.46	55.47
861.634	53.42
861.808	65.71
861.982	34.99
862.157	10.41
862.331	26.79
862.505	-8.02
862.679	26.79
862.853	43.18
863.027	63.66
863.201	108.71
863.375	45.23
863.549	37.03
863.722	75.95
863.896	100.52
864.07	-1.88
864.244	-3.93
864.418	43.18
864.592	18.6
864.766	2.22
864.939	59.56
865.113	-3.93
865.287	28.84
865.461	0.17
865.634	59.56
865.808	2.22
865.982	-18.26
866.156	-38.74
866.329	55.47
866.503	53.42
866.676	-10.07
866.85	30.89
867.024	26.79
867.197	71.85
867.371	8.36
867.544	28.84
867.718	-26.45
867.891	39.08
868.065	-44.88
868.238	-40.79
868.412	59.56
868.585	22.7
868.759	30.89
868.932	-3.93
869.105	-53.08
869.279	-55.12
869.452	-71.51
869.625	4.27
869.799	30.89
869.972	34.99
870.145	10.41
870.319	-5.97
870.492	43.18
870.665	34.99
870.838	34.99
871.011	-63.32
871.185	-22.36
871.358	67.75
871.531	22.7
871.704	41.13
871.877	49.32
872.05	2.22
872.223	26.79
872.396	-28.5
872.569	-38.74
872.742	-94.04
872.915	26.79
873.088	2.22
873.261	-14.17
873.434	16.55
873.607	-1.88
873.78	59.56
873.953	-38.74
874.126	34.99
874.299	102.57
874.471	69.8
874.644	69.8
874.817	26.79
874.99	174.25
875.163	-98.13
875.335	106.67
875.508	-24.4
875.681	80.04
875.853	-55.12
876.026	59.56
876.199	63.66
876.371	4.27
876.544	30.89
876.717	43.18
876.889	37.03
877.062	45.23
877.234	-59.22
877.407	51.37
877.579	26.79
877.752	39.08
877.924	6.31
878.097	-61.27
878.269	51.37
878.442	-16.21
878.614	37.03
878.786	57.51
878.959	-28.5
879.131	57.51
879.303	-38.74
879.476	26.79
879.648	28.84
879.82	26.79
879.993	18.6
880.165	20.65
880.337	-1.88
880.509	12.46
880.681	18.6
880.854	37.03
881.026	86.19
881.198	26.79
881.37	-12.12
881.542	-1.88
881.714	30.89
881.886	32.94
882.058	2.22
882.23	61.61
882.402	-24.4
882.574	-30.55
882.746	49.32
882.918	59.56
883.09	12.46
883.262	-38.74
883.434	-10.07
883.606	-3.93
883.778	-36.69
883.95	77.99
884.122	69.8
884.293	34.99
884.465	18.6
884.637	116.9
884.809	12.46
884.98	18.6
885.152	75.95
885.324	67.75
885.496	-16.21
885.667	30.89
885.839	18.6
886.011	34.99
886.182	34.99
886.354	26.79
886.525	53.42
886.697	6.31
886.869	-3.93
887.04	34.99
887.212	45.23
887.383	65.71
887.555	34.99
887.726	-32.6
887.897	4.27
888.069	-5.97
888.24	110.76
888.412	-22.36
888.583	18.6
888.754	102.57
888.926	-14.17
889.097	18.6
889.268	-24.4
889.44	2.22
889.611	26.79
889.782	-3.93
889.953	-18.26
890.125	26.79
890.296	20.65
890.467	26.79
890.638	34.99
890.809	14.51
890.98	51.37
891.151	55.47
891.323	37.03
891.494	-44.88
891.665	-14.17
891.836	-8.02
892.007	-5.97
892.178	8.36
892.349	-28.5
892.52	10.41
892.691	-16.21
892.862	10.41
893.032	-36.69
893.203	-5.97
893.374	-22.36
893.545	86.19
893.716	-26.45
893.887	53.42
894.057	-65.36
894.228	41.13
894.399	26.79
894.57	96.43
894.74	-22.36
894.911	92.33
895.082	10.41
895.253	0.17
895.423	-12.12
895.594	47.27
895.764	-26.45
895.935	57.51
896.106	16.55
896.276	30.89
896.447	-69.46
896.617	6.31
896.788	69.8
896.958	-22.36
897.129	-18.26
897.299	53.42
897.47	2.22
897.64	-5.97
897.81	53.42
897.981	2.22
898.151	-46.93
898.322	-16.21
898.492	84.14
898.662	-1.88
898.832	34.99
899.003	12.46
899.173	-30.55
899.343	4.27
899.513	12.46
