Data from USB4F104151__192__14-33-05-754.txt Node

Date: Thu Mar 13 14:33:05 EDT 2025
User: louis
Spectrometer: USB4F10415
Trigger mode: 4
Integration Time (sec): 2.500000E-2
Scans to average: 1
Electric dark correction enabled: true
Nonlinearity correction enabled: false
Boxcar width: 0
XAxis mode: Wavelengths
Number of Pixels in Spectrum: 3648
>>>>>Begin Spectral Data<<<<<
178.204	-160.59
178.424	-160.59
178.644	-160.59
178.864	-119.64
179.084	-129.88
179.304	-15.19
179.524	-23.38
179.744	11.43
179.964	64.68
180.184	7.34
180.404	7.34
180.624	-0.85
180.844	-39.76
181.064	-19.29
181.283	-52.05
181.503	1.19
181.723	58.54
181.943	-113.49
182.163	79.02
182.383	19.63
182.602	64.68
182.822	66.73
183.042	-17.24
183.262	-70.48
183.482	56.49
183.701	-23.38
183.921	60.59
184.141	-9.05
184.361	33.96
184.58	52.39
184.8	25.77
185.02	33.96
185.239	72.87
185.459	31.91
185.679	56.49
185.898	-19.29
186.118	27.82
186.338	7.34
186.557	5.29
186.777	-21.33
186.997	-0.85
187.216	-7
187.436	89.26
187.655	31.91
187.875	-33.62
188.095	-43.86
188.314	72.87
188.534	68.78
188.753	81.07
188.973	9.39
189.192	89.26
189.412	21.67
189.631	36.01
189.851	56.49
190.07	89.26
190.29	50.35
190.509	-52.05
190.729	17.58
190.948	48.3
191.168	156.84
191.387	76.97
191.607	29.87
191.826	-0.85
192.045	25.77
192.265	-9.05
192.484	-33.62
192.704	66.73
192.923	40.11
193.142	1.19
193.362	72.87
193.581	60.59
193.8	11.43
194.02	3.24
194.239	99.5
194.458	25.77
194.678	19.63
194.897	44.2
195.116	60.59
195.335	-7
195.555	25.77
195.774	50.35
195.993	85.16
196.212	-19.29
196.432	-17.24
196.651	-50
196.87	-37.72
197.089	142.5
197.308	48.3
197.528	-0.85
197.747	-21.33
197.966	48.3
198.185	38.06
198.404	-33.62
198.623	56.49
198.842	36.01
199.062	15.53
199.281	72.87
199.5	40.11
199.719	64.68
199.938	87.21
200.157	64.68
200.376	93.35
200.595	93.35
200.814	19.63
201.033	-41.81
201.252	23.72
201.471	64.68
201.69	25.77
201.909	-15.19
202.128	79.02
202.347	40.11
202.566	11.43
202.785	-13.14
203.004	3.24
203.223	64.68
203.442	1.19
203.661	19.63
203.879	52.39
204.098	95.4
204.317	-39.76
204.536	-0.85
204.755	15.53
204.974	5.29
205.193	56.49
205.411	83.11
205.63	25.77
205.849	-19.29
206.068	-43.86
206.287	44.2
206.505	44.2
206.724	15.53
206.943	40.11
207.162	-25.43
207.381	52.39
207.599	42.15
207.818	7.34
208.037	3.24
208.255	19.63
208.474	-2.9
208.693	40.11
208.911	-45.91
209.13	87.21
209.349	31.91
209.567	1.19
209.786	101.55
210.005	1.19
210.223	60.59
210.442	-25.43
210.661	15.53
210.879	29.87
211.098	36.01
211.316	56.49
211.535	42.15
211.753	64.68
211.972	31.91
212.191	-21.33
212.409	36.01
212.628	-7
212.846	21.67
213.065	42.15
213.283	44.2
213.502	-0.85
213.72	-23.38
213.938	89.26
214.157	7.34
214.375	3.24
214.594	17.58
214.812	29.87
215.031	-9.05
215.249	48.3
215.467	7.34
215.686	74.92
215.904	40.11
216.122	23.72
216.341	33.96
216.559	-25.43
216.778	-41.81
216.996	91.31
217.214	-33.62
217.432	7.34
217.651	-15.19
217.869	-47.96
218.087	-37.72
218.306	33.96
218.524	81.07
218.742	40.11
218.96	31.91
219.179	-4.95
219.397	31.91
219.615	74.92
219.833	76.97
220.051	62.63
220.27	-39.76
220.488	40.11
220.706	9.39
220.924	-4.95
221.142	40.11
221.36	5.29
221.578	-17.24
221.796	-0.85
222.015	1.19
222.233	52.39
222.451	29.87
222.669	-41.81
222.887	74.92
223.105	27.82
223.323	25.77
223.541	-111.44
223.759	40.11
223.977	36.01
224.195	42.15
224.413	46.25
224.631	42.15
224.849	31.91
225.067	93.35
225.285	-64.34
225.503	3.24
225.721	-35.67
225.939	42.15
226.157	50.35
226.375	122.02
226.592	15.53
226.81	1.19
227.028	64.68
227.246	81.07
227.464	42.15
227.682	89.26
227.9	27.82
228.117	-0.85
228.335	68.78
228.553	40.11
228.771	66.73
228.989	9.39
229.206	60.59
229.424	-58.2
229.642	15.53
229.86	-37.72
230.077	58.54
230.295	-37.72
230.513	-11.09
230.731	-17.24
230.948	85.16
231.166	107.69
231.384	40.11
231.601	99.5
231.819	33.96
232.037	58.54
232.254	40.11
232.472	-41.81
232.689	-58.2
232.907	15.53
233.125	25.77
233.342	21.67
233.56	17.58
233.777	66.73
233.995	15.53
234.213	83.11
234.43	-15.19
234.648	-25.43
234.865	11.43
235.083	17.58
235.3	64.68
235.518	74.92
235.735	72.87
235.953	89.26
236.17	1.19
236.388	58.54
236.605	99.5
236.822	81.07
237.04	72.87
237.257	60.59
237.475	29.87
237.692	52.39
237.909	15.53
238.127	-33.62
238.344	64.68
238.562	44.2
238.779	40.11
238.996	31.91
239.214	72.87
239.431	-4.95
239.648	19.63
239.865	3.24
240.083	64.68
240.3	-54.1
240.517	-7
240.735	52.39
240.952	76.97
241.169	68.78
241.386	42.15
241.603	66.73
241.821	-13.14
242.038	105.64
242.255	97.45
242.472	-19.29
242.689	27.82
242.907	19.63
243.124	-52.05
243.341	17.58
243.558	7.34
243.775	-9.05
243.992	-21.33
244.209	89.26
244.426	56.49
244.643	7.34
244.86	68.78
245.078	56.49
245.295	113.83
245.512	107.69
245.729	-31.57
245.946	85.16
246.163	5.29
246.38	7.34
246.597	-17.24
246.814	7.34
247.031	40.11
247.248	-19.29
247.464	7.34
247.681	50.35
247.898	23.72
248.115	64.68
248.332	-47.96
248.549	95.4
248.766	113.83
248.983	42.15
249.2	31.91
249.417	-25.43
249.633	15.53
249.85	29.87
250.067	60.59
250.284	25.77
250.501	81.07
250.717	44.2
250.934	27.82
251.151	38.06
251.368	64.68
251.585	52.39
251.801	5.29
252.018	-23.38
252.235	17.58
252.451	40.11
252.668	19.63
252.885	66.73
253.102	-25.43
253.318	-15.19
253.535	-25.43
253.752	33.96
253.968	-41.81
254.185	3.24
254.401	-0.85
254.618	83.11
254.835	-4.95
255.051	60.59
255.268	42.15
255.484	40.11
255.701	29.87
255.917	105.64
256.134	-9.05
256.351	25.77
256.567	5.29
256.784	17.58
257	3.24
257.217	85.16
257.433	87.21
257.65	40.11
257.866	50.35
258.082	19.63
258.299	17.58
258.515	-7
258.732	5.29
258.948	1.19
259.165	44.2
259.381	-0.85
259.597	29.87
259.814	95.4
260.03	-17.24
260.246	23.72
260.463	72.87
260.679	64.68
260.895	33.96
261.112	42.15
261.328	58.54
261.544	-0.85
261.761	93.35
261.977	7.34
262.193	-33.62
262.409	31.91
262.626	48.3
262.842	-4.95
263.058	9.39
263.274	23.72
263.49	29.87
263.707	13.48
263.923	66.73
264.139	-17.24
264.355	68.78
264.571	72.87
264.787	-31.57
265.004	76.97
265.22	15.53
265.436	48.3
265.652	-25.43
265.868	-15.19
266.084	-41.81
266.3	27.82
266.516	-138.07
266.732	-7
266.948	-31.57
267.164	74.92
267.38	83.11
267.596	40.11
267.812	105.64
268.028	42.15
268.244	-4.95
268.46	21.67
268.676	-45.91
268.892	11.43
269.108	-62.29
269.324	23.72
269.54	36.01
269.756	72.87
269.972	-9.05
270.188	40.11
270.403	-23.38
270.619	-33.62
270.835	52.39
271.051	109.74
271.267	-72.53
271.483	-7
271.698	42.15
271.914	81.07
272.13	38.06
272.346	97.45
272.562	15.53
272.777	42.15
272.993	36.01
273.209	-13.14
273.425	105.64
273.64	38.06
273.856	27.82
274.072	11.43
274.287	-17.24
274.503	33.96
274.719	36.01
274.934	-33.62
275.15	-74.58
275.366	62.63
275.581	-2.9
275.797	7.34
276.012	89.26
276.228	-54.1
276.444	-33.62
276.659	74.92
276.875	66.73
277.09	-21.33
277.306	81.07
277.521	-13.14
277.737	29.87
277.952	7.34
278.168	21.67
278.383	97.45
278.599	21.67
278.814	-23.38
279.03	60.59
279.245	132.26
279.461	48.3
279.676	99.5
279.892	-0.85
280.107	9.39
280.322	-29.52
280.538	-17.24
280.753	50.35
280.969	66.73
281.184	7.34
281.399	117.93
281.615	27.82
281.83	52.39
282.045	54.44
282.26	7.34
282.476	7.34
282.691	85.16
282.906	23.72
283.122	40.11
283.337	31.91
283.552	66.73
283.767	7.34
283.983	74.92
284.198	40.11
284.413	40.11
284.628	-33.62
284.843	9.39
285.058	3.24
285.274	31.91
285.489	-11.09
285.704	89.26
285.919	27.82
286.134	48.3
286.349	109.74
286.564	-4.95
286.779	33.96
286.995	23.72
287.21	36.01
287.425	58.54
287.64	64.68
287.855	33.96
288.07	1.19
288.285	76.97
288.5	93.35
288.715	103.59
288.93	15.53
289.145	-17.24
289.36	38.06
289.575	-17.24
289.79	21.67
290.004	15.53
290.219	44.2
290.434	31.91
290.649	17.58
290.864	85.16
291.079	36.01
291.294	-35.67
291.509	89.26
291.724	-50
291.938	25.77
292.153	72.87
292.368	31.91
292.583	-0.85
292.798	23.72
293.012	21.67
293.227	-0.85
293.442	40.11
293.657	54.44
293.871	64.68
294.086	56.49
294.301	93.35
294.516	66.73
294.73	15.53
294.945	31.91
295.16	-27.48
295.374	15.53
295.589	97.45
295.804	31.91
296.018	-0.85
296.233	7.34
296.447	85.16
296.662	11.43
296.877	27.82
297.091	27.82
297.306	40.11
297.52	-47.96
297.735	40.11
297.949	7.34
298.164	58.54
298.378	31.91
298.593	25.77
298.807	27.82
299.022	66.73
299.236	58.54
299.451	42.15
299.665	15.53
299.88	19.63
300.094	7.34
300.309	89.26
300.523	7.34
300.737	-56.15
300.952	27.82
301.166	31.91
301.381	33.96
301.595	-9.05
301.809	25.77
302.024	-72.53
302.238	42.15
302.452	66.73
302.667	68.78
302.881	56.49
303.095	15.53
303.309	48.3
303.524	7.34
303.738	42.15
303.952	48.3
304.166	50.35
304.381	-45.91
304.595	33.96
304.809	46.25
305.023	9.39
305.237	-13.14
305.452	52.39
305.666	138.41
305.88	81.07
306.094	-25.43
306.308	109.74
306.522	60.59
306.736	-33.62
306.95	23.72
307.164	42.15
307.379	19.63
307.593	40.11
307.807	36.01
308.021	56.49
308.235	56.49
308.449	52.39
308.663	19.63
308.877	91.31
309.091	48.3
309.305	50.35
309.519	36.01
309.733	76.97
309.947	-15.19
310.161	31.91
310.374	70.83
310.588	113.83
310.802	23.72
311.016	70.83
311.23	-4.95
311.444	42.15
311.658	1.19
311.872	81.07
312.085	-7
312.299	79.02
312.513	134.31
312.727	11.43
312.941	-0.85
313.154	33.96
313.368	-9.05
313.582	-13.14
313.796	3.24
314.009	56.49
314.223	1.19
314.437	17.58
314.651	50.35
314.864	52.39
315.078	-0.85
315.292	23.72
315.505	21.67
315.719	33.96
315.933	74.92
316.146	-15.19
316.36	23.72
316.573	81.07
316.787	99.5
317.001	9.39
317.214	-9.05
317.428	56.49
317.641	60.59
317.855	-41.81
318.068	31.91
318.282	9.39
318.495	91.31
318.709	-0.85
318.922	56.49
319.136	105.64
319.349	5.29
319.563	-9.05
319.776	95.4
319.99	11.43
320.203	93.35
320.417	83.11
320.63	97.45
320.843	58.54
321.057	-74.58
321.27	-39.76
321.483	27.82
321.697	124.07
321.91	-33.62
322.124	33.96
322.337	42.15
322.55	-9.05
322.763	36.01
322.977	15.53
323.19	-7
323.403	60.59
323.617	54.44
323.83	40.11
324.043	25.77
324.256	54.44
324.469	52.39
324.683	-0.85
324.896	33.96
325.109	54.44
325.322	-54.1
325.535	58.54
325.748	48.3
325.962	31.91
326.175	97.45
326.388	7.34
326.601	38.06
326.814	23.72
327.027	117.93
327.24	103.59
327.453	-45.91
327.666	68.78
327.879	48.3
328.092	23.72
328.305	40.11
328.518	56.49
328.731	58.54
328.944	107.69
329.157	13.48
329.37	-7
329.583	87.21
329.796	66.73
330.009	25.77
330.222	23.72
330.435	56.49
330.648	31.91
330.861	48.3
331.073	31.91
331.286	31.91
331.499	7.34
331.712	17.58
331.925	-21.33
332.138	27.82
332.35	81.07
332.563	36.01
332.776	109.74
332.989	-64.34
333.202	-17.24
333.414	-23.38
333.627	21.67
333.84	-4.95
334.053	74.92
334.265	-0.85
334.478	17.58
334.691	-2.9
334.903	-33.62
335.116	-31.57
335.329	81.07
335.541	25.77
335.754	56.49
335.966	-0.85
336.179	9.39
336.392	48.3
336.604	11.43
336.817	58.54
337.029	62.63
337.242	33.96
337.454	31.91
337.667	38.06
337.88	60.59
338.092	-68.44
338.305	27.82
338.517	-31.57
338.729	81.07
338.942	27.82
339.154	72.87
339.367	-0.85
339.579	46.25
339.792	3.24
340.004	56.49
340.217	46.25
340.429	23.72
340.641	-78.68
340.854	50.35
341.066	13.48
341.278	42.15
341.491	81.07
341.703	15.53
341.915	9.39
342.128	-0.85
342.34	23.72
342.552	-0.85
342.764	-9.05
342.977	97.45
343.189	7.34
343.401	50.35
343.613	97.45
343.826	15.53
344.038	-11.09
344.25	25.77
344.462	7.34
344.674	64.68
344.886	7.34
345.099	36.01
345.311	36.01
345.523	74.92
345.735	-2.9
345.947	36.01
346.159	-35.67
346.371	68.78
346.583	23.72
346.795	40.11
347.007	93.35
347.219	81.07
347.431	70.83
347.643	113.83
347.855	56.49
348.067	83.11
348.279	44.2
348.491	48.3
348.703	42.15
348.915	99.5
349.127	74.92
349.339	74.92
349.551	-27.48
349.763	81.07
349.975	23.72
350.187	66.73
350.399	107.69
350.61	33.96
350.822	64.68
351.034	81.07
351.246	36.01
351.458	68.78
351.669	40.11
351.881	109.74
352.093	83.11
352.305	60.59
352.517	64.68
352.728	99.5
352.94	87.21
353.152	101.55
353.363	38.06
353.575	23.72
353.787	113.83
353.999	3.24
354.21	19.63
354.422	31.91
354.633	25.77
354.845	40.11
355.057	17.58
355.268	50.35
355.48	97.45
355.692	83.11
355.903	27.82
356.115	-23.38
356.326	-9.05
356.538	48.3
356.749	42.15
356.961	130.22
357.172	-0.85
357.384	9.39
357.595	83.11
357.807	11.43
358.018	36.01
358.23	3.24
358.441	97.45
358.653	31.91
358.864	17.58
359.075	36.01
359.287	-2.9
359.498	11.43
359.709	42.15
359.921	19.63
360.132	11.43
360.344	66.73
360.555	-11.09
360.766	-9.05
360.977	19.63
361.189	68.78
361.4	33.96
361.611	68.78
361.823	107.69
362.034	56.49
362.245	-70.48
362.456	11.43
362.667	83.11
362.879	60.59
363.09	60.59
363.301	64.68
363.512	23.72
363.723	48.3
363.935	27.82
364.146	113.83
364.357	36.01
364.568	79.02
364.779	27.82
364.99	58.54
365.201	48.3
365.412	36.01
365.623	40.11
365.834	25.77
366.045	25.77
366.256	48.3
366.467	-15.19
366.678	52.39
366.889	130.22
367.1	25.77
367.311	117.93
367.522	56.49
367.733	54.44
367.944	148.65
368.155	-4.95
368.366	70.83
368.577	85.16
368.788	64.68
368.999	113.83
369.209	66.73
369.42	87.21
369.631	128.17
369.842	54.44
370.053	97.45
370.264	23.72
370.474	40.11
370.685	72.87
370.896	31.91
371.107	40.11
371.317	68.78
371.528	-0.85
371.739	146.6
371.95	85.16
372.16	25.77
372.371	-105.3
372.582	64.68
372.792	97.45
373.003	113.83
373.214	7.34
373.424	27.82
373.635	17.58
373.846	126.12
374.056	31.91
374.267	7.34
374.477	17.58
374.688	17.58
374.898	7.34
375.109	33.96
375.319	81.07
375.53	66.73
375.74	5.29
375.951	19.63
376.161	48.3
376.372	29.87
376.582	-37.72
376.793	31.91
377.003	48.3
377.214	40.11
377.424	68.78
377.635	33.96
377.845	13.48
378.055	142.5
378.266	72.87
378.476	148.65
378.686	-45.91
378.897	15.53
379.107	119.98
379.317	-41.81
379.528	50.35
379.738	89.26
379.948	81.07
380.158	113.83
380.369	64.68
380.579	56.49
380.789	40.11
380.999	148.65
381.21	19.63
381.42	79.02
381.63	42.15
381.84	25.77
382.05	68.78
382.261	52.39
382.471	101.55
382.681	64.68
382.891	85.16
383.101	76.97
383.311	-11.09
383.521	31.91
383.731	38.06
383.941	107.69
384.151	1.19
384.361	64.68
384.571	124.07
384.781	130.22
384.991	107.69
385.201	95.4
385.411	169.13
385.621	23.72
385.831	33.96
386.041	23.72
386.251	27.82
386.461	99.5
386.671	52.39
386.881	97.45
387.091	81.07
387.301	5.29
387.511	21.67
387.72	-21.33
387.93	50.35
388.14	72.87
388.35	97.45
388.56	68.78
388.769	93.35
388.979	95.4
389.189	-7
389.399	48.3
389.609	152.74
389.818	146.6
390.028	122.02
390.238	117.93
390.447	40.11
390.657	29.87
390.867	5.29
391.076	-45.91
391.286	85.16
391.496	33.96
391.705	60.59
391.915	97.45
392.125	68.78
392.334	81.07
392.544	130.22
392.753	52.39
392.963	113.83
393.172	113.83
393.382	56.49
393.591	93.35
393.801	31.91
394.01	74.92
394.22	76.97
394.429	111.78
394.639	9.39
394.848	136.36
395.058	130.22
395.267	85.16
395.477	38.06
395.686	27.82
395.895	138.41
396.105	167.08
396.314	68.78
396.524	42.15
396.733	76.97
396.942	146.6
397.152	99.5
397.361	122.02
397.57	40.11
397.78	107.69
397.989	171.18
398.198	134.31
398.407	72.87
398.617	130.22
398.826	87.21
399.035	134.31
399.244	138.41
399.453	36.01
399.663	72.87
399.872	136.36
400.081	85.16
400.29	122.02
400.499	74.92
400.708	126.12
400.917	101.55
401.127	83.11
401.336	156.84
401.545	195.75
401.754	162.98
401.963	193.7
402.172	146.6
402.381	165.03
402.59	48.3
402.799	124.07
403.008	171.18
403.217	181.42
403.426	146.6
403.635	97.45
403.844	64.68
404.053	222.38
404.262	117.93
404.471	165.03
404.68	189.61
404.888	171.18
405.097	185.51
405.306	179.37
405.515	183.46
405.724	212.14
405.933	197.8
406.142	208.04
406.35	228.52
406.559	191.66
406.768	238.76
406.977	249
407.185	294.05
407.394	279.72
407.603	140.46
407.812	195.75
408.02	267.43
408.229	228.52
408.438	294.05
408.646	216.23
408.855	332.97
409.064	265.38
409.272	302.25
409.481	367.78
409.69	343.21
409.898	296.1
410.107	322.73
410.315	310.44
410.524	380.07
410.733	468.13
410.941	459.94
411.15	375.97
411.358	457.89
411.567	476.32
411.775	457.89
411.984	439.46
412.192	515.23
412.401	548
412.609	582.82
412.818	609.44
413.026	617.63
413.234	591.01
413.443	611.49
413.651	640.16
413.86	638.11
414.068	763.04
414.276	824.48
414.485	638.11
414.693	797.85
414.901	859.29
415.11	885.92
415.318	851.1
415.526	957.6
415.734	1000.6
415.943	933.02
416.151	1100.95
416.359	941.21
416.567	1049.75
416.776	1105.05
416.984	1146.01
417.192	1129.63
417.4	1232.02
417.608	1227.93
417.817	1244.31
418.025	1326.23
418.233	1449.11
418.441	1344.66
418.649	1432.72
418.857	1473.68
419.065	1612.95
419.273	1440.92
419.481	1641.62
419.689	1778.83
419.897	1731.73
420.105	1846.41
420.313	1893.52
420.521	1866.89
420.729	1957
420.937	2110.6
421.145	2143.37
421.353	2243.72
421.561	2260.1
421.769	2403.46
421.977	2380.93
422.185	2473.09
422.393	2575.49
422.601	2825.34
422.809	2790.53
423.017	2833.54
423.224	2983.04
423.432	3069.05
423.64	3116.16
423.848	3329.14
424.056	3097.72
424.263	3497.08
424.471	3579
424.679	3699.83
424.887	3744.88
425.094	3867.76
425.302	3890.29
425.51	4015.21
425.718	4201.58
425.925	4078.7
426.133	4467.81
426.341	4598.88
426.548	4582.5
426.756	4772.96
426.964	5155.93
427.171	5125.21
427.379	5278.81
427.586	5393.5
427.794	5557.33
428.001	5700.69
428.209	6001.74
428.417	5762.13
428.624	6310.99
428.832	6276.17
429.039	6270.03
429.247	6323.27
429.454	6802.5
429.662	7541.82
429.869	6872.13
430.076	7216.19
430.284	7052.35
430.491	7425.08
430.699	7855.15
430.906	7844.91
431.114	7998.51
431.321	8281.13
431.528	8412.2
431.736	8817.7
431.943	9536.54
432.15	9016.35
432.358	9067.55
432.565	9712.66
432.772	9616.41
432.979	10134.54
433.187	10298.38
433.394	10398.73
433.601	11049.99
433.808	11097.09
434.016	10798.09
434.223	11336.7
434.43	12112.88
434.637	12016.63
434.844	12420.08
435.052	12893.16
435.259	12823.53
435.466	12905.45
435.673	12567.53
435.88	13722.59
436.087	14156.75
436.294	14351.31
436.501	13802.46
436.708	14271.44
436.915	14721.99
437.122	15262.66
437.329	15190.98
437.537	15666.11
437.743	16131
437.95	15831.99
438.157	16866.22
438.364	17298.34
438.571	17236.9
438.778	17333.15
438.985	18721.68
439.192	18033.56
439.399	18705.29
439.606	18322.32
439.813	19186.57
440.02	20466.55
440.227	20106.1
440.433	19954.55
440.64	20616.05
440.847	20431.73
441.054	20847.47
441.261	22276.95
441.467	21887.84
441.674	22504.28
441.881	23429.96
442.088	23057.23
442.294	22944.59
442.501	23622.47
442.708	24181.56
442.914	24734.51
443.121	25758.5
443.328	25484.07
443.534	27169.55
443.741	26428.18
443.948	25905.95
444.154	28058.37
444.361	27816.71
444.568	27988.74
444.774	27845.38
444.981	28363.51
445.187	29006.58
445.394	29809.38
445.6	30094.05
445.807	32635.58
446.013	31029.97
446.22	31900.36
446.426	33131.19
446.633	33034.93
446.839	34427.55
447.046	32940.72
447.252	34804.38
447.459	34923.16
447.665	34611.87
447.871	36067.97
448.078	37679.72
448.284	36088.45
448.491	37030.52
448.697	38441.57
448.903	39309.91
449.11	38912.6
449.316	38472.29
449.522	39180.88
449.728	40335.94
449.935	40571.46
450.141	40272.45
450.347	41720.37
450.553	40215.11
450.76	40651.33
450.966	41851.44
451.172	41058.87
451.378	42435.11
451.584	41568.82
451.791	42754.59
451.997	42066.47
452.203	43160.09
452.409	43313.69
452.615	42717.73
452.821	41140.79
453.027	40725.05
453.233	42920.48
453.44	40952.38
453.646	41646.64
453.852	42000.94
454.058	42840.6
454.264	41003.58
454.47	42099.24
454.676	40929.85
454.882	42549.79
455.088	39025.24
455.294	39219.8
455.5	39948.87
455.705	40364.61
455.911	38445.66
456.117	37327.47
456.323	37606
456.529	35488.4
456.735	36682.36
456.941	35932.81
457.147	35381.9
457.352	34245.28
457.558	34278.05
457.764	34157.22
457.97	33387.18
458.176	32717.5
458.381	32369.34
458.587	30647
458.793	30771.93
458.999	29297.39
459.204	31427.28
459.41	30503.64
459.616	28644.09
459.821	28693.24
460.027	28736.24
460.233	27902.72
460.438	26690.32
460.644	26858.26
460.85	25285.42
461.055	24935.21
461.261	25029.42
461.466	23317.32
461.672	22494.04
461.878	24146.75
462.083	22473.56
462.289	22066.01
462.494	21738.33
462.7	20898.67
462.905	20218.74
463.111	21070.7
463.316	20861.8
463.522	20702.06
463.727	20861.8
463.932	20876.14
464.138	20265.85
464.343	20341.62
464.549	19600.26
464.754	20446.07
464.959	20263.8
465.165	20308.85
465.37	19286.92
465.575	18877.32
465.781	19499.91
465.986	19682.17
466.191	19030.92
466.397	18758.54
466.602	17677.21
466.807	18320.28
467.012	18281.36
467.218	18426.77
467.423	17761.18
467.628	17933.21
467.833	18815.88
468.038	18305.94
468.244	17931.16
468.449	18230.16
468.654	17693.6
468.859	17449.89
469.064	17210.28
469.269	16757.67
469.474	16980.9
469.679	17398.69
469.885	16733.1
470.09	16944.04
470.295	16974.76
470.5	16143.28
470.705	16608.17
470.91	16278.45
471.115	15907.77
471.32	16251.83
471.525	16294.83
471.73	15932.34
471.935	15639.48
472.139	15233.99
472.344	15258.56
472.549	15107.01
472.754	15076.29
472.959	14902.22
473.164	14388.18
473.369	14244.82
473.574	14617.55
473.778	14580.68
473.983	14320.59
474.188	14480.33
474.393	13732.83
474.598	13999.06
474.802	13716.44
475.007	13628.38
475.212	13517.79
475.417	13155.3
475.621	13235.17
475.826	13163.49
476.031	12977.12
476.235	12702.7
476.44	12921.83
476.645	12528.62
476.849	12610.54
477.054	12413.93
477.259	12616.68
477.463	12155.89
477.668	12061.68
477.872	11959.28
478.077	11875.32
478.282	11566.07
478.486	11613.18
478.691	11627.51
478.895	11451.39
479.1	11265.02
479.304	11426.81
479.509	10996.74
479.713	11201.54
479.918	10800.13
480.122	10767.37
480.326	11109.38
480.531	11037.7
480.735	10984.45
480.94	10566.67
481.144	11127.81
481.348	10544.14
481.553	10707.98
481.757	10361.87
481.961	10480.65
482.166	10767.37
482.37	10773.51
482.574	10361.87
482.778	10796.04
482.983	10845.19
483.187	10652.68
483.391	10759.17
483.595	10675.21
483.8	10419.21
484.004	10521.61
484.208	10746.89
484.412	10581
484.616	10581
484.821	10857.48
485.025	10384.4
485.229	10576.91
485.433	10568.71
485.637	10669.06
485.841	10365.96
486.045	10433.55
486.249	10515.47
486.453	10343.44
486.657	10492.94
486.861	10697.74
487.065	10132.5
487.269	10277.9
487.473	10368.01
487.677	10279.95
487.881	10540.04
488.085	10343.44
488.289	10669.06
488.493	10370.06
488.697	10533.9
488.901	10691.59
489.105	10533.9
489.309	10621.96
489.512	10550.28
489.716	10423.31
489.92	10802.18
490.124	10615.82
490.328	10677.26
490.531	10480.65
490.735	10691.59
490.939	10855.43
491.143	10486.79
491.346	10531.85
491.55	10757.13
491.754	11000.83
491.958	10767.37
492.161	10912.77
492.365	10865.67
492.569	10677.26
492.772	10771.46
492.976	10968.07
493.18	11074.56
493.383	11318.27
493.587	11140.1
493.79	11181.06
493.994	11240.45
494.197	11285.5
494.401	11484.16
494.605	11357.18
494.808	11758.58
495.012	11525.11
495.215	11672.57
495.419	11840.5
495.622	11635.71
495.825	11746.3
496.029	11836.41
496.232	12192.75
496.436	12000.24
496.639	12426.22
496.843	12360.69
497.046	12721.13
497.249	12618.73
497.453	12676.07
497.656	12762.09
497.859	12866.53
498.063	12950.5
498.266	13503.45
498.469	13112.29
498.673	13321.18
498.876	13521.88
499.079	13751.26
499.282	13542.36
499.485	14070.74
499.689	13927.38
499.892	14185.43
500.095	14123.99
500.298	14617.55
500.501	14367.7
500.705	14896.07
500.908	15021
501.111	15055.81
501.314	15143.88
501.517	15360.96
501.72	15489.98
501.923	15555.52
502.126	15827.9
502.329	16131
502.532	16135.09
502.735	15915.96
502.938	16479.15
503.141	16530.35
503.344	16794.54
503.547	16833.45
503.75	17056.68
503.953	17300.39
504.156	17443.74
504.359	17583.01
504.562	17636.25
504.765	18064.28
504.968	18113.43
505.17	18402.19
505.373	18768.78
505.576	18887.56
505.779	18770.83
505.982	18946.95
506.185	19346.31
506.387	19463.04
506.59	19442.56
506.793	20202.36
506.996	19692.41
507.198	20487.03
507.401	20364.15
507.604	20368.24
507.807	20673.39
508.009	21281.64
508.212	20933.48
508.415	21537.63
508.617	21545.83
508.82	21646.18
509.022	21807.97
509.225	22139.74
509.428	22643.54
509.63	22455.12
509.833	22643.54
510.035	23268.17
510.238	23280.46
510.44	23405.38
510.643	23622.47
510.845	24152.89
511.048	23987
511.25	24202.04
511.453	24292.15
511.655	25015.08
511.858	24847.15
512.06	24912.69
512.262	25496.36
512.465	25574.18
512.667	25762.59
512.87	26073.88
513.072	26264.35
513.274	26675.99
513.477	26757.91
513.679	27073.29
513.881	27181.84
514.084	27288.33
514.286	27435.78
514.488	27507.46
514.69	28357.37
514.893	28334.84
515.095	28601.08
515.297	28848.88
515.499	28857.07
515.701	29106.93
515.904	29729.51
516.106	29704.93
516.308	29782.76
516.51	30661.33
516.712	30696.15
516.914	30505.69
517.116	31118.03
517.318	31134.42
517.52	31269.58
517.722	31277.77
517.925	31824.58
518.127	32127.68
518.329	32469.69
518.531	31763.14
518.733	32789.17
518.935	32903.86
519.136	33061.55
519.338	33555.11
519.54	33493.68
519.742	33819.3
519.944	33780.39
520.146	34339.49
520.348	34124.45
520.55	34661.02
520.752	34624.15
520.954	35123.86
521.155	35056.28
521.357	35326.61
521.559	35631.75
521.761	35904.13
521.963	35730.06
522.164	36092.55
522.366	36250.24
522.568	36483.71
522.77	36772.47
522.971	36663.93
523.173	36928.12
523.375	36870.78
523.576	36858.49
523.778	37073.52
523.98	37454.45
524.181	37724.78
524.383	37583.47
524.584	37933.67
524.786	37849.71
524.988	38005.35
525.189	38492.77
525.391	38443.62
525.592	38414.94
525.794	38566.49
525.995	38775.39
526.197	38314.59
526.398	38531.68
526.6	38646.36
526.801	38912.6
527.003	39008.86
527.204	39055.96
527.406	39287.38
527.607	39080.53
527.808	39510.61
528.01	38709.85
528.211	39037.53
528.412	40045.13
528.614	39256.66
528.815	39656.01
529.016	39598.67
529.218	39678.54
529.419	40053.32
529.62	39334.48
529.822	39385.68
530.023	39514.7
530.224	39506.51
530.425	39709.26
530.626	39610.96
530.828	39213.65
531.029	39869
531.23	39752.27
531.431	39256.66
531.632	39318.1
531.833	39436.88
532.035	39416.4
532.236	39647.82
532.437	39584.33
532.638	39053.91
532.839	39453.26
533.04	39797.32
533.241	38949.46
533.442	39502.42
533.643	39367.25
533.844	39555.66
534.045	39187.03
534.246	39283.28
534.447	39785.04
534.648	39021.14
534.849	39166.55
535.05	39055.96
535.251	39129.69
535.451	39344.72
535.652	39311.95
535.853	39084.63
536.054	38883.93
536.255	39438.93
536.456	38277.73
536.657	39268.95
536.857	38470.24
537.058	38629.98
537.259	38748.76
537.46	38779.48
537.66	38578.78
537.861	38380.13
538.062	38543.97
538.263	38566.49
538.463	38201.96
538.664	38462.05
538.865	38406.75
539.065	38574.69
539.266	38161
539.466	38535.77
539.667	38161
539.868	38453.86
540.068	38242.92
540.269	38408.8
540.469	38564.45
540.67	38298.21
540.87	38394.46
541.071	38238.82
541.271	38183.52
541.472	38185.57
541.672	38074.98
541.873	38300.26
542.073	37739.11
542.274	38111.85
542.474	38009.45
542.675	37954.15
542.875	38040.17
543.075	37775.98
543.276	37689.96
543.476	38277.73
543.676	37915.24
543.877	37706.35
544.077	37964.39
544.277	37657.2
544.478	37374.58
544.678	38044.26
544.878	37859.94
545.078	37890.66
545.279	37876.33
545.479	37380.72
545.679	37902.95
545.879	38015.59
546.079	37565.04
546.28	37782.12
546.48	37350
546.68	37696.11
546.88	38005.35
547.08	37528.17
547.28	37546.61
547.48	36952.69
547.68	37780.07
547.88	37481.07
548.081	38048.36
548.281	37565.04
548.481	37626.48
548.681	37775.98
548.881	37829.23
549.081	37763.69
549.28	37155.44
549.48	37587.57
549.68	37720.68
549.88	37839.47
550.08	37479.02
550.28	37673.58
550.48	37306.99
550.68	37923.43
550.88	37120.63
551.08	37620.33
551.279	37466.73
551.479	37360.24
551.679	37888.62
551.879	37325.43
552.079	37620.33
552.278	37501.55
552.478	37495.41
552.678	37132.92
552.878	37536.37
553.077	37444.21
553.277	37515.89
553.477	38052.45
553.676	37706.35
553.876	37732.97
554.076	37714.54
554.275	37671.53
554.475	37583.47
554.674	37988.97
554.874	37427.82
555.074	37694.06
555.273	37667.44
555.473	37816.94
555.672	37288.56
555.872	37595.76
556.071	37646.96
556.271	37933.67
556.47	37743.21
556.67	37413.49
556.869	37444.21
557.068	37794.41
557.268	37761.64
557.467	37722.73
557.667	37618.28
557.866	37421.68
558.065	37728.87
558.265	37341.81
558.464	37343.86
558.663	37833.32
558.863	36950.65
559.062	37800.55
559.261	37233.27
559.461	37870.18
559.66	37055.09
559.859	37550.7
560.058	37407.34
560.258	37417.58
560.457	37274.23
560.656	37720.68
560.855	37630.57
561.054	37780.07
561.253	37274.23
561.453	37839.47
561.652	37339.76
561.851	37722.73
562.05	37653.1
562.249	37143.16
562.448	37794.41
562.647	37386.86
562.846	37382.77
563.045	37644.91
563.244	36950.65
563.443	37485.17
563.642	36823.67
563.841	37474.93
564.04	37149.3
564.239	37302.9
564.438	37032.57
564.637	37055.09
564.836	37020.28
565.035	36813.43
565.234	37155.44
565.432	36909.69
565.631	36592.25
565.83	36983.41
566.029	36733.56
566.228	36620.92
566.427	36991.61
566.625	36344.45
566.824	36170.37
567.023	37003.89
567.222	35908.23
567.42	36872.82
567.619	36414.08
567.818	36330.11
568.016	36008.58
568.215	36354.69
568.414	36383.36
568.612	36526.72
568.811	36016.77
569.01	36084.36
569.208	35857.03
569.407	36305.54
569.605	35805.83
569.804	35744.39
570.002	35519.12
570.201	35920.52
570.4	35406.48
570.598	35463.82
570.797	35035.8
570.995	35826.31
571.193	35166.87
571.392	35469.97
571.59	35254.93
571.789	34953.88
571.987	35142.29
572.186	35007.12
572.384	34896.53
572.582	35121.81
572.781	35027.6
572.979	34230.94
573.177	34687.64
573.376	34681.5
573.574	34593.43
573.772	34554.52
573.971	34249.38
574.169	34251.42
574.367	34015.91
574.565	34230.94
574.763	33952.42
574.962	34007.72
575.16	33819.3
575.358	34017.96
575.556	33495.72
575.754	33809.06
575.952	33348.27
576.151	33764.01
576.349	33331.89
576.547	33127.09
576.745	33284.78
576.943	33465
577.141	33122.99
577.339	33243.82
577.537	33086.13
577.735	32975.54
577.933	32074.43
578.131	32795.32
578.329	32707.26
578.527	32221.89
578.725	32658.1
578.923	32432.83
579.121	32230.08
579.319	31986.37
579.516	32520.89
579.714	32273.09
579.912	32340.67
580.11	32129.73
580.308	31640.26
580.506	32049.86
580.704	31648.46
580.901	31965.89
581.099	31855.3
581.297	31527.63
581.495	31414.99
581.692	31660.74
581.89	31341.26
582.088	31576.78
582.285	31107.79
582.483	31423.18
582.681	31195.85
582.878	30929.62
583.076	30749.4
583.274	31081.17
583.471	30624.47
583.669	30411.48
583.866	30628.57
584.064	30483.16
584.262	30292.7
584.459	30479.07
584.657	30472.92
584.854	30716.63
585.052	30237.41
585.249	30075.62
585.447	30126.81
585.644	29829.86
585.841	29764.32
586.039	30147.29
586.236	29930.21
586.434	29514.47
586.631	29655.78
586.828	29422.31
587.026	29565.67
587.223	29274.86
587.42	29749.99
587.618	29766.37
587.815	29041.39
588.012	29293.29
588.21	29231.85
588.407	29295.34
588.604	28957.42
588.801	29002.48
588.999	28572.41
589.196	28779.25
589.393	28742.39
589.59	28723.96
589.787	28504.82
589.984	28375.8
590.182	28218.11
590.379	28789.49
590.576	28482.3
590.773	28312.31
590.97	28420.86
591.167	28277.5
591.364	27781.89
591.561	28314.36
591.758	27955.97
591.955	27732.74
592.152	28113.66
592.349	27716.36
592.546	27493.13
592.743	27978.5
592.94	27552.52
593.137	27755.27
593.334	27998.98
593.531	27257.61
593.727	27446.02
593.924	27474.7
594.121	27296.52
594.318	27685.64
594.515	27177.74
594.712	27276.04
594.908	27321.1
595.105	27419.4
595.302	27296.52
595.499	27040.53
595.696	26884.88
595.892	26635.03
596.089	27273.99
596.286	26954.51
596.482	26870.54
596.679	26589.97
596.876	26837.78
597.072	26510.1
597.269	26962.7
597.466	26432.28
597.662	26841.87
597.859	26817.3
598.055	26786.58
598.252	26264.35
598.448	26604.31
598.645	26501.91
598.841	26452.76
599.038	26626.84
599.234	26678.04
599.431	26336.02
599.627	26022.69
599.824	26438.42
600.02	26073.88
600.217	26002.21
600.413	26164
600.609	26198.81
600.806	26295.07
601.002	26422.04
601.198	26055.45
601.395	26018.59
601.591	26145.56
601.787	26002.21
601.984	25787.17
602.18	26542.87
602.376	26223.39
602.572	25944.86
602.769	26012.45
602.965	25981.73
603.161	26282.78
603.357	25592.61
603.553	25897.76
603.75	25740.07
603.946	26092.32
604.142	25963.29
604.338	25979.68
604.534	25834.27
604.73	25873.18
604.926	25555.75
605.122	25973.53
605.318	25656.1
605.514	25723.68
605.71	25797.41
605.906	25828.13
606.102	25756.45
606.298	25867.04
606.494	25879.33
606.69	25862.94
606.886	26145.56
607.082	25522.98
607.278	26108.7
607.474	25688.87
607.67	25914.14
607.866	25658.15
608.062	26254.11
608.257	25963.29
608.453	26053.41
608.649	26155.8
608.845	25895.71
609.041	25948.96
609.236	26204.95
609.432	25983.77
609.628	26092.32
609.824	25760.55
610.019	25686.82
610.215	25846.56
610.411	26016.54
610.606	25955.1
610.802	25864.99
610.998	25803.55
611.193	26254.11
611.389	25887.52
611.584	26026.78
611.78	25926.43
611.976	25951.01
612.171	26084.12
612.367	25989.92
612.562	25877.28
612.758	25774.88
612.953	25811.74
613.149	26196.76
613.344	25787.17
613.539	26125.08
613.735	26006.3
613.93	26233.63
614.126	26034.97
614.321	26098.46
614.517	25910.05
614.712	26254.11
614.907	26118.94
615.103	26250.01
615.298	25846.56
615.493	26430.23
615.688	26133.28
615.884	26217.24
616.079	25844.51
616.274	26368.79
616.47	26231.58
616.665	26327.83
616.86	26106.65
617.055	25942.81
617.25	25934.62
617.445	26112.8
617.641	25654.05
617.836	26051.36
618.031	25674.53
618.226	25832.22
618.421	25400.1
618.616	25666.34
618.811	25725.73
619.006	25701.15
619.201	25045.8
619.396	25568.04
619.591	25054
619.786	25547.56
619.981	25148.2
620.176	25666.34
620.371	24984.37
620.566	24912.69
620.761	24963.89
620.956	25320.23
621.151	24865.58
621.346	24972.08
621.541	24341.3
621.735	24869.68
621.93	24384.31
622.125	24726.32
622.32	24161.08
622.515	24132.41
622.709	23958.33
622.904	23984.96
623.099	23857.98
623.294	23786.3
623.488	23665.47
623.683	24046.4
623.878	23262.02
624.072	23651.14
624.267	23634.75
624.462	23133
624.656	23200.58
624.851	23137.1
625.046	22747.98
625.24	22534.99
625.435	22483.8
625.629	22881.1
625.824	22530.9
626.018	22530.9
626.213	22100.83
626.407	22145.88
626.602	22166.36
626.796	21934.94
626.991	22225.75
627.185	21818.21
627.38	21590.88
627.574	21531.49
627.768	21445.48
627.963	21449.57
628.157	21080.94
628.352	21304.17
628.546	20937.58
628.74	21302.12
628.935	20829.04
629.129	20710.25
629.323	20605.81
629.517	20403.06
629.712	20464.5
629.906	20421.49
630.1	20075.38
630.294	20374.39
630.489	20147.06
630.683	19989.37
630.877	19508.1
631.071	19358.6
631.265	19919.74
631.459	19696.51
631.653	19547.01
631.848	19516.29
632.042	19071.88
632.236	19143.56
632.43	18858.89
632.624	19112.84
632.818	19104.65
633.012	18699.15
633.206	18631.57
633.4	18617.23
633.594	18447.25
633.788	18645.9
633.982	18500.5
634.176	18109.33
634.369	18258.84
634.563	18107.29
634.757	18131.86
634.951	18150.29
635.145	17701.79
635.339	17681.31
635.533	17744.8
635.726	17746.84
635.92	17601.44
636.114	17318.82
636.308	17212.32
636.501	17271.72
636.695	17374.11
636.889	16968.62
637.083	16993.19
637.276	16794.54
637.47	16780.2
637.664	16661.42
637.857	16702.38
638.051	16620.46
638.244	16460.72
638.438	16303.03
638.632	16276.4
638.825	16124.85
639.019	15840.18
639.212	15829.95
639.406	15950.78
639.599	15983.54
639.793	15936.44
639.986	15682.49
640.18	15528.89
640.373	15383.49
640.567	15213.51
640.76	15424.45
640.954	15217.6
641.147	15164.36
641.34	14945.22
641.534	14748.62
641.727	14734.28
641.92	14869.45
642.114	14459.85
642.307	14605.26
642.5	14492.62
642.694	14289.87
642.887	14146.51
643.08	14617.55
643.273	14236.63
643.467	14001.11
643.66	13882.33
643.853	13847.51
644.046	13722.59
644.239	13824.98
644.432	13714.39
644.626	13618.14
644.819	13306.85
645.012	13544.41
645.205	13415.39
645.398	13396.96
645.591	13247.46
645.784	13032.42
645.977	13003.75
646.17	12889.06
646.363	12897.25
646.556	12876.77
646.749	12753.9
646.942	12731.37
647.135	12573.67
647.328	12633.07
647.521	12557.29
647.714	12342.25
647.907	12346.35
648.099	12356.59
648.292	12248.05
648.485	12172.27
648.678	11885.56
648.871	12002.29
649.064	11764.73
649.256	11963.38
649.449	11910.13
649.642	11701.24
649.835	11557.88
650.027	11424.76
650.22	11723.77
650.413	11344.89
650.605	11283.45
650.798	11326.46
650.991	11103.23
651.183	11158.53
651.376	11189.25
651.568	11103.23
651.761	11103.23
651.954	11037.7
652.146	10791.94
652.339	10642.44
652.531	10937.35
652.724	10748.93
652.916	10589.19
653.109	10454.03
653.301	10617.86
653.494	10675.21
653.686	10427.4
653.879	10531.85
654.071	10435.6
654.263	10241.04
654.456	10322.96
654.648	10236.94
654.84	10130.45
655.033	9937.94
655.225	10028.05
655.417	9733.14
655.61	9962.51
655.802	10101.78
655.994	9833.49
656.186	9796.63
656.379	9557.02
656.571	9620.5
656.763	9427.99
656.955	9520.15
657.148	9528.35
657.34	9464.86
657.532	9331.74
657.724	9348.12
657.916	9198.62
658.108	9296.92
658.3	9112.61
658.492	9133.09
658.684	9061.41
658.876	8764.45
659.068	8969.25
659.26	8959.01
659.452	8739.88
659.644	8879.14
659.836	8674.34
660.028	8903.71
660.22	8588.33
660.412	8645.67
660.604	8657.96
660.796	8668.2
660.988	8502.31
661.18	8389.67
661.372	8365.1
661.563	8436.78
661.755	8340.52
661.947	8332.33
662.139	8076.34
662.331	8176.69
662.522	7978.03
662.714	8057.9
662.906	8031.28
663.097	7996.46
663.289	7992.37
663.481	7783.48
663.673	7869.49
663.864	7797.81
664.056	7744.56
664.247	7701.56
664.439	7674.93
664.631	7597.11
664.822	7648.31
665.014	7568.44
665.205	7519.29
665.397	7353.4
665.588	7316.54
665.78	7359.55
665.971	7576.63
666.163	7361.59
666.354	7242.81
666.546	7341.11
666.737	6970.43
666.929	7380.03
667.12	7175.23
667.311	7205.95
667.503	7195.71
667.694	7150.65
667.885	6937.66
668.077	6954.05
668.268	7031.87
668.459	6902.85
668.651	6900.8
668.842	6700.1
669.033	6741.06
669.224	6818.88
669.416	6751.3
669.607	6679.62
669.798	6573.13
669.989	6689.86
670.18	6597.7
670.371	6423.62
670.563	6638.66
670.754	6595.65
670.945	6399.05
671.136	6472.78
671.327	6366.28
671.518	6388.81
671.709	6446.15
671.9	6282.31
672.091	6278.22
672.282	6290.51
672.473	6257.74
672.664	6304.84
672.855	6224.97
673.046	6198.35
673.237	6224.97
673.428	6143.05
673.619	6130.77
673.809	6083.66
674	5966.93
674.191	6024.27
674.382	5964.88
674.573	5786.71
674.764	5989.46
674.954	5934.16
675.145	5842
675.336	5835.86
675.527	5846.1
675.717	5815.38
675.908	5880.91
676.099	5880.91
676.289	5770.32
676.48	5626.96
676.671	5737.56
676.861	5577.81
677.052	5676.12
677.243	5626.96
677.433	5659.73
677.624	5751.89
677.814	5721.17
678.005	5645.4
678.195	5530.71
678.386	5528.66
678.576	5479.51
678.767	5583.96
678.957	5381.21
679.148	5565.53
679.338	5549.14
679.529	5680.21
679.719	5356.63
679.909	5327.96
680.1	5452.89
680.29	5538.9
680.481	5356.63
680.671	5375.06
680.861	5293.15
681.052	5317.72
681.242	5186.65
681.432	5442.65
681.622	5299.29
681.813	5424.22
682.003	5389.4
682.193	5258.33
682.383	5373.02
682.573	5233.75
682.764	5330.01
682.954	5334.11
683.144	5172.32
683.334	5260.38
683.524	5080.16
683.714	5213.28
683.904	5289.05
684.094	5200.99
684.284	5063.77
684.474	5203.04
684.664	5127.26
684.854	5110.88
685.044	5129.31
685.234	5024.86
685.424	5033.05
685.614	4969.57
685.804	5012.57
685.994	5024.86
686.184	4953.18
686.374	4959.33
686.564	5008.48
686.753	4988
686.943	4973.66
687.133	4916.32
687.323	4922.46
687.513	4975.71
687.702	4944.99
687.892	4908.13
688.082	4760.67
688.272	4727.91
688.461	4826.21
688.651	4891.74
688.841	4807.78
689.03	4715.62
689.22	4580.45
689.41	4695.14
689.599	4645.99
689.789	4740.19
689.979	4711.52
690.168	4598.88
690.358	4709.47
690.547	4736.1
690.737	4602.98
690.926	4613.22
691.116	4695.14
691.305	4572.26
691.495	4570.21
691.684	4502.63
691.874	4553.83
692.063	4525.16
692.252	4557.93
692.442	4672.61
692.631	4400.23
692.82	4148.33
693.01	4258.92
693.199	4574.31
693.388	4318.31
693.578	4443.24
693.767	4400.23
693.956	4301.93
694.146	4260.97
694.335	4283.5
694.524	4359.27
694.713	4234.35
694.902	4451.43
695.092	4281.45
695.281	4279.4
695.47	4193.39
695.659	4265.07
695.848	4111.47
696.037	4199.53
696.226	4017.26
696.415	4160.62
696.604	4228.2
696.793	4201.58
696.982	4168.81
697.171	4185.19
697.36	3908.72
697.549	4121.71
697.738	3984.49
697.927	4039.79
698.116	4170.86
698.305	4029.55
698.494	4119.66
698.683	4185.19
698.872	4078.7
699.061	4193.39
699.25	4119.66
699.438	3916.91
699.627	3945.58
699.816	4041.84
700.005	3914.86
700.193	4007.02
700.382	3898.48
700.571	3996.78
700.76	3918.96
700.948	4134
701.137	3951.73
701.326	3751.03
701.514	3847.28
701.703	3914.86
701.892	3851.38
702.08	3972.21
702.269	3869.81
702.457	3933.29
702.646	3869.81
702.834	3820.66
703.023	3738.74
703.212	3759.22
703.4	3708.02
703.589	3697.78
703.777	3757.17
703.965	3644.53
704.154	3622
704.342	3619.96
704.531	3662.96
704.719	3466.36
704.907	3720.31
705.096	3538.04
705.284	3517.56
705.472	3535.99
705.661	3501.17
705.849	3550.32
706.037	3615.86
706.226	3626.1
706.414	3402.87
706.602	3456.12
706.79	3548.28
706.979	3585.14
707.167	3390.58
707.355	3454.07
707.543	3427.45
707.731	3376.25
707.919	3495.03
708.107	3359.86
708.296	3349.62
708.484	3394.68
708.672	3329.14
708.86	3359.86
709.048	3302.52
709.236	3234.94
709.424	3429.49
709.612	3359.86
709.8	3288.18
709.988	3198.07
710.176	3263.61
710.364	3214.46
710.551	3284.09
710.739	3241.08
710.927	3236.99
711.115	3161.21
711.303	3193.98
711.491	3161.21
711.679	3206.27
711.866	3179.64
712.054	3349.62
712.242	3032.19
712.43	3267.7
712.617	3064.96
712.805	3030.14
712.993	3153.02
713.181	3056.76
713.368	3007.61
713.556	3150.97
713.744	2964.61
713.931	3105.92
714.119	2972.8
714.306	2991.23
714.494	2903.17
714.682	2980.99
714.869	2993.28
715.057	3093.63
715.244	2999.42
715.432	3009.66
715.619	3087.48
715.807	2991.23
715.994	3038.33
716.182	2870.4
716.369	2915.45
716.556	2915.45
716.744	2841.73
716.931	2837.63
717.119	2925.69
717.306	2854.02
717.493	2884.73
717.681	2720.9
717.868	2755.71
718.055	2913.41
718.242	2841.73
718.43	2751.62
718.617	2882.69
718.804	2851.97
718.991	2747.52
719.179	2745.47
719.366	2661.51
719.553	2747.52
719.74	2729.09
719.927	2696.32
720.114	2759.81
720.301	2653.31
720.488	2636.93
720.676	2509.96
720.863	2751.62
721.05	2714.75
721.237	2645.12
721.424	2706.56
721.611	2649.22
721.798	2479.24
721.985	2499.72
722.172	2669.7
722.358	2706.56
722.545	2499.72
722.732	2694.27
722.919	2534.53
723.106	2462.85
723.293	2577.54
723.48	2548.87
723.667	2522.24
723.853	2555.01
724.04	2438.28
724.227	2493.57
724.414	2419.85
724.6	2575.49
724.787	2473.09
724.974	2450.57
725.161	2530.44
725.347	2366.6
725.534	2448.52
725.72	2460.81
725.907	2434.18
726.094	2469
726.28	2376.84
726.467	2356.36
726.653	2364.55
726.84	2466.95
727.027	2374.79
727.213	2280.58
727.4	2292.87
727.586	2350.21
727.773	2358.41
727.959	2290.82
728.145	2296.97
728.332	2380.93
728.518	2280.58
728.705	2315.4
728.891	2178.19
729.077	2284.68
729.264	2276.49
729.45	2342.02
729.636	2278.54
729.823	2368.65
730.009	2274.44
730.195	2223.24
730.382	2108.55
730.568	2155.66
730.754	2231.43
730.94	2188.43
731.126	2251.91
731.313	2243.72
731.499	2213
731.685	2325.64
731.871	2112.65
732.057	2194.57
732.243	2247.82
732.429	2182.28
732.615	2149.51
732.801	2290.82
732.987	2088.07
733.173	2161.8
733.359	2153.61
733.545	2104.46
733.731	2055.31
733.917	2268.3
734.103	2090.12
734.289	2206.86
734.475	2002.06
734.661	2090.12
734.847	2094.22
735.033	2153.61
735.219	2180.23
735.404	2000.01
735.59	2079.88
735.776	1997.96
735.962	2014.35
736.148	2014.35
736.333	2028.68
736.519	2034.83
736.705	2102.41
736.89	2069.64
737.076	2059.4
737.262	1967.24
737.447	1938.57
737.633	1942.67
737.819	2010.25
738.004	1973.39
738.19	1821.84
738.375	1848.46
738.561	1852.56
738.747	1936.53
738.932	1959.05
739.118	1922.19
739.303	1875.09
739.489	1924.24
739.674	1850.51
739.859	1836.17
740.045	1799.31
740.23	1866.89
740.416	1809.55
740.601	1860.75
740.786	1883.28
740.972	1848.46
741.157	1854.61
741.342	1789.07
741.528	1805.46
741.713	1842.32
741.898	1784.98
742.084	1838.22
742.269	1811.6
742.454	1834.13
742.639	1891.47
742.824	1787.02
743.01	1891.47
743.195	1809.55
743.38	1678.48
743.565	1746.06
743.75	1672.34
743.935	1727.63
744.12	1729.68
744.305	1653.91
744.49	1694.86
744.675	1719.44
744.86	1662.1
745.045	1633.43
745.23	1524.88
745.415	1719.44
745.6	1598.61
745.785	1696.91
745.97	1600.66
746.155	1647.76
746.34	1604.75
746.525	1614.99
746.71	1703.06
746.895	1549.46
747.079	1502.36
747.264	1565.84
747.449	1510.55
747.634	1563.79
747.819	1563.79
748.003	1488.02
748.188	1518.74
748.373	1533.08
748.557	1459.35
748.742	1490.07
748.927	1490.07
749.111	1485.97
749.296	1426.58
749.481	1547.41
749.665	1410.2
749.85	1442.96
750.034	1428.63
750.219	1373.33
750.404	1254.55
750.588	1318.04
750.773	1399.96
750.957	1404.05
751.141	1418.39
751.326	1354.9
751.51	1307.8
751.695	1334.42
751.879	1336.47
752.064	1367.19
752.248	1367.19
752.432	1266.84
752.617	1268.89
752.801	1318.04
752.985	1234.07
753.17	1289.37
753.354	1199.26
753.538	1359
753.722	1211.54
753.907	1178.78
754.091	1176.73
754.275	1227.93
754.459	1119.39
754.643	1168.54
754.828	1137.82
755.012	1117.34
755.196	1074.33
755.38	1064.09
755.564	1158.3
755.748	1033.37
755.932	1123.48
756.116	1055.9
756.3	1072.28
756.484	1113.24
756.668	1189.02
756.852	1082.52
757.036	1103
757.22	1016.99
757.404	1074.33
757.588	1008.8
757.772	1078.43
757.956	949.4
758.14	1055.9
758.323	996.51
758.507	1031.32
758.691	998.56
758.875	1115.29
759.059	1068.19
759.242	994.46
759.426	1006.75
759.61	1002.65
759.794	1055.9
759.977	1031.32
760.161	978.08
760.345	973.98
760.528	973.98
760.712	1051.8
760.895	973.98
761.079	998.56
761.263	892.06
761.446	883.87
761.63	855.2
761.813	955.55
761.997	828.57
762.18	916.64
762.364	943.26
762.547	834.72
762.731	941.21
762.914	914.59
763.098	853.15
763.281	849.05
763.464	900.25
763.648	842.91
763.831	861.34
764.015	801.95
764.198	928.92
764.381	806.05
764.564	832.67
764.748	853.15
764.931	830.62
765.114	756.9
765.297	785.57
765.481	822.43
765.664	797.85
765.847	763.04
766.03	834.72
766.213	818.33
766.397	873.63
766.58	705.7
766.763	853.15
766.946	826.53
767.129	787.61
767.312	715.94
767.495	760.99
767.678	744.61
767.861	834.72
768.044	748.7
768.227	777.37
768.41	730.27
768.593	863.39
768.776	740.51
768.959	799.9
769.142	842.91
769.324	711.84
769.507	834.72
769.69	785.57
769.873	779.42
770.056	795.81
770.239	681.12
770.421	793.76
770.604	769.18
770.787	740.51
770.97	679.07
771.152	662.69
771.335	736.42
771.518	724.13
771.7	685.22
771.883	736.42
772.066	726.18
772.248	640.16
772.431	705.7
772.613	732.32
772.796	601.25
772.978	715.94
773.161	693.41
773.343	588.96
773.526	601.25
773.708	646.3
773.891	687.26
774.073	662.69
774.256	664.74
774.438	760.99
774.621	548
774.803	648.35
774.985	650.4
775.168	674.98
775.35	582.82
775.532	611.49
775.715	609.44
775.897	664.74
776.079	631.97
776.261	603.3
776.444	562.34
776.626	556.19
776.808	515.23
776.99	666.78
777.173	507.04
777.355	560.29
777.537	615.59
777.719	498.85
777.901	580.77
778.083	607.39
778.265	500.9
778.447	582.82
778.629	531.62
778.811	535.71
778.993	591.01
779.175	556.19
779.357	476.32
779.539	474.28
779.721	558.24
779.903	521.38
780.085	457.89
780.267	566.43
780.449	599.2
780.631	500.9
780.812	554.15
780.994	511.14
781.176	453.8
781.358	527.52
781.54	498.85
781.721	511.14
781.903	523.43
782.085	482.47
782.267	564.39
782.448	437.41
782.63	498.85
782.812	507.04
782.993	509.09
783.175	515.23
783.357	396.45
783.538	488.61
783.72	400.55
783.901	392.36
784.083	449.7
784.264	443.56
784.446	443.56
784.627	523.43
784.809	359.59
784.99	361.64
785.172	408.74
785.353	380.07
785.535	416.93
785.716	394.4
785.897	365.73
786.079	400.55
786.26	392.36
786.441	441.51
786.623	421.03
786.804	308.39
786.985	314.53
787.167	367.78
787.348	394.4
787.529	347.3
787.71	478.37
787.891	427.17
788.073	330.92
788.254	347.3
788.435	371.88
788.616	332.97
788.797	343.21
788.978	363.69
789.159	300.2
789.34	345.25
789.522	320.68
789.703	298.15
789.884	304.29
790.065	392.36
790.246	365.73
790.427	306.34
790.607	343.21
790.788	388.26
790.969	322.73
791.15	310.44
791.331	271.53
791.512	277.67
791.693	326.82
791.874	271.53
792.054	320.68
792.235	269.48
792.416	253.09
792.597	269.48
792.778	330.92
792.958	369.83
793.139	220.33
793.32	253.09
793.5	236.71
793.681	328.87
793.862	363.69
794.042	228.52
794.223	246.95
794.404	300.2
794.584	257.19
794.765	263.33
794.945	292.01
795.126	361.64
795.306	271.53
795.487	220.33
795.667	316.58
795.848	261.29
796.028	220.33
796.209	281.77
796.389	261.29
796.57	226.47
796.75	205.99
796.93	236.71
797.111	249
797.291	287.91
797.471	261.29
797.652	205.99
797.832	150.7
798.012	220.33
798.192	189.61
798.373	205.99
798.553	191.66
798.733	212.14
798.913	265.38
799.093	249
799.274	232.62
799.454	212.14
799.634	269.48
799.814	271.53
799.994	236.71
800.174	181.42
800.354	195.75
800.534	144.55
800.714	191.66
800.894	195.75
801.074	210.09
801.254	195.75
801.434	294.05
801.614	185.51
801.794	199.85
801.974	933.02
802.154	132.26
802.334	85.16
802.514	216.23
802.693	236.71
802.873	189.61
803.053	244.9
803.233	158.89
803.413	179.37
803.592	208.04
803.772	205.99
803.952	216.23
804.131	189.61
804.311	171.18
804.491	212.14
804.67	173.22
804.85	240.81
805.03	189.61
805.209	203.94
805.389	210.09
805.568	230.57
805.748	189.61
805.928	228.52
806.107	146.6
806.287	152.74
806.466	244.9
806.646	187.56
806.825	179.37
807.004	158.89
807.184	109.74
807.363	162.98
807.543	158.89
807.722	138.41
807.901	205.99
808.081	226.47
808.26	142.5
808.439	128.17
808.619	138.41
808.798	162.98
808.977	113.83
809.156	224.42
809.336	105.64
809.515	167.08
809.694	115.88
809.873	124.07
810.052	140.46
810.231	220.33
810.411	162.98
810.59	167.08
810.769	162.98
810.948	101.55
811.127	-15.19
811.306	173.22
811.485	-4.95
811.664	150.7
811.843	81.07
812.022	208.04
812.201	183.46
812.38	162.98
812.559	70.83
812.737	138.41
812.916	48.3
813.095	122.02
813.274	89.26
813.453	146.6
813.632	142.5
813.811	126.12
813.989	46.25
814.168	158.89
814.347	146.6
814.526	146.6
814.704	138.41
814.883	130.22
815.062	81.07
815.24	122.02
815.419	105.64
815.598	87.21
815.776	113.83
815.955	124.07
816.133	23.72
816.312	76.97
816.49	48.3
816.669	113.83
816.847	111.78
817.026	56.49
817.204	46.25
817.383	124.07
817.561	183.46
817.74	97.45
817.918	99.5
818.097	162.98
818.275	68.78
818.453	138.41
818.632	33.96
818.81	142.5
818.988	93.35
819.167	48.3
819.345	105.64
819.523	74.92
819.701	97.45
819.879	97.45
820.058	130.22
820.236	130.22
820.414	130.22
820.592	89.26
820.77	115.88
820.948	85.16
821.127	81.07
821.305	66.73
821.483	-27.48
821.661	81.07
821.839	36.01
822.017	89.26
822.195	72.87
822.373	142.5
822.551	68.78
822.729	31.91
822.907	56.49
823.085	130.22
823.262	66.73
823.44	81.07
823.618	107.69
823.796	91.31
823.974	52.39
824.152	89.26
824.329	87.21
824.507	132.26
824.685	58.54
824.863	15.53
825.04	64.68
825.218	193.7
825.396	81.07
825.574	122.02
825.751	122.02
825.929	68.78
826.107	113.83
826.284	115.88
826.462	152.74
826.639	113.83
826.817	79.02
826.994	23.72
827.172	-7
827.349	117.93
827.527	81.07
827.704	66.73
827.882	62.63
828.059	52.39
828.237	117.93
828.414	158.89
828.591	17.58
828.769	40.11
828.946	42.15
829.124	70.83
829.301	154.79
829.478	89.26
829.655	-0.85
829.833	89.26
830.01	-0.85
830.187	107.69
830.364	15.53
830.542	97.45
830.719	68.78
830.896	101.55
831.073	64.68
831.25	48.3
831.427	56.49
831.604	60.59
831.782	15.53
831.959	42.15
832.136	85.16
832.313	66.73
832.49	72.87
832.667	138.41
832.844	11.43
833.021	138.41
833.198	-9.05
833.374	70.83
833.551	113.83
833.728	72.87
833.905	83.11
834.082	15.53
834.259	13.48
834.436	97.45
834.612	36.01
834.789	173.22
834.966	64.68
835.143	-25.43
835.319	81.07
835.496	76.97
835.673	62.63
835.85	1.19
836.026	87.21
836.203	91.31
836.38	52.39
836.556	36.01
836.733	27.82
836.909	107.69
837.086	58.54
837.262	-31.57
837.439	54.44
837.616	68.78
837.792	11.43
837.968	-4.95
838.145	19.63
838.321	122.02
838.498	64.68
838.674	58.54
838.851	109.74
839.027	17.58
839.203	99.5
839.38	109.74
839.556	11.43
839.732	48.3
839.909	-13.14
840.085	36.01
840.261	79.02
840.437	1.19
840.614	11.43
840.79	76.97
840.966	31.91
841.142	27.82
841.318	-9.05
841.494	113.83
841.671	31.91
841.847	-31.57
842.023	9.39
842.199	58.54
842.375	79.02
842.551	48.3
842.727	-37.72
842.903	105.64
843.079	7.34
843.255	101.55
843.431	11.43
843.607	40.11
843.783	-45.91
843.959	40.11
844.134	-21.33
844.31	103.59
844.486	-23.38
844.662	7.34
844.838	15.53
845.013	115.88
845.189	60.59
845.365	9.39
845.541	64.68
845.716	-4.95
845.892	85.16
846.068	11.43
846.244	11.43
846.419	42.15
846.595	64.68
846.77	66.73
846.946	81.07
847.122	33.96
847.297	-45.91
847.473	97.45
847.648	25.77
847.824	-21.33
847.999	-86.87
848.175	40.11
848.35	-25.43
848.526	66.73
848.701	27.82
848.876	64.68
849.052	74.92
849.227	68.78
849.403	115.88
849.578	25.77
849.753	85.16
849.929	74.92
850.104	-4.95
850.279	1.19
850.454	-9.05
850.63	52.39
850.805	23.72
850.98	66.73
851.155	-2.9
851.33	44.2
851.505	-62.29
851.681	38.06
851.856	-7
852.031	93.35
852.206	11.43
852.381	38.06
852.556	31.91
852.731	99.5
852.906	31.91
853.081	58.54
853.256	81.07
853.431	-21.33
853.606	-21.33
853.781	81.07
853.956	-7
854.131	48.3
854.305	21.67
854.48	-9.05
854.655	-27.48
854.83	15.53
855.005	27.82
855.18	-21.33
855.354	23.72
855.529	15.53
855.704	27.82
855.879	40.11
856.053	-11.09
856.228	-39.76
856.403	-41.81
856.577	76.97
856.752	-15.19
856.926	48.3
857.101	93.35
857.276	13.48
857.45	-13.14
857.625	-2.9
857.799	11.43
857.974	17.58
858.148	7.34
858.323	36.01
858.497	48.3
858.672	-58.2
858.846	31.91
859.02	101.55
859.195	-95.06
859.369	-23.38
859.543	25.77
859.718	23.72
859.892	1.19
860.066	48.3
860.241	-23.38
860.415	-0.85
860.589	62.63
860.763	-13.14
860.938	42.15
861.112	-35.67
861.286	7.34
861.46	44.2
861.634	-7
861.808	97.45
861.982	-45.91
862.157	-39.76
862.331	11.43
862.505	11.43
862.679	31.91
862.853	15.53
863.027	-9.05
863.201	81.07
863.375	-17.24
863.549	31.91
863.722	83.11
863.896	-17.24
864.07	9.39
864.244	33.96
864.418	56.49
864.592	50.35
864.766	-17.24
864.939	25.77
865.113	3.24
865.287	56.49
865.461	-27.48
865.634	17.58
865.808	58.54
865.982	-66.39
866.156	-33.62
866.329	27.82
866.503	56.49
866.676	15.53
866.85	115.88
867.024	-35.67
867.197	72.87
867.371	-17.24
867.544	-29.52
867.718	-99.16
867.891	7.34
868.065	21.67
868.238	5.29
868.412	11.43
868.585	9.39
868.759	-54.1
868.932	-7
869.105	89.26
869.279	9.39
869.452	-82.77
869.625	-56.15
869.799	31.91
869.972	-74.58
870.145	7.34
870.319	9.39
870.492	76.97
870.665	3.24
870.838	11.43
871.011	-41.81
871.185	-17.24
871.358	-4.95
871.531	31.91
871.704	-13.14
871.877	-15.19
872.05	-25.43
872.223	-7
872.396	64.68
872.569	48.3
872.742	-43.86
872.915	48.3
873.088	40.11
873.261	-74.58
873.434	15.53
873.607	29.87
873.78	91.31
873.953	-62.29
874.126	23.72
874.299	89.26
874.471	23.72
874.644	25.77
874.817	9.39
874.99	113.83
875.163	-80.72
875.335	42.15
875.508	15.53
875.681	91.31
875.853	-17.24
876.026	3.24
876.199	-52.05
876.371	1.19
876.544	-9.05
876.717	52.39
876.889	25.77
877.062	62.63
877.234	-78.68
877.407	-25.43
877.579	27.82
877.752	-25.43
877.924	87.21
878.097	72.87
878.269	-21.33
878.442	1.19
878.614	9.39
878.786	25.77
878.959	-0.85
879.131	9.39
879.303	-25.43
879.476	7.34
879.648	13.48
879.82	7.34
879.993	-66.39
880.165	-21.33
880.337	13.48
880.509	-17.24
880.681	-52.05
880.854	7.34
881.026	-23.38
881.198	1.19
881.37	-13.14
881.542	-0.85
881.714	-0.85
881.886	9.39
882.058	44.2
882.23	-17.24
882.402	-31.57
882.574	7.34
882.746	-13.14
882.918	130.22
883.09	-27.48
883.262	-60.24
883.434	-64.34
883.606	-29.52
883.778	-17.24
883.95	60.59
884.122	36.01
884.293	3.24
884.465	52.39
884.637	27.82
884.809	-58.2
884.98	-15.19
885.152	40.11
885.324	1.19
885.496	3.24
885.667	1.19
885.839	-2.9
886.011	42.15
886.182	66.73
886.354	23.72
886.525	23.72
886.697	-21.33
886.869	-29.52
887.04	1.19
887.212	-0.85
887.383	21.67
887.555	23.72
887.726	-17.24
887.897	1.19
888.069	15.53
888.24	-0.85
888.412	52.39
888.583	-9.05
888.754	7.34
888.926	7.34
889.097	-50
889.268	-35.67
889.44	-43.86
889.611	17.58
889.782	-41.81
889.953	23.72
890.125	58.54
890.296	-56.15
890.467	-15.19
890.638	-41.81
890.809	-23.38
890.98	-17.24
891.151	9.39
891.323	66.73
891.494	68.78
891.665	7.34
891.836	-33.62
892.007	-64.34
892.178	1.19
892.349	-82.77
892.52	23.72
892.691	42.15
892.862	15.53
893.032	-29.52
893.203	25.77
893.374	19.63
893.545	-15.19
893.716	-0.85
893.887	40.11
894.057	1.19
894.228	23.72
894.399	17.58
894.57	27.82
894.74	-37.72
894.911	38.06
895.082	-29.52
895.253	-33.62
895.423	-88.92
895.594	7.34
895.764	17.58
895.935	9.39
896.106	-0.85
896.276	17.58
896.447	-23.38
896.617	-70.48
896.788	-54.1
896.958	-29.52
897.129	-7
897.299	25.77
897.47	107.69
897.64	15.53
897.81	21.67
897.981	-47.96
898.151	-31.57
898.322	42.15
898.492	-25.43
898.662	-9.05
898.832	33.96
899.003	25.77
899.173	58.54
899.343	-23.38
899.513	38.06
