Data from USB4F104151__121__14-31-17-435.txt Node

Date: Thu Mar 13 14:31:17 EDT 2025
User: louis
Spectrometer: USB4F10415
Trigger mode: 4
Integration Time (sec): 2.500000E-2
Scans to average: 1
Electric dark correction enabled: true
Nonlinearity correction enabled: false
Boxcar width: 0
XAxis mode: Wavelengths
Number of Pixels in Spectrum: 3648
>>>>>Begin Spectral Data<<<<<
178.204	-119.29
178.424	-119.29
178.644	-119.29
178.864	-188.93
179.084	-55.81
179.304	19.97
179.524	7.68
179.744	-12.8
179.964	-6.66
180.184	7.68
180.404	11.78
180.624	-29.18
180.844	36.35
181.064	1.54
181.283	22.02
181.503	-59.9
181.723	1.54
181.943	-49.66
182.163	67.07
182.383	17.92
182.602	67.07
182.822	77.31
183.042	-23.04
183.262	40.45
183.482	56.83
183.701	69.12
183.921	58.88
184.141	-0.51
184.361	15.87
184.58	42.5
184.8	46.59
185.02	-27.14
185.239	73.21
185.459	46.59
185.679	108.03
185.898	-68.09
186.118	15.87
186.338	50.69
186.557	91.65
186.777	40.45
186.997	7.68
187.216	32.26
187.436	73.21
187.655	56.83
187.875	48.64
188.095	40.45
188.314	26.11
188.534	93.69
188.753	89.6
188.973	-2.56
189.192	93.69
189.412	-18.94
189.631	60.93
189.851	52.74
190.07	32.26
190.29	-31.23
190.509	26.11
190.729	7.68
190.948	126.46
191.168	138.75
191.387	120.32
191.607	91.65
191.826	73.21
192.045	-4.61
192.265	52.74
192.484	-25.09
192.704	-16.9
192.923	28.16
193.142	105.98
193.362	50.69
193.581	7.68
193.8	91.65
194.02	17.92
194.239	46.59
194.458	114.17
194.678	-53.76
194.897	48.64
195.116	-12.8
195.335	105.98
195.555	-20.99
195.774	34.3
195.993	15.87
196.212	-33.28
196.432	42.5
196.651	56.83
196.87	38.4
197.089	114.17
197.308	48.64
197.528	-0.51
197.747	19.97
197.966	-55.81
198.185	89.6
198.404	5.63
198.623	9.73
198.842	97.79
199.062	3.58
199.281	56.83
199.5	15.87
199.719	19.97
199.938	91.65
200.157	56.83
200.376	42.5
200.595	75.26
200.814	105.98
201.033	36.35
201.252	50.69
201.471	65.02
201.69	105.98
201.909	15.87
202.128	50.69
202.347	26.11
202.566	-6.66
202.785	-23.04
203.004	13.82
203.223	126.46
203.442	19.97
203.661	-41.47
203.879	48.64
204.098	87.55
204.317	-66.05
204.536	-20.99
204.755	-6.66
204.974	1.54
205.193	50.69
205.411	19.97
205.63	83.45
205.849	56.83
206.068	108.03
206.287	-25.09
206.505	54.78
206.724	101.89
206.943	15.87
207.162	3.58
207.381	34.3
207.599	56.83
207.818	48.64
208.037	-25.09
208.255	17.92
208.474	34.3
208.693	24.06
208.911	3.58
209.13	-14.85
209.349	56.83
209.567	95.74
209.786	73.21
210.005	52.74
210.223	24.06
210.442	-25.09
210.661	69.12
210.879	34.3
211.098	15.87
211.316	44.54
211.535	108.03
211.753	30.21
211.972	105.98
212.191	-2.56
212.409	114.17
212.628	44.54
212.846	-29.18
213.065	73.21
213.283	138.75
213.502	38.4
213.72	75.26
213.938	3.58
214.157	26.11
214.375	83.45
214.594	69.12
214.812	65.02
215.031	7.68
215.249	58.88
215.467	-14.85
215.686	-23.04
215.904	105.98
216.122	9.73
216.341	75.26
216.559	34.3
216.778	-8.7
216.996	40.45
217.214	65.02
217.432	26.11
217.651	56.83
217.869	58.88
218.087	56.83
218.306	-20.99
218.524	58.88
218.742	108.03
218.96	52.74
219.179	56.83
219.397	91.65
219.615	165.37
219.833	-4.61
220.051	58.88
220.27	130.56
220.488	89.6
220.706	73.21
220.924	7.68
221.142	75.26
221.36	40.45
221.578	60.93
221.796	34.3
222.015	34.3
222.233	79.36
222.451	50.69
222.669	-53.76
222.887	58.88
223.105	-14.85
223.323	65.02
223.541	-16.9
223.759	9.73
223.977	24.06
224.195	142.85
224.413	81.41
224.631	42.5
224.849	32.26
225.067	85.5
225.285	-74.24
225.503	95.74
225.721	-74.24
225.939	-8.7
226.157	30.21
226.375	140.8
226.592	24.06
226.81	19.97
227.028	112.13
227.246	138.75
227.464	-16.9
227.682	89.6
227.9	7.68
228.117	83.45
228.335	87.55
228.553	36.35
228.771	9.73
228.989	60.93
229.206	17.92
229.424	75.26
229.642	42.5
229.86	-25.09
230.077	114.17
230.295	9.73
230.513	77.31
230.731	40.45
230.948	67.07
231.166	24.06
231.384	-61.95
231.601	28.16
231.819	79.36
232.037	89.6
232.254	36.35
232.472	40.45
232.689	-74.24
232.907	11.78
233.125	73.21
233.342	-0.51
233.56	73.21
233.777	30.21
233.995	48.64
234.213	69.12
234.43	-47.62
234.648	71.17
234.865	-29.18
235.083	114.17
235.3	34.3
235.518	19.97
235.735	83.45
235.953	67.07
236.17	54.78
236.388	58.88
236.605	9.73
236.822	77.31
237.04	83.45
237.257	85.5
237.475	22.02
237.692	58.88
237.909	17.92
238.127	26.11
238.344	26.11
238.562	17.92
238.779	-33.28
238.996	81.41
239.214	3.58
239.431	108.03
239.648	-0.51
239.865	48.64
240.083	40.45
240.3	48.64
240.517	32.26
240.735	15.87
240.952	34.3
241.169	56.83
241.386	105.98
241.603	15.87
241.821	38.4
242.038	97.79
242.255	116.22
242.472	50.69
242.689	81.41
242.907	75.26
243.124	65.02
243.341	114.17
243.558	85.5
243.775	-4.61
243.992	56.83
244.209	50.69
244.426	187.9
244.643	69.12
244.86	24.06
245.078	50.69
245.295	-8.7
245.512	17.92
245.729	89.6
245.946	97.79
246.163	56.83
246.38	24.06
246.597	97.79
246.814	-82.43
247.031	69.12
247.248	28.16
247.464	-16.9
247.681	52.74
247.898	26.11
248.115	56.83
248.332	24.06
248.549	40.45
248.766	93.69
248.983	24.06
249.2	15.87
249.417	91.65
249.633	-4.61
249.85	52.74
250.067	-41.47
250.284	50.69
250.501	155.13
250.717	17.92
250.934	52.74
251.151	24.06
251.368	-8.7
251.585	17.92
251.801	-23.04
252.018	-25.09
252.235	65.02
252.451	15.87
252.668	56.83
252.885	50.69
253.102	62.98
253.318	40.45
253.535	52.74
253.752	9.73
253.968	89.6
254.185	15.87
254.401	48.64
254.618	42.5
254.835	38.4
255.051	120.32
255.268	9.73
255.484	155.13
255.701	34.3
255.917	69.12
256.134	19.97
256.351	26.11
256.567	48.64
256.784	19.97
257	-6.66
257.217	85.5
257.433	58.88
257.65	28.16
257.866	73.21
258.082	32.26
258.299	-29.18
258.515	42.5
258.732	-16.9
258.948	71.17
259.165	9.73
259.381	9.73
259.597	48.64
259.814	7.68
260.03	81.41
260.246	65.02
260.463	97.79
260.679	50.69
260.895	32.26
261.112	34.3
261.328	65.02
261.544	15.87
261.761	56.83
261.977	15.87
262.193	24.06
262.409	42.5
262.626	81.41
262.842	50.69
263.058	-18.94
263.274	7.68
263.49	34.3
263.707	75.26
263.923	42.5
264.139	-16.9
264.355	48.64
264.571	103.93
264.787	48.64
265.004	103.93
265.22	30.21
265.436	65.02
265.652	52.74
265.868	67.07
266.084	-8.7
266.3	42.5
266.516	7.68
266.732	-0.51
266.948	-12.8
267.164	97.79
267.38	50.69
267.596	103.93
267.812	62.98
268.028	26.11
268.244	85.5
268.46	42.5
268.676	73.21
268.892	38.4
269.108	24.06
269.324	-8.7
269.54	19.97
269.756	138.75
269.972	-96.77
270.188	24.06
270.403	-8.7
270.619	-14.85
270.835	-33.28
271.051	32.26
271.267	28.16
271.483	9.73
271.698	56.83
271.914	83.45
272.13	50.69
272.346	42.5
272.562	15.87
272.777	9.73
272.993	42.5
273.209	50.69
273.425	110.08
273.64	-6.66
273.856	56.83
274.072	26.11
274.287	40.45
274.503	19.97
274.719	26.11
274.934	56.83
275.15	19.97
275.366	3.58
275.581	-8.7
275.797	-0.51
276.012	52.74
276.228	32.26
276.444	44.54
276.659	167.42
276.875	-8.7
277.09	9.73
277.306	26.11
277.521	83.45
277.737	-8.7
277.952	46.59
278.168	95.74
278.383	67.07
278.599	67.07
278.814	40.45
279.03	26.11
279.245	46.59
279.461	71.17
279.676	97.79
279.892	28.16
280.107	73.21
280.322	1.54
280.538	99.84
280.753	97.79
280.969	24.06
281.184	34.3
281.399	67.07
281.615	87.55
281.83	81.41
282.045	26.11
282.26	-0.51
282.476	44.54
282.691	124.41
282.906	99.84
283.122	11.78
283.337	75.26
283.552	3.58
283.767	7.68
283.983	56.83
284.198	42.5
284.413	-18.94
284.628	-16.9
284.843	-4.61
285.058	3.58
285.274	-8.7
285.489	26.11
285.704	89.6
285.919	67.07
286.134	67.07
286.349	40.45
286.564	50.69
286.779	44.54
286.995	44.54
287.21	1.54
287.425	65.02
287.64	67.07
287.855	69.12
288.07	-8.7
288.285	118.27
288.5	101.89
288.715	81.41
288.93	32.26
289.145	42.5
289.36	62.98
289.575	46.59
289.79	17.92
290.004	-39.42
290.219	77.31
290.434	85.5
290.649	19.97
290.864	-39.42
291.079	24.06
291.294	44.54
291.509	-35.33
291.724	79.36
291.938	110.08
292.153	44.54
292.368	42.5
292.583	11.78
292.798	-10.75
293.012	52.74
293.227	85.5
293.442	75.26
293.657	44.54
293.871	56.83
294.086	62.98
294.301	146.94
294.516	62.98
294.73	50.69
294.945	-0.51
295.16	105.98
295.374	42.5
295.589	120.32
295.804	-16.9
296.018	22.02
296.233	110.08
296.447	69.12
296.662	3.58
296.877	105.98
297.091	114.17
297.306	89.6
297.52	32.26
297.735	62.98
297.949	9.73
298.164	9.73
298.378	3.58
298.593	13.82
298.807	17.92
299.022	58.88
299.236	56.83
299.451	-45.57
299.665	44.54
299.88	-0.51
300.094	85.5
300.309	40.45
300.523	32.26
300.737	28.16
300.952	-23.04
301.166	48.64
301.381	28.16
301.595	7.68
301.809	83.45
302.024	81.41
302.238	26.11
302.452	108.03
302.667	108.03
302.881	83.45
303.095	19.97
303.309	73.21
303.524	-41.47
303.738	50.69
303.952	40.45
304.166	50.69
304.381	-41.47
304.595	122.37
304.809	-0.51
305.023	40.45
305.237	-0.51
305.452	73.21
305.666	-4.61
305.88	67.07
306.094	65.02
306.308	69.12
306.522	77.31
306.736	91.65
306.95	56.83
307.164	-16.9
307.379	3.58
307.593	112.13
307.807	89.6
308.021	85.5
308.235	103.93
308.449	-47.62
308.663	58.88
308.877	130.56
309.091	48.64
309.305	73.21
309.519	-43.52
309.733	83.45
309.947	50.69
310.161	34.3
310.374	44.54
310.588	65.02
310.802	87.55
311.016	40.45
311.23	-23.04
311.444	15.87
311.658	40.45
311.872	44.54
312.085	11.78
312.299	122.37
312.513	101.89
312.727	97.79
312.941	40.45
313.154	75.26
313.368	87.55
313.582	34.3
313.796	114.17
314.009	26.11
314.223	58.88
314.437	52.74
314.651	85.5
314.864	91.65
315.078	108.03
315.292	42.5
315.505	-12.8
315.719	105.98
315.933	85.5
316.146	60.93
316.36	17.92
316.573	122.37
316.787	-4.61
317.001	48.64
317.214	32.26
317.428	3.58
317.641	58.88
317.855	75.26
318.068	-6.66
318.282	19.97
318.495	173.57
318.709	65.02
318.922	56.83
319.136	101.89
319.349	19.97
319.563	5.63
319.776	67.07
319.99	38.4
320.203	81.41
320.417	67.07
320.63	52.74
320.843	83.45
321.057	36.35
321.27	81.41
321.483	105.98
321.697	81.41
321.91	155.13
322.124	108.03
322.337	-0.51
322.55	3.58
322.763	75.26
322.977	40.45
323.19	58.88
323.403	85.5
323.617	28.16
323.83	83.45
324.043	81.41
324.256	79.36
324.469	32.26
324.683	83.45
324.896	85.5
325.109	7.68
325.322	105.98
325.535	81.41
325.748	11.78
325.962	81.41
326.175	48.64
326.388	11.78
326.601	9.73
326.814	60.93
327.027	65.02
327.24	118.27
327.453	-41.47
327.666	97.79
327.879	118.27
328.092	122.37
328.305	44.54
328.518	73.21
328.731	-10.75
328.944	79.36
329.157	114.17
329.37	-61.95
329.583	48.64
329.796	17.92
330.009	1.54
330.222	87.55
330.435	89.6
330.648	81.41
330.861	81.41
331.073	28.16
331.286	91.65
331.499	26.11
331.712	52.74
331.925	114.17
332.138	93.69
332.35	40.45
332.563	15.87
332.776	62.98
332.989	34.3
333.202	24.06
333.414	19.97
333.627	97.79
333.84	65.02
334.053	-12.8
334.265	97.79
334.478	56.83
334.691	-8.7
334.903	91.65
335.116	-0.51
335.329	52.74
335.541	52.74
335.754	38.4
335.966	99.84
336.179	79.36
336.392	85.5
336.604	40.45
336.817	28.16
337.029	-0.51
337.242	48.64
337.454	26.11
337.667	38.4
337.88	60.93
338.092	34.3
338.305	101.89
338.517	26.11
338.729	34.3
338.942	87.55
339.154	118.27
339.367	-16.9
339.579	89.6
339.792	48.64
340.004	44.54
340.217	65.02
340.429	105.98
340.641	7.68
340.854	-47.62
341.066	58.88
341.278	93.69
341.491	40.45
341.703	40.45
341.915	89.6
342.128	73.21
342.34	36.35
342.552	103.93
342.764	65.02
342.977	99.84
343.189	65.02
343.401	91.65
343.613	42.5
343.826	42.5
344.038	26.11
344.25	105.98
344.462	-8.7
344.674	89.6
344.886	56.83
345.099	140.8
345.311	97.79
345.523	7.68
345.735	-55.81
345.947	32.26
346.159	36.35
346.371	9.73
346.583	122.37
346.795	144.89
347.007	24.06
347.219	60.93
347.431	-0.51
347.643	36.35
347.855	60.93
348.067	146.94
348.279	34.3
348.491	15.87
348.703	50.69
348.915	22.02
349.127	32.26
349.339	93.69
349.551	58.88
349.763	87.55
349.975	77.31
350.187	77.31
350.399	105.98
350.61	81.41
350.822	40.45
351.034	151.04
351.246	44.54
351.458	97.79
351.669	112.13
351.881	36.35
352.093	56.83
352.305	116.22
352.517	112.13
352.728	15.87
352.94	48.64
353.152	56.83
353.363	1.54
353.575	58.88
353.787	89.6
353.999	130.56
354.21	130.56
354.422	73.21
354.633	58.88
354.845	138.75
355.057	28.16
355.268	40.45
355.48	132.61
355.692	36.35
355.903	75.26
356.115	83.45
356.326	15.87
356.538	93.69
356.749	9.73
356.961	52.74
357.172	65.02
357.384	52.74
357.595	118.27
357.807	24.06
358.018	48.64
358.23	24.06
358.441	89.6
358.653	56.83
358.864	56.83
359.075	26.11
359.287	79.36
359.498	138.75
359.709	134.65
359.921	62.98
360.132	87.55
360.344	-0.51
360.555	7.68
360.766	81.41
360.977	42.5
361.189	93.69
361.4	56.83
361.611	93.69
361.823	116.22
362.034	48.64
362.245	-66.05
362.456	36.35
362.667	42.5
362.879	93.69
363.09	-4.61
363.301	130.56
363.512	67.07
363.723	65.02
363.935	89.6
364.146	124.41
364.357	36.35
364.568	73.21
364.779	-8.7
364.99	146.94
365.201	126.46
365.412	87.55
365.623	34.3
365.834	15.87
366.045	103.93
366.256	114.17
366.467	58.88
366.678	65.02
366.889	97.79
367.1	34.3
367.311	89.6
367.522	48.64
367.733	71.17
367.944	58.88
368.155	69.12
368.366	50.69
368.577	148.99
368.788	179.71
368.999	62.98
369.209	36.35
369.42	110.08
369.631	112.13
369.842	36.35
370.053	67.07
370.264	163.33
370.474	69.12
370.685	36.35
370.896	89.6
371.107	48.64
371.317	196.09
371.528	-4.61
371.739	7.68
371.95	1.54
372.16	50.69
372.371	-4.61
372.582	120.32
372.792	110.08
373.003	140.8
373.214	101.89
373.424	73.21
373.635	-49.66
373.846	42.5
374.056	101.89
374.267	65.02
374.477	56.83
374.688	79.36
374.898	48.64
375.109	122.37
375.319	44.54
375.53	148.99
375.74	108.03
375.951	67.07
376.161	56.83
376.372	132.61
376.582	116.22
376.793	58.88
377.003	52.74
377.214	40.45
377.424	58.88
377.635	91.65
377.845	116.22
378.055	81.41
378.266	-0.51
378.476	48.64
378.686	73.21
378.897	116.22
379.107	67.07
379.317	77.31
379.528	40.45
379.738	79.36
379.948	46.59
380.158	24.06
380.369	69.12
380.579	73.21
380.789	48.64
380.999	81.41
381.21	5.63
381.42	89.6
381.63	81.41
381.84	56.83
382.05	77.31
382.261	175.61
382.471	101.89
382.681	75.26
382.891	112.13
383.101	134.65
383.311	19.97
383.521	73.21
383.731	26.11
383.941	155.13
384.151	60.93
384.361	19.97
384.571	58.88
384.781	89.6
384.991	97.79
385.201	108.03
385.411	120.32
385.621	75.26
385.831	65.02
386.041	93.69
386.251	95.74
386.461	165.37
386.671	56.83
386.881	48.64
387.091	91.65
387.301	91.65
387.511	142.85
387.72	56.83
387.93	93.69
388.14	65.02
388.35	71.17
388.56	42.5
388.769	83.45
388.979	77.31
389.189	9.73
389.399	83.45
389.609	75.26
389.818	122.37
390.028	52.74
390.238	101.89
390.447	83.45
390.657	105.98
390.867	105.98
391.076	58.88
391.286	142.85
391.496	83.45
391.705	101.89
391.915	142.85
392.125	142.85
392.334	71.17
392.544	34.3
392.753	124.41
392.963	124.41
393.172	83.45
393.382	17.92
393.591	206.33
393.801	134.65
394.01	120.32
394.22	157.18
394.429	79.36
394.639	116.22
394.848	183.81
395.058	93.69
395.267	91.65
395.477	189.95
395.686	110.08
395.895	228.86
396.105	185.85
396.314	171.52
396.524	83.45
396.733	159.23
396.942	99.84
397.152	163.33
397.361	146.94
397.57	110.08
397.78	179.71
397.989	81.41
398.198	245.24
398.407	130.56
398.617	187.9
398.826	185.85
399.035	118.27
399.244	151.04
399.453	210.43
399.663	183.81
399.872	185.85
400.081	224.76
400.29	130.56
400.499	163.33
400.708	212.48
400.917	130.56
401.127	15.87
401.336	179.71
401.545	204.28
401.754	222.72
401.963	218.62
402.172	187.9
402.381	155.13
402.59	114.17
402.799	189.95
403.008	253.44
403.217	138.75
403.426	165.37
403.635	140.8
403.844	204.28
404.053	294.4
404.262	101.89
404.471	278.01
404.68	239.1
404.888	239.1
405.097	206.33
405.306	261.63
405.515	239.1
405.724	204.28
405.933	278.01
406.142	226.81
406.35	282.11
406.559	280.06
406.768	286.2
406.977	294.4
407.185	296.44
407.394	359.93
407.603	337.4
407.812	321.02
408.02	456.19
408.229	402.94
408.438	361.98
408.646	404.99
408.855	302.59
409.064	384.51
409.272	357.88
409.481	450.04
409.69	368.12
409.898	452.09
410.107	482.81
410.315	609.78
410.524	564.73
410.733	525.82
410.941	507.38
411.15	564.73
411.358	531.96
411.567	697.85
411.775	615.93
411.984	679.41
412.192	656.89
412.401	710.13
412.609	830.96
412.818	763.38
413.026	802.29
413.234	910.83
413.443	830.96
413.651	781.81
413.86	941.55
414.068	1023.47
414.276	970.23
414.485	880.11
414.693	1060.34
414.901	1056.24
415.11	1113.58
415.318	1050.1
415.526	1244.65
415.734	1281.52
415.943	1269.23
416.151	1326.57
416.359	1347.05
416.567	1437.16
416.776	1502.7
416.984	1461.74
417.192	1598.95
417.4	1517.03
417.608	1492.46
417.817	1641.96
418.025	1703.4
418.233	1826.28
418.441	1779.17
418.649	1859.04
418.857	2065.89
419.065	2026.98
419.273	1967.59
419.481	2108.9
419.689	2313.69
419.897	2379.23
420.105	2330.08
420.313	2465.24
420.521	2553.31
420.729	2708.95
420.937	2610.65
421.145	2733.53
421.353	2751.96
421.561	3048.91
421.769	3063.25
421.977	3151.31
422.185	3186.13
422.393	3376.59
422.601	3540.43
422.809	3548.62
423.017	3558.86
423.224	3800.52
423.432	3853.77
423.64	3988.93
423.848	4263.36
424.056	4212.16
424.263	4478.4
424.471	4517.31
424.679	4566.46
424.887	4806.07
425.094	4935.09
425.302	4976.05
425.51	5017.01
425.718	5340.59
425.925	5418.41
426.133	5582.25
426.341	5914.02
426.548	6114.72
426.756	6137.25
426.964	6376.86
427.171	6565.28
427.379	6772.12
427.586	6815.13
427.794	7060.88
428.001	7398.8
428.209	7726.47
428.417	7593.36
428.624	7964.04
428.832	8129.92
429.039	8101.25
429.247	8129.92
429.454	8879.48
429.662	9448.82
429.869	8906.1
430.076	9438.58
430.284	9201.01
430.491	9661.8
430.699	10294.63
430.906	10222.95
431.114	10444.13
431.321	10476.9
431.528	10798.43
431.736	11623.76
431.943	12023.11
432.15	11691.34
432.358	11853.13
432.565	12721.47
432.772	12279.11
432.979	12930.36
433.187	13280.57
433.394	13411.64
433.601	14196.01
433.808	14218.54
434.016	14144.81
434.223	14597.41
434.43	15598.87
434.637	15584.53
434.844	16440.58
435.052	16473.35
435.259	16551.17
435.466	16741.63
435.673	16524.55
435.88	17274.1
436.087	18658.53
436.294	18386.15
436.501	18253.03
436.708	18181.35
436.915	19250.39
437.122	19817.68
437.329	19659.99
437.537	20282.57
437.743	20829.38
437.95	20513.99
438.157	21476.54
438.364	22389.93
438.571	22217.9
438.778	22531.24
438.985	24304.78
439.192	23481.5
439.399	24063.12
439.606	23473.31
439.813	25316.48
440.02	26563.69
440.227	25949.3
440.433	26119.28
440.64	26664.04
440.847	26463.34
441.054	26836.07
441.261	28619.85
441.467	28593.23
441.674	29049.92
441.881	29903.93
442.088	29779
442.294	29850.68
442.501	30827.56
442.708	30991.4
442.914	31960.09
443.121	33348.61
443.328	32719.88
443.534	35083.24
443.741	34143.22
443.948	33414.15
444.154	35832.8
444.361	35568.61
444.568	35898.33
444.774	35857.37
444.981	36275.16
445.187	37370.82
445.394	38798.26
445.6	38112.19
445.807	41792.39
446.013	40215.45
446.22	40983.44
446.426	42607.48
446.633	43043.7
446.839	44131.17
447.046	42388.35
447.252	44823.38
447.459	44747.61
447.665	44716.89
447.871	46809.91
448.078	48544.54
448.284	46381.88
448.491	47614.76
448.697	49099.54
448.903	49963.78
449.11	50268.93
449.316	49589
449.522	50156.29
449.728	51743.47
449.935	51858.15
450.141	52331.23
450.347	53334.74
450.553	51561.2
450.76	52091.62
450.966	53537.49
451.172	53252.82
451.378	54272.71
451.584	53742.28
451.791	54864.57
451.997	54792.89
452.203	55542.45
452.409	54823.61
452.615	55296.69
452.821	52904.66
453.027	52513.5
453.233	55118.52
453.44	53430.99
453.646	53269.2
453.852	53842.63
454.058	54647.49
454.264	53000.92
454.47	54010.57
454.676	52957.91
454.882	54698.69
455.088	50131.72
455.294	50852.6
455.5	51960.55
455.705	51987.17
455.911	50467.58
456.117	49308.43
456.323	48681.75
456.529	45880.13
456.735	48188.19
456.941	46617.4
457.147	46064.45
457.352	44802.9
457.558	44716.89
457.764	44716.89
457.97	43766.63
458.176	42711.92
458.381	42400.63
458.587	40694.68
458.793	40752.02
458.999	38837.17
459.204	41276.3
459.41	40213.4
459.616	37923.77
459.821	37540.8
460.027	37143.5
460.233	36469.72
460.438	34917.36
460.644	35415.01
460.85	33909.75
461.055	32992.26
461.261	33242.12
461.466	30491.69
461.672	29559.87
461.878	31808.54
462.083	29727.8
462.289	29195.33
462.494	28775.5
462.7	27774.04
462.905	26983.52
463.111	27462.75
463.316	27602.01
463.522	27380.83
463.727	27350.11
463.932	27161.7
464.138	26797.16
464.343	26831.97
464.549	26195.06
464.754	26860.65
464.959	26858.6
465.165	26322.03
465.37	25177.22
465.575	24628.36
465.781	25719.93
465.986	25822.33
466.191	24640.65
466.397	24351.88
466.602	23067.81
466.807	24142.99
467.012	24132.75
467.218	23938.19
467.423	23229.6
467.628	24038.55
467.833	24820.87
468.038	23809.17
468.244	23274.65
468.449	23725.21
468.654	23407.77
468.859	22918.31
469.064	22979.75
469.269	22088.88
469.474	22174.89
469.679	22615.21
469.885	21783.73
470.09	22332.59
470.295	21996.72
470.5	21523.64
470.705	21857.46
470.91	21208.25
471.115	20851.91
471.32	21210.3
471.525	21318.84
471.73	20974.78
471.935	20655.3
472.139	19924.18
472.344	20169.93
472.549	19717.33
472.754	19758.29
472.959	19403.99
473.164	19131.61
473.369	18853.09
473.574	19535.06
473.778	19274.97
473.983	19035.36
474.188	19082.46
474.393	18113.77
474.598	18224.36
474.802	18091.24
475.007	18052.33
475.212	17956.08
475.417	17386.74
475.621	17313.02
475.826	17282.3
476.031	16964.86
476.235	16837.89
476.44	16884.99
476.645	16379.14
476.849	16674.05
477.054	16346.37
477.259	16125.19
477.463	16125.19
477.668	15842.57
477.872	15951.12
478.077	15869.2
478.282	15203.61
478.486	15430.93
478.691	15129.88
478.895	15215.9
479.1	14959.9
479.304	15072.54
479.509	14456.1
479.713	14896.41
479.918	14511.39
480.122	14056.75
480.326	14595.36
480.531	14353.7
480.735	14376.23
480.94	14064.94
481.144	14597.41
481.348	14009.64
481.553	13931.82
481.757	13749.55
481.961	14001.45
482.166	14349.61
482.37	13937.96
482.574	13786.41
482.778	13829.42
482.983	14114.09
483.187	13929.77
483.391	14071.08
483.595	13851.95
483.8	13643.06
484.004	13761.84
484.208	14134.57
484.412	13765.93
484.616	13819.18
484.821	13993.26
485.025	13716.78
485.229	13911.34
485.433	13913.39
485.637	13739.31
485.841	13890.86
486.045	13968.68
486.249	13718.83
486.453	13542.71
486.657	13712.69
486.861	13663.54
487.065	13311.28
487.269	13880.62
487.473	13712.69
487.677	13872.43
487.881	13901.1
488.085	13681.97
488.289	13817.13
488.493	13657.39
488.697	13755.69
488.901	13800.75
489.105	14017.83
489.309	13724.97
489.512	14005.55
489.716	13833.52
489.92	13739.31
490.124	13890.86
490.328	13894.96
490.531	13854
490.735	13888.81
490.939	14032.17
491.143	13993.26
491.346	14175.53
491.55	14216.49
491.754	14306.6
491.958	14236.97
492.161	14239.01
492.365	14452
492.569	14351.65
492.772	14482.72
492.976	14638.37
493.18	14388.52
493.383	14697.76
493.587	14826.78
493.79	14976.28
493.994	14519.59
494.197	14961.95
494.401	15191.32
494.605	14925.08
494.808	15244.57
495.012	15344.92
495.215	15310.1
495.419	15361.3
495.622	15346.97
495.825	15596.82
496.029	15416.6
496.232	15883.53
496.436	15949.07
496.639	16137.48
496.843	16198.92
497.046	16420.1
497.249	16559.36
497.453	16710.91
497.656	16809.22
497.859	16876.8
498.063	17175.8
498.266	17409.27
498.469	17349.88
498.673	17435.89
498.876	17681.65
499.079	18054.38
499.282	17954.03
499.485	18484.45
499.689	18337
499.892	18744.55
500.095	18754.79
500.298	19315.93
500.501	18834.66
500.705	19397.85
500.908	19746
501.111	19834.07
501.314	20042.96
501.517	20057.29
501.72	20511.94
501.923	20399.3
502.126	20804.8
502.329	21091.52
502.532	21273.79
502.735	21259.45
502.938	21630.13
503.141	21578.93
503.344	22256.81
503.547	22240.43
503.75	22723.75
503.953	22881.44
504.156	23004.32
504.359	23200.93
504.562	23225.5
504.765	23735.45
504.968	23803.03
505.17	24409.23
505.373	23874.71
505.576	24452.23
505.779	24886.4
505.982	25308.29
506.185	25427.07
506.387	25402.49
506.59	25736.31
506.793	25986.16
506.996	26311.79
507.198	26850.41
507.401	26748.01
507.604	27116.64
507.807	27520.09
508.009	27546.72
508.212	27995.22
508.415	28109.91
508.617	28683.34
508.82	28566.6
509.022	28458.06
509.225	28896.33
509.428	29269.06
509.63	29625.4
509.833	29424.7
510.035	30053.43
510.238	30606.38
510.44	30708.78
510.643	31190.05
510.845	31224.87
511.048	31294.5
511.25	31724.57
511.453	31761.44
511.655	32869.39
511.858	32562.19
512.06	32951.31
512.262	33434.63
512.465	32871.43
512.667	33645.57
512.87	34196.47
513.072	34243.57
513.274	34679.79
513.477	35150.82
513.679	35120.1
513.881	35699.68
514.084	36207.58
514.286	36029.4
514.488	35902.43
514.69	37020.62
514.893	37295.05
515.095	37555.14
515.297	37383.11
515.499	37518.28
515.701	38292.41
515.904	38349.75
516.106	38325.18
516.308	38826.93
516.51	39822.24
516.712	39515.05
516.914	40063.9
517.116	40788.88
517.318	40563.61
517.52	40608.66
517.722	40946.58
517.925	41401.22
518.127	41657.22
518.329	41804.67
518.531	42005.38
518.733	42613.62
518.935	42611.57
519.136	42826.61
519.338	43291.5
519.54	43504.49
519.742	44155.74
519.944	44026.72
520.146	44847.96
520.348	44604.25
520.55	44798.8
520.752	44872.53
520.954	45906.76
521.155	45110.1
521.357	45884.23
521.559	45935.43
521.761	47092.53
521.963	46588.73
522.164	46910.26
522.366	46852.92
522.568	47305.52
522.77	47422.25
522.971	48141.09
523.173	47969.06
523.375	48204.58
523.576	47960.87
523.778	48220.96
523.98	48483.1
524.181	49132.31
524.383	48763.67
524.584	49201.94
524.786	49105.68
524.988	49285.9
525.189	49685.26
525.391	50137.86
525.592	50213.63
525.794	50434.81
525.995	50473.73
526.197	50324.22
526.398	50584.32
526.6	50680.57
526.801	50758.39
527.003	51024.63
527.204	51161.84
527.406	51055.35
527.607	51227.38
527.808	51231.47
528.01	50434.81
528.211	51045.11
528.412	52220.64
528.614	51344.11
528.815	51423.98
529.016	52007.65
529.218	51524.33
529.419	51604.2
529.62	51569.39
529.822	51514.09
530.023	51718.89
530.224	51380.98
530.425	51421.94
530.626	51178.23
530.828	51186.42
531.029	52255.46
531.23	51632.88
531.431	51620.59
531.632	52196.07
531.833	51892.97
532.035	51755.75
532.236	51393.26
532.437	51931.88
532.638	51161.84
532.839	51702.51
533.04	52007.65
533.241	51174.13
533.442	52415.2
533.643	51577.58
533.844	51071.73
534.045	51819.24
534.246	51309.3
534.447	51665.64
534.648	51159.8
534.849	51876.58
535.05	51266.29
535.251	51679.98
535.451	50995.96
535.652	51483.37
535.853	51188.47
536.054	51344.11
536.255	51602.16
536.456	50590.46
536.657	51311.35
536.857	51143.41
537.058	50864.89
537.259	51325.68
537.46	51471.09
537.66	50950.9
537.861	51112.69
538.062	50868.98
538.263	51364.59
538.463	51106.55
538.664	51202.8
538.865	50711.29
539.065	51569.39
539.266	50252.55
539.466	51065.59
539.667	50252.55
539.868	50916.09
540.068	50836.22
540.269	50479.87
540.469	51079.92
540.67	50506.49
540.87	50301.7
541.071	50420.48
541.271	50266.88
541.472	50621.18
541.672	50426.62
541.873	50483.97
542.073	50107.14
542.274	50500.35
542.474	50250.5
542.675	50297.6
542.875	51000.05
543.075	50348.8
543.276	49761.03
543.476	50600.7
543.676	49748.74
543.877	50524.93
544.077	50184.96
544.277	50008.84
544.478	50068.23
544.678	50533.12
544.878	49885.96
545.078	50199.3
545.279	49746.7
545.479	50150.15
545.679	50402.05
545.879	50201.35
546.079	49845
546.28	49640.2
546.48	49642.25
546.68	50148.1
546.88	50074.37
547.08	49998.6
547.28	49689.35
547.48	49429.26
547.68	49916.68
547.88	49597.2
548.081	49947.4
548.281	49623.82
548.481	49785.61
548.681	50111.24
548.881	49781.51
549.081	49873.67
549.28	49933.06
549.48	49808.14
549.68	49498.89
549.88	50426.62
550.08	49421.07
550.28	50062.08
550.48	49691.4
550.68	50113.28
550.88	49414.93
551.08	49484.56
551.279	49828.62
551.479	49842.95
551.679	49935.11
551.879	49785.61
552.079	49670.92
552.278	49337.1
552.478	50107.14
552.678	49865.48
552.878	50156.29
553.077	49799.94
553.277	49650.44
553.477	50344.7
553.676	49644.3
553.876	50156.29
554.076	49556.24
554.275	49595.15
554.475	49298.19
554.674	49906.44
554.874	49693.45
555.074	49632.01
555.273	49826.57
555.473	49795.85
555.672	49875.72
555.872	49775.37
556.071	49771.27
556.271	49861.38
556.47	49785.61
556.67	49546
556.869	49603.34
557.068	49978.12
557.268	49603.34
557.467	49799.94
557.667	49312.53
557.866	49687.31
558.065	49998.6
558.265	49486.6
558.464	49419.02
558.663	50098.95
558.863	49218.32
559.062	50090.76
559.261	49662.73
559.461	50418.43
559.66	49328.91
559.859	49623.82
560.058	49474.32
560.258	49343.25
560.457	49214.23
560.656	49937.16
560.855	49290
561.054	49572.62
561.253	49238.8
561.453	49138.45
561.652	49855.24
561.851	49410.83
562.05	49234.7
562.249	49224.46
562.448	49484.56
562.647	49398.54
562.846	49294.1
563.045	49304.34
563.244	48896.79
563.443	49439.5
563.642	48800.54
563.841	48853.78
564.04	48612.12
564.239	49582.86
564.438	48753.43
564.637	48765.72
564.836	49066.77
565.035	48382.75
565.234	48737.05
565.432	48976.66
565.631	48483.1
565.83	48788.25
566.029	48587.55
566.228	48392.99
566.427	48560.92
566.625	48358.17
566.824	47872.81
567.023	48786.2
567.222	47485.74
567.42	48180
567.619	48212.77
567.818	48089.89
568.016	47930.15
568.215	48005.92
568.414	48057.12
568.612	48188.19
568.811	47715.11
569.01	47659.82
569.208	47620.91
569.407	47940.39
569.605	47143.73
569.804	47491.88
570.002	47321.9
570.201	47518.51
570.4	47391.53
570.598	47176.5
570.797	47020.85
570.995	47403.82
571.193	46607.16
571.392	47000.37
571.59	46355.26
571.789	46654.26
571.987	46426.94
572.186	46555.96
572.384	46252.86
572.582	46308.16
572.781	46345.02
572.979	45886.28
573.177	45896.52
573.376	46046.02
573.574	45798.21
573.772	46056.26
573.971	45673.29
574.169	45359.95
574.367	45347.66
574.565	45456.2
574.763	45286.22
574.962	45181.77
575.16	44731.22
575.358	44999.51
575.556	44847.96
575.754	44712.79
575.952	44071.78
576.151	44874.58
576.349	44192.61
576.547	44485.47
576.745	44290.91
576.943	44084.06
577.141	44092.26
577.339	44340.06
577.537	44354.4
577.735	43729.76
577.933	43823.97
578.131	44118.88
578.329	43088.75
578.527	43101.04
578.725	43557.74
578.923	43389.8
579.121	43174.77
579.319	42992.5
579.516	43363.18
579.714	42998.64
579.912	42840.95
580.11	42685.3
580.308	42767.22
580.506	42339.19
580.704	41917.31
580.901	42163.07
581.099	42578.81
581.297	42337.15
581.495	42124.16
581.692	42316.67
581.89	41747.33
582.088	41991.04
582.285	41567.11
582.483	41997.18
582.681	41595.78
582.878	41431.94
583.076	40950.67
583.274	41726.85
583.471	40940.43
583.669	41102.22
583.866	40946.58
584.064	41018.25
584.262	40227.74
584.459	40887.18
584.657	40295.32
584.854	40514.45
585.052	40043.42
585.249	40432.54
585.447	40582.04
585.644	39908.26
585.841	40127.39
586.039	40504.21
586.236	40010.65
586.434	39433.13
586.631	39308.2
586.828	39703.46
587.026	39828.38
587.223	39410.6
587.42	39263.14
587.618	39490.47
587.815	39119.79
588.012	39013.29
588.21	38964.14
588.407	39396.26
588.604	38886.32
588.801	38462.39
588.999	39179.18
589.196	38413.24
589.393	38613.94
589.59	38427.57
589.787	38538.16
589.984	38265.78
590.182	38063.04
590.379	38290.36
590.576	38071.23
590.773	38222.78
590.97	37665.73
591.167	37903.29
591.364	37225.42
591.561	37520.32
591.758	37288.9
591.955	37428.16
592.152	37290.95
592.349	37002.19
592.546	37532.61
592.743	37350.34
592.94	36940.75
593.137	37014.48
593.334	36875.21
593.531	36453.33
593.727	36979.66
593.924	36742.1
594.121	36277.21
594.318	36750.29
594.515	36269.01
594.712	36770.77
594.908	36365.27
595.105	36498.39
595.302	35970.01
595.499	36705.23
595.696	35974.11
595.892	35687.39
596.089	36244.44
596.286	36316.12
596.482	35781.6
596.679	35529.7
596.876	35980.25
597.072	35474.4
597.269	35652.58
597.466	35501.03
597.662	35367.91
597.859	35466.21
598.055	35773.41
598.252	35230.69
598.448	34978.79
598.645	35156.97
598.841	34679.79
599.038	35146.73
599.234	35073
599.431	34817
599.627	34735.09
599.824	34923.5
600.02	34894.83
600.217	34790.38
600.413	34513.91
600.609	34683.89
600.806	34458.61
601.002	34710.51
601.198	34642.93
601.395	34311.16
601.591	34616.3
601.787	34694.13
601.984	34479.09
602.18	34710.51
602.376	34331.64
602.572	34305.01
602.769	34237.43
602.965	34210.81
603.161	34413.55
603.357	34163.7
603.553	34137.08
603.75	34427.89
603.946	33655.81
604.142	34325.49
604.338	33713.15
604.534	34384.88
604.73	33713.15
604.926	33602.56
605.122	33989.63
605.318	33715.2
605.514	33752.06
605.71	33795.07
605.906	33559.55
606.102	33950.71
606.298	33664
606.494	33733.63
606.69	33989.63
606.886	33805.31
607.082	33133.57
607.278	33852.41
607.474	33262.6
607.67	33758.2
607.866	33190.92
608.062	33893.37
608.257	33750.01
608.453	33653.76
608.649	33500.16
608.845	33381.38
609.041	33571.84
609.236	33563.65
609.432	33739.77
609.628	33582.08
609.824	33276.93
610.019	33485.83
610.215	33698.81
610.411	33821.69
610.606	33344.52
610.802	33534.98
610.998	33713.15
611.193	33731.58
611.389	33565.7
611.584	33354.76
611.78	33143.81
611.976	33074.18
612.171	33686.53
612.367	33180.68
612.562	33018.89
612.758	33055.75
612.953	33141.77
613.149	33301.51
613.344	32936.97
613.539	33754.11
613.735	33219.59
613.93	33336.32
614.126	33211.4
614.321	33453.06
614.517	33178.63
614.712	33092.62
614.907	33250.31
615.103	33664
615.298	32883.72
615.493	33217.54
615.688	32834.57
615.884	33367.04
616.079	33027.08
616.274	33231.88
616.47	32726.03
616.665	32766.99
616.86	32893.96
617.055	32918.54
617.25	32947.21
617.445	33135.62
617.641	32455.7
617.836	32996.36
618.031	32488.46
618.226	32689.17
618.421	32666.64
618.616	32803.85
618.811	32353.3
619.006	32582.67
619.201	31765.53
619.396	32144.41
619.591	31882.27
619.786	32459.79
619.981	31796.25
620.176	32031.77
620.371	31378.47
620.566	31611.93
620.761	31355.94
620.956	31464.48
621.151	31222.82
621.346	31388.71
621.541	30817.32
621.735	30952.49
621.93	30733.36
622.125	30710.83
622.32	30096.44
622.515	30360.62
622.709	30243.89
622.904	30387.25
623.099	29840.44
623.294	29963.32
623.488	29594.68
623.683	29733.95
623.878	29269.06
624.072	29531.2
624.267	29203.52
624.462	29322.3
624.656	28886.09
624.851	29051.97
625.046	28695.63
625.24	28673.1
625.435	28300.37
625.629	28333.14
625.824	27876.44
626.018	28269.65
626.213	27630.68
626.407	27907.16
626.602	27538.52
626.796	28001.36
626.991	27284.58
627.185	27374.69
627.38	27176.03
627.574	27141.22
627.768	26602.6
627.963	26612.84
628.157	26561.64
628.352	26682.47
628.546	25871.48
628.74	26477.68
628.935	26236.02
629.129	26233.97
629.323	25871.48
629.517	25834.61
629.712	25707.64
629.906	25463.93
630.1	25179.26
630.294	25388.16
630.489	24966.28
630.683	25293.95
630.877	24941.7
631.071	24726.66
631.265	25191.55
631.459	24474.76
631.653	24712.33
631.848	24503.43
632.042	24044.69
632.236	24212.62
632.43	24073.36
632.624	24120.46
632.818	23635.1
633.012	23772.31
633.206	23524.51
633.4	23684.25
633.594	23035.04
633.788	23352.48
633.982	23301.28
634.176	22949.03
634.369	22785.19
634.563	22930.59
634.757	22668.45
634.951	22619.3
635.145	22527.14
635.339	22469.8
635.533	22273.2
635.726	22367.4
635.92	22004.91
636.114	21869.75
636.308	21787.83
636.501	21746.87
636.695	21617.85
636.889	21144.77
637.083	21279.93
637.276	21241.02
637.47	21036.22
637.664	20976.83
637.857	20839.62
638.051	20870.34
638.244	20544.71
638.438	20438.22
638.632	20643.01
638.825	20364.49
639.019	20444.36
639.212	19915.98
639.406	19950.8
639.599	19989.71
639.793	19801.3
639.986	19447
640.18	19659.99
640.373	19291.35
640.567	19266.78
640.76	19115.23
640.954	18982.11
641.147	18867.42
641.34	18777.31
641.534	18722.02
641.727	18717.92
641.92	18521.32
642.114	18574.56
642.307	18719.97
642.5	18304.23
642.694	17986.8
642.887	17818.86
643.08	18119.92
643.273	17730.8
643.467	18093.29
643.66	17495.29
643.853	17661.17
644.046	17294.58
644.239	17503.48
644.432	17341.69
644.626	17327.35
644.819	17143.03
645.012	17169.66
645.205	17231.1
645.398	17057.02
645.591	16686.34
645.784	16653.57
645.977	16481.54
646.17	16454.92
646.363	16282.89
646.556	16092.43
646.749	16334.09
646.942	16231.69
647.135	15951.12
647.328	15942.92
647.521	15977.74
647.714	15791.38
647.907	15740.18
648.099	15465.75
648.292	15426.84
648.485	15508.76
648.678	15205.66
648.871	15097.11
649.064	15156.5
649.256	14847.26
649.449	15066.39
649.642	14873.89
649.835	14595.36
650.027	14884.12
650.22	14712.1
650.413	14556.45
650.605	14462.24
650.798	14480.68
650.991	14482.72
651.183	14163.24
651.376	14286.12
651.568	14286.12
651.761	14058.79
651.954	13874.48
652.146	13790.51
652.339	14003.5
652.531	13733.17
652.724	13688.11
652.916	13530.42
653.109	13714.73
653.301	13272.37
653.494	13632.82
653.686	13221.17
653.879	13505.84
654.071	13161.78
654.263	13159.74
654.456	13270.33
654.648	13028.67
654.84	12827.96
655.033	12938.55
655.225	12664.13
655.417	12834.11
655.61	12666.17
655.802	12778.81
655.994	12516.67
656.186	12604.74
656.379	12549.44
656.571	12381.51
656.763	12295.49
656.955	12117.32
657.148	12406.08
657.34	12027.21
657.532	11914.57
657.724	11801.93
657.916	11838.8
658.108	11760.97
658.3	11816.27
658.492	11898.19
658.684	11621.71
658.876	11588.94
659.068	11267.41
659.26	11416.91
659.452	11496.78
659.644	11513.17
659.836	11396.43
660.028	11240.79
660.22	10935.64
660.412	11101.53
660.604	10992.98
660.796	11050.33
660.988	10816.86
661.18	10728.8
661.372	10806.62
661.563	10702.17
661.755	10587.49
661.947	10683.74
662.139	10521.95
662.331	10601.82
662.522	10198.37
662.714	10296.67
662.906	10313.06
663.097	10429.79
663.289	10212.71
663.481	10251.62
663.673	10225
663.864	10102.12
664.056	9856.36
664.247	10026.34
664.439	9739.63
664.631	9727.34
664.822	9882.99
665.014	9471.34
665.205	9835.88
665.397	9710.96
665.588	9579.89
665.78	9567.6
665.971	9471.34
666.163	9583.98
666.354	9348.47
666.546	9170.29
666.737	9201.01
666.929	9276.79
667.12	9323.89
667.311	9319.79
667.503	9198.96
667.694	9096.57
667.885	8969.59
668.077	9061.75
668.268	8865.14
668.459	8985.97
668.651	8928.63
668.842	8895.86
669.033	8895.86
669.224	8805.75
669.416	8750.46
669.607	8672.64
669.798	8709.5
669.989	8729.98
670.18	8486.27
670.371	8768.89
670.563	8459.65
670.754	8570.24
670.945	8320.39
671.136	8617.34
671.327	8371.58
671.518	8109.44
671.709	8318.34
671.9	8275.33
672.091	8265.09
672.282	8236.42
672.473	8158.6
672.664	8217.99
672.855	8174.98
673.046	8138.12
673.237	8037.77
673.428	8154.5
673.619	8117.64
673.809	7904.65
674	7988.61
674.191	7912.84
674.382	7947.65
674.573	7955.85
674.764	7794.06
674.954	7955.85
675.145	7742.86
675.336	7732.62
675.527	7574.92
675.717	7550.35
675.908	7607.69
676.099	7646.6
676.289	7593.36
676.48	7464.33
676.671	7622.03
676.861	7468.43
677.052	7376.27
677.243	7421.33
677.433	7388.56
677.624	7554.44
677.814	7374.22
678.005	7325.07
678.195	7392.66
678.386	7376.27
678.576	7191.95
678.767	7173.52
678.957	7361.94
679.148	7368.08
679.338	7226.77
679.529	7308.69
679.719	7087.51
679.909	7257.49
680.1	7290.26
680.29	7181.71
680.481	7032.21
680.671	7095.7
680.861	7144.85
681.052	7089.56
681.242	6913.43
681.432	7081.36
681.622	6964.63
681.813	7054.74
682.003	7067.03
682.193	7083.41
682.383	7024.02
682.573	7003.54
682.764	6770.07
682.954	6929.81
683.144	6929.81
683.334	6851.99
683.524	6823.32
683.714	7003.54
683.904	6669.72
684.094	6819.22
684.284	6749.59
684.474	6792.6
684.664	6749.59
684.854	6790.55
685.044	6636.95
685.234	6665.63
685.424	6757.78
685.614	6653.34
685.804	6507.93
685.994	6536.6
686.184	6706.59
686.374	6655.39
686.564	6409.63
686.753	6600.09
686.943	6444.45
687.133	6593.95
687.323	6432.16
687.513	6464.93
687.702	6446.49
687.892	6344.1
688.082	6415.77
688.272	6442.4
688.461	6253.98
688.651	6161.83
688.841	6266.27
689.03	6262.18
689.22	6159.78
689.41	6241.7
689.599	6133.15
689.789	6196.64
689.979	6110.63
690.168	6202.79
690.358	6055.33
690.547	6192.55
690.737	5987.75
690.926	6049.19
691.116	5871.01
691.305	6151.59
691.495	6102.43
691.684	5782.95
691.874	6045.09
692.063	5973.41
692.252	5838.25
692.442	5936.55
692.631	5756.33
692.82	5709.22
693.01	5756.33
693.199	5739.94
693.388	5721.51
693.578	5746.09
693.767	5602.73
693.956	5545.39
694.146	5774.76
694.335	5662.12
694.524	5610.92
694.713	5703.08
694.902	5713.32
695.092	5486
695.281	5356.97
695.47	5463.47
695.659	5389.74
695.848	5291.44
696.037	5455.28
696.226	5473.71
696.415	5379.5
696.604	5311.92
696.793	5383.6
696.982	5244.34
697.171	5406.13
697.36	5344.69
697.549	5418.41
697.738	5184.94
697.927	5268.91
698.116	5301.68
698.305	5201.33
698.494	5184.94
698.683	5217.71
698.872	5219.76
699.061	5154.23
699.25	5197.23
699.438	5164.47
699.627	5111.22
699.816	5166.51
700.005	5072.31
700.193	4939.19
700.382	5074.35
700.571	4898.23
700.76	4912.57
700.948	5012.92
701.137	5088.69
701.326	4914.61
701.514	4939.19
701.703	4988.34
701.892	4801.97
702.08	4949.43
702.269	4922.8
702.457	4840.89
702.646	4844.98
702.834	4795.83
703.023	4806.07
703.212	4664.76
703.4	4752.82
703.589	4670.9
703.777	4734.39
703.965	4681.14
704.154	4697.53
704.342	4574.65
704.531	4793.78
704.719	4625.85
704.907	4728.25
705.096	4650.43
705.284	4545.98
705.472	4652.47
705.661	4654.52
705.849	4560.31
706.037	4588.99
706.226	4449.72
706.414	4529.59
706.602	4455.87
706.79	4537.79
706.979	4525.5
707.167	4525.5
707.355	4410.81
707.543	4400.57
707.731	4496.83
707.919	4423.1
708.107	4355.52
708.296	4414.91
708.484	4349.37
708.672	4394.43
708.86	4382.14
709.048	4292.03
709.236	4244.93
709.424	4283.84
709.612	4373.95
709.8	4113.86
709.988	4246.98
710.176	4226.5
710.364	4343.23
710.551	4226.5
710.739	4177.34
710.927	4089.28
711.115	4140.48
711.303	4203.97
711.491	4046.27
711.679	3941.83
711.866	3972.55
712.054	4191.68
712.242	4021.7
712.43	4175.3
712.617	4111.81
712.805	4115.91
712.993	4046.27
713.181	3964.36
713.368	3872.2
713.556	4040.13
713.744	4046.27
713.931	3954.12
714.119	3956.16
714.306	3999.17
714.494	3909.06
714.682	3952.07
714.869	3907.01
715.057	3907.01
715.244	3898.82
715.432	3851.72
715.619	3849.67
715.807	3716.55
715.994	3894.72
716.182	3792.33
716.369	3872.2
716.556	3777.99
716.744	3747.27
716.931	3784.13
717.119	3640.78
717.306	3722.7
717.493	3687.88
717.681	3704.26
717.868	3648.97
718.055	3634.63
718.242	3679.69
718.43	3734.98
718.617	3638.73
718.804	3706.31
718.991	3653.06
719.179	3677.64
719.366	3544.52
719.553	3614.15
719.74	3526.09
719.927	3560.91
720.114	3521.99
720.301	3497.42
720.488	3530.19
720.676	3329.49
720.863	3450.32
721.05	3601.87
721.237	3462.6
721.424	3427.79
721.611	3315.15
721.798	3474.89
721.985	3376.59
722.172	3335.63
722.358	3450.32
722.545	3483.08
722.732	3407.31
722.919	3317.2
723.106	3317.2
723.293	3313.1
723.48	3401.16
723.667	3333.58
723.853	3327.44
724.04	3407.31
724.227	3366.35
724.414	3218.89
724.6	3245.52
724.787	3370.44
724.974	3229.13
725.161	3251.66
725.347	3169.74
725.534	3268.05
725.72	3272.14
725.907	3345.87
726.094	3096.02
726.28	3255.76
726.467	3202.51
726.653	3098.06
726.84	3227.09
727.027	3286.48
727.213	3061.2
727.4	3239.37
727.586	3190.22
727.773	3167.7
727.959	3112.4
728.145	3098.06
728.332	3046.87
728.518	3147.22
728.705	3114.45
728.891	3163.6
729.077	2911.7
729.264	3073.49
729.45	3018.19
729.636	3081.68
729.823	2948.56
730.009	3007.95
730.195	2958.8
730.382	2893.27
730.568	3053.01
730.754	2934.23
730.94	3012.05
731.126	2981.33
731.313	3038.67
731.499	2983.38
731.685	2989.52
731.871	2977.23
732.057	2977.23
732.243	2837.97
732.429	3050.96
732.615	3030.48
732.801	2975.19
732.987	2874.84
733.173	2923.99
733.359	2815.45
733.545	2878.93
733.731	2932.18
733.917	2958.8
734.103	2829.78
734.289	2868.69
734.475	2874.84
734.661	2809.3
734.847	2827.73
735.033	2745.81
735.219	2735.57
735.404	2672.09
735.59	2704.85
735.776	2778.58
735.962	2915.8
736.148	2743.77
736.333	2866.64
736.519	2672.09
736.705	2670.04
736.89	2778.58
737.076	2702.81
737.262	2657.75
737.447	2545.11
737.633	2649.56
737.819	2770.39
738.004	2713.05
738.19	2561.5
738.375	2766.29
738.561	2704.85
738.747	2559.45
738.932	2532.83
739.118	2545.11
739.303	2565.59
739.489	2584.02
739.674	2631.13
739.859	2571.74
740.045	2592.22
740.23	2573.78
740.416	2473.43
740.601	2559.45
740.786	2502.11
740.972	2473.43
741.157	2557.4
741.342	2436.57
741.528	2383.32
741.713	2506.2
741.898	2467.29
742.084	2420.19
742.269	2401.76
742.454	2403.8
742.639	2426.33
742.824	2338.27
743.01	2342.36
743.195	2379.23
743.38	2360.8
743.565	2342.36
743.75	2325.98
743.935	2188.77
744.12	2428.38
744.305	2301.4
744.49	2162.14
744.675	2276.83
744.86	2143.71
745.045	2219.49
745.23	2211.29
745.415	2139.62
745.6	2127.33
745.785	2147.81
745.97	2274.78
746.155	2149.86
746.34	2186.72
746.525	2176.48
746.71	2065.89
746.895	2039.26
747.079	2145.76
747.264	2049.5
747.449	2182.62
747.634	2080.22
747.819	2158.05
748.003	2129.38
748.188	2063.84
748.373	2096.61
748.557	2092.51
748.742	2002.4
748.927	1936.87
749.111	2043.36
749.296	1934.82
749.481	1983.97
749.665	2022.88
749.85	1967.59
750.034	2016.74
750.219	1977.83
750.404	1904.1
750.588	1857
750.773	1912.29
750.957	1705.45
751.141	1859.04
751.326	1803.75
751.51	1859.04
751.695	1760.74
751.879	1820.13
752.064	1777.12
752.248	1797.6
752.432	1854.95
752.617	1691.11
752.801	1793.51
752.985	1641.96
753.17	1656.29
753.354	1826.28
753.538	1773.03
753.722	1674.73
753.907	1605.1
754.091	1588.71
754.275	1625.58
754.459	1680.87
754.643	1598.95
754.828	1594.86
755.012	1584.62
755.196	1646.05
755.38	1557.99
755.564	1549.8
755.748	1623.53
755.932	1498.6
756.116	1514.98
756.3	1521.13
756.484	1367.53
756.668	1551.85
756.852	1426.92
757.036	1525.22
757.22	1426.92
757.404	1388.01
757.588	1441.26
757.772	1543.66
757.956	1535.46
758.14	1469.93
758.323	1377.77
758.507	1439.21
758.691	1363.44
758.875	1486.31
759.059	1449.45
759.242	1326.57
759.426	1340.91
759.61	1310.19
759.794	1273.32
759.977	1353.2
760.161	1377.77
760.345	1244.65
760.528	1392.11
760.712	1252.84
760.895	1236.46
761.079	1213.93
761.263	1172.97
761.446	1246.7
761.63	1269.23
761.813	1318.38
761.997	1228.27
762.18	1258.99
762.364	1293.8
762.547	1111.54
762.731	1215.98
762.914	1281.52
763.098	1220.08
763.281	1222.13
763.464	1236.46
763.648	1156.59
763.831	1203.69
764.015	1050.1
764.198	1156.59
764.381	1166.83
764.564	1224.17
764.748	1175.02
764.931	1152.49
765.114	1164.78
765.297	1138.16
765.481	988.66
765.664	1097.2
765.847	1129.97
766.03	1097.2
766.213	1121.77
766.397	1150.45
766.58	1007.09
766.763	1091.06
766.946	1105.39
767.129	1015.28
767.312	1125.87
767.495	1105.39
767.678	1086.96
767.861	1177.07
768.044	1074.67
768.227	1043.95
768.41	1023.47
768.593	1072.62
768.776	1027.57
768.959	1019.38
769.142	1164.78
769.324	968.18
769.507	1076.72
769.69	990.7
769.873	1050.1
770.056	1043.95
770.239	1048.05
770.421	1052.14
770.604	951.79
770.787	990.7
770.97	1017.33
771.152	990.7
771.335	1009.14
771.518	929.27
771.7	951.79
771.883	1000.94
772.066	949.75
772.248	1007.09
772.431	982.51
772.613	1017.33
772.796	1029.62
772.978	935.41
773.161	982.51
773.343	925.17
773.526	810.48
773.708	814.58
773.891	802.29
774.073	867.83
774.256	845.3
774.438	996.85
774.621	878.07
774.803	849.4
774.985	876.02
775.168	910.83
775.35	841.2
775.532	910.83
775.715	869.87
775.897	912.88
776.079	826.87
776.261	845.3
776.444	828.92
776.626	843.25
776.808	835.06
776.99	722.42
777.173	833.01
777.355	728.56
777.537	794.1
777.719	822.77
777.901	728.56
778.083	790
778.265	687.61
778.447	798.2
778.629	722.42
778.811	849.4
778.993	687.61
779.175	822.77
779.357	747
779.539	744.95
779.721	615.93
779.903	728.56
780.085	744.95
780.267	687.61
780.449	687.61
780.631	671.22
780.812	736.76
780.994	642.55
781.176	703.99
781.358	624.12
781.54	634.36
781.721	701.94
781.903	638.45
782.085	681.46
782.267	689.65
782.448	546.3
782.63	665.08
782.812	622.07
782.993	613.88
783.175	638.45
783.357	648.69
783.538	626.17
783.72	544.25
783.901	597.49
784.083	636.41
784.264	548.34
784.446	513.53
784.627	521.72
784.809	491
784.99	529.91
785.172	591.35
785.353	507.38
785.535	546.3
785.716	482.81
785.897	577.02
786.079	597.49
786.26	550.39
786.441	484.86
786.623	511.48
786.804	491
786.985	488.95
787.167	544.25
787.348	445.95
787.529	439.8
787.71	560.63
787.891	570.87
788.073	427.51
788.254	495.1
788.435	462.33
788.616	497.14
788.797	388.6
788.978	482.81
789.159	482.81
789.34	501.24
789.522	482.81
789.703	443.9
789.884	468.47
790.065	443.9
790.246	435.71
790.427	382.46
790.607	470.52
790.788	429.56
790.969	415.23
791.15	470.52
791.331	400.89
791.512	425.47
791.693	396.79
791.874	421.37
792.054	491
792.235	411.13
792.416	269.82
792.597	415.23
792.778	343.55
792.958	447.99
793.139	441.85
793.32	421.37
793.5	400.89
793.681	372.22
793.862	368.12
794.042	433.66
794.223	306.68
794.404	314.88
794.584	292.35
794.765	376.31
794.945	409.08
795.126	392.7
795.306	318.97
795.487	361.98
795.667	349.69
795.848	269.82
796.028	402.94
796.209	286.2
796.389	384.51
796.57	318.97
796.75	316.92
796.93	308.73
797.111	286.2
797.291	353.79
797.471	409.08
797.652	361.98
797.832	339.45
798.012	386.55
798.192	351.74
798.373	355.83
798.553	310.78
798.733	282.11
798.913	286.2
799.093	308.73
799.274	302.59
799.454	400.89
799.634	384.51
799.814	386.55
799.994	345.59
800.174	321.02
800.354	259.58
800.534	249.34
800.714	302.59
800.894	312.83
801.074	257.53
801.254	198.14
801.434	263.68
801.614	327.16
801.794	280.06
801.974	843.25
802.154	278.01
802.334	294.4
802.514	204.28
802.693	230.91
802.873	267.77
803.053	310.78
803.233	331.26
803.413	204.28
803.592	286.2
803.772	189.95
803.952	228.86
804.131	189.95
804.311	296.44
804.491	296.44
804.67	267.77
804.85	224.76
805.03	239.1
805.209	261.63
805.389	245.24
805.568	206.33
805.748	257.53
805.928	296.44
806.107	216.57
806.287	196.09
806.466	278.01
806.646	265.72
806.825	261.63
807.004	146.94
807.184	261.63
807.363	263.68
807.543	198.14
807.722	167.42
807.901	263.68
808.081	253.44
808.26	101.89
808.439	286.2
808.619	286.2
808.798	224.76
808.977	232.96
809.156	278.01
809.336	255.48
809.515	286.2
809.694	122.37
809.873	187.9
810.052	206.33
810.231	290.3
810.411	167.42
810.59	230.91
810.769	200.19
810.948	228.86
811.127	108.03
811.306	175.61
811.485	228.86
811.664	247.29
811.843	181.76
812.022	196.09
812.201	198.14
812.38	239.1
812.559	179.71
812.737	206.33
812.916	97.79
813.095	222.72
813.274	183.81
813.453	142.85
813.632	118.27
813.811	179.71
813.989	146.94
814.168	183.81
814.347	124.41
814.526	163.33
814.704	200.19
814.883	181.76
815.062	159.23
815.24	220.67
815.419	179.71
815.598	214.52
815.776	65.02
815.955	224.76
816.133	134.65
816.312	163.33
816.49	171.52
816.669	216.57
816.847	155.13
817.026	130.56
817.204	173.57
817.383	163.33
817.561	122.37
817.74	204.28
817.918	204.28
818.097	110.08
818.275	85.5
818.453	198.14
818.632	214.52
818.81	148.99
818.988	151.04
819.167	198.14
819.345	165.37
819.523	79.36
819.701	138.75
819.879	179.71
820.058	105.98
820.236	132.61
820.414	140.8
820.592	185.85
820.77	146.94
820.948	204.28
821.127	108.03
821.305	157.18
821.483	75.26
821.661	165.37
821.839	185.85
822.017	181.76
822.195	130.56
822.373	142.85
822.551	163.33
822.729	138.75
822.907	34.3
823.085	204.28
823.262	138.75
823.44	95.74
823.618	56.83
823.796	116.22
823.974	114.17
824.152	81.41
824.329	110.08
824.507	99.84
824.685	132.61
824.863	114.17
825.04	122.37
825.218	9.73
825.396	93.69
825.574	208.38
825.751	138.75
825.929	179.71
826.107	151.04
826.284	132.61
826.462	171.52
826.639	122.37
826.817	36.35
826.994	83.45
827.172	126.46
827.349	151.04
827.527	105.98
827.704	114.17
827.882	99.84
828.059	11.78
828.237	91.65
828.414	142.85
828.591	40.45
828.769	108.03
828.946	65.02
829.124	220.67
829.301	202.24
829.478	155.13
829.655	48.64
829.833	73.21
830.01	24.06
830.187	114.17
830.364	179.71
830.542	155.13
830.719	159.23
830.896	99.84
831.073	114.17
831.25	116.22
831.427	36.35
831.604	97.79
831.782	75.26
831.959	75.26
832.136	146.94
832.313	116.22
832.49	116.22
832.667	183.81
832.844	65.02
833.021	101.89
833.198	126.46
833.374	181.76
833.551	101.89
833.728	83.45
833.905	34.3
834.082	42.5
834.259	71.17
834.436	140.8
834.612	58.88
834.789	118.27
834.966	128.51
835.143	50.69
835.319	56.83
835.496	24.06
835.673	130.56
835.85	122.37
836.026	69.12
836.203	105.98
836.38	40.45
836.556	177.66
836.733	22.02
836.909	163.33
837.086	44.54
837.262	56.83
837.439	50.69
837.616	48.64
837.792	58.88
837.968	60.93
838.145	15.87
838.321	36.35
838.498	24.06
838.674	155.13
838.851	116.22
839.027	83.45
839.203	60.93
839.38	110.08
839.556	24.06
839.732	130.56
839.909	99.84
840.085	126.46
840.261	26.11
840.437	75.26
840.614	-12.8
840.79	105.98
840.966	52.74
841.142	60.93
841.318	56.83
841.494	65.02
841.671	19.97
841.847	32.26
842.023	136.7
842.199	130.56
842.375	126.46
842.551	-20.99
842.727	56.83
842.903	95.74
843.079	77.31
843.255	97.79
843.431	34.3
843.607	48.64
843.783	13.82
843.959	85.5
844.134	-14.85
844.31	89.6
844.486	60.93
844.662	46.59
844.838	56.83
845.013	73.21
845.189	130.56
845.365	73.21
845.541	69.12
845.716	69.12
845.892	34.3
846.068	73.21
846.244	81.41
846.419	75.26
846.595	11.78
846.77	32.26
846.946	157.18
847.122	-10.75
847.297	24.06
847.473	58.88
847.648	-4.61
847.824	89.6
847.999	24.06
848.175	-16.9
848.35	56.83
848.526	60.93
848.701	56.83
848.876	71.17
849.052	101.89
849.227	56.83
849.403	15.87
849.578	24.06
849.753	97.79
849.929	73.21
850.104	-57.86
850.279	15.87
850.454	124.41
850.63	124.41
850.805	128.51
850.98	97.79
851.155	-6.66
851.33	69.12
851.505	15.87
851.681	112.13
851.856	17.92
852.031	67.07
852.206	34.3
852.381	44.54
852.556	48.64
852.731	89.6
852.906	65.02
853.081	17.92
853.256	83.45
853.431	48.64
853.606	40.45
853.781	50.69
853.956	34.3
854.131	36.35
854.305	19.97
854.48	62.98
854.655	73.21
854.83	65.02
855.005	67.07
855.18	60.93
855.354	24.06
855.529	40.45
855.704	5.63
855.879	71.17
856.053	79.36
856.228	58.88
856.403	50.69
856.577	73.21
856.752	-16.9
856.926	15.87
857.101	13.82
857.276	-39.42
857.45	83.45
857.625	32.26
857.799	-4.61
857.974	58.88
858.148	24.06
858.323	81.41
858.497	13.82
858.672	-23.04
858.846	81.41
859.02	122.37
859.195	-23.04
859.369	-4.61
859.543	26.11
859.718	56.83
859.892	9.73
860.066	24.06
860.241	-0.51
860.415	-41.47
860.589	24.06
860.763	-39.42
860.938	-16.9
861.112	87.55
861.286	-8.7
861.46	24.06
861.634	40.45
861.808	36.35
861.982	91.65
862.157	-14.85
862.331	95.74
862.505	50.69
862.679	24.06
862.853	44.54
863.027	69.12
863.201	138.75
863.375	17.92
863.549	42.5
863.722	30.21
863.896	101.89
864.07	9.73
864.244	71.17
864.418	36.35
864.592	146.94
864.766	69.12
864.939	130.56
865.113	-0.51
865.287	56.83
865.461	32.26
865.634	52.74
865.808	40.45
865.982	-25.09
866.156	-12.8
866.329	48.64
866.503	52.74
866.676	-4.61
866.85	69.12
867.024	42.5
867.197	146.94
867.371	-37.38
867.544	89.6
867.718	-10.75
867.891	32.26
868.065	-29.18
868.238	-39.42
868.412	58.88
868.585	1.54
868.759	-14.85
868.932	97.79
869.105	24.06
869.279	83.45
869.452	-23.04
869.625	-45.57
869.799	24.06
869.972	65.02
870.145	-12.8
870.319	75.26
870.492	36.35
870.665	9.73
870.838	13.82
871.011	-41.47
871.185	71.17
871.358	-8.7
871.531	58.88
871.704	36.35
871.877	48.64
872.05	-49.66
872.223	-4.61
872.396	112.13
872.569	7.68
872.742	-6.66
872.915	32.26
873.088	-70.14
873.261	-6.66
873.434	42.5
873.607	15.87
873.78	11.78
873.953	-33.28
874.126	28.16
874.299	19.97
874.471	91.65
874.644	17.92
874.817	28.16
874.99	138.75
875.163	26.11
875.335	50.69
875.508	-0.51
875.681	17.92
875.853	-14.85
876.026	3.58
876.199	7.68
876.371	-25.09
876.544	7.68
876.717	-8.7
876.889	48.64
877.062	114.17
877.234	7.68
877.407	48.64
877.579	19.97
877.752	44.54
877.924	99.84
878.097	65.02
878.269	-49.66
878.442	42.5
878.614	93.69
878.786	-49.66
878.959	24.06
879.131	-49.66
879.303	-49.66
879.476	81.41
879.648	-0.51
879.82	81.41
879.993	60.93
880.165	1.54
880.337	15.87
880.509	65.02
880.681	-6.66
880.854	-31.23
881.026	-4.61
881.198	52.74
881.37	-8.7
881.542	-4.61
881.714	26.11
881.886	22.02
882.058	7.68
882.23	13.82
882.402	24.06
882.574	-47.62
882.746	24.06
882.918	89.6
883.09	83.45
883.262	42.5
883.434	22.02
883.606	-49.66
883.778	-66.05
883.95	91.65
884.122	99.84
884.293	91.65
884.465	-16.9
884.637	69.12
884.809	-45.57
884.98	28.16
885.152	67.07
885.324	22.02
885.496	-119.29
885.667	-29.18
885.839	-84.48
886.011	40.45
886.182	-59.9
886.354	-14.85
886.525	13.82
886.697	28.16
886.869	-0.51
887.04	17.92
887.212	65.02
887.383	120.32
887.555	-33.28
887.726	11.78
887.897	-45.57
888.069	15.87
888.24	15.87
888.412	44.54
888.583	32.26
888.754	-0.51
888.926	-8.7
889.097	11.78
889.268	-88.57
889.44	26.11
889.611	48.64
889.782	19.97
889.953	-0.51
890.125	60.93
890.296	42.5
890.467	15.87
890.638	-39.42
890.809	40.45
890.98	-88.57
891.151	36.35
891.323	-20.99
891.494	-4.61
891.665	-6.66
891.836	24.06
892.007	11.78
892.178	-29.18
892.349	34.3
892.52	-49.66
892.691	30.21
892.862	19.97
893.032	-0.51
893.203	-0.51
893.374	-55.81
893.545	56.83
893.716	-98.81
893.887	7.68
894.057	26.11
894.228	-25.09
894.399	83.45
894.57	19.97
894.74	-8.7
894.911	19.97
895.082	15.87
895.253	-4.61
895.423	-41.47
895.594	-23.04
895.764	81.41
895.935	-16.9
896.106	97.79
896.276	-8.7
896.447	-0.51
896.617	7.68
896.788	15.87
896.958	-70.14
897.129	24.06
897.299	7.68
897.47	108.03
897.64	5.63
897.81	77.31
897.981	11.78
898.151	7.68
898.322	36.35
898.492	34.3
898.662	65.02
898.832	-84.48
899.003	-72.19
899.173	42.5
899.343	7.68
899.513	58.88
