Data from USB4F104151__281__14-34-45-650.txt Node

Date: Thu Mar 13 14:34:45 EDT 2025
User: louis
Spectrometer: USB4F10415
Trigger mode: 4
Integration Time (sec): 2.500000E-2
Scans to average: 1
Electric dark correction enabled: true
Nonlinearity correction enabled: false
Boxcar width: 0
XAxis mode: Wavelengths
Number of Pixels in Spectrum: 3648
>>>>>Begin Spectral Data<<<<<
178.204	-138.92
178.424	-138.92
178.644	-138.92
178.864	-179.88
179.084	-183.98
179.304	-13.99
179.524	-26.28
179.744	-30.38
179.964	2.39
180.184	-7.85
180.404	24.92
180.624	90.45
180.844	12.63
181.064	-5.8
181.283	-36.52
181.503	18.77
181.723	-28.33
181.943	-24.23
182.163	24.92
182.383	-57
182.602	123.22
182.822	69.97
183.042	49.49
183.262	51.54
183.482	49.49
183.701	18.77
183.921	106.84
184.141	51.54
184.361	49.49
184.58	92.5
184.8	53.59
185.02	-13.99
185.239	14.68
185.459	4.44
185.679	33.11
185.898	-38.57
186.118	86.36
186.338	92.5
186.557	57.68
186.777	-40.62
186.997	18.77
187.216	-32.43
187.436	110.93
187.655	94.55
187.875	10.58
188.095	16.73
188.314	57.68
188.534	133.46
188.753	-36.52
188.973	22.87
189.192	57.68
189.412	12.63
189.631	115.03
189.851	24.92
190.07	31.06
190.29	57.68
190.509	24.92
190.729	2.39
190.948	55.64
191.168	182.61
191.387	102.74
191.607	-28.33
191.826	98.64
192.045	82.26
192.265	69.97
192.484	65.88
192.704	57.68
192.923	-54.95
193.142	137.56
193.362	39.25
193.581	-1.71
193.8	65.88
194.02	57.68
194.239	10.58
194.458	12.63
194.678	18.77
194.897	2.39
195.116	10.58
195.335	4.44
195.555	35.16
195.774	43.35
195.993	4.44
196.212	55.64
196.432	33.11
196.651	26.96
196.87	-3.75
197.089	112.98
197.308	76.12
197.528	59.73
197.747	12.63
197.966	26.96
198.185	84.31
198.404	65.88
198.623	37.2
198.842	41.3
199.062	53.59
199.281	106.84
199.5	115.03
199.719	65.88
199.938	53.59
200.157	82.26
200.376	-30.38
200.595	29.01
200.814	76.12
201.033	-5.8
201.252	117.08
201.471	20.82
201.69	76.12
201.909	18.77
202.128	-9.9
202.347	45.4
202.566	-22.19
202.785	20.82
203.004	57.68
203.223	147.8
203.442	86.36
203.661	-48.81
203.879	24.92
204.098	16.73
204.317	2.39
204.536	147.8
204.755	-30.38
204.974	35.16
205.193	29.01
205.411	98.64
205.63	49.49
205.849	37.2
206.068	18.77
206.287	29.01
206.505	20.82
206.724	26.96
206.943	43.35
207.162	-11.95
207.381	14.68
207.599	-9.9
207.818	35.16
208.037	57.68
208.255	82.26
208.474	74.07
208.693	41.3
208.911	16.73
209.13	16.73
209.349	67.92
209.567	33.11
209.786	57.68
210.005	69.97
210.223	76.12
210.442	37.2
210.661	86.36
210.879	-32.43
211.098	43.35
211.316	-3.75
211.535	4.44
211.753	0.34
211.972	4.44
212.191	-22.19
212.409	45.4
212.628	45.4
212.846	78.16
213.065	24.92
213.283	123.22
213.502	10.58
213.72	16.73
213.938	59.73
214.157	49.49
214.375	37.2
214.594	61.78
214.812	53.59
215.031	-32.43
215.249	18.77
215.467	65.88
215.686	98.64
215.904	20.82
216.122	115.03
216.341	98.64
216.559	-20.14
216.778	67.92
216.996	-11.95
217.214	-30.38
217.432	43.35
217.651	53.59
217.869	-1.71
218.087	51.54
218.306	35.16
218.524	-7.85
218.742	-7.85
218.96	74.07
219.179	8.53
219.397	51.54
219.615	37.2
219.833	45.4
220.051	-46.76
220.27	61.78
220.488	76.12
220.706	76.12
220.924	4.44
221.142	92.5
221.36	-5.8
221.578	29.01
221.796	-32.43
222.015	4.44
222.233	-11.95
222.451	63.83
222.669	-3.75
222.887	-22.19
223.105	-40.62
223.323	-13.99
223.541	-32.43
223.759	59.73
223.977	-34.47
224.195	41.3
224.413	65.88
224.631	49.49
224.849	-24.23
225.067	115.03
225.285	-3.75
225.503	10.58
225.721	57.68
225.939	59.73
226.157	22.87
226.375	90.45
226.592	-40.62
226.81	-46.76
227.028	-22.19
227.246	35.16
227.464	-24.23
227.682	35.16
227.9	41.3
228.117	49.49
228.335	53.59
228.553	33.11
228.771	-13.99
228.989	24.92
229.206	82.26
229.424	53.59
229.642	24.92
229.86	-13.99
230.077	57.68
230.295	20.82
230.513	24.92
230.731	57.68
230.948	125.27
231.166	16.73
231.384	26.96
231.601	24.92
231.819	10.58
232.037	-38.57
232.254	0.34
232.472	53.59
232.689	-3.75
232.907	35.16
233.125	20.82
233.342	-11.95
233.56	-77.48
233.777	59.73
233.995	61.78
234.213	174.42
234.43	-52.91
234.648	-16.04
234.865	4.44
235.083	61.78
235.3	16.73
235.518	-11.95
235.735	110.93
235.953	16.73
236.17	16.73
236.388	-40.62
236.605	65.88
236.822	102.74
237.04	-26.28
237.257	12.63
237.475	67.92
237.692	86.36
237.909	55.64
238.127	-61.1
238.344	18.77
238.562	16.73
238.779	-32.43
238.996	16.73
239.214	-28.33
239.431	53.59
239.648	65.88
239.865	131.41
240.083	4.44
240.3	16.73
240.517	41.3
240.735	-5.8
240.952	125.27
241.169	90.45
241.386	37.2
241.603	33.11
241.821	-7.85
242.038	127.32
242.255	8.53
242.472	-16.04
242.689	29.01
242.907	26.96
243.124	-24.23
243.341	-38.57
243.558	-5.8
243.775	-20.14
243.992	0.34
244.209	76.12
244.426	135.51
244.643	-9.9
244.86	16.73
245.078	59.73
245.295	76.12
245.512	41.3
245.729	10.58
245.946	8.53
246.163	-44.71
246.38	-7.85
246.597	20.82
246.814	82.26
247.031	53.59
247.248	133.46
247.464	12.63
247.681	67.92
247.898	94.55
248.115	24.92
248.332	-110.25
248.549	65.88
248.766	115.03
248.983	69.97
249.2	49.49
249.417	100.69
249.633	16.73
249.85	76.12
250.067	-5.8
250.284	16.73
250.501	35.16
250.717	33.11
250.934	-3.75
251.151	49.49
251.368	63.83
251.585	57.68
251.801	35.16
252.018	-34.47
252.235	129.36
252.451	10.58
252.668	63.83
252.885	10.58
253.102	26.96
253.318	39.25
253.535	26.96
253.752	45.4
253.968	8.53
254.185	29.01
254.401	10.58
254.618	-1.71
254.835	57.68
255.051	74.07
255.268	16.73
255.484	10.58
255.701	-22.19
255.917	18.77
256.134	-5.8
256.351	-24.23
256.567	-16.04
256.784	100.69
257	-48.81
257.217	57.68
257.433	47.44
257.65	33.11
257.866	55.64
258.082	-26.28
258.299	-20.14
258.515	49.49
258.732	-28.33
258.948	51.54
259.165	-16.04
259.381	49.49
259.597	0.34
259.814	-16.04
260.03	-3.75
260.246	86.36
260.463	29.01
260.679	0.34
260.895	65.88
261.112	43.35
261.328	-28.33
261.544	-48.81
261.761	129.36
261.977	8.53
262.193	10.58
262.409	49.49
262.626	0.34
262.842	82.26
263.058	57.68
263.274	33.11
263.49	88.4
263.707	53.59
263.923	65.88
264.139	6.49
264.355	29.01
264.571	24.92
264.787	125.27
265.004	125.27
265.22	24.92
265.436	45.4
265.652	-32.43
265.868	49.49
266.084	-65.19
266.3	18.77
266.516	69.97
266.732	2.39
266.948	51.54
267.164	86.36
267.38	53.59
267.596	-40.62
267.812	117.08
268.028	53.59
268.244	26.96
268.46	41.3
268.676	39.25
268.892	59.73
269.108	41.3
269.324	16.73
269.54	10.58
269.756	57.68
269.972	0.34
270.188	43.35
270.403	26.96
270.619	-3.75
270.835	29.01
271.051	82.26
271.267	-5.8
271.483	86.36
271.698	-9.9
271.914	94.55
272.13	90.45
272.346	37.2
272.562	72.02
272.777	74.07
272.993	29.01
273.209	31.06
273.425	92.5
273.64	-40.62
273.856	74.07
274.072	41.3
274.287	-22.19
274.503	45.4
274.719	37.2
274.934	72.02
275.15	-42.67
275.366	57.68
275.581	65.88
275.797	57.68
276.012	-16.04
276.228	80.21
276.444	33.11
276.659	90.45
276.875	-30.38
277.09	49.49
277.306	92.5
277.521	8.53
277.737	69.97
277.952	98.64
278.168	65.88
278.383	26.96
278.599	24.92
278.814	-3.75
279.03	65.88
279.245	51.54
279.461	90.45
279.676	-24.23
279.892	6.49
280.107	0.34
280.322	37.2
280.538	33.11
280.753	14.68
280.969	-28.33
281.184	82.26
281.399	51.54
281.615	-11.95
281.83	10.58
282.045	-38.57
282.26	16.73
282.476	18.77
282.691	45.4
282.906	90.45
283.122	65.88
283.337	2.39
283.552	55.64
283.767	53.59
283.983	92.5
284.198	-57
284.413	57.68
284.628	-57
284.843	18.77
285.058	86.36
285.274	51.54
285.489	18.77
285.704	53.59
285.919	10.58
286.134	4.44
286.349	-7.85
286.564	33.11
286.779	47.44
286.995	-36.52
287.21	59.73
287.425	43.35
287.64	8.53
287.855	76.12
288.07	0.34
288.285	33.11
288.5	117.08
288.715	41.3
288.93	59.73
289.145	-34.47
289.36	74.07
289.575	51.54
289.79	57.68
290.004	35.16
290.219	33.11
290.434	76.12
290.649	-7.85
290.864	82.26
291.079	-3.75
291.294	49.49
291.509	98.64
291.724	57.68
291.938	82.26
292.153	14.68
292.368	-16.04
292.583	131.41
292.798	45.4
293.012	26.96
293.227	18.77
293.442	92.5
293.657	65.88
293.871	61.78
294.086	4.44
294.301	115.03
294.516	67.92
294.73	24.92
294.945	74.07
295.16	35.16
295.374	106.84
295.589	78.16
295.804	-20.14
296.018	35.16
296.233	67.92
296.447	67.92
296.662	-3.75
296.877	98.64
297.091	74.07
297.306	20.82
297.52	61.78
297.735	65.88
297.949	59.73
298.164	0.34
298.378	-81.58
298.593	-46.76
298.807	-67.24
299.022	29.01
299.236	104.79
299.451	-32.43
299.665	20.82
299.88	22.87
300.094	49.49
300.309	65.88
300.523	24.92
300.737	104.79
300.952	10.58
301.166	39.25
301.381	-36.52
301.595	18.77
301.809	108.88
302.024	24.92
302.238	24.92
302.452	74.07
302.667	47.44
302.881	94.55
303.095	47.44
303.309	61.78
303.524	-13.99
303.738	-54.95
303.952	10.58
304.166	51.54
304.381	-79.53
304.595	108.88
304.809	12.63
305.023	53.59
305.237	65.88
305.452	37.2
305.666	84.31
305.88	96.6
306.094	-7.85
306.308	-44.71
306.522	-40.62
306.736	49.49
306.95	8.53
307.164	8.53
307.379	-18.09
307.593	33.11
307.807	57.68
308.021	57.68
308.235	67.92
308.449	-11.95
308.663	-95.91
308.877	69.97
309.091	-20.14
309.305	92.5
309.519	-30.38
309.733	20.82
309.947	33.11
310.161	8.53
310.374	-26.28
310.588	98.64
310.802	-48.81
311.016	31.06
311.23	33.11
311.444	-61.1
311.658	-22.19
311.872	51.54
312.085	90.45
312.299	51.54
312.513	-11.95
312.727	76.12
312.941	-93.87
313.154	69.97
313.368	82.26
313.582	4.44
313.796	82.26
314.009	59.73
314.223	94.55
314.437	-24.23
314.651	-7.85
314.864	-5.8
315.078	92.5
315.292	18.77
315.505	51.54
315.719	45.4
315.933	51.54
316.146	47.44
316.36	-28.33
316.573	172.37
316.787	29.01
317.001	35.16
317.214	41.3
317.428	0.34
317.641	-44.71
317.855	59.73
318.068	22.87
318.282	16.73
318.495	72.02
318.709	112.98
318.922	14.68
319.136	82.26
319.349	18.77
319.563	2.39
319.776	69.97
319.99	39.25
320.203	41.3
320.417	16.73
320.63	65.88
320.843	131.41
321.057	37.2
321.27	10.58
321.483	88.4
321.697	41.3
321.91	37.2
322.124	51.54
322.337	26.96
322.55	4.44
322.763	-7.85
322.977	98.64
323.19	6.49
323.403	59.73
323.617	53.59
323.83	65.88
324.043	0.34
324.256	84.31
324.469	29.01
324.683	90.45
324.896	41.3
325.109	76.12
325.322	24.92
325.535	82.26
325.748	24.92
325.962	16.73
326.175	24.92
326.388	67.92
326.601	117.08
326.814	16.73
327.027	-20.14
327.24	41.3
327.453	-32.43
327.666	20.82
327.879	24.92
328.092	8.53
328.305	-24.23
328.518	65.88
328.731	45.4
328.944	53.59
329.157	76.12
329.37	86.36
329.583	104.79
329.796	86.36
330.009	-50.86
330.222	67.92
330.435	102.74
330.648	49.49
330.861	57.68
331.073	24.92
331.286	41.3
331.499	33.11
331.712	-40.62
331.925	143.7
332.138	-13.99
332.35	98.64
332.563	33.11
332.776	49.49
332.989	84.31
333.202	49.49
333.414	24.92
333.627	61.78
333.84	49.49
334.053	65.88
334.265	65.88
334.478	8.53
334.691	-24.23
334.903	102.74
335.116	12.63
335.329	-59.05
335.541	37.2
335.754	133.46
335.966	43.35
336.179	16.73
336.392	37.2
336.604	24.92
336.817	147.8
337.029	4.44
337.242	65.88
337.454	108.88
337.667	26.96
337.88	94.55
338.092	29.01
338.305	59.73
338.517	33.11
338.729	26.96
338.942	33.11
339.154	-30.38
339.367	-18.09
339.579	86.36
339.792	4.44
340.004	0.34
340.217	0.34
340.429	24.92
340.641	33.11
340.854	37.2
341.066	37.2
341.278	153.94
341.491	115.03
341.703	14.68
341.915	51.54
342.128	98.64
342.34	49.49
342.552	-24.23
342.764	-1.71
342.977	123.22
343.189	-36.52
343.401	29.01
343.613	-28.33
343.826	41.3
344.038	26.96
344.25	53.59
344.462	22.87
344.674	61.78
344.886	-22.19
345.099	43.35
345.311	55.64
345.523	0.34
345.735	-38.57
345.947	16.73
346.159	49.49
346.371	108.88
346.583	24.92
346.795	137.56
347.007	69.97
347.219	43.35
347.431	-32.43
347.643	123.22
347.855	51.54
348.067	69.97
348.279	-5.8
348.491	100.69
348.703	86.36
348.915	82.26
349.127	53.59
349.339	110.93
349.551	41.3
349.763	78.16
349.975	0.34
350.187	82.26
350.399	123.22
350.61	16.73
350.822	10.58
351.034	82.26
351.246	43.35
351.458	43.35
351.669	80.21
351.881	98.64
352.093	78.16
352.305	43.35
352.517	102.74
352.728	96.6
352.94	10.58
353.152	65.88
353.363	33.11
353.575	57.68
353.787	112.98
353.999	57.68
354.21	14.68
354.422	-5.8
354.633	-7.85
354.845	90.45
355.057	49.49
355.268	82.26
355.48	76.12
355.692	39.25
355.903	47.44
356.115	8.53
356.326	10.58
356.538	10.58
356.749	96.6
356.961	45.4
357.172	41.3
357.384	-5.8
357.595	123.22
357.807	26.96
358.018	20.82
358.23	0.34
358.441	51.54
358.653	49.49
358.864	4.44
359.075	41.3
359.287	8.53
359.498	88.4
359.709	8.53
359.921	72.02
360.132	49.49
360.344	18.77
360.555	57.68
360.766	61.78
360.977	74.07
361.189	121.17
361.4	10.58
361.611	78.16
361.823	61.78
362.034	67.92
362.245	-28.33
362.456	29.01
362.667	20.82
362.879	-5.8
363.09	8.53
363.301	65.88
363.512	43.35
363.723	29.01
363.935	65.88
364.146	78.16
364.357	0.34
364.568	86.36
364.779	18.77
364.99	65.88
365.201	12.63
365.412	59.73
365.623	16.73
365.834	-18.09
366.045	49.49
366.256	-7.85
366.467	43.35
366.678	35.16
366.889	78.16
367.1	115.03
367.311	16.73
367.522	74.07
367.733	53.59
367.944	45.4
368.155	90.45
368.366	49.49
368.577	127.32
368.788	123.22
368.999	45.4
369.209	16.73
369.42	69.97
369.631	133.46
369.842	12.63
370.053	18.77
370.264	90.45
370.474	12.63
370.685	106.84
370.896	153.94
371.107	53.59
371.317	59.73
371.528	37.2
371.739	90.45
371.95	65.88
372.16	49.49
372.371	33.11
372.582	49.49
372.792	57.68
373.003	98.64
373.214	43.35
373.424	106.84
373.635	41.3
373.846	86.36
374.056	76.12
374.267	57.68
374.477	41.3
374.688	59.73
374.898	-3.75
375.109	29.01
375.319	49.49
375.53	131.41
375.74	53.59
375.951	90.45
376.161	84.31
376.372	115.03
376.582	-71.34
376.793	65.88
377.003	33.11
377.214	4.44
377.424	67.92
377.635	86.36
377.845	-24.23
378.055	41.3
378.266	31.06
378.476	90.45
378.686	112.98
378.897	-11.95
379.107	37.2
379.317	-32.43
379.528	51.54
379.738	65.88
379.948	-65.19
380.158	108.88
380.369	49.49
380.579	90.45
380.789	53.59
380.999	74.07
381.21	51.54
381.42	110.93
381.63	76.12
381.84	41.3
382.05	92.5
382.261	61.78
382.471	94.55
382.681	12.63
382.891	67.92
383.101	88.4
383.311	-24.23
383.521	-7.85
383.731	67.92
383.941	29.01
384.151	61.78
384.361	57.68
384.571	33.11
384.781	43.35
384.991	49.49
385.201	74.07
385.411	82.26
385.621	51.54
385.831	33.11
386.041	90.45
386.251	8.53
386.461	59.73
386.671	78.16
386.881	24.92
387.091	-22.19
387.301	76.12
387.511	45.4
387.72	90.45
387.93	41.3
388.14	69.97
388.35	65.88
388.56	51.54
388.769	102.74
388.979	108.88
389.189	39.25
389.399	72.02
389.609	92.5
389.818	115.03
390.028	82.26
390.238	12.63
390.447	69.97
390.657	78.16
390.867	33.11
391.076	29.01
391.286	59.73
391.496	51.54
391.705	59.73
391.915	92.5
392.125	131.41
392.334	76.12
392.544	90.45
392.753	78.16
392.963	-32.43
393.172	117.08
393.382	31.06
393.591	92.5
393.801	78.16
394.01	176.47
394.22	98.64
394.429	57.68
394.639	37.2
394.848	92.5
395.058	49.49
395.267	26.96
395.477	53.59
395.686	94.55
395.895	147.8
396.105	151.89
396.314	61.78
396.524	123.22
396.733	18.77
396.942	86.36
397.152	119.12
397.361	117.08
397.57	33.11
397.78	74.07
397.989	115.03
398.198	160.08
398.407	110.93
398.617	106.84
398.826	127.32
399.035	117.08
399.244	55.64
399.453	98.64
399.663	51.54
399.872	55.64
400.081	125.27
400.29	78.16
400.499	96.6
400.708	164.18
400.917	115.03
401.127	131.41
401.336	162.13
401.545	176.47
401.754	112.98
401.963	125.27
402.172	49.49
402.381	16.73
402.59	106.84
402.799	133.46
403.008	153.94
403.217	131.41
403.426	100.69
403.635	106.84
403.844	139.6
404.053	160.08
404.262	147.8
404.471	172.37
404.68	190.8
404.888	88.4
405.097	119.12
405.306	248.15
405.515	172.37
405.724	172.37
405.933	176.47
406.142	190.8
406.35	242
406.559	229.71
406.768	147.8
406.977	205.14
407.185	262.48
407.394	254.29
407.603	229.71
407.812	229.71
408.02	246.1
408.229	239.95
408.438	211.28
408.646	221.52
408.855	262.48
409.064	266.58
409.272	268.63
409.481	364.88
409.69	188.75
409.898	307.54
410.107	397.65
410.315	305.49
410.524	297.3
410.733	395.6
410.941	395.6
411.15	336.21
411.358	348.5
411.567	430.41
411.775	307.54
411.984	317.78
412.192	498
412.401	491.85
412.609	446.8
412.818	487.76
413.026	502.09
413.234	487.76
413.443	524.62
413.651	602.44
413.86	567.63
414.068	549.2
414.276	696.65
414.485	592.2
414.693	635.21
414.901	758.09
415.11	725.32
415.318	700.75
415.526	809.29
415.734	772.43
415.943	848.2
416.151	897.35
416.359	819.53
416.567	837.96
416.776	846.15
416.984	919.88
417.192	1048.9
417.4	1003.85
417.608	1016.13
417.817	1040.71
418.025	1184.07
418.233	1108.29
418.441	1173.83
418.649	1190.21
418.857	1292.61
419.065	1265.99
419.273	1253.7
419.481	1296.71
419.689	1466.69
419.897	1433.92
420.105	1499.45
420.313	1548.61
420.521	1624.38
420.729	1716.54
420.937	1689.92
421.145	1794.36
421.353	1941.82
421.561	1861.94
421.769	1909.05
421.977	2081.08
422.185	2144.56
422.393	2140.47
422.601	2384.18
422.809	2328.88
423.017	2394.42
423.224	2396.46
423.432	2621.74
423.64	2564.4
423.848	2756.91
424.056	2599.21
424.263	2851.11
424.471	2910.5
424.679	3006.76
424.887	3031.34
425.094	3115.3
425.302	3137.83
425.51	3240.23
425.718	3227.94
425.925	3424.55
426.133	3520.8
426.341	3692.83
426.548	3944.73
426.756	3957.02
426.964	3838.23
427.171	4137.24
427.379	4186.39
427.586	4301.08
427.794	4516.11
428.001	4638.99
428.209	4942.09
428.417	4845.84
428.624	5243.14
428.832	5187.85
429.039	5132.55
429.247	5282.05
429.454	5589.25
429.662	6088.95
429.869	5646.59
430.076	5972.22
430.284	5849.34
430.491	6146.3
430.699	6353.14
430.906	6471.92
431.114	6365.43
431.321	6758.64
431.528	6865.13
431.736	7336.17
431.943	7784.67
432.15	7442.66
432.358	7327.97
432.565	8007.9
432.772	7909.6
432.979	8177.88
433.187	8292.57
433.394	8478.93
433.601	9019.6
433.808	9072.84
434.016	9011.4
434.223	9371.85
434.43	10070.2
434.637	9758.91
434.844	10356.92
435.052	10469.56
435.259	10473.65
435.466	10416.31
435.673	10383.54
435.88	11126.96
436.087	11858.08
436.294	11554.98
436.501	11239.59
436.708	11669.67
436.915	12011.68
437.122	12765.33
437.329	12372.12
437.537	13013.13
437.743	13033.61
437.95	12982.42
438.157	13731.97
438.364	14221.44
438.571	14114.94
438.778	14110.85
438.985	15435.88
439.192	14862.45
439.399	15138.93
439.606	15042.67
439.813	15689.83
440.02	16607.32
440.227	16339.04
440.433	16334.94
440.64	16750.68
440.847	16513.11
441.054	16889.94
441.261	18100.29
441.467	17729.61
441.674	18145.34
441.881	19103.79
442.088	19044.4
442.294	18737.21
442.501	19150.9
442.708	19421.23
442.914	20506.65
443.121	21071.89
443.328	20645.91
443.534	22130.69
443.741	21321.74
443.948	20971.54
444.154	22583.29
444.361	22714.36
444.568	22595.58
444.774	22687.74
444.981	23070.71
445.187	23541.74
445.394	24831.96
445.6	24553.44
445.807	26529.73
446.013	25075.67
446.22	25868.23
446.426	26963.9
446.633	27107.26
446.839	28075.94
447.046	26933.18
447.252	28272.55
447.459	28655.52
447.665	28571.55
447.871	29788.05
448.078	30662.53
448.284	29147.03
448.491	30062.47
448.697	31453.05
448.903	31719.28
449.11	31860.59
449.316	31399.8
449.522	32139.11
449.728	33152.86
449.935	33310.55
450.141	33236.83
450.347	33589.08
450.553	32546.66
450.76	33296.22
450.966	34150.22
451.172	34096.97
451.378	34641.73
451.584	33986.38
451.791	34809.67
451.997	34621.25
452.203	35596.09
452.409	35338.04
452.615	34783.04
452.821	33673.04
453.027	33300.31
453.233	35145.53
453.44	33697.62
453.646	33949.52
453.852	34271.05
454.058	34711.36
454.264	33642.32
454.47	34457.42
454.676	33535.83
454.882	34453.32
455.088	31881.07
455.294	31715.19
455.5	32343.91
455.705	32724.83
455.911	31444.85
456.117	31209.34
456.323	30855.04
456.529	28962.72
456.735	30322.57
456.941	29142.94
457.147	28977.05
457.352	28278.69
457.558	27606.96
457.764	27877.29
457.97	27619.25
458.176	26535.87
458.381	26697.66
458.587	25417.68
458.793	24782.81
458.999	24068.07
459.204	25427.92
459.41	25108.44
459.616	23271.41
459.821	23146.48
460.027	23005.17
460.233	22560.77
460.438	21610.51
460.644	21803.02
460.85	20809.75
461.055	20506.65
461.261	20342.81
461.466	18919.48
461.672	18419.77
461.878	19503.15
462.083	18169.92
462.289	17883.2
462.494	17672.26
462.7	17121.36
462.905	16595.03
463.111	16939.09
463.316	17074.26
463.522	16709.72
463.727	16582.74
463.932	16623.7
464.138	16236.64
464.343	16576.6
464.549	16230.49
464.754	16572.5
464.959	16375.9
465.165	16357.47
465.37	15616.1
465.575	14897.27
465.781	15659.11
465.986	15767.65
466.191	15310.96
466.397	14964.85
466.602	14293.12
466.807	14684.28
467.012	14940.27
467.218	14477.43
467.423	14526.58
467.628	14528.63
467.833	15034.48
468.038	14366.84
468.244	14127.23
468.449	14729.33
468.654	14016.64
468.859	14043.26
469.064	13930.62
469.269	13478.02
469.474	13539.46
469.679	13713.54
469.885	13504.65
470.09	13498.5
470.295	13375.63
470.5	13281.42
470.705	13322.38
470.91	12927.12
471.115	12624.02
471.32	12851.35
471.525	12857.49
471.73	12554.39
471.935	12388.5
472.139	12040.35
472.344	12187.8
472.549	12220.57
472.754	12097.69
472.959	11845.79
473.164	11745.44
473.369	11493.54
473.574	11708.58
473.778	11667.62
473.983	11569.32
474.188	11460.77
474.393	10827.95
474.598	10891.44
474.802	10801.33
475.007	10813.62
475.212	10750.13
475.417	10516.66
475.621	10375.35
475.826	10373.3
476.031	10354.87
476.235	10064.06
476.44	10174.65
476.645	10045.63
476.849	10162.36
477.054	9855.17
477.259	9748.67
477.463	9728.19
477.668	9425.09
477.872	9451.72
478.077	9439.43
478.282	9304.26
478.486	9056.46
478.691	8978.64
478.895	9216.2
479.1	9021.64
479.304	9121.99
479.509	8630.48
479.713	8757.46
479.918	8667.35
480.122	8435.92
480.326	8659.15
480.531	8874.19
480.735	8597.71
480.94	8425.68
481.144	8655.06
481.348	8470.74
481.553	8575.19
481.757	8321.24
481.961	8290.52
482.166	8777.94
482.37	8288.47
482.574	8206.55
482.778	8356.05
482.983	8405.21
483.187	8415.44
483.391	8175.83
483.595	8259.8
483.8	8282.33
484.004	8306.9
484.208	8354.01
484.412	8169.69
484.616	8458.45
484.821	8335.57
485.025	8302.81
485.229	8452.31
485.433	8102.11
485.637	8224.98
485.841	8028.38
486.045	8208.6
486.249	8212.7
486.453	8046.81
486.657	8171.74
486.861	8149.21
487.065	7987.42
487.269	8208.6
487.473	8204.5
487.677	8208.6
487.881	8440.02
488.085	8061.15
488.289	8298.71
488.493	8206.55
488.697	8292.57
488.901	8171.74
489.105	8282.33
489.309	8202.46
489.512	8214.74
489.716	8134.87
489.92	8255.7
490.124	8220.89
490.328	8442.07
490.531	8145.11
490.735	8407.25
490.939	8227.03
491.143	8259.8
491.346	8462.55
491.55	8356.05
491.754	8536.28
491.958	8378.58
492.161	8327.38
492.365	8403.16
492.569	8511.7
492.772	8431.83
492.976	8421.59
493.18	8589.52
493.383	8716.5
493.587	8630.48
493.79	8884.43
493.994	8667.35
494.197	8808.65
494.401	8784.08
494.605	8755.41
494.808	8997.07
495.012	8986.83
495.215	9185.48
495.419	9193.67
495.622	9277.64
495.825	9234.63
496.029	9158.86
496.232	9345.22
496.436	9113.8
496.639	9668.8
496.843	9445.57
497.046	9529.54
497.249	9584.84
497.453	9775.3
497.656	9586.88
497.859	9740.48
498.063	9748.67
498.266	10207.42
498.469	10088.64
498.673	9906.37
498.876	10242.23
499.079	10514.61
499.282	10645.68
499.485	10727.6
499.689	10629.3
499.892	10965.17
500.095	10885.3
500.298	11086
500.501	11036.84
500.705	11282.6
500.908	11290.79
501.111	11499.69
501.314	11915.42
501.517	11538.6
501.72	12015.77
501.923	11825.31
502.126	12245.15
502.329	12230.81
502.532	12152.99
502.735	12347.54
502.938	12517.53
503.141	12724.37
503.344	12853.39
503.547	13011.09
503.75	12904.59
503.953	13140.11
504.156	13285.51
504.359	13320.33
504.562	13416.58
504.765	13750.4
504.968	13949.06
505.17	14076.03
505.373	14164.09
505.576	14090.37
505.779	14387.32
505.982	14205.05
506.185	14706.8
506.387	14561.4
506.59	14690.42
506.793	15110.25
506.996	14944.37
507.198	15571.05
507.401	15337.58
507.604	15564.9
507.807	15761.51
508.009	15992.93
508.212	16062.56
508.415	16382.04
508.617	16574.55
508.82	16408.67
509.022	16681.05
509.225	17113.17
509.428	17137.74
509.63	17008.72
509.833	17342.54
510.035	17598.54
510.238	17590.34
510.44	17907.78
510.643	18088
510.845	18206.78
511.048	18137.15
511.25	18669.62
511.453	18587.71
511.655	19064.88
511.858	18917.43
512.06	19118.13
512.262	19220.53
512.465	19146.8
512.667	19763.24
512.87	19818.53
513.072	19679.27
513.274	20232.22
513.477	20564
513.679	20799.51
513.881	20865.05
514.084	20893.72
514.286	20930.58
514.488	20981.78
514.69	21608.46
514.893	21889.03
515.095	21837.83
515.297	21983.24
515.499	22224.9
515.701	22376.45
515.904	22652.92
516.106	22845.43
516.308	22833.14
516.51	23183.35
516.712	23035.89
516.914	23408.62
517.116	23588.85
517.318	23744.49
517.52	24260.58
517.722	23994.34
517.925	24131.56
518.127	24606.69
518.329	24541.15
518.531	24756.19
518.733	25067.48
518.935	25395.15
519.136	25264.08
519.338	25528.27
519.54	25448.4
519.742	25952.2
519.944	25962.44
520.146	26191.81
520.348	26591.17
520.55	26630.08
520.752	26607.55
520.954	26775.48
521.155	26759.1
521.357	27295.67
521.559	27242.42
521.761	27965.35
521.963	27533.23
522.164	27750.32
522.366	27891.63
522.568	27998.12
522.77	28063.66
522.971	28684.19
523.173	28387.24
523.375	28307.37
523.576	28422.05
523.778	28770.21
523.98	28858.27
524.181	28987.29
524.383	29038.49
524.584	29351.83
524.786	29169.56
524.988	29138.84
525.189	29216.66
525.391	29411.22
525.592	29403.03
525.794	29734.8
525.995	29673.36
526.197	29562.77
526.398	29691.79
526.6	29538.19
526.801	30205.83
527.003	30039.95
527.204	29929.36
527.406	30269.32
527.607	30068.62
527.808	30132.11
528.01	29558.67
528.211	29966.22
528.412	30578.56
528.614	30384.01
528.815	29915.02
529.016	30242.7
529.218	29945.74
529.419	30308.23
529.62	30470.02
529.822	29880.21
530.023	30117.77
530.224	29958.03
530.425	30058.38
530.626	29974.41
530.828	29566.87
531.029	30330.76
531.23	30099.34
531.431	29808.53
531.632	30408.58
531.833	30234.5
532.035	29931.4
532.236	30177.16
532.437	30021.52
532.638	29564.82
532.839	29976.46
533.04	30130.06
533.241	29953.93
533.442	29759.38
533.643	29556.63
533.844	29519.76
534.045	29841.29
534.246	29194.14
534.447	29906.83
534.648	29425.56
534.849	30009.23
535.05	29585.3
535.251	29718.42
535.451	29499.28
535.652	29261.72
535.853	29216.66
536.054	29450.13
536.255	29390.74
536.456	29005.72
536.657	29366.17
536.857	29200.28
537.058	29075.35
537.259	29317.01
537.46	29269.91
537.66	29142.94
537.861	28880.8
538.062	28604.32
538.263	28975
538.463	28866.46
538.664	28829.6
538.865	29175.7
539.065	29144.98
539.266	28739.49
539.466	28757.92
539.667	28422.05
539.868	29108.12
540.068	28440.48
540.269	28848.03
540.469	28815.26
540.67	28372.9
540.87	28886.94
541.071	28581.79
541.271	28903.32
541.472	28565.41
541.672	28346.28
541.873	28397.48
542.073	28278.69
542.274	28618.66
542.474	28573.6
542.675	28495.78
542.875	28567.46
543.075	28567.46
543.276	28000.17
543.476	28901.28
543.676	28215.21
543.877	28651.42
544.077	28252.07
544.277	28374.95
544.478	28387.24
544.678	28178.34
544.878	27932.59
545.078	28254.12
545.279	28256.17
545.479	28235.69
545.679	28383.14
545.879	28219.3
546.079	28319.65
546.28	28127.14
546.48	27944.87
546.68	28297.13
546.88	28096.42
547.08	28071.85
547.28	28260.26
547.48	27891.63
547.68	28084.14
547.88	28080.04
548.081	28221.35
548.281	28100.52
548.481	28223.4
548.681	28561.31
548.881	28360.61
549.081	28327.85
549.28	27994.03
549.48	28348.32
549.68	28235.69
549.88	28850.08
550.08	28311.46
550.28	28383.14
550.48	28417.96
550.68	28200.87
550.88	28239.78
551.08	28368.8
551.279	28325.8
551.479	27979.69
551.679	28524.45
551.879	28444.58
552.079	28432.29
552.278	28526.5
552.478	27873.2
552.678	28192.68
552.878	28469.15
553.077	28506.02
553.277	28110.76
553.477	28852.13
553.676	28278.69
553.876	28377
554.076	28444.58
554.275	28526.5
554.475	28354.47
554.674	28673.95
554.874	28370.85
555.074	28368.8
555.273	28528.55
555.473	28794.78
555.672	28882.84
555.872	28768.16
556.071	28790.69
556.271	29183.9
556.47	28708.77
556.67	28528.55
556.869	28489.63
557.068	29077.4
557.268	28790.69
557.467	28688.29
557.667	28854.17
557.866	28772.25
558.065	28432.29
558.265	28618.66
558.464	28651.42
558.663	28934.04
558.863	28575.65
559.062	29161.37
559.261	28499.87
559.461	28757.92
559.66	28596.13
559.859	28553.12
560.058	28694.43
560.258	28938.14
560.457	28596.13
560.656	29067.16
560.855	28755.87
561.054	28839.84
561.253	28374.95
561.453	28975
561.652	28958.62
561.851	28932
562.05	28454.82
562.249	28481.44
562.448	28757.92
562.647	28569.51
562.846	28485.54
563.045	28989.34
563.244	28424.1
563.443	28510.11
563.642	28479.39
563.841	28450.72
564.04	28639.14
564.239	28573.6
564.438	28473.25
564.637	28888.99
564.836	28442.53
565.035	28483.49
565.234	28436.39
565.432	28231.59
565.631	28303.27
565.83	28293.03
566.029	28360.61
566.228	28053.42
566.427	28237.73
566.625	27865
566.824	27778.99
567.023	28168.1
567.222	27686.83
567.42	28487.59
567.619	28125.1
567.818	27596.72
568.016	28047.27
568.215	28463.01
568.414	27432.88
568.612	27701.17
568.811	27533.23
569.01	27781.04
569.208	27504.56
569.407	27645.87
569.605	27254.71
569.804	27314.1
570.002	26980.28
570.201	27568.05
570.4	27553.71
570.598	27250.61
570.797	26920.89
570.995	27131.83
571.193	26812.35
571.392	27023.29
571.59	26709.95
571.789	26691.52
571.987	26884.03
572.186	26826.68
572.384	26943.42
572.582	26673.09
572.781	26714.05
572.979	26281.92
573.177	26191.81
573.376	26388.42
573.574	26079.18
573.772	26359.75
573.971	25851.85
574.169	25944.01
574.367	25733.07
574.565	26161.09
574.763	25638.86
574.962	25612.24
575.16	25558.99
575.358	25618.38
575.556	25587.66
575.754	25862.09
575.952	25249.75
576.151	25419.73
576.349	25075.67
576.547	25194.45
576.745	25343.95
576.943	25276.37
577.141	24975.32
577.339	24791
577.537	24967.13
577.735	24887.26
577.933	24684.51
578.131	24864.73
578.329	24537.05
578.527	24825.82
578.725	24457.18
578.923	24768.48
579.121	24434.66
579.319	24451.04
579.516	24537.05
579.714	24188.9
579.912	23914.47
580.11	23949.29
580.308	24281.06
580.506	23920.62
580.704	23642.09
580.901	23730.16
581.099	24203.24
581.297	23726.06
581.495	23603.18
581.692	23572.46
581.89	23130.1
582.088	23531.5
582.285	23220.21
582.483	23400.43
582.681	23451.63
582.878	23255.03
583.076	22956.02
583.274	23551.98
583.471	23173.11
583.669	23150.58
583.866	23070.71
584.064	23062.52
584.262	22618.11
584.459	23089.14
584.657	22616.06
584.854	22898.68
585.052	22415.36
585.249	22548.48
585.447	22728.7
585.644	22333.44
585.841	22562.81
586.039	22587.39
586.236	22339.58
586.434	22329.34
586.631	22032.39
586.828	22355.97
587.026	22278.15
587.223	22245.38
587.42	22022.15
587.618	22302.72
587.815	21706.76
588.012	21626.89
588.21	21833.74
588.407	22159.36
588.604	21700.62
588.801	21866.5
588.999	21594.12
589.196	21659.66
589.393	21579.79
589.59	21428.24
589.787	21305.36
589.984	21489.68
590.182	21364.75
590.379	21528.59
590.576	21069.84
590.773	21532.68
590.97	20863
591.167	21049.36
591.364	21041.17
591.561	21284.88
591.758	20961.3
591.955	20926.49
592.152	21119
592.349	21026.84
592.546	21202.96
592.743	21073.94
592.94	20617.24
593.137	20774.94
593.334	21133.33
593.531	20623.39
593.727	21071.89
593.924	20660.25
594.121	20455.45
594.318	20688.92
594.515	20561.95
594.712	20557.85
594.908	20539.42
595.105	20561.95
595.302	20324.38
595.499	20754.46
595.696	20336.67
595.892	20467.74
596.089	20609.05
596.286	20365.34
596.482	20316.19
596.679	20488.22
596.876	20520.99
597.072	20377.63
597.269	20590.62
597.466	20267.04
597.662	20351.01
597.859	20275.23
598.055	20332.58
598.252	20271.14
598.448	20230.18
598.645	20314.14
598.841	20127.78
599.038	20246.56
599.234	20508.7
599.431	20318.24
599.627	20430.88
599.824	20338.72
600.02	20224.03
600.217	20451.36
600.413	20443.17
600.609	20437.02
600.806	20254.75
601.002	20176.93
601.198	20365.34
601.395	20301.86
601.591	20242.46
601.787	20154.4
601.984	20310.05
602.18	20602.91
602.376	20443.17
602.572	20351.01
602.769	20668.44
602.965	20242.46
603.161	20754.46
603.357	20568.09
603.553	20518.94
603.75	20553.76
603.946	20721.69
604.142	20776.98
604.338	20574.24
604.534	20725.79
604.73	20469.79
604.926	20344.86
605.122	20885.53
605.318	20385.82
605.514	20711.45
605.71	20504.6
605.906	20678.68
606.102	20811.8
606.298	20811.8
606.494	20846.62
606.69	20873.24
606.886	21393.42
607.082	20772.89
607.278	21409.81
607.474	20946.97
607.67	20789.27
607.866	20930.58
608.062	21391.37
608.257	21291.02
608.453	21200.91
608.649	21481.49
608.845	21123.09
609.041	21409.81
609.236	21368.85
609.432	21182.48
609.628	21602.32
609.824	21579.79
610.019	21182.48
610.215	21450.77
610.411	21508.11
610.606	21886.98
610.802	21669.9
610.998	21848.07
611.193	21966.85
611.389	21794.82
611.584	21663.75
611.78	21766.15
611.976	21678.09
612.171	21864.46
612.367	22016.01
612.562	21743.63
612.758	21600.27
612.953	21755.91
613.149	22046.72
613.344	21860.36
613.539	22171.65
613.735	22085.64
613.93	22085.64
614.126	21729.29
614.321	22059.01
614.517	22315.01
614.712	22183.94
614.907	22343.68
615.103	22310.91
615.298	22159.36
615.493	22519.81
615.688	21809.16
615.884	22505.47
616.079	22257.67
616.274	22249.47
616.47	22458.37
616.665	22409.22
616.86	22278.15
617.055	22401.02
617.25	22185.99
617.445	22388.74
617.641	22052.87
617.836	22454.27
618.031	22048.77
618.226	22255.62
618.421	21956.61
618.616	22106.12
618.811	22013.96
619.006	22329.34
619.201	21827.59
619.396	22089.73
619.591	21594.12
619.786	22069.25
619.981	21501.97
620.176	21817.35
620.371	21600.27
620.566	21786.63
620.761	21544.97
620.956	21798.92
621.151	21456.91
621.346	21663.75
621.541	21102.61
621.735	21434.38
621.93	20824.09
622.125	21250.07
622.32	20938.77
622.515	21325.84
622.709	20865.05
622.904	20731.93
623.099	20553.76
623.294	20852.76
623.488	20705.31
623.683	20504.6
623.878	20275.23
624.072	20664.35
624.267	20381.73
624.462	20129.83
624.656	20078.63
624.851	20025.38
625.046	19978.28
625.24	20109.35
625.435	19822.63
625.629	19550.25
625.824	19836.97
626.018	19595.31
626.213	19191.86
626.407	19253.3
626.602	19300.4
626.796	19251.25
626.991	19255.34
627.185	18993.2
627.38	18886.71
627.574	18663.48
627.768	18886.71
627.963	18681.91
628.157	18643
628.352	18589.75
628.546	18323.52
628.74	18442.3
628.935	18346.05
629.129	18208.83
629.323	17950.79
629.517	17899.59
629.712	17899.59
629.906	17743.94
630.1	17526.86
630.294	17696.84
630.489	17363.02
630.683	17588.3
630.877	17053.78
631.071	17406.03
631.265	17492.04
631.459	17260.62
631.653	17041.49
631.848	16975.95
632.042	16924.76
632.236	16941.14
632.43	16848.98
632.624	16881.75
632.818	16517.21
633.012	16461.91
633.206	16482.39
633.4	16539.74
633.594	16343.13
633.788	16302.17
633.982	16230.49
634.176	16023.65
634.369	15882.34
634.563	15861.86
634.757	15966.31
634.951	15732.84
635.145	15685.73
635.339	15663.21
635.533	15411.31
635.726	15405.16
635.92	15177.84
636.114	15384.68
636.308	15175.79
636.501	15102.06
636.695	15108.21
636.889	14772.34
637.083	14930.03
637.276	14569.59
637.47	14780.53
637.664	14481.53
637.857	14510.2
638.051	14499.96
638.244	14311.55
638.438	14295.16
638.632	14153.85
638.825	14125.18
639.019	14176.38
639.212	13760.64
639.406	13904
639.599	13725.83
639.793	13617.29
639.986	13680.77
640.18	13738.12
640.373	13203.6
640.567	13240.46
640.76	13191.31
640.954	13369.48
641.147	13095.05
641.34	12955.79
641.534	13273.23
641.727	12976.27
641.92	13140.11
642.114	12675.22
642.307	12699.8
642.5	12783.76
642.694	12576.92
642.887	12685.46
643.08	12353.69
643.273	12423.32
643.467	12214.43
643.66	11978.91
643.853	12208.28
644.046	12036.25
644.239	11952.29
644.432	11829.41
644.626	11706.53
644.819	11700.39
645.012	11735.2
645.205	11563.17
645.398	11583.65
645.591	11448.49
645.784	11374.76
645.977	11380.9
646.17	11362.47
646.363	11178.15
646.556	10944.69
646.749	10973.36
646.942	11161.77
647.135	10920.11
647.328	10870.96
647.521	10885.3
647.714	10715.31
647.907	10807.47
648.099	10700.98
648.292	10473.65
648.485	10584.24
648.678	10490.04
648.871	10209.47
649.064	10449.08
649.256	10412.21
649.449	10332.34
649.642	10154.17
649.835	10037.44
650.027	9928.89
650.22	10027.2
650.413	9961.66
650.605	9816.26
650.798	9953.47
650.991	9650.37
651.183	9812.16
651.376	9494.72
651.568	9734.34
651.761	9496.77
651.954	9500.87
652.146	9502.92
652.339	9447.62
652.531	9382.09
652.724	9234.63
652.916	9199.82
653.109	9146.57
653.301	9087.18
653.494	9054.41
653.686	8939.72
653.879	8964.3
654.071	9060.56
654.263	8812.75
654.456	8904.91
654.648	8921.29
654.84	8638.67
655.033	8601.81
655.225	8843.47
655.417	8730.83
655.61	8597.71
655.802	8708.3
655.994	8638.67
656.186	8503.51
656.379	8376.53
656.571	8276.18
656.763	8272.09
656.955	8143.07
657.148	8274.14
657.34	8231.13
657.532	8143.07
657.724	8055
657.916	8052.95
658.108	8012
658.3	7905.5
658.492	8007.9
658.684	7766.24
658.876	7839.97
659.068	7657.7
659.26	7876.83
659.452	7579.87
659.644	7672.03
659.836	7618.79
660.028	7508.19
660.22	7579.87
660.412	7373.03
660.604	7282.92
660.796	7475.43
660.988	7422.18
661.18	7323.88
661.372	7137.51
661.563	7258.34
661.755	7315.69
661.947	7031.02
662.139	7112.94
662.331	6912.24
662.522	7047.4
662.714	7041.26
662.906	7088.36
663.097	6922.48
663.289	6807.79
663.481	6797.55
663.673	6832.37
663.864	6547.7
664.056	6695.15
664.247	6666.48
664.439	6574.32
664.631	6529.27
664.822	6453.49
665.014	6635.76
665.205	6277.37
665.397	6394.1
665.588	6473.97
665.78	6373.62
665.971	6383.86
666.163	6349.04
666.354	6361.33
666.546	6334.71
666.737	6164.73
666.929	6181.11
667.12	6269.17
667.311	6189.3
667.503	6066.42
667.694	6004.99
667.885	5996.79
668.077	5931.26
668.268	5951.74
668.459	5869.82
668.651	5918.97
668.842	5998.84
669.033	5644.54
669.224	5914.88
669.416	5912.83
669.607	5781.76
669.798	5761.28
669.989	5794.04
670.18	5673.21
670.371	5660.93
670.563	5718.27
670.754	5746.94
670.945	5769.47
671.136	5540.1
671.327	5529.86
671.518	5603.58
671.709	5505.28
671.9	5513.47
672.091	5529.86
672.282	5447.94
672.473	5513.47
672.664	5529.86
672.855	5230.85
673.046	5490.95
673.237	5529.86
673.428	5376.26
673.619	5296.39
673.809	5304.58
674	5421.31
674.191	5101.83
674.382	5232.9
674.573	5290.24
674.764	5091.59
674.954	5310.72
675.145	5259.53
675.336	5196.04
675.527	4987.15
675.717	5306.63
675.908	5173.51
676.099	5116.17
676.289	5232.9
676.48	5058.82
676.671	5153.03
676.861	5116.17
677.052	5054.73
677.243	4985.1
677.433	4915.47
677.624	5226.76
677.814	5085.45
678.005	4874.51
678.195	4976.91
678.386	5046.54
678.576	5001.48
678.767	4956.43
678.957	5007.62
679.148	5067.02
679.338	4948.23
679.529	5052.68
679.719	5044.49
679.909	4997.39
680.1	4837.64
680.29	4954.38
680.481	4925.71
680.671	4919.56
680.861	4751.63
681.052	4919.56
681.242	4858.12
681.432	4845.84
681.622	4860.17
681.813	4694.29
682.003	4915.47
682.193	4825.36
682.383	4833.55
682.573	4985.1
682.764	4847.88
682.954	4929.8
683.144	4786.44
683.334	4888.84
683.524	4876.55
683.714	4780.3
683.904	4739.34
684.094	4792.59
684.284	4833.55
684.474	4768.01
684.664	4841.74
684.854	4784.4
685.044	4800.78
685.234	4598.03
685.424	4841.74
685.614	4761.87
685.804	4710.67
685.994	4655.37
686.184	4825.36
686.374	4720.91
686.564	4825.36
686.753	4598.03
686.943	4591.89
687.133	4702.48
687.323	4657.42
687.513	4505.87
687.702	4628.75
687.892	4610.32
688.082	4677.9
688.272	4571.41
688.461	4505.87
688.651	4608.27
688.841	4538.64
689.03	4682
689.22	4612.37
689.41	4409.62
689.599	4372.75
689.789	4555.02
689.979	4391.19
690.168	4419.86
690.358	4448.53
690.547	4501.78
690.737	4440.34
690.926	4450.58
691.116	4346.13
691.305	4294.93
691.495	4344.08
691.684	4456.72
691.874	4292.88
692.063	4387.09
692.252	4401.43
692.442	4428.05
692.631	4172.05
692.82	4219.16
693.01	4417.81
693.199	4198.68
693.388	4131.09
693.578	4278.55
693.767	4303.12
693.956	4137.24
694.146	4196.63
694.335	4188.44
694.524	4231.44
694.713	4219.16
694.902	4258.07
695.092	4067.61
695.281	4077.85
695.47	4073.75
695.659	4079.9
695.848	4210.97
696.037	4167.96
696.226	4137.24
696.415	4196.63
696.604	4186.39
696.793	4165.91
696.982	4065.56
697.171	4043.03
697.36	4106.52
697.549	3969.3
697.738	3965.21
697.927	3977.5
698.116	3893.53
698.305	3936.54
698.494	3952.92
698.683	4071.7
698.872	4073.75
699.061	3997.98
699.25	3916.06
699.438	3932.44
699.627	3985.69
699.816	4055.32
700.005	3832.09
700.193	3926.3
700.382	3856.67
700.571	4012.31
700.76	3715.36
700.948	3916.06
701.137	3852.57
701.326	3813.66
701.514	3715.36
701.703	3967.26
701.892	3797.28
702.08	3932.44
702.269	3815.71
702.457	3723.55
702.646	3926.3
702.834	3658.01
703.023	3735.84
703.212	3801.37
703.4	3690.78
703.589	3653.92
703.777	3793.18
703.965	3735.84
704.154	3731.74
704.342	3672.35
704.531	3606.81
704.719	3584.29
704.907	3746.08
705.096	3670.3
705.284	3586.33
705.472	3526.94
705.661	3721.5
705.849	3787.04
706.037	3582.24
706.226	3580.19
706.414	3647.77
706.602	3418.4
706.79	3436.83
706.979	3649.82
707.167	3537.18
707.355	3436.83
707.543	3563.81
707.731	3621.15
707.919	3488.03
708.107	3305.76
708.296	3522.85
708.484	3367.2
708.672	3522.85
708.86	3551.52
709.048	3524.9
709.236	3449.12
709.424	3442.98
709.612	3436.83
709.8	3465.5
709.988	3387.68
710.176	3449.12
710.364	3309.86
710.551	3369.25
710.739	3221.8
710.927	3328.29
711.115	3326.24
711.303	3221.8
711.491	3344.67
711.679	3285.28
711.866	3260.71
712.054	3246.37
712.242	3236.13
712.43	3332.39
712.617	3246.37
712.805	3268.9
712.993	3201.32
713.181	3137.83
713.368	3205.41
713.556	3270.95
713.744	3100.97
713.931	3213.6
714.119	3107.11
714.306	3178.79
714.494	3146.02
714.682	3168.55
714.869	3195.17
715.057	3098.92
715.244	3025.19
715.432	3088.68
715.619	3057.96
715.807	3154.21
715.994	3096.87
716.182	3164.45
716.369	3207.46
716.556	3125.54
716.744	3049.77
716.931	2990.38
717.119	3082.53
717.306	2943.27
717.493	2976.04
717.681	3025.19
717.868	3021.1
718.055	3033.38
718.242	3055.91
718.43	3000.62
718.617	2918.7
718.804	2945.32
718.991	3076.39
719.179	2951.46
719.366	2875.69
719.553	2916.65
719.74	2728.24
719.927	2945.32
720.114	2883.88
720.301	2879.79
720.488	2771.24
720.676	2857.26
720.863	2924.84
721.05	2885.93
721.237	2746.67
721.424	2840.87
721.611	2744.62
721.798	2732.33
721.985	2715.95
722.172	2670.89
722.358	2783.53
722.545	2836.78
722.732	2580.78
722.919	2842.92
723.106	2822.44
723.293	2621.74
723.48	2677.04
723.667	2697.52
723.853	2572.59
724.04	2736.43
724.227	2744.62
724.414	2662.7
724.6	2509.1
724.787	2679.08
724.974	2711.85
725.161	2625.84
725.347	2484.53
725.534	2611.5
725.72	2713.9
725.907	2603.31
726.094	2709.8
726.28	2509.1
726.467	2601.26
726.653	2562.35
726.84	2566.45
727.027	2638.13
727.213	2470.19
727.4	2572.59
727.586	2490.67
727.773	2529.58
727.959	2539.82
728.145	2441.52
728.332	2539.82
728.518	2400.56
728.705	2588.97
728.891	2408.75
729.077	2509.1
729.264	2394.42
729.45	2474.29
729.636	2470.19
729.823	2398.51
730.009	2548.01
730.195	2351.41
730.382	2351.41
730.568	2451.76
730.754	2404.66
730.94	2416.94
731.126	2412.85
731.313	2339.12
731.499	2560.3
731.685	2359.6
731.871	2367.79
732.057	2482.48
732.243	2418.99
732.429	2435.38
732.615	2496.82
732.801	2353.46
732.987	2396.46
733.173	2281.78
733.359	2306.35
733.545	2427.18
733.731	2341.17
733.917	2378.03
734.103	2347.31
734.289	2230.58
734.475	2265.39
734.661	2320.69
734.847	2371.89
735.033	2294.07
735.219	2341.17
735.404	2271.54
735.59	2335.03
735.776	2238.77
735.962	2292.02
736.148	2195.76
736.333	2335.03
736.519	2335.03
736.705	2240.82
736.89	2244.92
737.076	2230.58
737.262	2163
737.447	2236.72
737.633	2244.92
737.819	2249.01
738.004	2136.37
738.19	2140.47
738.375	2109.75
738.561	2224.44
738.747	2158.9
738.932	2175.28
739.118	2154.8
739.303	2048.31
739.489	2187.57
739.674	2081.08
739.859	2081.08
740.045	2122.04
740.23	2150.71
740.416	2031.93
740.601	2175.28
740.786	2033.97
740.972	1986.87
741.157	2156.85
741.342	1990.97
741.528	2044.21
741.713	2017.59
741.898	1954.1
742.084	1974.58
742.269	1970.49
742.454	1952.06
742.639	2089.27
742.824	2070.84
743.01	1941.82
743.195	1972.54
743.38	2003.25
743.565	1933.62
743.75	2048.31
743.935	1933.62
744.12	1859.9
744.305	1878.33
744.49	1954.1
744.675	1765.69
744.86	1841.47
745.045	1835.32
745.23	1806.65
745.415	1786.17
745.6	1831.23
745.785	1780.03
745.97	1952.06
746.155	1761.59
746.34	1802.55
746.525	1771.83
746.71	1845.56
746.895	1753.4
747.079	1835.32
747.264	1780.03
747.449	1771.83
747.634	1700.16
747.819	1837.37
748.003	1728.83
748.188	1630.52
748.373	1560.89
748.557	1716.54
748.742	1659.2
748.927	1646.91
749.111	1628.48
749.296	1626.43
749.481	1605.95
749.665	1663.29
749.85	1474.88
750.034	1587.52
750.219	1585.47
750.404	1491.26
750.588	1511.74
750.773	1483.07
750.957	1411.39
751.141	1499.45
751.326	1558.85
751.51	1491.26
751.695	1468.73
751.879	1462.59
752.064	1507.65
752.248	1435.97
752.432	1528.13
752.617	1470.78
752.801	1548.61
752.985	1419.58
753.17	1425.73
753.354	1325.38
753.538	1468.73
753.722	1378.62
753.907	1343.81
754.091	1341.76
754.275	1315.14
754.459	1339.71
754.643	1319.23
754.828	1358.14
755.012	1331.52
755.196	1329.47
755.38	1261.89
755.564	1300.8
755.748	1335.62
755.932	1237.31
756.116	1339.71
756.3	1265.99
756.484	1243.46
756.668	1220.93
756.852	1167.68
757.036	1139.01
757.22	1196.36
757.404	1233.22
757.588	1175.88
757.772	1192.26
757.956	1075.52
758.14	1122.63
758.323	1175.88
758.507	1157.44
758.691	1120.58
758.875	1116.48
759.059	1225.03
759.242	1089.86
759.426	1085.76
759.61	1124.68
759.794	1065.29
759.977	1065.29
760.161	1208.64
760.345	1147.2
760.528	1163.59
760.712	952.65
760.895	1048.9
761.079	1040.71
761.263	1053
761.446	1067.33
761.63	1028.42
761.813	1050.95
761.997	952.65
762.18	999.75
762.364	999.75
762.547	960.84
762.731	975.17
762.914	901.45
763.098	913.74
763.281	971.08
763.464	960.84
763.648	934.22
763.831	1036.61
764.015	952.65
764.198	975.17
764.381	983.37
764.564	934.22
764.748	946.5
764.931	1022.28
765.114	952.65
765.297	911.69
765.481	852.3
765.664	850.25
765.847	932.17
766.03	950.6
766.213	844.1
766.397	907.59
766.58	852.3
766.763	1042.76
766.946	872.78
767.129	895.3
767.312	901.45
767.495	846.15
767.678	926.02
767.861	901.45
768.044	860.49
768.227	797
768.41	807.24
768.593	860.49
768.776	807.24
768.959	819.53
769.142	942.41
769.324	840.01
769.507	860.49
769.69	823.62
769.873	794.95
770.056	876.87
770.239	710.99
770.421	848.2
770.604	805.19
770.787	807.24
770.97	923.98
771.152	788.81
771.335	774.47
771.518	833.86
771.7	813.38
771.883	780.62
772.066	860.49
772.248	823.62
772.431	829.77
772.613	823.62
772.796	708.94
772.978	745.8
773.161	792.91
773.343	760.14
773.526	856.39
773.708	753.99
773.891	667.98
774.073	762.19
774.256	729.42
774.438	790.86
774.621	629.07
774.803	680.27
774.985	739.66
775.168	674.12
775.35	672.08
775.532	647.5
775.715	639.31
775.897	678.22
776.079	620.88
776.261	659.79
776.444	645.45
776.626	688.46
776.808	627.02
776.99	657.74
777.173	641.36
777.355	584.01
777.537	688.46
777.719	700.75
777.901	622.92
778.083	508.24
778.265	598.35
778.447	647.5
778.629	600.4
778.811	616.78
778.993	674.12
779.175	663.88
779.357	573.77
779.539	594.25
779.721	549.2
779.903	688.46
780.085	518.48
780.267	479.57
780.449	498
780.631	577.87
780.812	598.35
780.994	612.68
781.176	551.24
781.358	561.48
781.54	483.66
781.721	545.1
781.903	510.29
782.085	598.35
782.267	551.24
782.448	473.42
782.63	534.86
782.812	528.72
782.993	573.77
783.175	541.01
783.357	422.22
783.538	504.14
783.72	520.53
783.901	409.94
784.083	479.57
784.264	434.51
784.446	506.19
784.627	385.36
784.809	483.66
784.99	401.74
785.172	463.18
785.353	420.17
785.535	498
785.716	373.07
785.897	426.32
786.079	348.5
786.26	350.54
786.441	438.61
786.623	325.97
786.804	344.4
786.985	444.75
787.167	485.71
787.348	381.26
787.529	377.17
787.71	471.37
787.891	487.76
788.073	368.98
788.254	442.7
788.435	420.17
788.616	336.21
788.797	266.58
788.978	420.17
789.159	264.53
789.34	397.65
789.522	330.06
789.703	393.55
789.884	338.26
790.065	393.55
790.246	446.8
790.427	354.64
790.607	321.87
790.788	387.41
790.969	297.3
791.15	346.45
791.331	334.16
791.512	395.6
791.693	303.44
791.874	303.44
792.054	307.54
792.235	434.51
792.416	328.02
792.597	371.02
792.778	309.58
792.958	328.02
793.139	344.4
793.32	364.88
793.5	289.1
793.681	336.21
793.862	368.98
794.042	371.02
794.223	360.78
794.404	299.34
794.584	246.1
794.765	229.71
794.945	330.06
795.126	344.4
795.306	299.34
795.487	196.95
795.667	289.1
795.848	250.19
796.028	313.68
796.209	307.54
796.389	414.03
796.57	231.76
796.75	266.58
796.93	278.87
797.111	221.52
797.291	196.95
797.471	280.91
797.652	190.8
797.832	254.29
798.012	299.34
798.192	289.1
798.373	250.19
798.553	239.95
798.733	262.48
798.913	229.71
799.093	229.71
799.274	266.58
799.454	239.95
799.634	229.71
799.814	258.39
799.994	219.47
800.174	270.67
800.354	201.04
800.534	225.62
800.714	305.49
800.894	229.71
801.074	198.99
801.254	166.23
801.434	344.4
801.614	246.1
801.794	233.81
801.974	969.03
802.154	174.42
802.334	158.03
802.514	221.52
802.693	250.19
802.873	190.8
803.053	260.43
803.233	217.43
803.413	229.71
803.592	233.81
803.772	174.42
803.952	166.23
804.131	158.03
804.311	278.87
804.491	266.58
804.67	207.19
804.85	162.13
805.03	205.14
805.209	188.75
805.389	252.24
805.568	141.65
805.748	149.84
805.928	239.95
806.107	235.86
806.287	225.62
806.466	172.37
806.646	188.75
806.825	147.8
807.004	125.27
807.184	188.75
807.363	258.39
807.543	188.75
807.722	170.32
807.901	225.62
808.081	221.52
808.26	158.03
808.439	151.89
808.619	225.62
808.798	174.42
808.977	188.75
809.156	235.86
809.336	209.23
809.515	104.79
809.694	188.75
809.873	121.17
810.052	102.74
810.231	139.6
810.411	190.8
810.59	196.95
810.769	141.65
810.948	190.8
811.127	127.32
811.306	94.55
811.485	49.49
811.664	217.43
811.843	160.08
812.022	139.6
812.201	102.74
812.38	147.8
812.559	123.22
812.737	174.42
812.916	141.65
813.095	143.7
813.274	102.74
813.453	59.73
813.632	194.9
813.811	176.47
813.989	117.08
814.168	123.22
814.347	139.6
814.526	106.84
814.704	168.27
814.883	147.8
815.062	147.8
815.24	131.41
815.419	192.85
815.598	151.89
815.776	55.64
815.955	137.56
816.133	29.01
816.312	141.65
816.49	162.13
816.669	180.56
816.847	94.55
817.026	147.8
817.204	164.18
817.383	98.64
817.561	123.22
817.74	164.18
817.918	117.08
818.097	123.22
818.275	26.96
818.453	117.08
818.632	63.83
818.81	115.03
818.988	88.4
819.167	98.64
819.345	172.37
819.523	205.14
819.701	131.41
819.879	115.03
820.058	106.84
820.236	147.8
820.414	69.97
820.592	100.69
820.77	110.93
820.948	78.16
821.127	117.08
821.305	203.09
821.483	92.5
821.661	158.03
821.839	90.45
822.017	123.22
822.195	16.73
822.373	123.22
822.551	57.68
822.729	135.51
822.907	43.35
823.085	108.88
823.262	24.92
823.44	78.16
823.618	102.74
823.796	65.88
823.974	160.08
824.152	43.35
824.329	84.31
824.507	98.64
824.685	102.74
824.863	131.41
825.04	147.8
825.218	98.64
825.396	-3.75
825.574	115.03
825.751	98.64
825.929	115.03
826.107	55.64
826.284	119.12
826.462	110.93
826.639	127.32
826.817	112.98
826.994	69.97
827.172	84.31
827.349	82.26
827.527	125.27
827.704	57.68
827.882	74.07
828.059	88.4
828.237	-7.85
828.414	139.6
828.591	24.92
828.769	57.68
828.946	35.16
829.124	57.68
829.301	158.03
829.478	53.59
829.655	65.88
829.833	129.36
830.01	35.16
830.187	106.84
830.364	117.08
830.542	33.11
830.719	82.26
830.896	102.74
831.073	49.49
831.25	57.68
831.427	96.6
831.604	117.08
831.782	51.54
831.959	104.79
832.136	6.49
832.313	102.74
832.49	59.73
832.667	78.16
832.844	37.2
833.021	131.41
833.198	53.59
833.374	26.96
833.551	110.93
833.728	74.07
833.905	84.31
834.082	16.73
834.259	102.74
834.436	74.07
834.612	29.01
834.789	201.04
834.966	78.16
835.143	119.12
835.319	41.3
835.496	74.07
835.673	129.36
835.85	106.84
836.026	153.94
836.203	127.32
836.38	51.54
836.556	65.88
836.733	43.35
836.909	147.8
837.086	37.2
837.262	0.34
837.439	8.53
837.616	106.84
837.792	59.73
837.968	10.58
838.145	61.78
838.321	14.68
838.498	67.92
838.674	33.11
838.851	86.36
839.027	4.44
839.203	94.55
839.38	65.88
839.556	-5.8
839.732	139.6
839.909	78.16
840.085	106.84
840.261	22.87
840.437	104.79
840.614	78.16
840.79	0.34
840.966	69.97
841.142	90.45
841.318	80.21
841.494	125.27
841.671	139.6
841.847	29.01
842.023	33.11
842.199	37.2
842.375	98.64
842.551	35.16
842.727	10.58
842.903	80.21
843.079	90.45
843.255	74.07
843.431	57.68
843.607	115.03
843.783	-7.85
843.959	53.59
844.134	43.35
844.31	106.84
844.486	24.92
844.662	82.26
844.838	49.49
845.013	4.44
845.189	92.5
845.365	78.16
845.541	35.16
845.716	8.53
845.892	65.88
846.068	53.59
846.244	35.16
846.419	41.3
846.595	-20.14
846.77	33.11
846.946	4.44
847.122	69.97
847.297	49.49
847.473	108.88
847.648	0.34
847.824	18.77
847.999	74.07
848.175	18.77
848.35	55.64
848.526	65.88
848.701	104.79
848.876	33.11
849.052	69.97
849.227	16.73
849.403	18.77
849.578	16.73
849.753	12.63
849.929	59.73
850.104	-89.77
850.279	0.34
850.454	-13.99
850.63	123.22
850.805	80.21
850.98	33.11
851.155	8.53
851.33	94.55
851.505	82.26
851.681	108.88
851.856	4.44
852.031	-26.28
852.206	14.68
852.381	37.2
852.556	-24.23
852.731	41.3
852.906	90.45
853.081	139.6
853.256	0.34
853.431	35.16
853.606	4.44
853.781	-32.43
853.956	12.63
854.131	29.01
854.305	-30.38
854.48	18.77
854.655	24.92
854.83	-3.75
855.005	0.34
855.18	39.25
855.354	39.25
855.529	49.49
855.704	55.64
855.879	51.54
856.053	69.97
856.228	53.59
856.403	-11.95
856.577	18.77
856.752	47.44
856.926	74.07
857.101	-9.9
857.276	-7.85
857.45	20.82
857.625	115.03
857.799	-7.85
857.974	-3.75
858.148	0.34
858.323	106.84
858.497	49.49
858.672	33.11
858.846	-38.57
859.02	74.07
859.195	-36.52
859.369	59.73
859.543	53.59
859.718	74.07
859.892	49.49
860.066	-57
860.241	-7.85
860.415	-20.14
860.589	53.59
860.763	24.92
860.938	35.16
861.112	92.5
861.286	-44.71
861.46	0.34
861.634	-11.95
861.808	16.73
861.982	-20.14
862.157	20.82
862.331	14.68
862.505	-5.8
862.679	0.34
862.853	49.49
863.027	16.73
863.201	92.5
863.375	33.11
863.549	35.16
863.722	67.92
863.896	49.49
864.07	8.53
864.244	90.45
864.418	10.58
864.592	-3.75
864.766	49.49
864.939	18.77
865.113	-73.39
865.287	33.11
865.461	51.54
865.634	24.92
865.808	74.07
865.982	49.49
866.156	-42.67
866.329	-52.91
866.503	74.07
866.676	24.92
866.85	10.58
867.024	-3.75
867.197	35.16
867.371	-32.43
867.544	-32.43
867.718	-97.96
867.891	14.68
868.065	43.35
868.238	139.6
868.412	59.73
868.585	-28.33
868.759	-61.1
868.932	2.39
869.105	-71.34
869.279	-36.52
869.452	-32.43
869.625	57.68
869.799	33.11
869.972	37.2
870.145	18.77
870.319	24.92
870.492	43.35
870.665	-48.81
870.838	20.82
871.011	8.53
871.185	-36.52
871.358	-1.71
871.531	26.96
871.704	-36.52
871.877	-54.95
872.05	-7.85
872.223	35.16
872.396	29.01
872.569	14.68
872.742	16.73
872.915	98.64
873.088	8.53
873.261	-40.62
873.434	14.68
873.607	16.73
873.78	35.16
873.953	-16.04
874.126	37.2
874.299	33.11
874.471	-52.91
874.644	-16.04
874.817	31.06
874.99	51.54
875.163	8.53
875.335	10.58
875.508	-16.04
875.681	69.97
875.853	22.87
876.026	24.92
876.199	-20.14
876.371	16.73
876.544	0.34
876.717	16.73
876.889	53.59
877.062	88.4
877.234	-5.8
877.407	4.44
877.579	33.11
877.752	-65.19
877.924	72.02
878.097	61.78
878.269	14.68
878.442	-3.75
878.614	-32.43
878.786	-3.75
878.959	-16.04
879.131	4.44
879.303	-102.06
879.476	-11.95
879.648	6.49
879.82	53.59
879.993	49.49
880.165	0.34
880.337	8.53
880.509	4.44
880.681	-30.38
880.854	-20.14
881.026	33.11
881.198	49.49
881.37	41.3
881.542	-24.23
881.714	-30.38
881.886	41.3
882.058	-16.04
882.23	-40.62
882.402	-38.57
882.574	29.01
882.746	65.88
882.918	96.6
883.09	-7.85
883.262	82.26
883.434	-11.95
883.606	18.77
883.778	4.44
883.95	74.07
884.122	18.77
884.293	24.92
884.465	16.73
884.637	37.2
884.809	45.4
884.98	69.97
885.152	43.35
885.324	12.63
885.496	4.44
885.667	33.11
885.839	-32.43
886.011	65.88
886.182	8.53
886.354	-3.75
886.525	72.02
886.697	14.68
886.869	20.82
887.04	-32.43
887.212	100.69
887.383	61.78
887.555	-22.19
887.726	-28.33
887.897	-67.24
888.069	8.53
888.24	41.3
888.412	24.92
888.583	14.68
888.754	26.96
888.926	-7.85
889.097	20.82
889.268	-83.63
889.44	24.92
889.611	-59.05
889.782	-57
889.953	-46.76
890.125	45.4
890.296	-18.09
890.467	-40.62
890.638	20.82
890.809	20.82
890.98	-16.04
891.151	-38.57
891.323	74.07
891.494	53.59
891.665	-3.75
891.836	2.39
892.007	4.44
892.178	-16.04
892.349	-32.43
892.52	-73.39
892.691	-24.23
892.862	33.11
893.032	-44.71
893.203	65.88
893.374	37.2
893.545	24.92
893.716	-24.23
893.887	-22.19
894.057	43.35
894.228	-11.95
894.399	12.63
894.57	49.49
894.74	49.49
894.911	63.83
895.082	-28.33
895.253	16.73
895.423	8.53
895.594	35.16
895.764	-38.57
895.935	-18.09
896.106	14.68
896.276	-11.95
896.447	-32.43
896.617	0.34
896.788	-9.9
896.958	-7.85
897.129	-5.8
897.299	35.16
897.47	4.44
897.64	-1.71
897.81	26.96
897.981	41.3
898.151	-44.71
898.322	8.53
898.492	51.54
898.662	0.34
898.832	-77.48
899.003	53.59
899.173	-63.15
899.343	-28.33
899.513	-75.43
