Data from USB4F104151__182__14-32-51-308.txt Node

Date: Thu Mar 13 14:32:51 EDT 2025
User: louis
Spectrometer: USB4F10415
Trigger mode: 4
Integration Time (sec): 2.500000E-2
Scans to average: 1
Electric dark correction enabled: true
Nonlinearity correction enabled: false
Boxcar width: 0
XAxis mode: Wavelengths
Number of Pixels in Spectrum: 3648
>>>>>Begin Spectral Data<<<<<
178.204	-130.56
178.424	-130.56
178.644	-130.56
178.864	-128.51
179.084	-114.17
179.304	-28.16
179.524	-7.68
179.744	-32.26
179.964	2.56
180.184	-26.11
180.404	33.28
180.624	31.23
180.844	-1.54
181.064	6.66
181.283	6.66
181.503	-22.02
181.723	37.38
181.943	-67.07
182.163	29.18
182.383	23.04
182.602	61.95
182.822	41.47
183.042	74.24
183.262	-1.54
183.482	107.01
183.701	-24.06
183.921	43.52
184.141	49.66
184.361	59.9
184.58	-1.54
184.8	31.23
185.02	68.09
185.239	35.33
185.459	96.77
185.679	-13.82
185.898	-60.93
186.118	64
186.338	53.76
186.557	20.99
186.777	-36.35
186.997	18.94
187.216	-36.35
187.436	27.14
187.655	55.81
187.875	66.05
188.095	92.67
188.314	113.15
188.534	55.81
188.753	23.04
188.973	88.57
189.192	88.57
189.412	43.52
189.631	-7.68
189.851	59.9
190.07	82.43
190.29	23.04
190.509	90.62
190.729	55.81
190.948	100.86
191.168	121.34
191.387	55.81
191.607	-62.98
191.826	119.29
192.045	0.51
192.265	-1.54
192.484	18.94
192.704	-9.73
192.923	27.14
193.142	96.77
193.362	84.48
193.581	72.19
193.8	41.47
194.02	-7.68
194.239	31.23
194.458	80.38
194.678	31.23
194.897	-5.63
195.116	33.28
195.335	6.66
195.555	25.09
195.774	72.19
195.993	27.14
196.212	90.62
196.432	39.42
196.651	47.62
196.87	-42.5
197.089	25.09
197.308	131.58
197.528	47.62
197.747	-105.98
197.966	51.71
198.185	96.77
198.404	72.19
198.623	39.42
198.842	39.42
199.062	25.09
199.281	84.48
199.5	64
199.719	39.42
199.938	49.66
200.157	137.73
200.376	39.42
200.595	49.66
200.814	14.85
201.033	49.66
201.252	43.52
201.471	35.33
201.69	98.81
201.909	-1.54
202.128	66.05
202.347	64
202.566	39.42
202.785	18.94
203.004	0.51
203.223	166.4
203.442	25.09
203.661	90.62
203.879	16.9
204.098	131.58
204.317	49.66
204.536	39.42
204.755	-9.73
204.974	139.77
205.193	18.94
205.411	104.96
205.63	53.76
205.849	-5.63
206.068	39.42
206.287	113.15
206.505	123.39
206.724	25.09
206.943	49.66
207.162	-34.3
207.381	80.38
207.599	10.75
207.818	57.86
208.037	18.94
208.255	-36.35
208.474	35.33
208.693	55.81
208.911	23.04
209.13	23.04
209.349	70.14
209.567	49.66
209.786	68.09
210.005	51.71
210.223	43.52
210.442	0.51
210.661	31.23
210.879	47.62
211.098	31.23
211.316	41.47
211.535	145.92
211.753	47.62
211.972	51.71
212.191	8.7
212.409	47.62
212.628	96.77
212.846	82.43
213.065	47.62
213.283	172.54
213.502	31.23
213.72	-5.63
213.938	16.9
214.157	27.14
214.375	131.58
214.594	14.85
214.812	121.34
215.031	27.14
215.249	68.09
215.467	18.94
215.686	61.95
215.904	55.81
216.122	-24.06
216.341	96.77
216.559	25.09
216.778	47.62
216.996	59.9
217.214	98.81
217.432	-1.54
217.651	-54.78
217.869	4.61
218.087	43.52
218.306	59.9
218.524	57.86
218.742	-34.3
218.96	31.23
219.179	18.94
219.397	49.66
219.615	145.92
219.833	37.38
220.051	39.42
220.27	102.91
220.488	18.94
220.706	33.28
220.924	-22.02
221.142	18.94
221.36	45.57
221.578	64
221.796	68.09
222.015	47.62
222.233	64
222.451	-26.11
222.669	-56.83
222.887	68.09
223.105	96.77
223.323	-1.54
223.541	20.99
223.759	43.52
223.977	68.09
224.195	0.51
224.413	104.96
224.631	41.47
224.849	-9.73
225.067	109.05
225.285	72.19
225.503	-9.73
225.721	-26.11
225.939	39.42
226.157	14.85
226.375	96.77
226.592	20.99
226.81	47.62
227.028	64
227.246	84.48
227.464	94.72
227.682	74.24
227.9	92.67
228.117	8.7
228.335	53.76
228.553	-69.12
228.771	98.81
228.989	111.1
229.206	96.77
229.424	31.23
229.642	-17.92
229.86	43.52
230.077	111.1
230.295	43.52
230.513	82.43
230.731	64
230.948	96.77
231.166	92.67
231.384	66.05
231.601	80.38
231.819	31.23
232.037	-1.54
232.254	-50.69
232.472	86.53
232.689	14.85
232.907	41.47
233.125	-22.02
233.342	74.24
233.56	64
233.777	84.48
233.995	-22.02
234.213	35.33
234.43	49.66
234.648	4.61
234.865	57.86
235.083	66.05
235.3	64
235.518	41.47
235.735	64
235.953	27.14
236.17	74.24
236.388	-7.68
236.605	111.1
236.822	137.73
237.04	55.81
237.257	55.81
237.475	-52.74
237.692	14.85
237.909	51.71
238.127	25.09
238.344	16.9
238.562	61.95
238.779	53.76
238.996	55.81
239.214	104.96
239.431	127.49
239.648	45.57
239.865	43.52
240.083	96.77
240.3	80.38
240.517	31.23
240.735	88.57
240.952	139.77
241.169	76.29
241.386	27.14
241.603	-1.54
241.821	59.9
242.038	80.38
242.255	64
242.472	-24.06
242.689	8.7
242.907	66.05
243.124	49.66
243.341	59.9
243.558	64
243.775	55.81
243.992	35.33
244.209	96.77
244.426	102.91
244.643	72.19
244.86	31.23
245.078	55.81
245.295	66.05
245.512	64
245.729	-40.45
245.946	68.09
246.163	47.62
246.38	43.52
246.597	49.66
246.814	10.75
247.031	23.04
247.248	74.24
247.464	-13.82
247.681	104.96
247.898	47.62
248.115	59.9
248.332	51.71
248.549	72.19
248.766	104.96
248.983	72.19
249.2	49.66
249.417	39.42
249.633	29.18
249.85	31.23
250.067	31.23
250.284	-22.02
250.501	70.14
250.717	20.99
250.934	47.62
251.151	-75.26
251.368	82.43
251.585	115.2
251.801	14.85
252.018	18.94
252.235	55.81
252.451	51.71
252.668	-24.06
252.885	84.48
253.102	80.38
253.318	64
253.535	6.66
253.752	98.81
253.968	33.28
254.185	-9.73
254.401	115.2
254.618	43.52
254.835	47.62
255.051	145.92
255.268	-44.54
255.484	57.86
255.701	0.51
255.917	96.77
256.134	2.56
256.351	80.38
256.567	6.66
256.784	8.7
257	-40.45
257.217	125.44
257.433	51.71
257.65	88.57
257.866	64
258.082	18.94
258.299	23.04
258.515	-13.82
258.732	64
258.948	45.57
259.165	33.28
259.381	72.19
259.597	49.66
259.814	35.33
260.03	25.09
260.246	64
260.463	109.05
260.679	188.93
260.895	57.86
261.112	96.77
261.328	-13.82
261.544	14.85
261.761	111.1
261.977	92.67
262.193	-5.63
262.409	88.57
262.626	84.48
262.842	72.19
263.058	25.09
263.274	92.67
263.49	41.47
263.707	82.43
263.923	123.39
264.139	16.9
264.355	88.57
264.571	27.14
264.787	43.52
265.004	92.67
265.22	27.14
265.436	33.28
265.652	23.04
265.868	39.42
266.084	0.51
266.3	43.52
266.516	39.42
266.732	104.96
266.948	84.48
267.164	-26.11
267.38	8.7
267.596	47.62
267.812	98.81
268.028	76.29
268.244	43.52
268.46	96.77
268.676	51.71
268.892	129.53
269.108	49.66
269.324	72.19
269.54	14.85
269.756	123.39
269.972	-50.69
270.188	-7.68
270.403	27.14
270.619	68.09
270.835	27.14
271.051	64
271.267	104.96
271.483	74.24
271.698	43.52
271.914	47.62
272.13	23.04
272.346	86.53
272.562	61.95
272.777	82.43
272.993	16.9
273.209	57.86
273.425	25.09
273.64	-1.54
273.856	80.38
274.072	68.09
274.287	16.9
274.503	64
274.719	80.38
274.934	53.76
275.15	-65.02
275.366	51.71
275.581	10.75
275.797	23.04
276.012	8.7
276.228	98.81
276.444	2.56
276.659	78.33
276.875	39.42
277.09	115.2
277.306	-9.73
277.521	55.81
277.737	88.57
277.952	41.47
278.168	64
278.383	39.42
278.599	47.62
278.814	74.24
279.03	-7.68
279.245	129.53
279.461	82.43
279.676	31.23
279.892	6.66
280.107	-9.73
280.322	-5.63
280.538	39.42
280.753	27.14
280.969	43.52
281.184	27.14
281.399	137.73
281.615	113.15
281.83	23.04
282.045	74.24
282.26	6.66
282.476	43.52
282.691	23.04
282.906	33.28
283.122	49.66
283.337	-5.63
283.552	74.24
283.767	37.38
283.983	90.62
284.198	70.14
284.413	31.23
284.628	55.81
284.843	25.09
285.058	43.52
285.274	121.34
285.489	20.99
285.704	76.29
285.919	27.14
286.134	-9.73
286.349	-7.68
286.564	-9.73
286.779	145.92
286.995	72.19
287.21	16.9
287.425	35.33
287.64	98.81
287.855	8.7
288.07	-24.06
288.285	55.81
288.5	23.04
288.715	107.01
288.93	-17.92
289.145	23.04
289.36	133.63
289.575	88.57
289.79	43.52
290.004	82.43
290.219	80.38
290.434	14.85
290.649	-24.06
290.864	55.81
291.079	47.62
291.294	25.09
291.509	47.62
291.724	-7.68
291.938	10.75
292.153	10.75
292.368	47.62
292.583	107.01
292.798	72.19
293.012	41.47
293.227	16.9
293.442	8.7
293.657	98.81
293.871	84.48
294.086	68.09
294.301	131.58
294.516	47.62
294.73	43.52
294.945	-13.82
295.16	51.71
295.374	80.38
295.589	115.2
295.804	59.9
296.018	39.42
296.233	84.48
296.447	55.81
296.662	16.9
296.877	49.66
297.091	117.25
297.306	53.76
297.52	8.7
297.735	23.04
297.949	59.9
298.164	43.52
298.378	8.7
298.593	0.51
298.807	29.18
299.022	66.05
299.236	117.25
299.451	39.42
299.665	82.43
299.88	55.81
300.094	76.29
300.309	92.67
300.523	68.09
300.737	43.52
300.952	109.05
301.166	74.24
301.381	49.66
301.595	47.62
301.809	6.66
302.024	14.85
302.238	16.9
302.452	90.62
302.667	37.38
302.881	39.42
303.095	127.49
303.309	27.14
303.524	-24.06
303.738	16.9
303.952	23.04
304.166	55.81
304.381	-26.11
304.595	8.7
304.809	55.81
305.023	64
305.237	59.9
305.452	39.42
305.666	72.19
305.88	80.38
306.094	35.33
306.308	55.81
306.522	55.81
306.736	43.52
306.95	8.7
307.164	43.52
307.379	47.62
307.593	47.62
307.807	104.96
308.021	111.1
308.235	41.47
308.449	57.86
308.663	12.8
308.877	215.55
309.091	41.47
309.305	72.19
309.519	33.28
309.733	107.01
309.947	88.57
310.161	18.94
310.374	64
310.588	31.23
310.802	78.33
311.016	39.42
311.23	39.42
311.444	39.42
311.658	43.52
311.872	74.24
312.085	96.77
312.299	117.25
312.513	100.86
312.727	88.57
312.941	49.66
313.154	25.09
313.368	23.04
313.582	96.77
313.796	20.99
314.009	43.52
314.223	78.33
314.437	55.81
314.651	90.62
314.864	14.85
315.078	66.05
315.292	-11.78
315.505	55.81
315.719	-7.68
315.933	39.42
316.146	66.05
316.36	39.42
316.573	18.94
316.787	33.28
317.001	51.71
317.214	-7.68
317.428	47.62
317.641	47.62
317.855	64
318.068	37.38
318.282	72.19
318.495	117.25
318.709	55.81
318.922	-7.68
319.136	121.34
319.349	57.86
319.563	55.81
319.776	90.62
319.99	39.42
320.203	104.96
320.417	41.47
320.63	10.75
320.843	137.73
321.057	92.67
321.27	23.04
321.483	70.14
321.697	137.73
321.91	96.77
322.124	-52.74
322.337	35.33
322.55	82.43
322.763	109.05
322.977	0.51
323.19	6.66
323.403	-13.82
323.617	31.23
323.83	66.05
324.043	70.14
324.256	43.52
324.469	-22.02
324.683	137.73
324.896	113.15
325.109	72.19
325.322	-13.82
325.535	133.63
325.748	64
325.962	41.47
326.175	74.24
326.388	88.57
326.601	16.9
326.814	4.61
327.027	-1.54
327.24	55.81
327.453	16.9
327.666	41.47
327.879	100.86
328.092	43.52
328.305	59.9
328.518	47.62
328.731	6.66
328.944	96.77
329.157	41.47
329.37	23.04
329.583	49.66
329.796	72.19
330.009	39.42
330.222	66.05
330.435	61.95
330.648	80.38
330.861	59.9
331.073	115.2
331.286	27.14
331.499	41.47
331.712	72.19
331.925	27.14
332.138	68.09
332.35	12.8
332.563	25.09
332.776	92.67
332.989	2.56
333.202	92.67
333.414	59.9
333.627	29.18
333.84	55.81
334.053	72.19
334.265	27.14
334.478	29.18
334.691	74.24
334.903	61.95
335.116	8.7
335.329	98.81
335.541	76.29
335.754	174.59
335.966	72.19
336.179	47.62
336.392	96.77
336.604	107.01
336.817	61.95
337.029	51.71
337.242	0.51
337.454	55.81
337.667	72.19
337.88	70.14
338.092	70.14
338.305	41.47
338.517	-13.82
338.729	98.81
338.942	162.3
339.154	80.38
339.367	47.62
339.579	68.09
339.792	92.67
340.004	43.52
340.217	66.05
340.429	-7.68
340.641	72.19
340.854	131.58
341.066	74.24
341.278	102.91
341.491	129.53
341.703	6.66
341.915	6.66
342.128	49.66
342.34	31.23
342.552	2.56
342.764	18.94
342.977	33.28
343.189	35.33
343.401	43.52
343.613	16.9
343.826	119.29
344.038	14.85
344.25	82.43
344.462	6.66
344.674	72.19
344.886	72.19
345.099	23.04
345.311	35.33
345.523	68.09
345.735	-9.73
345.947	96.77
346.159	49.66
346.371	121.34
346.583	14.85
346.795	82.43
347.007	88.57
347.219	64
347.431	39.42
347.643	41.47
347.855	-1.54
348.067	55.81
348.279	-22.02
348.491	72.19
348.703	80.38
348.915	117.25
349.127	14.85
349.339	102.91
349.551	76.29
349.763	74.24
349.975	43.52
350.187	147.97
350.399	107.01
350.61	72.19
350.822	68.09
351.034	10.75
351.246	57.86
351.458	66.05
351.669	113.15
351.881	141.82
352.093	51.71
352.305	109.05
352.517	111.1
352.728	141.82
352.94	39.42
353.152	88.57
353.363	55.81
353.575	127.49
353.787	121.34
353.999	88.57
354.21	78.33
354.422	16.9
354.633	66.05
354.845	-1.54
355.057	64
355.268	57.86
355.48	104.96
355.692	47.62
355.903	70.14
356.115	-24.06
356.326	23.04
356.538	117.25
356.749	41.47
356.961	25.09
357.172	111.1
357.384	66.05
357.595	111.1
357.807	80.38
358.018	107.01
358.23	-13.82
358.441	141.82
358.653	98.81
358.864	23.04
359.075	72.19
359.287	82.43
359.498	64
359.709	131.58
359.921	27.14
360.132	70.14
360.344	47.62
360.555	82.43
360.766	109.05
360.977	0.51
361.189	72.19
361.4	-17.92
361.611	127.49
361.823	76.29
362.034	55.81
362.245	-42.5
362.456	92.67
362.667	29.18
362.879	90.62
363.09	64
363.301	-58.88
363.512	18.94
363.723	74.24
363.935	104.96
364.146	88.57
364.357	92.67
364.568	49.66
364.779	-7.68
364.99	10.75
365.201	39.42
365.412	123.39
365.623	86.53
365.834	70.14
366.045	35.33
366.256	25.09
366.467	84.48
366.678	39.42
366.889	109.05
367.1	18.94
367.311	74.24
367.522	33.28
367.733	33.28
367.944	59.9
368.155	-1.54
368.366	145.92
368.577	47.62
368.788	135.68
368.999	80.38
369.209	23.04
369.42	121.34
369.631	115.2
369.842	111.1
370.053	96.77
370.264	82.43
370.474	27.14
370.685	59.9
370.896	2.56
371.107	107.01
371.317	113.15
371.528	47.62
371.739	72.19
371.95	88.57
372.16	20.99
372.371	-22.02
372.582	98.81
372.792	55.81
373.003	82.43
373.214	35.33
373.424	76.29
373.635	76.29
373.846	88.57
374.056	31.23
374.267	188.93
374.477	18.94
374.688	0.51
374.898	109.05
375.109	41.47
375.319	113.15
375.53	96.77
375.74	88.57
375.951	47.62
376.161	76.29
376.372	41.47
376.582	94.72
376.793	84.48
377.003	43.52
377.214	33.28
377.424	55.81
377.635	96.77
377.845	35.33
378.055	92.67
378.266	-42.5
378.476	-15.87
378.686	35.33
378.897	-9.73
379.107	154.11
379.317	80.38
379.528	100.86
379.738	72.19
379.948	39.42
380.158	137.73
380.369	61.95
380.579	-17.92
380.789	59.9
380.999	90.62
381.21	27.14
381.42	96.77
381.63	74.24
381.84	94.72
382.05	72.19
382.261	104.96
382.471	102.91
382.681	-34.3
382.891	51.71
383.101	35.33
383.311	107.01
383.521	0.51
383.731	135.68
383.941	100.86
384.151	154.11
384.361	12.8
384.571	104.96
384.781	25.09
384.991	66.05
385.201	164.35
385.411	41.47
385.621	127.49
385.831	47.62
386.041	39.42
386.251	23.04
386.461	96.77
386.671	96.77
386.881	57.86
387.091	82.43
387.301	25.09
387.511	43.52
387.72	66.05
387.93	64
388.14	47.62
388.35	68.09
388.56	84.48
388.769	68.09
388.979	74.24
389.189	8.7
389.399	104.96
389.609	-7.68
389.818	64
390.028	121.34
390.238	92.67
390.447	-24.06
390.657	49.66
390.867	10.75
391.076	51.71
391.286	147.97
391.496	78.33
391.705	41.47
391.915	188.93
392.125	104.96
392.334	88.57
392.544	113.15
392.753	80.38
392.963	76.29
393.172	70.14
393.382	49.66
393.591	150.01
393.801	25.09
394.01	147.97
394.22	92.67
394.429	82.43
394.639	98.81
394.848	129.53
395.058	92.67
395.267	82.43
395.477	39.42
395.686	96.77
395.895	57.86
396.105	174.59
396.314	150.01
396.524	66.05
396.733	72.19
396.942	178.69
397.152	55.81
397.361	137.73
397.57	92.67
397.78	82.43
397.989	129.53
398.198	156.16
398.407	141.82
398.617	133.63
398.826	127.49
399.035	170.49
399.244	121.34
399.453	150.01
399.663	190.97
399.872	129.53
400.081	109.05
400.29	174.59
400.499	80.38
400.708	113.15
400.917	205.31
401.127	137.73
401.336	82.43
401.545	143.87
401.754	145.92
401.963	154.11
402.172	150.01
402.381	76.29
402.59	82.43
402.799	131.58
403.008	107.01
403.217	193.02
403.426	188.93
403.635	117.25
403.844	154.11
404.053	145.92
404.262	59.9
404.471	141.82
404.68	195.07
404.888	121.34
405.097	213.5
405.306	186.88
405.515	145.92
405.724	121.34
405.933	190.97
406.142	219.64
406.35	186.88
406.559	229.88
406.768	231.93
406.977	238.08
407.185	227.84
407.394	225.79
407.603	246.27
407.812	240.12
408.02	262.65
408.229	283.13
408.438	270.84
408.646	256.51
408.855	244.22
409.064	295.42
409.272	338.43
409.481	383.48
409.69	336.38
409.898	211.45
410.107	360.95
410.315	383.48
410.524	303.61
410.733	369.15
410.941	377.34
411.15	342.52
411.358	391.67
411.567	432.63
411.775	387.58
411.984	532.98
412.192	473.59
412.401	489.98
412.609	465.4
412.818	467.45
413.026	594.42
413.234	530.94
413.443	459.26
413.651	543.22
413.86	616.95
414.068	563.7
414.276	653.81
414.485	567.8
414.693	659.96
414.901	694.77
415.11	754.16
415.318	631.29
415.526	754.16
415.734	768.5
415.943	842.23
416.151	866.8
416.359	842.23
416.567	870.9
416.776	899.57
416.984	907.76
417.192	1042.93
417.4	942.58
417.608	1096.18
417.817	1022.45
418.025	1137.13
418.233	1229.29
418.441	1161.71
418.649	1137.13
418.857	1325.55
419.065	1409.51
419.273	1253.87
419.481	1438.19
419.689	1372.65
419.897	1563.11
420.105	1546.73
420.313	1509.86
420.521	1655.27
420.729	1628.65
420.937	1696.23
421.145	1790.44
421.353	1858.02
421.561	2048.48
421.769	1952.23
421.977	2075.1
422.185	2038.24
422.393	2177.5
422.601	2218.46
422.809	2243.04
423.017	2302.43
423.224	2404.83
423.432	2447.83
423.64	2492.89
423.848	2800.09
424.056	2679.26
424.263	2804.18
424.471	2890.2
424.679	2912.72
424.887	3099.09
425.094	3127.76
425.302	3230.16
425.51	3264.97
425.718	3465.68
425.925	3422.67
426.133	3572.17
426.341	3570.12
426.548	3983.81
426.756	3910.08
426.964	4016.58
427.171	4082.11
427.379	4284.86
427.586	4514.24
427.794	4391.36
428.001	4741.56
428.209	5081.52
428.417	4862.39
428.624	5173.68
428.832	5136.82
429.039	5077.43
429.247	5204.4
429.454	5671.34
429.662	6072.74
429.869	5685.67
430.076	6046.12
430.284	5988.77
430.491	6037.92
430.699	6449.57
430.906	6478.24
431.114	6445.47
431.321	6658.46
431.528	6830.49
431.736	7397.78
431.943	7760.27
432.15	7498.13
432.358	7469.45
432.565	7975.3
432.772	7819.66
432.979	8186.24
433.187	8290.69
433.394	8298.88
433.601	8937.85
433.808	9214.32
434.016	9048.44
434.223	9308.53
434.43	9849.19
434.637	9949.54
434.844	10357.09
435.052	10572.13
435.259	10404.19
435.466	10391.91
435.673	10439.01
435.88	11231.57
436.087	11540.82
436.294	11678.03
436.501	11368.79
436.708	11688.27
436.915	12167.49
437.122	12515.65
437.329	12671.29
437.537	12937.53
437.743	12996.92
437.95	12939.58
438.157	13537.59
438.364	14248.23
438.571	14186.79
438.778	14260.52
438.985	15378.71
439.192	14719.26
439.399	15352.09
439.606	14887.2
439.813	15972.62
440.02	16791.81
440.227	16494.85
440.433	16179.47
440.64	16922.88
440.847	16558.34
441.054	17043.71
441.261	18168.04
441.467	18065.64
441.674	18378.98
441.881	19308.76
442.088	19073.24
442.294	18708.71
442.501	19073.24
442.708	19572.95
442.914	20486.34
443.121	21260.48
443.328	20420.81
443.534	22126.77
443.741	21739.7
443.948	21403.83
444.154	22687.91
444.361	22483.11
444.568	22878.37
444.774	22915.23
444.981	23152.8
445.187	23767.19
445.394	24801.41
445.6	24330.38
445.807	26722.41
446.013	25301.12
446.22	26050.67
446.426	27086.95
446.633	27297.89
446.839	27981.91
447.046	26789.99
447.252	28692.55
447.459	28436.56
447.665	28866.63
447.871	29603.9
448.078	31025.19
448.284	29624.38
448.491	30367.79
448.697	31445.02
448.903	31830.04
449.11	31864.86
449.316	31485.98
449.522	32249.88
449.728	33329.16
449.935	33269.76
450.141	33255.43
450.347	33671.17
450.553	32589.84
450.76	33167.37
450.966	34433.01
451.172	33753.08
451.378	35018.73
451.584	34252.79
451.791	34818.03
451.997	34914.28
452.203	35442.66
452.409	35375.08
452.615	35289.06
452.821	33777.66
453.027	33437.7
453.233	35190.76
453.44	33781.76
453.646	34146.29
453.852	34258.93
454.058	34801.64
454.264	33542.14
454.47	34539.5
454.676	33503.23
454.882	34852.84
455.088	31563.81
455.294	32727.05
455.5	33040.39
455.705	32747.53
455.911	31379.49
456.117	31076.39
456.323	30695.47
456.529	29157.44
456.735	30597.17
456.941	29485.12
457.147	29331.52
457.352	28313.68
457.558	27734.1
457.764	28229.71
457.97	27301.98
458.176	26437.74
458.381	27115.62
458.587	25643.13
458.793	25294.97
458.999	24203.41
459.204	25673.85
459.41	25215.1
459.616	23474.33
459.821	23423.13
460.027	23019.68
460.233	22540.46
460.438	21733.56
460.644	21870.77
460.85	20863.17
461.055	20617.41
461.261	20359.37
461.466	18880.74
461.672	18391.27
461.878	19962.06
462.083	18462.95
462.289	18065.64
462.494	17803.5
462.7	16816.38
462.905	16623.87
463.111	17185.02
463.316	17234.17
463.522	16900.35
463.727	16828.67
463.932	16972.03
464.138	16898.3
464.343	16851.2
464.549	16150.79
464.754	16847.1
464.959	16707.84
465.165	16435.46
465.37	16163.08
465.575	15292.69
465.781	15989
465.986	16201.99
466.191	15816.97
466.397	15096.09
466.602	14469.41
466.807	14895.39
467.012	14940.44
467.218	14862.62
467.423	14657.82
467.628	14522.66
467.833	15210.78
468.038	14647.58
468.244	14420.26
468.449	15159.58
468.654	14459.17
468.859	14199.08
469.064	14391.59
469.269	13861.16
469.474	13871.4
469.679	14188.84
469.885	13603.12
470.09	13777.2
470.295	13574.45
470.5	13293.88
470.705	13515.06
470.91	13263.16
471.115	12906.81
471.32	13275.45
471.525	13209.91
471.73	12777.79
471.935	12785.98
472.139	12435.78
472.344	12622.14
472.549	12024.14
472.754	12308.8
472.959	11886.92
473.164	11766.09
473.369	11708.75
473.574	12153.16
473.778	11845.96
473.983	11688.27
474.188	11819.34
474.393	11288.92
474.598	11188.57
474.802	11221.33
475.007	11221.33
475.212	11127.13
475.417	10809.69
475.621	10770.78
475.826	10819.93
476.031	10488.16
476.235	10611.04
476.44	10563.93
476.645	10318.18
476.849	10279.27
477.054	10133.86
477.259	9986.41
477.463	10117.48
477.668	9828.71
477.872	10115.43
478.077	9771.37
478.282	9468.27
478.486	9603.44
478.691	9386.35
478.895	9435.5
479.1	9261.43
479.304	9240.95
479.509	9079.16
479.713	9025.91
479.918	9210.23
480.122	8829.31
480.326	9148.79
480.531	8847.74
480.735	8788.35
480.94	8905.08
481.144	9136.5
481.348	8667.52
481.553	8896.89
481.757	8675.71
481.961	8606.08
482.166	9025.91
482.37	8790.39
482.574	8608.12
482.778	8653.18
482.983	8583.55
483.187	8767.87
483.391	8788.35
483.595	8425.86
483.8	8632.7
484.004	8495.49
484.208	8749.43
484.412	8567.17
484.616	8724.86
484.821	8665.47
485.025	8591.74
485.229	8708.48
485.433	8587.64
485.637	8612.22
485.841	8612.22
486.045	8581.5
486.249	8569.21
486.453	8657.28
486.657	8636.8
486.861	8573.31
487.065	8403.33
487.269	8804.73
487.473	8290.69
487.677	8728.95
487.881	8501.63
488.085	8665.47
488.289	8626.56
488.493	8511.87
488.697	8731
488.901	8649.08
489.105	8507.77
489.309	8825.21
489.512	8739.19
489.716	8604.03
489.92	8675.71
490.124	8671.61
490.328	8880.5
490.531	8677.76
490.735	8632.7
490.939	8759.67
491.143	8903.03
491.346	8751.48
491.55	8825.21
491.754	8722.81
491.958	8882.55
492.161	8825.21
492.365	8962.42
492.569	8907.13
492.772	8731
492.976	9050.49
493.18	9034.1
493.383	9304.43
493.587	9083.25
493.79	9341.3
493.994	9181.56
494.197	9107.83
494.401	9386.35
494.605	9267.57
494.808	9492.85
495.012	9560.43
495.215	9709.93
495.419	9548.14
495.622	9607.53
495.825	9703.79
496.029	9654.64
496.232	9976.17
496.436	9767.27
496.639	10099.05
496.843	10160.48
497.046	10328.42
497.249	10484.06
497.453	10402.15
497.656	10586.46
497.859	10371.43
498.063	10672.48
498.266	10834.27
498.469	10658.14
498.673	10803.55
498.876	10901.85
499.079	11086.17
499.282	11262.29
499.485	11589.97
499.689	11462.99
499.892	11614.54
500.095	11413.84
500.298	11813.2
500.501	11966.79
500.705	11966.79
500.908	12036.42
501.111	12368.2
501.314	12427.59
501.517	12585.28
501.72	12810.56
501.923	12747.07
502.126	12855.61
502.329	13175.09
502.532	12906.81
502.735	13127.99
502.938	13695.28
503.141	13447.47
503.344	13734.19
503.547	13642.03
503.75	13990.19
503.953	14188.84
504.156	14061.87
504.359	14344.49
504.562	14489.89
504.765	14586.15
504.968	14805.28
505.17	14844.19
505.373	14907.68
505.576	15358.23
505.779	15323.41
505.982	15452.44
506.185	15827.21
506.387	15864.08
506.59	15849.74
506.793	16371.97
506.996	16173.32
507.198	16832.77
507.401	16603.39
507.604	16808.19
507.807	16861.44
508.009	17301.75
508.212	17471.73
508.415	17690.87
508.617	17672.43
508.82	17916.14
509.022	17594.61
509.225	17983.73
509.428	18397.42
509.63	18671.84
509.833	18804.96
510.035	18876.64
510.238	18950.37
510.44	19003.61
510.643	19423.45
510.845	19585.24
511.048	19405.02
511.25	19755.22
511.453	19814.61
511.655	20578.5
511.858	20429
512.06	20472.01
512.262	20773.06
512.465	20889.79
512.667	20984
512.87	21051.58
513.072	21207.23
513.274	21725.36
513.477	21649.59
513.679	22044.85
513.881	22225.07
514.084	22296.75
514.286	22311.08
514.488	22608.04
514.69	23416.99
514.893	23476.38
515.095	23318.68
515.297	23300.25
515.499	23564.44
515.701	24070.29
515.904	24150.16
516.106	24225.93
516.308	24551.56
516.51	24871.04
516.712	24580.23
516.914	25151.62
517.116	25753.72
517.318	25471.1
517.52	25589.88
517.722	25770.1
517.925	25972.85
518.127	26374.25
518.329	26708.07
518.531	26187.89
518.733	26687.59
518.935	26824.81
519.136	26990.69
519.338	27215.97
519.54	27504.73
519.742	27555.93
519.944	27881.56
520.146	28401.74
520.348	28461.13
520.55	28041.3
520.752	28242
520.954	28880.97
521.155	28428.37
521.357	28889.16
521.559	29386.82
521.761	29954.1
521.963	29304.9
522.164	29483.07
522.366	29659.2
522.568	29798.46
522.77	29808.7
522.971	30666.8
523.173	30298.16
523.375	30539.82
523.576	30371.89
523.778	30519.34
523.98	30818.35
524.181	30814.25
524.383	31002.66
524.584	31279.14
524.786	31248.42
524.988	31033.38
525.189	31440.93
525.391	31295.52
525.592	31549.47
525.794	31942.68
525.995	31645.73
526.197	31846.43
526.398	31766.56
526.6	31784.99
526.801	32000.02
527.003	32186.39
527.204	32159.77
527.406	32387.09
527.607	32237.59
527.808	32796.68
528.01	31741.98
528.211	32139.29
528.412	32362.51
528.614	32428.05
528.815	32385.04
529.016	33054.73
529.218	32294.93
529.419	32471.06
529.62	32471.06
529.822	32215.06
530.023	32327.7
530.224	32409.62
530.425	32331.79
530.626	32360.47
530.828	31748.12
531.029	33054.73
531.23	32268.31
531.431	32374.8
531.632	32272.4
531.833	32466.96
532.035	32477.2
532.236	32319.51
532.437	32643.09
532.638	31895.58
532.839	32610.32
533.04	32458.77
533.241	31883.29
533.442	32772.11
533.643	32090.13
533.844	32137.24
534.045	32217.11
534.246	31774.75
534.447	32202.77
534.648	32036.89
534.849	32149.53
535.05	32186.39
535.251	32161.81
535.451	31762.46
535.652	32278.55
535.853	31979.54
536.054	32258.07
536.255	32188.44
536.456	31664.16
536.657	32483.34
536.857	32014.36
537.058	31662.11
537.259	31936.54
537.46	31971.35
537.66	31881.24
537.861	31774.75
538.062	31610.91
538.263	31698.97
538.463	31512.61
538.664	31449.12
538.865	31752.22
539.065	32038.94
539.266	31576.09
539.466	31784.99
539.667	31508.51
539.868	31535.13
540.068	31578.14
540.269	31748.12
540.469	31346.72
540.67	31320.1
540.87	31313.95
541.071	30976.04
541.271	31701.02
541.472	31305.76
541.672	31021.09
541.873	31180.84
542.073	31176.74
542.274	31508.51
542.474	31291.43
542.675	31279.14
542.875	31658.01
543.075	31268.9
543.276	30900.26
543.476	31442.98
543.676	31098.92
543.877	31100.97
544.077	30730.28
544.277	31017
544.478	31066.15
544.678	31021.09
544.878	31195.17
545.078	31039.53
545.279	30779.43
545.479	30873.64
545.679	31385.63
545.879	31119.4
546.079	31043.62
546.28	31279.14
546.48	30930.98
546.68	31098.92
546.88	30885.93
547.08	31432.74
547.28	31346.72
547.48	30652.46
547.68	30793.77
547.88	31092.77
548.081	31227.94
548.281	30863.4
548.481	30980.14
548.681	31207.46
548.881	31119.4
549.081	30984.23
549.28	30720.04
549.48	31084.58
549.68	30863.4
549.88	31002.66
550.08	30752.81
550.28	31434.78
550.48	31049.77
550.68	31004.71
550.88	30658.6
551.08	31053.86
551.279	31258.66
551.479	30787.63
551.679	31213.6
551.879	30922.79
552.079	31279.14
552.278	31180.84
552.478	31266.85
552.678	31359.01
552.878	31453.22
553.077	31199.27
553.277	31072.29
553.477	31162.4
553.676	31072.29
553.876	31213.6
554.076	31219.75
554.275	30928.94
554.475	30898.22
554.674	31264.8
554.874	30992.42
555.074	31113.25
555.273	31191.08
555.473	31332.39
555.672	31213.6
555.872	31307.81
556.071	31373.35
556.271	31598.62
556.47	31369.25
556.67	31213.6
556.869	31453.22
557.068	31494.18
557.268	31467.55
557.467	31543.33
557.667	31297.57
557.866	31137.83
558.065	30822.44
558.265	30625.84
558.464	31184.93
558.663	31453.22
558.863	31125.54
559.062	31594.53
559.261	31146.02
559.461	31483.94
559.66	31115.3
559.859	31217.7
560.058	30881.83
560.258	31186.98
560.457	31238.18
560.656	31569.95
560.855	31234.08
561.054	31119.4
561.253	30920.74
561.453	31098.92
561.652	31103.01
561.851	31184.93
562.05	31088.68
562.249	31027.24
562.448	31191.08
562.647	30990.38
562.846	31068.2
563.045	31260.71
563.244	30892.07
563.443	31309.86
563.642	30670.89
563.841	30765.1
564.04	30513.2
564.239	31418.4
564.438	30900.26
564.637	30746.67
564.836	30746.67
565.035	30636.08
565.234	30869.54
565.432	30687.28
565.631	30799.91
565.83	30623.79
566.029	30433.33
566.228	30674.99
566.427	30611.5
566.625	30296.11
566.824	30093.36
567.023	30543.92
567.222	30269.49
567.42	30623.79
567.619	30388.27
567.818	30130.23
568.016	30265.39
568.215	30416.94
568.414	30197.81
568.612	30427.18
568.811	29921.34
569.01	30281.78
569.208	29724.73
569.407	30322.74
569.605	29804.6
569.804	30189.62
570.002	29624.38
570.201	29904.95
570.4	29847.61
570.598	29624.38
570.797	29487.17
570.995	29706.3
571.193	29247.55
571.392	29884.47
571.59	29218.88
571.789	29431.87
571.987	29585.47
572.186	28987.46
572.384	29130.82
572.582	29036.61
572.781	29564.99
572.979	28772.42
573.177	28753.99
573.376	28985.41
573.574	28614.73
573.772	28809.29
573.971	28581.96
574.169	28389.45
574.367	28346.45
574.565	28797
574.763	28639.31
574.962	28139.6
575.16	28020.82
575.358	28416.08
575.556	28016.72
575.754	28289.1
575.952	27742.3
576.151	28020.82
576.349	27666.52
576.547	27465.82
576.745	27854.93
576.943	27551.84
577.141	27580.51
577.339	27760.73
577.537	27543.64
577.735	27603.03
577.933	27197.54
578.131	27318.37
578.329	27152.48
578.527	26937.44
578.725	27152.48
578.923	27088.99
579.121	27193.44
579.319	26810.47
579.516	26990.69
579.714	27166.82
579.912	26992.74
580.11	26519.66
580.308	26421.36
580.506	26390.64
580.704	25985.14
580.901	26658.92
581.099	26638.44
581.297	26300.53
581.495	26013.81
581.692	26304.62
581.89	26062.96
582.088	26361.97
582.285	25940.08
582.483	26114.16
582.681	25931.89
582.878	25792.63
583.076	25569.4
583.274	25641.08
583.471	25852.02
583.669	25583.74
583.866	25581.69
584.064	25649.27
584.262	25004.16
584.459	25643.13
584.657	25116.8
584.854	25458.81
585.052	24703.11
585.249	25335.93
585.447	25426.04
585.644	24897.67
585.841	24973.44
586.039	25227.39
586.236	24529.03
586.434	24551.56
586.631	24768.65
586.828	24836.23
587.026	24789.13
587.223	24588.42
587.42	24434.83
587.618	24504.46
587.815	24268.94
588.012	24250.51
588.21	24037.52
588.407	24230.03
588.604	24240.27
588.801	23957.65
588.999	24215.69
589.196	23910.55
589.393	24311.95
589.59	23939.22
589.787	24043.67
589.984	23586.97
590.182	23744.66
590.379	23982.23
590.576	23701.65
590.773	23576.73
590.97	23308.44
591.167	23576.73
591.364	23337.12
591.561	23724.18
591.758	23390.36
591.955	23459.99
592.152	23050.4
592.349	23199.9
592.546	23490.71
592.743	23171.23
592.94	22773.92
593.137	22857.89
593.334	23128.22
593.531	22749.35
593.727	22851.75
593.924	22876.32
594.121	22784.16
594.318	22892.71
594.515	22710.44
594.712	22986.91
594.908	22591.66
595.105	22855.84
595.302	22184.11
595.499	22603.94
595.696	22605.99
595.892	22368.43
596.089	22589.61
596.286	22659.24
596.482	22397.1
596.679	22280.36
596.876	22554.79
597.072	22423.72
597.269	22724.77
597.466	22370.47
597.662	22145.2
597.859	22212.78
598.055	22362.28
598.252	22243.5
598.448	22554.79
598.645	22196.4
598.841	21788.85
599.038	21964.98
599.234	22106.29
599.431	21999.79
599.627	21729.46
599.824	22169.77
600.02	21846.19
600.217	22030.51
600.413	21942.45
600.609	21762.23
600.806	21946.55
601.002	21833.91
601.198	21995.7
601.395	21962.93
601.591	21829.81
601.787	21813.43
601.984	21747.89
602.18	22333.61
602.376	22018.22
602.572	21909.68
602.769	21864.63
602.965	21917.87
603.161	21725.36
603.357	21651.64
603.553	21897.39
603.75	21739.7
603.946	21739.7
604.142	21780.66
604.338	21827.76
604.534	22163.63
604.73	21723.32
604.926	21704.88
605.122	21958.83
605.318	21692.6
605.514	21706.93
605.71	21782.71
605.906	21678.26
606.102	21854.39
606.298	21766.32
606.494	21981.36
606.69	21940.4
606.886	22098.09
607.082	21692.6
607.278	21762.23
607.474	21729.46
607.67	21926.07
607.866	21862.58
608.062	22143.15
608.257	21854.39
608.453	22122.67
608.649	22055.09
608.845	21848.24
609.041	21936.31
609.236	21930.16
609.432	21948.59
609.628	22085.81
609.824	22079.66
610.019	21860.53
610.215	22124.72
610.411	22349.99
610.606	22206.64
610.802	22460.59
610.998	22175.92
611.193	21960.88
611.389	22173.87
611.584	21893.3
611.78	22163.63
611.976	22141.1
612.171	22300.84
612.367	22186.16
612.562	21967.02
612.758	22010.03
612.953	22055.09
613.149	22161.58
613.344	21993.65
613.539	22296.75
613.735	22370.47
613.93	22544.55
614.126	22157.49
614.321	22534.31
614.517	22278.32
614.712	22163.63
614.907	22263.98
615.103	22354.09
615.298	22108.33
615.493	22511.78
615.688	22141.1
615.884	22565.03
616.079	22167.73
616.274	22253.74
616.47	22266.03
616.665	22464.68
616.86	22194.35
617.055	22143.15
617.25	22192.3
617.445	22388.91
617.641	21883.06
617.836	22134.96
618.031	21858.48
618.226	21999.79
618.421	22243.5
618.616	22173.87
618.811	21715.12
619.006	22253.74
619.201	21715.12
619.396	22042.8
619.591	21389.5
619.786	21823.67
619.981	21495.99
620.176	21668.02
620.371	21543.1
620.566	21418.17
620.761	21389.5
620.956	21526.71
621.151	21190.84
621.346	21694.64
621.541	21127.36
621.735	21254.33
621.93	20996.29
622.125	21086.4
622.32	20820.16
622.515	20814.02
622.709	20832.45
622.904	20672.71
623.099	20220.11
623.294	20652.23
623.488	20136.14
623.683	20490.44
623.878	20164.81
624.072	20338.89
624.267	19984.59
624.462	19908.82
624.656	20046.03
624.851	20076.75
625.046	19898.58
625.24	19658.96
625.435	19534.04
625.629	19478.74
625.824	19259.61
626.018	19362.01
626.213	18749.67
626.407	18905.31
626.602	18907.36
626.796	19112.16
626.991	18880.74
627.185	18884.83
627.38	18645.22
627.574	18766.05
627.768	18307.3
627.963	18526.44
628.157	18102.51
628.352	18637.03
628.546	17811.7
628.74	18172.14
628.935	18143.47
629.129	17922.29
629.323	17717.49
629.517	17772.78
629.712	17940.72
629.906	17668.34
630.1	17307.9
630.294	17383.67
630.489	17053.95
630.683	17316.09
630.877	17262.84
631.071	17103.1
631.265	17219.83
631.459	16922.88
631.653	17000.7
631.848	16693.51
632.042	16621.83
632.236	16750.85
632.43	16482.56
632.624	16709.89
632.818	16449.8
633.012	16214.28
633.206	16439.56
633.4	16259.34
633.594	16122.12
633.788	16052.49
633.982	15929.61
634.176	15941.9
634.369	15749.39
634.563	15421.72
634.757	15630.61
634.951	15464.72
635.145	15546.64
635.339	15436.05
635.533	15434
635.726	15565.07
635.92	15139.1
636.114	15135
636.308	15270.17
636.501	14733.6
636.695	14926.11
636.889	14756.13
637.083	14514.47
637.276	14752.03
637.47	14485.79
637.664	14590.24
637.857	14403.88
638.051	14444.84
638.244	14088.49
638.438	14262.57
638.632	14252.33
638.825	14082.35
639.019	14123.3
639.212	13902.12
639.406	13777.2
639.599	13697.33
639.793	13703.47
639.986	13267.25
640.18	13617.46
640.373	13510.96
640.567	13287.73
640.76	13326.64
640.954	13285.69
641.147	13097.27
641.34	13082.94
641.534	12894.52
641.727	12921.15
641.92	12822.84
642.114	12722.49
642.307	12736.83
642.5	12585.28
642.694	12566.85
642.887	12501.31
643.08	12702.01
643.273	12460.35
643.467	12345.67
643.66	12044.62
643.853	11921.74
644.046	11888.97
644.239	11962.7
644.432	11856.2
644.626	11704.65
644.819	12042.57
645.012	11868.49
645.205	11462.99
645.398	11727.18
645.591	11426.13
645.784	11522.38
645.977	11571.54
646.17	11417.94
646.363	11295.06
646.556	11229.52
646.749	11241.81
646.942	11211.09
647.135	10912.09
647.328	11024.73
647.521	11016.54
647.714	10654.05
647.907	10821.98
648.099	10768.73
648.292	10604.89
648.485	10854.75
648.678	10492.26
648.871	10387.81
649.064	10365.28
649.256	10477.92
649.449	10223.97
649.642	10271.08
649.835	10232.16
650.027	10078.57
650.22	10080.61
650.413	10090.85
650.605	10010.98
650.798	10017.13
650.991	9771.37
651.183	9894.25
651.376	9791.85
651.568	9728.36
651.761	9722.22
651.954	9689.45
652.146	9797.99
652.339	9312.63
652.531	9634.16
652.724	9419.12
652.916	9517.42
653.109	9222.52
653.301	9322.87
653.494	9351.54
653.686	9050.49
653.879	9292.15
654.071	9005.43
654.263	9005.43
654.456	8943.99
654.648	9220.47
654.84	8929.66
655.033	9025.91
655.225	8753.53
655.417	8667.52
655.61	8651.13
655.802	8694.14
655.994	8534.4
656.186	8468.86
656.379	8454.53
656.571	8587.64
656.763	8300.93
656.955	8446.34
657.148	8427.9
657.34	8206.72
657.532	8130.95
657.724	8149.38
657.916	8151.43
658.108	8133
658.3	7932.29
658.492	8163.72
658.684	8028.55
658.876	7952.77
659.068	7903.62
659.26	7940.49
659.452	7889.29
659.644	7780.75
659.836	7684.49
660.028	7653.77
660.22	7639.44
660.412	7661.96
660.604	7553.42
660.796	7721.35
660.988	7567.76
661.18	7319.95
661.372	7399.82
661.563	7436.69
661.755	7256.47
661.947	7270.8
662.139	7297.42
662.331	7078.29
662.522	7117.2
662.714	7217.55
662.906	7111.06
663.097	7031.19
663.289	6873.5
663.481	7018.9
663.673	6914.45
663.864	6830.49
664.056	6740.38
664.247	6855.06
664.439	6703.51
664.631	6928.79
664.822	6642.07
665.014	6730.14
665.205	6715.8
665.397	6515.1
665.588	6451.61
665.78	6564.25
665.971	6486.43
666.163	6584.73
666.354	6455.71
666.546	6330.78
666.737	6388.13
666.929	6308.26
667.12	6406.56
667.311	6314.4
667.503	6191.52
667.694	6183.33
667.885	6246.82
668.077	6289.82
668.268	6121.89
668.459	5956.01
668.651	6109.6
668.842	6101.41
669.033	5917.09
669.224	5761.45
669.416	5929.38
669.607	5913
669.798	5646.76
669.989	5913
670.18	5659.05
670.371	5763.5
670.563	5626.28
670.754	5747.11
670.945	5835.17
671.136	5700.01
671.327	5661.1
671.518	5509.55
671.709	5626.28
671.9	5536.17
672.091	5683.63
672.282	5466.54
672.473	5540.27
672.664	5489.07
672.855	5585.32
673.046	5407.15
673.237	5646.76
673.428	5259.7
673.619	5310.89
673.809	5282.22
674	5482.92
674.191	5446.06
674.382	5331.37
674.573	5161.39
674.764	5331.37
674.954	5368.24
675.145	5173.68
675.336	5249.46
675.527	5388.72
675.717	5081.52
675.908	5063.09
676.099	5085.62
676.289	5110.19
676.48	5069.23
676.671	5198.26
676.861	5161.39
677.052	4944.31
677.243	4911.54
677.433	4948.4
677.624	5188.02
677.814	4999.6
678.005	5245.36
678.195	4956.6
678.386	4962.74
678.576	4913.59
678.767	5065.14
678.957	4776.38
679.148	5003.7
679.338	4749.75
679.529	4762.04
679.719	4858.29
679.909	4858.29
680.1	4811.19
680.29	4790.71
680.481	4792.76
680.671	4786.61
680.861	4929.97
681.052	4917.68
681.242	4741.56
681.432	4833.72
681.622	4759.99
681.813	4680.12
682.003	4837.81
682.193	4524.47
682.383	4770.23
682.573	4669.88
682.764	4544.95
682.954	4692.41
683.144	4528.57
683.334	4696.5
683.524	4653.5
683.714	4569.53
683.904	4643.26
684.094	4637.11
684.284	4520.38
684.474	4669.88
684.664	4542.91
684.854	4596.15
685.044	4561.34
685.234	4522.43
685.424	4499.9
685.614	4432.32
685.804	4446.65
685.994	4514.24
686.184	4350.4
686.374	4381.12
686.564	4477.37
686.753	4465.08
686.943	4499.9
687.133	4352.45
687.323	4299.2
687.513	4334.01
687.702	4389.31
687.892	4270.53
688.082	4266.43
688.272	4401.6
688.461	4184.51
688.651	4284.86
688.841	4217.28
689.03	4143.55
689.22	4106.69
689.41	4235.71
689.599	4168.13
689.789	4282.81
689.979	4135.36
690.168	4221.38
690.358	3940.8
690.547	3992
690.737	4209.09
690.926	4204.99
691.116	3944.9
691.305	4123.07
691.495	4141.5
691.684	3930.56
691.874	4198.85
692.063	3963.33
692.252	4018.63
692.442	3996.1
692.631	3922.37
692.82	4026.82
693.01	3932.61
693.199	3693
693.388	3805.64
693.578	3781.06
693.767	3899.84
693.956	3961.28
694.146	3856.84
694.335	3891.65
694.524	3756.49
694.713	3875.27
694.902	3807.69
695.092	3830.21
695.281	3887.56
695.47	3852.74
695.659	3695.05
695.848	3693
696.037	3787.21
696.226	3799.49
696.415	3688.9
696.604	3832.26
696.793	3740.1
696.982	3684.81
697.171	3596.75
697.36	3795.4
697.549	3688.9
697.738	3645.9
697.927	3437
698.116	3695.05
698.305	3557.83
698.494	3766.73
698.683	3549.64
698.872	3621.32
699.061	3525.07
699.25	3717.58
699.438	3537.35
699.627	3367.37
699.816	3451.34
700.005	3529.16
700.193	3553.74
700.382	3498.44
700.571	3598.79
700.76	3432.91
700.948	3529.16
701.137	3394
701.326	3498.44
701.514	3381.71
701.703	3488.2
701.892	3353.04
702.08	3482.06
702.269	3465.68
702.457	3406.28
702.646	3301.84
702.834	3342.8
703.023	3242.45
703.212	3324.37
703.4	3381.71
703.589	3404.24
703.777	3305.93
703.965	3291.6
704.154	3219.92
704.342	3193.3
704.531	3172.82
704.719	3197.39
704.907	3287.5
705.096	3209.68
705.284	3181.01
705.472	3228.11
705.661	3172.82
705.849	3056.08
706.037	3260.88
706.226	3226.06
706.414	2982.35
706.602	3045.84
706.79	3088.85
706.979	3066.32
707.167	3099.09
707.355	3076.56
707.543	3054.03
707.731	3082.7
707.919	2980.31
708.107	3035.6
708.296	3058.13
708.484	2986.45
708.672	2953.68
708.86	2890.2
709.048	3000.79
709.236	2843.09
709.424	3004.88
709.612	3013.07
709.8	2986.45
709.988	2873.81
710.176	2974.16
710.364	3015.12
710.551	2804.18
710.739	2898.39
710.927	2849.24
711.115	2916.82
711.303	2763.22
711.491	2963.92
711.679	2941.4
711.866	2914.77
712.054	2752.98
712.242	2630.1
712.43	2849.24
712.617	2730.45
712.805	2656.73
712.993	2697.69
713.181	2761.17
713.368	2812.37
713.556	2494.94
713.744	2646.49
713.931	2802.13
714.119	2701.78
714.306	2685.4
714.494	2660.82
714.682	2669.02
714.869	2656.73
715.057	2642.39
715.244	2632.15
715.432	2595.29
715.619	2681.3
715.807	2718.17
715.994	2613.72
716.182	2546.14
716.369	2679.26
716.556	2687.45
716.744	2542.04
716.931	2566.62
717.119	2650.58
717.306	2542.04
717.493	2482.65
717.681	2476.51
717.868	2460.12
718.055	2515.42
718.242	2456.03
718.43	2531.8
718.617	2527.71
718.804	2372.06
718.991	2544.09
719.179	2484.7
719.366	2431.45
719.553	2435.55
719.74	2415.07
719.927	2386.4
720.114	2365.92
720.301	2435.55
720.488	2238.94
720.676	2306.52
720.863	2464.22
721.05	2470.36
721.237	2310.62
721.424	2304.48
721.611	2236.89
721.798	2261.47
721.985	2245.09
722.172	2374.11
722.358	2087.39
722.545	2310.62
722.732	2222.56
722.919	2288.09
723.106	2310.62
723.293	2267.61
723.48	2251.23
723.667	2310.62
723.853	2214.37
724.04	2218.46
724.227	2277.85
724.414	2154.98
724.6	2193.89
724.787	2197.98
724.974	2226.65
725.161	2105.82
725.347	2146.78
725.534	2150.88
725.72	2107.87
725.907	2259.42
726.094	2226.65
726.28	2165.21
726.467	2163.17
726.653	2050.53
726.84	2140.64
727.027	2169.31
727.213	2136.54
727.4	2105.82
727.586	2030.05
727.773	2163.17
727.959	2161.12
728.145	2003.43
728.332	2017.76
728.518	2054.62
728.705	2015.71
728.891	2011.62
729.077	1982.95
729.264	2087.39
729.45	1997.28
729.636	2087.39
729.823	2001.38
730.009	1927.65
730.195	2105.82
730.382	2140.64
730.568	2046.43
730.754	1958.37
730.94	1997.28
731.126	2058.72
731.313	2019.81
731.499	2001.38
731.685	2013.67
731.871	1876.45
732.057	2030.05
732.243	2032.1
732.429	1978.85
732.615	1972.71
732.801	1956.32
732.987	1890.79
733.173	1989.09
733.359	1913.31
733.545	1901.03
733.731	1821.16
733.917	1952.23
734.103	1905.12
734.289	1798.63
734.475	1700.33
734.661	1917.41
734.847	1804.77
735.033	1915.36
735.219	1884.64
735.404	1745.38
735.59	1751.53
735.776	1702.37
735.962	1745.38
736.148	1868.26
736.333	1931.75
736.519	1819.11
736.705	1870.31
736.89	1733.09
737.076	1653.22
737.262	1804.77
737.447	1800.68
737.633	1716.71
737.819	1802.72
738.004	1722.85
738.19	1731.05
738.375	1751.53
738.561	1685.99
738.747	1653.22
738.932	1757.67
739.118	1743.33
739.303	1868.26
739.489	1784.29
739.674	1651.17
739.859	1696.23
740.045	1636.84
740.23	1677.8
740.416	1599.98
740.601	1698.28
740.786	1612.26
740.972	1497.58
741.157	1573.35
741.342	1616.36
741.528	1599.98
741.713	1647.08
741.898	1647.08
742.084	1516.01
742.269	1599.98
742.454	1559.02
742.639	1581.54
742.824	1489.39
743.01	1581.54
743.195	1538.54
743.38	1513.96
743.565	1628.65
743.75	1608.17
743.935	1655.27
744.12	1665.51
744.305	1509.86
744.49	1542.63
744.675	1454.57
744.86	1456.62
745.045	1542.63
745.23	1530.34
745.415	1399.27
745.6	1448.43
745.785	1516.01
745.97	1466.86
746.155	1458.67
746.34	1417.71
746.525	1372.65
746.71	1446.38
746.895	1391.08
747.079	1407.47
747.264	1346.03
747.449	1358.32
747.634	1403.37
747.819	1464.81
748.003	1413.61
748.188	1296.88
748.373	1456.62
748.557	1270.25
748.742	1327.6
748.927	1317.36
749.111	1307.12
749.296	1341.93
749.481	1243.63
749.665	1286.64
749.85	1270.25
750.034	1192.43
750.219	1276.4
750.404	1196.53
750.588	1296.88
750.773	1169.9
750.957	1171.95
751.141	1227.25
751.326	1264.11
751.51	1128.94
751.695	1163.76
751.879	1260.01
752.064	1219.05
752.248	1143.28
752.432	1063.41
752.617	1096.18
752.801	1133.04
752.985	1163.76
753.17	1153.52
753.354	1026.54
753.538	1096.18
753.722	1065.46
753.907	1128.94
754.091	1067.5
754.275	1071.6
754.459	1059.31
754.643	1071.6
754.828	1153.52
755.012	956.91
755.196	1042.93
755.38	997.87
755.564	979.44
755.748	989.68
755.932	973.3
756.116	1042.93
756.3	1028.59
756.484	915.95
756.668	995.82
756.852	993.78
757.036	971.25
757.22	948.72
757.404	944.63
757.588	956.91
757.772	909.81
757.956	862.71
758.14	1047.02
758.323	938.48
758.507	983.54
758.691	893.43
758.875	934.39
759.059	936.43
759.242	981.49
759.426	956.91
759.61	965.11
759.794	901.62
759.977	897.52
760.161	981.49
760.345	940.53
760.528	899.57
760.712	879.09
760.895	778.74
761.079	838.13
761.263	805.36
761.446	924.15
761.63	719.35
761.813	838.13
761.997	911.86
762.18	799.22
762.364	795.12
762.547	774.64
762.731	934.39
762.914	829.94
763.098	754.16
763.281	653.81
763.464	684.53
763.648	801.27
763.831	696.82
764.015	678.39
764.198	838.13
764.381	784.88
764.564	762.36
764.748	776.69
764.931	825.84
765.114	778.74
765.297	762.36
765.481	723.44
765.664	729.59
765.847	702.97
766.03	866.8
766.213	780.79
766.397	778.74
766.58	621.05
766.763	723.44
766.946	768.5
767.129	702.97
767.312	719.35
767.495	711.16
767.678	721.4
767.861	754.16
768.044	690.68
768.227	745.97
768.41	670.2
768.593	664.05
768.776	715.25
768.959	750.07
769.142	657.91
769.324	657.91
769.507	670.2
769.69	653.81
769.873	698.87
770.056	791.03
770.239	633.33
770.421	707.06
770.604	735.73
770.787	705.01
770.97	727.54
771.152	643.57
771.335	664.05
771.518	721.4
771.7	733.68
771.883	715.25
772.066	670.2
772.248	647.67
772.431	645.62
772.613	629.24
772.796	614.9
772.978	678.39
773.161	668.15
773.343	619
773.526	543.22
773.708	547.32
773.891	588.28
774.073	621.05
774.256	614.9
774.438	598.52
774.621	541.18
774.803	547.32
774.985	559.61
775.168	731.64
775.35	532.98
775.532	596.47
775.715	610.81
775.897	518.65
776.079	514.55
776.261	532.98
776.444	561.66
776.626	584.18
776.808	512.5
776.99	573.94
777.173	555.51
777.355	537.08
777.537	506.36
777.719	506.36
777.901	555.51
778.083	506.36
778.265	399.87
778.447	547.32
778.629	510.46
778.811	512.5
778.993	530.94
779.175	598.52
779.357	494.07
779.539	449.02
779.721	473.59
779.903	530.94
780.085	510.46
780.267	510.46
780.449	516.6
780.631	522.74
780.812	475.64
780.994	506.36
781.176	416.25
781.358	469.5
781.54	483.83
781.721	442.87
781.903	465.4
782.085	365.05
782.267	498.17
782.448	457.21
782.63	377.34
782.812	379.39
782.993	489.98
783.175	473.59
783.357	406.01
783.538	358.91
783.72	356.86
783.901	336.38
784.083	446.97
784.264	410.11
784.446	395.77
784.627	293.37
784.809	432.63
784.99	377.34
785.172	363
785.353	397.82
785.535	309.76
785.716	305.66
785.897	291.32
786.079	340.47
786.26	420.35
786.441	475.64
786.623	336.38
786.804	354.81
786.985	358.91
787.167	408.06
787.348	311.8
787.529	330.23
787.71	334.33
787.891	399.87
788.073	285.18
788.254	344.57
788.435	420.35
788.616	297.47
788.797	268.8
788.978	383.48
789.159	279.04
789.34	342.52
789.522	307.71
789.703	360.95
789.884	356.86
790.065	276.99
790.246	393.72
790.427	352.76
790.607	375.29
790.788	307.71
790.969	276.99
791.15	303.61
791.331	344.57
791.512	342.52
791.693	285.18
791.874	276.99
792.054	301.56
792.235	295.42
792.416	207.36
792.597	248.32
792.778	260.6
792.958	285.18
793.139	342.52
793.32	322.04
793.5	260.6
793.681	301.56
793.862	344.57
794.042	315.9
794.223	211.45
794.404	203.26
794.584	236.03
794.765	170.49
794.945	209.4
795.126	326.14
795.306	231.93
795.487	190.97
795.667	225.79
795.848	227.84
796.028	293.37
796.209	201.21
796.389	285.18
796.57	223.74
796.75	178.69
796.93	295.42
797.111	205.31
797.291	160.25
797.471	246.27
797.652	176.64
797.832	215.55
798.012	236.03
798.192	211.45
798.373	281.08
798.553	236.03
798.733	227.84
798.913	164.35
799.093	236.03
799.274	190.97
799.454	268.8
799.634	252.41
799.814	248.32
799.994	266.75
800.174	186.88
800.354	231.93
800.534	141.82
800.714	291.32
800.894	203.26
801.074	158.21
801.254	203.26
801.434	209.4
801.614	229.88
801.794	115.2
801.974	932.34
802.154	180.73
802.334	262.65
802.514	107.01
802.693	236.03
802.873	205.31
803.053	197.12
803.233	262.65
803.413	182.78
803.592	139.77
803.772	268.8
803.952	223.74
804.131	109.05
804.311	188.93
804.491	252.41
804.67	137.73
804.85	190.97
805.03	170.49
805.209	221.69
805.389	197.12
805.568	219.64
805.748	150.01
805.928	170.49
806.107	76.29
806.287	252.41
806.466	162.3
806.646	162.3
806.825	172.54
807.004	141.82
807.184	174.59
807.363	203.26
807.543	154.11
807.722	272.89
807.901	143.87
808.081	182.78
808.26	68.09
808.439	64
808.619	154.11
808.798	168.45
808.977	170.49
809.156	195.07
809.336	203.26
809.515	150.01
809.694	100.86
809.873	139.77
810.052	203.26
810.231	205.31
810.411	133.63
810.59	154.11
810.769	141.82
810.948	178.69
811.127	104.96
811.306	174.59
811.485	129.53
811.664	145.92
811.843	113.15
812.022	156.16
812.201	137.73
812.38	164.35
812.559	80.38
812.737	211.45
812.916	115.2
813.095	117.25
813.274	152.06
813.453	156.16
813.632	223.74
813.811	180.73
813.989	119.29
814.168	113.15
814.347	68.09
814.526	123.39
814.704	109.05
814.883	141.82
815.062	109.05
815.24	117.25
815.419	162.3
815.598	139.77
815.776	139.77
815.955	141.82
816.133	39.42
816.312	178.69
816.49	133.63
816.669	143.87
816.847	113.15
817.026	197.12
817.204	121.34
817.383	162.3
817.561	94.72
817.74	104.96
817.918	47.62
818.097	49.66
818.275	96.77
818.453	158.21
818.632	33.28
818.81	109.05
818.988	80.38
819.167	55.81
819.345	182.78
819.523	197.12
819.701	88.57
819.879	31.23
820.058	80.38
820.236	150.01
820.414	158.21
820.592	154.11
820.77	88.57
820.948	100.86
821.127	82.43
821.305	197.12
821.483	104.96
821.661	197.12
821.839	98.81
822.017	51.71
822.195	76.29
822.373	160.25
822.551	80.38
822.729	115.2
822.907	57.86
823.085	164.35
823.262	172.54
823.44	88.57
823.618	104.96
823.796	109.05
823.974	115.2
824.152	12.8
824.329	137.73
824.507	107.01
824.685	111.1
824.863	100.86
825.04	150.01
825.218	41.47
825.396	115.2
825.574	74.24
825.751	68.09
825.929	166.4
826.107	41.47
826.284	129.53
826.462	133.63
826.639	137.73
826.817	39.42
826.994	80.38
827.172	25.09
827.349	174.59
827.527	76.29
827.704	94.72
827.882	104.96
828.059	115.2
828.237	49.66
828.414	143.87
828.591	72.19
828.769	14.85
828.946	66.05
829.124	74.24
829.301	96.77
829.478	35.33
829.655	145.92
829.833	78.33
830.01	23.04
830.187	92.67
830.364	104.96
830.542	125.44
830.719	55.81
830.896	80.38
831.073	158.21
831.25	145.92
831.427	104.96
831.604	72.19
831.782	145.92
831.959	162.3
832.136	-19.97
832.313	104.96
832.49	35.33
832.667	104.96
832.844	55.81
833.021	123.39
833.198	25.09
833.374	104.96
833.551	98.81
833.728	47.62
833.905	109.05
834.082	96.77
834.259	115.2
834.436	115.2
834.612	96.77
834.789	82.43
834.966	117.25
835.143	117.25
835.319	84.48
835.496	80.38
835.673	117.25
835.85	133.63
836.026	78.33
836.203	164.35
836.38	6.66
836.556	100.86
836.733	66.05
836.909	90.62
837.086	66.05
837.262	47.62
837.439	88.57
837.616	20.99
837.792	72.19
837.968	68.09
838.145	39.42
838.321	74.24
838.498	0.51
838.674	39.42
838.851	33.28
839.027	72.19
839.203	137.73
839.38	39.42
839.556	27.14
839.732	84.48
839.909	64
840.085	88.57
840.261	43.52
840.437	6.66
840.614	64
840.79	31.23
840.966	18.94
841.142	129.53
841.318	39.42
841.494	33.28
841.671	96.77
841.847	25.09
842.023	61.95
842.199	55.81
842.375	35.33
842.551	8.7
842.727	27.14
842.903	90.62
843.079	25.09
843.255	107.01
843.431	23.04
843.607	123.39
843.783	92.67
843.959	72.19
844.134	72.19
844.31	121.34
844.486	23.04
844.662	0.51
844.838	74.24
845.013	84.48
845.189	57.86
845.365	90.62
845.541	39.42
845.716	-7.68
845.892	92.67
846.068	57.86
846.244	57.86
846.419	72.19
846.595	27.14
846.77	6.66
846.946	113.15
847.122	2.56
847.297	6.66
847.473	133.63
847.648	64
847.824	27.14
847.999	-26.11
848.175	115.2
848.35	74.24
848.526	92.67
848.701	31.23
848.876	104.96
849.052	12.8
849.227	55.81
849.403	0.51
849.578	72.19
849.753	8.7
849.929	64
850.104	-1.54
850.279	80.38
850.454	55.81
850.63	74.24
850.805	39.42
850.98	-15.87
851.155	-38.4
851.33	88.57
851.505	31.23
851.681	68.09
851.856	2.56
852.031	66.05
852.206	59.9
852.381	72.19
852.556	16.9
852.731	98.81
852.906	12.8
853.081	8.7
853.256	98.81
853.431	-17.92
853.606	20.99
853.781	18.94
853.956	61.95
854.131	31.23
854.305	57.86
854.48	45.57
854.655	41.47
854.83	-50.69
855.005	80.38
855.18	115.2
855.354	78.33
855.529	84.48
855.704	31.23
855.879	82.43
856.053	6.66
856.228	72.19
856.403	-32.26
856.577	80.38
856.752	39.42
856.926	18.94
857.101	-65.02
857.276	-28.16
857.45	47.62
857.625	123.39
857.799	49.66
857.974	61.95
858.148	-87.55
858.323	47.62
858.497	68.09
858.672	-62.98
858.846	70.14
859.02	64
859.195	-32.26
859.369	70.14
859.543	-11.78
859.718	45.57
859.892	100.86
860.066	41.47
860.241	-15.87
860.415	115.2
860.589	-1.54
860.763	31.23
860.938	55.81
861.112	31.23
861.286	59.9
861.46	72.19
861.634	53.76
861.808	2.56
861.982	8.7
862.157	31.23
862.331	-32.26
862.505	-13.82
862.679	-3.58
862.853	57.86
863.027	35.33
863.201	27.14
863.375	59.9
863.549	123.39
863.722	-5.63
863.896	47.62
864.07	14.85
864.244	49.66
864.418	33.28
864.592	23.04
864.766	72.19
864.939	100.86
865.113	-30.21
865.287	39.42
865.461	-7.68
865.634	14.85
865.808	33.28
865.982	76.29
866.156	14.85
866.329	72.19
866.503	-9.73
866.676	104.96
866.85	-7.68
867.024	80.38
867.197	123.39
867.371	76.29
867.544	25.09
867.718	49.66
867.891	41.47
868.065	-5.63
868.238	18.94
868.412	76.29
868.585	43.52
868.759	-7.68
868.932	41.47
869.105	31.23
869.279	-7.68
869.452	-26.11
869.625	31.23
869.799	33.28
869.972	-56.83
870.145	20.99
870.319	20.99
870.492	-15.87
870.665	29.18
870.838	-9.73
871.011	72.19
871.185	10.75
871.358	39.42
871.531	59.9
871.704	-1.54
871.877	39.42
872.05	18.94
872.223	14.85
872.396	39.42
872.569	-9.73
872.742	25.09
872.915	88.57
873.088	55.81
873.261	25.09
873.434	6.66
873.607	12.8
873.78	180.73
873.953	6.66
874.126	55.81
874.299	45.57
874.471	-9.73
874.644	47.62
874.817	35.33
874.99	10.75
875.163	-15.87
875.335	70.14
875.508	8.7
875.681	8.7
875.853	43.52
876.026	-9.73
876.199	53.76
876.371	35.33
876.544	-22.02
876.717	27.14
876.889	-13.82
877.062	39.42
877.234	-40.45
877.407	14.85
877.579	45.57
877.752	23.04
877.924	51.71
878.097	84.48
878.269	-34.3
878.442	104.96
878.614	-32.26
878.786	100.86
878.959	-11.78
879.131	47.62
879.303	-28.16
879.476	23.04
879.648	66.05
879.82	39.42
879.993	-34.3
880.165	49.66
880.337	51.71
880.509	-67.07
880.681	35.33
880.854	55.81
881.026	14.85
881.198	107.01
881.37	23.04
881.542	76.29
881.714	-7.68
881.886	23.04
882.058	23.04
882.23	23.04
882.402	-7.68
882.574	100.86
882.746	131.58
882.918	88.57
883.09	59.9
883.262	-30.21
883.434	23.04
883.606	-15.87
883.778	43.52
883.95	66.05
884.122	6.66
884.293	41.47
884.465	6.66
884.637	70.14
884.809	6.66
884.98	25.09
885.152	0.51
885.324	-5.63
885.496	18.94
885.667	-9.73
885.839	29.18
886.011	104.96
886.182	-36.35
886.354	8.7
886.525	18.94
886.697	23.04
886.869	-17.92
887.04	0.51
887.212	80.38
887.383	107.01
887.555	-3.58
887.726	31.23
887.897	23.04
888.069	43.52
888.24	0.51
888.412	14.85
888.583	49.66
888.754	41.47
888.926	-40.45
889.097	10.75
889.268	-56.83
889.44	-50.69
889.611	2.56
889.782	-13.82
889.953	-22.02
890.125	104.96
890.296	8.7
890.467	29.18
890.638	8.7
890.809	80.38
890.98	72.19
891.151	43.52
891.323	39.42
891.494	-13.82
891.665	29.18
891.836	10.75
892.007	27.14
892.178	37.38
892.349	0.51
892.52	-48.64
892.691	-5.63
892.862	-17.92
893.032	-3.58
893.203	-9.73
893.374	20.99
893.545	55.81
893.716	-50.69
893.887	10.75
894.057	-22.02
894.228	-7.68
894.399	55.81
894.57	27.14
894.74	12.8
894.911	33.28
895.082	49.66
895.253	64
895.423	6.66
895.594	33.28
895.764	31.23
895.935	-1.54
896.106	27.14
896.276	23.04
896.447	27.14
896.617	31.23
896.788	0.51
896.958	45.57
897.129	14.85
897.299	-34.3
897.47	25.09
897.64	33.28
897.81	31.23
897.981	47.62
898.151	-67.07
898.322	29.18
898.492	2.56
898.662	82.43
898.832	31.23
899.003	55.81
899.173	80.38
899.343	6.66
899.513	-5.63
