Data from USB4F104151__248__14-34-13-534.txt Node

Date: Thu Mar 13 14:34:13 EDT 2025
User: louis
Spectrometer: USB4F10415
Trigger mode: 4
Integration Time (sec): 2.500000E-2
Scans to average: 1
Electric dark correction enabled: true
Nonlinearity correction enabled: false
Boxcar width: 0
XAxis mode: Wavelengths
Number of Pixels in Spectrum: 3648
>>>>>Begin Spectral Data<<<<<
178.204	-221.35
178.424	-221.35
178.644	-221.35
178.864	-110.76
179.084	-147.62
179.304	28.5
179.524	-32.94
179.744	1.88
179.964	32.6
180.184	34.64
180.404	-34.99
180.624	18.26
180.844	8.02
181.064	-0.17
181.283	-32.94
181.503	-32.94
181.723	10.07
181.943	-53.42
182.163	81.75
182.383	-47.27
182.602	8.02
182.822	36.69
183.042	40.79
183.262	24.4
183.482	8.02
183.701	44.88
183.921	10.07
184.141	36.69
184.361	46.93
184.58	10.07
184.8	-8.36
185.02	-18.6
185.239	83.8
185.459	-18.6
185.679	-22.7
185.898	-71.85
186.118	44.88
186.338	-32.94
186.557	116.56
186.777	42.84
186.997	48.98
187.216	1.88
187.436	46.93
187.655	26.45
187.875	61.27
188.095	26.45
188.314	102.23
188.534	73.56
188.753	-61.61
188.973	1.88
189.192	61.27
189.412	-0.17
189.631	3.93
189.851	-0.17
190.07	44.88
190.29	40.79
190.509	48.98
190.729	-98.47
190.948	34.64
191.168	225.11
191.387	89.94
191.607	89.94
191.826	-53.42
192.045	16.21
192.265	10.07
192.484	-14.51
192.704	-32.94
192.923	-0.17
193.142	106.32
193.362	8.02
193.581	100.18
193.8	81.75
194.02	87.89
194.239	-24.75
194.458	34.64
194.678	16.21
194.897	44.88
195.116	12.12
195.335	65.36
195.555	40.79
195.774	-22.7
195.993	75.6
196.212	69.46
196.432	42.84
196.651	16.21
196.87	-20.65
197.089	89.94
197.308	-34.99
197.528	65.36
197.747	20.31
197.966	-20.65
198.185	8.02
198.404	16.21
198.623	110.42
198.842	28.5
199.062	57.17
199.281	110.42
199.5	24.4
199.719	-4.27
199.938	57.17
200.157	57.17
200.376	-24.75
200.595	-12.46
200.814	8.02
201.033	26.45
201.252	42.84
201.471	-28.84
201.69	73.56
201.909	-8.36
202.128	10.07
202.347	-6.31
202.566	-24.75
202.785	16.21
203.004	-32.94
203.223	83.8
203.442	61.27
203.661	16.21
203.879	-8.36
204.098	30.55
204.317	34.64
204.536	89.94
204.755	18.26
204.974	12.12
205.193	24.4
205.411	83.8
205.63	8.02
205.849	-37.03
206.068	28.5
206.287	-39.08
206.505	63.32
206.724	34.64
206.943	-12.46
207.162	53.08
207.381	48.98
207.599	46.93
207.818	51.03
208.037	57.17
208.255	32.6
208.474	8.02
208.693	89.94
208.911	3.93
209.13	-6.31
209.349	22.36
209.567	-39.08
209.786	32.6
210.005	94.04
210.223	22.36
210.442	53.08
210.661	51.03
210.879	22.36
211.098	71.51
211.316	46.93
211.535	73.56
211.753	42.84
211.972	44.88
212.191	-16.55
212.409	-16.55
212.628	34.64
212.846	-69.8
213.065	69.46
213.283	120.66
213.502	55.12
213.72	30.55
213.938	10.07
214.157	-6.31
214.375	-0.17
214.594	-18.6
214.812	100.18
215.031	34.64
215.249	-37.03
215.467	71.51
215.686	20.31
215.904	48.98
216.122	10.07
216.341	57.17
216.559	-14.51
216.778	65.36
216.996	59.22
217.214	-37.03
217.432	-51.37
217.651	-55.47
217.869	-14.51
218.087	-8.36
218.306	5.97
218.524	-20.65
218.742	18.26
218.96	89.94
219.179	3.93
219.397	42.84
219.615	130.9
219.833	-37.03
220.051	-32.94
220.27	42.84
220.488	36.69
220.706	32.6
220.924	8.02
221.142	8.02
221.36	18.26
221.578	44.88
221.796	32.6
222.015	61.27
222.233	73.56
222.451	53.08
222.669	-30.89
222.887	48.98
223.105	-65.71
223.323	-10.41
223.541	-41.13
223.759	63.32
223.977	-2.22
224.195	126.8
224.413	-65.71
224.631	-41.13
224.849	8.02
225.067	130.9
225.285	-63.66
225.503	1.88
225.721	-47.27
225.939	-32.94
226.157	-12.46
226.375	124.76
226.592	-16.55
226.81	3.93
227.028	77.65
227.246	130.9
227.464	-0.17
227.682	10.07
227.9	-30.89
228.117	24.4
228.335	57.17
228.553	-57.51
228.771	40.79
228.989	24.4
229.206	5.97
229.424	-37.03
229.642	65.36
229.86	20.31
230.077	16.21
230.295	40.79
230.513	24.4
230.731	73.56
230.948	69.46
231.166	87.89
231.384	-16.55
231.601	40.79
231.819	28.5
232.037	-39.08
232.254	-41.13
232.472	-14.51
232.689	24.4
232.907	10.07
233.125	-0.17
233.342	-16.55
233.56	-112.81
233.777	16.21
233.995	55.12
234.213	65.36
234.43	-2.22
234.648	65.36
234.865	46.93
235.083	46.93
235.3	51.03
235.518	44.88
235.735	48.98
235.953	75.6
236.17	53.08
236.388	24.4
236.605	96.08
236.822	85.84
237.04	-45.23
237.257	24.4
237.475	18.26
237.692	57.17
237.909	-37.03
238.127	85.84
238.344	24.4
238.562	53.08
238.779	-8.36
238.996	-32.94
239.214	-28.84
239.431	48.98
239.648	16.21
239.865	57.17
240.083	10.07
240.3	-6.31
240.517	-24.75
240.735	-8.36
240.952	36.69
241.169	3.93
241.386	48.98
241.603	38.74
241.821	-14.51
242.038	48.98
242.255	32.6
242.472	-0.17
242.689	-32.94
242.907	106.32
243.124	26.45
243.341	-41.13
243.558	-45.23
243.775	-8.36
243.992	-28.84
244.209	51.03
244.426	94.04
244.643	53.08
244.86	44.88
245.078	36.69
245.295	16.21
245.512	14.17
245.729	-43.18
245.946	89.94
246.163	-6.31
246.38	26.45
246.597	-0.17
246.814	42.84
247.031	-0.17
247.248	16.21
247.464	3.93
247.681	16.21
247.898	18.26
248.115	34.64
248.332	48.98
248.549	59.22
248.766	75.6
248.983	-24.75
249.2	24.4
249.417	110.42
249.633	10.07
249.85	38.74
250.067	20.31
250.284	106.32
250.501	44.88
250.717	51.03
250.934	-73.9
251.151	83.8
251.368	28.5
251.585	48.98
251.801	-22.7
252.018	-0.17
252.235	122.71
252.451	-32.94
252.668	67.41
252.885	83.8
253.102	40.79
253.318	-28.84
253.535	59.22
253.752	51.03
253.968	-0.17
254.185	-18.6
254.401	20.31
254.618	59.22
254.835	10.07
255.051	143.19
255.268	40.79
255.484	73.56
255.701	77.65
255.917	-49.32
256.134	-8.36
256.351	10.07
256.567	36.69
256.784	83.8
257	-47.27
257.217	102.23
257.433	20.31
257.65	83.8
257.866	-32.94
258.082	8.02
258.299	16.21
258.515	-18.6
258.732	81.75
258.948	-39.08
259.165	118.61
259.381	-47.27
259.597	65.36
259.814	-0.17
260.03	104.28
260.246	3.93
260.463	67.41
260.679	16.21
260.895	28.5
261.112	81.75
261.328	5.97
261.544	-6.31
261.761	102.23
261.977	-39.08
262.193	-34.99
262.409	44.88
262.626	18.26
262.842	114.52
263.058	12.12
263.274	-12.46
263.49	61.27
263.707	139.09
263.923	57.17
264.139	-6.31
264.355	65.36
264.571	73.56
264.787	81.75
265.004	67.41
265.22	53.08
265.436	-4.27
265.652	40.79
265.868	73.56
266.084	-24.75
266.3	65.36
266.516	-47.27
266.732	36.69
266.948	-0.17
267.164	57.17
267.38	28.5
267.596	51.03
267.812	8.02
268.028	-8.36
268.244	48.98
268.46	-18.6
268.676	51.03
268.892	-39.08
269.108	-32.94
269.324	26.45
269.54	-6.31
269.756	130.9
269.972	12.12
270.188	12.12
270.403	-4.27
270.619	32.6
270.835	-41.13
271.051	12.12
271.267	3.93
271.483	32.6
271.698	83.8
271.914	51.03
272.13	36.69
272.346	-57.51
272.562	44.88
272.777	32.6
272.993	22.36
273.209	48.98
273.425	12.12
273.64	-49.32
273.856	63.32
274.072	10.07
274.287	77.65
274.503	-6.31
274.719	20.31
274.934	32.6
275.15	-41.13
275.366	40.79
275.581	-20.65
275.797	-28.84
276.012	98.13
276.228	16.21
276.444	-2.22
276.659	98.13
276.875	-0.17
277.09	-45.23
277.306	108.37
277.521	77.65
277.737	-8.36
277.952	61.27
278.168	-0.17
278.383	22.36
278.599	-4.27
278.814	73.56
279.03	-26.79
279.245	-16.55
279.461	24.4
279.676	-8.36
279.892	-20.65
280.107	24.4
280.322	48.98
280.538	94.04
280.753	14.17
280.969	26.45
281.184	-20.65
281.399	8.02
281.615	53.08
281.83	18.26
282.045	30.55
282.26	-14.51
282.476	-71.85
282.691	32.6
282.906	98.13
283.122	38.74
283.337	61.27
283.552	-0.17
283.767	-6.31
283.983	-41.13
284.198	3.93
284.413	40.79
284.628	-8.36
284.843	-22.7
285.058	24.4
285.274	10.07
285.489	28.5
285.704	114.52
285.919	42.84
286.134	-4.27
286.349	75.6
286.564	22.36
286.779	24.4
286.995	65.36
287.21	24.4
287.425	36.69
287.64	51.03
287.855	73.56
288.07	-22.7
288.285	20.31
288.5	57.17
288.715	81.75
288.93	22.36
289.145	59.22
289.36	73.56
289.575	30.55
289.79	8.02
290.004	-12.46
290.219	42.84
290.434	-24.75
290.649	28.5
290.864	-20.65
291.079	10.07
291.294	44.88
291.509	-14.51
291.724	48.98
291.938	5.97
292.153	57.17
292.368	102.23
292.583	3.93
292.798	32.6
293.012	65.36
293.227	28.5
293.442	32.6
293.657	98.13
293.871	48.98
294.086	24.4
294.301	61.27
294.516	-12.46
294.73	81.75
294.945	61.27
295.16	48.98
295.374	102.23
295.589	61.27
295.804	32.6
296.018	-0.17
296.233	24.4
296.447	40.79
296.662	8.02
296.877	55.12
297.091	40.79
297.306	28.5
297.52	46.93
297.735	-4.27
297.949	-24.75
298.164	32.6
298.378	8.02
298.593	-12.46
298.807	14.17
299.022	102.23
299.236	114.52
299.451	18.26
299.665	30.55
299.88	-14.51
300.094	71.51
300.309	-49.32
300.523	-24.75
300.737	48.98
300.952	59.22
301.166	46.93
301.381	73.56
301.595	-47.27
301.809	-49.32
302.024	12.12
302.238	18.26
302.452	44.88
302.667	8.02
302.881	24.4
303.095	-8.36
303.309	67.41
303.524	-57.51
303.738	8.02
303.952	24.4
304.166	100.18
304.381	-24.75
304.595	69.46
304.809	-30.89
305.023	59.22
305.237	44.88
305.452	-57.51
305.666	89.94
305.88	34.64
306.094	16.21
306.308	51.03
306.522	26.45
306.736	67.41
306.95	67.41
307.164	24.4
307.379	89.94
307.593	83.8
307.807	67.41
308.021	51.03
308.235	73.56
308.449	-0.17
308.663	-37.03
308.877	98.13
309.091	53.08
309.305	67.41
309.519	3.93
309.733	53.08
309.947	57.17
310.161	-22.7
310.374	32.6
310.588	36.69
310.802	-8.36
311.016	-4.27
311.23	36.69
311.444	1.88
311.658	-45.23
311.872	16.21
312.085	57.17
312.299	94.04
312.513	73.56
312.727	18.26
312.941	89.94
313.154	48.98
313.368	16.21
313.582	16.21
313.796	40.79
314.009	34.64
314.223	110.42
314.437	79.7
314.651	57.17
314.864	-8.36
315.078	48.98
315.292	67.41
315.505	16.21
315.719	8.02
315.933	44.88
316.146	40.79
316.36	-32.94
316.573	46.93
316.787	14.17
317.001	8.02
317.214	-24.75
317.428	8.02
317.641	16.21
317.855	36.69
318.068	40.79
318.282	-24.75
318.495	59.22
318.709	40.79
318.922	30.55
319.136	38.74
319.349	81.75
319.563	36.69
319.776	48.98
319.99	-16.55
320.203	85.84
320.417	32.6
320.63	5.97
320.843	79.7
321.057	-12.46
321.27	57.17
321.483	42.84
321.697	87.89
321.91	-4.27
322.124	1.88
322.337	71.51
322.55	28.5
322.763	24.4
322.977	40.79
323.19	1.88
323.403	-0.17
323.617	-20.65
323.83	12.12
324.043	28.5
324.256	46.93
324.469	-37.03
324.683	51.03
324.896	42.84
325.109	89.94
325.322	18.26
325.535	61.27
325.748	44.88
325.962	10.07
326.175	16.21
326.388	32.6
326.601	108.37
326.814	-8.36
327.027	94.04
327.24	38.74
327.453	-57.51
327.666	-14.51
327.879	28.5
328.092	-57.51
328.305	-24.75
328.518	81.75
328.731	61.27
328.944	1.88
329.157	-30.89
329.37	81.75
329.583	116.56
329.796	114.52
330.009	10.07
330.222	-4.27
330.435	-4.27
330.648	73.56
330.861	20.31
331.073	34.64
331.286	28.5
331.499	28.5
331.712	-51.37
331.925	61.27
332.138	1.88
332.35	77.65
332.563	-61.61
332.776	-8.36
332.989	-0.17
333.202	36.69
333.414	-12.46
333.627	65.36
333.84	34.64
334.053	69.46
334.265	55.12
334.478	36.69
334.691	40.79
334.903	42.84
335.116	18.26
335.329	36.69
335.541	40.79
335.754	65.36
335.966	40.79
336.179	42.84
336.392	-2.22
336.604	16.21
336.817	18.26
337.029	106.32
337.242	26.45
337.454	34.64
337.667	24.4
337.88	16.21
338.092	65.36
338.305	51.03
338.517	48.98
338.729	83.8
338.942	8.02
339.154	28.5
339.367	-0.17
339.579	98.13
339.792	-24.75
340.004	-8.36
340.217	5.97
340.429	51.03
340.641	-26.79
340.854	65.36
341.066	-4.27
341.278	42.84
341.491	106.32
341.703	81.75
341.915	-8.36
342.128	34.64
342.34	16.21
342.552	14.17
342.764	42.84
342.977	40.79
343.189	12.12
343.401	36.69
343.613	8.02
343.826	10.07
344.038	-39.08
344.25	57.17
344.462	44.88
344.674	30.55
344.886	48.98
345.099	51.03
345.311	-49.32
345.523	8.02
345.735	32.6
345.947	8.02
346.159	-30.89
346.371	40.79
346.583	10.07
346.795	73.56
347.007	55.12
347.219	32.6
347.431	12.12
347.643	44.88
347.855	24.4
348.067	81.75
348.279	48.98
348.491	16.21
348.703	57.17
348.915	26.45
349.127	-8.36
349.339	36.69
349.551	-0.17
349.763	61.27
349.975	36.69
350.187	71.51
350.399	75.6
350.61	81.75
350.822	-2.22
351.034	36.69
351.246	-57.51
351.458	48.98
351.669	10.07
351.881	83.8
352.093	122.71
352.305	94.04
352.517	20.31
352.728	71.51
352.94	40.79
353.152	-18.6
353.363	1.88
353.575	57.17
353.787	61.27
353.999	-8.36
354.21	130.9
354.422	48.98
354.633	34.64
354.845	-49.32
355.057	16.21
355.268	-16.55
355.48	34.64
355.692	53.08
355.903	106.32
356.115	-6.31
356.326	40.79
356.538	24.4
356.749	18.26
356.961	110.42
357.172	75.6
357.384	40.79
357.595	122.71
357.807	77.65
358.018	71.51
358.23	32.6
358.441	75.6
358.653	114.52
358.864	24.4
359.075	69.46
359.287	139.09
359.498	51.03
359.709	106.32
359.921	-16.55
360.132	8.02
360.344	26.45
360.555	-37.03
360.766	-20.65
360.977	-24.75
361.189	91.99
361.4	16.21
361.611	44.88
361.823	8.02
362.034	73.56
362.245	36.69
362.456	67.41
362.667	69.46
362.879	26.45
363.09	14.17
363.301	48.98
363.512	26.45
363.723	30.55
363.935	16.21
364.146	48.98
364.357	24.4
364.568	51.03
364.779	-8.36
364.99	69.46
365.201	-37.03
365.412	122.71
365.623	1.88
365.834	51.03
366.045	102.23
366.256	65.36
366.467	89.94
366.678	32.6
366.889	53.08
367.1	110.42
367.311	40.79
367.522	26.45
367.733	77.65
367.944	83.8
368.155	-28.84
368.366	77.65
368.577	65.36
368.788	57.17
368.999	16.21
369.209	51.03
369.42	135
369.631	114.52
369.842	75.6
370.053	12.12
370.264	61.27
370.474	-41.13
370.685	44.88
370.896	34.64
371.107	151.38
371.317	51.03
371.528	108.37
371.739	65.36
371.95	42.84
372.16	8.02
372.371	38.74
372.582	98.13
372.792	67.41
373.003	73.56
373.214	42.84
373.424	89.94
373.635	16.21
373.846	91.99
374.056	48.98
374.267	14.17
374.477	28.5
374.688	34.64
374.898	51.03
375.109	36.69
375.319	102.23
375.53	65.36
375.74	44.88
375.951	59.22
376.161	-2.22
376.372	122.71
376.582	32.6
376.793	57.17
377.003	-49.32
377.214	57.17
377.424	18.26
377.635	-8.36
377.845	26.45
378.055	44.88
378.266	57.17
378.476	71.51
378.686	28.5
378.897	94.04
379.107	48.98
379.317	100.18
379.528	53.08
379.738	77.65
379.948	16.21
380.158	57.17
380.369	59.22
380.579	73.56
380.789	8.02
380.999	98.13
381.21	48.98
381.42	96.08
381.63	24.4
381.84	122.71
382.05	51.03
382.261	51.03
382.471	65.36
382.681	67.41
382.891	89.94
383.101	8.02
383.311	20.31
383.521	42.84
383.731	73.56
383.941	85.84
384.151	26.45
384.361	77.65
384.571	46.93
384.781	18.26
384.991	114.52
385.201	106.32
385.411	81.75
385.621	91.99
385.831	28.5
386.041	36.69
386.251	48.98
386.461	51.03
386.671	118.61
386.881	116.56
387.091	-20.65
387.301	98.13
387.511	61.27
387.72	44.88
387.93	28.5
388.14	48.98
388.35	36.69
388.56	-34.99
388.769	106.32
388.979	89.94
389.189	12.12
389.399	1.88
389.609	98.13
389.818	135
390.028	-12.46
390.238	89.94
390.447	106.32
390.657	171.86
390.867	10.07
391.076	83.8
391.286	98.13
391.496	-32.94
391.705	53.08
391.915	73.56
392.125	130.9
392.334	81.75
392.544	10.07
392.753	65.36
392.963	-24.75
393.172	57.17
393.382	24.4
393.591	163.67
393.801	104.28
394.01	139.09
394.22	67.41
394.429	34.64
394.639	34.64
394.848	85.84
395.058	106.32
395.267	96.08
395.477	22.36
395.686	104.28
395.895	59.22
396.105	106.32
396.314	40.79
396.524	67.41
396.733	157.52
396.942	91.99
397.152	67.41
397.361	143.19
397.57	98.13
397.78	57.17
397.989	42.84
398.198	114.52
398.407	108.37
398.617	98.13
398.826	48.98
399.035	67.41
399.244	122.71
399.453	106.32
399.663	91.99
399.872	91.99
400.081	100.18
400.29	81.75
400.499	135
400.708	81.75
400.917	153.43
401.127	96.08
401.336	116.56
401.545	167.76
401.754	143.19
401.963	102.23
402.172	73.56
402.381	69.46
402.59	116.56
402.799	114.52
403.008	77.65
403.217	122.71
403.426	163.67
403.635	65.36
403.844	184.15
404.053	147.28
404.262	104.28
404.471	173.91
404.68	188.24
404.888	114.52
405.097	155.47
405.306	178
405.515	196.43
405.724	188.24
405.933	229.2
406.142	255.83
406.35	247.63
406.559	182.1
406.768	182.1
406.977	216.91
407.185	272.21
407.394	284.5
407.603	171.86
407.812	249.68
408.02	253.78
408.229	360.27
408.438	247.63
408.646	294.74
408.855	286.54
409.064	290.64
409.272	214.87
409.481	333.65
409.69	266.07
409.898	247.63
410.107	411.47
410.315	343.89
410.524	335.7
410.733	401.23
410.941	368.46
411.15	374.61
411.358	427.85
411.567	483.15
411.775	413.52
411.984	444.24
412.192	483.15
412.401	493.39
412.609	565.07
412.818	585.55
413.026	438.09
413.234	560.97
413.443	630.6
413.651	575.31
413.86	593.74
414.068	728.91
414.276	769.87
414.485	737.1
414.693	710.47
414.901	823.11
415.11	802.63
415.318	737.1
415.526	796.49
415.734	958.28
415.943	870.22
416.151	986.95
416.359	986.95
416.567	943.94
416.776	984.9
416.984	1144.64
417.192	1054.53
417.4	1095.49
417.608	1015.62
417.817	1105.73
418.025	1228.61
418.233	1318.72
418.441	1240.9
418.649	1367.87
418.857	1304.39
419.065	1484.61
419.273	1343.3
419.481	1523.52
419.689	1627.96
419.897	1716.03
420.105	1738.55
420.313	1752.89
420.521	1845.05
420.729	1896.25
420.937	1898.3
421.145	1972.02
421.353	2094.9
421.561	2109.24
421.769	2225.97
421.977	2262.83
422.185	2238.26
422.393	2391.86
422.601	2572.08
422.809	2551.6
423.017	2719.53
423.224	2641.71
423.432	2826.03
423.64	2858.79
423.848	3092.26
424.056	3088.17
424.263	3198.76
424.471	3256.1
424.679	3358.5
424.887	3491.62
425.094	3579.68
425.302	3497.76
425.51	3772.19
425.718	3833.63
425.925	3841.82
426.133	4157.21
426.341	4300.56
426.548	4372.24
426.756	4341.52
426.964	4497.17
427.171	4755.21
427.379	4718.35
427.586	4914.95
427.794	5129.99
428.001	5279.49
428.209	5574.4
428.417	5426.95
428.624	5801.72
428.832	5832.44
429.039	5834.49
429.247	5830.4
429.454	6291.19
429.662	6678.26
429.869	6326
430.076	6772.46
430.284	6768.37
430.491	6799.09
430.699	7177.96
430.906	7171.82
431.114	7423.72
431.321	7782.11
431.528	7739.1
431.736	8292.05
431.943	8586.96
432.15	8363.73
432.358	8482.52
432.565	9096.91
432.772	8969.93
432.979	9477.83
433.187	9731.78
433.394	9602.75
433.601	10340.02
433.808	10159.8
434.016	10315.45
434.223	10735.28
434.43	11243.18
434.637	11071.15
434.844	11757.22
435.052	11742.88
435.259	11673.25
435.466	11787.94
435.673	11919.01
435.88	12490.39
436.087	13053.58
436.294	13227.66
436.501	12986
436.708	13045.39
436.915	13532.81
437.122	14175.87
437.329	14374.52
437.537	14667.38
437.743	14884.47
437.95	14859.89
438.157	15545.96
438.364	16096.86
438.571	16031.33
438.778	16201.31
438.985	17563.21
439.192	16768.6
439.399	17256.01
439.606	17143.38
439.813	17960.52
440.02	18802.23
440.227	18646.58
440.433	18294.33
440.64	19074.61
440.847	18865.72
441.054	19430.96
441.261	20653.59
441.467	20557.34
441.674	21106.2
441.881	21820.94
442.088	21610
442.294	21360.14
442.501	21687.82
442.708	22060.55
442.914	23438.83
443.121	24319.46
443.328	23416.3
443.534	25120.21
443.741	24706.52
443.948	24008.17
444.154	25761.23
444.361	25710.03
444.568	25988.55
444.774	25910.73
444.981	26430.91
445.187	26723.77
445.394	28132.78
445.6	27725.23
445.807	30731.65
446.013	28874.14
446.22	29758.86
446.426	30905.73
446.633	30913.92
446.839	31997.29
447.046	30741.89
447.252	32449.89
447.459	32984.41
447.665	32089.45
447.871	33635.67
448.078	35061.05
448.284	33819.99
448.491	34321.74
448.697	35585.33
448.903	36490.54
449.11	36078.89
449.316	35870
449.522	36547.88
449.728	37700.89
449.935	37995.79
450.141	38151.44
450.347	38409.48
450.553	37414.17
450.76	37627.16
450.966	38980.87
451.172	38728.97
451.378	39671.03
451.584	38882.56
451.791	39912.69
451.997	39648.5
452.203	40492.27
452.409	40467.69
452.615	40027.38
452.821	38249.74
453.027	38137.1
453.233	40029.43
453.44	38343.95
453.646	38839.56
453.852	39208.19
454.058	40015.09
454.264	39046.4
454.47	39103.74
454.676	38499.59
454.882	39648.5
455.088	36261.16
455.294	37000.48
455.5	37350.68
455.705	37618.97
455.911	36556.07
456.117	35779.89
456.323	35315
456.529	33129.82
456.735	34821.44
456.941	34012.49
457.147	33461.59
457.352	32208.23
457.558	32048.49
457.764	32277.86
457.97	31274.36
458.176	30709.12
458.381	30635.39
458.587	29183.38
458.793	29603.22
458.999	27801.01
459.204	29597.07
459.41	28720.54
459.616	26645.95
459.821	26856.89
460.027	26824.12
460.233	26197.45
460.438	24747.48
460.644	25312.72
460.85	24012.26
461.055	23569.9
461.261	23553.52
461.466	21796.36
461.672	21136.91
461.878	22681.08
462.083	21071.38
462.289	20710.94
462.494	20479.52
462.7	19766.82
462.905	19121.71
463.111	19484.2
463.316	19936.81
463.522	19267.12
463.727	19512.88
463.932	19248.69
464.138	19013.17
464.343	19387.95
464.549	18558.52
464.754	19228.21
464.959	18927.16
465.165	18693.69
465.37	17925.7
465.575	17444.43
465.781	18267.71
465.986	18148.93
466.191	17978.95
466.397	17210.96
466.602	16369.24
466.807	16825.94
467.012	17149.52
467.218	16877.14
467.423	16723.54
467.628	16703.06
467.833	17440.33
468.038	16701.01
468.244	16309.85
468.449	16662.1
468.654	16268.89
468.859	16227.93
469.064	16125.54
469.269	15699.56
469.474	15566.44
469.679	15957.6
469.885	15509.1
470.09	15724.13
470.295	15369.83
470.5	15101.55
470.705	15488.62
470.91	14986.86
471.115	14730.87
471.32	15048.3
471.525	14831.22
471.73	14753.4
471.935	14429.82
472.139	13856.39
472.344	14169.73
472.549	14104.19
472.754	13772.42
472.959	13532.81
473.164	13305.48
473.369	13004.43
473.574	13700.74
473.778	13512.33
473.983	13242
474.188	13338.25
474.393	12725.91
474.598	12904.08
474.802	12795.54
475.007	12598.93
475.212	12760.72
475.417	11943.58
475.621	12025.5
475.826	12074.65
476.031	11849.38
476.235	11878.05
476.44	11865.76
476.645	11720.35
476.849	11654.82
477.054	11443.88
477.259	11366.06
477.463	11116.2
477.668	11001.52
477.872	11142.83
478.077	11124.4
478.282	10706.61
478.486	10722.99
478.691	10532.53
478.895	10579.64
479.1	10501.81
479.304	10522.29
479.509	10167.99
479.713	10305.21
479.918	9942.72
480.122	10190.52
480.326	10118.84
480.531	10018.49
480.735	9961.15
480.94	9871.04
481.144	10184.38
481.348	9680.58
481.553	9893.57
481.757	9598.66
481.961	9715.39
482.166	9821.89
482.37	9703.11
482.574	9533.12
482.778	9520.84
482.983	9744.06
483.187	9723.58
483.391	10032.83
483.595	9549.51
483.8	9406.15
484.004	9510.6
484.208	9807.55
484.412	9813.7
484.616	9567.94
484.821	9551.56
485.025	9455.3
485.229	9707.2
485.433	9678.53
485.637	9576.13
485.841	9610.95
486.045	9637.57
486.249	9502.4
486.453	9576.13
486.657	9367.24
486.861	9666.24
487.065	9293.51
487.269	9359.05
487.473	9258.7
487.677	9563.84
487.881	9559.75
488.085	9586.37
488.289	9645.76
488.493	9629.38
488.697	9651.91
488.901	9676.48
489.105	9737.92
489.309	9604.8
489.512	9694.91
489.716	9725.63
489.92	9658.05
490.124	9375.43
490.328	9742.02
490.531	9559.75
490.735	9776.83
490.939	9756.35
491.143	9752.26
491.346	9713.35
491.55	9805.5
491.754	9909.95
491.958	9772.74
492.161	9901.76
492.365	9832.13
492.569	9858.75
492.772	9883.33
492.976	9854.65
493.18	10034.88
493.383	10225.34
493.587	10102.46
493.79	10217.15
493.994	10012.35
494.197	10165.95
494.401	10206.91
494.605	10299.06
494.808	10522.29
495.012	10491.57
495.215	10477.24
495.419	10610.36
495.622	10716.85
495.825	10780.34
496.029	10634.93
496.232	10952.37
496.436	10909.36
496.639	11255.47
496.843	10923.69
497.046	11196.07
497.249	11255.47
497.453	11331.24
497.656	11427.49
497.859	11550.37
498.063	11787.94
498.266	11767.46
498.469	11740.83
498.673	11656.87
498.876	11849.38
499.079	12308.12
499.282	12246.68
499.485	12431
499.689	12539.54
499.892	12885.65
500.095	12742.29
500.298	13014.67
500.501	12648.08
500.705	13117.07
500.908	13350.54
501.111	13340.3
501.314	13475.46
501.517	13917.82
501.72	13780.61
501.923	13631.11
502.126	14093.95
502.329	14540.41
502.532	14241.4
502.735	14483.06
502.938	14712.44
503.141	14765.68
503.344	14954.1
503.547	14880.37
503.75	15277.68
503.953	15580.78
504.156	15662.69
504.359	15754.85
504.562	15883.87
504.765	16272.99
504.968	16361.05
505.17	16373.34
505.373	16375.39
505.576	16447.07
505.779	16733.78
505.982	17040.98
506.185	17077.84
506.387	16850.52
506.59	17317.45
506.793	17831.49
506.996	17759.81
507.198	18134.59
507.401	17903.17
507.604	18226.75
507.807	18794.04
508.009	18746.94
508.212	18650.68
508.415	19035.7
508.617	19220.02
508.82	19365.42
509.022	19414.57
509.225	19803.69
509.428	19938.85
509.63	20014.63
509.833	20301.34
510.035	20876.82
510.238	20481.56
510.44	20745.75
510.643	21087.76
510.845	21038.61
511.048	21310.99
511.25	21573.13
511.453	21442.06
511.655	22468.09
511.858	22103.56
512.06	22429.18
512.262	22621.69
512.465	22650.36
512.667	23148.02
512.87	23162.36
513.072	23215.6
513.274	23756.27
513.477	23991.78
513.679	24036.84
513.881	24135.14
514.084	24425.95
514.286	24579.55
514.488	24917.47
514.69	25490.9
514.893	25423.31
515.095	25650.64
515.297	25726.41
515.499	26041.8
515.701	26365.38
515.904	26281.41
516.106	26852.8
516.308	26979.77
516.51	27139.51
516.712	27278.77
516.914	27518.39
517.116	27823.53
517.318	28149.16
517.52	27819.44
517.722	28214.69
517.925	28362.15
518.127	28822.94
518.329	29076.89
518.531	28962.2
518.733	29441.43
518.935	29765.01
519.136	29492.63
519.338	29994.38
519.54	29975.95
519.742	30373.25
519.944	30504.32
520.146	30860.67
520.348	31188.35
520.55	31698.29
520.752	31174.01
520.954	31645.04
521.155	31329.66
521.357	31827.31
521.559	32152.94
521.761	32619.88
521.963	32396.65
522.164	32802.14
522.366	33062.24
522.568	33115.48
522.77	33066.33
522.971	33486.17
523.173	33469.78
523.375	33527.13
523.576	33637.72
523.778	33404.25
523.98	33887.57
524.181	34028.88
524.383	33836.37
524.584	34276.68
524.786	34237.77
524.988	34116.94
525.189	34516.29
525.391	34886.98
525.592	34868.55
525.794	34575.69
525.995	34571.59
526.197	34751.81
526.398	35065.15
526.6	35407.16
526.801	35110.21
527.003	34878.79
527.204	34905.41
527.406	35423.54
527.607	35099.97
527.808	35452.22
528.01	35384.63
528.211	34839.87
528.412	36107.57
528.614	35401.02
528.815	35214.65
529.016	36105.52
529.218	35011.9
529.419	35358.01
529.62	35765.56
529.822	35466.55
530.023	35480.89
530.224	35525.94
530.425	35845.43
530.626	34876.74
530.828	35462.46
531.029	36033.84
531.23	35147.07
531.431	35427.64
531.632	35241.28
531.833	35134.78
532.035	35255.61
532.236	35091.77
532.437	35425.59
532.638	34934.08
532.839	35280.19
533.04	34944.32
533.241	34854.21
533.442	35513.66
533.643	35194.17
533.844	35130.69
534.045	35423.54
534.246	34667.84
534.447	34913.6
534.648	34688.32
534.849	34565.45
535.05	34553.16
535.251	34944.32
535.451	34874.69
535.652	34731.33
535.853	34786.63
536.054	34385.22
536.255	34260.3
536.456	34372.94
536.657	34657.6
536.857	34348.36
537.058	34065.74
537.259	34506.05
537.46	34235.72
537.66	34221.39
537.861	34377.03
538.062	34233.67
538.263	33895.76
538.463	33918.29
538.664	33918.29
538.865	33934.67
539.065	33867.09
539.266	33805.65
539.466	33994.06
539.667	33408.34
539.868	34303.31
540.068	33912.14
540.269	34030.93
540.469	33822.03
540.67	33717.59
540.87	33725.78
541.071	33361.24
541.271	33752.4
541.472	33617.24
541.672	33426.78
541.873	33473.88
542.073	33254.75
542.274	33764.69
542.474	33629.52
542.675	33477.97
542.875	33469.78
543.075	33156.44
543.276	32572.77
543.476	33666.39
543.676	33099.1
543.877	33281.37
544.077	33434.97
544.277	33156.44
544.478	33312.09
544.678	33518.93
544.878	33314.14
545.078	33224.03
545.279	33056.09
545.479	33199.45
545.679	32914.78
545.879	33121.63
546.079	33281.37
546.28	33158.49
546.48	33097.05
546.68	33140.06
546.88	33273.18
547.08	33076.57
547.28	33152.35
547.48	32996.7
547.68	33097.05
547.88	32695.65
548.081	33054.04
548.281	32916.83
548.481	33232.22
548.681	33029.47
548.881	33213.79
549.081	33058.14
549.28	33230.17
549.48	33221.98
549.68	33027.42
549.88	33711.44
550.08	33264.99
550.28	33609.04
550.48	32884.06
550.68	33389.91
550.88	32892.26
551.08	33469.78
551.279	33541.46
551.479	32927.07
551.679	33424.73
551.879	33271.13
552.079	33676.63
552.278	33248.6
552.478	33504.6
552.678	33467.73
552.878	33631.57
553.077	33637.72
553.277	33264.99
553.477	33482.07
553.676	33502.55
553.876	33822.03
554.076	33230.17
554.275	33705.3
554.475	33336.66
554.674	33514.84
554.874	33529.17
555.074	33555.8
555.273	33981.77
555.473	33893.71
555.672	33607
555.872	33588.56
556.071	33779.03
556.271	33852.75
556.47	33598.8
556.67	33580.37
556.869	33740.11
557.068	33807.7
557.268	33748.31
557.467	33447.25
557.667	33598.8
557.866	33729.87
558.065	33801.55
558.265	34055.5
558.464	33660.24
558.663	33742.16
558.863	33592.66
559.062	34360.65
559.261	33961.3
559.461	34377.03
559.66	33891.66
559.859	33838.42
560.058	33828.18
560.258	34444.62
560.457	33596.76
560.656	34385.22
560.855	33869.14
561.054	33944.91
561.253	33598.8
561.453	34186.57
561.652	33926.48
561.851	34012.49
562.05	33895.76
562.249	33862.99
562.448	33860.94
562.647	33846.61
562.846	33719.63
563.045	34094.41
563.244	33365.34
563.443	34149.71
563.642	33647.96
563.841	33828.18
564.04	33746.26
564.239	33840.46
564.438	33596.76
564.637	33742.16
564.836	33760.59
565.035	33375.58
565.234	33537.37
565.432	33318.23
565.631	33533.27
565.83	33652.05
566.029	33420.63
566.228	33391.96
566.427	32839.01
566.625	33054.04
566.824	32732.51
567.023	32707.94
567.222	32699.75
567.42	33256.79
567.619	33164.64
567.818	32712.03
568.016	32806.24
568.215	33074.52
568.414	32986.46
568.612	32904.54
568.811	32869.73
569.01	32445.8
569.208	32615.78
569.407	32793.95
569.605	32447.85
569.804	32447.85
570.002	31927.66
570.201	32204.14
570.4	31964.53
570.598	31919.47
570.797	31985.01
570.995	31925.61
571.193	31862.13
571.392	31737.2
571.59	31720.82
571.789	31528.31
571.987	31456.63
572.186	31477.11
572.384	31329.66
572.582	31380.85
572.781	31378.81
572.979	30721.41
573.177	30989.69
573.376	31294.84
573.574	30836.09
573.772	31102.33
573.971	30616.96
574.169	30092.68
574.367	30565.76
574.565	30723.46
574.763	30332.29
574.962	30217.61
575.16	30051.72
575.358	30010.76
575.556	29848.97
575.754	30131.59
575.952	29726.1
576.151	29873.55
576.349	29459.86
576.547	29640.08
576.745	29658.51
576.943	29848.97
577.141	29517.2
577.339	29734.29
577.537	29578.64
577.735	29154.71
577.933	29117.85
578.131	29035.93
578.329	29230.49
578.527	28624.29
578.725	28945.82
578.923	28769.69
579.121	28796.32
579.319	28349.86
579.516	28589.47
579.714	28566.95
579.912	28167.59
580.11	28646.82
580.308	28192.17
580.506	28407.2
580.704	27526.58
580.901	27901.36
581.099	28226.98
581.297	28249.51
581.495	27801.01
581.692	27602.35
581.89	27430.32
582.088	27848.11
582.285	27555.25
582.483	27518.39
582.681	27241.91
582.878	27364.79
583.076	26965.43
583.274	27465.14
583.471	26779.07
583.669	26889.66
583.866	26652.09
584.064	27112.89
584.262	26361.28
584.459	27190.71
584.657	26373.57
584.854	26611.14
585.052	26136.01
585.249	26394.05
585.447	26736.06
585.644	26023.37
585.841	26404.29
586.039	26494.4
586.236	26103.24
586.434	25920.97
586.631	26150.34
586.828	25884.11
587.026	25947.59
587.223	25658.83
587.42	25697.74
587.618	25730.51
587.815	25650.64
588.012	25361.87
588.21	25421.27
588.407	25828.81
588.604	25630.16
588.801	25372.11
588.999	25271.76
589.196	25232.85
589.393	25134.55
589.59	25007.58
589.787	25310.68
589.984	25136.6
590.182	24751.58
590.379	25355.73
590.576	25034.2
590.773	24950.23
590.97	24903.13
591.167	24939.99
591.364	24655.33
591.561	24882.65
591.758	24530.4
591.955	25019.86
592.152	25023.96
592.349	24516.06
592.546	24391.14
592.743	24681.95
592.94	24313.31
593.137	24227.3
593.334	24921.56
593.531	24104.42
593.727	24534.49
593.924	24440.29
594.121	23989.74
594.318	24356.32
594.515	23922.15
594.712	24477.15
594.908	23997.93
595.105	24253.92
595.302	23936.49
595.499	24077.8
595.696	24155.62
595.892	23944.68
596.089	24391.14
596.286	24141.28
596.482	24102.37
596.679	23938.54
596.876	23903.72
597.072	23948.78
597.269	23844.33
597.466	23846.38
597.662	23875.05
597.859	23920.1
598.055	23973.35
598.252	23789.03
598.448	23817.71
598.645	23721.45
598.841	23805.42
599.038	23780.84
599.234	23864.81
599.431	23660.01
599.627	23649.77
599.824	24108.52
600.02	23737.84
600.217	23952.87
600.413	23905.77
600.609	23846.38
600.806	23786.99
601.002	23995.88
601.198	23447.02
601.395	23617
601.591	23813.61
601.787	24028.65
601.984	23551.47
602.18	23952.87
602.376	23590.38
602.572	23764.46
602.769	23903.72
602.965	23903.72
603.161	24114.66
603.357	23743.98
603.553	23809.51
603.75	23819.75
603.946	23660.01
604.142	24172
604.338	23891.43
604.534	24075.75
604.73	24149.48
604.926	23793.13
605.122	24270.31
605.318	23815.66
605.514	23879.14
605.71	23977.45
605.906	23965.16
606.102	24229.35
606.298	24217.06
606.494	24055.27
606.69	24382.95
606.886	24473.06
607.082	24073.7
607.278	24544.73
607.474	24024.55
607.67	24507.87
607.866	24118.76
608.062	24597.98
608.257	24194.53
608.453	24407.52
608.649	24495.58
608.845	24413.66
609.041	24575.45
609.236	24739.29
609.432	24770.01
609.628	24708.57
609.824	24690.14
610.019	24681.95
610.215	24847.83
610.411	24774.11
610.606	24659.42
610.802	24917.47
610.998	24929.75
611.193	24923.61
611.389	24708.57
611.584	25071.06
611.78	24765.92
611.976	24948.18
612.171	25028.06
612.367	25204.18
612.562	24825.31
612.758	24808.92
612.953	24792.54
613.149	25380.31
613.344	25175.51
613.539	25515.47
613.735	25236.95
613.93	25144.79
614.126	24976.86
614.321	25318.87
614.517	25011.67
614.712	25097.69
614.907	25245.14
615.103	25560.53
615.298	24939.99
615.493	25388.5
615.688	24952.28
615.884	25329.11
616.079	24923.61
616.274	25466.32
616.47	25228.76
616.665	25304.53
616.86	24987.1
617.055	25181.65
617.25	25130.45
617.445	25202.13
617.641	24784.35
617.836	25386.45
618.031	24497.63
618.226	25341.39
618.421	25015.77
618.616	24946.14
618.811	24788.44
619.006	25114.07
619.201	24501.73
619.396	24739.29
619.591	24360.42
619.786	24890.84
619.981	24448.48
620.176	24856.03
620.371	24530.4
620.566	24391.14
620.761	24487.39
620.956	24376.8
621.151	24184.29
621.346	24401.38
621.541	23887.34
621.735	24096.23
621.93	23596.53
622.125	24073.7
622.32	23567.85
622.515	23645.68
622.709	23629.29
622.904	23533.04
623.099	23207.41
623.294	23438.83
623.488	23059.96
623.683	23215.6
623.878	22818.3
624.072	23178.74
624.267	22943.22
624.462	22650.36
624.656	22736.38
624.851	22650.36
625.046	22486.53
625.24	22435.33
625.435	22472.19
625.629	22138.37
625.824	21988.87
626.018	22191.62
626.213	21448.21
626.407	21743.11
626.602	21612.04
626.796	21689.87
626.991	21397.01
627.185	21499.41
627.38	21239.31
627.574	21149.2
627.768	21001.75
627.963	20991.51
628.157	20698.65
628.352	21038.61
628.546	20323.87
628.74	20762.14
628.935	20561.44
629.129	20291.1
629.323	20340.25
629.517	20387.36
629.712	19951.14
629.906	19983.91
630.1	19721.77
630.294	19748.39
630.489	19813.93
630.683	19797.54
630.877	19447.34
631.071	19398.19
631.265	19279.41
631.459	19295.79
631.653	18990.64
631.848	19017.27
632.042	18794.04
632.236	18902.58
632.43	18785.85
632.624	18863.67
632.818	18503.23
633.012	18155.07
633.206	18458.17
633.4	18523.71
633.594	17903.17
633.788	18351.68
633.982	18099.78
634.176	17948.23
634.369	17827.4
634.563	17835.59
634.757	17745.48
634.951	17843.78
635.145	17757.77
635.339	17264.21
635.533	17395.28
635.726	17438.28
635.92	17110.61
636.114	17188.43
636.308	16815.7
636.501	17053.27
636.695	17239.63
636.889	16983.63
637.083	16899.67
637.276	16565.85
637.47	16436.83
637.664	16316
637.857	16287.32
638.051	16328.28
638.244	16189.02
638.438	16129.63
638.632	15879.78
638.825	15789.67
639.019	15947.36
639.212	15566.44
639.406	15711.85
639.599	15572.58
639.793	15523.43
639.986	15089.26
640.18	15242.86
640.373	15375.98
640.567	15081.07
640.76	15255.15
640.954	15064.69
641.147	15017.58
641.34	14810.74
641.534	14761.59
641.727	14829.17
641.92	14632.57
642.114	14634.61
642.307	14343.8
642.5	14536.31
642.694	14159.49
642.887	14141.05
643.08	14225.02
643.273	13983.36
643.467	13932.16
643.66	13858.43
643.853	13874.82
644.046	13520.52
644.239	13571.72
644.432	13553.29
644.626	13135.5
644.819	13497.99
645.012	13319.82
645.205	13319.82
645.398	13061.77
645.591	13049.49
645.784	13053.58
645.977	12738.19
646.17	12766.87
646.363	12768.91
646.556	12570.26
646.749	12650.13
646.942	12492.44
647.135	12418.71
647.328	12166.81
647.521	12543.64
647.714	12347.03
647.907	12232.35
648.099	11964.06
648.292	12082.84
648.485	11941.54
648.678	11665.06
648.871	11755.17
649.064	11835.04
649.256	11642.53
649.449	11695.78
649.642	11591.33
649.835	11443.88
650.027	11486.89
650.22	11316.9
650.413	11081.39
650.605	11085.48
650.798	11366.06
650.991	11118.25
651.183	11030.19
651.376	10813.1
651.568	10792.62
651.761	10667.7
651.954	10833.58
652.146	10829.49
652.339	10610.36
652.531	10704.56
652.724	10518.2
652.916	10520.24
653.109	10448.57
653.301	10473.14
653.494	10471.09
653.686	10088.12
653.879	10528.44
654.071	10133.18
654.263	9795.26
654.456	10122.94
654.648	10151.61
654.84	9944.77
655.033	9739.97
655.225	9977.53
655.417	9961.15
655.61	9692.87
655.802	9801.41
655.994	9449.16
656.186	9742.02
656.379	9651.91
656.571	9481.92
656.763	9301.7
656.955	9387.72
657.148	9275.08
657.34	9350.85
657.532	9295.56
657.724	9105.1
657.916	9309.9
658.108	9051.85
658.3	9006.8
658.492	9051.85
658.684	9101
658.876	8992.46
659.068	8808.14
659.26	8640.21
659.452	8732.37
659.644	8636.11
659.836	8560.34
660.028	8601.3
660.22	8326.87
660.412	8490.71
660.604	8478.42
660.796	8431.32
660.988	8464.08
661.18	8208.09
661.372	8410.84
661.563	8132.31
661.755	8074.97
661.947	8273.62
662.139	7966.43
662.331	7997.15
662.522	8079.07
662.714	7837.41
662.906	7870.17
663.097	7823.07
663.289	7663.33
663.481	7618.27
663.673	7585.51
663.864	7560.93
664.056	7470.82
664.247	7511.78
664.439	7454.44
664.631	7581.41
664.822	7462.63
665.014	7438.05
665.205	7436
665.397	7210.73
665.588	7354.09
665.78	7130.86
665.971	7184.1
666.163	7216.87
666.354	7126.76
666.546	7063.27
666.737	7055.08
666.929	7069.42
667.12	6971.11
667.311	6977.26
667.503	6866.67
667.694	6766.32
667.885	6670.06
668.077	6780.65
668.268	6702.83
668.459	6754.03
668.651	6651.63
668.842	6764.27
669.033	6647.54
669.224	6565.62
669.416	6610.67
669.607	6524.66
669.798	6489.84
669.989	6586.1
670.18	6455.03
670.371	6356.72
670.563	6395.64
670.754	6491.89
670.945	6270.71
671.136	6385.4
671.327	6291.19
671.518	6360.82
671.709	6307.57
671.9	6489.84
672.091	6225.65
672.282	6209.27
672.473	6160.12
672.664	6088.44
672.855	5971.71
673.046	6139.64
673.237	6164.22
673.428	6088.44
673.619	5983.99
673.809	5969.66
674	5904.12
674.191	5932.79
674.382	5857.02
674.573	5947.13
674.764	5897.98
674.954	5940.99
675.145	5873.4
675.336	5709.57
675.527	5738.24
675.717	5697.28
675.908	5717.76
676.099	5801.72
676.289	5674.75
676.48	5744.38
676.671	5777.15
676.861	5832.44
677.052	5799.68
677.243	5570.3
677.433	5629.7
677.624	5654.27
677.814	5465.86
678.005	5547.78
678.195	5625.6
678.386	5693.18
678.576	5564.16
678.767	5488.39
678.957	5584.64
679.148	5533.44
679.338	5496.58
679.529	5414.66
679.719	5498.63
679.909	5541.63
680.1	5435.14
680.29	5476.1
680.481	5381.89
680.671	5523.2
680.861	5476.1
681.052	5420.8
681.242	5381.89
681.432	5451.52
681.622	5361.41
681.813	5168.9
682.003	5275.4
682.193	5353.22
682.383	5265.16
682.573	5398.27
682.764	5357.32
682.954	5254.92
683.144	5304.07
683.334	5271.3
683.524	5275.4
683.714	5347.08
683.904	5347.08
684.094	5336.84
684.284	5261.06
684.474	5332.74
684.664	5195.53
684.854	5154.57
685.044	5220.1
685.234	5119.75
685.424	5195.53
685.614	5091.08
685.804	5138.18
685.994	5222.15
686.184	4943.63
686.374	5003.02
686.564	5144.33
686.753	5164.81
686.943	4931.34
687.133	5041.93
687.323	5003.02
687.513	4955.91
687.702	4890.38
687.892	4865.8
688.082	4933.39
688.272	4994.83
688.461	4939.53
688.651	5076.74
688.841	4792.08
689.03	4730.64
689.22	4804.36
689.41	4785.93
689.599	4732.69
689.789	4925.19
689.979	4894.47
690.168	4833.04
690.358	4826.89
690.547	4767.5
690.737	4747.02
690.926	4851.47
691.116	4622.09
691.305	4740.88
691.495	4687.63
691.684	4669.2
691.874	4783.88
692.063	4679.44
692.252	4671.25
692.442	4671.25
692.631	4501.26
692.82	4493.07
693.01	4579.09
693.199	4525.84
693.388	4531.98
693.578	4497.17
693.767	4460.31
693.956	4499.22
694.146	4501.26
694.335	4458.26
694.524	4425.49
694.713	4417.3
694.902	4480.78
695.092	4415.25
695.281	4331.28
695.47	4550.42
695.659	4312.85
695.848	4292.37
696.037	4374.29
696.226	4388.63
696.415	4341.52
696.604	4312.85
696.793	4218.64
696.982	4284.18
697.171	4284.18
697.36	4362
697.549	4230.93
697.738	4333.33
697.927	4288.28
698.116	4321.04
698.305	4222.74
698.494	4247.32
698.683	4243.22
698.872	4259.6
699.061	4120.34
699.25	4112.15
699.438	4181.78
699.627	4325.14
699.816	4122.39
700.005	4161.3
700.193	4120.34
700.382	4075.29
700.571	4099.86
700.76	4212.5
700.948	4179.73
701.137	4063
701.326	4091.67
701.514	3989.27
701.703	4134.68
701.892	4022.04
702.08	4048.66
702.269	3954.46
702.457	3948.31
702.646	4011.8
702.834	3913.5
703.023	4005.66
703.212	4019.99
703.4	3925.79
703.589	3899.16
703.777	3946.27
703.965	3878.68
704.154	3923.74
704.342	3895.07
704.531	3749.66
704.719	3856.15
704.907	3942.17
705.096	3725.08
705.284	3882.78
705.472	3882.78
705.661	3745.56
705.849	3718.94
706.037	3804.96
706.226	3784.48
706.414	3704.6
706.602	3735.32
706.79	3704.6
706.979	3704.6
707.167	3858.2
707.355	3579.68
707.543	3716.89
707.731	3575.58
707.919	3618.59
708.107	3620.64
708.296	3624.73
708.484	3430.18
708.672	3637.02
708.86	3632.93
709.048	3604.25
709.236	3557.15
709.424	3585.82
709.612	3516.19
709.8	3501.86
709.988	3530.53
710.176	3395.36
710.364	3565.34
710.551	3587.87
710.739	3475.23
710.927	3503.9
711.115	3428.13
711.303	3505.95
711.491	3471.14
711.679	3424.03
711.866	3483.42
712.054	3501.86
712.242	3323.68
712.43	3385.12
712.617	3409.7
712.805	3217.19
712.993	3354.4
713.181	3383.07
713.368	3432.22
713.556	3405.6
713.744	3333.92
713.931	3338.02
714.119	3368.74
714.306	3239.72
714.494	3301.15
714.682	3292.96
714.869	3249.96
715.057	3280.68
715.244	3241.76
715.432	3202.85
715.619	3213.09
715.807	3227.43
715.994	3338.02
716.182	3381.03
716.369	3137.32
716.556	3147.56
716.744	3225.38
716.931	3104.55
717.119	3221.28
717.306	3153.7
717.493	3010.34
717.681	3118.89
717.868	3106.6
718.055	3151.65
718.242	3096.36
718.43	3108.65
718.617	3047.21
718.804	2983.72
718.991	3000.1
719.179	2981.67
719.366	2961.19
719.553	3096.36
719.74	3108.65
719.927	3039.01
720.114	3020.58
720.301	2891.56
720.488	2916.14
720.676	2881.32
720.863	3006.25
721.05	2985.77
721.237	2973.48
721.424	2991.91
721.611	3032.87
721.798	2846.51
721.985	2834.22
722.172	2852.65
722.358	2889.51
722.545	2961.19
722.732	2883.37
722.919	2924.33
723.106	2836.27
723.293	2907.94
723.48	2828.07
723.667	2920.23
723.853	2826.03
724.04	2850.6
724.227	2893.61
724.414	2772.78
724.6	2699.05
724.787	2869.03
724.974	2754.35
725.161	2846.51
725.347	2682.67
725.534	2772.78
725.72	2793.26
725.907	2764.59
726.094	2645.8
726.28	2735.92
726.467	2678.57
726.653	2703.15
726.84	2713.39
727.027	2754.35
727.213	2654
727.4	2697
727.586	2604.85
727.773	2678.57
727.959	2664.24
728.145	2639.66
728.332	2580.27
728.518	2559.79
728.705	2707.24
728.891	2641.71
729.077	2549.55
729.264	2744.11
729.45	2672.43
729.636	2580.27
729.823	2459.44
730.009	2619.18
730.195	2756.4
730.382	2725.68
730.568	2580.27
730.754	2469.68
730.94	2481.97
731.126	2670.38
731.313	2445.1
731.499	2481.97
731.685	2490.16
731.871	2715.44
732.057	2506.54
732.243	2582.32
732.429	2451.25
732.615	2514.73
732.801	2465.58
732.987	2398
733.173	2563.89
733.359	2522.93
733.545	2352.95
733.731	2432.82
733.917	2369.33
734.103	2453.3
734.289	2416.43
734.475	2354.99
734.661	2559.79
734.847	2402.1
735.033	2400.05
735.219	2428.72
735.404	2338.61
735.59	2400.05
735.776	2314.03
735.962	2305.84
736.148	2438.96
736.333	2449.2
736.519	2281.27
736.705	2252.59
736.89	2361.14
737.076	2395.95
737.262	2178.87
737.447	2232.12
737.633	2252.59
737.819	2314.03
738.004	2207.54
738.19	2277.17
738.375	2252.59
738.561	2264.88
738.747	2189.11
738.932	2219.83
739.118	2318.13
739.303	2336.56
739.489	2318.13
739.674	2133.81
739.859	2228.02
740.045	2244.4
740.23	2123.57
740.416	2154.29
740.601	2121.52
740.786	2201.4
740.972	2156.34
741.157	2121.52
741.342	2049.85
741.528	2078.52
741.713	2262.83
741.898	2115.38
742.084	2197.3
742.269	2037.56
742.454	2133.81
742.639	2142
742.824	2021.17
743.01	2002.74
743.195	2064.18
743.38	1896.25
743.565	1949.5
743.75	2006.84
743.935	2072.37
744.12	1900.34
744.305	1984.31
744.49	1836.86
744.675	1926.97
744.86	1879.86
745.045	2010.93
745.23	1957.69
745.415	1924.92
745.6	1976.12
745.785	1924.92
745.97	1945.4
746.155	1752.89
746.34	1941.3
746.525	1791.8
746.71	1892.15
746.895	1838.91
747.079	1808.19
747.264	1802.04
747.449	1783.61
747.634	1816.38
747.819	1777.47
748.003	1789.75
748.188	1707.84
748.373	1867.58
748.557	1726.27
748.742	1783.61
748.927	1711.93
749.111	1662.78
749.296	1609.53
749.481	1687.36
749.665	1609.53
749.85	1836.86
750.034	1701.69
750.219	1703.74
750.404	1548.09
750.588	1662.78
750.773	1613.63
750.957	1605.44
751.141	1539.9
751.326	1574.72
751.51	1513.28
751.695	1589.05
751.879	1617.72
752.064	1683.26
752.248	1492.8
752.432	1525.57
752.617	1613.63
752.801	1531.71
752.985	1519.42
753.17	1503.04
753.354	1498.94
753.538	1460.03
753.722	1376.06
753.907	1515.33
754.091	1394.5
754.275	1460.03
754.459	1316.67
754.643	1357.63
754.828	1419.07
755.012	1365.82
755.196	1384.26
755.38	1388.35
755.564	1326.91
755.748	1314.63
755.932	1447.74
756.116	1337.15
756.3	1253.19
756.484	1189.7
756.668	1285.95
756.852	1156.93
757.036	1201.99
757.22	1314.63
757.404	1228.61
757.588	1212.23
757.772	1212.23
757.956	1214.27
758.14	1298.24
758.323	1138.5
758.507	1220.42
758.691	1212.23
758.875	1232.71
759.059	1304.39
759.242	1181.51
759.426	1091.4
759.61	1107.78
759.794	1171.27
759.977	1134.4
760.161	1210.18
760.345	1140.55
760.528	1036.1
760.712	1208.13
760.895	1122.12
761.079	1130.31
761.263	1060.68
761.446	1068.87
761.63	1052.49
761.813	1150.79
761.997	1038.15
762.18	1044.29
762.364	1152.84
762.547	962.37
762.731	1025.86
762.914	1034.05
763.098	1011.53
763.281	1040.2
763.464	1085.25
763.648	1060.68
763.831	1056.58
764.015	945.99
764.198	1042.25
764.381	933.7
764.564	950.09
764.748	931.66
764.931	1023.81
765.114	958.28
765.297	999.24
765.481	1015.62
765.664	943.94
765.847	980.81
766.03	966.47
766.213	954.18
766.397	943.94
766.58	915.27
766.763	900.94
766.946	884.55
767.129	896.84
767.312	862.02
767.495	905.03
767.678	962.37
767.861	892.74
768.044	888.65
768.227	989
768.41	900.94
768.593	995.14
768.776	864.07
768.959	857.93
769.142	886.6
769.324	878.41
769.507	782.15
769.69	857.93
769.873	937.8
770.056	974.66
770.239	862.02
770.421	892.74
770.604	808.78
770.787	880.46
770.97	859.98
771.152	819.02
771.335	814.92
771.518	771.91
771.7	917.32
771.883	814.92
772.066	845.64
772.248	847.69
772.431	796.49
772.613	862.02
772.796	769.87
772.978	954.18
773.161	794.44
773.343	741.19
773.526	796.49
773.708	780.11
773.891	765.77
774.073	741.19
774.256	669.52
774.438	737.1
774.621	739.15
774.803	747.34
774.985	638.8
775.168	851.78
775.35	667.47
775.532	806.73
775.715	679.75
775.897	671.56
776.079	661.32
776.261	778.06
776.444	745.29
776.626	642.89
776.808	630.6
776.99	556.88
777.173	706.38
777.355	663.37
777.537	722.76
777.719	610.12
777.901	696.14
778.083	618.32
778.265	651.08
778.447	657.23
778.629	642.89
778.811	597.84
778.993	708.43
779.175	665.42
779.357	636.75
779.539	528.21
779.721	634.7
779.903	667.47
780.085	585.55
780.267	606.03
780.449	536.4
780.631	624.46
780.812	575.31
780.994	524.11
781.176	591.69
781.358	556.88
781.54	575.31
781.721	534.35
781.903	532.3
782.085	536.4
782.267	655.18
782.448	509.77
782.63	558.92
782.812	540.49
782.993	540.49
783.175	487.25
783.357	507.73
783.538	522.06
783.72	470.86
783.901	597.84
784.083	544.59
784.264	491.34
784.446	503.63
784.627	393.04
784.809	436.05
784.99	450.38
785.172	419.66
785.353	462.67
785.535	501.58
785.716	417.61
785.897	487.25
786.079	503.63
786.26	466.77
786.441	450.38
786.623	352.08
786.804	440.14
786.985	390.99
787.167	409.42
787.348	356.18
787.529	419.66
787.71	454.48
787.891	401.23
788.073	427.85
788.254	405.33
788.435	378.7
788.616	366.42
788.797	395.09
788.978	456.53
789.159	384.85
789.34	339.79
789.522	364.37
789.703	376.66
789.884	384.85
790.065	321.36
790.246	425.81
790.427	382.8
790.607	386.9
790.788	339.79
790.969	370.51
791.15	360.27
791.331	368.46
791.512	343.89
791.693	384.85
791.874	298.83
792.054	454.48
792.235	384.85
792.416	282.45
792.597	339.79
792.778	298.83
792.958	327.5
793.139	298.83
793.32	311.12
793.5	313.17
793.681	339.79
793.862	327.5
794.042	245.59
794.223	319.31
794.404	366.42
794.584	315.22
794.765	356.18
794.945	347.98
795.126	294.74
795.306	352.08
795.487	307.02
795.667	239.44
795.848	347.98
796.028	331.6
796.209	255.83
796.389	290.64
796.57	212.82
796.75	255.83
796.93	292.69
797.111	249.68
797.291	245.59
797.471	237.39
797.652	253.78
797.832	218.96
798.012	253.78
798.192	321.36
798.373	237.39
798.553	214.87
798.733	280.4
798.913	237.39
799.093	223.06
799.274	274.26
799.454	175.95
799.634	284.5
799.814	233.3
799.994	264.02
800.174	235.35
800.354	253.78
800.534	294.74
800.714	216.91
800.894	188.24
801.074	261.97
801.254	272.21
801.434	239.44
801.614	255.83
801.794	157.52
801.974	1040.2
802.154	122.71
802.334	237.39
802.514	137.04
802.693	208.72
802.873	212.82
803.053	247.63
803.233	165.71
803.413	261.97
803.592	204.63
803.772	223.06
803.952	221.01
804.131	180.05
804.311	227.15
804.491	247.63
804.67	206.67
804.85	139.09
805.03	247.63
805.209	214.87
805.389	192.34
805.568	190.29
805.748	190.29
805.928	221.01
806.107	210.77
806.287	282.45
806.466	270.16
806.646	155.47
806.825	173.91
807.004	132.95
807.184	247.63
807.363	218.96
807.543	206.67
807.722	165.71
807.901	266.07
808.081	270.16
808.26	118.61
808.439	163.67
808.619	180.05
808.798	165.71
808.977	212.82
809.156	210.77
809.336	98.13
809.515	165.71
809.694	145.24
809.873	139.09
810.052	159.57
810.231	223.06
810.411	190.29
810.59	110.42
810.769	128.85
810.948	151.38
811.127	155.47
811.306	126.8
811.485	120.66
811.664	182.1
811.843	98.13
812.022	118.61
812.201	137.04
812.38	173.91
812.559	126.8
812.737	124.76
812.916	116.56
813.095	112.47
813.274	102.23
813.453	149.33
813.632	137.04
813.811	159.57
813.989	141.14
814.168	120.66
814.347	151.38
814.526	132.95
814.704	153.43
814.883	188.24
815.062	32.6
815.24	188.24
815.419	180.05
815.598	139.09
815.776	59.22
815.955	130.9
816.133	108.37
816.312	153.43
816.49	157.52
816.669	114.52
816.847	83.8
817.026	202.58
817.204	110.42
817.383	145.24
817.561	73.56
817.74	147.28
817.918	173.91
818.097	98.13
818.275	77.65
818.453	91.99
818.632	165.71
818.81	130.9
818.988	67.41
819.167	85.84
819.345	128.85
819.523	89.94
819.701	75.6
819.879	192.34
820.058	141.14
820.236	163.67
820.414	122.71
820.592	102.23
820.77	87.89
820.948	108.37
821.127	87.89
821.305	139.09
821.483	122.71
821.661	122.71
821.839	130.9
822.017	116.56
822.195	102.23
822.373	180.05
822.551	130.9
822.729	81.75
822.907	147.28
823.085	141.14
823.262	77.65
823.44	89.94
823.618	118.61
823.796	130.9
823.974	40.79
824.152	102.23
824.329	40.79
824.507	73.56
824.685	163.67
824.863	85.84
825.04	81.75
825.218	75.6
825.396	100.18
825.574	128.85
825.751	100.18
825.929	69.46
826.107	61.27
826.284	108.37
826.462	42.84
826.639	73.56
826.817	85.84
826.994	106.32
827.172	89.94
827.349	135
827.527	75.6
827.704	100.18
827.882	132.95
828.059	48.98
828.237	48.98
828.414	65.36
828.591	61.27
828.769	65.36
828.946	42.84
829.124	139.09
829.301	46.93
829.478	83.8
829.655	44.88
829.833	130.9
830.01	-14.51
830.187	114.52
830.364	73.56
830.542	77.65
830.719	73.56
830.896	48.98
831.073	-0.17
831.25	116.56
831.427	83.8
831.604	59.22
831.782	44.88
831.959	67.41
832.136	65.36
832.313	102.23
832.49	59.22
832.667	73.56
832.844	108.37
833.021	26.45
833.198	116.56
833.374	-8.36
833.551	16.21
833.728	34.64
833.905	81.75
834.082	32.6
834.259	155.47
834.436	48.98
834.612	16.21
834.789	57.17
834.966	102.23
835.143	89.94
835.319	-24.75
835.496	36.69
835.673	61.27
835.85	87.89
836.026	53.08
836.203	89.94
836.38	-16.55
836.556	26.45
836.733	22.36
836.909	89.94
837.086	48.98
837.262	89.94
837.439	-6.31
837.616	24.4
837.792	53.08
837.968	65.36
838.145	-0.17
838.321	65.36
838.498	63.32
838.674	69.46
838.851	100.18
839.027	44.88
839.203	100.18
839.38	48.98
839.556	57.17
839.732	5.97
839.909	32.6
840.085	110.42
840.261	-16.55
840.437	8.02
840.614	18.26
840.79	32.6
840.966	57.17
841.142	38.74
841.318	28.5
841.494	40.79
841.671	61.27
841.847	100.18
842.023	40.79
842.199	61.27
842.375	149.33
842.551	-4.27
842.727	-26.79
842.903	126.8
843.079	-49.32
843.255	65.36
843.431	83.8
843.607	55.12
843.783	48.98
843.959	98.13
844.134	-14.51
844.31	98.13
844.486	10.07
844.662	73.56
844.838	26.45
845.013	83.8
845.189	122.71
845.365	73.56
845.541	32.6
845.716	100.18
845.892	69.46
846.068	16.21
846.244	-65.71
846.419	-12.46
846.595	-26.79
846.77	51.03
846.946	32.6
847.122	-0.17
847.297	104.28
847.473	100.18
847.648	-8.36
847.824	81.75
847.999	-16.55
848.175	18.26
848.35	61.27
848.526	91.99
848.701	75.6
848.876	48.98
849.052	48.98
849.227	114.52
849.403	-45.23
849.578	48.98
849.753	36.69
849.929	65.36
850.104	-22.7
850.279	-47.27
850.454	73.56
850.63	59.22
850.805	-0.17
850.98	-0.17
851.155	28.5
851.33	85.84
851.505	32.6
851.681	46.93
851.856	-57.51
852.031	-0.17
852.206	139.09
852.381	-45.23
852.556	-6.31
852.731	42.84
852.906	18.26
853.081	-6.31
853.256	124.76
853.431	10.07
853.606	1.88
853.781	32.6
853.956	-41.13
854.131	-6.31
854.305	-0.17
854.48	44.88
854.655	-4.27
854.83	-41.13
855.005	28.5
855.18	32.6
855.354	40.79
855.529	32.6
855.704	20.31
855.879	57.17
856.053	-51.37
856.228	-41.13
856.403	-28.84
856.577	18.26
856.752	-2.22
856.926	122.71
857.101	-2.22
857.276	32.6
857.45	57.17
857.625	73.56
857.799	26.45
857.974	65.36
858.148	-8.36
858.323	28.5
858.497	3.93
858.672	-12.46
858.846	24.4
859.02	75.6
859.195	3.93
859.369	40.79
859.543	69.46
859.718	-8.36
859.892	40.79
860.066	-45.23
860.241	40.79
860.415	-8.36
860.589	51.03
860.763	-24.75
860.938	28.5
861.112	40.79
861.286	-16.55
861.46	20.31
861.634	30.55
861.808	75.6
861.982	57.17
862.157	18.26
862.331	-18.6
862.505	-8.36
862.679	-41.13
862.853	-16.55
863.027	28.5
863.201	83.8
863.375	-41.13
863.549	122.71
863.722	-4.27
863.896	48.98
864.07	-104.62
864.244	-6.31
864.418	83.8
864.592	36.69
864.766	10.07
864.939	-16.55
865.113	-88.23
865.287	24.4
865.461	-30.89
865.634	20.31
865.808	22.36
865.982	-24.75
866.156	28.5
866.329	-16.55
866.503	32.6
866.676	-0.17
866.85	-34.99
867.024	42.84
867.197	48.98
867.371	57.17
867.544	130.9
867.718	12.12
867.891	24.4
868.065	-45.23
868.238	73.56
868.412	81.75
868.585	42.84
868.759	-6.31
868.932	-14.51
869.105	-69.8
869.279	16.21
869.452	-32.94
869.625	-77.99
869.799	-30.89
869.972	-80.04
870.145	-4.27
870.319	61.27
870.492	-0.17
870.665	3.93
870.838	-24.75
871.011	-4.27
871.185	53.08
871.358	-8.36
871.531	-20.65
871.704	65.36
871.877	16.21
872.05	1.88
872.223	-32.94
872.396	34.64
872.569	16.21
872.742	-32.94
872.915	96.08
873.088	-0.17
873.261	-16.55
873.434	55.12
873.607	-45.23
873.78	18.26
873.953	-10.41
874.126	32.6
874.299	-41.13
874.471	-12.46
874.644	59.22
874.817	-8.36
874.99	112.47
875.163	8.02
875.335	44.88
875.508	8.02
875.681	24.4
875.853	67.41
876.026	16.21
876.199	20.31
876.371	67.41
876.544	40.79
876.717	-10.41
876.889	-22.7
877.062	12.12
877.234	8.02
877.407	-57.51
877.579	-24.75
877.752	26.45
877.924	40.79
878.097	28.5
878.269	73.56
878.442	20.31
878.614	24.4
878.786	73.56
878.959	48.98
879.131	3.93
879.303	-80.04
879.476	24.4
879.648	20.31
879.82	59.22
879.993	-0.17
880.165	-71.85
880.337	-18.6
880.509	44.88
880.681	-57.51
880.854	-16.55
881.026	-2.22
881.198	135
881.37	40.79
881.542	40.79
881.714	-61.61
881.886	34.64
882.058	8.02
882.23	114.52
882.402	-24.75
882.574	-12.46
882.746	16.21
882.918	57.17
883.09	1.88
883.262	-71.85
883.434	-57.51
883.606	26.45
883.778	-49.32
883.95	48.98
884.122	-37.03
884.293	57.17
884.465	34.64
884.637	44.88
884.809	-8.36
884.98	-57.51
885.152	10.07
885.324	42.84
885.496	-24.75
885.667	-39.08
885.839	-2.22
886.011	-6.31
886.182	-12.46
886.354	40.79
886.525	-45.23
886.697	44.88
886.869	16.21
887.04	18.26
887.212	-77.99
887.383	61.27
887.555	42.84
887.726	1.88
887.897	-8.36
888.069	67.41
888.24	40.79
888.412	16.21
888.583	-57.51
888.754	-4.27
888.926	5.97
889.097	-90.28
889.268	-8.36
889.44	32.6
889.611	-47.27
889.782	8.02
889.953	-73.9
890.125	46.93
890.296	-92.33
890.467	-75.95
890.638	40.79
890.809	-20.65
890.98	-45.23
891.151	69.46
891.323	81.75
891.494	3.93
891.665	-24.75
891.836	28.5
892.007	42.84
892.178	-32.94
892.349	-16.55
892.52	18.26
892.691	-12.46
892.862	-53.42
893.032	-57.51
893.203	-0.17
893.374	20.31
893.545	10.07
893.716	-39.08
893.887	16.21
894.057	-41.13
894.228	40.79
894.399	-86.19
894.57	40.79
894.74	3.93
894.911	-39.08
895.082	-28.84
895.253	-32.94
895.423	20.31
895.594	24.4
895.764	36.69
895.935	-94.38
896.106	40.79
896.276	-32.94
896.447	-14.51
896.617	-18.6
896.788	12.12
896.958	-32.94
897.129	-4.27
897.299	-49.32
897.47	-6.31
897.64	40.79
897.81	-16.55
897.981	-0.17
898.151	-37.03
898.322	12.12
898.492	34.64
898.662	-0.17
898.832	48.98
899.003	-59.56
899.173	-26.79
899.343	-32.94
899.513	-37.03
