Data from USB4F104151__242__14-34-09-661.txt Node

Date: Thu Mar 13 14:34:09 EDT 2025
User: louis
Spectrometer: USB4F10415
Trigger mode: 4
Integration Time (sec): 2.500000E-2
Scans to average: 1
Electric dark correction enabled: true
Nonlinearity correction enabled: false
Boxcar width: 0
XAxis mode: Wavelengths
Number of Pixels in Spectrum: 3648
>>>>>Begin Spectral Data<<<<<
178.204	-138.41
178.424	-138.41
178.644	-138.41
178.864	-195.75
179.084	-154.79
179.304	33.62
179.524	-72.87
179.744	82.77
179.964	29.52
180.184	0.85
180.404	13.14
180.624	41.81
180.844	-72.87
181.064	-33.96
181.283	-29.87
181.503	37.72
181.723	-29.87
181.943	-15.53
182.163	76.63
182.383	0.85
182.602	21.33
182.822	86.87
183.042	27.48
183.262	31.57
183.482	-52.39
183.701	27.48
183.921	37.72
184.141	31.57
184.361	58.2
184.58	25.43
184.8	2.9
185.02	37.72
185.239	90.96
185.459	33.62
185.679	33.62
185.898	17.24
186.118	41.81
186.338	43.86
186.557	66.39
186.777	9.05
186.997	15.19
187.216	27.48
187.436	66.39
187.655	41.81
187.875	160.59
188.095	-9.39
188.314	127.83
188.534	37.72
188.753	84.82
188.973	35.67
189.192	37.72
189.412	105.3
189.631	78.68
189.851	54.1
190.07	0.85
190.29	-31.91
190.509	11.09
190.729	-19.63
190.948	90.96
191.168	209.75
191.387	107.35
191.607	0.85
191.826	13.14
192.045	62.29
192.265	19.29
192.484	33.62
192.704	-7.34
192.923	21.33
193.142	179.03
193.362	58.2
193.581	74.58
193.8	-7.34
194.02	74.58
194.239	2.9
194.458	68.44
194.678	68.44
194.897	41.81
195.116	47.96
195.335	29.52
195.555	90.96
195.774	60.24
195.993	-9.39
196.212	-19.63
196.432	9.05
196.651	41.81
196.87	-15.53
197.089	164.69
197.308	111.44
197.528	90.96
197.747	-19.63
197.966	11.09
198.185	181.07
198.404	35.67
198.623	33.62
198.842	35.67
199.062	90.96
199.281	39.76
199.5	99.16
199.719	78.68
199.938	82.77
200.157	29.52
200.376	58.2
200.595	35.67
200.814	56.15
201.033	50
201.252	78.68
201.471	52.05
201.69	127.83
201.909	68.44
202.128	74.58
202.347	78.68
202.566	37.72
202.785	7
203.004	17.24
203.223	99.16
203.442	66.39
203.661	-11.43
203.879	2.9
204.098	115.54
204.317	9.05
204.536	60.24
204.755	60.24
204.974	58.2
205.193	113.49
205.411	187.22
205.63	27.48
205.849	41.81
206.068	-11.43
206.287	15.19
206.505	45.91
206.724	43.86
206.943	-5.29
207.162	15.19
207.381	68.44
207.599	19.29
207.818	23.38
208.037	-5.29
208.255	37.72
208.474	86.87
208.693	109.4
208.911	54.1
209.13	76.63
209.349	133.97
209.567	58.2
209.786	111.44
210.005	64.34
210.223	45.91
210.442	-72.87
210.661	99.16
210.879	78.68
211.098	23.38
211.316	15.19
211.535	88.92
211.753	-9.39
211.972	-7.34
212.191	21.33
212.409	37.72
212.628	-38.06
212.846	47.96
213.065	-19.63
213.283	25.43
213.502	111.44
213.72	43.86
213.938	58.2
214.157	25.43
214.375	-25.77
214.594	84.82
214.812	74.58
215.031	78.68
215.249	4.95
215.467	84.82
215.686	17.24
215.904	70.48
216.122	-3.24
216.341	119.64
216.559	41.81
216.778	25.43
216.996	54.1
217.214	35.67
217.432	19.29
217.651	50
217.869	37.72
218.087	66.39
218.306	41.81
218.524	25.43
218.742	9.05
218.96	103.25
219.179	-9.39
219.397	35.67
219.615	99.16
219.833	-42.15
220.051	9.05
220.27	56.15
220.488	17.24
220.706	19.29
220.924	74.58
221.142	15.19
221.36	2.9
221.578	-11.43
221.796	-11.43
222.015	52.05
222.233	13.14
222.451	76.63
222.669	4.95
222.887	70.48
223.105	9.05
223.323	-11.43
223.541	0.85
223.759	74.58
223.977	-25.77
224.195	74.58
224.413	99.16
224.631	33.62
224.849	13.14
225.067	131.92
225.285	4.95
225.503	50
225.721	37.72
225.939	52.05
226.157	50
226.375	76.63
226.592	-17.58
226.81	101.2
227.028	13.14
227.246	76.63
227.464	31.57
227.682	27.48
227.9	82.77
228.117	119.64
228.335	39.76
228.553	19.29
228.771	60.24
228.989	27.48
229.206	76.63
229.424	45.91
229.642	101.2
229.86	54.1
230.077	23.38
230.295	66.39
230.513	131.92
230.731	17.24
230.948	54.1
231.166	56.15
231.384	109.4
231.601	33.62
231.819	115.54
232.037	-13.48
232.254	13.14
232.472	-23.72
232.689	17.24
232.907	9.05
233.125	9.05
233.342	58.2
233.56	2.9
233.777	-36.01
233.995	41.81
234.213	58.2
234.43	31.57
234.648	66.39
234.865	-11.43
235.083	82.77
235.3	68.44
235.518	99.16
235.735	35.67
235.953	86.87
236.17	-1.19
236.388	52.05
236.605	74.58
236.822	99.16
237.04	88.92
237.257	25.43
237.475	-13.48
237.692	45.91
237.909	54.1
238.127	17.24
238.344	99.16
238.562	103.25
238.779	47.96
238.996	21.33
239.214	-13.48
239.431	47.96
239.648	50
239.865	43.86
240.083	45.91
240.3	78.68
240.517	11.09
240.735	-36.01
240.952	62.29
241.169	99.16
241.386	50
241.603	25.43
241.821	66.39
242.038	35.67
242.255	140.12
242.472	0.85
242.689	74.58
242.907	43.86
243.124	-15.53
243.341	41.81
243.558	-7.34
243.775	-68.78
243.992	-31.91
244.209	58.2
244.426	111.44
244.643	90.96
244.86	33.62
245.078	13.14
245.295	43.86
245.512	74.58
245.729	-13.48
245.946	86.87
246.163	4.95
246.38	127.83
246.597	76.63
246.814	41.81
247.031	60.24
247.248	60.24
247.464	11.09
247.681	2.9
247.898	76.63
248.115	58.2
248.332	21.33
248.549	127.83
248.766	105.3
248.983	125.78
249.2	17.24
249.417	27.48
249.633	17.24
249.85	74.58
250.067	41.81
250.284	45.91
250.501	52.05
250.717	68.44
250.934	41.81
251.151	-1.19
251.368	31.57
251.585	11.09
251.801	62.29
252.018	-9.39
252.235	86.87
252.451	-23.72
252.668	-11.43
252.885	76.63
253.102	74.58
253.318	-13.48
253.535	90.96
253.752	68.44
253.968	19.29
254.185	-5.29
254.401	17.24
254.618	52.05
254.835	23.38
255.051	97.11
255.268	58.2
255.484	25.43
255.701	-23.72
255.917	-27.82
256.134	58.2
256.351	-5.29
256.567	-52.39
256.784	76.63
257	9.05
257.217	107.35
257.433	33.62
257.65	80.72
257.866	119.64
258.082	-31.91
258.299	54.1
258.515	64.34
258.732	33.62
258.948	13.14
259.165	41.81
259.381	13.14
259.597	25.43
259.814	35.67
260.03	15.19
260.246	-31.91
260.463	-5.29
260.679	133.97
260.895	66.39
261.112	-3.24
261.328	80.72
261.544	21.33
261.761	131.92
261.977	27.48
262.193	41.81
262.409	41.81
262.626	58.2
262.842	35.67
263.058	-23.72
263.274	107.35
263.49	136.02
263.707	84.82
263.923	21.33
264.139	37.72
264.355	13.14
264.571	82.77
264.787	97.11
265.004	70.48
265.22	35.67
265.436	0.85
265.652	-13.48
265.868	-9.39
266.084	41.81
266.3	33.62
266.516	99.16
266.732	39.76
266.948	27.48
267.164	62.29
267.38	19.29
267.596	29.52
267.812	90.96
268.028	47.96
268.244	90.96
268.46	25.43
268.676	60.24
268.892	23.38
269.108	-11.43
269.324	29.52
269.54	25.43
269.756	60.24
269.972	47.96
270.188	29.52
270.403	-27.82
270.619	50
270.835	4.95
271.051	41.81
271.267	60.24
271.483	-31.91
271.698	109.4
271.914	66.39
272.13	21.33
272.346	0.85
272.562	93.01
272.777	50
272.993	37.72
273.209	66.39
273.425	90.96
273.64	78.68
273.856	62.29
274.072	-60.59
274.287	-44.2
274.503	25.43
274.719	58.2
274.934	0.85
275.15	9.05
275.366	82.77
275.581	-81.07
275.797	29.52
276.012	-19.63
276.228	52.05
276.444	-29.87
276.659	74.58
276.875	-38.06
277.09	109.4
277.306	93.01
277.521	11.09
277.737	123.73
277.952	109.4
278.168	76.63
278.383	2.9
278.599	50
278.814	52.05
279.03	56.15
279.245	62.29
279.461	54.1
279.676	90.96
279.892	27.48
280.107	-15.53
280.322	45.91
280.538	82.77
280.753	21.33
280.969	58.2
281.184	66.39
281.399	66.39
281.615	66.39
281.83	21.33
282.045	-1.19
282.26	58.2
282.476	54.1
282.691	90.96
282.906	50
283.122	-62.63
283.337	64.34
283.552	7
283.767	19.29
283.983	64.34
284.198	37.72
284.413	47.96
284.628	37.72
284.843	7
285.058	70.48
285.274	4.95
285.489	50
285.704	50
285.919	-27.82
286.134	9.05
286.349	-3.24
286.564	74.58
286.779	101.2
286.995	68.44
287.21	23.38
287.425	107.35
287.64	7
287.855	25.43
288.07	41.81
288.285	37.72
288.5	125.78
288.715	111.44
288.93	0.85
289.145	66.39
289.36	9.05
289.575	-11.43
289.79	66.39
290.004	13.14
290.219	62.29
290.434	33.62
290.649	25.43
290.864	17.24
291.079	54.1
291.294	56.15
291.509	-13.48
291.724	2.9
291.938	-27.82
292.153	43.86
292.368	41.81
292.583	82.77
292.798	41.81
293.012	58.2
293.227	82.77
293.442	-23.72
293.657	117.59
293.871	68.44
294.086	9.05
294.301	68.44
294.516	90.96
294.73	52.05
294.945	107.35
295.16	0.85
295.374	41.81
295.589	54.1
295.804	54.1
296.018	9.05
296.233	90.96
296.447	82.77
296.662	17.24
296.877	54.1
297.091	35.67
297.306	45.91
297.52	2.9
297.735	54.1
297.949	-15.53
298.164	25.43
298.378	41.81
298.593	35.67
298.807	-48.3
299.022	25.43
299.236	99.16
299.451	-23.72
299.665	41.81
299.88	9.05
300.094	35.67
300.309	70.48
300.523	84.82
300.737	64.34
300.952	70.48
301.166	80.72
301.381	2.9
301.595	41.81
301.809	9.05
302.024	62.29
302.238	-42.15
302.452	82.77
302.667	33.62
302.881	70.48
303.095	107.35
303.309	35.67
303.524	107.35
303.738	31.57
303.952	-15.53
304.166	90.96
304.381	7
304.595	74.58
304.809	0.85
305.023	45.91
305.237	-1.19
305.452	47.96
305.666	0.85
305.88	45.91
306.094	129.88
306.308	-23.72
306.522	115.54
306.736	58.2
306.95	50
307.164	35.67
307.379	88.92
307.593	74.58
307.807	117.59
308.021	115.54
308.235	-5.29
308.449	99.16
308.663	52.05
308.877	156.5
309.091	25.43
309.305	82.77
309.519	41.81
309.733	60.24
309.947	-31.91
310.161	90.96
310.374	84.82
310.588	74.58
310.802	99.16
311.016	9.05
311.23	70.48
311.444	-3.24
311.658	119.64
311.872	148.31
312.085	13.14
312.299	56.15
312.513	13.14
312.727	25.43
312.941	43.86
313.154	9.05
313.368	35.67
313.582	78.68
313.796	50
314.009	-27.82
314.223	66.39
314.437	52.05
314.651	19.29
314.864	99.16
315.078	45.91
315.292	-48.3
315.505	-17.58
315.719	33.62
315.933	4.95
316.146	74.58
316.36	54.1
316.573	117.59
316.787	125.78
317.001	154.45
317.214	54.1
317.428	-40.11
317.641	109.4
317.855	62.29
318.068	99.16
318.282	95.06
318.495	148.31
318.709	27.48
318.922	74.58
319.136	52.05
319.349	-15.53
319.563	-5.29
319.776	138.07
319.99	21.33
320.203	101.2
320.417	-7.34
320.63	99.16
320.843	136.02
321.057	-3.24
321.27	76.63
321.483	74.58
321.697	156.5
321.91	27.48
322.124	17.24
322.337	-33.96
322.55	-1.19
322.763	54.1
322.977	84.82
323.19	9.05
323.403	41.81
323.617	41.81
323.83	41.81
324.043	41.81
324.256	31.57
324.469	64.34
324.683	4.95
324.896	29.52
325.109	82.77
325.322	21.33
325.535	76.63
325.748	78.68
325.962	70.48
326.175	86.87
326.388	58.2
326.601	19.29
326.814	-19.63
327.027	21.33
327.24	95.06
327.453	-7.34
327.666	74.58
327.879	93.01
328.092	62.29
328.305	95.06
328.518	4.95
328.731	19.29
328.944	66.39
329.157	90.96
329.37	-1.19
329.583	25.43
329.796	54.1
330.009	13.14
330.222	35.67
330.435	76.63
330.648	86.87
330.861	25.43
331.073	15.19
331.286	86.87
331.499	74.58
331.712	86.87
331.925	11.09
332.138	66.39
332.35	99.16
332.563	4.95
332.776	74.58
332.989	23.38
333.202	101.2
333.414	29.52
333.627	60.24
333.84	50
334.053	66.39
334.265	50
334.478	-15.53
334.691	21.33
334.903	78.68
335.116	-15.53
335.329	50
335.541	23.38
335.754	72.53
335.966	45.91
336.179	52.05
336.392	-19.63
336.604	76.63
336.817	25.43
337.029	54.1
337.242	43.86
337.454	97.11
337.667	93.01
337.88	2.9
338.092	84.82
338.305	54.1
338.517	99.16
338.729	2.9
338.942	111.44
339.154	84.82
339.367	29.52
339.579	39.76
339.792	82.77
340.004	70.48
340.217	68.44
340.429	25.43
340.641	4.95
340.854	19.29
341.066	64.34
341.278	90.96
341.491	119.64
341.703	97.11
341.915	-40.11
342.128	31.57
342.34	76.63
342.552	9.05
342.764	17.24
342.977	9.05
343.189	9.05
343.401	50
343.613	-62.63
343.826	17.24
344.038	113.49
344.25	21.33
344.462	13.14
344.674	99.16
344.886	62.29
345.099	74.58
345.311	27.48
345.523	76.63
345.735	-7.34
345.947	13.14
346.159	78.68
346.371	90.96
346.583	45.91
346.795	129.88
347.007	107.35
347.219	129.88
347.431	50
347.643	33.62
347.855	37.72
348.067	74.58
348.279	-58.54
348.491	70.48
348.703	74.58
348.915	35.67
349.127	60.24
349.339	56.15
349.551	4.95
349.763	43.86
349.975	17.24
350.187	111.44
350.399	129.88
350.61	17.24
350.822	19.29
351.034	93.01
351.246	68.44
351.458	45.91
351.669	52.05
351.881	95.06
352.093	66.39
352.305	90.96
352.517	23.38
352.728	105.3
352.94	19.29
353.152	107.35
353.363	41.81
353.575	74.58
353.787	76.63
353.999	95.06
354.21	60.24
354.422	25.43
354.633	70.48
354.845	27.48
355.057	56.15
355.268	84.82
355.48	33.62
355.692	33.62
355.903	64.34
356.115	-13.48
356.326	-15.53
356.538	50
356.749	-36.01
356.961	123.73
357.172	19.29
357.384	-62.63
357.595	133.97
357.807	123.73
358.018	21.33
358.23	-23.72
358.441	148.31
358.653	90.96
358.864	47.96
359.075	41.81
359.287	33.62
359.498	125.78
359.709	58.2
359.921	60.24
360.132	58.2
360.344	111.44
360.555	29.52
360.766	86.87
360.977	45.91
361.189	82.77
361.4	123.73
361.611	90.96
361.823	99.16
362.034	33.62
362.245	54.1
362.456	58.2
362.667	17.24
362.879	43.86
363.09	68.44
363.301	43.86
363.512	-13.48
363.723	95.06
363.935	17.24
364.146	78.68
364.357	37.72
364.568	-19.63
364.779	0.85
364.99	84.82
365.201	101.2
365.412	119.64
365.623	0.85
365.834	54.1
366.045	74.58
366.256	27.48
366.467	13.14
366.678	-13.48
366.889	25.43
367.1	9.05
367.311	86.87
367.522	41.81
367.733	101.2
367.944	84.82
368.155	58.2
368.366	78.68
368.577	76.63
368.788	39.76
368.999	52.05
369.209	50
369.42	148.31
369.631	172.88
369.842	78.68
370.053	25.43
370.264	86.87
370.474	45.91
370.685	74.58
370.896	41.81
371.107	80.72
371.317	82.77
371.528	25.43
371.739	76.63
371.95	95.06
372.16	125.78
372.371	125.78
372.582	33.62
372.792	68.44
373.003	33.62
373.214	47.96
373.424	72.53
373.635	41.81
373.846	76.63
374.056	11.09
374.267	13.14
374.477	82.77
374.688	78.68
374.898	72.53
375.109	-29.87
375.319	115.54
375.53	74.58
375.74	13.14
375.951	21.33
376.161	103.25
376.372	54.1
376.582	-38.06
376.793	99.16
377.003	50
377.214	-19.63
377.424	84.82
377.635	119.64
377.845	62.29
378.055	119.64
378.266	11.09
378.476	66.39
378.686	33.62
378.897	41.81
379.107	17.24
379.317	84.82
379.528	-3.24
379.738	93.01
379.948	2.9
380.158	70.48
380.369	93.01
380.579	43.86
380.789	78.68
380.999	66.39
381.21	39.76
381.42	140.12
381.63	25.43
381.84	72.53
382.05	107.35
382.261	107.35
382.471	86.87
382.681	9.05
382.891	107.35
383.101	58.2
383.311	72.53
383.521	107.35
383.731	138.07
383.941	17.24
384.151	90.96
384.361	37.72
384.571	76.63
384.781	37.72
384.991	123.73
385.201	183.12
385.411	99.16
385.621	90.96
385.831	86.87
386.041	-17.58
386.251	25.43
386.461	50
386.671	50
386.881	82.77
387.091	58.2
387.301	90.96
387.511	123.73
387.72	41.81
387.93	99.16
388.14	9.05
388.35	101.2
388.56	109.4
388.769	90.96
388.979	109.4
389.189	7
389.399	103.25
389.609	113.49
389.818	148.31
390.028	127.83
390.238	136.02
390.447	123.73
390.657	99.16
390.867	62.29
391.076	66.39
391.286	99.16
391.496	125.78
391.705	25.43
391.915	74.58
392.125	-1.19
392.334	131.92
392.544	103.25
392.753	60.24
392.963	74.58
393.172	123.73
393.382	74.58
393.591	156.5
393.801	29.52
394.01	142.16
394.22	33.62
394.429	97.11
394.639	140.12
394.848	136.02
395.058	109.4
395.267	93.01
395.477	123.73
395.686	119.64
395.895	101.2
396.105	156.5
396.314	109.4
396.524	123.73
396.733	113.49
396.942	90.96
397.152	111.44
397.361	160.59
397.57	111.44
397.78	140.12
397.989	154.45
398.198	240.47
398.407	131.92
398.617	115.54
398.826	64.34
399.035	164.69
399.244	205.65
399.453	103.25
399.663	101.2
399.872	254.8
400.081	95.06
400.29	133.97
400.499	156.5
400.708	140.12
400.917	123.73
401.127	164.69
401.336	37.72
401.545	179.03
401.754	158.55
401.963	219.99
402.172	60.24
402.381	133.97
402.59	125.78
402.799	115.54
403.008	222.03
403.217	140.12
403.426	209.75
403.635	131.92
403.844	172.88
404.053	90.96
404.262	181.07
404.471	176.98
404.68	172.88
404.888	199.51
405.097	205.65
405.306	213.84
405.515	226.13
405.724	109.4
405.933	174.93
406.142	115.54
406.35	209.75
406.559	213.84
406.768	201.55
406.977	252.75
407.185	287.57
407.394	303.95
407.603	242.51
407.812	287.57
408.02	258.9
408.229	279.38
408.438	283.47
408.646	230.23
408.855	303.95
409.064	273.23
409.272	332.62
409.481	385.87
409.69	332.62
409.898	344.91
410.107	326.48
410.315	375.63
410.524	475.98
410.733	426.83
410.941	416.59
411.15	389.97
411.358	494.41
411.567	516.94
411.775	492.37
411.984	518.99
412.192	611.15
412.401	648.01
412.609	488.27
412.818	537.42
413.026	668.49
413.234	609.1
413.443	631.63
413.651	686.92
413.86	664.4
414.068	787.27
414.276	723.79
414.485	758.6
414.693	750.41
414.901	820.04
415.11	840.52
415.318	777.03
415.526	836.42
415.734	987.97
415.943	1026.89
416.151	1086.28
416.359	1057.61
416.567	1047.37
416.776	1110.85
416.984	1112.9
417.192	1092.42
417.4	1141.57
417.608	1110.85
417.817	1258.31
418.025	1223.49
418.233	1340.22
418.441	1420.1
418.649	1446.72
418.857	1452.86
419.065	1499.97
419.273	1557.31
419.481	1520.45
419.689	1684.28
419.897	1819.45
420.105	1798.97
420.313	1839.93
420.521	1862.46
420.729	1989.43
420.937	1903.42
421.145	2147.12
421.353	2251.57
421.561	2270
421.769	2343.73
421.977	2526
422.185	2337.59
422.393	2462.51
422.601	2708.27
422.809	2718.51
423.017	2708.27
423.224	2769.71
423.432	2917.16
423.64	2958.12
423.848	3248.93
424.056	3124.01
424.263	3302.18
424.471	3328.8
424.679	3427.11
424.887	3621.66
425.094	3828.51
425.302	3703.58
425.51	3926.81
425.718	3916.57
425.925	3904.28
426.133	4025.11
426.341	4420.37
426.548	4684.56
426.756	4586.26
426.964	4702.99
427.171	4956.94
427.379	5026.57
427.586	5178.12
427.794	5227.27
428.001	5569.28
428.209	5833.47
428.417	5741.31
428.624	6089.46
428.832	6114.04
429.039	5980.92
429.247	6001.4
429.454	6669.04
429.662	6820.59
429.869	6664.94
430.076	6980.33
430.284	6900.46
430.491	7097.07
430.699	7570.15
430.906	7408.36
431.114	7772.89
431.321	8082.14
431.528	8004.32
431.736	8567.51
431.943	8962.76
432.15	8739.54
432.358	8606.42
432.565	9378.5
432.772	9196.23
432.979	9519.81
433.187	9913.02
433.394	9923.26
433.601	10668.72
433.808	10812.08
434.016	10609.33
434.223	10908.33
434.43	11512.49
434.637	11369.13
434.844	12350.1
435.052	12407.45
435.259	12266.14
435.466	12321.43
435.673	12407.45
435.88	12956.3
436.087	13841.03
436.294	13843.07
436.501	13312.65
436.708	13623.94
436.915	14224
437.122	14551.67
437.329	14951.03
437.537	15334
437.743	15524.46
437.95	15245.93
438.157	16314.97
438.364	16884.31
438.571	16689.75
438.778	16839.25
438.985	18301.5
439.192	17427.02
439.399	18266.69
439.606	17566.28
439.813	18684.47
440.02	19749.42
440.227	19499.56
440.433	19335.73
440.64	19888.68
440.847	19913.25
441.054	20369.95
441.261	21486.09
441.467	21129.75
441.674	21760.52
441.881	22536.7
442.088	22446.59
442.294	22260.23
442.501	22688.25
442.708	23450.1
442.914	24125.93
443.121	25121.24
443.328	24623.58
443.534	26028.49
443.741	25774.54
443.948	25033.18
444.154	27054.52
444.361	27083.19
444.568	27136.44
444.774	26663.36
444.981	27056.57
445.187	27986.35
445.394	29516.18
445.6	28969.37
445.807	31461.75
446.013	30169.48
446.22	30769.54
446.426	31969.65
446.633	32088.43
446.839	33126.75
447.046	31691.12
447.252	33821.01
447.459	33757.52
447.665	33569.11
447.871	35281.21
448.078	36571.43
448.284	34857.28
448.491	35801.4
448.697	37417.24
448.903	37630.23
449.11	37998.87
449.316	37396.76
449.522	38281.49
449.728	38971.65
449.935	39160.06
450.141	39211.26
450.347	40323.31
450.553	38951.17
450.76	39774.45
450.966	40356.08
451.172	40091.89
451.378	41060.58
451.584	40368.37
451.791	41416.93
451.997	41019.62
452.203	42148.05
452.409	42051.8
452.615	42176.72
452.821	40012.02
453.027	39975.16
453.233	41851.09
453.44	40677.61
453.646	40724.71
453.852	40949.99
454.058	41150.69
454.264	40106.23
454.47	41093.35
454.676	40229.1
454.882	41599.19
455.088	37945.62
455.294	38512.91
455.5	39057.67
455.705	39508.22
455.911	38023.44
456.117	37538.07
456.323	36667.69
456.529	34758.98
456.735	36409.64
456.941	35318.07
457.147	34951.49
457.352	33892.69
457.558	33616.21
457.764	33608.02
457.97	32594.28
458.176	31969.65
458.381	31895.92
458.587	30597.51
458.793	30351.75
458.999	28711.33
459.204	30652.8
459.41	30120.33
459.616	28268.97
459.821	28103.08
460.027	28035.5
460.233	27179.45
460.438	26081.74
460.644	26257.86
460.85	25393.62
461.055	24582.62
461.261	24650.21
461.466	22704.63
461.672	21889.54
461.878	23636.46
462.083	21989.89
462.289	21742.09
462.494	21488.14
462.7	20445.73
462.905	19999.27
463.111	20552.22
463.316	20482.59
463.522	20073
463.727	20245.02
463.932	19935.78
464.138	19898.92
464.343	19939.88
464.549	19599.91
464.754	20099.62
464.959	19749.42
465.165	19528.24
465.37	18887.22
465.575	18242.11
465.781	19247.66
465.986	19118.64
466.191	18584.12
466.397	18045.51
466.602	17183.31
466.807	17787.46
467.012	17893.96
467.218	17449.55
467.423	17572.43
467.628	17562.19
467.833	18147.9
468.038	17648.2
468.244	17146.45
468.449	18055.75
468.654	17056.34
468.859	16955.99
469.064	16855.64
469.269	16493.15
469.474	16415.32
469.679	16726.61
469.885	16450.14
470.09	16362.08
470.295	16245.34
470.5	15854.18
470.705	16091.74
470.91	15819.36
471.115	15704.68
471.32	15776.36
471.525	15719.01
471.73	15460.97
471.935	15233.64
472.139	14787.19
472.344	14717.56
472.549	14731.89
472.754	14428.79
472.959	14512.76
473.164	14021.25
473.369	13738.63
473.574	14297.72
473.778	14144.13
473.983	13998.72
474.188	14058.11
474.393	13437.58
474.598	13419.14
474.802	13150.86
475.007	13320.84
475.212	13429.38
475.417	12669.59
475.621	12847.76
475.826	13013.65
476.031	12538.52
476.235	12405.4
476.44	12788.37
476.645	12300.95
476.849	12292.76
477.054	12341.91
477.259	11928.22
477.463	11944.61
477.668	11756.19
477.872	11917.98
478.077	11602.6
478.282	11223.72
478.486	11195.05
478.691	11121.32
478.895	11240.11
479.1	10963.63
479.304	11154.09
479.509	10728.11
479.713	10855.09
479.918	10478.26
480.122	10451.64
480.326	10926.77
480.531	10730.16
480.735	10404.53
480.94	10470.07
481.144	10601.14
481.348	10336.95
481.553	10441.4
481.757	10146.49
481.961	10230.46
482.166	10500.79
482.37	10281.66
482.574	10040
482.778	10205.88
482.983	10269.37
483.187	10291.9
483.391	10435.25
483.595	10267.32
483.8	10076.86
484.004	10261.18
484.208	10142.39
484.412	10250.94
484.616	10169.02
484.821	10236.6
485.025	10019.52
485.229	10080.96
485.433	10136.25
485.637	10060.48
485.841	10175.16
486.045	10130.11
486.249	10500.79
486.453	9980.61
486.657	10257.08
486.861	10220.22
487.065	9962.17
487.269	10209.98
487.473	9902.78
487.677	10142.39
487.881	10306.23
488.085	10175.16
488.289	10232.51
488.493	10097.34
488.697	10119.87
488.901	10117.82
489.105	10166.97
489.309	10240.7
489.512	10054.33
489.716	10140.35
489.92	10291.9
490.124	9888.45
490.328	10408.63
490.531	10142.39
490.735	10175.16
490.939	10400.44
491.143	10261.18
491.346	10123.96
491.55	10457.78
491.754	10523.32
491.958	10488.5
492.161	10230.46
492.365	10728.11
492.569	10504.89
492.772	10449.59
492.976	10562.23
493.18	10689.2
493.383	10730.16
493.587	10732.21
493.79	10740.4
493.994	10658.48
494.197	10957.49
494.401	10799.79
494.605	10904.24
494.808	10875.57
495.012	11088.56
495.215	11299.5
495.419	11203.24
495.622	11272.87
495.825	11373.22
496.029	11305.64
496.232	11643.56
496.436	11389.61
496.639	11725.47
496.843	11973.28
497.046	11872.93
497.249	12075.68
497.453	12075.68
497.656	12092.06
497.859	12444.31
498.063	12253.85
498.266	12591.77
498.469	12395.16
498.673	12599.96
498.876	12841.62
499.079	12929.68
499.282	12954.26
499.485	13257.36
499.689	13118.09
499.892	13380.23
500.095	13619.85
500.298	13968
500.501	13746.82
500.705	14058.11
500.908	14156.41
501.111	14398.07
501.314	14428.79
501.517	14541.43
501.72	14701.17
501.923	14738.04
502.126	15143.53
502.329	15225.45
502.532	15290.99
502.735	15559.27
502.938	15606.38
503.141	15817.32
503.344	15872.61
503.547	15956.58
503.75	16120.42
503.953	16280.16
504.156	16788.05
504.359	16769.62
504.562	16724.57
504.765	17142.35
504.968	17467.98
505.17	17375.82
505.373	17553.99
505.576	17771.08
505.779	17879.62
505.982	17992.26
506.185	18444.86
506.387	18551.35
506.59	18655.8
506.793	19042.87
506.996	18821.69
507.198	19382.83
507.401	19460.65
507.604	19550.76
507.807	20095.52
508.009	19905.06
508.212	20095.52
508.415	20423.2
508.617	20419.1
508.82	20484.64
509.022	20519.45
509.225	21234.19
509.428	21256.72
509.63	21389.84
509.833	21776.91
510.035	21979.65
510.238	21897.74
510.44	22239.75
510.643	22399.49
510.845	22747.64
511.048	22610.43
511.25	23007.73
511.453	23093.75
511.655	24013.29
511.858	23568.88
512.06	24191.46
512.262	24347.11
512.465	24175.08
512.667	24867.29
512.87	25027.03
513.072	24574.43
513.274	25041.37
513.477	25440.72
513.679	25618.89
513.881	26071.5
514.084	26221
514.286	26032.58
514.488	26175.94
514.69	27302.32
514.893	26974.65
515.095	26890.68
515.297	27654.58
515.499	27408.82
515.701	27974.06
515.904	28115.37
516.106	28217.77
516.308	28563.87
516.51	28578.21
516.712	28785.05
516.914	29530.51
517.116	29413.78
517.318	29544.85
517.52	30019.98
517.722	30058.89
517.925	30212.49
518.127	30538.12
518.329	30878.08
518.531	30814.59
518.733	31314.3
518.935	31674.74
519.136	31527.28
519.338	31963.5
519.54	31916.4
519.742	32239.98
519.944	32362.86
520.146	32696.67
520.348	32924
520.55	33263.96
520.752	33220.95
520.954	33673.56
521.155	33370.46
521.357	33747.28
521.559	33872.21
521.761	34478.41
521.963	34574.66
522.164	34357.58
522.366	34576.71
522.568	34718.02
522.77	35035.45
522.971	35592.5
523.173	35326.27
523.375	35844.4
523.576	35545.4
523.778	35457.34
523.98	36174.13
524.181	36225.32
524.383	36100.4
524.584	36542.76
524.786	36254
524.988	36426.03
525.189	36684.07
525.391	36958.5
525.592	37048.61
525.794	37034.27
525.995	36938.02
526.197	36845.86
526.398	36845.86
526.6	37366.04
526.801	37323.04
527.003	37155.1
527.204	37343.52
527.406	37687.57
527.607	37599.51
527.808	38220.05
528.01	37304.6
528.211	37185.82
528.412	38218
528.614	37994.77
528.815	37966.1
529.016	38316.3
529.218	37642.52
529.419	37650.71
529.62	38174.99
529.822	37675.29
530.023	37818.64
530.224	37531.93
530.425	37619.99
530.626	37423.39
530.828	37525.78
531.029	38015.25
531.23	37484.83
531.431	37480.73
531.632	37957.91
531.833	37783.83
532.035	37970.19
532.236	37671.19
532.437	38007.06
532.638	37288.22
532.839	37730.58
533.04	37718.29
533.241	37224.73
533.442	37857.56
533.643	37466.39
533.844	37488.92
534.045	37570.84
534.246	37116.19
534.447	37378.33
534.648	37622.04
534.849	37257.5
535.05	37390.62
535.251	37320.99
535.451	37058.85
535.652	37155.1
535.853	37146.91
536.054	37556.5
536.255	37128.48
536.456	36731.17
536.657	37148.96
536.857	36823.33
537.058	36856.1
537.259	37189.92
537.46	36854.05
537.66	36677.93
537.861	36952.35
538.062	36780.32
538.263	36460.84
538.463	36792.61
538.664	36614.44
538.865	36718.89
539.065	37021.98
539.266	36450.6
539.466	37017.89
539.667	36131.12
539.868	36788.52
540.068	36712.74
540.269	36206.89
540.469	36704.55
540.67	36329.77
540.87	36106.54
541.071	36434.22
541.271	36530.47
541.472	36575.53
541.672	36143.41
541.873	36016.43
542.073	35907.89
542.274	36495.66
542.474	35903.79
542.675	35649.85
542.875	36374.83
543.075	35785.01
543.276	35756.34
543.476	36483.37
543.676	36069.68
543.877	36016.43
544.077	35969.33
544.277	36149.55
544.478	35983.66
544.678	36274.48
544.878	36135.21
545.078	35846.45
545.279	35944.75
545.479	35785.01
545.679	36106.54
545.879	36122.93
546.079	36059.44
546.28	35750.2
546.48	35868.98
546.68	36045.1
546.88	36036.91
547.08	35928.37
547.28	35914.03
547.48	35920.18
547.68	35932.47
547.88	36041.01
548.081	36141.36
548.281	36096.3
548.481	35875.12
548.681	36151.6
548.881	36081.97
549.081	36059.44
549.28	35760.44
549.48	35807.54
549.68	35705.14
549.88	36407.59
550.08	35959.09
550.28	35995.95
550.48	35954.99
550.68	36278.57
550.88	35705.14
551.08	36106.54
551.279	36272.43
551.479	36143.41
551.679	35791.16
551.879	35991.86
552.079	36262.19
552.278	36362.54
552.478	36018.48
552.678	35727.67
552.878	36167.98
553.077	36100.4
553.277	35653.94
553.477	36522.28
553.676	35987.76
553.876	36135.21
554.076	36047.15
554.275	36120.88
554.475	35547.45
554.674	36092.21
554.874	36288.81
555.074	35746.1
555.273	36471.08
555.473	36534.57
555.672	36172.08
555.872	36317.48
556.071	36403.5
556.271	36299.05
556.47	36227.37
556.67	35971.38
556.869	36231.47
557.068	36065.58
557.268	36223.28
557.467	36403.5
557.667	36444.46
557.866	36362.54
558.065	36180.27
558.265	36167.98
558.464	35991.86
558.663	36641.06
558.863	36194.61
559.062	36710.69
559.261	36041.01
559.461	36788.52
559.66	35760.44
559.859	36307.24
560.058	36423.98
560.258	36266.28
560.457	36106.54
560.656	36589.86
560.855	36110.64
561.054	36622.63
561.253	36067.63
561.453	35973.42
561.652	36483.37
561.851	36286.76
562.05	36081.97
562.249	36178.22
562.448	36297
562.647	36573.48
562.846	36172.08
563.045	36432.17
563.244	35819.83
563.443	36436.27
563.642	35756.34
563.841	35903.79
564.04	35981.62
564.239	36217.13
564.438	35785.01
564.637	36374.83
564.836	36030.77
565.035	36006.19
565.234	35954.99
565.432	35631.41
565.631	35551.54
565.83	35602.74
566.029	35885.36
566.228	35678.52
566.427	35750.2
566.625	35469.62
566.824	35399.99
567.023	35922.23
567.222	34888
567.42	35479.86
567.619	35279.16
567.818	34978.11
568.016	35107.13
568.215	35508.54
568.414	35010.88
568.612	35543.35
568.811	35320.12
569.01	35045.69
569.208	34632
569.407	35115.33
569.605	34027.85
569.804	35156.28
570.002	34083.15
570.201	35025.21
570.4	34533.7
570.598	34181.45
570.797	34298.19
570.995	34009.42
571.193	33982.8
571.392	34089.29
571.59	34220.36
571.789	33804.63
571.987	33798.48
572.186	33818.96
572.384	33546.58
572.582	33941.84
572.781	33651.03
572.979	33163.61
573.177	33675.6
573.376	33567.06
573.574	33382.74
573.772	33294.68
573.971	33165.66
574.169	33104.22
574.367	33128.8
574.565	33268.06
574.763	33108.32
574.962	32829.79
575.16	32504.17
575.358	33053.02
575.556	32061.8
575.754	32880.99
575.952	32270.7
576.151	32244.07
576.349	32141.67
576.547	32221.55
576.745	32178.54
576.943	32194.92
577.141	32063.85
577.339	31871.34
577.537	31785.33
577.735	32115.05
577.933	31379.83
578.131	31711.6
578.329	31607.16
578.527	31304.06
578.725	30986.62
578.923	31562.1
579.121	31275.38
579.319	30869.89
579.516	31236.47
579.714	30845.31
579.912	30667.14
580.11	30648.71
580.308	30431.62
580.506	30796.16
580.704	30232.97
580.901	30450.05
581.099	30474.63
581.297	29995.4
581.495	30437.76
581.692	30376.33
581.89	29917.58
582.088	30359.94
582.285	30015.88
582.483	30142.86
582.681	29866.38
582.878	29825.42
583.076	29735.31
583.274	29866.38
583.471	29340.05
583.669	29647.25
583.866	29548.95
584.064	29479.32
584.262	29075.87
584.459	29368.73
584.657	28946.84
584.854	29348.25
585.052	28731.81
585.249	29079.96
585.447	28979.61
585.644	28438.95
585.841	28545.44
586.039	29135.26
586.236	28621.22
586.434	28514.72
586.631	28244.39
586.828	28594.59
587.026	28602.78
587.223	28137.9
587.42	28141.99
587.618	28457.38
587.815	27941.29
588.012	28316.07
588.21	28010.92
588.407	28311.97
588.604	27609.52
588.801	27754.93
588.999	27886
589.196	27802.03
589.393	27894.19
589.59	27539.89
589.787	27423.15
589.984	27187.64
590.182	27287.99
590.379	27421.11
590.576	27267.51
590.773	27349.43
590.97	27040.18
591.167	27240.89
591.364	26948.03
591.561	27169.21
591.758	26839.48
591.955	26837.44
592.152	26939.83
592.349	26890.68
592.546	27093.43
592.743	26669.5
592.94	26610.11
593.137	26749.37
593.334	26745.28
593.531	26409.41
593.727	26773.95
593.924	26524.1
594.121	26573.25
594.318	26235.33
594.515	26116.55
594.712	26163.65
594.908	26081.74
595.105	26481.09
595.302	25797.07
595.499	26182.09
595.696	25854.41
595.892	26075.59
596.089	26325.44
596.286	26313.16
596.482	26188.23
596.679	26018.25
596.876	26139.08
597.072	25907.66
597.269	26204.61
597.466	25559.5
597.662	25774.54
597.859	25727.44
598.055	26073.54
598.252	25838.03
598.448	26071.5
598.645	25850.31
598.841	25752.01
599.038	25926.09
599.234	26014.15
599.431	25670.09
599.627	25694.67
599.824	25723.34
600.02	25579.98
600.217	25682.38
600.413	25481.68
600.609	25702.86
600.806	25571.79
601.002	25747.92
601.198	25715.15
601.395	25829.84
601.591	25666
601.787	25680.33
601.984	25790.92
602.18	25891.27
602.376	25778.64
602.572	25618.89
602.769	25694.67
602.965	25414.1
603.161	25905.61
603.357	25606.61
603.553	25645.52
603.75	25498.06
603.946	25526.74
604.142	25946.57
604.338	25508.3
604.534	25561.55
604.73	25526.74
604.926	25823.69
605.122	25766.35
605.318	25514.45
605.514	26079.69
605.71	25618.89
605.906	26014.15
606.102	25909.71
606.298	26065.35
606.494	26161.61
606.69	25786.83
606.886	26223.05
607.082	25465.3
607.278	26266.05
607.474	25690.57
607.67	26114.5
607.866	25784.78
608.062	26327.49
608.257	25817.55
608.453	26200.52
608.649	26061.26
608.845	26122.69
609.041	26292.68
609.236	26272.2
609.432	25952.71
609.628	26061.26
609.824	26096.07
610.019	25971.15
610.215	26153.41
610.411	26462.66
610.606	26501.57
610.802	26243.52
610.998	26253.76
611.193	26548.67
611.389	26444.23
611.584	26440.13
611.78	26200.52
611.976	26405.31
612.171	26309.06
612.367	26546.62
612.562	26266.05
612.758	26044.87
612.953	26517.95
613.149	26661.31
613.344	26335.68
613.539	26864.06
613.735	26642.88
613.93	26728.89
614.126	26483.14
614.321	26816.96
614.517	26591.68
614.712	26358.21
614.907	26409.41
615.103	26532.29
615.298	26454.47
615.493	26794.43
615.688	26177.99
615.884	27044.28
616.079	26370.5
616.274	26804.67
616.47	26368.45
616.665	26620.35
616.86	26323.4
617.055	26628.54
617.25	26501.57
617.445	26659.26
617.641	25817.55
617.836	26663.36
618.031	26053.06
618.226	26493.38
618.421	26173.89
618.616	26659.26
618.811	26075.59
619.006	26583.49
619.201	26106.31
619.396	26032.58
619.591	25690.57
619.786	26200.52
619.981	25641.42
620.176	26046.92
620.371	25450.96
620.566	26012.1
620.761	25762.25
620.956	25348.56
621.151	25291.22
621.346	25821.64
621.541	24852.95
621.735	25426.39
621.93	25076.18
622.125	24943.06
622.32	24750.56
622.515	25051.61
622.709	24914.39
622.904	24730.08
623.099	24957.4
623.294	24617.44
623.488	24224.23
623.683	24492.51
623.878	23810.54
624.072	24017.38
624.267	24254.95
624.462	24125.93
624.656	23906.79
624.851	23798.25
625.046	23663.08
625.24	23495.15
625.435	23441.9
625.629	23276.02
625.824	23273.97
626.018	23095.8
626.213	22649.34
626.407	22952.44
626.602	22643.2
626.796	22682.11
626.991	22888.95
627.185	22405.63
627.38	22387.2
627.574	22137.35
627.768	22163.97
627.963	22125.06
628.157	22000.13
628.352	22004.23
628.546	21787.14
628.74	21885.45
628.935	21705.23
629.129	21684.75
629.323	21113.36
629.517	21412.37
629.712	21318.16
629.906	20869.65
630.1	20853.27
630.294	20924.95
630.489	20724.25
630.683	20943.38
630.877	20226.59
631.071	20099.62
631.265	20390.43
631.459	20154.91
631.653	20150.82
631.848	20236.83
632.042	20038.18
632.236	19855.91
632.43	19896.87
632.624	20058.66
632.818	19640.87
633.012	19489.32
633.206	19538.48
633.4	19255.86
633.594	19120.69
633.788	19290.67
633.982	18922.04
634.176	18899.51
634.369	18696.76
634.563	18727.48
634.757	18612.79
634.951	18719.29
635.145	18397.76
635.339	18750.01
635.533	18137.66
635.726	18352.7
635.92	18274.88
636.114	18152
636.308	17820.23
636.501	18170.43
636.695	17680.97
636.889	17582.67
637.083	17392.2
637.276	17453.64
637.47	17304.14
637.664	17373.77
637.857	17324.62
638.051	17173.07
638.244	17160.78
638.438	17031.76
638.632	16812.63
638.825	16616.02
639.019	16673.37
639.212	16720.47
639.406	16558.68
639.599	16568.92
639.793	16468.57
639.986	16091.74
640.18	16122.46
640.373	15911.52
640.567	15809.12
640.76	15811.17
640.954	15997.54
641.147	15692.39
641.34	15522.41
641.534	15530.6
641.727	15487.59
641.92	15401.58
642.114	15239.79
642.307	15184.49
642.5	15112.81
642.694	14680.69
642.887	14846.58
643.08	14908.02
643.273	14832.24
643.467	14578.29
643.66	14389.88
643.853	14701.17
644.046	14500.47
644.239	14107.26
644.432	14002.82
644.626	14195.32
644.819	14240.38
645.012	13961.86
645.205	13765.25
645.398	14041.73
645.591	13576.84
645.784	13736.58
645.977	13507.21
646.17	13271.69
646.363	13337.23
646.556	13386.38
646.749	13271.69
646.942	13359.75
647.135	13173.39
647.328	13015.69
647.521	12913.3
647.714	12726.93
647.907	12855.95
648.099	12505.75
648.292	12554.9
648.485	12602.01
648.678	12458.65
648.871	12323.48
649.064	12317.34
649.256	12331.67
649.449	12167.84
649.642	12212.89
649.835	12090.01
650.027	12010.14
650.22	11977.37
650.413	11889.31
650.605	11889.31
650.798	11670.18
650.991	11555.49
651.183	11879.07
651.376	11489.96
651.568	11633.32
651.761	11575.97
651.954	11371.18
652.146	11518.63
652.339	11264.68
652.531	11176.62
652.724	11199.15
652.916	10961.58
653.109	10982.06
653.301	11045.55
653.494	10934.96
653.686	10822.32
653.879	10904.24
654.071	10883.76
654.263	10707.63
654.456	10676.91
654.648	10551.99
654.84	10355.38
655.033	10588.85
655.225	10515.12
655.417	10379.96
655.61	10369.72
655.802	10465.97
655.994	10076.86
656.186	10242.75
656.379	10074.81
656.571	9951.93
656.763	10035.9
656.955	9937.6
657.148	9921.21
657.34	9872.06
657.532	9626.31
657.724	9845.44
657.916	9693.89
658.108	9607.87
658.3	9431.75
658.492	9628.35
658.684	9470.66
658.876	9437.89
659.068	9245.38
659.26	9372.36
659.452	9163.47
659.644	9419.46
659.836	9179.85
660.028	9134.79
660.22	8966.86
660.412	8831.69
660.604	8927.95
660.796	8954.57
660.988	8895.18
661.18	8864.46
661.372	8669.91
661.563	8688.34
661.755	8676.05
661.947	8669.91
662.139	8430.29
662.331	8674
662.522	8393.43
662.714	8434.39
662.906	8454.87
663.097	8340.18
663.289	8162.01
663.481	8182.49
663.673	8217.3
663.864	8237.78
664.056	8147.67
664.247	8080.09
664.439	7820
664.631	8075.99
664.822	8004.32
665.014	7791.33
665.205	7766.75
665.397	7695.07
665.588	7779.04
665.78	7807.71
665.971	7650.02
666.163	7901.92
666.354	7693.02
666.546	7582.43
666.737	7480.04
666.929	7379.68
667.12	7488.23
667.311	7332.58
667.503	7385.83
667.694	7514.85
667.885	7340.77
668.077	7422.69
668.268	7135.98
668.459	7252.71
668.651	7201.51
668.842	6886.12
669.033	7144.17
669.224	7045.87
669.416	7138.02
669.607	7107.3
669.798	6935.28
669.989	7072.49
670.18	6951.66
670.371	6775.53
670.563	6775.53
670.754	6775.53
670.945	6767.34
671.136	6632.18
671.327	6648.56
671.518	6759.15
671.709	6718.19
671.9	6537.97
672.091	6716.14
672.282	6722.29
672.473	6789.87
672.664	6578.93
672.855	6337.27
673.046	6595.31
673.237	6390.52
673.428	6454
673.619	6308.6
673.809	6363.89
674	6345.46
674.191	6537.97
674.382	6183.67
674.573	6316.79
674.764	6316.79
674.954	6232.82
675.145	6349.56
675.336	6255.35
675.527	6103.8
675.717	6200.05
675.908	6146.81
676.099	6099.7
676.289	6015.74
676.48	6134.52
676.671	5991.16
676.861	6003.45
677.052	5862.14
677.243	5909.24
677.433	5989.11
677.624	6089.46
677.814	5903.1
678.005	5903.1
678.195	5966.59
678.386	5882.62
678.576	5847.8
678.767	5876.48
678.957	5919.48
679.148	5841.66
679.338	5860.09
679.529	5858.04
679.719	5835.52
679.909	5720.83
680.1	5851.9
680.29	5735.17
680.481	5595.9
680.671	5749.5
680.861	5796.6
681.052	5690.11
681.242	5763.84
681.432	5667.58
681.622	5546.75
681.813	5481.22
682.003	5620.48
682.193	5620.48
682.383	5571.33
682.573	5630.72
682.764	5632.77
682.954	5604.1
683.144	5481.22
683.334	5589.76
683.524	5712.64
683.714	5554.94
683.904	5710.59
684.094	5657.34
684.284	5661.44
684.474	5477.12
684.664	5620.48
684.854	5565.18
685.044	5579.52
685.234	5532.42
685.424	5468.93
685.614	5391.11
685.804	5481.22
685.994	5454.59
686.184	5427.97
686.374	5669.63
686.564	5360.39
686.753	5419.78
686.943	5301
687.133	5346.05
687.323	5350.15
687.513	5190.41
687.702	5319.43
687.892	5276.42
688.082	5268.23
688.272	5221.13
688.461	5317.38
688.651	5450.5
688.841	5194.5
689.03	5198.6
689.22	5243.65
689.41	5243.65
689.599	5045
689.789	5100.3
689.979	4940.55
690.168	5251.85
690.358	4973.32
690.547	4899.59
690.737	4836.11
690.926	4956.94
691.116	5042.95
691.305	4965.13
691.495	5149.45
691.684	4944.65
691.874	5047.05
692.063	4977.42
692.252	4950.79
692.442	4977.42
692.631	4893.45
692.82	4797.2
693.01	4793.1
693.199	4805.39
693.388	4836.11
693.578	4952.84
693.767	4809.48
693.956	4801.29
694.146	4752.14
694.335	4758.28
694.524	4918.03
694.713	4758.28
694.902	4688.65
695.092	4907.79
695.281	4723.47
695.47	4752.14
695.659	4616.97
695.848	4696.85
696.037	4627.21
696.226	4621.07
696.415	4498.19
696.604	4647.69
696.793	4623.12
696.982	4528.91
697.171	4588.3
697.36	4586.26
697.549	4518.67
697.738	4438.8
697.927	4524.82
698.116	4551.44
698.305	4653.84
698.494	4432.66
698.683	4383.51
698.872	4522.77
699.061	4291.35
699.25	4508.43
699.438	4457.23
699.627	4315.92
699.816	4377.36
700.005	4328.21
700.193	4393.75
700.382	4389.65
700.571	4367.12
700.76	4453.14
700.948	4352.79
701.137	4467.47
701.326	4317.97
701.514	4334.36
701.703	4367.12
701.892	4176.66
702.08	4289.3
702.269	4287.25
702.457	4145.94
702.646	4107.03
702.834	4170.52
703.023	4244.24
703.212	4260.63
703.4	4305.68
703.589	4166.42
703.777	3941.15
703.965	4084.5
704.154	4104.98
704.342	3998.49
704.531	3982.1
704.719	4092.69
704.907	4084.5
705.096	4033.3
705.284	4076.31
705.472	4102.93
705.661	3900.19
705.849	3998.49
706.037	3975.96
706.226	3967.77
706.414	3857.18
706.602	4055.83
706.79	3984.15
706.979	3896.09
707.167	4090.65
707.355	3887.9
707.543	3871.51
707.731	3932.95
707.919	3896.09
708.107	3777.31
708.296	3826.46
708.484	3810.08
708.672	3869.47
708.86	3676.96
709.048	3791.64
709.236	3762.97
709.424	3867.42
709.612	3916.57
709.8	3937.05
709.988	3805.98
710.176	3793.69
710.364	3756.83
710.551	3687.2
710.739	3758.88
710.927	3867.42
711.115	3691.29
711.303	3658.53
711.491	3592.99
711.679	3463.97
711.866	3627.81
712.054	3531.55
712.242	3656.48
712.43	3640.09
712.617	3500.83
712.805	3478.3
712.993	3607.33
713.181	3558.18
713.368	3558.18
713.556	3525.41
713.744	3470.11
713.931	3556.13
714.119	3515.17
714.306	3461.92
714.494	3388.19
714.682	3515.17
714.869	3380
715.057	3515.17
715.244	3355.43
715.432	3443.49
715.619	3527.46
715.807	3355.43
715.994	3504.93
716.182	3433.25
716.369	3269.41
716.556	3310.37
716.744	3287.84
716.931	3271.46
717.119	3334.95
717.306	3375.91
717.493	3433.25
717.681	3347.23
717.868	3293.99
718.055	3216.16
718.242	3277.6
718.43	3230.5
718.617	3203.88
718.804	3255.08
718.991	3195.68
719.179	3216.16
719.366	3244.84
719.553	3375.91
719.74	3199.78
719.927	3248.93
720.114	3128.1
720.301	3167.01
720.488	3091.24
720.676	3269.41
720.863	3140.39
721.05	3289.89
721.237	3195.68
721.424	3197.73
721.611	3189.54
721.798	3015.46
721.985	2962.22
722.172	3040.04
722.358	3058.47
722.545	3062.57
722.732	2990.89
722.919	3027.75
723.106	2988.84
723.293	2859.82
723.48	3015.46
723.667	2929.45
723.853	2982.7
724.04	2943.78
724.227	2966.31
724.414	2855.72
724.6	2835.24
724.787	2999.08
724.974	2868.01
725.161	3062.57
725.347	2876.2
725.534	2765.61
725.72	2908.97
725.907	2954.02
726.094	2835.24
726.28	2857.77
726.467	2773.8
726.653	2806.57
726.84	2829.1
727.027	2843.43
727.213	2820.91
727.4	2902.83
727.586	2794.28
727.773	2796.33
727.959	2708.27
728.145	2841.39
728.332	2761.52
728.518	2818.86
728.705	2773.8
728.891	2796.33
729.077	2839.34
729.264	2704.17
729.45	2691.88
729.636	2861.87
729.823	2806.57
730.009	2870.06
730.195	2784.04
730.382	2771.76
730.568	2741.04
730.754	2646.83
730.94	2738.99
731.126	2685.74
731.313	2689.84
731.499	2595.63
731.685	2638.64
731.871	2591.53
732.057	2601.77
732.243	2687.79
732.429	2519.85
732.615	2638.64
732.801	2599.73
732.987	2675.5
733.173	2626.35
733.359	2566.96
733.545	2558.77
733.731	2495.28
733.917	2569.01
734.103	2474.8
734.289	2620.21
734.475	2624.3
734.661	2681.64
734.847	2466.61
735.033	2575.15
735.219	2515.76
735.404	2437.94
735.59	2511.66
735.776	2460.46
735.962	2458.42
736.148	2591.53
736.333	2503.47
736.519	2431.79
736.705	2431.79
736.89	2515.76
737.076	2573.1
737.262	2425.65
737.447	2378.55
737.633	2417.46
737.819	2374.45
738.004	2380.59
738.19	2407.22
738.375	2419.5
738.561	2378.55
738.747	2470.7
738.932	2247.48
739.118	2403.12
739.303	2335.54
739.489	2294.58
739.674	2202.42
739.859	2345.78
740.045	2368.31
740.23	2343.73
740.416	2241.33
740.601	2394.93
740.786	2339.63
740.972	2192.18
741.157	2157.36
741.342	2179.89
741.528	2253.62
741.713	2267.95
741.898	2188.08
742.084	2212.66
742.269	2237.24
742.454	2071.35
742.639	2198.32
742.824	2229.04
743.01	2138.93
743.195	2237.24
743.38	2237.24
743.565	2085.69
743.75	2247.48
743.935	2059.06
744.12	2179.89
744.305	1968.95
744.49	2007.86
744.675	2089.78
744.86	2077.49
745.045	2106.17
745.23	2089.78
745.415	1993.53
745.6	2005.81
745.785	2032.44
745.97	2011.96
746.155	2040.63
746.34	2016.05
746.525	1862.46
746.71	2048.82
746.895	1958.71
747.079	1981.24
747.264	1927.99
747.449	1913.66
747.634	1841.98
747.819	1884.98
748.003	1796.92
748.188	1776.44
748.373	1819.45
748.557	1895.22
748.742	1819.45
748.927	1770.3
749.111	1798.97
749.296	1813.31
749.481	1854.27
749.665	1717.05
749.85	1706.81
750.034	1794.87
750.219	1682.24
750.404	1762.11
750.588	1745.72
750.773	1712.96
750.957	1788.73
751.141	1676.09
751.326	1651.52
751.51	1643.32
751.695	1573.69
751.879	1637.18
752.064	1674.04
752.248	1635.13
752.432	1594.17
752.617	1694.52
752.801	1563.45
752.985	1532.73
753.17	1555.26
753.354	1518.4
753.538	1522.49
753.722	1590.08
753.907	1530.69
754.091	1387.33
754.275	1393.47
754.459	1518.4
754.643	1389.38
754.828	1526.59
755.012	1536.83
755.196	1379.14
755.38	1403.71
755.564	1315.65
755.748	1344.32
755.932	1381.18
756.116	1350.46
756.3	1332.03
756.484	1364.8
756.668	1332.03
756.852	1354.56
757.036	1303.36
757.22	1192.77
757.404	1319.75
757.588	1291.07
757.772	1329.99
757.956	1315.65
758.14	1311.55
758.323	1282.88
758.507	1313.6
758.691	1213.25
758.875	1274.69
759.059	1297.22
759.242	1223.49
759.426	1262.4
759.61	1229.63
759.794	1180.48
759.977	1188.68
760.161	1286.98
760.345	1252.16
760.528	1166.15
760.712	1188.68
760.895	1164.1
761.079	1194.82
761.263	1069.89
761.446	1084.23
761.63	1073.99
761.813	1227.59
761.997	1090.37
762.18	1131.33
762.364	1166.15
762.547	1024.84
762.731	1151.81
762.914	1069.89
763.098	1147.72
763.281	1141.57
763.464	1067.85
763.648	1135.43
763.831	971.59
764.015	1016.65
764.198	1041.22
764.381	1041.22
764.564	1024.84
764.748	953.16
764.931	1121.09
765.114	1063.75
765.297	1006.41
765.481	951.11
765.664	1033.03
765.847	969.54
766.03	1106.76
766.213	967.49
766.397	1045.32
766.58	942.92
766.763	1033.03
766.946	1018.69
767.129	1108.8
767.312	922.44
767.495	973.64
767.678	944.97
767.861	1043.27
768.044	938.82
768.227	1006.41
768.41	901.96
768.593	985.93
768.776	959.3
768.959	955.21
769.142	953.16
769.324	924.49
769.507	895.82
769.69	924.49
769.873	963.4
770.056	1006.41
770.239	904.01
770.421	1016.65
770.604	936.78
770.787	947.01
770.97	942.92
771.152	877.38
771.335	930.63
771.518	914.25
771.7	971.59
771.883	832.33
772.066	832.33
772.248	932.68
772.431	904.01
772.613	830.28
772.796	840.52
772.978	869.19
773.161	869.19
773.343	906.06
773.526	832.33
773.708	803.66
773.891	830.28
774.073	805.71
774.256	740.17
774.438	834.38
774.621	799.56
774.803	832.33
774.985	768.84
775.168	867.14
775.35	762.7
775.532	770.89
775.715	830.28
775.897	770.89
776.079	754.51
776.261	731.98
776.444	674.64
776.626	861
776.808	795.47
776.99	719.69
777.173	691.02
777.355	674.64
777.537	766.79
777.719	715.59
777.901	699.21
778.083	672.59
778.265	639.82
778.447	734.03
778.629	617.29
778.811	676.68
778.993	625.48
779.175	697.16
779.357	705.35
779.539	703.31
779.721	650.06
779.903	711.5
780.085	648.01
780.267	650.06
780.449	699.21
780.631	688.97
780.812	625.48
780.994	598.86
781.176	590.67
781.358	566.09
781.54	621.39
781.721	633.68
781.903	672.59
782.085	656.2
782.267	557.9
782.448	594.76
782.63	518.99
782.812	562
782.993	557.9
783.175	619.34
783.357	576.33
783.538	611.15
783.72	594.76
783.901	496.46
784.083	510.8
784.264	529.23
784.446	496.46
784.627	463.69
784.809	574.28
784.99	492.37
785.172	518.99
785.353	484.17
785.535	572.24
785.716	566.09
785.897	410.45
786.079	516.94
786.26	514.89
786.441	459.6
786.623	451.41
786.804	451.41
786.985	508.75
787.167	435.02
787.348	521.04
787.529	443.21
787.71	516.94
787.891	435.02
788.073	416.59
788.254	422.73
788.435	459.6
788.616	527.18
788.797	396.11
788.978	424.78
789.159	435.02
789.34	492.37
789.522	447.31
789.703	355.15
789.884	465.74
790.065	478.03
790.246	465.74
790.427	363.34
790.607	410.45
790.788	416.59
790.969	377.68
791.15	437.07
791.331	379.73
791.512	353.1
791.693	373.58
791.874	412.5
792.054	447.31
792.235	400.21
792.416	359.25
792.597	402.26
792.778	402.26
792.958	334.67
793.139	340.82
793.32	330.58
793.5	322.38
793.681	422.73
793.862	342.86
794.042	453.45
794.223	295.76
794.404	281.43
794.584	246.61
794.765	293.71
794.945	269.14
795.126	330.58
795.306	410.45
795.487	467.79
795.667	377.68
795.848	314.19
796.028	369.49
796.209	324.43
796.389	322.38
796.57	258.9
796.75	238.42
796.93	328.53
797.111	303.95
797.291	303.95
797.471	281.43
797.652	353.1
797.832	287.57
798.012	279.38
798.192	242.51
798.373	283.47
798.553	281.43
798.733	228.18
798.913	265.04
799.093	232.27
799.274	222.03
799.454	297.81
799.634	303.95
799.814	254.8
799.994	303.95
800.174	230.23
800.354	238.42
800.534	234.32
800.714	238.42
800.894	148.31
801.074	283.47
801.254	222.03
801.434	328.53
801.614	176.98
801.794	205.65
801.974	1055.56
802.154	250.71
802.334	238.42
802.514	197.46
802.693	176.98
802.873	297.81
803.053	219.99
803.233	232.27
803.413	230.23
803.592	262.99
803.772	209.75
803.952	181.07
804.131	240.47
804.311	189.27
804.491	287.57
804.67	265.04
804.85	230.23
805.03	201.55
805.209	369.49
805.389	174.93
805.568	224.08
805.748	242.51
805.928	219.99
806.107	289.62
806.287	240.47
806.466	199.51
806.646	213.84
806.825	148.31
807.004	189.27
807.184	213.84
807.363	209.75
807.543	203.6
807.722	197.46
807.901	238.42
808.081	269.14
808.26	117.59
808.439	248.66
808.619	232.27
808.798	140.12
808.977	140.12
809.156	181.07
809.336	230.23
809.515	207.7
809.694	205.65
809.873	115.54
810.052	224.08
810.231	283.47
810.411	181.07
810.59	275.28
810.769	215.89
810.948	172.88
811.127	117.59
811.306	136.02
811.485	164.69
811.664	189.27
811.843	222.03
812.022	160.59
812.201	125.78
812.38	176.98
812.559	234.32
812.737	191.31
812.916	156.5
813.095	191.31
813.274	217.94
813.453	144.21
813.632	140.12
813.811	160.59
813.989	156.5
814.168	133.97
814.347	148.31
814.526	152.4
814.704	187.22
814.883	226.13
815.062	86.87
815.24	142.16
815.419	105.3
815.598	183.12
815.776	160.59
815.955	115.54
816.133	64.34
816.312	232.27
816.49	50
816.669	99.16
816.847	99.16
817.026	181.07
817.204	172.88
817.383	136.02
817.561	164.69
817.74	230.23
817.918	140.12
818.097	107.35
818.275	99.16
818.453	201.55
818.632	174.93
818.81	115.54
818.988	160.59
819.167	119.64
819.345	68.44
819.523	150.36
819.701	107.35
819.879	166.74
820.058	125.78
820.236	107.35
820.414	140.12
820.592	95.06
820.77	150.36
820.948	140.12
821.127	181.07
821.305	181.07
821.483	72.53
821.661	224.08
821.839	181.07
822.017	170.83
822.195	90.96
822.373	156.5
822.551	168.79
822.729	174.93
822.907	162.64
823.085	224.08
823.262	158.55
823.44	62.29
823.618	68.44
823.796	205.65
823.974	133.97
824.152	107.35
824.329	148.31
824.507	136.02
824.685	193.36
824.863	66.39
825.04	93.01
825.218	107.35
825.396	88.92
825.574	197.46
825.751	156.5
825.929	164.69
826.107	74.58
826.284	142.16
826.462	119.64
826.639	156.5
826.817	-60.59
826.994	82.77
827.172	52.05
827.349	148.31
827.527	179.03
827.704	84.82
827.882	136.02
828.059	66.39
828.237	156.5
828.414	158.55
828.591	111.44
828.769	99.16
828.946	31.57
829.124	66.39
829.301	99.16
829.478	50
829.655	115.54
829.833	84.82
830.01	84.82
830.187	54.1
830.364	50
830.542	109.4
830.719	115.54
830.896	84.82
831.073	133.97
831.25	103.25
831.427	95.06
831.604	66.39
831.782	70.48
831.959	148.31
832.136	52.05
832.313	68.44
832.49	17.24
832.667	50
832.844	19.29
833.021	172.88
833.198	80.72
833.374	27.48
833.551	107.35
833.728	74.58
833.905	121.68
834.082	62.29
834.259	54.1
834.436	105.3
834.612	70.48
834.789	103.25
834.966	72.53
835.143	125.78
835.319	74.58
835.496	86.87
835.673	54.1
835.85	115.54
836.026	37.72
836.203	140.12
836.38	72.53
836.556	54.1
836.733	-19.63
836.909	99.16
837.086	76.63
837.262	43.86
837.439	-62.63
837.616	74.58
837.792	117.59
837.968	62.29
838.145	43.86
838.321	50
838.498	76.63
838.674	76.63
838.851	60.24
839.027	123.73
839.203	33.62
839.38	52.05
839.556	17.24
839.732	133.97
839.909	66.39
840.085	140.12
840.261	86.87
840.437	52.05
840.614	82.77
840.79	158.55
840.966	37.72
841.142	99.16
841.318	64.34
841.494	43.86
841.671	52.05
841.847	-19.63
842.023	99.16
842.199	52.05
842.375	70.48
842.551	45.91
842.727	15.19
842.903	131.92
843.079	-11.43
843.255	156.5
843.431	90.96
843.607	58.2
843.783	82.77
843.959	86.87
844.134	52.05
844.31	97.11
844.486	41.81
844.662	19.29
844.838	58.2
845.013	29.52
845.189	45.91
845.365	84.82
845.541	29.52
845.716	62.29
845.892	23.38
846.068	4.95
846.244	27.48
846.419	58.2
846.595	66.39
846.77	95.06
846.946	70.48
847.122	56.15
847.297	0.85
847.473	27.48
847.648	17.24
847.824	70.48
847.999	-36.01
848.175	66.39
848.35	82.77
848.526	52.05
848.701	27.48
848.876	99.16
849.052	103.25
849.227	37.72
849.403	4.95
849.578	43.86
849.753	9.05
849.929	58.2
850.104	52.05
850.279	41.81
850.454	54.1
850.63	88.92
850.805	50
850.98	80.72
851.155	-13.48
851.33	82.77
851.505	27.48
851.681	86.87
851.856	35.67
852.031	58.2
852.206	86.87
852.381	-21.67
852.556	25.43
852.731	90.96
852.906	54.1
853.081	56.15
853.256	68.44
853.431	11.09
853.606	25.43
853.781	25.43
853.956	9.05
854.131	54.1
854.305	-62.63
854.48	37.72
854.655	-68.78
854.83	-7.34
855.005	0.85
855.18	84.82
855.354	-25.77
855.529	84.82
855.704	29.52
855.879	52.05
856.053	17.24
856.228	13.14
856.403	41.81
856.577	111.44
856.752	41.81
856.926	27.48
857.101	37.72
857.276	-15.53
857.45	-23.72
857.625	113.49
857.799	13.14
857.974	58.2
858.148	-3.24
858.323	84.82
858.497	-15.53
858.672	33.62
858.846	17.24
859.02	99.16
859.195	-31.91
859.369	-21.67
859.543	109.4
859.718	-52.39
859.892	54.1
860.066	68.44
860.241	33.62
860.415	41.81
860.589	45.91
860.763	119.64
860.938	50
861.112	90.96
861.286	54.1
861.46	52.05
861.634	21.33
861.808	72.53
861.982	35.67
862.157	66.39
862.331	-23.72
862.505	27.48
862.679	29.52
862.853	80.72
863.027	33.62
863.201	58.2
863.375	-83.11
863.549	23.38
863.722	-23.72
863.896	45.91
864.07	33.62
864.244	4.95
864.418	33.62
864.592	11.09
864.766	-42.15
864.939	68.44
865.113	7
865.287	111.44
865.461	-79.02
865.634	-11.43
865.808	-3.24
865.982	4.95
866.156	-40.11
866.329	0.85
866.503	39.76
866.676	25.43
866.85	82.77
867.024	33.62
867.197	23.38
867.371	-7.34
867.544	25.43
867.718	-23.72
867.891	41.81
868.065	-21.67
868.238	9.05
868.412	74.58
868.585	68.44
868.759	-7.34
868.932	19.29
869.105	0.85
869.279	41.81
869.452	105.3
869.625	-60.59
869.799	50
869.972	-29.87
870.145	-15.53
870.319	82.77
870.492	45.91
870.665	9.05
870.838	29.52
871.011	-48.3
871.185	21.33
871.358	-1.19
871.531	9.05
871.704	-5.29
871.877	74.58
872.05	-15.53
872.223	-5.29
872.396	31.57
872.569	54.1
872.742	13.14
872.915	76.63
873.088	9.05
873.261	-7.34
873.434	45.91
873.607	-36.01
873.78	90.96
873.953	-38.06
874.126	17.24
874.299	66.39
874.471	-15.53
874.644	25.43
874.817	45.91
874.99	21.33
875.163	-68.78
875.335	72.53
875.508	64.34
875.681	43.86
875.853	50
876.026	-19.63
876.199	82.77
876.371	31.57
876.544	2.9
876.717	76.63
876.889	17.24
877.062	31.57
877.234	-23.72
877.407	-52.39
877.579	-7.34
877.752	23.38
877.924	47.96
878.097	-5.29
878.269	52.05
878.442	35.67
878.614	-7.34
878.786	-3.24
878.959	58.2
879.131	50
879.303	-7.34
879.476	4.95
879.648	13.14
879.82	37.72
879.993	-44.2
880.165	50
880.337	-36.01
880.509	54.1
880.681	0.85
880.854	-48.3
881.026	90.96
881.198	95.06
881.37	-29.87
881.542	15.19
881.714	-5.29
881.886	47.96
882.058	17.24
882.23	50
882.402	-5.29
882.574	-23.72
882.746	21.33
882.918	82.77
883.09	35.67
883.262	2.9
883.434	-7.34
883.606	-105.64
883.778	-7.34
883.95	74.58
884.122	17.24
884.293	50
884.465	7
884.637	68.44
884.809	11.09
884.98	31.57
885.152	-42.15
885.324	-17.58
885.496	7
885.667	37.72
885.839	-3.24
886.011	4.95
886.182	33.62
886.354	86.87
886.525	0.85
886.697	52.05
886.869	11.09
887.04	-13.48
887.212	-9.39
887.383	35.67
887.555	17.24
887.726	-29.87
887.897	41.81
888.069	39.76
888.24	33.62
888.412	45.91
888.583	-9.39
888.754	-13.48
888.926	-31.91
889.097	-9.39
889.268	-46.25
889.44	50
889.611	-48.3
889.782	-48.3
889.953	9.05
890.125	84.82
890.296	-46.25
890.467	-27.82
890.638	45.91
890.809	-42.15
890.98	0.85
891.151	82.77
891.323	131.92
891.494	25.43
891.665	45.91
891.836	31.57
892.007	-23.72
892.178	7
892.349	-7.34
892.52	-56.49
892.691	4.95
892.862	17.24
893.032	-52.39
893.203	-56.49
893.374	-7.34
893.545	82.77
893.716	-7.34
893.887	37.72
894.057	17.24
894.228	-23.72
894.399	13.14
894.57	115.54
894.74	50
894.911	7
895.082	-76.97
895.253	-40.11
895.423	37.72
895.594	9.05
895.764	29.52
895.935	-7.34
896.106	56.15
896.276	109.4
896.447	41.81
896.617	-29.87
896.788	-46.25
896.958	35.67
897.129	50
897.299	-40.11
897.47	99.16
897.64	33.62
897.81	29.52
897.981	-15.53
898.151	-23.72
898.322	37.72
898.492	11.09
898.662	-119.98
898.832	29.52
899.003	41.81
899.173	76.63
899.343	-36.01
899.513	-60.59
