Data from USB4F104151__135__14-31-45-601.txt Node

Date: Thu Mar 13 14:31:45 EDT 2025
User: louis
Spectrometer: USB4F10415
Trigger mode: 4
Integration Time (sec): 2.500000E-2
Scans to average: 1
Electric dark correction enabled: true
Nonlinearity correction enabled: false
Boxcar width: 0
XAxis mode: Wavelengths
Number of Pixels in Spectrum: 3648
>>>>>Begin Spectral Data<<<<<
178.204	-84.31
178.424	-84.31
178.644	-84.31
178.864	-178.51
179.084	-205.14
179.304	-57.68
179.524	38.57
179.744	-18.77
179.964	34.47
180.184	-24.92
180.404	-43.35
180.624	28.33
180.844	-2.39
181.064	32.43
181.283	-49.49
181.503	13.99
181.723	48.81
181.943	24.23
182.163	112.3
182.383	-18.77
182.602	16.04
182.822	22.19
183.042	22.19
183.262	-63.83
183.482	79.53
183.701	-39.25
183.921	30.38
184.141	22.19
184.361	13.99
184.58	-6.49
184.8	54.95
185.02	-33.11
185.239	83.63
185.459	-55.64
185.679	24.23
185.898	-22.87
186.118	61.1
186.338	71.34
186.557	65.19
186.777	5.8
186.997	-41.3
187.216	26.28
187.436	71.34
187.655	-22.87
187.875	79.53
188.095	38.57
188.314	132.78
188.534	40.62
188.753	44.71
188.973	-6.49
189.192	13.99
189.412	50.86
189.631	95.91
189.851	71.34
190.07	50.86
190.29	18.09
190.509	13.99
190.729	-26.96
190.948	104.11
191.168	165.54
191.387	54.95
191.607	46.76
191.826	73.39
192.045	40.62
192.265	22.19
192.484	83.63
192.704	67.24
192.923	-29.01
193.142	171.69
193.362	38.57
193.581	57
193.8	32.43
194.02	91.82
194.239	9.9
194.458	95.91
194.678	-26.96
194.897	26.28
195.116	-0.34
195.335	24.23
195.555	87.72
195.774	18.09
195.993	-26.96
196.212	95.91
196.432	-8.53
196.651	-22.87
196.87	-8.53
197.089	128.68
197.308	-22.87
197.528	57
197.747	46.76
197.966	13.99
198.185	112.3
198.404	20.14
198.623	18.09
198.842	38.57
199.062	73.39
199.281	71.34
199.5	-35.16
199.719	63.15
199.938	67.24
200.157	34.47
200.376	75.43
200.595	38.57
200.814	32.43
201.033	1.71
201.252	22.19
201.471	65.19
201.69	112.3
201.909	24.23
202.128	38.57
202.347	59.05
202.566	48.81
202.785	-0.34
203.004	46.76
203.223	165.54
203.442	-4.44
203.661	44.71
203.879	38.57
204.098	112.3
204.317	-22.87
204.536	65.19
204.755	63.15
204.974	54.95
205.193	-10.58
205.411	100.01
205.63	108.2
205.849	46.76
206.068	16.04
206.287	13.99
206.505	67.24
206.724	36.52
206.943	-31.06
207.162	40.62
207.381	32.43
207.599	5.8
207.818	-26.96
208.037	63.15
208.255	67.24
208.474	81.58
208.693	69.29
208.911	75.43
209.13	34.47
209.349	34.47
209.567	67.24
209.786	40.62
210.005	38.57
210.223	40.62
210.442	61.1
210.661	54.95
210.879	13.99
211.098	26.28
211.316	9.9
211.535	22.19
211.753	5.8
211.972	63.15
212.191	38.57
212.409	-2.39
212.628	46.76
212.846	63.15
213.065	69.29
213.283	61.1
213.502	5.8
213.72	61.1
213.938	13.99
214.157	32.43
214.375	46.76
214.594	16.04
214.812	91.82
215.031	26.28
215.249	-14.68
215.467	-2.39
215.686	24.23
215.904	87.72
216.122	13.99
216.341	24.23
216.559	-26.96
216.778	83.63
216.996	75.43
217.214	46.76
217.432	1.71
217.651	36.52
217.869	18.09
218.087	-41.3
218.306	-35.16
218.524	13.99
218.742	-18.77
218.96	46.76
219.179	40.62
219.397	52.91
219.615	116.39
219.833	79.53
220.051	-26.96
220.27	48.81
220.488	89.77
220.706	71.34
220.924	-57.68
221.142	-65.88
221.36	63.15
221.578	13.99
221.796	42.67
222.015	50.86
222.233	30.38
222.451	104.11
222.669	61.1
222.887	32.43
223.105	30.38
223.323	34.47
223.541	-16.73
223.759	71.34
223.977	-14.68
224.195	48.81
224.413	59.05
224.631	9.9
224.849	32.43
225.067	85.67
225.285	-35.16
225.503	91.82
225.721	-14.68
225.939	-10.58
226.157	48.81
226.375	97.96
226.592	9.9
226.81	73.39
227.028	54.95
227.246	77.48
227.464	-29.01
227.682	77.48
227.9	73.39
228.117	63.15
228.335	36.52
228.553	87.72
228.771	22.19
228.989	44.71
229.206	-26.96
229.424	18.09
229.642	-43.35
229.86	-76.12
230.077	1.71
230.295	95.91
230.513	124.58
230.731	89.77
230.948	40.62
231.166	85.67
231.384	9.9
231.601	1.71
231.819	73.39
232.037	-18.77
232.254	-16.73
232.472	-24.92
232.689	63.15
232.907	48.81
233.125	-8.53
233.342	59.05
233.56	-6.49
233.777	42.67
233.995	9.9
234.213	89.77
234.43	-16.73
234.648	30.38
234.865	-16.73
235.083	79.53
235.3	24.23
235.518	16.04
235.735	126.63
235.953	73.39
236.17	48.81
236.388	-59.73
236.605	22.19
236.822	30.38
237.04	16.04
237.257	48.81
237.475	7.85
237.692	81.58
237.909	11.95
238.127	11.95
238.344	-39.25
238.562	32.43
238.779	13.99
238.996	-2.39
239.214	-10.58
239.431	71.34
239.648	18.09
239.865	73.39
240.083	95.91
240.3	16.04
240.517	38.57
240.735	54.95
240.952	73.39
241.169	79.53
241.386	18.09
241.603	24.23
241.821	-8.53
242.038	40.62
242.255	40.62
242.472	-0.34
242.689	79.53
242.907	116.39
243.124	59.05
243.341	44.71
243.558	52.91
243.775	-2.39
243.992	-6.49
244.209	57
244.426	124.58
244.643	136.87
244.86	5.8
245.078	22.19
245.295	67.24
245.512	30.38
245.729	1.71
245.946	120.49
246.163	38.57
246.38	30.38
246.597	32.43
246.814	97.96
247.031	30.38
247.248	-22.87
247.464	50.86
247.681	-6.49
247.898	38.57
248.115	-2.39
248.332	-10.58
248.549	91.82
248.766	116.39
248.983	95.91
249.2	-14.68
249.417	79.53
249.633	-16.73
249.85	75.43
250.067	-24.92
250.284	5.8
250.501	5.8
250.717	63.15
250.934	46.76
251.151	32.43
251.368	-33.11
251.585	30.38
251.801	-12.63
252.018	18.09
252.235	-31.06
252.451	50.86
252.668	16.04
252.885	9.9
253.102	54.95
253.318	18.09
253.535	3.75
253.752	-18.77
253.968	30.38
254.185	54.95
254.401	-8.53
254.618	83.63
254.835	40.62
255.051	46.76
255.268	40.62
255.484	67.24
255.701	1.71
255.917	120.49
256.134	-53.59
256.351	1.71
256.567	-10.58
256.784	75.43
257	18.09
257.217	46.76
257.433	24.23
257.65	-0.34
257.866	116.39
258.082	-2.39
258.299	34.47
258.515	16.04
258.732	-20.82
258.948	34.47
259.165	13.99
259.381	42.67
259.597	9.9
259.814	30.38
260.03	38.57
260.246	26.28
260.463	67.24
260.679	-18.77
260.895	97.96
261.112	9.9
261.328	-2.39
261.544	106.15
261.761	132.78
261.977	73.39
262.193	1.71
262.409	63.15
262.626	30.38
262.842	44.71
263.058	63.15
263.274	75.43
263.49	104.11
263.707	13.99
263.923	71.34
264.139	13.99
264.355	-10.58
264.571	42.67
264.787	48.81
265.004	153.26
265.22	91.82
265.436	42.67
265.652	26.28
265.868	1.71
266.084	-14.68
266.3	48.81
266.516	9.9
266.732	71.34
266.948	5.8
267.164	69.29
267.38	50.86
267.596	-10.58
267.812	112.3
268.028	22.19
268.244	57
268.46	38.57
268.676	13.99
268.892	-24.92
269.108	-63.83
269.324	-31.06
269.54	46.76
269.756	93.87
269.972	18.09
270.188	-2.39
270.403	18.09
270.619	-35.16
270.835	20.14
271.051	13.99
271.267	63.15
271.483	-43.35
271.698	34.47
271.914	32.43
272.13	46.76
272.346	-6.49
272.562	-4.44
272.777	87.72
272.993	46.76
273.209	83.63
273.425	30.38
273.64	30.38
273.856	16.04
274.072	26.28
274.287	57
274.503	75.43
274.719	104.11
274.934	13.99
275.15	-65.88
275.366	-0.34
275.581	18.09
275.797	97.96
276.012	-8.53
276.228	44.71
276.444	-0.34
276.659	87.72
276.875	1.71
277.09	89.77
277.306	40.62
277.521	48.81
277.737	22.19
277.952	136.87
278.168	-2.39
278.383	-10.58
278.599	-8.53
278.814	54.95
279.03	65.19
279.245	95.91
279.461	24.23
279.676	40.62
279.892	-39.25
280.107	34.47
280.322	46.76
280.538	116.39
280.753	-22.87
280.969	67.24
281.184	136.87
281.399	114.34
281.615	16.04
281.83	63.15
282.045	20.14
282.26	13.99
282.476	54.95
282.691	26.28
282.906	-49.49
283.122	38.57
283.337	48.81
283.552	-14.68
283.767	-39.25
283.983	87.72
284.198	-35.16
284.413	81.58
284.628	59.05
284.843	50.86
285.058	95.91
285.274	67.24
285.489	-43.35
285.704	79.53
285.919	22.19
286.134	63.15
286.349	-16.73
286.564	46.76
286.779	-26.96
286.995	26.28
287.21	38.57
287.425	24.23
287.64	52.91
287.855	26.28
288.07	5.8
288.285	89.77
288.5	95.91
288.715	73.39
288.93	65.19
289.145	18.09
289.36	38.57
289.575	1.71
289.79	11.95
290.004	-2.39
290.219	67.24
290.434	38.57
290.649	18.09
290.864	-2.39
291.079	77.48
291.294	71.34
291.509	42.67
291.724	38.57
291.938	46.76
292.153	65.19
292.368	95.91
292.583	50.86
292.798	26.28
293.012	63.15
293.227	22.19
293.442	-0.34
293.657	34.47
293.871	75.43
294.086	38.57
294.301	181.93
294.516	40.62
294.73	54.95
294.945	-20.82
295.16	71.34
295.374	91.82
295.589	89.77
295.804	24.23
296.018	69.29
296.233	161.45
296.447	73.39
296.662	46.76
296.877	106.15
297.091	95.91
297.306	79.53
297.52	-4.44
297.735	71.34
297.949	110.25
298.164	112.3
298.378	22.19
298.593	54.95
298.807	-6.49
299.022	81.58
299.236	63.15
299.451	7.85
299.665	-0.34
299.88	34.47
300.094	13.99
300.309	-14.68
300.523	-78.16
300.737	81.58
300.952	50.86
301.166	5.8
301.381	11.95
301.595	26.28
301.809	77.48
302.024	13.99
302.238	5.8
302.452	48.81
302.667	24.23
302.881	95.91
303.095	50.86
303.309	34.47
303.524	40.62
303.738	61.1
303.952	30.38
304.166	108.2
304.381	18.09
304.595	83.63
304.809	59.05
305.023	81.58
305.237	34.47
305.452	5.8
305.666	63.15
305.88	57
306.094	57
306.308	24.23
306.522	122.54
306.736	24.23
306.95	18.09
307.164	-22.87
307.379	95.91
307.593	71.34
307.807	108.2
308.021	67.24
308.235	28.33
308.449	24.23
308.663	-43.35
308.877	85.67
309.091	-18.77
309.305	46.76
309.519	-31.06
309.733	79.53
309.947	50.86
310.161	40.62
310.374	79.53
310.588	24.23
310.802	-43.35
311.016	13.99
311.23	-4.44
311.444	40.62
311.658	22.19
311.872	30.38
312.085	89.77
312.299	79.53
312.513	102.06
312.727	5.8
312.941	71.34
313.154	132.78
313.368	5.8
313.582	24.23
313.796	22.19
314.009	73.39
314.223	46.76
314.437	-33.11
314.651	30.38
314.864	-39.25
315.078	34.47
315.292	-6.49
315.505	67.24
315.719	22.19
315.933	-26.96
316.146	87.72
316.36	-31.06
316.573	61.1
316.787	85.67
317.001	34.47
317.214	30.38
317.428	71.34
317.641	-31.06
317.855	9.9
318.068	7.85
318.282	155.3
318.495	83.63
318.709	130.73
318.922	54.95
319.136	42.67
319.349	-0.34
319.563	-2.39
319.776	-14.68
319.99	46.76
320.203	75.43
320.417	30.38
320.63	52.91
320.843	87.72
321.057	59.05
321.27	9.9
321.483	65.19
321.697	73.39
321.91	20.14
322.124	69.29
322.337	130.73
322.55	5.8
322.763	59.05
322.977	24.23
323.19	-6.49
323.403	67.24
323.617	57
323.83	71.34
324.043	26.28
324.256	26.28
324.469	1.71
324.683	79.53
324.896	-22.87
325.109	32.43
325.322	-8.53
325.535	81.58
325.748	38.57
325.962	34.47
326.175	32.43
326.388	71.34
326.601	48.81
326.814	83.63
327.027	28.33
327.24	54.95
327.453	-26.96
327.666	9.9
327.879	112.3
328.092	30.38
328.305	75.43
328.518	40.62
328.731	5.8
328.944	67.24
329.157	54.95
329.37	-61.78
329.583	169.64
329.796	44.71
330.009	46.76
330.222	63.15
330.435	95.91
330.648	59.05
330.861	13.99
331.073	42.67
331.286	26.28
331.499	46.76
331.712	18.09
331.925	67.24
332.138	147.11
332.35	71.34
332.563	-2.39
332.776	34.47
332.989	46.76
333.202	24.23
333.414	120.49
333.627	7.85
333.84	-10.58
334.053	46.76
334.265	-10.58
334.478	-35.16
334.691	79.53
334.903	5.8
335.116	50.86
335.329	63.15
335.541	71.34
335.754	22.19
335.966	5.8
336.179	22.19
336.392	73.39
336.604	67.24
336.817	18.09
337.029	120.49
337.242	-29.01
337.454	87.72
337.667	1.71
337.88	79.53
338.092	38.57
338.305	57
338.517	71.34
338.729	46.76
338.942	-2.39
339.154	7.85
339.367	61.1
339.579	22.19
339.792	-18.77
340.004	5.8
340.217	32.43
340.429	22.19
340.641	3.75
340.854	54.95
341.066	-16.73
341.278	124.58
341.491	5.8
341.703	104.11
341.915	30.38
342.128	71.34
342.34	89.77
342.552	-0.34
342.764	54.95
342.977	48.81
343.189	73.39
343.401	65.19
343.613	13.99
343.826	30.38
344.038	30.38
344.25	57
344.462	-18.77
344.674	-2.39
344.886	32.43
345.099	73.39
345.311	73.39
345.523	50.86
345.735	-6.49
345.947	108.2
346.159	38.57
346.371	9.9
346.583	42.67
346.795	155.3
347.007	-26.96
347.219	11.95
347.431	93.87
347.643	100.01
347.855	13.99
348.067	71.34
348.279	-6.49
348.491	46.76
348.703	75.43
348.915	30.38
349.127	71.34
349.339	77.48
349.551	50.86
349.763	71.34
349.975	38.57
350.187	149.16
350.399	130.73
350.61	63.15
350.822	59.05
351.034	24.23
351.246	79.53
351.458	46.76
351.669	-35.16
351.881	83.63
352.093	91.82
352.305	65.19
352.517	126.63
352.728	81.58
352.94	3.75
353.152	67.24
353.363	24.23
353.575	36.52
353.787	59.05
353.999	73.39
354.21	52.91
354.422	30.38
354.633	57
354.845	28.33
355.057	112.3
355.268	87.72
355.48	9.9
355.692	40.62
355.903	-53.59
356.115	-43.35
356.326	-26.96
356.538	93.87
356.749	16.04
356.961	130.73
357.172	42.67
357.384	36.52
357.595	122.54
357.807	-8.53
358.018	-35.16
358.23	-14.68
358.441	116.39
358.653	46.76
358.864	61.1
359.075	54.95
359.287	61.1
359.498	97.96
359.709	40.62
359.921	52.91
360.132	13.99
360.344	-2.39
360.555	-6.49
360.766	30.38
360.977	-8.53
361.189	50.86
361.4	106.15
361.611	13.99
361.823	91.82
362.034	59.05
362.245	7.85
362.456	57
362.667	46.76
362.879	16.04
363.09	54.95
363.301	79.53
363.512	50.86
363.723	67.24
363.935	73.39
364.146	102.06
364.357	5.8
364.568	67.24
364.779	22.19
364.99	71.34
365.201	81.58
365.412	91.82
365.623	22.19
365.834	40.62
366.045	-55.64
366.256	79.53
366.467	136.87
366.678	5.8
366.889	54.95
367.1	73.39
367.311	136.87
367.522	40.62
367.733	136.87
367.944	38.57
368.155	65.19
368.366	79.53
368.577	77.48
368.788	38.57
368.999	-35.16
369.209	26.28
369.42	136.87
369.631	114.34
369.842	-2.39
370.053	-10.58
370.264	22.19
370.474	13.99
370.685	7.85
370.896	73.39
371.107	120.49
371.317	67.24
371.528	83.63
371.739	69.29
371.95	73.39
372.16	91.82
372.371	50.86
372.582	22.19
372.792	1.71
373.003	73.39
373.214	40.62
373.424	114.34
373.635	44.71
373.846	89.77
374.056	-2.39
374.267	161.45
374.477	38.57
374.688	95.91
374.898	32.43
375.109	130.73
375.319	38.57
375.53	149.16
375.74	85.67
375.951	59.05
376.161	57
376.372	89.77
376.582	30.38
376.793	89.77
377.003	83.63
377.214	87.72
377.424	18.09
377.635	18.09
377.845	26.28
378.055	145.06
378.266	-14.68
378.476	40.62
378.686	83.63
378.897	-8.53
379.107	5.8
379.317	48.81
379.528	20.14
379.738	83.63
379.948	-51.54
380.158	54.95
380.369	36.52
380.579	124.58
380.789	79.53
380.999	44.71
381.21	196.26
381.42	106.15
381.63	48.81
381.84	89.77
382.05	89.77
382.261	26.28
382.471	102.06
382.681	22.19
382.891	79.53
383.101	128.68
383.311	32.43
383.521	7.85
383.731	-2.39
383.941	95.91
384.151	46.76
384.361	38.57
384.571	57
384.781	5.8
384.991	122.54
385.201	149.16
385.411	120.49
385.621	32.43
385.831	124.58
386.041	91.82
386.251	32.43
386.461	42.67
386.671	36.52
386.881	-18.77
387.091	95.91
387.301	140.97
387.511	151.21
387.72	50.86
387.93	71.34
388.14	46.76
388.35	73.39
388.56	79.53
388.769	71.34
388.979	34.47
389.189	18.09
389.399	-4.44
389.609	71.34
389.818	97.96
390.028	153.26
390.238	52.91
390.447	67.24
390.657	46.76
390.867	36.52
391.076	54.95
391.286	120.49
391.496	106.15
391.705	128.68
391.915	108.2
392.125	104.11
392.334	67.24
392.544	38.57
392.753	46.76
392.963	97.96
393.172	5.8
393.382	7.85
393.591	95.91
393.801	18.09
394.01	198.31
394.22	122.54
394.429	87.72
394.639	83.63
394.848	34.47
395.058	73.39
395.267	124.58
395.477	128.68
395.686	155.3
395.895	165.54
396.105	222.89
396.314	100.01
396.524	124.58
396.733	79.53
396.942	75.43
397.152	145.06
397.361	177.83
397.57	120.49
397.78	75.43
397.989	155.3
398.198	165.54
398.407	69.29
398.617	110.25
398.826	26.28
399.035	48.81
399.244	173.74
399.453	89.77
399.663	145.06
399.872	186.02
400.081	57
400.29	161.45
400.499	120.49
400.708	128.68
400.917	161.45
401.127	155.3
401.336	138.92
401.545	153.26
401.754	120.49
401.963	102.06
402.172	140.97
402.381	95.91
402.59	177.83
402.799	124.58
403.008	136.87
403.217	196.26
403.426	100.01
403.635	81.58
403.844	210.6
404.053	140.97
404.262	136.87
404.471	218.79
404.68	190.12
404.888	220.84
405.097	169.64
405.306	208.55
405.515	188.07
405.724	177.83
405.933	116.39
406.142	149.16
406.35	196.26
406.559	212.65
406.768	132.78
406.977	245.41
407.185	229.03
407.394	222.89
407.603	243.37
407.812	208.55
408.02	280.23
408.229	294.57
408.438	339.62
408.646	261.8
408.855	263.85
409.064	278.18
409.272	241.32
409.481	339.62
409.69	308.9
409.898	353.96
410.107	337.57
410.315	374.44
410.524	308.9
410.733	401.06
410.941	403.11
411.15	433.83
411.358	474.79
411.567	460.45
411.775	419.49
411.984	382.63
412.192	472.74
412.401	474.79
412.609	556.71
412.818	575.14
413.026	542.37
413.234	687.78
413.443	472.74
413.651	609.95
413.86	661.15
414.068	685.73
414.276	663.2
414.485	655.01
414.693	712.35
414.901	868
415.11	829.09
415.318	759.46
415.526	884.38
415.734	882.33
415.943	915.1
416.151	1013.4
416.359	962.2
416.567	968.35
416.776	896.67
416.984	1076.89
417.192	1183.38
417.4	1203.86
417.608	1134.23
417.817	1121.95
418.025	1263.26
418.233	1326.74
418.441	1318.55
418.649	1357.46
418.857	1513.11
419.065	1547.92
419.273	1480.34
419.481	1513.11
419.689	1570.45
419.897	1730.19
420.105	1676.95
420.313	1818.25
420.521	1848.97
420.729	1957.52
420.937	1853.07
421.145	2023.05
421.353	2070.16
421.561	2195.08
421.769	2219.66
421.977	2436.74
422.185	2250.38
422.393	2434.69
422.601	2662.02
422.809	2592.39
423.017	2582.15
423.224	2768.51
423.432	2891.39
423.64	2803.33
423.848	3094.14
424.056	3069.56
424.263	3335.8
424.471	3290.74
424.679	3348.09
424.887	3446.39
425.094	3524.21
425.302	3624.56
425.51	3800.69
425.718	3954.29
425.925	3833.46
426.133	4023.92
426.341	4208.23
426.548	4388.46
426.756	4499.05
426.964	4429.42
427.171	4900.45
427.379	4734.56
427.586	4882.02
427.794	5168.73
428.001	5297.75
428.209	5559.89
428.417	5514.84
428.624	5985.87
428.832	5848.66
429.039	5854.8
429.247	5908.05
429.454	6288.97
429.662	6782.53
429.869	6282.83
430.076	6886.98
430.284	6624.84
430.491	6741.57
430.699	7460.41
430.906	7235.13
431.114	7337.53
431.321	7542.33
431.528	7902.77
431.736	8341.04
431.943	8691.24
432.15	8355.37
432.358	8369.71
432.565	8853.03
432.772	8996.39
432.979	9461.27
433.187	9342.49
433.394	9483.8
433.601	10143.25
433.808	10245.65
434.016	10102.29
434.223	10679.82
434.43	11218.43
434.637	11007.49
434.844	11664.89
435.052	11697.66
435.259	11640.31
435.466	11855.35
435.673	11617.79
435.88	12404.21
436.087	13057.51
436.294	13084.13
436.501	12801.51
436.708	13166.05
436.915	13426.14
437.122	14198.23
437.329	14054.87
437.537	14587.34
437.743	14833.1
437.95	14558.67
438.157	15467.97
438.364	15887.8
438.571	15900.09
438.778	15701.44
438.985	17298.85
439.192	16764.33
439.399	17190.31
439.606	16872.87
439.813	17941.91
440.02	18584.98
440.227	18445.71
440.433	17986.97
440.64	19064.2
440.847	19006.86
441.054	19254.66
441.261	20501.87
441.467	20100.47
441.674	20667.76
441.881	21357.92
442.088	21409.12
442.294	21167.46
442.501	21515.62
442.708	22240.6
442.914	22963.53
443.121	23770.43
443.328	22795.6
443.534	25013.55
443.741	24108.35
443.948	23917.89
444.154	25693.47
444.361	25343.27
444.568	25578.79
444.774	25384.23
444.981	26002.72
445.187	26668.31
445.394	27542.79
445.6	27426.06
445.807	29969.63
446.013	28990.7
446.22	29482.22
446.426	30264.54
446.633	30854.36
446.839	31786.18
447.046	30553.3
447.252	32021.7
447.459	32218.3
447.665	31605.96
447.871	33586.35
448.078	34581.66
448.284	32976.05
448.491	33727.66
448.697	35071.12
448.903	35810.44
449.11	35667.08
449.316	35165.33
449.522	35732.62
449.728	37074.04
449.935	37446.77
450.141	37307.51
450.347	38022.25
450.553	37104.76
450.76	37379.18
450.966	38667.36
451.172	38431.84
451.378	39275.6
451.584	38399.07
451.791	38923.35
451.997	38997.08
452.203	39572.56
452.409	39978.06
452.615	39478.35
452.821	38200.42
453.027	37688.43
453.233	39300.18
453.44	37856.36
453.646	38380.64
453.852	38530.14
454.058	39197.78
454.264	38001.77
454.47	38650.97
454.676	37930.09
454.882	39130.2
455.088	35644.55
455.294	36078.72
455.5	36877.43
455.705	36940.92
455.911	35585.16
456.117	35001.49
456.323	34581.66
456.529	32556.22
456.735	34180.26
456.941	33012.91
457.147	32552.12
457.352	31388.88
457.558	31263.95
457.764	31704.26
457.97	30680.28
458.176	30033.12
458.381	30037.22
458.587	28437.75
458.793	28458.23
458.999	27202.83
459.204	28818.67
459.41	28314.87
459.616	26338.58
459.821	26174.75
460.027	26058.01
460.233	25632.04
460.438	24208.7
460.644	24612.15
460.85	23539.01
461.055	23067.98
461.261	22828.37
461.466	21134.7
461.672	20608.37
461.878	22009.18
462.083	20608.37
462.289	20317.56
462.494	20012.41
462.7	19060.1
462.905	18627.98
463.111	19150.21
463.316	19275.14
463.522	18646.41
463.727	18978.19
463.932	18965.9
464.138	18347.41
464.343	18750.86
464.549	18011.54
464.754	18679.18
464.959	18433.43
465.165	18353.55
465.37	17481.12
465.575	17175.97
465.781	17827.23
465.986	17481.12
466.191	17225.12
466.397	16915.88
466.602	16072.12
466.807	16563.63
467.012	16516.53
467.218	16367.02
467.423	16131.51
467.628	16485.81
467.833	17028.52
468.038	16192.95
468.244	15676.86
468.449	16528.81
468.654	16096.69
468.859	15601.08
469.064	15633.85
469.269	15058.37
469.474	15134.15
469.679	15287.75
469.885	15107.52
470.09	15220.16
470.295	15115.72
470.5	14886.34
470.705	14964.17
470.91	14396.88
471.115	14542.28
471.32	14663.11
471.525	14323.15
471.73	14175.7
471.935	14091.73
472.139	13667.8
472.344	13581.79
472.549	13782.49
472.754	13479.39
472.959	13333.98
473.164	12793.32
473.369	12559.85
473.574	13190.63
473.778	13196.77
473.983	13102.56
474.188	12895.72
474.393	12244.46
474.598	12332.53
474.802	12221.94
475.007	12213.74
475.212	12228.08
475.417	11781.62
475.621	11855.35
475.826	11855.35
476.031	11433.47
476.235	11415.04
476.44	11695.61
476.645	11200
476.849	11261.44
477.054	11081.22
477.259	11154.94
477.463	11134.46
477.668	10614.28
477.872	10782.21
478.077	10628.62
478.282	10425.87
478.486	10274.32
478.691	10061.33
478.895	10233.36
479.1	10251.79
479.304	10229.26
479.509	9676.31
479.713	10098.19
479.918	9817.62
480.122	9627.16
480.326	9926.16
480.531	9811.48
480.735	9629.21
480.94	9774.61
481.144	9811.48
481.348	9623.06
481.553	9528.86
481.757	9254.43
481.961	9346.59
482.166	9682.45
482.37	9553.43
482.574	9287.2
482.778	9352.73
482.983	9457.18
483.187	9287.2
483.391	9424.41
483.595	9344.54
483.8	9180.7
484.004	9315.87
484.208	9502.23
484.412	9279.01
484.616	9514.52
484.821	9448.99
485.025	9164.32
485.229	9418.27
485.433	9188.89
485.637	9344.54
485.841	9078.3
486.045	9100.83
486.249	9276.96
486.453	9238.05
486.657	9231.9
486.861	9188.89
487.065	9121.31
487.269	9197.09
487.473	9049.63
487.677	9307.68
487.881	9188.89
488.085	9205.28
488.289	9231.9
488.493	9027.1
488.697	9149.98
488.901	9297.44
489.105	9207.33
489.309	9428.51
489.512	9115.17
489.716	9174.56
489.92	9297.44
490.124	9266.72
490.328	9479.71
490.531	9276.96
490.735	9319.96
490.939	9295.39
491.143	9287.2
491.346	9401.88
491.55	9422.36
491.754	9616.92
491.958	9442.84
492.161	9365.02
492.365	9461.27
492.569	9434.65
492.772	9319.96
492.976	9535
493.18	9766.42
493.383	9784.85
493.587	9848.34
493.79	9756.18
493.994	9635.35
494.197	10040.85
494.401	9858.58
494.605	10069.52
494.808	10130.96
495.012	10118.67
495.215	10241.55
495.419	10319.37
495.622	10282.51
495.825	10186.26
496.029	10247.69
496.232	10366.48
496.436	10360.33
496.639	10567.18
496.843	10651.14
497.046	10782.21
497.249	10896.9
497.453	10882.56
497.656	11034.11
497.859	11040.26
498.063	11179.52
498.266	11523.58
498.469	11294.21
498.673	11396.6
498.876	11580.92
499.079	11503.1
499.282	11746.81
499.485	12090.87
499.689	11875.83
499.892	12004.85
500.095	11982.32
500.298	12324.33
500.501	12342.77
500.705	12654.06
500.908	12727.78
501.111	12742.12
501.314	12785.13
501.517	13088.23
501.72	13006.31
501.923	13137.38
502.126	13344.22
502.329	13606.36
502.532	13751.77
502.735	13737.43
502.938	14118.36
503.141	14011.86
503.344	14192.08
503.547	14235.09
503.75	14400.97
503.953	14579.15
504.156	14820.81
504.359	14898.63
504.562	15050.18
504.765	15248.83
504.968	15353.28
505.17	15504.83
505.373	15494.59
505.576	15977.91
505.779	15873.46
505.982	15945.14
506.185	16307.63
506.387	16426.42
506.59	16641.45
506.793	17065.38
506.996	16510.38
507.198	17276.32
507.401	17167.78
507.604	17218.98
507.807	17659.29
508.009	17679.77
508.212	17767.84
508.415	18072.98
508.617	18154.9
508.82	18453.91
509.022	18527.63
509.225	18994.57
509.428	19004.81
509.63	19109.26
509.833	19072.39
510.035	19764.61
510.238	19568
510.44	19580.29
510.643	19963.26
510.845	20057.46
511.048	19975.55
511.25	20444.53
511.453	20548.98
511.655	21656.93
511.858	21216.61
512.06	21196.14
512.262	21650.78
512.465	21255.53
512.667	21714.27
512.87	22148.44
513.072	21878.11
513.274	22631.76
513.477	22664.53
513.679	23123.27
513.881	23033.16
514.084	22969.68
514.286	23328.07
514.488	23803.2
514.69	24116.54
514.893	24419.64
515.095	24360.25
515.297	24421.69
515.499	24679.73
515.701	24982.83
515.904	25154.86
516.106	25146.67
516.308	25283.88
516.51	25738.53
516.712	25394.47
516.914	25750.82
517.116	26260.76
517.318	26336.54
517.52	27036.94
517.722	26637.59
517.925	26883.34
518.127	27229.45
518.329	27512.07
518.531	27485.45
518.733	27718.92
518.935	28101.89
519.136	28022.02
519.338	28583.16
519.54	28431.61
519.742	28712.18
519.944	28892.4
520.146	29277.42
520.348	29328.62
520.55	29349.1
520.752	29373.67
520.954	30004.45
521.155	29816.04
521.357	29787.36
521.559	30280.92
521.761	30807.25
521.963	30639.32
522.164	30784.72
522.366	31104.21
522.568	30762.2
522.77	31186.13
522.971	31386.83
523.173	31536.33
523.375	31847.62
523.576	31329.48
523.778	31616.2
523.98	31882.44
524.181	32199.87
524.383	32031.94
524.584	32437.44
524.786	32113.86
524.988	32242.88
525.189	31947.97
525.391	32404.67
525.592	32361.66
525.794	32785.59
525.995	32617.66
526.197	32599.23
526.398	32744.63
526.6	32967.86
526.801	32638.14
527.003	32724.15
527.204	32519.35
527.406	33100.98
527.607	33162.42
527.808	33203.38
528.01	32763.06
528.211	33068.21
528.412	33432.75
528.614	33234.1
528.815	33207.47
529.016	32879.8
529.218	33133.75
529.419	33230
529.62	33455.28
529.822	32984.24
530.023	32857.27
530.224	33404.08
530.425	33010.87
530.626	32328.89
530.828	33019.06
531.029	33342.64
531.23	32707.77
531.431	32924.85
531.632	32892.08
531.833	32793.78
532.035	32535.74
532.236	33090.74
532.437	33033.39
532.638	32709.82
532.839	32693.43
533.04	32720.06
533.241	32525.5
533.442	33270.96
533.643	32720.06
533.844	32787.64
534.045	32332.99
534.246	32232.64
534.447	32261.31
534.648	32277.69
534.849	32283.84
535.05	32191.68
535.251	32363.71
535.451	31904.96
535.652	32179.39
535.853	31950.02
536.054	32216.26
536.255	32335.04
536.456	31823.05
536.657	32185.54
536.857	32007.36
537.058	31870.15
537.259	32113.86
537.46	31907.01
537.66	31911.11
537.861	31876.29
538.062	32103.62
538.263	31538.38
538.463	31651.02
538.664	31616.2
538.865	32064.71
539.065	31769.8
539.266	31390.92
539.466	31868.1
539.667	31130.83
539.868	31771.85
540.068	31339.72
540.269	31476.94
540.469	31841.48
540.67	31192.27
540.87	31876.29
541.071	31268.05
541.271	31622.34
541.472	31546.57
541.672	31317.2
541.873	31073.49
542.073	31179.98
542.274	31292.62
542.474	31091.92
542.675	31050.96
542.875	31440.07
543.075	31007.95
543.276	30600.41
543.476	31421.64
543.676	30989.52
543.877	31018.19
544.077	31278.29
544.277	31028.43
544.478	31157.46
544.678	30936.27
544.878	30831.83
545.078	31139.02
545.279	30686.42
545.479	30981.33
545.679	30971.09
545.879	30831.83
546.079	31034.58
546.28	31161.55
546.48	30694.61
546.68	31315.15
546.88	31098.06
547.08	30680.28
547.28	31139.02
547.48	30610.65
547.68	30983.38
547.88	30878.93
548.081	31190.22
548.281	30706.9
548.481	30608.6
548.681	30907.6
548.881	30975.19
549.081	31034.58
549.28	30670.04
549.48	31007.95
549.68	30985.43
549.88	31618.25
550.08	30676.18
550.28	30950.61
550.48	30923.99
550.68	31227.09
550.88	31202.51
551.08	31042.77
551.279	31145.17
551.479	30860.5
551.679	31331.53
551.879	31010
552.079	31120.59
552.278	31032.53
552.478	30907.6
552.678	30844.12
552.878	31667.4
553.077	31134.93
553.277	30975.19
553.477	31435.98
553.676	30944.47
553.876	31132.88
554.076	31063.25
554.275	31093.97
554.475	30704.85
554.674	31053.01
554.874	31206.61
555.074	31016.15
555.273	31376.59
555.473	31384.78
555.672	31134.93
555.872	31053.01
556.071	31382.73
556.271	31499.47
556.47	31317.2
556.67	31444.17
556.869	31481.03
557.068	31618.25
557.268	31151.31
557.467	31833.28
557.667	31190.22
557.866	31462.6
558.065	31464.65
558.265	31395.02
558.464	31102.16
558.663	31587.53
558.863	31251.66
559.062	31913.16
559.261	31491.27
559.461	31562.95
559.66	31081.68
559.859	31491.27
560.058	31268.05
560.258	31540.43
560.457	31192.27
560.656	31413.45
560.855	31380.68
561.054	31462.6
561.253	31278.29
561.453	31565
561.652	31642.82
561.851	31929.54
562.05	31571.14
562.249	31268.05
562.448	31429.84
562.647	31380.68
562.846	31296.72
563.045	31540.43
563.244	31118.54
563.443	31827.14
563.642	30747.86
563.841	31407.31
564.04	31001.81
564.239	31360.2
564.438	30928.08
564.637	31382.73
564.836	31521.99
565.035	30803.16
565.234	31175.89
565.432	31012.05
565.631	30989.52
565.83	31194.32
566.029	31298.77
566.228	30835.92
566.427	30805.2
566.625	30729.43
566.824	30549.21
567.023	30715.09
567.222	30272.73
567.42	30842.07
567.619	30665.94
567.818	30788.82
568.016	30360.8
568.215	30538.97
568.414	30139.61
568.612	30713.05
568.811	30295.26
569.01	30418.14
569.208	29918.43
569.407	30219.49
569.605	29877.47
569.804	30278.88
570.002	29908.19
570.201	30141.66
570.4	29639.91
570.598	29680.87
570.797	29568.23
570.995	29983.97
571.193	29027.57
571.392	29601
571.59	29158.64
571.789	29357.29
571.987	29345
572.186	28943.6
572.384	28843.25
572.582	28937.46
572.781	29189.36
572.979	28753.14
573.177	28579.06
573.376	29058.29
573.574	28749.04
573.772	28730.61
573.971	28462.33
574.169	28615.93
574.367	28501.24
574.565	28691.7
574.763	28478.71
574.962	28144.89
575.16	27845.89
575.358	28097.79
575.556	27579.65
575.754	28067.07
575.952	27862.27
576.151	27895.04
576.349	27780.35
576.547	27602.18
576.745	27448.58
576.943	27512.07
577.141	27464.97
577.339	27397.38
577.537	27348.23
577.735	27204.88
577.933	27057.42
578.131	27204.88
578.329	27012.37
578.527	26699.03
578.725	26717.46
578.923	26883.34
579.121	26719.51
579.319	26744.08
579.516	26475.8
579.714	26461.46
579.912	26455.32
580.11	26205.47
580.308	26326.3
580.506	26238.23
580.704	25795.87
580.901	26058.01
581.099	26084.64
581.297	25826.59
581.495	25742.63
581.692	25926.94
581.89	25824.54
582.088	25939.23
582.285	25531.69
582.483	25799.97
582.681	25537.83
582.878	25478.44
583.076	25419.05
583.274	25621.8
583.471	25378.09
583.669	25257.26
583.866	25376.04
584.064	25238.83
584.262	24763.7
584.459	25265.45
584.657	25144.62
584.854	25263.4
585.052	24638.77
585.249	24851.76
585.447	25017.64
585.644	24313.14
585.841	24911.15
586.039	24515.89
586.236	24288.57
586.434	24311.1
586.631	24137.02
586.828	24182.07
587.026	24479.03
587.223	23997.76
587.42	24161.59
587.618	24272.18
587.815	23932.22
588.012	23885.12
588.21	24128.83
588.407	24036.67
588.604	23788.86
588.801	23842.11
588.999	23446.85
589.196	23731.52
589.393	23453
589.59	23252.3
589.787	23776.58
589.984	23801.15
590.182	23442.76
590.379	23455.04
590.576	23383.37
590.773	23496
590.97	23035.21
591.167	23366.98
591.364	23055.69
591.561	23170.38
591.758	22998.35
591.955	23041.36
592.152	22902.09
592.349	22869.33
592.546	22994.25
592.743	22918.48
592.94	22492.5
593.137	22771.02
593.334	23164.23
593.531	22521.17
593.727	22519.12
593.924	22754.64
594.121	22830.41
594.318	22797.65
594.515	22394.2
594.712	22613.33
594.908	22590.8
595.105	22463.83
595.302	22332.76
595.499	22521.17
595.696	22621.52
595.892	22453.59
596.089	22527.31
596.286	22578.51
596.482	22558.03
596.679	22459.73
596.876	22594.9
597.072	22324.57
597.269	22674.77
597.466	22242.65
597.662	22357.33
597.859	22402.39
598.055	22539.6
598.252	22271.32
598.448	22465.88
598.645	22359.38
598.841	22234.46
599.038	22445.4
599.234	21998.94
599.431	22213.98
599.627	22261.08
599.824	22340.95
600.02	22312.28
600.217	22629.71
600.413	22541.65
600.609	22310.23
600.806	22248.79
601.002	22529.36
601.198	22472.02
601.395	22353.24
601.591	22453.59
601.787	22523.22
601.984	22515.03
602.18	22746.45
602.376	22566.23
602.572	22406.48
602.769	22418.77
602.965	22400.34
603.161	22730.06
603.357	22828.37
603.553	22654.29
603.75	22967.63
603.946	22803.79
604.142	22703.44
604.338	22832.46
604.534	22707.54
604.73	22986.06
604.926	23194.95
605.122	23330.12
605.318	22885.71
605.514	22506.84
605.71	23041.36
605.906	23061.83
606.102	23188.81
606.298	23024.97
606.494	22936.91
606.69	23256.39
606.886	23297.35
607.082	23000.4
607.278	23571.78
607.474	23020.88
607.67	23407.94
607.866	23141.71
608.062	23588.16
608.257	23469.38
608.453	23528.77
608.649	23602.5
608.845	23573.83
609.041	23459.14
609.236	23749.95
609.432	23555.4
609.628	23727.42
609.824	23815.49
610.019	23944.51
610.215	23764.29
610.411	24122.68
610.606	24061.24
610.802	24075.58
610.998	23969.08
611.193	24100.15
611.389	24073.53
611.584	23770.43
611.78	23835.97
611.976	23850.3
612.171	24280.38
612.367	24276.28
612.562	24384.82
612.758	23670.08
612.953	23897.41
613.149	24466.74
613.344	24225.08
613.539	24388.92
613.735	24337.72
613.93	24327.48
614.126	24202.55
614.321	24567.09
614.517	24636.72
614.712	24462.65
614.907	24292.66
615.103	24900.91
615.298	24169.79
615.493	24493.36
615.688	24253.75
615.884	24816.94
616.079	24329.53
616.274	24683.83
616.47	24309.05
616.665	24694.07
616.86	24366.39
617.055	24784.18
617.25	24390.97
617.445	24649.01
617.641	24194.36
617.836	24620.34
618.031	24067.39
618.226	24554.8
618.421	24362.29
618.616	24444.21
618.811	24397.11
619.006	24511.8
619.201	23866.69
619.396	23981.37
619.591	23797.06
619.786	24034.62
619.981	23854.4
620.176	24077.63
620.371	23614.79
620.566	24038.72
620.761	23805.25
620.956	23795.01
621.151	23657.79
621.346	23569.73
621.541	23209.29
621.735	23706.94
621.93	22908.24
622.125	23401.8
622.32	23158.09
622.515	23127.37
622.709	23295.3
622.904	22906.19
623.099	22791.5
623.294	22818.13
623.488	22459.73
623.683	22766.93
623.878	22308.18
624.072	22594.9
624.267	22379.86
624.462	22359.38
624.656	22064.47
624.851	22076.76
625.046	22164.82
625.24	21726.56
625.435	21603.68
625.629	21753.18
625.824	21529.95
626.018	21507.43
626.213	21071.21
626.407	21503.33
626.602	21218.66
626.796	21013.87
626.991	21261.67
627.185	20968.81
627.38	20641.14
627.574	20753.77
627.768	20475.25
627.963	20616.56
628.157	20518.26
628.352	20749.68
628.546	19963.26
628.74	20127.1
628.935	20026.75
629.129	19977.59
629.323	19752.32
629.517	19948.92
629.712	19316.1
629.906	19750.27
630.1	19514.75
630.294	19582.34
630.489	19324.29
630.683	19512.7
630.877	19092.87
631.071	18939.27
631.265	19142.02
631.459	19176.84
631.653	18945.42
631.848	18656.65
632.042	18515.34
632.236	18701.71
632.43	18466.19
632.624	18535.82
632.818	18380.18
633.012	18232.72
633.206	18173.33
633.4	17868.19
633.594	17714.59
633.788	18019.74
633.982	17847.71
634.176	17876.38
634.369	17522.08
634.563	17710.49
634.757	17431.97
634.951	17311.14
635.145	17335.71
635.339	17337.76
635.533	17032.61
635.726	17051.05
635.92	16872.87
636.114	16793
636.308	16772.52
636.501	16764.33
636.695	16502.19
636.889	16291.25
637.083	16543.15
637.276	16309.68
637.47	16186.8
637.664	16145.84
637.857	16106.93
638.051	15943.1
638.244	15848.89
638.438	15726.01
638.632	15422.91
638.825	15398.34
639.019	15529.41
639.212	15435.2
639.406	15422.91
639.599	15187.39
639.793	15363.52
639.986	14888.39
640.18	15089.09
640.373	14937.54
640.567	14642.64
640.76	14742.99
640.954	14460.37
641.147	14566.86
641.34	14327.25
641.534	14435.79
641.727	14366.16
641.92	13985.24
642.114	14212.56
642.307	13989.33
642.5	13981.14
642.694	13727.19
642.887	13796.82
643.08	13645.27
643.273	13379.04
643.467	13579.74
643.66	13157.86
643.853	13448.67
644.046	13346.27
644.239	13174.24
644.432	13112.8
644.626	13010.4
644.819	12973.54
645.012	12832.23
645.205	13002.21
645.398	12590.57
645.591	12514.8
645.784	12500.46
645.977	12383.73
646.17	12531.18
646.363	12383.73
646.556	12207.6
646.749	11990.52
646.942	12236.27
647.135	12019.19
647.328	12113.39
647.521	11967.99
647.714	11576.83
647.907	11730.42
648.099	11673.08
648.292	11593.21
648.485	11591.16
648.678	11384.32
648.871	11322.88
649.064	11312.64
649.256	11392.51
649.449	11245.06
649.642	11111.94
649.835	11048.45
650.027	10964.48
650.22	11087.36
650.413	10761.73
650.605	10974.72
650.798	10892.8
650.991	10671.62
651.183	10616.33
651.376	10487.31
651.568	10526.22
651.761	10532.36
651.954	10423.82
652.146	10485.26
652.339	10190.35
652.531	10401.29
652.724	10173.97
652.916	10083.86
653.109	10036.75
653.301	10026.51
653.494	10114.58
653.686	9920.02
653.879	10098.19
654.071	9844.24
654.263	9758.23
654.456	9772.57
654.648	9725.46
654.84	9584.15
655.033	9692.69
655.225	9346.59
655.417	9516.57
655.61	9471.51
655.802	9428.51
655.994	9192.99
656.186	9305.63
656.379	9238.05
656.571	9096.74
656.763	8984.1
656.955	9172.51
657.148	8949.28
657.34	9047.58
657.532	8672.81
657.724	8810.02
657.916	8685.09
658.108	8781.35
658.3	8590.89
658.492	8746.53
658.684	8365.61
658.876	8627.75
659.068	8705.57
659.26	8476.2
659.452	8377.9
659.644	8420.91
659.836	8230.45
660.028	8306.22
660.22	8230.45
660.412	8244.78
660.604	8166.96
660.796	7988.78
660.988	8105.52
661.18	7941.68
661.372	7949.87
661.563	7941.68
661.755	7984.69
661.947	7904.82
662.139	7700.02
662.331	7620.15
662.522	7716.4
662.714	7665.21
662.906	7644.73
663.097	7587.38
663.289	7609.91
663.481	7255.61
663.673	7411.26
663.864	7362.11
664.056	7290.43
664.247	7257.66
664.439	7177.79
664.631	7157.31
664.822	7179.84
665.014	7212.6
665.205	7124.54
665.397	6993.47
665.588	7165.5
665.78	6946.37
665.971	6899.27
666.163	7095.87
666.354	6923.84
666.546	6669.89
666.737	6815.3
666.929	6723.14
667.12	6514.25
667.311	6770.24
667.503	6585.93
667.694	6706.76
667.885	6612.55
668.077	6497.86
668.268	6649.41
668.459	6477.38
668.651	6411.85
668.842	6356.55
669.033	6293.07
669.224	6344.27
669.416	6321.74
669.607	6338.12
669.798	6229.58
669.989	6403.66
670.18	6284.87
670.371	6039.12
670.563	6180.43
670.754	6182.48
670.945	6018.64
671.136	6186.57
671.327	6030.93
671.518	6018.64
671.709	6116.94
671.9	6078.03
672.091	5920.34
672.282	5740.12
672.473	5772.88
672.664	5963.34
672.855	5856.85
673.046	5959.25
673.237	5912.14
673.428	5838.42
673.619	5715.54
673.809	5895.76
674	5629.52
674.191	5760.59
674.382	5693.01
674.573	5752.4
674.764	5736.02
674.954	5666.39
675.145	5635.67
675.336	5641.81
675.527	5502.55
675.717	5707.35
675.908	5658.2
676.099	5629.52
676.289	5584.47
676.48	5422.68
676.671	5609.05
676.861	5371.48
677.052	5506.65
677.243	5496.41
677.433	5355.1
677.624	5570.13
677.814	5363.29
678.005	5428.82
678.195	5502.55
678.386	5363.29
678.576	5404.25
678.767	5455.45
678.957	5289.56
679.148	5375.58
679.338	5437.02
679.529	5346.91
679.719	5101.15
679.909	5307.99
680.1	5344.86
680.29	5365.34
680.481	5256.79
680.671	5127.77
680.861	5260.89
681.052	5381.72
681.242	5193.31
681.432	5289.56
681.622	5209.69
681.813	5076.57
682.003	5193.31
682.193	5138.01
682.383	5334.62
682.573	5226.07
682.764	5181.02
682.954	5228.12
683.144	5158.49
683.334	5150.3
683.524	5226.07
683.714	5156.44
683.904	5060.19
684.094	5142.11
684.284	5109.34
684.474	5123.68
684.664	5115.48
684.854	5164.64
685.044	5060.19
685.234	5084.77
685.424	5008.99
685.614	5019.23
685.804	5232.22
685.994	4970.08
686.184	5068.38
686.374	5017.18
686.564	5090.91
686.753	5142.11
686.943	4988.51
687.133	5029.47
687.323	5037.66
687.513	4867.68
687.702	4972.13
687.892	4937.31
688.082	4922.98
688.272	4945.5
688.461	4732.51
688.651	4855.39
688.841	4832.86
689.03	4830.82
689.22	4781.67
689.41	4922.98
689.599	4787.81
689.789	4877.92
689.979	4722.27
690.168	4718.18
690.358	4720.23
690.547	4847.2
690.737	4830.82
690.926	4802.15
691.116	4699.75
691.305	4798.05
691.495	4843.1
691.684	4683.36
691.874	4701.79
692.063	4695.65
692.252	4540.01
692.442	4716.13
692.631	4576.87
692.82	4583.01
693.01	4716.13
693.199	4470.37
693.388	4544.1
693.578	4626.02
693.767	4666.98
693.956	4505.19
694.146	4527.72
694.335	4417.13
694.524	4560.49
694.713	4562.53
694.902	4431.46
695.092	4386.41
695.281	4470.37
695.47	4445.8
695.659	4425.32
695.848	4390.5
696.037	4421.22
696.226	4525.67
696.415	4224.62
696.604	4550.25
696.793	4306.54
696.982	4365.93
697.171	4376.17
697.36	4345.45
697.549	4386.41
697.738	4314.73
697.927	4355.69
698.116	4404.84
698.305	4281.96
698.494	4374.12
698.683	4191.85
698.872	4263.53
699.061	4279.91
699.25	4273.77
699.438	4093.55
699.627	4251.24
699.816	4327.02
700.005	4232.81
700.193	4118.12
700.382	4187.75
700.571	4054.64
700.76	4212.33
700.948	4109.93
701.137	4161.13
701.326	4044.4
701.514	4167.28
701.703	4019.82
701.892	4152.94
702.08	4200.04
702.269	4032.11
702.457	3985.01
702.646	3989.1
702.834	4042.35
703.023	4056.68
703.212	4075.12
703.4	3989.1
703.589	3954.29
703.777	4114.03
703.965	4038.25
704.154	3942
704.342	4038.25
704.531	3747.44
704.719	3761.78
704.907	3888.75
705.096	3956.33
705.284	3841.65
705.472	3946.09
705.661	3884.66
705.849	3808.88
706.037	3827.31
706.226	3839.6
706.414	3784.3
706.602	3810.93
706.79	3722.87
706.979	3663.47
707.167	3769.97
707.355	3610.23
707.543	3622.52
707.731	3745.39
707.919	3761.78
708.107	3749.49
708.296	3698.29
708.484	3731.06
708.672	3741.3
708.86	3624.56
709.048	3528.31
709.236	3536.5
709.424	3661.43
709.612	3546.74
709.8	3446.39
709.988	3522.16
710.176	3499.64
710.364	3456.63
710.551	3505.78
710.739	3413.62
710.927	3599.99
711.115	3487.35
711.303	3534.45
711.491	3311.22
711.679	3477.11
711.866	3436.15
712.054	3364.47
712.242	3487.35
712.43	3366.52
712.617	3323.51
712.805	3399.29
712.993	3393.14
713.181	3278.46
713.368	3403.38
713.556	3262.07
713.744	3106.43
713.931	3360.38
714.119	3284.6
714.306	3274.36
714.494	3307.13
714.682	3149.43
714.869	3088
715.057	3186.3
715.244	3149.43
715.432	3249.79
715.619	3122.81
715.807	3137.15
715.994	3116.67
716.182	3075.71
716.369	3186.3
716.556	3200.63
716.744	3020.41
716.931	3104.38
717.119	3282.55
717.306	3143.29
717.493	3012.22
717.681	3018.36
717.868	2948.73
718.055	3038.84
718.242	2963.07
718.43	2969.21
718.617	2907.77
718.804	2883.2
718.991	3085.95
719.179	2819.71
719.366	2815.62
719.553	2922.11
719.74	2885.25
719.927	2903.68
720.114	2930.3
720.301	2881.15
720.488	2883.2
720.676	2754.18
720.863	2973.31
721.05	2922.11
721.237	2840.19
721.424	2840.19
721.611	2991.74
721.798	2786.94
721.985	2817.66
722.172	2684.55
722.358	2766.46
722.545	2725.51
722.732	2840.19
722.919	2735.74
723.106	2801.28
723.293	2633.35
723.48	2702.98
723.667	2723.46
723.853	2645.63
724.04	2692.74
724.227	2545.28
724.414	2625.15
724.6	2621.06
724.787	2600.58
724.974	2604.67
725.161	2637.44
725.347	2514.56
725.534	2631.3
725.72	2592.39
725.907	2524.8
726.094	2571.91
726.28	2426.5
726.467	2633.35
726.653	2569.86
726.84	2551.43
727.027	2528.9
727.213	2569.86
727.4	2430.6
727.586	2487.94
727.773	2522.76
727.959	2516.61
728.145	2473.6
728.332	2457.22
728.518	2397.83
728.705	2471.56
728.891	2457.22
729.077	2426.5
729.264	2430.6
729.45	2442.89
729.636	2424.45
729.823	2463.37
730.009	2481.8
730.195	2463.37
730.382	2455.17
730.568	2363.01
730.754	2440.84
730.94	2399.88
731.126	2442.89
731.313	2385.54
731.499	2383.49
731.685	2328.2
731.871	2332.3
732.057	2176.65
732.243	2293.38
732.429	2326.15
732.615	2315.91
732.801	2264.71
732.987	2315.91
733.173	2365.06
733.359	2193.03
733.545	2279.05
733.731	2277
733.917	2219.66
734.103	2193.03
734.289	2266.76
734.475	2225.8
734.661	2340.49
734.847	2250.38
735.033	2221.7
735.219	2193.03
735.404	2240.14
735.59	2195.08
735.776	2111.11
735.962	2188.94
736.148	2193.03
736.333	2252.42
736.519	2094.73
736.705	2111.11
736.89	2090.63
737.076	2102.92
737.262	2037.39
737.447	2066.06
737.633	2096.78
737.819	2127.5
738.004	2037.39
738.19	2012.81
738.375	1951.37
738.561	2160.27
738.747	1949.32
738.932	2031.24
739.118	2014.86
739.303	2021
739.489	2119.31
739.674	1947.28
739.859	1955.47
740.045	1965.71
740.23	2035.34
740.416	1842.83
740.601	2078.35
740.786	2043.53
740.972	1918.61
741.157	1971.85
741.342	1844.88
741.528	1910.41
741.713	1934.99
741.898	1885.84
742.084	1875.6
742.269	2006.67
742.454	1934.99
742.639	1955.47
742.824	1791.63
743.01	1898.13
743.195	1803.92
743.38	1857.17
743.565	1851.02
743.75	1832.59
743.935	1791.63
744.12	1877.65
744.305	1730.19
744.49	1746.58
744.675	1695.38
744.86	1617.55
745.045	1783.44
745.23	1828.49
745.415	1676.95
745.6	1894.03
745.785	1615.51
745.97	1791.63
746.155	1689.23
746.34	1742.48
746.525	1611.41
746.71	1793.68
746.895	1713.81
747.079	1543.83
747.264	1582.74
747.449	1586.83
747.634	1662.61
747.819	1590.93
748.003	1572.5
748.188	1513.11
748.373	1576.59
748.557	1578.64
748.742	1525.4
748.927	1449.62
749.111	1504.92
749.296	1517.2
749.481	1513.11
749.665	1476.24
749.85	1365.65
750.034	1486.48
750.219	1461.91
750.404	1359.51
750.588	1455.76
750.773	1521.3
750.957	1439.38
751.141	1423
751.326	1423
751.51	1375.89
751.695	1341.08
751.879	1408.66
752.064	1447.57
752.248	1351.32
752.432	1414.81
752.617	1343.13
752.801	1339.03
752.985	1324.69
753.17	1341.08
753.354	1267.35
753.538	1304.21
753.722	1246.87
753.907	1171.1
754.091	1267.35
754.275	1324.69
754.459	1298.07
754.643	1214.1
754.828	1281.69
755.012	1236.63
755.196	1263.26
755.38	1218.2
755.564	1156.76
755.748	1220.25
755.932	1179.29
756.116	1244.82
756.3	1150.62
756.484	1103.51
756.668	1152.67
756.852	1115.8
757.036	1029.79
757.22	1123.99
757.404	1144.47
757.588	1085.08
757.772	1134.23
757.956	1152.67
758.14	1205.91
758.323	1058.46
758.507	1095.32
758.691	1080.99
758.875	1056.41
759.059	1046.17
759.242	925.34
759.426	1054.36
759.61	1056.41
759.794	1009.31
759.977	1085.08
760.161	1078.94
760.345	1181.34
760.528	1029.79
760.712	917.15
760.895	1005.21
761.079	992.92
761.263	1007.26
761.446	964.25
761.63	1029.79
761.813	1078.94
761.997	954.01
762.18	902.81
762.364	935.58
762.547	931.48
762.731	1015.45
762.914	925.34
763.098	964.25
763.281	919.2
763.464	911
763.648	911
763.831	921.24
764.015	933.53
764.198	947.87
764.381	874.14
764.564	892.57
764.748	902.81
764.931	845.47
765.114	894.62
765.297	868
765.481	827.04
765.664	816.8
765.847	902.81
766.03	849.57
766.213	890.53
766.397	876.19
766.58	784.03
766.763	915.1
766.946	720.54
767.129	786.08
767.312	792.22
767.495	870.05
767.678	876.19
767.861	796.32
768.044	788.13
768.227	763.55
768.41	857.76
768.593	882.33
768.776	859.81
768.959	800.41
769.142	827.04
769.324	736.93
769.507	704.16
769.69	726.69
769.873	796.32
770.056	857.76
770.239	784.03
770.421	872.09
770.604	732.83
770.787	798.37
770.97	775.84
771.152	743.07
771.335	820.89
771.518	671.39
771.7	824.99
771.883	718.5
772.066	734.88
772.248	687.78
772.431	859.81
772.613	759.46
772.796	601.76
772.978	759.46
773.161	759.46
773.343	734.88
773.526	646.82
773.708	622.24
773.891	642.72
774.073	753.31
774.256	677.54
774.438	622.24
774.621	612
774.803	669.34
774.985	634.53
775.168	745.12
775.35	614.05
775.532	671.39
775.715	638.62
775.897	714.4
776.079	661.15
776.261	589.47
776.444	620.19
776.626	558.75
776.808	581.28
776.99	581.28
777.173	695.97
777.355	642.72
777.537	523.94
777.719	591.52
777.901	579.23
778.083	630.43
778.265	587.43
778.447	677.54
778.629	548.51
778.811	554.66
778.993	646.82
779.175	554.66
779.357	595.62
779.539	546.47
779.721	523.94
779.903	612
780.085	485.03
780.267	513.7
780.449	605.86
780.631	505.51
780.812	505.51
780.994	521.89
781.176	523.94
781.358	548.51
781.54	521.89
781.721	450.21
781.903	517.79
782.085	472.74
782.267	519.84
782.448	497.32
782.63	464.55
782.812	466.6
782.993	515.75
783.175	482.98
783.357	485.03
783.538	485.03
783.72	421.54
783.901	456.36
784.083	456.36
784.264	446.12
784.446	378.53
784.627	329.38
784.809	382.63
784.99	368.29
785.172	470.69
785.353	386.72
785.535	437.92
785.716	448.16
785.897	368.29
786.079	456.36
786.26	399.01
786.441	362.15
786.623	405.16
786.804	401.06
786.985	399.01
787.167	407.2
787.348	374.44
787.529	382.63
787.71	470.69
787.891	407.2
788.073	337.57
788.254	370.34
788.435	458.4
788.616	335.53
788.797	294.57
788.978	323.24
789.159	364.2
789.34	399.01
789.522	335.53
789.703	341.67
789.884	321.19
790.065	288.42
790.246	331.43
790.427	276.13
790.607	349.86
790.788	407.2
790.969	313
791.15	382.63
791.331	310.95
791.512	310.95
791.693	243.37
791.874	335.53
792.054	337.57
792.235	358.05
792.416	306.85
792.597	317.09
792.778	282.28
792.958	259.75
793.139	284.33
793.32	276.13
793.5	226.98
793.681	329.38
793.862	319.14
794.042	251.56
794.223	310.95
794.404	308.9
794.584	243.37
794.765	278.18
794.945	317.09
795.126	259.75
795.306	313
795.487	317.09
795.667	286.37
795.848	282.28
796.028	310.95
796.209	349.86
796.389	292.52
796.57	280.23
796.75	222.89
796.93	333.48
797.111	249.51
797.291	294.57
797.471	265.89
797.652	259.75
797.832	188.07
798.012	302.76
798.192	300.71
798.373	237.22
798.553	284.33
798.733	226.98
798.913	274.09
799.093	194.22
799.274	292.52
799.454	284.33
799.634	292.52
799.814	288.42
799.994	290.47
800.174	237.22
800.354	161.45
800.534	186.02
800.714	276.13
800.894	222.89
801.074	188.07
801.254	220.84
801.434	212.65
801.614	167.59
801.794	231.08
801.974	870.05
802.154	269.99
802.334	267.94
802.514	181.93
802.693	169.64
802.873	204.46
803.053	220.84
803.233	179.88
803.413	269.99
803.592	212.65
803.772	155.3
803.952	175.78
804.131	231.08
804.311	245.41
804.491	214.7
804.67	181.93
804.85	202.41
805.03	210.6
805.209	231.08
805.389	130.73
805.568	153.26
805.748	116.39
805.928	136.87
806.107	229.03
806.287	140.97
806.466	186.02
806.646	157.35
806.825	138.92
807.004	161.45
807.184	128.68
807.363	214.7
807.543	149.16
807.722	161.45
807.901	186.02
808.081	214.7
808.26	165.54
808.439	181.93
808.619	128.68
808.798	95.91
808.977	91.82
809.156	343.72
809.336	102.06
809.515	208.55
809.694	122.54
809.873	81.58
810.052	237.22
810.231	206.5
810.411	145.06
810.59	179.88
810.769	112.3
810.948	122.54
811.127	161.45
811.306	224.94
811.485	161.45
811.664	171.69
811.843	104.11
812.022	186.02
812.201	130.73
812.38	116.39
812.559	140.97
812.737	208.55
812.916	87.72
813.095	143.02
813.274	169.64
813.453	206.5
813.632	114.34
813.811	165.54
813.989	89.77
814.168	130.73
814.347	124.58
814.526	163.5
814.704	149.16
814.883	179.88
815.062	108.2
815.24	214.7
815.419	91.82
815.598	218.79
815.776	32.43
815.955	120.49
816.133	112.3
816.312	106.15
816.49	128.68
816.669	161.45
816.847	108.2
817.026	122.54
817.204	153.26
817.383	169.64
817.561	106.15
817.74	159.4
817.918	128.68
818.097	161.45
818.275	108.2
818.453	196.26
818.632	155.3
818.81	97.96
818.988	104.11
819.167	120.49
819.345	83.63
819.523	71.34
819.701	38.57
819.879	38.57
820.058	-2.39
820.236	120.49
820.414	63.15
820.592	143.02
820.77	93.87
820.948	145.06
821.127	93.87
821.305	63.15
821.483	75.43
821.661	145.06
821.839	102.06
822.017	130.73
822.195	136.87
822.373	73.39
822.551	67.24
822.729	95.91
822.907	116.39
823.085	204.46
823.262	93.87
823.44	71.34
823.618	106.15
823.796	120.49
823.974	140.97
824.152	5.8
824.329	63.15
824.507	114.34
824.685	71.34
824.863	79.53
825.04	77.48
825.218	110.25
825.396	100.01
825.574	116.39
825.751	136.87
825.929	54.95
826.107	5.8
826.284	79.53
826.462	104.11
826.639	59.05
826.817	89.77
826.994	79.53
827.172	-6.49
827.349	136.87
827.527	104.11
827.704	110.25
827.882	106.15
828.059	102.06
828.237	77.48
828.414	32.43
828.591	40.62
828.769	87.72
828.946	38.57
829.124	149.16
829.301	136.87
829.478	104.11
829.655	65.19
829.833	104.11
830.01	54.95
830.187	75.43
830.364	110.25
830.542	100.01
830.719	104.11
830.896	73.39
831.073	97.96
831.25	114.34
831.427	128.68
831.604	54.95
831.782	34.47
831.959	110.25
832.136	128.68
832.313	97.96
832.49	30.38
832.667	79.53
832.844	95.91
833.021	173.74
833.198	50.86
833.374	54.95
833.551	77.48
833.728	11.95
833.905	30.38
834.082	81.58
834.259	71.34
834.436	114.34
834.612	32.43
834.789	95.91
834.966	128.68
835.143	63.15
835.319	46.76
835.496	48.81
835.673	54.95
835.85	79.53
836.026	7.85
836.203	161.45
836.38	83.63
836.556	145.06
836.733	57
836.909	120.49
837.086	73.39
837.262	75.43
837.439	71.34
837.616	46.76
837.792	75.43
837.968	102.06
838.145	65.19
838.321	89.77
838.498	138.92
838.674	79.53
838.851	24.23
839.027	46.76
839.203	22.19
839.38	81.58
839.556	63.15
839.732	24.23
839.909	104.11
840.085	95.91
840.261	24.23
840.437	13.99
840.614	95.91
840.79	50.86
840.966	59.05
841.142	91.82
841.318	30.38
841.494	46.76
841.671	36.52
841.847	100.01
842.023	-12.63
842.199	145.06
842.375	22.19
842.551	38.57
842.727	57
842.903	75.43
843.079	89.77
843.255	97.96
843.431	54.95
843.607	128.68
843.783	-0.34
843.959	22.19
844.134	-2.39
844.31	108.2
844.486	-12.63
844.662	-41.3
844.838	40.62
845.013	28.33
845.189	89.77
845.365	57
845.541	46.76
845.716	26.28
845.892	38.57
846.068	22.19
846.244	71.34
846.419	63.15
846.595	-84.31
846.77	34.47
846.946	9.9
847.122	32.43
847.297	-22.87
847.473	112.3
847.648	46.76
847.824	81.58
847.999	30.38
848.175	54.95
848.35	87.72
848.526	71.34
848.701	104.11
848.876	24.23
849.052	118.44
849.227	-49.49
849.403	34.47
849.578	13.99
849.753	54.95
849.929	32.43
850.104	24.23
850.279	83.63
850.454	57
850.63	24.23
850.805	-6.49
850.98	-61.78
851.155	46.76
851.33	-10.58
851.505	26.28
851.681	128.68
851.856	7.85
852.031	63.15
852.206	13.99
852.381	38.57
852.556	-39.25
852.731	59.05
852.906	42.67
853.081	69.29
853.256	87.72
853.431	1.71
853.606	11.95
853.781	13.99
853.956	5.8
854.131	-10.58
854.305	-33.11
854.48	22.19
854.655	11.95
854.83	42.67
855.005	13.99
855.18	18.09
855.354	26.28
855.529	44.71
855.704	1.71
855.879	40.62
856.053	-47.44
856.228	52.91
856.403	11.95
856.577	26.28
856.752	-61.78
856.926	71.34
857.101	69.29
857.276	30.38
857.45	59.05
857.625	81.58
857.799	69.29
857.974	120.49
858.148	-4.44
858.323	87.72
858.497	-16.73
858.672	38.57
858.846	-8.53
859.02	50.86
859.195	7.85
859.369	61.1
859.543	42.67
859.718	97.96
859.892	26.28
860.066	46.76
860.241	61.1
860.415	46.76
860.589	22.19
860.763	5.8
860.938	-10.58
861.112	24.23
861.286	-18.77
861.46	38.57
861.634	16.04
861.808	48.81
861.982	-51.54
862.157	87.72
862.331	-26.96
862.505	18.09
862.679	9.9
862.853	40.62
863.027	30.38
863.201	89.77
863.375	-26.96
863.549	24.23
863.722	42.67
863.896	153.26
864.07	46.76
864.244	48.81
864.418	-43.35
864.592	91.82
864.766	75.43
864.939	13.99
865.113	63.15
865.287	13.99
865.461	30.38
865.634	67.24
865.808	69.29
865.982	22.19
866.156	-33.11
866.329	-47.44
866.503	-33.11
866.676	89.77
866.85	5.8
867.024	-18.77
867.197	48.81
867.371	46.76
867.544	59.05
867.718	-59.73
867.891	24.23
868.065	57
868.238	-10.58
868.412	-4.44
868.585	32.43
868.759	46.76
868.932	-14.68
869.105	32.43
869.279	54.95
869.452	54.95
869.625	38.57
869.799	-16.73
869.972	-67.92
870.145	30.38
870.319	-31.06
870.492	-20.82
870.665	-14.68
870.838	16.04
871.011	-10.58
871.185	48.81
871.358	18.09
871.531	46.76
871.704	32.43
871.877	50.86
872.05	-43.35
872.223	59.05
872.396	46.76
872.569	-2.39
872.742	-12.63
872.915	16.04
873.088	-22.87
873.261	34.47
873.434	5.8
873.607	32.43
873.78	24.23
873.953	-18.77
874.126	22.19
874.299	65.19
874.471	-14.68
874.644	-8.53
874.817	120.49
874.99	38.57
875.163	13.99
875.335	-45.4
875.508	11.95
875.681	69.29
875.853	-12.63
876.026	32.43
876.199	67.24
876.371	44.71
876.544	24.23
876.717	7.85
876.889	-2.39
877.062	46.76
877.234	11.95
877.407	-31.06
877.579	54.95
877.752	54.95
877.924	16.04
878.097	22.19
878.269	26.28
878.442	18.09
878.614	3.75
878.786	48.81
878.959	32.43
879.131	40.62
879.303	13.99
879.476	30.38
879.648	28.33
879.82	7.85
879.993	-33.11
880.165	24.23
880.337	-67.92
880.509	3.75
880.681	-22.87
880.854	22.19
881.026	30.38
881.198	57
881.37	-26.96
881.542	63.15
881.714	-10.58
881.886	30.38
882.058	85.67
882.23	7.85
882.402	52.91
882.574	95.91
882.746	-12.63
882.918	22.19
883.09	-0.34
883.262	30.38
883.434	46.76
883.606	24.23
883.778	20.14
883.95	71.34
884.122	16.04
884.293	16.04
884.465	-14.68
884.637	30.38
884.809	26.28
884.98	-45.4
885.152	26.28
885.324	30.38
885.496	9.9
885.667	-31.06
885.839	20.14
886.011	57
886.182	-43.35
886.354	1.71
886.525	75.43
886.697	59.05
886.869	42.67
887.04	-22.87
887.212	5.8
887.383	38.57
887.555	73.39
887.726	-29.01
887.897	13.99
888.069	-10.58
888.24	26.28
888.412	-29.01
888.583	-16.73
888.754	48.81
888.926	1.71
889.097	40.62
889.268	7.85
889.44	1.71
889.611	-4.44
889.782	1.71
889.953	-96.6
890.125	48.81
890.296	-26.96
890.467	65.19
890.638	-47.44
890.809	42.67
890.98	-55.64
891.151	-18.77
891.323	22.19
891.494	63.15
891.665	-26.96
891.836	-53.59
892.007	-59.73
892.178	-31.06
892.349	-0.34
892.52	13.99
892.691	-47.44
892.862	54.95
893.032	-49.49
893.203	-10.58
893.374	-14.68
893.545	97.96
893.716	38.57
893.887	153.26
894.057	-18.77
894.228	34.47
894.399	-31.06
894.57	48.81
894.74	22.19
894.911	83.63
895.082	-53.59
895.253	11.95
895.423	-37.2
895.594	-2.39
895.764	-24.92
895.935	-2.39
896.106	26.28
896.276	22.19
896.447	59.05
896.617	-0.34
896.788	-18.77
896.958	-10.58
897.129	-76.12
897.299	-8.53
897.47	30.38
897.64	-10.58
897.81	13.99
897.981	-10.58
898.151	-35.16
898.322	59.05
898.492	9.9
898.662	79.53
898.832	16.04
899.003	22.19
899.173	-2.39
899.343	-22.87
899.513	-0.34
