Data from USB4F104151__207__14-33-22-099.txt Node

Date: Thu Mar 13 14:33:22 EDT 2025
User: louis
Spectrometer: USB4F10415
Trigger mode: 4
Integration Time (sec): 2.500000E-2
Scans to average: 1
Electric dark correction enabled: true
Nonlinearity correction enabled: false
Boxcar width: 0
XAxis mode: Wavelengths
Number of Pixels in Spectrum: 3648
>>>>>Begin Spectral Data<<<<<
178.204	-185.85
178.424	-185.85
178.644	-185.85
178.864	-151.04
179.084	-189.95
179.304	20.99
179.524	-28.16
179.744	12.8
179.964	12.8
180.184	-32.26
180.404	-67.07
180.624	20.99
180.844	29.18
181.064	-50.69
181.283	20.99
181.503	12.8
181.723	47.62
181.943	-26.11
182.163	31.23
182.383	-17.92
182.602	33.28
182.822	-7.68
183.042	47.62
183.262	45.57
183.482	4.61
183.701	8.7
183.921	47.62
184.141	8.7
184.361	41.47
184.58	27.14
184.8	41.47
185.02	102.91
185.239	104.96
185.459	-11.78
185.679	76.29
185.898	-85.5
186.118	80.38
186.338	-42.5
186.557	72.19
186.777	31.23
186.997	66.05
187.216	29.18
187.436	64
187.655	88.57
187.875	90.62
188.095	94.72
188.314	14.85
188.534	41.47
188.753	8.7
188.973	29.18
189.192	96.77
189.412	20.99
189.631	0.51
189.851	-36.35
190.07	6.66
190.29	-1.54
190.509	20.99
190.729	-42.5
190.948	53.76
191.168	135.68
191.387	20.99
191.607	29.18
191.826	-15.87
192.045	-65.02
192.265	31.23
192.484	78.33
192.704	70.14
192.923	-60.93
193.142	78.33
193.362	41.47
193.581	51.71
193.8	86.53
194.02	8.7
194.239	68.09
194.458	57.86
194.678	-3.58
194.897	37.38
195.116	37.38
195.335	96.77
195.555	-3.58
195.774	33.28
195.993	2.56
196.212	8.7
196.432	-5.63
196.651	53.76
196.87	45.57
197.089	29.18
197.308	31.23
197.528	68.09
197.747	6.66
197.966	31.23
198.185	74.24
198.404	66.05
198.623	37.38
198.842	64
199.062	57.86
199.281	86.53
199.5	33.28
199.719	86.53
199.938	88.57
200.157	70.14
200.376	23.04
200.595	57.86
200.814	16.9
201.033	74.24
201.252	53.76
201.471	86.53
201.69	23.04
201.909	66.05
202.128	-11.78
202.347	-19.97
202.566	14.85
202.785	16.9
203.004	-44.54
203.223	55.81
203.442	37.38
203.661	-22.02
203.879	20.99
204.098	80.38
204.317	47.62
204.536	70.14
204.755	111.1
204.974	113.15
205.193	23.04
205.411	39.42
205.63	115.2
205.849	72.19
206.068	-42.5
206.287	33.28
206.505	53.76
206.724	86.53
206.943	45.57
207.162	0.51
207.381	20.99
207.599	64
207.818	53.76
208.037	-19.97
208.255	-24.06
208.474	-22.02
208.693	27.14
208.911	86.53
209.13	-11.78
209.349	111.1
209.567	37.38
209.786	20.99
210.005	111.1
210.223	25.09
210.442	0.51
210.661	-5.63
210.879	14.85
211.098	-7.68
211.316	37.38
211.535	96.77
211.753	23.04
211.972	43.52
212.191	37.38
212.409	129.53
212.628	66.05
212.846	-17.92
213.065	31.23
213.283	145.92
213.502	47.62
213.72	78.33
213.938	6.66
214.157	47.62
214.375	74.24
214.594	55.81
214.812	61.95
215.031	37.38
215.249	-26.11
215.467	53.76
215.686	4.61
215.904	31.23
216.122	78.33
216.341	152.06
216.559	37.38
216.778	119.29
216.996	86.53
217.214	37.38
217.432	-13.82
217.651	102.91
217.869	53.76
218.087	94.72
218.306	68.09
218.524	111.1
218.742	20.99
218.96	-15.87
219.179	39.42
219.397	57.86
219.615	43.52
219.833	39.42
220.051	-1.54
220.27	70.14
220.488	4.61
220.706	23.04
220.924	49.66
221.142	57.86
221.36	121.34
221.578	2.56
221.796	4.61
222.015	39.42
222.233	90.62
222.451	82.43
222.669	31.23
222.887	98.81
223.105	80.38
223.323	4.61
223.541	25.09
223.759	-40.45
223.977	8.7
224.195	127.49
224.413	64
224.631	20.99
224.849	53.76
225.067	47.62
225.285	12.8
225.503	72.19
225.721	-42.5
225.939	29.18
226.157	8.7
226.375	88.57
226.592	-28.16
226.81	57.86
227.028	33.28
227.246	147.97
227.464	57.86
227.682	8.7
227.9	-1.54
228.117	45.57
228.335	94.72
228.553	25.09
228.771	49.66
228.989	61.95
229.206	53.76
229.424	57.86
229.642	82.43
229.86	20.99
230.077	59.9
230.295	39.42
230.513	104.96
230.731	72.19
230.948	61.95
231.166	94.72
231.384	16.9
231.601	70.14
231.819	78.33
232.037	-60.93
232.254	-52.74
232.472	33.28
232.689	-38.4
232.907	29.18
233.125	-52.74
233.342	53.76
233.56	20.99
233.777	29.18
233.995	43.52
234.213	33.28
234.43	82.43
234.648	0.51
234.865	16.9
235.083	4.61
235.3	86.53
235.518	-11.78
235.735	135.68
235.953	31.23
236.17	20.99
236.388	12.8
236.605	82.43
236.822	139.77
237.04	98.81
237.257	86.53
237.475	96.77
237.692	55.81
237.909	14.85
238.127	2.56
238.344	37.38
238.562	86.53
238.779	-54.78
238.996	6.66
239.214	59.9
239.431	86.53
239.648	-13.82
239.865	-17.92
240.083	76.29
240.3	14.85
240.517	47.62
240.735	53.76
240.952	127.49
241.169	6.66
241.386	37.38
241.603	-11.78
241.821	16.9
242.038	45.57
242.255	6.66
242.472	-52.74
242.689	6.66
242.907	47.62
243.124	39.42
243.341	68.09
243.558	20.99
243.775	-1.54
243.992	18.94
244.209	68.09
244.426	109.05
244.643	41.47
244.86	-24.06
245.078	-26.11
245.295	70.14
245.512	45.57
245.729	53.76
245.946	20.99
246.163	39.42
246.38	49.66
246.597	25.09
246.814	-7.68
247.031	-60.93
247.248	45.57
247.464	14.85
247.681	-7.68
247.898	18.94
248.115	53.76
248.332	-60.93
248.549	4.61
248.766	53.76
248.983	74.24
249.2	16.9
249.417	2.56
249.633	55.81
249.85	80.38
250.067	29.18
250.284	37.38
250.501	-3.58
250.717	0.51
250.934	4.61
251.151	33.28
251.368	74.24
251.585	45.57
251.801	-56.83
252.018	64
252.235	55.81
252.451	0.51
252.668	35.33
252.885	66.05
253.102	-11.78
253.318	29.18
253.535	-44.54
253.752	-15.87
253.968	70.14
254.185	-5.63
254.401	6.66
254.618	61.95
254.835	-28.16
255.051	135.68
255.268	78.33
255.484	74.24
255.701	37.38
255.917	61.95
256.134	8.7
256.351	-17.92
256.567	16.9
256.784	100.86
257	45.57
257.217	76.29
257.433	12.8
257.65	113.15
257.866	94.72
258.082	74.24
258.299	64
258.515	88.57
258.732	139.77
258.948	31.23
259.165	14.85
259.381	8.7
259.597	53.76
259.814	-3.58
260.03	119.29
260.246	23.04
260.463	16.9
260.679	55.81
260.895	55.81
261.112	90.62
261.328	-11.78
261.544	23.04
261.761	107.01
261.977	33.28
262.193	0.51
262.409	10.75
262.626	80.38
262.842	20.99
263.058	86.53
263.274	12.8
263.49	78.33
263.707	111.1
263.923	-19.97
264.139	4.61
264.355	25.09
264.571	156.16
264.787	94.72
265.004	119.29
265.22	-3.58
265.436	14.85
265.652	4.61
265.868	33.28
266.084	-24.06
266.3	64
266.516	8.7
266.732	20.99
266.948	4.61
267.164	127.49
267.38	45.57
267.596	39.42
267.812	94.72
268.028	-19.97
268.244	-52.74
268.46	-15.87
268.676	-19.97
268.892	45.57
269.108	23.04
269.324	-38.4
269.54	12.8
269.756	25.09
269.972	51.71
270.188	80.38
270.403	-24.06
270.619	4.61
270.835	16.9
271.051	127.49
271.267	16.9
271.483	57.86
271.698	86.53
271.914	64
272.13	29.18
272.346	-40.45
272.562	88.57
272.777	12.8
272.993	29.18
273.209	-13.82
273.425	20.99
273.64	57.86
273.856	23.04
274.072	51.71
274.287	-19.97
274.503	59.9
274.719	-48.64
274.934	-3.58
275.15	-11.78
275.366	0.51
275.581	-44.54
275.797	23.04
276.012	37.38
276.228	57.86
276.444	41.47
276.659	23.04
276.875	-3.58
277.09	0.51
277.306	80.38
277.521	72.19
277.737	78.33
277.952	47.62
278.168	25.09
278.383	90.62
278.599	-60.93
278.814	78.33
279.03	-7.68
279.245	82.43
279.461	0.51
279.676	111.1
279.892	29.18
280.107	-91.65
280.322	-13.82
280.538	-34.3
280.753	78.33
280.969	70.14
281.184	-36.35
281.399	86.53
281.615	6.66
281.83	49.66
282.045	53.76
282.26	-34.3
282.476	98.81
282.691	53.76
282.906	94.72
283.122	31.23
283.337	94.72
283.552	-11.78
283.767	14.85
283.983	88.57
284.198	-7.68
284.413	25.09
284.628	39.42
284.843	23.04
285.058	92.67
285.274	72.19
285.489	86.53
285.704	102.91
285.919	-19.97
286.134	-11.78
286.349	61.95
286.564	4.61
286.779	47.62
286.995	16.9
287.21	-67.07
287.425	66.05
287.64	-7.68
287.855	33.28
288.07	86.53
288.285	86.53
288.5	2.56
288.715	39.42
288.93	10.75
289.145	47.62
289.36	80.38
289.575	41.47
289.79	125.44
290.004	57.86
290.219	29.18
290.434	70.14
290.649	-52.74
290.864	4.61
291.079	47.62
291.294	14.85
291.509	70.14
291.724	49.66
291.938	20.99
292.153	6.66
292.368	12.8
292.583	37.38
292.798	86.53
293.012	55.81
293.227	45.57
293.442	45.57
293.657	14.85
293.871	51.71
294.086	39.42
294.301	64
294.516	8.7
294.73	37.38
294.945	10.75
295.16	2.56
295.374	41.47
295.589	70.14
295.804	-36.35
296.018	29.18
296.233	78.33
296.447	74.24
296.662	25.09
296.877	27.14
297.091	74.24
297.306	64
297.52	59.9
297.735	20.99
297.949	96.77
298.164	86.53
298.378	70.14
298.593	31.23
298.807	66.05
299.022	6.66
299.236	162.3
299.451	39.42
299.665	88.57
299.88	98.81
300.094	12.8
300.309	57.86
300.523	29.18
300.737	104.96
300.952	-11.78
301.166	41.47
301.381	53.76
301.595	35.33
301.809	53.76
302.024	55.81
302.238	-15.87
302.452	78.33
302.667	64
302.881	16.9
303.095	27.14
303.309	80.38
303.524	8.7
303.738	127.49
303.952	53.76
304.166	78.33
304.381	29.18
304.595	135.68
304.809	2.56
305.023	82.43
305.237	57.86
305.452	119.29
305.666	16.9
305.88	70.14
306.094	37.38
306.308	37.38
306.522	14.85
306.736	37.38
306.95	104.96
307.164	-17.92
307.379	70.14
307.593	43.52
307.807	14.85
308.021	49.66
308.235	72.19
308.449	29.18
308.663	86.53
308.877	90.62
309.091	-28.16
309.305	37.38
309.519	-40.45
309.733	127.49
309.947	-9.73
310.161	135.68
310.374	70.14
310.588	133.63
310.802	-17.92
311.016	49.66
311.23	57.86
311.444	4.61
311.658	16.9
311.872	129.53
312.085	31.23
312.299	119.29
312.513	29.18
312.727	80.38
312.941	-28.16
313.154	-7.68
313.368	2.56
313.582	39.42
313.796	76.29
314.009	78.33
314.223	66.05
314.437	53.76
314.651	-19.97
314.864	78.33
315.078	37.38
315.292	-19.97
315.505	-9.73
315.719	102.91
315.933	107.01
316.146	39.42
316.36	66.05
316.573	12.8
316.787	88.57
317.001	12.8
317.214	61.95
317.428	80.38
317.641	70.14
317.855	53.76
318.068	-15.87
318.282	55.81
318.495	147.97
318.709	37.38
318.922	90.62
319.136	180.73
319.349	55.81
319.563	115.2
319.776	37.38
319.99	37.38
320.203	-22.02
320.417	61.95
320.63	53.76
320.843	57.86
321.057	104.96
321.27	14.85
321.483	70.14
321.697	102.91
321.91	70.14
322.124	23.04
322.337	104.96
322.55	-15.87
322.763	20.99
322.977	61.95
323.19	-28.16
323.403	72.19
323.617	23.04
323.83	78.33
324.043	70.14
324.256	78.33
324.469	-26.11
324.683	59.9
324.896	37.38
325.109	74.24
325.322	39.42
325.535	135.68
325.748	121.34
325.962	47.62
326.175	41.47
326.388	82.43
326.601	37.38
326.814	74.24
327.027	43.52
327.24	135.68
327.453	-44.54
327.666	74.24
327.879	115.2
328.092	23.04
328.305	-15.87
328.518	70.14
328.731	82.43
328.944	94.72
329.157	16.9
329.37	49.66
329.583	78.33
329.796	16.9
330.009	-19.97
330.222	102.91
330.435	127.49
330.648	74.24
330.861	-50.69
331.073	70.14
331.286	72.19
331.499	31.23
331.712	-32.26
331.925	53.76
332.138	57.86
332.35	41.47
332.563	37.38
332.776	72.19
332.989	74.24
333.202	18.94
333.414	43.52
333.627	104.96
333.84	-11.78
334.053	111.1
334.265	61.95
334.478	90.62
334.691	49.66
334.903	61.95
335.116	37.38
335.329	20.99
335.541	74.24
335.754	70.14
335.966	96.77
336.179	16.9
336.392	45.57
336.604	96.77
336.817	39.42
337.029	45.57
337.242	80.38
337.454	76.29
337.667	70.14
337.88	70.14
338.092	29.18
338.305	12.8
338.517	12.8
338.729	57.86
338.942	137.73
339.154	12.8
339.367	-7.68
339.579	70.14
339.792	57.86
340.004	100.86
340.217	23.04
340.429	59.9
340.641	41.47
340.854	25.09
341.066	-28.16
341.278	4.61
341.491	64
341.703	6.66
341.915	-17.92
342.128	25.09
342.34	-7.68
342.552	70.14
342.764	141.82
342.977	80.38
343.189	104.96
343.401	25.09
343.613	20.99
343.826	86.53
344.038	86.53
344.25	51.71
344.462	14.85
344.674	-32.26
344.886	104.96
345.099	119.29
345.311	80.38
345.523	78.33
345.735	33.28
345.947	47.62
346.159	31.23
346.371	-11.78
346.583	72.19
346.795	137.73
347.007	29.18
347.219	6.66
347.431	72.19
347.643	152.06
347.855	2.56
348.067	61.95
348.279	-19.97
348.491	70.14
348.703	80.38
348.915	37.38
349.127	-7.68
349.339	12.8
349.551	53.76
349.763	86.53
349.975	23.04
350.187	104.96
350.399	74.24
350.61	86.53
350.822	20.99
351.034	94.72
351.246	139.77
351.458	16.9
351.669	55.81
351.881	88.57
352.093	162.3
352.305	43.52
352.517	90.62
352.728	143.87
352.94	152.06
353.152	41.47
353.363	6.66
353.575	61.95
353.787	51.71
353.999	119.29
354.21	96.77
354.422	-28.16
354.633	-7.68
354.845	-7.68
355.057	43.52
355.268	-11.78
355.48	84.48
355.692	37.38
355.903	78.33
356.115	12.8
356.326	-30.21
356.538	147.97
356.749	160.25
356.961	131.58
357.172	39.42
357.384	18.94
357.595	152.06
357.807	78.33
358.018	41.47
358.23	102.91
358.441	111.1
358.653	109.05
358.864	12.8
359.075	-48.64
359.287	47.62
359.498	12.8
359.709	64
359.921	37.38
360.132	45.57
360.344	20.99
360.555	55.81
360.766	23.04
360.977	129.53
361.189	92.67
361.4	41.47
361.611	127.49
361.823	41.47
362.034	80.38
362.245	64
362.456	45.57
362.667	98.81
362.879	33.28
363.09	8.7
363.301	29.18
363.512	94.72
363.723	29.18
363.935	14.85
364.146	86.53
364.357	64
364.568	-17.92
364.779	53.76
364.99	152.06
365.201	18.94
365.412	27.14
365.623	-3.58
365.834	102.91
366.045	12.8
366.256	135.68
366.467	55.81
366.678	98.81
366.889	86.53
367.1	61.95
367.311	41.47
367.522	55.81
367.733	61.95
367.944	33.28
368.155	78.33
368.366	90.62
368.577	84.48
368.788	53.76
368.999	-11.78
369.209	102.91
369.42	170.49
369.631	115.2
369.842	80.38
370.053	86.53
370.264	111.1
370.474	59.9
370.685	80.38
370.896	57.86
371.107	143.87
371.317	139.77
371.528	-28.16
371.739	152.06
371.95	86.53
372.16	12.8
372.371	4.61
372.582	102.91
372.792	104.96
373.003	107.01
373.214	8.7
373.424	57.86
373.635	131.58
373.846	80.38
374.056	80.38
374.267	64
374.477	137.73
374.688	43.52
374.898	125.44
375.109	31.23
375.319	-81.41
375.53	70.14
375.74	107.01
375.951	72.19
376.161	76.29
376.372	156.16
376.582	43.52
376.793	53.76
377.003	66.05
377.214	45.57
377.424	88.57
377.635	37.38
377.845	121.34
378.055	158.21
378.266	80.38
378.476	94.72
378.686	49.66
378.897	66.05
379.107	96.77
379.317	64
379.528	39.42
379.738	111.1
379.948	23.04
380.158	111.1
380.369	53.76
380.579	88.57
380.789	78.33
380.999	92.67
381.21	98.81
381.42	240.12
381.63	51.71
381.84	111.1
382.05	94.72
382.261	88.57
382.471	109.05
382.681	70.14
382.891	115.2
383.101	41.47
383.311	64
383.521	61.95
383.731	102.91
383.941	39.42
384.151	12.8
384.361	86.53
384.571	53.76
384.781	29.18
384.991	143.87
385.201	61.95
385.411	115.2
385.621	94.72
385.831	96.77
386.041	27.14
386.251	43.52
386.461	88.57
386.671	47.62
386.881	37.38
387.091	129.53
387.301	82.43
387.511	82.43
387.72	76.29
387.93	123.39
388.14	123.39
388.35	29.18
388.56	25.09
388.769	104.96
388.979	45.57
389.189	29.18
389.399	39.42
389.609	33.28
389.818	70.14
390.028	80.38
390.238	145.92
390.447	84.48
390.657	80.38
390.867	-13.82
391.076	29.18
391.286	94.72
391.496	45.57
391.705	45.57
391.915	121.34
392.125	104.96
392.334	119.29
392.544	121.34
392.753	20.99
392.963	27.14
393.172	115.2
393.382	70.14
393.591	111.1
393.801	119.29
394.01	176.64
394.22	16.9
394.429	98.81
394.639	23.04
394.848	94.72
395.058	111.1
395.267	82.43
395.477	102.91
395.686	98.81
395.895	113.15
396.105	193.02
396.314	100.86
396.524	113.15
396.733	119.29
396.942	102.91
397.152	121.34
397.361	154.11
397.57	133.63
397.78	78.33
397.989	109.05
398.198	143.87
398.407	137.73
398.617	219.64
398.826	154.11
399.035	147.97
399.244	168.45
399.453	127.49
399.663	168.45
399.872	152.06
400.081	145.92
400.29	90.62
400.499	98.81
400.708	162.3
400.917	86.53
401.127	109.05
401.336	127.49
401.545	193.02
401.754	190.97
401.963	168.45
402.172	201.21
402.381	102.91
402.59	180.73
402.799	184.83
403.008	238.08
403.217	104.96
403.426	178.69
403.635	135.68
403.844	221.69
404.053	233.98
404.262	248.32
404.471	330.23
404.68	225.79
404.888	172.54
405.097	242.17
405.306	168.45
405.515	213.5
405.724	242.17
405.933	354.81
406.142	266.75
406.35	291.32
406.559	268.8
406.768	260.6
406.977	299.52
407.185	238.08
407.394	324.09
407.603	328.19
407.812	242.17
408.02	315.9
408.229	283.13
408.438	270.84
408.646	233.98
408.855	348.67
409.064	365.05
409.272	358.91
409.481	424.44
409.69	365.05
409.898	373.24
410.107	475.64
410.315	406.01
410.524	422.39
410.733	451.07
410.941	383.48
411.15	473.59
411.358	510.46
411.567	537.08
411.775	541.18
411.984	520.7
412.192	684.53
412.401	578.04
412.609	662.01
412.818	711.16
413.026	645.62
413.234	711.16
413.443	768.5
413.651	684.53
413.86	782.84
414.068	922.1
414.276	862.71
414.485	897.52
414.693	942.58
414.901	971.25
415.11	1016.3
415.318	930.29
415.526	997.87
415.734	1055.22
415.943	1083.89
416.151	1184.24
416.359	1069.55
416.567	1233.39
416.776	1323.5
416.984	1274.35
417.192	1274.35
417.4	1393.13
417.608	1352.17
417.817	1372.65
418.025	1511.91
418.233	1620.46
418.441	1479.15
418.649	1606.12
418.857	1724.9
419.065	1729
419.273	1753.57
419.481	1890.79
419.689	1937.89
419.897	2060.77
420.105	2009.57
420.313	2068.96
420.521	2232.8
420.729	2175.45
420.937	2390.49
421.145	2552.28
421.353	2517.47
421.561	2642.39
421.769	2666.97
421.977	2826.71
422.185	2666.97
422.393	2920.92
422.601	3092.94
422.809	3072.47
423.017	3254.73
423.224	3381.71
423.432	3408.33
423.64	3486.15
423.848	3840.45
424.056	3637.7
424.263	4018.63
424.471	3887.56
424.679	4041.15
424.887	4135.36
425.094	4348.35
425.302	4475.32
425.51	4600.25
425.718	4585.91
425.925	4827.57
426.133	4846.01
426.341	5161.39
426.548	5562.8
426.756	5439.92
426.964	5353.9
427.171	5689.77
427.379	5878.18
427.586	5996.96
427.794	6037.92
428.001	6566.3
428.209	6775.19
428.417	6539.68
428.624	7057.81
428.832	6971.8
429.039	7190.93
429.247	7072.15
429.454	7711.11
429.662	8071.56
429.869	7524.75
430.076	8395.14
430.284	7942.53
430.491	8442.24
430.699	8888.7
430.906	8808.83
431.114	8884.6
431.321	9253.23
431.528	9462.13
431.736	10160.48
431.943	10502.5
432.15	10211.68
432.358	10332.51
432.565	10834.27
432.772	10781.02
432.979	11309.4
433.187	11561.3
433.394	11563.34
433.601	12265.8
433.808	12341.57
434.016	12454.21
434.223	12681.53
434.43	13713.71
434.637	13375.8
434.844	14385.44
435.052	14432.55
435.259	14385.44
435.466	14496.03
435.673	14225.7
435.88	15210.78
436.087	15859.98
436.294	15986.96
436.501	15677.71
436.708	15849.74
436.915	16632.07
437.122	17072.38
437.329	17207.55
437.537	17744.11
437.743	18014.45
437.95	17570.04
438.157	18757.86
438.364	19554.52
438.571	19362.01
438.778	19345.62
438.985	21174.46
439.192	20252.87
439.399	21076.16
439.606	20558.02
439.813	21674.17
440.02	22964.39
440.227	22763.68
440.433	22448.3
440.64	23238.81
440.847	22753.44
441.054	23681.17
441.261	25069.7
441.467	24760.45
441.674	25262.21
441.881	25944.18
442.088	25882.74
442.294	25831.54
442.501	26308.72
442.708	26771.56
442.914	27813.98
443.121	28893.26
443.328	28170.32
443.534	30232.63
443.741	29624.38
443.948	29069.38
444.154	31242.28
444.361	31060.01
444.568	30957.61
444.774	31229.99
444.981	31500.32
445.187	32559.12
445.394	33966.07
445.6	33595.39
445.807	36065.24
446.013	34568.18
446.22	35405.8
446.426	36874.19
446.633	37085.13
446.839	38561.72
447.046	36939.72
447.252	38985.65
447.459	39004.08
447.665	38782.9
447.871	40585.11
448.078	42512.25
448.284	40288.15
448.491	41078.67
448.697	42811.25
448.903	43351.91
449.11	43595.62
449.316	42788.72
449.522	43784.04
449.728	44777.3
449.935	44676.95
450.141	45428.55
450.347	46016.32
450.553	44468.06
450.76	45219.66
450.966	46577.47
451.172	46161.73
451.378	47535.91
451.584	46161.73
451.791	47722.28
451.997	47302.45
452.203	48254.75
452.409	47953.7
452.615	47816.49
452.821	46014.27
453.027	45598.54
453.233	47965.99
453.44	46350.14
453.646	46589.75
453.852	46583.61
454.058	47935.27
454.264	45842.24
454.47	47179.57
454.676	45789
454.882	47320.88
455.088	43478.89
455.294	44033.89
455.5	44574.55
455.705	45072.21
455.911	43525.99
456.117	42585.97
456.323	42051.45
456.529	39872.42
456.735	41727.88
456.941	40603.54
457.147	39786.4
457.352	38670.26
457.558	38281.14
457.764	38184.89
457.97	37394.37
458.176	36902.86
458.381	36423.64
458.587	34955.24
458.793	34795.5
458.999	33226.76
459.204	35088.36
459.41	34564.08
459.616	32122.9
459.821	32274.45
460.027	32278.55
460.233	31324.19
460.438	29993.01
460.644	29771.83
460.85	28678.22
461.055	27940.95
461.261	28430.41
461.466	26042.48
461.672	25272.45
461.878	26927.21
462.083	25882.74
462.289	24877.19
462.494	24801.41
462.7	23703.7
462.905	23019.68
463.111	23558.3
463.316	23857.3
463.522	23302.3
463.727	23193.76
463.932	23058.59
464.138	22788.26
464.343	22755.49
464.549	22419.63
464.754	23097.5
464.959	22548.65
465.165	22595.75
465.37	21321.91
465.575	21102.78
465.781	21786.8
465.986	21813.43
466.191	21219.52
466.397	20809.92
466.602	19732.69
466.807	20429
467.012	20314.31
467.218	20181.2
467.423	19970.26
467.628	20347.08
467.833	20781.25
468.038	20127.95
468.244	19857.62
468.449	20412.62
468.654	19738.83
468.859	19433.69
469.064	19562.71
469.269	18757.86
469.474	18995.42
469.679	19472.6
469.885	18538.73
470.09	18696.42
470.295	18575.59
470.5	18063.6
470.705	18616.55
470.91	17932.53
471.115	17641.71
471.32	17969.39
471.525	17961.2
471.73	17686.77
471.935	17686.77
472.139	16703.75
472.344	17045.76
472.549	16785.66
472.754	16818.43
472.959	16433.41
473.164	16081.16
473.369	15890.7
473.574	16425.22
473.778	15982.86
473.983	16255.24
474.188	16138.51
474.393	15173.91
474.598	15700.24
474.802	15141.14
475.007	14897.44
475.212	15241.5
475.417	14635.3
475.621	14461.22
475.826	14776.61
476.031	14192.94
476.235	14053.67
476.44	14463.27
476.645	13967.66
476.849	14031.15
477.054	13990.19
477.259	13525.3
477.463	13472.05
477.668	13371.7
477.872	13431.09
478.077	13209.91
478.282	12943.67
478.486	12984.63
478.691	12910.91
478.895	12550.46
479.1	12562.75
479.304	12691.77
479.509	12329.28
479.713	12546.37
479.918	12302.66
480.122	11911.5
480.326	11989.32
480.531	12161.35
480.735	12052.81
480.94	11723.09
481.144	12349.76
481.348	11551.06
481.553	11989.32
481.757	11678.03
481.961	11829.58
482.166	12013.9
482.37	11798.86
482.574	11549.01
482.778	11477.33
482.983	11940.17
483.187	11573.58
483.391	11665.74
483.595	11538.77
483.8	11305.3
484.004	11675.98
484.208	11614.54
484.412	11612.49
484.616	11690.32
484.821	11819.34
485.025	11350.35
485.229	11661.65
485.433	11573.58
485.637	11401.55
485.841	11483.47
486.045	11481.42
486.249	11528.53
486.453	11528.53
486.657	11565.39
486.861	11538.77
487.065	11323.73
487.269	11585.87
487.473	11495.76
487.677	11387.22
487.881	11702.61
488.085	11462.99
488.289	11557.2
488.493	11542.86
488.697	11489.62
488.901	11598.16
489.105	11598.16
489.309	11520.34
489.512	11718.99
489.716	11532.62
489.92	11645.26
490.124	11446.61
490.328	11731.28
490.531	11422.03
490.735	11643.21
490.939	11608.4
491.143	11721.04
491.346	11811.15
491.55	11821.39
491.754	11735.37
491.958	12026.18
492.161	11845.96
492.365	12077.38
492.569	12071.24
492.772	11833.68
492.976	11960.65
493.18	12312.9
493.383	12292.42
493.587	12456.26
493.79	12378.44
493.994	12073.29
494.197	12214.6
494.401	12497.22
494.605	12591.42
494.808	12570.94
495.012	12761.41
495.215	12742.97
495.419	12865.85
495.622	12863.8
495.825	13056.31
496.029	12839.23
496.232	13199.67
496.436	13154.62
496.639	13222.2
496.843	13295.93
497.046	13541.68
497.249	13672.75
497.453	14014.76
497.656	13895.98
497.859	14029.1
498.063	14090.54
498.266	14369.06
498.469	14381.35
498.673	14342.44
498.876	14582.05
499.079	14868.77
499.282	14840.09
499.485	15208.73
499.689	15323.41
499.892	15497.49
500.095	15278.36
500.298	15905.04
500.501	15548.69
500.705	15984.91
500.908	16011.53
501.111	16222.47
501.314	16369.93
501.517	16740.61
501.72	16652.55
501.923	16959.74
502.126	17275.13
502.329	17338.62
502.532	17297.66
502.735	17383.67
502.938	17713.39
503.141	17893.61
503.344	18249.96
503.547	18323.69
503.75	18602.21
503.953	18600.16
504.156	18772.19
504.359	18895.07
504.562	19026.14
504.765	19523.8
504.968	19826.9
505.17	19736.79
505.373	19691.73
505.576	19978.45
505.779	20461.77
505.982	20443.34
506.185	20824.26
506.387	20730.05
506.59	21305.53
506.793	21565.62
506.996	21131.45
507.198	21915.83
507.401	22151.34
507.604	22005.94
507.807	22544.55
508.009	22769.83
508.212	22788.26
508.415	23040.16
508.617	23197.85
508.82	23670.93
509.022	23410.84
509.225	24248.46
509.428	24373.39
509.63	24154.26
509.833	24387.72
510.035	25221.25
510.238	24875.14
510.44	25317.5
510.643	25679.99
510.845	25679.99
511.048	25262.21
511.25	25923.7
511.453	26462.32
511.655	27392.09
511.858	26409.07
512.06	27142.24
512.262	27205.73
512.465	27338.85
512.667	27783.26
512.87	27932.76
513.072	28205.14
513.274	28733.51
513.477	28948.55
513.679	28803.14
513.881	29227.07
514.084	29413.44
514.286	29745.21
514.488	29603.9
514.69	30574.64
514.893	30605.36
515.095	30804.01
515.297	30883.88
515.499	30914.6
515.701	31045.67
515.904	31447.07
516.106	31776.8
516.308	32454.67
516.51	32389.14
516.712	32360.47
516.914	33095.69
517.116	33296.39
517.318	33417.22
517.52	33492.99
517.722	33552.38
517.925	34093.05
518.127	34392.05
518.329	34383.86
518.531	34430.96
518.733	35321.83
518.935	35547.11
519.136	35393.51
519.338	35479.52
519.54	35694.56
519.742	36272.09
519.944	36423.64
520.146	37021.64
520.348	36943.82
520.55	36992.97
520.752	37287.88
520.954	37732.29
521.155	37507.01
521.357	38064.06
521.559	37828.54
521.761	38467.51
521.963	38782.9
522.164	38588.34
522.366	39059.37
522.568	39186.35
522.77	39341.99
522.971	39872.42
523.173	39118.76
523.375	39782.3
523.576	39649.19
523.778	39999.39
523.98	40130.46
524.181	40540.05
524.383	40648.6
524.584	40771.47
524.786	41140.11
524.988	40552.34
525.189	40951.7
525.391	40732.56
525.592	41224.07
525.794	41572.23
525.995	41650.05
526.197	41781.12
526.398	41068.43
526.6	41815.94
526.801	41582.47
527.003	41951.1
527.204	41987.97
527.406	42205.05
527.607	42116.99
527.808	42325.88
528.01	41287.56
528.211	42129.28
528.412	42319.74
528.614	42180.48
528.815	42260.35
529.016	42493.82
529.218	42231.68
529.419	42364.79
529.62	42133.37
529.822	42319.74
530.023	42088.32
530.224	42057.6
530.425	42336.12
530.626	42346.36
530.828	41961.34
531.029	42858.35
531.23	42268.54
531.431	42309.5
531.632	42350.46
531.833	42596.21
532.035	42311.55
532.236	42016.64
532.437	42434.42
532.638	41959.3
532.839	42364.79
533.04	42469.24
533.241	41789.31
533.442	42463.1
533.643	41953.15
533.844	41973.63
534.045	41938.82
534.246	41596.81
534.447	42082.17
534.648	41617.28
534.849	41832.32
535.05	41588.61
535.251	42108.8
535.451	41672.58
535.652	41877.38
535.853	41627.52
536.054	42041.21
536.255	41838.47
536.456	41058.19
536.657	42248.06
536.857	41553.8
537.058	41351.05
537.259	41682.82
537.46	41500.55
537.66	41416.58
537.861	41439.11
538.062	41093
538.263	41035.66
538.463	41246.6
538.664	41060.24
538.865	41052.05
539.065	41357.19
539.266	41019.28
539.466	41115.53
539.667	40791.95
539.868	41527.17
540.068	40972.17
540.269	40896.4
540.469	41179.02
540.67	40574.87
540.87	40572.82
541.071	40951.7
541.271	41054.09
541.472	40859.54
541.672	40423.32
541.873	40574.87
542.073	40308.63
542.274	40667.03
542.474	40320.92
542.675	40435.61
542.875	40867.73
543.075	40499.09
543.276	40128.41
543.476	41090.96
543.676	40654.74
543.877	40458.13
544.077	40509.33
544.277	40513.43
544.478	40142.75
544.678	40423.32
544.878	40435.61
545.078	40181.66
545.279	40173.47
545.479	40265.63
545.679	40570.77
545.879	39931.81
546.079	40003.49
546.28	39651.23
546.48	39831.46
546.68	40140.7
546.88	40269.72
547.08	40550.29
547.28	39944.09
547.48	40304.54
547.68	40148.89
547.88	40019.87
548.081	40044.44
548.281	40218.52
548.481	40216.47
548.681	40830.86
548.881	39749.54
549.081	40124.32
549.28	39993.25
549.48	40146.84
549.68	39880.61
549.88	40140.7
550.08	39956.38
550.28	40179.61
550.48	39806.88
550.68	40327.06
550.88	40003.49
551.08	39917.47
551.279	40048.54
551.479	40097.69
551.679	40157.08
551.879	39983.01
552.079	40089.5
552.278	40402.84
552.478	40302.49
552.678	39976.86
552.878	40138.65
553.077	40327.06
553.277	39806.88
553.477	40568.72
553.676	39757.73
553.876	39923.61
554.076	40126.36
554.275	40120.22
554.475	40036.25
554.674	40144.8
554.874	40249.24
555.074	40058.78
555.273	40470.42
555.473	40380.31
555.672	39980.96
555.872	40021.92
556.071	40368.02
556.271	40869.78
556.47	40441.75
556.67	39976.86
556.869	40353.69
557.068	40568.72
557.268	39894.94
557.467	40511.38
557.667	40691.6
557.866	40583.06
558.065	40355.74
558.265	40519.57
558.464	40124.32
558.663	40789.91
558.863	39968.67
559.062	40619.92
559.261	39720.87
559.461	40976.27
559.66	39948.19
559.859	40277.91
560.058	40286.11
560.258	40189.85
560.457	40191.9
560.656	40249.24
560.855	40322.97
561.054	40261.53
561.253	39995.29
561.453	39985.05
561.652	39925.66
561.851	40523.67
562.05	40107.93
562.249	40185.75
562.448	40421.27
562.647	39915.42
562.846	40130.46
563.045	40032.16
563.244	39851.94
563.443	40322.97
563.642	39446.44
563.841	39663.52
564.04	39389.09
564.239	39886.75
564.438	39018.41
564.637	39481.25
564.836	39647.14
565.035	39194.54
565.234	39430.05
565.432	39268.26
565.631	39272.36
565.83	39591.84
566.029	39473.06
566.228	39485.35
566.427	39061.42
566.625	38913.97
566.824	38666.16
567.023	39323.56
567.222	38813.62
567.42	39337.9
567.619	39002.03
567.818	38948.78
568.016	39006.12
568.215	39104.43
568.414	38774.7
568.612	38588.34
568.811	38795.18
569.01	38490.04
569.208	37973.95
569.407	38672.31
569.605	38186.94
569.804	38479.8
570.002	38035.39
570.201	38416.31
570.4	37869.5
570.598	38383.54
570.797	37889.98
570.995	37937.09
571.193	37601.22
571.392	37924.8
571.59	37711.81
571.789	37775.3
571.987	37701.57
572.186	37242.82
572.384	37138.38
572.582	37005.26
572.781	37257.16
572.979	36667.34
573.177	37197.77
573.376	37339.08
573.574	36894.67
573.772	36872.14
573.971	36630.48
574.169	36333.53
574.367	36497.36
574.565	36634.58
574.763	36218.84
574.962	36136.92
575.16	35725.28
575.358	36343.77
575.556	35422.18
575.754	35880.92
575.952	35176.42
576.151	35704.8
576.349	34795.5
576.547	35121.13
576.745	35352.55
576.943	35272.68
577.141	34893.8
577.339	35387.36
577.537	35055.59
577.735	34893.8
577.933	34510.83
578.131	35112.94
578.329	34811.88
578.527	34355.19
578.725	34617.33
578.923	34414.58
579.121	34023.42
579.319	33955.83
579.516	34547.7
579.714	34015.22
579.912	33882.11
580.11	33851.39
580.308	33812.48
580.506	34058.23
580.704	33470.47
580.901	34101.24
581.099	33826.81
581.297	33005.58
581.495	33222.66
581.692	33476.61
581.89	33005.58
582.088	33257.48
582.285	33286.15
582.483	33120.26
582.681	33091.59
582.878	32790.54
583.076	32514.06
583.274	32866.31
583.471	32333.84
583.669	32581.65
583.866	32188.44
584.064	32008.22
584.262	32282.64
584.459	32591.89
584.657	32245.78
584.854	32426
585.052	31936.54
585.249	32059.41
585.447	31815.71
585.644	31350.82
585.841	31660.06
586.039	31848.47
586.236	31492.13
586.434	31146.02
586.631	31139.88
586.828	31303.71
587.026	31246.37
587.223	31004.71
587.42	31115.3
587.618	31567.9
587.815	30875.69
588.012	30849.07
588.21	30525.49
588.407	30890.02
588.604	30894.12
588.801	30623.79
588.999	30650.41
589.196	30154.8
589.393	30480.43
589.59	30013.49
589.787	30316.59
589.984	30142.52
590.182	29603.9
590.379	30013.49
590.576	29511.74
590.773	30070.84
590.97	29896.76
591.167	29890.62
591.364	29339.71
591.561	29628.48
591.758	29626.43
591.955	29311.04
592.152	29757.5
592.349	29481.02
592.546	29294.66
592.743	29337.66
592.94	29112.39
593.137	29233.22
593.334	29245.51
593.531	28815.43
593.727	29104.2
593.924	28864.58
594.121	28620.88
594.318	29024.33
594.515	28311.63
594.712	29188.16
594.908	28559.44
595.105	28801.1
595.302	28448.85
595.499	28733.51
595.696	28829.77
595.892	28201.04
596.089	28315.73
596.286	28393.55
596.482	28485.71
596.679	28491.85
596.876	28581.96
597.072	28131.41
597.269	28344.4
597.466	28147.79
597.662	28242
597.859	28321.87
598.055	28184.66
598.252	28178.51
598.448	28145.75
598.645	27863.13
598.841	27916.37
599.038	27789.4
599.234	27938.9
599.431	27699.29
599.627	27883.61
599.824	28317.78
600.02	27764.82
600.217	27803.74
600.413	27926.61
600.609	27904.09
600.806	27881.56
601.002	28229.71
601.198	27420.77
601.395	27748.44
601.591	27709.53
601.787	27897.94
601.984	27768.92
602.18	27949.14
602.376	27803.74
602.572	27521.12
602.769	27500.64
602.965	27598.94
603.161	27770.97
603.357	27496.54
603.553	27508.83
603.75	27639.9
603.946	27613.27
604.142	27734.1
604.338	27361.37
604.534	27744.34
604.73	27650.14
604.926	27756.63
605.122	27988.05
605.318	27605.08
605.514	27336.8
605.71	27424.86
605.906	27672.67
606.102	27336.8
606.298	27861.08
606.494	27519.07
606.69	27533.4
606.886	27707.48
607.082	27572.32
607.278	28006.48
607.474	27629.66
607.67	27973.72
607.866	27320.42
608.062	28162.13
608.257	27594.84
608.453	27856.98
608.649	28201.04
608.845	27674.71
609.041	27836.5
609.236	27781.21
609.432	27615.32
609.628	27953.24
609.824	27990.1
610.019	27775.06
610.215	27936.85
610.411	28160.08
610.606	28096.6
610.802	27863.13
610.998	28047.44
611.193	27760.73
611.389	27805.78
611.584	28299.34
611.78	27889.75
611.976	28264.53
612.171	28207.19
612.367	28344.4
612.562	27744.34
612.758	27752.54
612.953	28108.88
613.149	28203.09
613.344	27977.81
613.539	28520.52
613.735	28018.77
613.93	28266.58
614.126	28405.84
614.321	28266.58
614.517	28385.36
614.712	28403.79
614.907	28387.41
615.103	28672.07
615.298	27961.43
615.493	28706.89
615.688	27852.89
615.884	28594.25
616.079	28145.75
616.274	28493.9
616.47	28080.21
616.665	28364.88
616.86	28293.2
617.055	28237.91
617.25	27852.89
617.445	28403.79
617.641	27768.92
617.836	28108.88
618.031	27873.37
618.226	28121.17
618.421	27613.27
618.616	28108.88
618.811	27580.51
619.006	28082.26
619.201	27099.23
619.396	27850.84
619.591	27388
619.786	27607.13
619.981	27226.21
620.176	27281.5
620.371	27027.56
620.566	27215.97
620.761	27005.03
620.956	27422.81
621.151	26873.96
621.346	27082.85
621.541	26464.36
621.735	26814.57
621.93	26669.16
622.125	26499.18
622.32	26181.74
622.515	26499.18
622.709	26095.73
622.904	26464.36
623.099	25790.58
623.294	25972.85
623.488	25497.72
623.683	25755.77
623.878	25260.16
624.072	25577.59
624.267	25536.63
624.462	25344.13
624.656	24977.54
624.851	25100.42
625.046	25010.31
625.24	24762.5
625.435	24768.65
625.629	24582.28
625.824	24418.44
626.018	24633.48
626.213	24211.6
626.407	24109.2
626.602	23771.29
626.796	23869.59
626.991	23957.65
627.185	23599.26
627.38	23582.87
627.574	23384.22
627.768	23316.64
627.963	23001.25
628.157	23183.52
628.352	22982.82
628.546	22440.11
628.74	23156.89
628.935	22618.28
629.129	22407.34
629.323	22165.68
629.517	22323.37
629.712	22073.52
629.906	22384.81
630.1	22077.62
630.294	21840.05
630.489	21901.49
630.683	21983.41
630.877	21495.99
631.071	21549.24
631.265	21430.46
631.459	21311.67
631.653	21305.53
631.848	21321.91
632.042	20938.94
632.236	20900.03
632.43	20603.08
632.624	20934.85
632.818	20783.3
633.012	20459.72
633.206	20504.78
633.4	20691.14
633.594	20103.37
633.788	20230.35
633.982	20437.19
634.176	20035.79
634.369	20101.33
634.563	19722.45
634.757	19632.34
634.951	19546.33
635.145	19577.05
635.339	19437.78
635.533	19255.51
635.726	19263.71
635.92	18929.89
636.114	18901.22
636.308	18915.55
636.501	18999.52
636.695	18788.58
636.889	18624.74
637.083	18520.29
637.276	18370.79
637.47	18206.95
637.664	18264.3
637.857	17864.94
638.051	17836.27
638.244	17891.57
638.438	17754.35
638.632	17676.53
638.825	17500.4
639.019	17631.47
639.212	17172.73
639.406	17273.08
639.599	17262.84
639.793	17301.75
639.986	16969.98
640.18	17010.94
640.373	16918.78
640.567	16322.82
640.76	16537.86
640.954	16513.28
641.147	16417.03
641.34	16531.72
641.534	16398.6
641.727	16371.97
641.92	16218.38
642.114	16101.64
642.307	15978.76
642.5	15956.24
642.694	15456.53
642.887	15446.29
643.08	15499.54
643.273	15343.89
643.467	15315.22
643.66	15137.05
643.853	15147.29
644.046	14962.97
644.239	15005.98
644.432	14774.56
644.626	14741.79
644.819	14803.23
645.012	14569.76
645.205	14678.3
645.398	14461.22
645.591	14520.61
645.784	14252.33
645.977	14199.08
646.17	14246.18
646.363	14149.93
646.556	13803.82
646.749	14135.59
646.942	13836.59
647.135	13787.44
647.328	13793.58
647.521	13564.21
647.714	13343.03
647.907	13414.71
648.099	13496.63
648.292	13340.98
648.485	13453.62
648.678	12986.68
648.871	13156.66
649.064	13005.11
649.256	12937.53
649.449	12818.75
649.642	12726.59
649.835	12800.32
650.027	12540.22
650.22	12310.85
650.413	12335.43
650.605	12552.51
650.798	12603.71
650.991	12257.6
651.183	12220.74
651.376	11979.08
651.568	11952.46
651.761	11899.21
651.954	12020.04
652.146	11852.11
652.339	11743.56
652.531	11825.48
652.724	11698.51
652.916	11399.51
653.109	11639.12
653.301	11682.13
653.494	11450.71
653.686	11352.4
653.879	11333.97
654.071	11211.09
654.263	11053.4
654.456	11172.18
654.648	11057.5
654.84	10858.84
655.033	10994.01
655.225	10840.41
655.417	10844.51
655.61	10869.08
655.802	10711.39
655.994	10586.46
656.186	10711.39
656.379	10422.62
656.571	10647.9
656.763	10176.87
656.955	10318.18
657.148	10475.87
657.34	10307.94
657.532	10238.31
657.724	10113.38
657.916	10180.96
658.108	9961.83
658.3	9884.01
658.492	9892.2
658.684	9935.21
658.876	9828.71
659.068	9914.73
659.26	9771.37
659.452	9654.64
659.644	9679.21
659.836	9447.79
660.028	9832.81
660.22	9445.74
660.412	9314.67
660.604	9249.14
660.796	9306.48
660.988	9220.47
661.18	9023.86
661.372	8987
661.563	8933.75
661.755	8974.71
661.947	8874.36
662.139	8919.42
662.331	8819.07
662.522	8733.05
662.714	8849.78
662.906	8911.22
663.097	8782.2
663.289	8763.77
663.481	8561.02
663.673	8804.73
663.864	8534.4
664.056	8419.71
664.247	8432
664.439	8243.59
664.631	8223.11
664.822	8343.94
665.014	8151.43
665.205	8126.85
665.397	8077.7
665.588	8106.37
665.78	7995.78
665.971	8022.41
666.163	8073.6
666.354	7657.87
666.546	7772.55
666.737	7815.56
666.929	7633.29
667.12	7731.59
667.311	7735.69
667.503	7655.82
667.694	7770.51
667.885	7717.26
668.077	7545.23
668.268	7580.04
668.459	7412.11
668.651	7387.54
668.842	7631.24
669.033	7473.55
669.224	7385.49
669.416	7322
669.607	7272.85
669.798	7168.4
669.989	7233.94
670.18	7156.11
670.371	7076.24
670.563	7041.43
670.754	7283.09
670.945	6865.3
671.136	6975.89
671.327	6994.33
671.518	6795.67
671.709	7008.66
671.9	7125.4
672.091	6904.21
672.282	6810.01
672.473	6762.9
672.664	6740.38
672.855	6640.03
673.046	6613.4
673.237	6844.82
673.428	6590.88
673.619	6625.69
673.809	6631.83
674	6586.78
674.191	6549.92
674.382	6459.81
674.573	6535.58
674.764	6537.63
674.954	6556.06
675.145	6451.61
675.336	6375.84
675.527	6267.3
675.717	6394.27
675.908	6220.19
676.099	6248.86
676.289	6324.64
676.48	6435.23
676.671	6248.86
676.861	6328.74
677.052	6173.09
677.243	6252.96
677.433	6207.91
677.624	6224.29
677.814	6031.78
678.005	6048.16
678.195	5970.34
678.386	6117.79
678.576	6023.59
678.767	6146.47
678.957	5992.87
679.148	6025.64
679.338	5964.2
679.529	5874.09
679.719	6009.25
679.909	6074.79
680.1	5935.53
680.29	5872.04
680.481	5855.65
680.671	5943.72
680.861	6003.11
681.052	5841.32
681.242	5874.09
681.432	5726.63
681.622	5800.36
681.813	5837.22
682.003	5857.7
682.193	5824.94
682.383	5798.31
682.573	5931.43
682.764	5786.02
682.954	5771.69
683.144	5732.78
683.334	5792.17
683.524	5867.94
683.714	5697.96
683.904	5583.27
684.094	5722.54
684.284	5640.62
684.474	5667.24
684.664	5624.23
684.854	5650.86
685.044	5536.17
685.234	5616.04
685.424	5521.84
685.614	5583.27
685.804	5437.87
685.994	5554.6
686.184	5409.2
686.374	5521.84
686.564	5345.71
686.753	5570.99
686.943	5419.44
687.133	5423.53
687.323	5333.42
687.513	5550.51
687.702	5175.73
687.892	5314.99
688.082	5331.37
688.272	5216.69
688.461	5228.98
688.651	5345.71
688.841	5249.46
689.03	5233.07
689.22	5145.01
689.41	5145.01
689.599	5153.2
689.789	5284.27
689.979	5165.49
690.168	5075.38
690.358	5175.73
690.547	5173.68
690.737	5052.85
690.926	5044.66
691.116	4952.5
691.305	5087.67
691.495	4870.58
691.684	4919.73
691.874	5024.18
692.063	5042.61
692.252	5030.32
692.442	4884.92
692.631	4889.01
692.82	4891.06
693.01	5042.61
693.199	4823.48
693.388	4716.98
693.578	4864.44
693.767	4854.2
693.956	4766.14
694.146	4895.16
694.335	4714.94
694.524	4805.05
694.713	4776.38
694.902	4796.85
695.092	4747.7
695.281	4686.26
695.47	4764.09
695.659	4727.22
695.848	4743.61
696.037	4610.49
696.226	4757.94
696.415	4719.03
696.604	4747.7
696.793	4528.57
696.982	4600.25
697.171	4551.1
697.36	4594.11
697.549	4518.33
697.738	4508.09
697.927	4571.58
698.116	4469.18
698.305	4452.8
698.494	4553.15
698.683	4540.86
698.872	4463.04
699.061	4444.6
699.25	4463.04
699.438	4477.37
699.627	4305.34
699.816	4317.63
700.005	4436.41
700.193	4393.4
700.382	4356.54
700.571	4428.22
700.76	4413.88
700.948	4293.05
701.137	4379.07
701.326	4182.46
701.514	4198.85
701.703	4170.18
701.892	4237.76
702.08	4280.77
702.269	4262.33
702.457	4092.35
702.646	4157.89
702.834	4151.74
703.023	4094.4
703.212	4174.27
703.4	4125.12
703.589	4145.6
703.777	4084.16
703.965	4116.93
704.154	4217.28
704.342	4131.26
704.531	4067.78
704.719	4004.29
704.907	4059.59
705.096	4024.77
705.284	4118.98
705.472	3936.71
705.661	4010.43
705.849	4004.29
706.037	4035.01
706.226	3961.28
706.414	4047.3
706.602	3983.81
706.79	3985.86
706.979	3895.75
707.167	4069.83
707.355	3779.01
707.543	3908.04
707.731	3897.8
707.919	3871.17
708.107	3686.86
708.296	3781.06
708.484	3819.97
708.672	3758.53
708.86	3785.16
709.048	3842.5
709.236	3781.06
709.424	3742.15
709.612	3705.29
709.8	3772.87
709.988	3733.96
710.176	3619.27
710.364	3715.53
710.551	3684.81
710.739	3705.29
710.927	3619.27
711.115	3797.45
711.303	3647.94
711.491	3604.94
711.679	3590.6
711.866	3715.53
712.054	3578.31
712.242	3510.73
712.43	3543.5
712.617	3365.32
712.805	3480.01
712.993	3445.2
713.181	3445.2
713.368	3580.36
713.556	3633.61
713.744	3391.95
713.931	3543.5
714.119	3371.47
714.306	3410.38
714.494	3357.13
714.682	3469.77
714.869	3383.76
715.057	3371.47
715.244	3285.45
715.432	3318.22
715.619	3355.08
715.807	3236.3
715.994	3166.67
716.182	3277.26
716.369	3324.37
716.556	3289.55
716.744	3267.02
716.931	3389.9
717.119	3264.97
717.306	3447.24
717.493	3289.55
717.681	3256.78
717.868	3412.43
718.055	3391.95
718.242	3234.25
718.43	3121.62
718.617	3170.77
718.804	3133.9
718.991	3172.82
719.179	3297.74
719.366	3135.95
719.553	3150.29
719.74	3068.37
719.927	3035.6
720.114	3000.79
720.301	3103.18
720.488	2978.26
720.676	3011.03
720.863	3101.14
721.05	3086.8
721.237	3109.33
721.424	3002.83
721.611	3084.75
721.798	2974.16
721.985	2963.92
722.172	2836.95
722.358	2970.07
722.545	3015.12
722.732	2947.54
722.919	3002.83
723.106	2873.81
723.293	2931.16
723.48	2945.49
723.667	2920.92
723.853	2965.97
724.04	2904.53
724.227	2865.62
724.414	3019.22
724.6	2832.85
724.787	2808.28
724.974	2855.38
725.161	2894.29
725.347	2847.19
725.534	2646.49
725.72	2890.2
725.907	2765.27
726.094	2929.11
726.28	2804.18
726.467	2703.83
726.653	2836.95
726.84	2736.6
727.027	2806.23
727.213	2652.63
727.4	2789.85
727.586	2759.13
727.773	2718.17
727.959	2757.08
728.145	2646.49
728.332	2589.14
728.518	2646.49
728.705	2732.5
728.891	2748.89
729.077	2646.49
729.264	2691.54
729.45	2601.43
729.636	2677.21
729.823	2642.39
730.009	2767.32
730.195	2548.19
730.382	2554.33
730.568	2572.76
730.754	2593.24
730.94	2527.71
731.126	2570.71
731.313	2650.58
731.499	2466.27
731.685	2533.85
731.871	2519.51
732.057	2615.77
732.243	2626.01
732.429	2580.95
732.615	2474.46
732.801	2537.95
732.987	2505.18
733.173	2494.94
733.359	2548.19
733.545	2314.72
733.731	2415.07
733.917	2626.01
734.103	2460.12
734.289	2388.44
734.475	2423.26
734.661	2462.17
734.847	2472.41
735.033	2451.93
735.219	2384.35
735.404	2374.11
735.59	2462.17
735.776	2339.29
735.962	2341.34
736.148	2372.06
736.333	2453.98
736.519	2458.07
736.705	2413.02
736.89	2361.82
737.076	2374.11
737.262	2396.64
737.447	2388.44
737.633	2234.85
737.819	2363.87
738.004	2347.48
738.19	2445.79
738.375	2347.48
738.561	2226.65
738.747	2306.52
738.932	2228.7
739.118	2316.76
739.303	2374.11
739.489	2284
739.674	2232.8
739.859	2261.47
740.045	2208.22
740.23	2298.33
740.416	2253.28
740.601	2304.48
740.786	2294.24
740.972	2159.07
741.157	2068.96
741.342	2093.54
741.528	2003.43
741.713	2226.65
741.898	2167.26
742.084	2114.02
742.269	2150.88
742.454	2159.07
742.639	2126.3
742.824	2071.01
743.01	2111.97
743.195	2114.02
743.38	2083.3
743.565	2007.52
743.75	1987.04
743.935	1917.41
744.12	2138.59
744.305	1915.36
744.49	2015.71
744.675	2019.81
744.86	1991.14
745.045	1894.88
745.23	2073.06
745.415	1913.31
745.6	1978.85
745.785	1960.42
745.97	1948.13
746.155	1894.88
746.34	1929.7
746.525	1896.93
746.71	1894.88
746.895	1761.77
747.079	1806.82
747.264	1913.31
747.449	1753.57
747.634	1800.68
747.819	1821.16
748.003	1841.64
748.188	1806.82
748.373	1688.04
748.557	1913.31
748.742	1667.56
748.927	1757.67
749.111	1767.91
749.296	1626.6
749.481	1726.95
749.665	1677.8
749.85	1679.85
750.034	1628.65
750.219	1659.37
750.404	1712.61
750.588	1597.93
750.773	1606.12
750.957	1620.46
751.141	1540.58
751.326	1683.94
751.51	1544.68
751.695	1577.45
751.879	1436.14
752.064	1616.36
752.248	1520.1
752.432	1565.16
752.617	1559.02
752.801	1556.97
752.985	1438.19
753.17	1511.91
753.354	1495.53
753.538	1481.19
753.722	1440.23
753.907	1479.15
754.091	1384.94
754.275	1417.71
754.459	1391.08
754.643	1350.12
754.828	1366.51
755.012	1405.42
755.196	1284.59
755.38	1352.17
755.564	1360.36
755.748	1305.07
755.932	1311.21
756.116	1395.18
756.3	1331.69
756.484	1282.54
756.668	1331.69
756.852	1282.54
757.036	1260.01
757.22	1356.27
757.404	1233.39
757.588	1178.09
757.772	1282.54
757.956	1229.29
758.14	1315.31
758.323	1217.01
758.507	1391.08
758.691	1184.24
758.875	1235.44
759.059	1202.67
759.242	1069.55
759.426	1182.19
759.61	1077.74
759.794	1198.57
759.977	1137.13
760.161	1274.35
760.345	1169.9
760.528	1143.28
760.712	1057.26
760.895	1081.84
761.079	1077.74
761.263	1044.98
761.446	1053.17
761.63	1004.02
761.813	1065.46
761.997	1085.94
762.18	1044.98
762.364	1044.98
762.547	991.73
762.731	1090.03
762.914	1077.74
763.098	1020.4
763.281	1079.79
763.464	1087.98
763.648	1118.7
763.831	1012.21
764.015	1020.4
764.198	1014.26
764.381	1040.88
764.564	1008.11
764.748	940.53
764.931	930.29
765.114	999.92
765.297	1040.88
765.481	971.25
765.664	979.44
765.847	920.05
766.03	1030.64
766.213	848.37
766.397	958.96
766.58	913.91
766.763	938.48
766.946	1020.4
767.129	895.47
767.312	997.87
767.495	868.85
767.678	907.76
767.861	971.25
768.044	897.52
768.227	944.63
768.41	881.14
768.593	907.76
768.776	889.33
768.959	971.25
769.142	866.8
769.324	889.33
769.507	891.38
769.69	885.23
769.873	915.95
770.056	881.14
770.239	893.43
770.421	848.37
770.604	881.14
770.787	883.19
770.97	762.36
771.152	807.41
771.335	815.6
771.518	807.41
771.7	885.23
771.883	838.13
772.066	795.12
772.248	891.38
772.431	782.84
772.613	877.04
772.796	836.08
772.978	831.99
773.161	758.26
773.343	803.32
773.526	735.73
773.708	768.5
773.891	764.4
774.073	897.52
774.256	768.5
774.438	842.23
774.621	844.28
774.803	748.02
774.985	717.3
775.168	795.12
775.35	750.07
775.532	700.92
775.715	745.97
775.897	750.07
776.079	770.55
776.261	725.49
776.444	692.73
776.626	748.02
776.808	709.11
776.99	711.16
777.173	709.11
777.355	707.06
777.537	682.49
777.719	692.73
777.901	627.19
778.083	729.59
778.265	578.04
778.447	651.77
778.629	610.81
778.811	688.63
778.993	606.71
779.175	670.2
779.357	643.57
779.539	627.19
779.721	721.4
779.903	625.14
780.085	633.33
780.267	727.54
780.449	608.76
780.631	606.71
780.812	680.44
780.994	506.36
781.176	547.32
781.358	614.9
781.54	610.81
781.721	629.24
781.903	569.85
782.085	598.52
782.267	625.14
782.448	557.56
782.63	465.4
782.812	604.66
782.993	557.56
783.175	524.79
783.357	477.69
783.538	537.08
783.72	504.31
783.901	516.6
784.083	471.54
784.264	467.45
784.446	481.78
784.627	473.59
784.809	481.78
784.99	496.12
785.172	498.17
785.353	553.46
785.535	492.02
785.716	418.3
785.897	477.69
786.079	604.66
786.26	483.83
786.441	514.55
786.623	365.05
786.804	451.07
786.985	410.11
787.167	408.06
787.348	418.3
787.529	381.43
787.71	522.74
787.891	393.72
788.073	406.01
788.254	385.53
788.435	508.41
788.616	367.1
788.797	397.82
788.978	414.2
789.159	471.54
789.34	377.34
789.522	395.77
789.703	381.43
789.884	375.29
790.065	373.24
790.246	434.68
790.427	444.92
790.607	375.29
790.788	389.63
790.969	389.63
791.15	414.2
791.331	365.05
791.512	383.48
791.693	276.99
791.874	299.52
792.054	492.02
792.235	397.82
792.416	256.51
792.597	348.67
792.778	438.78
792.958	373.24
793.139	393.72
793.32	346.62
793.5	315.9
793.681	389.63
793.862	289.28
794.042	340.47
794.223	285.18
794.404	233.98
794.584	244.22
794.765	276.99
794.945	293.37
795.126	326.14
795.306	274.94
795.487	262.65
795.667	258.56
795.848	373.24
796.028	299.52
796.209	328.19
796.389	414.2
796.57	276.99
796.75	262.65
796.93	301.56
797.111	184.83
797.291	270.84
797.471	324.09
797.652	322.04
797.832	227.84
798.012	268.8
798.192	211.45
798.373	258.56
798.553	225.79
798.733	303.61
798.913	238.08
799.093	283.13
799.274	332.28
799.454	268.8
799.634	260.6
799.814	242.17
799.994	268.8
800.174	242.17
800.354	152.06
800.534	180.73
800.714	262.65
800.894	270.84
801.074	246.27
801.254	236.03
801.434	285.18
801.614	207.36
801.794	176.64
801.974	905.71
802.154	201.21
802.334	279.04
802.514	215.55
802.693	221.69
802.873	250.36
803.053	238.08
803.233	266.75
803.413	193.02
803.592	209.4
803.772	193.02
803.952	219.64
804.131	242.17
804.311	205.31
804.491	238.08
804.67	143.87
804.85	162.3
805.03	266.75
805.209	238.08
805.389	147.97
805.568	217.6
805.748	193.02
805.928	313.85
806.107	195.07
806.287	244.22
806.466	219.64
806.646	147.97
806.825	248.32
807.004	225.79
807.184	176.64
807.363	260.6
807.543	125.44
807.722	139.77
807.901	162.3
808.081	225.79
808.26	170.49
808.439	233.98
808.619	244.22
808.798	176.64
808.977	242.17
809.156	248.32
809.336	150.01
809.515	201.21
809.694	160.25
809.873	121.34
810.052	219.64
810.231	236.03
810.411	168.45
810.59	262.65
810.769	209.4
810.948	268.8
811.127	70.14
811.306	178.69
811.485	107.01
811.664	176.64
811.843	197.12
812.022	178.69
812.201	72.19
812.38	119.29
812.559	233.98
812.737	219.64
812.916	123.39
813.095	205.31
813.274	221.69
813.453	127.49
813.632	158.21
813.811	221.69
813.989	0.51
814.168	166.4
814.347	184.83
814.526	94.72
814.704	170.49
814.883	221.69
815.062	104.96
815.24	186.88
815.419	168.45
815.598	205.31
815.776	160.25
815.955	57.86
816.133	88.57
816.312	147.97
816.49	90.62
816.669	113.15
816.847	141.82
817.026	104.96
817.204	129.53
817.383	164.35
817.561	141.82
817.74	197.12
817.918	201.21
818.097	107.01
818.275	184.83
818.453	170.49
818.632	182.78
818.81	160.25
818.988	131.58
819.167	119.29
819.345	168.45
819.523	160.25
819.701	121.34
819.879	152.06
820.058	176.64
820.236	160.25
820.414	61.95
820.592	94.72
820.77	90.62
820.948	64
821.127	96.77
821.305	127.49
821.483	25.09
821.661	113.15
821.839	160.25
822.017	121.34
822.195	119.29
822.373	119.29
822.551	137.73
822.729	174.59
822.907	135.68
823.085	113.15
823.262	37.38
823.44	123.39
823.618	4.61
823.796	164.35
823.974	168.45
824.152	72.19
824.329	88.57
824.507	113.15
824.685	182.78
824.863	72.19
825.04	70.14
825.218	115.2
825.396	107.01
825.574	160.25
825.751	2.56
825.929	176.64
826.107	31.23
826.284	127.49
826.462	66.05
826.639	74.24
826.817	127.49
826.994	111.1
827.172	61.95
827.349	92.67
827.527	135.68
827.704	86.53
827.882	131.58
828.059	170.49
828.237	129.53
828.414	104.96
828.591	152.06
828.769	55.81
828.946	88.57
829.124	180.73
829.301	150.01
829.478	98.81
829.655	68.09
829.833	102.91
830.01	70.14
830.187	113.15
830.364	64
830.542	37.38
830.719	35.33
830.896	92.67
831.073	61.95
831.25	49.66
831.427	80.38
831.604	72.19
831.782	61.95
831.959	45.57
832.136	51.71
832.313	82.43
832.49	86.53
832.667	160.25
832.844	45.57
833.021	102.91
833.198	74.24
833.374	147.97
833.551	121.34
833.728	84.48
833.905	98.81
834.082	-15.87
834.259	74.24
834.436	107.01
834.612	41.47
834.789	88.57
834.966	29.18
835.143	143.87
835.319	4.61
835.496	29.18
835.673	76.29
835.85	68.09
836.026	41.47
836.203	41.47
836.38	47.62
836.556	27.14
836.733	10.75
836.909	152.06
837.086	-15.87
837.262	88.57
837.439	70.14
837.616	-1.54
837.792	68.09
837.968	12.8
838.145	31.23
838.321	29.18
838.498	20.99
838.674	80.38
838.851	66.05
839.027	72.19
839.203	102.91
839.38	86.53
839.556	70.14
839.732	10.75
839.909	-36.35
840.085	78.33
840.261	78.33
840.437	78.33
840.614	25.09
840.79	113.15
840.966	70.14
841.142	78.33
841.318	90.62
841.494	86.53
841.671	64
841.847	86.53
842.023	-11.78
842.199	86.53
842.375	184.83
842.551	20.99
842.727	61.95
842.903	160.25
843.079	86.53
843.255	88.57
843.431	90.62
843.607	211.45
843.783	18.94
843.959	53.76
844.134	41.47
844.31	86.53
844.486	-46.59
844.662	16.9
844.838	29.18
845.013	33.28
845.189	18.94
845.365	37.38
845.541	-9.73
845.716	37.38
845.892	53.76
846.068	129.53
846.244	49.66
846.419	121.34
846.595	57.86
846.77	29.18
846.946	104.96
847.122	61.95
847.297	29.18
847.473	76.29
847.648	41.47
847.824	107.01
847.999	-44.54
848.175	53.76
848.35	37.38
848.526	86.53
848.701	47.62
848.876	94.72
849.052	-19.97
849.227	82.43
849.403	41.47
849.578	61.95
849.753	14.85
849.929	-7.68
850.104	-9.73
850.279	51.71
850.454	70.14
850.63	90.62
850.805	47.62
850.98	31.23
851.155	4.61
851.33	-3.58
851.505	20.99
851.681	135.68
851.856	64
852.031	12.8
852.206	10.75
852.381	16.9
852.556	47.62
852.731	8.7
852.906	-17.92
853.081	31.23
853.256	90.62
853.431	-28.16
853.606	76.29
853.781	23.04
853.956	-85.5
854.131	45.57
854.305	10.75
854.48	45.57
854.655	-40.45
854.83	64
855.005	4.61
855.18	29.18
855.354	68.09
855.529	29.18
855.704	-26.11
855.879	53.76
856.053	-26.11
856.228	74.24
856.403	20.99
856.577	53.76
856.752	10.75
856.926	33.28
857.101	23.04
857.276	-11.78
857.45	47.62
857.625	55.81
857.799	-9.73
857.974	57.86
858.148	14.85
858.323	29.18
858.497	8.7
858.672	-22.02
858.846	-36.35
859.02	86.53
859.195	-65.02
859.369	-40.45
859.543	78.33
859.718	23.04
859.892	-28.16
860.066	-28.16
860.241	25.09
860.415	29.18
860.589	43.52
860.763	4.61
860.938	16.9
861.112	29.18
861.286	78.33
861.46	121.34
861.634	70.14
861.808	115.2
861.982	-3.58
862.157	-42.5
862.331	68.09
862.505	4.61
862.679	-40.45
862.853	31.23
863.027	-7.68
863.201	86.53
863.375	33.28
863.549	25.09
863.722	61.95
863.896	78.33
864.07	61.95
864.244	47.62
864.418	25.09
864.592	-1.54
864.766	0.51
864.939	-3.58
865.113	0.51
865.287	78.33
865.461	-26.11
865.634	47.62
865.808	78.33
865.982	45.57
866.156	37.38
866.329	-30.21
866.503	55.81
866.676	47.62
866.85	-24.06
867.024	-11.78
867.197	47.62
867.371	43.52
867.544	-9.73
867.718	-50.69
867.891	-9.73
868.065	-24.06
868.238	70.14
868.412	45.57
868.585	-28.16
868.759	-34.3
868.932	-3.58
869.105	-36.35
869.279	102.91
869.452	-1.54
869.625	-28.16
869.799	-11.78
869.972	23.04
870.145	-24.06
870.319	76.29
870.492	-26.11
870.665	-5.63
870.838	-11.78
871.011	-144.89
871.185	12.8
871.358	53.76
871.531	-26.11
871.704	25.09
871.877	-1.54
872.05	-28.16
872.223	6.66
872.396	20.99
872.569	27.14
872.742	-1.54
872.915	86.53
873.088	-11.78
873.261	-28.16
873.434	16.9
873.607	53.76
873.78	-3.58
873.953	-3.58
874.126	-11.78
874.299	23.04
874.471	-56.83
874.644	47.62
874.817	16.9
874.99	-9.73
875.163	-36.35
875.335	80.38
875.508	-44.54
875.681	51.71
875.853	-67.07
876.026	102.91
876.199	43.52
876.371	20.99
876.544	49.66
876.717	-40.45
876.889	27.14
877.062	4.61
877.234	25.09
877.407	51.71
877.579	29.18
877.752	-17.92
877.924	82.43
878.097	-22.02
878.269	37.38
878.442	43.52
878.614	86.53
878.786	43.52
878.959	-15.87
879.131	-32.26
879.303	-34.3
879.476	-34.3
879.648	41.47
879.82	29.18
879.993	-97.79
880.165	12.8
880.337	-34.3
880.509	39.42
880.681	-19.97
880.854	-52.74
881.026	39.42
881.198	53.76
881.37	37.38
881.542	23.04
881.714	-7.68
881.886	4.61
882.058	0.51
882.23	0.51
882.402	16.9
882.574	23.04
882.746	29.18
882.918	74.24
883.09	39.42
883.262	20.99
883.434	39.42
883.606	57.86
883.778	-11.78
883.95	61.95
884.122	-81.41
884.293	14.85
884.465	37.38
884.637	25.09
884.809	47.62
884.98	-28.16
885.152	31.23
885.324	12.8
885.496	-19.97
885.667	-52.74
885.839	-9.73
886.011	-24.06
886.182	-19.97
886.354	41.47
886.525	29.18
886.697	41.47
886.869	-1.54
887.04	6.66
887.212	-26.11
887.383	6.66
887.555	8.7
887.726	66.05
887.897	20.99
888.069	-17.92
888.24	-11.78
888.412	-52.74
888.583	45.57
888.754	16.9
888.926	4.61
889.097	-3.58
889.268	-75.26
889.44	12.8
889.611	-38.4
889.782	41.47
889.953	41.47
890.125	29.18
890.296	-1.54
890.467	-28.16
890.638	-1.54
890.809	66.05
890.98	-9.73
891.151	29.18
891.323	80.38
891.494	86.53
891.665	-1.54
891.836	53.76
892.007	33.28
892.178	14.85
892.349	-22.02
892.52	-17.92
892.691	-91.65
892.862	-7.68
893.032	-52.74
893.203	-28.16
893.374	23.04
893.545	61.95
893.716	16.9
893.887	72.19
894.057	12.8
894.228	-36.35
894.399	4.61
894.57	31.23
894.74	29.18
894.911	25.09
895.082	-13.82
895.253	78.33
895.423	49.66
895.594	-11.78
895.764	-9.73
895.935	-44.54
896.106	-7.68
896.276	0.51
896.447	-77.31
896.617	-48.64
896.788	12.8
896.958	61.95
897.129	-71.17
897.299	37.38
897.47	-101.89
897.64	57.86
897.81	31.23
897.981	4.61
898.151	-69.12
898.322	88.57
898.492	-28.16
898.662	-40.45
898.832	-36.35
899.003	-42.5
899.173	39.42
899.343	8.7
899.513	20.99
