Data from USB4F104151__174__14-32-31-938.txt Node

Date: Thu Mar 13 14:32:31 EDT 2025
User: louis
Spectrometer: USB4F10415
Trigger mode: 4
Integration Time (sec): 2.500000E-2
Scans to average: 1
Electric dark correction enabled: true
Nonlinearity correction enabled: false
Boxcar width: 0
XAxis mode: Wavelengths
Number of Pixels in Spectrum: 3648
>>>>>Begin Spectral Data<<<<<
178.204	-154.11
178.424	-154.11
178.644	-154.11
178.864	-147.97
179.084	-172.54
179.304	-39.42
179.524	-57.86
179.744	42.5
179.964	91.65
180.184	34.3
180.404	-41.47
180.624	15.87
180.844	-14.85
181.064	-49.66
181.283	56.83
181.503	-45.57
181.723	7.68
181.943	-25.09
182.163	77.31
182.383	-33.28
182.602	58.88
182.822	105.98
183.042	48.64
183.262	-16.9
183.482	73.21
183.701	7.68
183.921	60.93
184.141	3.58
184.361	-37.38
184.58	40.45
184.8	73.21
185.02	11.78
185.239	69.12
185.459	-6.66
185.679	67.07
185.898	-51.71
186.118	97.79
186.338	-14.85
186.557	30.21
186.777	17.92
186.997	44.54
187.216	-4.61
187.436	93.69
187.655	65.02
187.875	97.79
188.095	36.35
188.314	71.17
188.534	118.27
188.753	26.11
188.973	81.41
189.192	81.41
189.412	17.92
189.631	42.5
189.851	81.41
190.07	148.99
190.29	44.54
190.509	58.88
190.729	-25.09
190.948	101.89
191.168	177.66
191.387	52.74
191.607	52.74
191.826	38.4
192.045	34.3
192.265	114.17
192.484	-20.99
192.704	-0.51
192.923	-8.7
193.142	26.11
193.362	116.22
193.581	67.07
193.8	58.88
194.02	85.5
194.239	7.68
194.458	24.06
194.678	-33.28
194.897	15.87
195.116	24.06
195.335	-64
195.555	116.22
195.774	-10.75
195.993	67.07
196.212	81.41
196.432	62.98
196.651	-25.09
196.87	7.68
197.089	24.06
197.308	40.45
197.528	42.5
197.747	-14.85
197.966	-0.51
198.185	93.69
198.404	-31.23
198.623	52.74
198.842	56.83
199.062	24.06
199.281	77.31
199.5	32.26
199.719	-53.76
199.938	3.58
200.157	17.92
200.376	32.26
200.595	81.41
200.814	17.92
201.033	19.97
201.252	56.83
201.471	-4.61
201.69	69.12
201.909	34.3
202.128	87.55
202.347	11.78
202.566	-29.18
202.785	-43.52
203.004	24.06
203.223	99.84
203.442	15.87
203.661	81.41
203.879	97.79
204.098	60.93
204.317	24.06
204.536	13.82
204.755	-8.7
204.974	42.5
205.193	36.35
205.411	105.98
205.63	32.26
205.849	-8.7
206.068	-47.62
206.287	56.83
206.505	26.11
206.724	81.41
206.943	-16.9
207.162	15.87
207.381	48.64
207.599	24.06
207.818	52.74
208.037	7.68
208.255	11.78
208.474	-4.61
208.693	65.02
208.911	32.26
209.13	50.69
209.349	-8.7
209.567	17.92
209.786	69.12
210.005	26.11
210.223	36.35
210.442	-57.86
210.661	40.45
210.879	89.6
211.098	50.69
211.316	36.35
211.535	52.74
211.753	-25.09
211.972	-14.85
212.191	-10.75
212.409	7.68
212.628	9.73
212.846	44.54
213.065	83.45
213.283	26.11
213.502	65.02
213.72	32.26
213.938	32.26
214.157	73.21
214.375	15.87
214.594	36.35
214.812	77.31
215.031	28.16
215.249	-8.7
215.467	48.64
215.686	-4.61
215.904	24.06
216.122	73.21
216.341	73.21
216.559	-2.56
216.778	91.65
216.996	42.5
217.214	7.68
217.432	32.26
217.651	-18.94
217.869	38.4
218.087	32.26
218.306	28.16
218.524	3.58
218.742	26.11
218.96	24.06
219.179	44.54
219.397	-39.42
219.615	105.98
219.833	30.21
220.051	50.69
220.27	36.35
220.488	81.41
220.706	95.74
220.924	44.54
221.142	-0.51
221.36	50.69
221.578	-4.61
221.796	50.69
222.015	-57.86
222.233	42.5
222.451	-12.8
222.669	3.58
222.887	83.45
223.105	-25.09
223.323	24.06
223.541	24.06
223.759	65.02
223.977	-8.7
224.195	-4.61
224.413	105.98
224.631	73.21
224.849	-14.85
225.067	48.64
225.285	-14.85
225.503	56.83
225.721	3.58
225.939	44.54
226.157	56.83
226.375	118.27
226.592	-10.75
226.81	73.21
227.028	101.89
227.246	85.5
227.464	75.26
227.682	-29.18
227.9	40.45
228.117	40.45
228.335	34.3
228.553	62.98
228.771	-16.9
228.989	40.45
229.206	-6.66
229.424	44.54
229.642	-0.51
229.86	83.45
230.077	44.54
230.295	83.45
230.513	3.58
230.731	26.11
230.948	69.12
231.166	73.21
231.384	-31.23
231.601	15.87
231.819	44.54
232.037	11.78
232.254	28.16
232.472	79.36
232.689	-37.38
232.907	26.11
233.125	-57.86
233.342	56.83
233.56	-14.85
233.777	-102.91
233.995	-4.61
234.213	26.11
234.43	65.02
234.648	9.73
234.865	-4.61
235.083	99.84
235.3	5.63
235.518	73.21
235.735	83.45
235.953	1.54
236.17	40.45
236.388	91.65
236.605	56.83
236.822	93.69
237.04	44.54
237.257	1.54
237.475	-0.51
237.692	34.3
237.909	46.59
238.127	52.74
238.344	11.78
238.562	73.21
238.779	-12.8
238.996	-0.51
239.214	1.54
239.431	73.21
239.648	24.06
239.865	-18.94
240.083	-12.8
240.3	36.35
240.517	-66.05
240.735	-23.04
240.952	69.12
241.169	73.21
241.386	-20.99
241.603	-8.7
241.821	-41.47
242.038	79.36
242.255	26.11
242.472	-41.47
242.689	77.31
242.907	56.83
243.124	15.87
243.341	15.87
243.558	67.07
243.775	-33.28
243.992	-29.18
244.209	15.87
244.426	69.12
244.643	44.54
244.86	60.93
245.078	15.87
245.295	44.54
245.512	65.02
245.729	24.06
245.946	67.07
246.163	-18.94
246.38	48.64
246.597	-0.51
246.814	9.73
247.031	9.73
247.248	83.45
247.464	40.45
247.681	56.83
247.898	5.63
248.115	7.68
248.332	-0.51
248.549	73.21
248.766	40.45
248.983	-16.9
249.2	-27.14
249.417	60.93
249.633	30.21
249.85	11.78
250.067	62.98
250.284	89.6
250.501	7.68
250.717	40.45
250.934	-53.76
251.151	-8.7
251.368	-37.38
251.585	42.5
251.801	3.58
252.018	30.21
252.235	24.06
252.451	-33.28
252.668	-37.38
252.885	69.12
253.102	-39.42
253.318	32.26
253.535	-4.61
253.752	28.16
253.968	-16.9
254.185	48.64
254.401	7.68
254.618	77.31
254.835	5.63
255.051	56.83
255.268	75.26
255.484	36.35
255.701	89.6
255.917	97.79
256.134	-23.04
256.351	24.06
256.567	65.02
256.784	34.3
257	32.26
257.217	15.87
257.433	32.26
257.65	9.73
257.866	50.69
258.082	7.68
258.299	-86.53
258.515	67.07
258.732	42.5
258.948	13.82
259.165	-2.56
259.381	32.26
259.597	-16.9
259.814	77.31
260.03	-16.9
260.246	36.35
260.463	-51.71
260.679	32.26
260.895	-8.7
261.112	34.3
261.328	17.92
261.544	40.45
261.761	138.75
261.977	42.5
262.193	58.88
262.409	73.21
262.626	40.45
262.842	101.89
263.058	28.16
263.274	81.41
263.49	105.98
263.707	32.26
263.923	11.78
264.139	-47.62
264.355	56.83
264.571	24.06
264.787	26.11
265.004	44.54
265.22	-47.62
265.436	-4.61
265.652	-16.9
265.868	-31.23
266.084	28.16
266.3	54.78
266.516	-70.14
266.732	24.06
266.948	26.11
267.164	101.89
267.38	69.12
267.596	48.64
267.812	-2.56
268.028	130.56
268.244	15.87
268.46	50.69
268.676	30.21
268.892	89.6
269.108	65.02
269.324	32.26
269.54	1.54
269.756	-0.51
269.972	15.87
270.188	-66.05
270.403	-23.04
270.619	19.97
270.835	-20.99
271.051	52.74
271.267	-82.43
271.483	11.78
271.698	67.07
271.914	-8.7
272.13	3.58
272.346	15.87
272.562	52.74
272.777	15.87
272.993	9.73
273.209	-16.9
273.425	60.93
273.64	48.64
273.856	75.26
274.072	99.84
274.287	17.92
274.503	24.06
274.719	116.22
274.934	54.78
275.15	-61.95
275.366	-37.38
275.581	-12.8
275.797	-37.38
276.012	15.87
276.228	15.87
276.444	40.45
276.659	40.45
276.875	11.78
277.09	-12.8
277.306	-20.99
277.521	13.82
277.737	81.41
277.952	-0.51
278.168	-20.99
278.383	42.5
278.599	13.82
278.814	13.82
279.03	-14.85
279.245	48.64
279.461	32.26
279.676	-14.85
279.892	34.3
280.107	1.54
280.322	42.5
280.538	108.03
280.753	22.02
280.969	44.54
281.184	19.97
281.399	97.79
281.615	81.41
281.83	-0.51
282.045	52.74
282.26	-20.99
282.476	-23.04
282.691	48.64
282.906	105.98
283.122	46.59
283.337	22.02
283.552	34.3
283.767	9.73
283.983	95.74
284.198	77.31
284.413	34.3
284.628	-4.61
284.843	-33.28
285.058	5.63
285.274	5.63
285.489	-20.99
285.704	17.92
285.919	42.5
286.134	89.6
286.349	91.65
286.564	-14.85
286.779	56.83
286.995	-0.51
287.21	-41.47
287.425	77.31
287.64	-37.38
287.855	19.97
288.07	-6.66
288.285	65.02
288.5	28.16
288.715	60.93
288.93	-39.42
289.145	48.64
289.36	81.41
289.575	-16.9
289.79	75.26
290.004	22.02
290.219	32.26
290.434	56.83
290.649	11.78
290.864	40.45
291.079	-14.85
291.294	60.93
291.509	-0.51
291.724	34.3
291.938	-59.9
292.153	3.58
292.368	-25.09
292.583	-0.51
292.798	-0.51
293.012	11.78
293.227	7.68
293.442	89.6
293.657	34.3
293.871	3.58
294.086	-8.7
294.301	130.56
294.516	24.06
294.73	9.73
294.945	15.87
295.16	58.88
295.374	62.98
295.589	67.07
295.804	22.02
296.018	42.5
296.233	11.78
296.447	-0.51
296.662	-33.28
296.877	24.06
297.091	56.83
297.306	77.31
297.52	24.06
297.735	101.89
297.949	-6.66
298.164	56.83
298.378	73.21
298.593	-4.61
298.807	7.68
299.022	44.54
299.236	132.61
299.451	40.45
299.665	36.35
299.88	28.16
300.094	42.5
300.309	19.97
300.523	77.31
300.737	50.69
300.952	24.06
301.166	85.5
301.381	1.54
301.595	17.92
301.809	-4.61
302.024	7.68
302.238	42.5
302.452	89.6
302.667	-33.28
302.881	60.93
303.095	56.83
303.309	97.79
303.524	105.98
303.738	32.26
303.952	15.87
304.166	56.83
304.381	-39.42
304.595	67.07
304.809	32.26
305.023	-2.56
305.237	19.97
305.452	73.21
305.666	56.83
305.88	38.4
306.094	56.83
306.308	-0.51
306.522	116.22
306.736	65.02
306.95	89.6
307.164	3.58
307.379	36.35
307.593	-23.04
307.807	73.21
308.021	105.98
308.235	73.21
308.449	56.83
308.663	60.93
308.877	206.33
309.091	1.54
309.305	24.06
309.519	-25.09
309.733	40.45
309.947	-49.66
310.161	7.68
310.374	91.65
310.588	40.45
310.802	-41.47
311.016	17.92
311.23	-0.51
311.444	48.64
311.658	91.65
311.872	73.21
312.085	40.45
312.299	60.93
312.513	-25.09
312.727	26.11
312.941	-0.51
313.154	32.26
313.368	3.58
313.582	-0.51
313.796	56.83
314.009	52.74
314.223	42.5
314.437	-6.66
314.651	97.79
314.864	48.64
315.078	28.16
315.292	-0.51
315.505	11.78
315.719	69.12
315.933	9.73
316.146	7.68
316.36	24.06
316.573	62.98
316.787	-33.28
317.001	36.35
317.214	-8.7
317.428	73.21
317.641	-8.7
317.855	-4.61
318.068	-16.9
318.282	52.74
318.495	40.45
318.709	-16.9
318.922	89.6
319.136	89.6
319.349	26.11
319.563	52.74
319.776	108.03
319.99	7.68
320.203	81.41
320.417	7.68
320.63	24.06
320.843	81.41
321.057	38.4
321.27	9.73
321.483	77.31
321.697	22.02
321.91	-41.47
322.124	11.78
322.337	52.74
322.55	38.4
322.763	58.88
322.977	19.97
323.19	11.78
323.403	81.41
323.617	83.45
323.83	62.98
324.043	48.64
324.256	81.41
324.469	-49.66
324.683	-2.56
324.896	56.83
325.109	81.41
325.322	46.59
325.535	85.5
325.748	-0.51
325.962	-6.66
326.175	-14.85
326.388	52.74
326.601	56.83
326.814	17.92
327.027	17.92
327.24	79.36
327.453	9.73
327.666	67.07
327.879	-0.51
328.092	11.78
328.305	-43.52
328.518	-31.23
328.731	-25.09
328.944	7.68
329.157	-8.7
329.37	67.07
329.583	83.45
329.796	81.41
330.009	26.11
330.222	101.89
330.435	60.93
330.648	87.55
330.861	71.17
331.073	46.59
331.286	44.54
331.499	42.5
331.712	-31.23
331.925	-29.18
332.138	26.11
332.35	89.6
332.563	-31.23
332.776	62.98
332.989	99.84
333.202	65.02
333.414	-25.09
333.627	-10.75
333.84	24.06
334.053	15.87
334.265	56.83
334.478	17.92
334.691	-80.38
334.903	48.64
335.116	24.06
335.329	69.12
335.541	36.35
335.754	56.83
335.966	26.11
336.179	44.54
336.392	75.26
336.604	60.93
336.817	19.97
337.029	32.26
337.242	3.58
337.454	81.41
337.667	-14.85
337.88	11.78
338.092	44.54
338.305	52.74
338.517	-53.76
338.729	101.89
338.942	5.63
339.154	9.73
339.367	19.97
339.579	108.03
339.792	-12.8
340.004	52.74
340.217	95.74
340.429	79.36
340.641	1.54
340.854	62.98
341.066	36.35
341.278	83.45
341.491	99.84
341.703	19.97
341.915	52.74
342.128	81.41
342.34	60.93
342.552	28.16
342.764	44.54
342.977	48.64
343.189	24.06
343.401	48.64
343.613	-8.7
343.826	5.63
344.038	-39.42
344.25	-33.28
344.462	-41.47
344.674	28.16
344.886	56.83
345.099	48.64
345.311	40.45
345.523	-25.09
345.735	-41.47
345.947	81.41
346.159	40.45
346.371	40.45
346.583	-4.61
346.795	73.21
347.007	-64
347.219	-4.61
347.431	22.02
347.643	71.17
347.855	52.74
348.067	142.85
348.279	3.58
348.491	-25.09
348.703	44.54
348.915	38.4
349.127	7.68
349.339	67.07
349.551	65.02
349.763	54.78
349.975	36.35
350.187	73.21
350.399	116.22
350.61	9.73
350.822	24.06
351.034	3.58
351.246	42.5
351.458	97.79
351.669	36.35
351.881	48.64
352.093	81.41
352.305	89.6
352.517	15.87
352.728	108.03
352.94	85.5
353.152	62.98
353.363	-8.7
353.575	105.98
353.787	38.4
353.999	-0.51
354.21	58.88
354.422	19.97
354.633	24.06
354.845	13.82
355.057	-20.99
355.268	50.69
355.48	46.59
355.692	-25.09
355.903	42.5
356.115	19.97
356.326	3.58
356.538	122.37
356.749	28.16
356.961	87.55
357.172	101.89
357.384	7.68
357.595	56.83
357.807	-0.51
358.018	60.93
358.23	116.22
358.441	89.6
358.653	71.17
358.864	50.69
359.075	19.97
359.287	89.6
359.498	81.41
359.709	-0.51
359.921	42.5
360.132	67.07
360.344	60.93
360.555	7.68
360.766	7.68
360.977	11.78
361.189	56.83
361.4	15.87
361.611	122.37
361.823	26.11
362.034	-16.9
362.245	-0.51
362.456	24.06
362.667	32.26
362.879	108.03
363.09	75.26
363.301	44.54
363.512	56.83
363.723	67.07
363.935	19.97
364.146	7.68
364.357	40.45
364.568	81.41
364.779	11.78
364.99	81.41
365.201	-39.42
365.412	58.88
365.623	1.54
365.834	15.87
366.045	15.87
366.256	56.83
366.467	44.54
366.678	28.16
366.889	-31.23
367.1	91.65
367.311	69.12
367.522	52.74
367.733	67.07
367.944	155.13
368.155	91.65
368.366	62.98
368.577	108.03
368.788	32.26
368.999	-14.85
369.209	73.21
369.42	50.69
369.631	173.57
369.842	93.69
370.053	-0.51
370.264	56.83
370.474	81.41
370.685	89.6
370.896	73.21
371.107	-14.85
371.317	36.35
371.528	1.54
371.739	26.11
371.95	-2.56
372.16	91.65
372.371	-0.51
372.582	28.16
372.792	17.92
373.003	40.45
373.214	73.21
373.424	65.02
373.635	26.11
373.846	34.3
374.056	19.97
374.267	19.97
374.477	40.45
374.688	32.26
374.898	34.3
375.109	83.45
375.319	-20.99
375.53	28.16
375.74	24.06
375.951	77.31
376.161	24.06
376.372	56.83
376.582	-0.51
376.793	22.02
377.003	42.5
377.214	-37.38
377.424	99.84
377.635	95.74
377.845	24.06
378.055	91.65
378.266	1.54
378.476	101.89
378.686	42.5
378.897	73.21
379.107	52.74
379.317	58.88
379.528	9.73
379.738	48.64
379.948	-37.38
380.158	52.74
380.369	19.97
380.579	95.74
380.789	110.08
380.999	130.56
381.21	52.74
381.42	116.22
381.63	11.78
381.84	81.41
382.05	69.12
382.261	93.69
382.471	159.23
382.681	-0.51
382.891	122.37
383.101	122.37
383.311	-92.67
383.521	36.35
383.731	85.5
383.941	77.31
384.151	24.06
384.361	83.45
384.571	44.54
384.781	91.65
384.991	73.21
385.201	99.84
385.411	17.92
385.621	48.64
385.831	7.68
386.041	40.45
386.251	87.55
386.461	130.56
386.671	30.21
386.881	91.65
387.091	65.02
387.301	42.5
387.511	73.21
387.72	97.79
387.93	81.41
388.14	-0.51
388.35	44.54
388.56	42.5
388.769	77.31
388.979	89.6
389.189	95.74
389.399	24.06
389.609	7.68
389.818	122.37
390.028	17.92
390.238	69.12
390.447	40.45
390.657	46.59
390.867	1.54
391.076	26.11
391.286	99.84
391.496	89.6
391.705	97.79
391.915	71.17
392.125	89.6
392.334	77.31
392.544	108.03
392.753	19.97
392.963	24.06
393.172	26.11
393.382	-18.94
393.591	13.82
393.801	15.87
394.01	97.79
394.22	42.5
394.429	32.26
394.639	67.07
394.848	56.83
395.058	48.64
395.267	89.6
395.477	99.84
395.686	146.94
395.895	83.45
396.105	108.03
396.314	177.66
396.524	105.98
396.733	65.02
396.942	65.02
397.152	36.35
397.361	103.93
397.57	40.45
397.78	138.75
397.989	97.79
398.198	175.61
398.407	85.5
398.617	60.93
398.826	122.37
399.035	56.83
399.244	65.02
399.453	163.33
399.663	126.46
399.872	124.41
400.081	97.79
400.29	148.99
400.499	153.09
400.708	163.33
400.917	73.21
401.127	93.69
401.336	83.45
401.545	89.6
401.754	40.45
401.963	179.71
402.172	48.64
402.381	77.31
402.59	108.03
402.799	124.41
403.008	105.98
403.217	118.27
403.426	85.5
403.635	91.65
403.844	126.46
404.053	202.24
404.262	77.31
404.471	212.48
404.68	126.46
404.888	103.93
405.097	194.05
405.306	177.66
405.515	124.41
405.724	116.22
405.933	165.37
406.142	189.95
406.35	175.61
406.559	226.81
406.768	243.2
406.977	222.72
407.185	202.24
407.394	130.56
407.603	189.95
407.812	239.1
408.02	185.85
408.229	232.96
408.438	280.06
408.646	241.15
408.855	230.91
409.064	257.53
409.272	284.16
409.481	228.86
409.69	237.05
409.898	163.33
410.107	282.11
410.315	302.59
410.524	204.28
410.733	247.29
410.941	286.2
411.15	331.26
411.358	364.03
411.567	400.89
411.775	327.16
411.984	423.42
412.192	376.31
412.401	400.89
412.609	491
412.818	450.04
413.026	456.19
413.234	431.61
413.443	439.8
413.651	572.92
413.86	505.34
414.068	527.86
414.276	525.82
414.485	458.23
414.693	593.4
414.901	650.74
415.11	632.31
415.318	681.46
415.526	695.8
415.734	714.23
415.943	701.94
416.151	790
416.359	794.1
416.567	771.57
416.776	781.81
416.984	861.68
417.192	935.41
417.4	902.64
417.608	861.68
417.817	1031.66
418.025	943.6
418.233	1056.24
418.441	994.8
418.649	1129.97
418.857	1197.55
419.065	1242.61
419.273	1142.25
419.481	1220.08
419.689	1302
419.897	1359.34
420.105	1369.58
420.313	1408.49
420.521	1580.52
420.729	1654.25
420.937	1474.03
421.145	1547.75
421.353	1703.4
421.561	1828.32
421.769	1881.57
421.977	1932.77
422.185	1875.43
422.393	2049.5
422.601	2014.69
422.809	2090.46
423.017	2156
423.224	2170.33
423.432	2287.07
423.64	2192.86
423.848	2520.54
424.056	2436.57
424.263	2530.78
424.471	2436.57
424.679	2647.51
424.887	2878.93
425.094	2842.07
425.302	2856.4
425.51	3046.87
425.718	3192.27
425.925	3175.89
426.133	3399.12
426.341	3329.49
426.548	3595.72
426.756	3657.16
426.964	3751.37
427.171	3935.68
427.379	3876.29
427.586	4009.41
427.794	4115.91
428.001	4269.5
428.209	4382.14
428.417	4429.24
428.624	4791.73
428.832	4720.06
429.039	4693.43
429.247	4744.63
429.454	5184.94
429.662	5338.54
429.869	5201.33
430.076	5574.06
430.284	5391.79
430.491	5563.82
430.699	5750.18
430.906	5778.86
431.114	5903.78
431.321	6081.96
431.528	6319.52
431.736	6618.52
431.943	6954.39
432.15	6784.41
432.358	6843.8
432.565	7234.96
432.772	7280.02
432.979	7587.21
433.187	7406.99
433.394	7771.53
433.601	8105.35
433.808	8338.82
434.016	8154.5
434.223	8416.64
434.43	9133.43
434.637	8957.3
434.844	9530.73
435.052	9565.55
435.259	9457.01
435.466	9551.21
435.673	9467.25
435.88	9981.29
436.087	10616.16
436.294	10513.76
436.501	10495.33
436.708	10612.06
436.915	10874.2
437.122	11611.47
437.329	11480.4
437.537	11781.45
437.743	12014.92
437.95	11990.35
438.157	12436.8
438.364	12938.55
438.571	12901.69
438.778	12985.66
438.985	14224.68
439.192	13362.48
439.399	14036.27
439.606	13514.03
439.813	14449.96
440.02	15105.31
440.227	15150.36
440.433	15125.79
440.64	15349.01
440.847	15375.64
441.054	15858.96
441.261	16624.9
441.467	16364.81
441.674	16893.18
441.881	17140.99
442.088	17325.3
442.294	17106.17
442.501	17515.76
442.708	17931.5
442.914	18648.29
443.121	19311.83
443.328	18922.72
443.534	20128.97
443.741	19637.46
443.948	19074.27
444.154	21023.94
444.361	20718.79
444.568	20722.88
444.774	20694.21
444.981	21382.33
445.187	21798.07
445.394	22566.06
445.6	22518.95
445.807	24059.02
446.013	23315.61
446.22	23792.79
446.426	24730.76
446.633	24859.78
446.839	26016.88
447.046	24562.83
447.252	26244.21
447.459	26238.06
447.665	25750.65
447.871	26883.17
448.078	28230.74
448.284	26979.43
448.491	27599.96
448.697	28576.84
448.903	29158.47
449.11	29250.63
449.316	28853.32
449.522	29441.09
449.728	29848.63
449.935	30200.88
450.141	30450.74
450.347	30901.29
450.553	29996.09
450.76	30288.95
450.966	31507.49
451.172	30850.09
451.378	32431.12
451.584	31099.94
451.791	32003.1
451.997	31874.07
452.203	32345.11
452.409	32072.73
452.615	31892.51
452.821	30905.38
453.027	30577.71
453.233	32222.23
453.44	30669.87
453.646	31020.07
453.852	31362.08
454.058	32031.77
454.264	30776.36
454.47	31679.52
454.676	30493.74
454.882	31734.81
455.088	29002.82
455.294	29332.54
455.5	29578.3
455.705	29826.1
455.911	29060.16
456.117	28134.48
456.323	27984.98
456.529	26504.3
456.735	27665.5
456.941	26946.66
457.147	26596.46
457.352	25441.4
457.558	25537.66
457.764	25402.49
457.97	24913.03
458.176	24327.31
458.381	24413.32
458.587	23178.4
458.793	23157.92
458.999	21851.31
459.204	23602.33
459.41	23104.67
459.616	21599.41
459.821	21312.7
460.027	21327.03
460.233	20606.15
460.438	19895.5
460.644	19969.23
460.85	18961.63
461.055	18679.01
461.261	18793.7
461.466	17220.86
461.672	16889.09
461.878	18072.81
462.083	16778.5
462.289	16643.33
462.494	16530.69
462.7	15629.59
462.905	15394.07
463.111	15674.64
463.316	15549.71
463.522	15336.73
463.727	15500.56
463.932	15496.47
464.138	15033.63
464.343	15222.04
464.549	14931.23
464.754	15375.64
464.959	15457.56
465.165	15031.58
465.37	14337.32
465.575	14009.64
465.781	14415.14
465.986	14558.5
466.191	14007.59
466.397	14077.23
466.602	13086.01
466.807	13790.51
467.012	14107.94
467.218	13686.06
467.423	13274.42
467.628	13542.71
467.833	14134.57
468.038	13516.08
468.244	12983.61
468.449	13497.65
468.654	13428.02
468.859	13067.58
469.064	13098.3
469.269	12408.13
469.474	12672.32
469.679	12780.86
469.885	12356.93
470.09	12606.78
470.295	12467.52
470.5	12152.13
470.705	12240.2
470.91	12049.74
471.115	11996.49
471.32	11976.01
471.525	12051.78
471.73	11713.87
471.935	11613.52
472.139	11138.39
472.344	11410.77
472.549	11291.99
472.754	11365.71
472.959	11062.62
473.164	10679.65
473.369	10601.82
473.574	11083.09
473.778	10857.82
473.983	10945.88
474.188	10657.12
474.393	10288.48
474.598	10290.53
474.802	10179.94
475.007	10235.24
475.212	10196.32
475.417	9715.05
475.621	9852.27
475.826	9846.12
476.031	9569.65
476.235	9387.38
476.44	9620.85
476.645	9340.27
476.849	9454.96
477.054	9305.46
477.259	9102.71
477.463	9246.07
477.668	8920.44
477.872	9010.55
478.077	8889.72
478.282	8584.57
478.486	8756.6
478.691	8627.58
478.895	8652.16
479.1	8617.34
479.304	8631.68
479.509	8344.96
479.713	8611.2
479.918	8119.68
480.122	7814.54
480.326	8318.34
480.531	8238.47
480.735	8072.58
480.94	8109.44
481.144	8476.03
481.348	8035.72
481.553	7966.09
481.757	7751.05
481.961	7921.03
482.166	8045.96
482.37	7882.12
482.574	7749
482.778	7921.03
482.983	8005
483.187	8027.53
483.391	8013.19
483.595	7888.26
483.8	7609.74
484.004	8027.53
484.208	8181.12
484.412	7773.58
484.616	8019.33
484.821	7662.99
485.025	7863.69
485.229	7968.13
485.433	7935.37
485.637	7882.12
485.841	7794.06
486.045	7695.75
486.249	7923.08
486.453	7705.99
486.657	7683.47
486.861	7726.47
487.065	7687.56
487.269	7787.91
487.473	7617.93
487.677	7869.83
487.881	7957.89
488.085	7931.27
488.289	8048.01
488.493	7642.51
488.697	7959.94
488.901	7912.84
489.105	7818.63
489.309	7826.82
489.512	7945.61
489.716	7986.57
489.92	8021.38
490.124	7869.83
490.328	8058.25
490.531	8048.01
490.735	7978.37
490.939	7964.04
491.143	8148.36
491.346	7986.57
491.55	7986.57
491.754	7986.57
491.958	7929.22
492.161	8228.23
492.365	8318.34
492.569	8201.6
492.772	8224.13
492.976	8250.75
493.18	8250.75
493.383	8504.7
493.587	8398.21
493.79	8439.17
493.994	8283.52
494.197	8289.67
494.401	8572.29
494.605	8539.52
494.808	8947.06
495.012	8684.92
495.215	8701.31
495.419	8682.88
495.622	8920.44
495.825	8957.3
496.029	8789.37
496.232	9057.65
496.436	9084.28
496.639	9383.28
496.843	9231.73
497.046	9483.63
497.249	9506.16
497.453	9489.78
497.656	9690.48
497.859	9764.2
498.063	9682.28
498.266	9964.9
498.469	9733.48
498.673	10159.46
498.876	10198.37
499.079	10028.39
499.282	10437.98
499.485	10431.84
499.689	10607.97
499.892	10567.01
500.095	10677.6
500.298	10900.83
500.501	10657.12
500.705	11150.68
500.908	10999.13
501.111	11074.9
501.314	11298.13
501.517	11382.1
501.72	11599.18
501.923	11609.42
502.126	12002.63
502.329	11988.3
502.532	12139.85
502.735	12062.02
502.938	12354.88
503.141	12387.65
503.344	12741.95
503.547	12729.66
503.75	12913.98
503.953	12668.22
504.156	13002.04
504.359	13229.37
504.562	13192.5
504.765	13495.6
504.968	13477.17
505.17	13618.48
505.373	13632.82
505.576	13913.39
505.779	14239.01
505.982	14089.51
506.185	14531.87
506.387	14638.37
506.59	14679.33
506.793	15045.91
506.996	14933.28
507.198	15387.93
507.401	15160.6
507.604	15428.88
507.807	15680.78
508.009	15865.1
508.212	15637.78
508.415	15961.36
508.617	15973.64
508.82	16016.65
509.022	16303.37
509.225	16715.01
509.428	16825.6
509.63	16940.29
509.833	17040.64
510.035	17747.19
510.238	17145.08
510.44	17550.58
510.643	17790.19
510.845	17738.99
511.048	17882.35
511.25	18066.67
511.453	18177.26
511.655	18857.18
511.858	18570.47
512.06	18892
512.262	19035.36
512.465	19127.52
512.667	19109.08
512.87	19666.13
513.072	19428.57
513.274	19901.65
513.477	19848.4
513.679	20266.19
513.881	20301
514.084	20966.59
514.286	20778.18
514.488	20755.65
514.69	21324.99
514.893	21390.52
515.095	21378.23
515.297	21634.23
515.499	21906.61
515.701	21843.12
515.904	22168.75
516.106	22265
516.308	22645.93
516.51	22719.65
516.712	22725.8
516.914	23032.99
517.116	23057.57
517.318	23301.28
517.52	23663.77
517.722	23463.07
517.925	23813.27
518.127	24026.26
518.329	24614.02
518.531	23852.18
518.733	24659.08
518.935	24708.23
519.136	24370.32
519.338	25248.89
519.54	25330.81
519.742	25515.13
519.944	25541.75
520.146	25750.65
520.348	25965.68
520.55	26289.26
520.752	26119.28
520.954	26852.45
521.155	26514.54
521.357	26858.6
521.559	27221.09
521.761	27212.9
521.963	26821.73
522.164	27147.36
522.366	27356.25
522.568	27741.27
522.77	27536.48
522.971	28314.7
523.173	27751.51
523.375	28214.35
523.576	28111.96
523.778	27886.68
523.98	28310.61
524.181	28603.47
524.383	28341.33
524.584	28640.33
524.786	28650.57
524.988	28548.17
525.189	29072.45
525.391	29074.5
525.592	28857.42
525.794	29314.11
525.995	28933.19
526.197	29119.56
526.398	29295.68
526.6	29477.95
526.801	29389.89
527.003	29482.05
527.204	29523.01
527.406	30030.9
527.607	29578.3
527.808	29875.26
528.01	29258.82
528.211	29588.54
528.412	30123.06
528.614	30008.37
528.815	29948.98
529.016	29867.06
529.218	29627.45
529.419	29928.5
529.62	29862.97
529.822	29713.47
530.023	29729.85
530.224	29834.3
530.425	29887.54
530.626	29678.65
530.828	29520.96
531.029	29981.75
531.23	29744.19
531.431	29695.03
531.632	29787.19
531.833	29611.07
532.035	29637.69
532.236	29895.74
532.437	29707.32
532.638	29615.16
532.839	29625.4
533.04	30092.34
533.241	29226.05
533.442	29750.33
533.643	29914.17
533.844	29232.19
534.045	29463.61
534.246	29244.48
534.447	29408.32
534.648	29492.29
534.849	29619.26
535.05	29365.31
535.251	29015.11
535.451	29062.21
535.652	29017.16
535.853	29082.69
536.054	29420.61
536.255	29221.95
536.456	28961.86
536.657	29735.99
536.857	29074.5
537.058	28925
537.259	29283.39
537.46	29391.94
537.66	29178.95
537.861	28949.57
538.062	29000.77
538.263	28994.63
538.463	28302.42
538.664	28695.63
538.865	28802.12
539.065	29008.97
539.266	28628.04
539.466	29271.11
539.667	28781.64
539.868	28832.84
540.068	28677.19
540.269	28302.42
540.469	28757.07
540.67	28386.38
540.87	28798.02
541.071	28781.64
541.271	28892.23
541.472	28587.08
541.672	28456.01
541.873	28447.82
542.073	28263.5
542.274	28853.32
542.474	28159.06
542.675	28316.75
542.875	28507.21
543.075	28191.83
543.276	28142.67
543.476	28769.35
543.676	28642.38
543.877	28005.46
544.077	28449.87
544.277	28152.91
544.478	28382.29
544.678	28312.66
544.878	28370
545.078	28304.46
545.279	28079.19
545.479	28265.55
545.679	28183.63
545.879	28073.04
546.079	28286.03
546.28	27915.35
546.48	28079.19
546.68	28380.24
546.88	28458.06
547.08	28263.5
547.28	28462.16
547.48	28365.9
547.68	28159.06
547.88	28038.23
548.081	28443.73
548.281	28351.57
548.481	28228.69
548.681	28320.85
548.881	28398.67
549.081	28245.07
549.28	28326.99
549.48	28275.79
549.68	28214.35
549.88	28458.06
550.08	27917.4
550.28	28177.49
550.48	28312.66
550.68	28193.87
550.88	28351.57
551.08	28376.14
551.279	28286.03
551.479	28116.05
551.679	28337.23
551.879	28200.02
552.079	28296.27
552.278	28329.04
552.478	28302.42
552.678	28157.01
552.878	28587.08
553.077	28288.08
553.277	28114
553.477	28898.38
553.676	28525.64
553.876	28374.1
554.076	28331.09
554.275	28642.38
554.475	28066.9
554.674	28769.35
554.874	28312.66
555.074	28251.22
555.273	28607.56
555.473	28656.71
555.672	28494.93
555.872	28326.99
556.071	28757.07
556.271	28961.86
556.47	28357.71
556.67	28394.57
556.869	28578.89
557.068	28611.66
557.268	28243.03
557.467	28648.52
557.667	28777.54
557.866	28630.09
558.065	28570.7
558.265	28474.45
558.464	28552.27
558.663	28914.76
558.863	28275.79
559.062	28851.27
559.261	28748.87
559.461	28664.91
559.66	28408.91
559.859	28849.22
560.058	28574.8
560.258	28595.28
560.457	28142.67
560.656	28740.68
560.855	28312.66
561.054	28283.98
561.253	28521.55
561.453	28707.91
561.652	28640.33
561.851	28634.19
562.05	28294.22
562.249	28345.42
562.448	28421.2
562.647	28394.57
562.846	28453.97
563.045	28302.42
563.244	28314.7
563.443	28918.85
563.642	28267.6
563.841	28562.51
564.04	28363.86
564.239	28662.86
564.438	28085.33
564.637	28326.99
564.836	28200.02
565.035	28093.52
565.234	28126.29
565.432	28187.73
565.631	28019.8
565.83	28025.94
566.029	28283.98
566.228	27645.02
566.427	27845.72
566.625	27905.11
566.824	27860.05
567.023	27972.69
567.222	27700.31
567.42	27554.91
567.619	27784.28
567.818	27731.03
568.016	27638.87
568.215	27677.79
568.414	27606.11
568.612	27561.05
568.811	27528.28
569.01	27386.97
569.208	27065.44
569.407	27397.21
569.605	27188.32
569.804	27509.85
570.002	27204.7
570.201	27386.97
570.4	27102.31
570.598	26936.42
570.797	26944.61
570.995	26956.9
571.193	26717.29
571.392	26561.64
571.59	26618.99
571.789	26969.19
571.987	26352.75
572.186	26623.08
572.384	26336.37
572.582	26442.86
572.781	26643.56
572.979	26225.78
573.177	26315.89
573.376	26590.31
573.574	26045.55
573.772	26385.52
573.971	26180.72
574.169	25859.19
574.367	25812.09
574.565	26178.67
574.763	25662.58
574.962	25472.12
575.16	25511.03
575.358	25631.86
575.556	25394.3
575.754	25814.13
575.952	25099.39
576.151	25551.99
576.349	25123.97
576.547	24898.69
576.745	24802.44
576.943	24949.89
577.141	25046.15
577.339	24872.07
577.537	24894.6
577.735	24661.13
577.933	24540.3
578.131	24824.97
578.329	24663.18
578.527	24446.09
578.725	24646.79
578.923	24343.69
579.121	24222.86
579.319	24104.08
579.516	24724.61
579.714	24241.29
579.912	24331.4
580.11	23719.06
580.308	23913.62
580.506	23708.82
580.704	23614.62
580.901	23852.18
581.099	23987.35
581.297	23721.11
581.495	23501.98
581.692	23739.54
581.89	23284.89
582.088	23934.1
582.285	23395.48
582.483	23336.09
582.681	23180.45
582.878	23182.49
583.076	23233.69
583.274	23213.21
583.471	23016.61
583.669	22887.59
583.866	22746.28
584.064	22979.75
584.262	22977.7
584.459	22803.62
584.657	22764.71
584.854	22803.62
585.052	22336.68
585.249	22480.04
585.447	22477.99
585.644	22250.67
585.841	22602.92
586.039	22367.4
586.236	22240.43
586.434	22338.73
586.631	22406.31
586.828	22037.68
587.026	22256.81
587.223	22156.46
587.42	22000.82
587.618	22318.25
587.815	21736.63
588.012	21828.79
588.21	21998.77
588.407	22072.5
588.604	21945.52
588.801	21550.26
588.999	21628.09
589.196	21443.77
589.393	21603.51
589.59	21367.99
589.787	21609.65
589.984	21376.19
590.182	21245.12
590.379	21279.93
590.576	21161.15
590.773	21296.32
590.97	21011.65
591.167	21290.17
591.364	21105.85
591.561	21294.27
591.758	20868.29
591.955	20923.58
592.152	20962.5
592.349	20892.87
592.546	21157.05
592.743	20982.98
592.94	20374.73
593.137	20700.36
593.334	21068.99
593.531	20704.45
593.727	20782.27
593.924	20886.72
594.121	20516.04
594.318	20788.42
594.515	20452.55
594.712	20548.81
594.908	20550.85
595.105	20735.17
595.302	20311.24
595.499	20397.26
595.696	20161.74
595.892	20083.92
596.089	20417.74
596.286	20403.4
596.482	20606.15
596.679	20237.52
596.876	20616.39
597.072	20180.17
597.269	20532.42
597.466	19911.89
597.662	20053.2
597.859	20444.36
598.055	20067.53
598.252	20214.99
598.448	20116.69
598.645	20171.98
598.841	20073.68
599.038	20114.64
599.234	19809.49
599.431	19838.16
599.627	19918.03
599.824	20157.64
600.02	19850.45
600.217	20045.01
600.413	19946.7
600.609	19938.51
600.806	19700.95
601.002	19983.57
601.198	19922.13
601.395	19786.96
601.591	19809.49
601.787	20245.71
601.984	19739.86
602.18	20108.49
602.376	19782.87
602.572	20223.18
602.769	19889.36
602.965	19862.74
603.161	20006.09
603.357	20122.83
603.553	19907.79
603.75	19856.59
603.946	20012.24
604.142	19926.22
604.338	19610.84
604.534	20131.02
604.73	19938.51
604.926	19856.59
605.122	20040.91
605.318	19956.94
605.514	19735.76
605.71	19791.06
605.906	19819.73
606.102	19901.65
606.298	20180.17
606.494	20180.17
606.69	20155.6
606.886	19993.81
607.082	19639.51
607.278	20303.05
607.474	19856.59
607.67	20180.17
607.866	19768.53
608.062	20305.1
608.257	20176.08
608.453	20245.71
608.649	20102.35
608.845	20010.19
609.041	20092.11
609.236	20415.69
609.432	20178.12
609.628	20397.26
609.824	20249.8
610.019	20384.97
610.215	20296.91
610.411	20444.36
610.606	20339.91
610.802	20569.29
610.998	20243.66
611.193	20358.35
611.389	20051.15
611.584	20380.87
611.78	20352.2
611.976	20298.95
612.171	20382.92
612.367	20276.43
612.562	20411.59
612.758	20389.06
612.953	20061.39
613.149	20364.49
613.344	20266.19
613.539	20690.12
613.735	20583.62
613.93	20614.34
614.126	20395.21
614.321	20808.9
614.517	20513.99
614.712	20425.93
614.907	20534.47
615.103	20669.64
615.298	20483.27
615.493	20786.37
615.688	20368.59
615.884	20536.52
616.079	20145.36
616.274	20495.56
616.47	20425.93
616.665	20442.31
616.86	20145.36
617.055	20159.69
617.25	20196.56
617.445	20176.08
617.641	19975.38
617.836	20311.24
618.031	20104.4
618.226	20339.91
618.421	20356.3
618.616	20427.98
618.811	19942.61
619.006	20368.59
619.201	19932.37
619.396	20135.12
619.591	19760.34
619.786	19950.8
619.981	19969.23
620.176	19858.64
620.371	19623.12
620.566	19557.59
620.761	19713.24
620.956	19578.07
621.151	19616.98
621.346	19553.49
621.541	19064.03
621.735	19330.27
621.93	18801.89
622.125	19320.03
622.32	18957.53
622.515	19260.63
622.709	18646.24
622.904	18762.98
623.099	18748.64
623.294	18719.97
623.488	18332.9
623.683	18582.76
623.878	18203.88
624.072	18310.38
624.267	18101.48
624.462	18128.11
624.656	17876.21
624.851	17994.99
625.046	17984.75
625.24	18097.39
625.435	17636.59
625.629	17765.62
625.824	17526
626.018	17571.06
626.213	17120.51
626.407	17237.24
626.602	17024.25
626.796	17335.54
626.991	17167.61
627.185	16932.09
627.38	17007.87
627.574	16764.16
627.768	16561.41
627.963	16502.02
628.157	16694.53
628.352	16669.95
628.546	16385.29
628.74	16557.32
628.935	16352.52
629.129	16229.64
629.323	15949.07
629.517	16096.52
629.712	15895.82
629.906	15985.93
630.1	15580.43
630.294	15580.43
630.489	15666.45
630.683	15920.4
630.877	15428.88
631.071	15478.04
631.265	15480.08
631.459	15172.89
631.653	15369.49
631.848	15254.81
632.042	15013.15
632.236	15295.77
632.43	15025.43
632.624	15093.02
632.818	14877.98
633.012	14814.49
633.206	14576.93
633.4	14681.38
633.594	14597.41
633.788	14552.35
633.982	14490.91
634.176	14286.12
634.369	14249.25
634.563	14105.9
634.757	14011.69
634.951	14255.4
635.145	14101.8
635.339	14019.88
635.533	13985.07
635.726	13729.07
635.92	13634.86
636.114	13493.55
636.308	13477.17
636.501	13438.26
636.695	13630.77
636.889	13200.69
637.083	13528.37
637.276	13237.56
637.47	13165.88
637.664	13045.05
637.857	13153.59
638.051	13065.53
638.244	12950.84
638.438	12684.61
638.632	12586.3
638.825	12451.14
639.019	12592.45
639.212	12408.13
639.406	12426.56
639.599	12381.51
639.793	12170.57
639.986	12129.61
640.18	12346.69
640.373	12119.37
640.567	11812.17
640.76	11844.94
640.954	11871.56
641.147	11982.15
641.34	11656.53
641.534	11691.34
641.727	11775.31
641.92	11631.95
642.114	11537.74
642.307	11257.17
642.5	11355.47
642.694	11216.21
642.887	11058.52
643.08	11347.28
643.273	11095.38
643.467	11099.48
643.66	10847.58
643.853	10861.91
644.046	10751.32
644.239	10749.28
644.432	10749.28
644.626	10794.33
644.819	10591.58
645.012	10540.38
645.205	10386.79
645.398	10401.12
645.591	10444.13
645.784	10444.13
645.977	10216.8
646.17	10106.21
646.363	10354.02
646.556	10153.32
646.749	10132.84
646.942	9958.76
647.135	10018.15
647.328	9829.74
647.521	9837.93
647.714	9719.15
647.907	9713
648.099	9563.5
648.292	9721.2
648.485	9510.25
648.678	9317.75
648.871	9362.8
649.064	9268.59
649.256	9336.18
649.449	9254.26
649.642	9135.48
649.835	9051.51
650.027	9033.08
650.22	8838.52
650.413	8795.51
650.605	9071.99
650.798	8748.41
650.991	8693.12
651.183	8912.25
651.376	8437.12
651.568	8582.53
651.761	8592.76
651.954	8621.44
652.146	8519.04
652.339	8453.5
652.531	8533.37
652.724	8244.61
652.916	8240.51
653.109	8101.25
653.301	8437.12
653.494	8412.54
653.686	8217.99
653.879	8312.19
654.071	8117.64
654.263	8005
654.456	8093.06
654.648	8070.53
654.84	7724.43
655.033	7771.53
655.225	7880.07
655.417	7892.36
655.61	7652.75
655.802	7751.05
655.994	7603.6
656.186	7495.05
656.379	7519.63
656.571	7669.13
656.763	7462.29
656.955	7388.56
657.148	7540.11
657.34	7388.56
657.532	7290.26
657.724	7267.73
657.916	7406.99
658.108	7183.76
658.3	7124.37
658.492	7062.93
658.684	7153.04
658.876	7134.61
659.068	7064.98
659.26	6974.87
659.452	6997.4
659.644	6925.72
659.836	6913.43
660.028	6874.52
660.22	6759.83
660.412	6694.3
660.604	6790.55
660.796	6708.63
660.988	6593.95
661.18	6446.49
661.372	6587.8
661.563	6679.96
661.755	6600.09
661.947	6518.17
662.139	6352.29
662.331	6405.53
662.522	6432.16
662.714	6235.55
662.906	6243.74
663.097	6190.5
663.289	6155.68
663.481	5977.51
663.673	6108.58
663.864	6096.29
664.056	6258.08
664.247	5940.65
664.439	5963.17
664.631	5942.69
664.822	5924.26
665.014	5965.22
665.205	5756.33
665.397	5930.41
665.588	5750.18
665.78	5674.41
665.971	5782.95
666.163	5768.62
666.354	5660.07
666.546	5639.59
666.737	5543.34
666.929	5631.4
667.12	5561.77
667.311	5506.48
667.503	5537.2
667.694	5430.7
667.885	5373.36
668.077	5518.76
668.268	5348.78
668.459	5328.3
668.651	5186.99
668.842	5258.67
669.033	5334.45
669.224	5242.29
669.416	5307.82
669.607	5170.61
669.798	5250.48
669.989	5324.21
670.18	5182.9
670.371	5062.07
670.563	5135.79
670.754	5168.56
670.945	5004.72
671.136	5012.92
671.327	4957.62
671.518	4924.85
671.709	4963.76
671.9	5014.96
672.091	4922.8
672.282	4816.31
672.473	4795.83
672.664	4955.57
672.855	4914.61
673.046	4875.7
673.237	4844.98
673.428	4775.35
673.619	4814.26
673.809	4670.9
674	4777.4
674.191	4826.55
674.382	4652.47
674.573	4709.82
674.764	4693.43
674.954	4808.12
675.145	4566.46
675.336	4545.98
675.527	4550.07
675.717	4533.69
675.908	4509.12
676.099	4449.72
676.289	4556.22
676.48	4468.16
676.671	4484.54
676.861	4492.73
677.052	4351.42
677.243	4376
677.433	4478.4
677.624	4584.89
677.814	4505.02
678.005	4439.48
678.195	4371.9
678.386	4373.95
678.576	4390.33
678.767	4222.4
678.957	4359.61
679.148	4369.85
679.338	4400.57
679.529	4433.34
679.719	4279.74
679.909	4427.2
680.1	4249.02
680.29	4339.13
680.481	4332.99
680.671	4259.26
680.861	4216.26
681.052	4234.69
681.242	4113.86
681.432	4308.41
681.622	4251.07
681.813	4222.4
682.003	4107.71
682.193	4181.44
682.383	4255.17
682.573	4003.27
682.764	4128.19
682.954	4224.45
683.144	4212.16
683.334	3939.78
683.524	4277.69
683.714	4025.79
683.904	4120
684.094	4160.96
684.284	4062.66
684.474	4066.75
684.664	4048.32
684.854	4171.2
685.044	3939.78
685.234	3943.88
685.424	4033.99
685.614	4074.95
685.804	4029.89
685.994	3849.67
686.184	3982.79
686.374	3800.52
686.564	3900.87
686.753	3845.57
686.943	3939.78
687.133	3947.97
687.323	4009.41
687.513	3884.48
687.702	3966.4
687.892	3745.22
688.082	3882.44
688.272	3823.05
688.461	3775.94
688.651	3841.48
688.841	3755.46
689.03	3769.8
689.22	3651.02
689.41	3673.54
689.599	3737.03
689.789	3718.6
689.979	3728.84
690.168	3583.43
690.358	3784.13
690.547	3542.47
690.737	3720.65
690.926	3636.68
691.116	3628.49
691.305	3638.73
691.495	3636.68
691.684	3575.24
691.874	3603.91
692.063	3493.32
692.252	3548.62
692.442	3591.63
692.631	3470.8
692.82	3556.81
693.01	3454.41
693.199	3349.96
693.388	3425.74
693.578	3556.81
693.767	3524.04
693.956	3378.64
694.146	3483.08
694.335	3456.46
694.524	3296.72
694.713	3366.35
694.902	3395.02
695.092	3489.23
695.281	3429.84
695.47	3489.23
695.659	3343.82
695.848	3386.83
696.037	3261.9
696.226	3450.32
696.415	3343.82
696.604	3214.8
696.793	3366.35
696.982	3243.47
697.171	3505.61
697.36	3237.33
697.549	3202.51
697.738	3239.37
697.927	3202.51
698.116	3243.47
698.305	3161.55
698.494	3198.42
698.683	3161.55
698.872	3329.49
699.061	3161.55
699.25	3182.03
699.438	3171.79
699.627	3149.26
699.816	3218.89
700.005	3186.13
700.193	3108.3
700.382	3122.64
700.571	3093.97
700.76	3065.3
700.948	3145.17
701.137	3046.87
701.326	3198.42
701.514	3073.49
701.703	3079.63
701.892	3057.11
702.08	3202.51
702.269	3030.48
702.457	2854.36
702.646	3001.81
702.834	3014.1
703.023	2987.47
703.212	3075.54
703.4	3055.06
703.589	2948.56
703.777	2989.52
703.965	2991.57
704.154	2975.19
704.342	2913.75
704.531	2913.75
704.719	2893.27
704.907	2930.13
705.096	2741.72
705.284	2815.45
705.472	2952.66
705.661	2926.04
705.849	2987.47
706.037	2977.23
706.226	2751.96
706.414	2803.16
706.602	2768.34
706.79	2864.6
706.979	2817.49
707.167	2754.01
707.355	2719.19
707.543	2743.77
707.731	2784.73
707.919	2754.01
708.107	2678.23
708.296	2672.09
708.484	2641.37
708.672	2680.28
708.86	2667.99
709.048	2657.75
709.236	2635.22
709.424	2559.45
709.612	2719.19
709.8	2641.37
709.988	2608.6
710.176	2618.84
710.364	2624.98
710.551	2614.74
710.739	2606.55
710.927	2620.89
711.115	2500.06
711.303	2508.25
711.491	2532.83
711.679	2483.67
711.866	2399.71
712.054	2637.27
712.242	2395.61
712.43	2592.22
712.617	2557.4
712.805	2610.65
712.993	2477.53
713.181	2516.44
713.368	2287.07
713.556	2459.1
713.744	2391.52
713.931	2448.86
714.119	2332.12
714.306	2342.36
714.494	2350.56
714.682	2307.55
714.869	2457.05
715.057	2366.94
715.244	2309.6
715.432	2407.9
715.619	2391.52
715.807	2416.09
715.994	2328.03
716.182	2330.08
716.369	2293.21
716.556	2309.6
716.744	2289.12
716.931	2309.6
717.119	2354.65
717.306	2313.69
717.493	2235.87
717.681	2211.29
717.868	2178.53
718.055	2342.36
718.242	2262.49
718.43	2239.97
718.617	2268.64
718.804	2203.1
718.991	2237.92
719.179	2174.43
719.366	2256.35
719.553	2242.01
719.74	2194.91
719.927	2123.23
720.114	2186.72
720.301	2098.66
720.488	2172.38
720.676	2162.14
720.863	2174.43
721.05	2108.9
721.237	2076.13
721.424	2088.42
721.611	2117.09
721.798	2096.61
721.985	2080.22
722.172	2024.93
722.358	2047.46
722.545	2129.38
722.732	1934.82
722.919	2090.46
723.106	2053.6
723.293	2041.31
723.48	2016.74
723.667	2039.26
723.853	2031.07
724.04	2014.69
724.227	2016.74
724.414	2084.32
724.6	1861.09
724.787	2037.22
724.974	1932.77
725.161	1949.15
725.347	1797.6
725.534	1943.01
725.72	1949.15
725.907	1957.35
726.094	1932.77
726.28	1932.77
726.467	1910.24
726.653	1891.81
726.84	1934.82
727.027	1908.19
727.213	1877.48
727.4	2004.45
727.586	1885.67
727.773	1777.12
727.959	1848.8
728.145	1818.08
728.332	1836.52
728.518	1797.6
728.705	1768.93
728.891	1740.26
729.077	1762.79
729.264	1777.12
729.45	1885.67
729.636	1869.28
729.823	1830.37
730.009	1715.69
730.195	1820.13
730.382	1828.32
730.568	1793.51
730.754	1799.65
730.94	1664.49
731.126	1689.06
731.313	1752.55
731.499	1764.84
731.685	1715.69
731.871	1762.79
732.057	1693.16
732.243	1754.6
732.429	1787.36
732.615	1766.89
732.801	1773.03
732.987	1660.39
733.173	1734.12
733.359	1713.64
733.545	1705.45
733.731	1783.27
733.917	1705.45
734.103	1687.01
734.289	1646.05
734.475	1709.54
734.661	1682.92
734.847	1541.61
735.033	1572.33
735.219	1590.76
735.404	1609.19
735.59	1590.76
735.776	1654.25
735.962	1615.34
736.148	1639.91
736.333	1574.38
736.519	1623.53
736.705	1574.38
736.89	1601
737.076	1539.56
737.262	1578.47
737.447	1617.38
737.633	1572.33
737.819	1596.9
738.004	1582.57
738.19	1576.42
738.375	1455.59
738.561	1601
738.747	1506.79
738.932	1514.98
739.118	1555.94
739.303	1445.35
739.489	1484.27
739.674	1478.12
739.859	1457.64
740.045	1459.69
740.23	1449.45
740.416	1529.32
740.601	1531.37
740.786	1404.39
740.972	1400.3
741.157	1457.64
741.342	1359.34
741.528	1482.22
741.713	1461.74
741.898	1441.26
742.084	1375.72
742.269	1285.61
742.454	1371.63
742.639	1502.7
742.824	1424.87
743.01	1492.46
743.195	1426.92
743.38	1375.72
743.565	1381.87
743.75	1326.57
743.935	1388.01
744.12	1363.44
744.305	1304.04
744.49	1285.61
744.675	1287.66
744.86	1295.85
745.045	1283.56
745.23	1236.46
745.415	1277.42
745.6	1367.53
745.785	1390.06
745.97	1314.28
746.155	1265.13
746.34	1279.47
746.525	1195.5
746.71	1381.87
746.895	1201.65
747.079	1152.49
747.264	1164.78
747.449	1179.12
747.634	1250.8
747.819	1170.93
748.003	1236.46
748.188	1138.16
748.373	1172.97
748.557	1203.69
748.742	1170.93
748.927	1228.27
749.111	1134.06
749.296	1019.38
749.481	1179.12
749.665	1099.25
749.85	1074.67
750.034	1089.01
750.219	1129.97
750.404	1066.48
750.588	1048.05
750.773	1039.86
750.957	1127.92
751.141	1072.62
751.326	1136.11
751.51	1027.57
751.695	953.84
751.879	1062.38
752.064	1080.82
752.248	1015.28
752.432	1132.01
752.617	1089.01
752.801	1107.44
752.985	998.9
753.17	957.94
753.354	957.94
753.538	1093.1
753.722	949.75
753.907	984.56
754.091	980.47
754.275	906.74
754.459	902.64
754.643	884.21
754.828	851.44
755.012	853.49
755.196	894.45
755.38	900.59
755.564	855.54
755.748	878.07
755.932	882.16
756.116	900.59
756.3	890.35
756.484	894.45
756.668	822.77
756.852	941.55
757.036	826.87
757.22	828.92
757.404	814.58
757.588	833.01
757.772	830.96
757.956	884.21
758.14	884.21
758.323	853.49
758.507	806.39
758.691	830.96
758.875	835.06
759.059	876.02
759.242	761.33
759.426	843.25
759.61	802.29
759.794	685.56
759.977	697.85
760.161	851.44
760.345	724.47
760.528	773.62
760.712	724.47
760.895	777.72
761.079	761.33
761.263	703.99
761.446	671.22
761.63	710.13
761.813	712.18
761.997	671.22
762.18	773.62
762.364	722.42
762.547	712.18
762.731	706.04
762.914	753.14
763.098	687.61
763.281	681.46
763.464	728.56
763.648	615.93
763.831	695.8
764.015	626.17
764.198	605.69
764.381	714.23
764.564	712.18
764.748	728.56
764.931	740.85
765.114	706.04
765.297	671.22
765.481	679.41
765.664	728.56
765.847	654.84
766.03	656.89
766.213	540.15
766.397	632.31
766.58	652.79
766.763	634.36
766.946	648.69
767.129	634.36
767.312	564.73
767.495	572.92
767.678	556.54
767.861	679.41
768.044	646.65
768.227	552.44
768.41	638.45
768.593	599.54
768.776	697.85
768.959	558.58
769.142	675.32
769.324	609.78
769.507	646.65
769.69	683.51
769.873	585.21
770.056	613.88
770.239	577.02
770.421	607.73
770.604	564.73
770.787	601.59
770.97	583.16
771.152	607.73
771.335	591.35
771.518	589.3
771.7	613.88
771.883	671.22
772.066	540.15
772.248	601.59
772.431	658.93
772.613	536.06
772.796	548.34
772.978	474.62
773.161	564.73
773.343	527.86
773.526	564.73
773.708	531.96
773.891	491
774.073	542.2
774.256	425.47
774.438	538.1
774.621	454.14
774.803	538.1
774.985	484.86
775.168	474.62
775.35	503.29
775.532	527.86
775.715	486.9
775.897	474.62
776.079	544.25
776.261	523.77
776.444	437.75
776.626	488.95
776.808	511.48
776.99	503.29
777.173	464.38
777.355	466.42
777.537	550.39
777.719	454.14
777.901	458.23
778.083	468.47
778.265	349.69
778.447	478.71
778.629	419.32
778.811	419.32
778.993	339.45
779.175	386.55
779.357	443.9
779.539	398.84
779.721	380.41
779.903	482.81
780.085	382.46
780.267	445.95
780.449	501.24
780.631	431.61
780.812	450.04
780.994	417.27
781.176	417.27
781.358	339.45
781.54	359.93
781.721	400.89
781.903	413.18
782.085	364.03
782.267	488.95
782.448	302.59
782.63	318.97
782.812	347.64
782.993	419.32
783.175	321.02
783.357	359.93
783.538	331.26
783.72	413.18
783.901	286.2
784.083	384.51
784.264	378.36
784.446	310.78
784.627	302.59
784.809	359.93
784.99	323.07
785.172	321.02
785.353	347.64
785.535	390.65
785.716	376.31
785.897	247.29
786.079	343.55
786.26	280.06
786.441	345.59
786.623	253.44
786.804	302.59
786.985	329.21
787.167	278.01
787.348	306.68
787.529	249.34
787.71	341.5
787.891	337.4
788.073	263.68
788.254	282.11
788.435	325.12
788.616	265.72
788.797	253.44
788.978	237.05
789.159	296.44
789.34	329.21
789.522	202.24
789.703	259.58
789.884	263.68
790.065	271.87
790.246	286.2
790.427	230.91
790.607	343.55
790.788	327.16
790.969	257.53
791.15	253.44
791.331	255.48
791.512	271.87
791.693	204.28
791.874	218.62
792.054	318.97
792.235	263.68
792.416	278.01
792.597	214.52
792.778	241.15
792.958	224.76
793.139	204.28
793.32	245.24
793.5	159.23
793.681	300.54
793.862	255.48
794.042	241.15
794.223	241.15
794.404	220.67
794.584	167.42
794.765	226.81
794.945	251.39
795.126	220.67
795.306	224.76
795.487	175.61
795.667	208.38
795.848	249.34
796.028	187.9
796.209	218.62
796.389	230.91
796.57	187.9
796.75	212.48
796.93	187.9
797.111	232.96
797.291	105.98
797.471	200.19
797.652	189.95
797.832	177.66
798.012	228.86
798.192	120.32
798.373	142.85
798.553	181.76
798.733	204.28
798.913	138.75
799.093	155.13
799.274	288.25
799.454	224.76
799.634	245.24
799.814	175.61
799.994	261.63
800.174	179.71
800.354	128.51
800.534	130.56
800.714	243.2
800.894	198.14
801.074	167.42
801.254	163.33
801.434	175.61
801.614	163.33
801.794	189.95
801.974	968.18
802.154	200.19
802.334	212.48
802.514	108.03
802.693	83.45
802.873	118.27
803.053	171.52
803.233	126.46
803.413	157.18
803.592	173.57
803.772	146.94
803.952	124.41
804.131	116.22
804.311	151.04
804.491	310.78
804.67	69.12
804.85	140.8
805.03	187.9
805.209	110.08
805.389	108.03
805.568	208.38
805.748	237.05
805.928	138.75
806.107	124.41
806.287	89.6
806.466	103.93
806.646	179.71
806.825	126.46
807.004	101.89
807.184	181.76
807.363	241.15
807.543	175.61
807.722	155.13
807.901	128.51
808.081	165.37
808.26	48.64
808.439	189.95
808.619	159.23
808.798	118.27
808.977	146.94
809.156	255.48
809.336	132.61
809.515	239.1
809.694	81.41
809.873	103.93
810.052	146.94
810.231	216.57
810.411	157.18
810.59	159.23
810.769	81.41
810.948	151.04
811.127	65.02
811.306	124.41
811.485	155.13
811.664	187.9
811.843	146.94
812.022	105.98
812.201	105.98
812.38	97.79
812.559	132.61
812.737	99.84
812.916	58.88
813.095	130.56
813.274	134.65
813.453	146.94
813.632	126.46
813.811	142.85
813.989	83.45
814.168	130.56
814.347	101.89
814.526	108.03
814.704	91.65
814.883	112.13
815.062	144.89
815.24	81.41
815.419	34.3
815.598	83.45
815.776	60.93
815.955	132.61
816.133	48.64
816.312	116.22
816.49	99.84
816.669	65.02
816.847	105.98
817.026	138.75
817.204	108.03
817.383	62.98
817.561	95.74
817.74	97.79
817.918	140.8
818.097	65.02
818.275	69.12
818.453	81.41
818.632	108.03
818.81	26.11
818.988	56.83
819.167	50.69
819.345	46.59
819.523	77.31
819.701	99.84
819.879	73.21
820.058	77.31
820.236	44.54
820.414	85.5
820.592	118.27
820.77	26.11
820.948	163.33
821.127	120.32
821.305	73.21
821.483	65.02
821.661	71.17
821.839	75.26
822.017	3.58
822.195	163.33
822.373	155.13
822.551	140.8
822.729	34.3
822.907	11.78
823.085	126.46
823.262	101.89
823.44	130.56
823.618	-33.28
823.796	97.79
823.974	81.41
824.152	42.5
824.329	67.07
824.507	58.88
824.685	73.21
824.863	77.31
825.04	87.55
825.218	134.65
825.396	73.21
825.574	65.02
825.751	87.55
825.929	130.56
826.107	15.87
826.284	36.35
826.462	60.93
826.639	81.41
826.817	26.11
826.994	114.17
827.172	67.07
827.349	75.26
827.527	97.79
827.704	83.45
827.882	103.93
828.059	40.45
828.237	58.88
828.414	71.17
828.591	44.54
828.769	44.54
828.946	89.6
829.124	103.93
829.301	26.11
829.478	-6.66
829.655	124.41
829.833	40.45
830.01	11.78
830.187	105.98
830.364	75.26
830.542	114.17
830.719	40.45
830.896	101.89
831.073	87.55
831.25	-4.61
831.427	30.21
831.604	99.84
831.782	42.5
831.959	114.17
832.136	69.12
832.313	81.41
832.49	-8.7
832.667	65.02
832.844	65.02
833.021	17.92
833.198	108.03
833.374	108.03
833.551	93.69
833.728	69.12
833.905	62.98
834.082	48.64
834.259	108.03
834.436	93.69
834.612	26.11
834.789	81.41
834.966	15.87
835.143	134.65
835.319	28.16
835.496	103.93
835.673	77.31
835.85	81.41
836.026	46.59
836.203	114.17
836.38	103.93
836.556	11.78
836.733	24.06
836.909	114.17
837.086	34.3
837.262	-31.23
837.439	5.63
837.616	32.26
837.792	17.92
837.968	52.74
838.145	-45.57
838.321	89.6
838.498	101.89
838.674	56.83
838.851	5.63
839.027	42.5
839.203	65.02
839.38	65.02
839.556	-23.04
839.732	89.6
839.909	17.92
840.085	11.78
840.261	7.68
840.437	-57.86
840.614	62.98
840.79	42.5
840.966	138.75
841.142	32.26
841.318	73.21
841.494	24.06
841.671	73.21
841.847	58.88
842.023	48.64
842.199	105.98
842.375	97.79
842.551	-25.09
842.727	-0.51
842.903	34.3
843.079	-16.9
843.255	40.45
843.431	36.35
843.607	24.06
843.783	32.26
843.959	17.92
844.134	-66.05
844.31	17.92
844.486	-0.51
844.662	65.02
844.838	1.54
845.013	1.54
845.189	-39.42
845.365	75.26
845.541	-33.28
845.716	-35.33
845.892	56.83
846.068	1.54
846.244	-16.9
846.419	85.5
846.595	-35.33
846.77	-49.66
846.946	101.89
847.122	7.68
847.297	-8.7
847.473	56.83
847.648	24.06
847.824	40.45
847.999	-41.47
848.175	-20.99
848.35	30.21
848.526	97.79
848.701	54.78
848.876	15.87
849.052	46.59
849.227	40.45
849.403	9.73
849.578	50.69
849.753	15.87
849.929	9.73
850.104	-41.47
850.279	38.4
850.454	83.45
850.63	91.65
850.805	-14.85
850.98	83.45
851.155	28.16
851.33	44.54
851.505	28.16
851.681	67.07
851.856	32.26
852.031	-0.51
852.206	15.87
852.381	-4.61
852.556	36.35
852.731	28.16
852.906	60.93
853.081	-2.56
853.256	116.22
853.431	1.54
853.606	-20.99
853.781	-0.51
853.956	-33.28
854.131	56.83
854.305	-33.28
854.48	-23.04
854.655	42.5
854.83	-16.9
855.005	52.74
855.18	114.17
855.354	40.45
855.529	3.58
855.704	26.11
855.879	-27.14
856.053	11.78
856.228	24.06
856.403	-55.81
856.577	40.45
856.752	19.97
856.926	7.68
857.101	-0.51
857.276	-41.47
857.45	75.26
857.625	116.22
857.799	-2.56
857.974	26.11
858.148	-6.66
858.323	11.78
858.497	-4.61
858.672	42.5
858.846	40.45
859.02	71.17
859.195	-31.23
859.369	11.78
859.543	3.58
859.718	1.54
859.892	9.73
860.066	62.98
860.241	-0.51
860.415	73.21
860.589	-8.7
860.763	15.87
860.938	-49.66
861.112	65.02
861.286	-27.14
861.46	-94.72
861.634	-37.38
861.808	32.26
861.982	-0.51
862.157	50.69
862.331	99.84
862.505	17.92
862.679	-47.62
862.853	13.82
863.027	30.21
863.201	118.27
863.375	26.11
863.549	-31.23
863.722	-59.9
863.896	24.06
864.07	105.98
864.244	17.92
864.418	73.21
864.592	15.87
864.766	-33.28
864.939	48.64
865.113	15.87
865.287	58.88
865.461	-20.99
865.634	-20.99
865.808	1.54
865.982	24.06
866.156	-37.38
866.329	-2.56
866.503	-29.18
866.676	44.54
866.85	-55.81
867.024	22.02
867.197	24.06
867.371	42.5
867.544	-14.85
867.718	11.78
867.891	24.06
868.065	9.73
868.238	89.6
868.412	99.84
868.585	38.4
868.759	-31.23
868.932	9.73
869.105	7.68
869.279	-43.52
869.452	-16.9
869.625	36.35
869.799	40.45
869.972	-14.85
870.145	-0.51
870.319	122.37
870.492	5.63
870.665	-2.56
870.838	48.64
871.011	-41.47
871.185	5.63
871.358	-74.24
871.531	56.83
871.704	17.92
871.877	15.87
872.05	60.93
872.223	-41.47
872.396	30.21
872.569	42.5
872.742	-23.04
872.915	36.35
873.088	3.58
873.261	-23.04
873.434	69.12
873.607	-23.04
873.78	85.5
873.953	-8.7
874.126	26.11
874.299	5.63
874.471	15.87
874.644	50.69
874.817	-12.8
874.99	56.83
875.163	-53.76
875.335	73.21
875.508	3.58
875.681	7.68
875.853	-45.57
876.026	-4.61
876.199	-66.05
876.371	-33.28
876.544	-16.9
876.717	-16.9
876.889	19.97
877.062	19.97
877.234	-31.23
877.407	-47.62
877.579	1.54
877.752	-25.09
877.924	40.45
878.097	75.26
878.269	-88.57
878.442	-12.8
878.614	-4.61
878.786	5.63
878.959	28.16
879.131	42.5
879.303	-25.09
879.476	-8.7
879.648	-41.47
879.82	1.54
879.993	24.06
880.165	7.68
880.337	-70.14
880.509	-31.23
880.681	-51.71
880.854	-25.09
881.026	65.02
881.198	89.6
881.37	-0.51
881.542	28.16
881.714	-8.7
881.886	-23.04
882.058	-6.66
882.23	75.26
882.402	-8.7
882.574	-20.99
882.746	89.6
882.918	73.21
883.09	-2.56
883.262	58.88
883.434	-35.33
883.606	-74.24
883.778	-25.09
883.95	116.22
884.122	-8.7
884.293	-6.66
884.465	11.78
884.637	93.69
884.809	-8.7
884.98	1.54
885.152	73.21
885.324	50.69
885.496	3.58
885.667	-12.8
885.839	-25.09
886.011	3.58
886.182	-39.42
886.354	11.78
886.525	38.4
886.697	-14.85
886.869	-47.62
887.04	-6.66
887.212	71.17
887.383	67.07
887.555	26.11
887.726	-29.18
887.897	-4.61
888.069	-0.51
888.24	42.5
888.412	32.26
888.583	-66.05
888.754	5.63
888.926	-74.24
889.097	7.68
889.268	24.06
889.44	24.06
889.611	-70.14
889.782	-86.53
889.953	-39.42
890.125	1.54
890.296	-41.47
890.467	-25.09
890.638	-43.52
890.809	42.5
890.98	-8.7
891.151	26.11
891.323	67.07
891.494	-16.9
891.665	-90.62
891.836	9.73
892.007	40.45
892.178	73.21
892.349	-72.19
892.52	38.4
892.691	-39.42
892.862	-127.49
893.032	-74.24
893.203	58.88
893.374	-27.14
893.545	15.87
893.716	-18.94
893.887	-0.51
894.057	26.11
894.228	11.78
894.399	38.4
894.57	67.07
894.74	7.68
894.911	-4.61
895.082	22.02
895.253	38.4
895.423	-111.1
895.594	17.92
895.764	32.26
895.935	-53.76
896.106	-16.9
896.276	-49.66
896.447	65.02
896.617	9.73
896.788	-55.81
896.958	-16.9
897.129	-0.51
897.299	-12.8
897.47	65.02
897.64	11.78
897.81	7.68
897.981	-0.51
898.151	40.45
898.322	-8.7
898.492	48.64
898.662	-23.04
898.832	-29.18
899.003	7.68
899.173	28.16
899.343	7.68
899.513	-47.62
