Data from USB4F104151__76__14-30-29-323.txt Node

Date: Thu Mar 13 14:30:29 EDT 2025
User: louis
Spectrometer: USB4F10415
Trigger mode: 4
Integration Time (sec): 2.500000E-2
Scans to average: 1
Electric dark correction enabled: true
Nonlinearity correction enabled: false
Boxcar width: 0
XAxis mode: Wavelengths
Number of Pixels in Spectrum: 3648
>>>>>Begin Spectral Data<<<<<
178.204	-65.88
178.424	-65.88
178.644	-65.88
178.864	-98.64
179.084	-131.41
179.304	34.47
179.524	-45.4
179.744	-14.68
179.964	7.85
180.184	100.01
180.404	11.95
180.624	-6.49
180.844	11.95
181.064	-47.44
181.283	-39.25
181.503	-20.82
181.723	7.85
181.943	18.09
182.163	130.73
182.383	34.47
182.602	71.34
182.822	118.44
183.042	102.06
183.262	1.71
183.482	18.09
183.701	-12.63
183.921	22.19
184.141	52.91
184.361	87.72
184.58	-10.58
184.8	116.39
185.02	61.1
185.239	61.1
185.459	-33.11
185.679	112.3
185.898	11.95
186.118	20.14
186.338	5.8
186.557	102.06
186.777	9.9
186.997	-6.49
187.216	-31.06
187.436	89.77
187.655	122.54
187.875	9.9
188.095	40.62
188.314	54.95
188.534	38.57
188.753	91.82
188.973	69.29
189.192	83.63
189.412	69.29
189.631	34.47
189.851	71.34
190.07	79.53
190.29	-31.06
190.509	3.75
190.729	79.53
190.948	73.39
191.168	136.87
191.387	79.53
191.607	11.95
191.826	83.63
192.045	22.19
192.265	81.58
192.484	83.63
192.704	-31.06
192.923	26.28
193.142	128.68
193.362	9.9
193.581	100.01
193.8	95.91
194.02	79.53
194.239	34.47
194.458	77.48
194.678	1.71
194.897	59.05
195.116	42.67
195.335	75.43
195.555	52.91
195.774	67.24
195.993	79.53
196.212	13.99
196.432	32.43
196.651	83.63
196.87	36.52
197.089	118.44
197.308	46.76
197.528	42.67
197.747	-49.49
197.966	-14.68
198.185	26.28
198.404	67.24
198.623	116.39
198.842	42.67
199.062	59.05
199.281	114.34
199.5	30.38
199.719	3.75
199.938	132.78
200.157	151.21
200.376	24.23
200.595	30.38
200.814	112.3
201.033	18.09
201.252	-14.68
201.471	30.38
201.69	85.67
201.909	122.54
202.128	71.34
202.347	75.43
202.566	20.14
202.785	26.28
203.004	-63.83
203.223	126.63
203.442	108.2
203.661	42.67
203.879	149.16
204.098	75.43
204.317	34.47
204.536	30.38
204.755	34.47
204.974	54.95
205.193	52.91
205.411	110.25
205.63	83.63
205.849	9.9
206.068	112.3
206.287	151.21
206.505	93.87
206.724	11.95
206.943	79.53
207.162	-2.39
207.381	28.33
207.599	11.95
207.818	-18.77
208.037	61.1
208.255	11.95
208.474	100.01
208.693	59.05
208.911	85.67
209.13	61.1
209.349	-18.77
209.567	63.15
209.786	26.28
210.005	9.9
210.223	69.29
210.442	-18.77
210.661	-0.34
210.879	69.29
211.098	-16.73
211.316	69.29
211.535	91.82
211.753	71.34
211.972	79.53
212.191	61.1
212.409	-4.44
212.628	1.71
212.846	20.14
213.065	9.9
213.283	67.24
213.502	20.14
213.72	54.95
213.938	5.8
214.157	48.81
214.375	67.24
214.594	46.76
214.812	77.48
215.031	-14.68
215.249	42.67
215.467	26.28
215.686	28.33
215.904	134.82
216.122	77.48
216.341	81.58
216.559	-63.83
216.778	93.87
216.996	63.15
217.214	95.91
217.432	5.8
217.651	13.99
217.869	83.63
218.087	5.8
218.306	28.33
218.524	48.81
218.742	75.43
218.96	136.87
219.179	71.34
219.397	50.86
219.615	57
219.833	57
220.051	44.71
220.27	118.44
220.488	128.68
220.706	40.62
220.924	-6.49
221.142	83.63
221.36	38.57
221.578	28.33
221.796	-6.49
222.015	18.09
222.233	30.38
222.451	120.49
222.669	5.8
222.887	118.44
223.105	30.38
223.323	102.06
223.541	-61.78
223.759	63.15
223.977	46.76
224.195	77.48
224.413	52.91
224.631	7.85
224.849	-31.06
225.067	104.11
225.285	11.95
225.503	44.71
225.721	-18.77
225.939	13.99
226.157	26.28
226.375	120.49
226.592	11.95
226.81	50.86
227.028	69.29
227.246	108.2
227.464	40.62
227.682	52.91
227.9	116.39
228.117	20.14
228.335	57
228.553	18.09
228.771	34.47
228.989	-39.25
229.206	42.67
229.424	32.43
229.642	52.91
229.86	34.47
230.077	110.25
230.295	1.71
230.513	116.39
230.731	67.24
230.948	52.91
231.166	110.25
231.384	36.52
231.601	34.47
231.819	120.49
232.037	9.9
232.254	28.33
232.472	71.34
232.689	16.04
232.907	50.86
233.125	34.47
233.342	11.95
233.56	-53.59
233.777	9.9
233.995	71.34
234.213	85.67
234.43	-31.06
234.648	9.9
234.865	46.76
235.083	97.96
235.3	100.01
235.518	77.48
235.735	71.34
235.953	124.58
236.17	38.57
236.388	59.05
236.605	32.43
236.822	44.71
237.04	85.67
237.257	40.62
237.475	114.34
237.692	118.44
237.909	173.74
238.127	9.9
238.344	52.91
238.562	36.52
238.779	22.19
238.996	9.9
239.214	75.43
239.431	140.97
239.648	26.28
239.865	46.76
240.083	124.58
240.3	20.14
240.517	18.09
240.735	108.2
240.952	81.58
241.169	46.76
241.386	-14.68
241.603	132.78
241.821	-29.01
242.038	104.11
242.255	50.86
242.472	91.82
242.689	1.71
242.907	75.43
243.124	61.1
243.341	-67.92
243.558	1.71
243.775	42.67
243.992	-6.49
244.209	79.53
244.426	202.41
244.643	7.85
244.86	-0.34
245.078	110.25
245.295	-47.44
245.512	157.35
245.729	32.43
245.946	91.82
246.163	11.95
246.38	95.91
246.597	30.38
246.814	77.48
247.031	28.33
247.248	24.23
247.464	65.19
247.681	1.71
247.898	18.09
248.115	40.62
248.332	-6.49
248.549	118.44
248.766	50.86
248.983	42.67
249.2	18.09
249.417	83.63
249.633	77.48
249.85	52.91
250.067	30.38
250.284	-18.77
250.501	75.43
250.717	42.67
250.934	-18.77
251.151	40.62
251.368	59.05
251.585	34.47
251.801	91.82
252.018	69.29
252.235	87.72
252.451	-53.59
252.668	-10.58
252.885	48.81
253.102	1.71
253.318	-10.58
253.535	112.3
253.752	67.24
253.968	-4.44
254.185	91.82
254.401	44.71
254.618	155.3
254.835	52.91
255.051	30.38
255.268	16.04
255.484	106.15
255.701	18.09
255.917	59.05
256.134	18.09
256.351	59.05
256.567	-2.39
256.784	22.19
257	38.57
257.217	59.05
257.433	42.67
257.65	-6.49
257.866	44.71
258.082	63.15
258.299	-2.39
258.515	93.87
258.732	20.14
258.948	20.14
259.165	67.24
259.381	57
259.597	65.19
259.814	50.86
260.03	65.19
260.246	24.23
260.463	69.29
260.679	1.71
260.895	54.95
261.112	75.43
261.328	1.71
261.544	24.23
261.761	93.87
261.977	11.95
262.193	34.47
262.409	34.47
262.626	93.87
262.842	91.82
263.058	42.67
263.274	-6.49
263.49	83.63
263.707	75.43
263.923	34.47
264.139	-20.82
264.355	-6.49
264.571	59.05
264.787	59.05
265.004	120.49
265.22	11.95
265.436	9.9
265.652	-10.58
265.868	110.25
266.084	-2.39
266.3	26.28
266.516	-18.77
266.732	91.82
266.948	20.14
267.164	75.43
267.38	13.99
267.596	91.82
267.812	181.93
268.028	59.05
268.244	71.34
268.46	52.91
268.676	97.96
268.892	18.09
269.108	34.47
269.324	63.15
269.54	38.57
269.756	100.01
269.972	-31.06
270.188	28.33
270.403	9.9
270.619	-47.44
270.835	-0.34
271.051	-20.82
271.267	40.62
271.483	85.67
271.698	120.49
271.914	71.34
272.13	18.09
272.346	9.9
272.562	59.05
272.777	71.34
272.993	-4.44
273.209	85.67
273.425	71.34
273.64	-2.39
273.856	63.15
274.072	83.63
274.287	57
274.503	77.48
274.719	5.8
274.934	34.47
275.15	-53.59
275.366	20.14
275.581	34.47
275.797	9.9
276.012	30.38
276.228	52.91
276.444	50.86
276.659	52.91
276.875	-31.06
277.09	22.19
277.306	16.04
277.521	-6.49
277.737	34.47
277.952	42.67
278.168	75.43
278.383	30.38
278.599	-4.44
278.814	97.96
279.03	57
279.245	83.63
279.461	1.71
279.676	75.43
279.892	5.8
280.107	38.57
280.322	3.75
280.538	97.96
280.753	71.34
280.969	75.43
281.184	42.67
281.399	177.83
281.615	1.71
281.83	83.63
282.045	73.39
282.26	91.82
282.476	1.71
282.691	149.16
282.906	1.71
283.122	59.05
283.337	-0.34
283.552	73.39
283.767	-12.63
283.983	102.06
284.198	38.57
284.413	134.82
284.628	9.9
284.843	93.87
285.058	79.53
285.274	67.24
285.489	48.81
285.704	108.2
285.919	67.24
286.134	34.47
286.349	9.9
286.564	24.23
286.779	59.05
286.995	100.01
287.21	28.33
287.425	65.19
287.64	38.57
287.855	108.2
288.07	100.01
288.285	106.15
288.5	95.91
288.715	67.24
288.93	73.39
289.145	42.67
289.36	9.9
289.575	67.24
289.79	108.2
290.004	-10.58
290.219	63.15
290.434	36.52
290.649	100.01
290.864	63.15
291.079	85.67
291.294	67.24
291.509	75.43
291.724	11.95
291.938	-2.39
292.153	104.11
292.368	3.75
292.583	87.72
292.798	59.05
293.012	-4.44
293.227	67.24
293.442	34.47
293.657	81.58
293.871	140.97
294.086	-31.06
294.301	136.87
294.516	54.95
294.73	73.39
294.945	-6.49
295.16	38.57
295.374	65.19
295.589	118.44
295.804	59.05
296.018	75.43
296.233	124.58
296.447	9.9
296.662	9.9
296.877	24.23
297.091	50.86
297.306	77.48
297.52	36.52
297.735	34.47
297.949	9.9
298.164	28.33
298.378	16.04
298.593	85.67
298.807	67.24
299.022	48.81
299.236	-41.3
299.451	77.48
299.665	67.24
299.88	83.63
300.094	65.19
300.309	52.91
300.523	42.67
300.737	24.23
300.952	63.15
301.166	114.34
301.381	16.04
301.595	91.82
301.809	36.52
302.024	5.8
302.238	20.14
302.452	40.62
302.667	71.34
302.881	116.39
303.095	40.62
303.309	67.24
303.524	13.99
303.738	124.58
303.952	128.68
304.166	75.43
304.381	26.28
304.595	91.82
304.809	30.38
305.023	100.01
305.237	5.8
305.452	83.63
305.666	34.47
305.88	9.9
306.094	104.11
306.308	48.81
306.522	67.24
306.736	110.25
306.95	30.38
307.164	116.39
307.379	65.19
307.593	75.43
307.807	132.78
308.021	102.06
308.235	110.25
308.449	-22.87
308.663	26.28
308.877	134.82
309.091	16.04
309.305	100.01
309.519	-6.49
309.733	34.47
309.947	13.99
310.161	73.39
310.374	57
310.588	79.53
310.802	-16.73
311.016	59.05
311.23	48.81
311.444	87.72
311.658	85.67
311.872	54.95
312.085	69.29
312.299	151.21
312.513	151.21
312.727	34.47
312.941	22.19
313.154	75.43
313.368	112.3
313.582	140.97
313.796	22.19
314.009	95.91
314.223	-4.44
314.437	95.91
314.651	140.97
314.864	69.29
315.078	26.28
315.292	38.57
315.505	143.02
315.719	75.43
315.933	106.15
316.146	67.24
316.36	71.34
316.573	106.15
316.787	81.58
317.001	59.05
317.214	26.28
317.428	91.82
317.641	26.28
317.855	40.62
318.068	18.09
318.282	79.53
318.495	67.24
318.709	100.01
318.922	44.71
319.136	102.06
319.349	20.14
319.563	34.47
319.776	95.91
319.99	102.06
320.203	20.14
320.417	11.95
320.63	67.24
320.843	81.58
321.057	52.91
321.27	48.81
321.483	75.43
321.697	110.25
321.91	20.14
322.124	108.2
322.337	75.43
322.55	34.47
322.763	18.09
322.977	40.62
323.19	24.23
323.403	77.48
323.617	87.72
323.83	100.01
324.043	75.43
324.256	18.09
324.469	22.19
324.683	52.91
324.896	5.8
325.109	28.33
325.322	61.1
325.535	67.24
325.748	67.24
325.962	63.15
326.175	108.2
326.388	75.43
326.601	108.2
326.814	32.43
327.027	59.05
327.24	136.87
327.453	3.75
327.666	108.2
327.879	100.01
328.092	63.15
328.305	75.43
328.518	50.86
328.731	-20.82
328.944	-12.63
329.157	-51.54
329.37	34.47
329.583	44.71
329.796	124.58
330.009	5.8
330.222	61.1
330.435	100.01
330.648	108.2
330.861	42.67
331.073	77.48
331.286	104.11
331.499	54.95
331.712	87.72
331.925	83.63
332.138	116.39
332.35	85.67
332.563	95.91
332.776	83.63
332.989	-14.68
333.202	87.72
333.414	-6.49
333.627	67.24
333.84	38.57
334.053	42.67
334.265	28.33
334.478	44.71
334.691	30.38
334.903	9.9
335.116	-24.92
335.329	-12.63
335.541	63.15
335.754	108.2
335.966	71.34
336.179	38.57
336.392	44.71
336.604	83.63
336.817	116.39
337.029	61.1
337.242	46.76
337.454	67.24
337.667	75.43
337.88	59.05
338.092	71.34
338.305	91.82
338.517	124.58
338.729	100.01
338.942	87.72
339.154	87.72
339.367	-6.49
339.579	65.19
339.792	52.91
340.004	102.06
340.217	20.14
340.429	1.71
340.641	46.76
340.854	13.99
341.066	-16.73
341.278	87.72
341.491	65.19
341.703	44.71
341.915	61.1
342.128	75.43
342.34	67.24
342.552	22.19
342.764	85.67
342.977	50.86
343.189	3.75
343.401	67.24
343.613	42.67
343.826	71.34
344.038	18.09
344.25	11.95
344.462	38.57
344.674	67.24
344.886	73.39
345.099	100.01
345.311	75.43
345.523	67.24
345.735	-22.87
345.947	52.91
346.159	69.29
346.371	-8.53
346.583	69.29
346.795	124.58
347.007	-12.63
347.219	116.39
347.431	40.62
347.643	106.15
347.855	71.34
348.067	149.16
348.279	52.91
348.491	30.38
348.703	95.91
348.915	-6.49
349.127	69.29
349.339	87.72
349.551	44.71
349.763	61.1
349.975	18.09
350.187	-22.87
350.399	110.25
350.61	38.57
350.822	30.38
351.034	77.48
351.246	87.72
351.458	40.62
351.669	36.52
351.881	165.54
352.093	38.57
352.305	134.82
352.517	32.43
352.728	108.2
352.94	132.78
353.152	140.97
353.363	-29.01
353.575	124.58
353.787	124.58
353.999	38.57
354.21	128.68
354.422	52.91
354.633	30.38
354.845	52.91
355.057	85.67
355.268	40.62
355.48	149.16
355.692	75.43
355.903	93.87
356.115	3.75
356.326	77.48
356.538	159.4
356.749	69.29
356.961	-20.82
357.172	46.76
357.384	1.71
357.595	206.5
357.807	22.19
358.018	100.01
358.23	75.43
358.441	149.16
358.653	77.48
358.864	36.52
359.075	42.67
359.287	95.91
359.498	116.39
359.709	89.77
359.921	83.63
360.132	42.67
360.344	108.2
360.555	22.19
360.766	116.39
360.977	77.48
361.189	67.24
361.4	34.47
361.611	102.06
361.823	42.67
362.034	44.71
362.245	69.29
362.456	108.2
362.667	100.01
362.879	54.95
363.09	102.06
363.301	50.86
363.512	79.53
363.723	52.91
363.935	3.75
364.146	52.91
364.357	18.09
364.568	85.67
364.779	52.91
364.99	100.01
365.201	54.95
365.412	28.33
365.623	50.86
365.834	48.81
366.045	26.28
366.256	100.01
366.467	128.68
366.678	69.29
366.889	38.57
367.1	118.44
367.311	97.96
367.522	95.91
367.733	85.67
367.944	83.63
368.155	1.71
368.366	126.63
368.577	75.43
368.788	28.33
368.999	3.75
369.209	11.95
369.42	100.01
369.631	59.05
369.842	46.76
370.053	75.43
370.264	79.53
370.474	42.67
370.685	136.87
370.896	34.47
371.107	75.43
371.317	34.47
371.528	106.15
371.739	128.68
371.95	40.62
372.16	157.35
372.371	-18.77
372.582	71.34
372.792	26.28
373.003	67.24
373.214	71.34
373.424	5.8
373.635	75.43
373.846	52.91
374.056	34.47
374.267	83.63
374.477	48.81
374.688	26.28
374.898	30.38
375.109	79.53
375.319	100.01
375.53	81.58
375.74	67.24
375.951	116.39
376.161	85.67
376.372	54.95
376.582	-6.49
376.793	91.82
377.003	32.43
377.214	54.95
377.424	104.11
377.635	63.15
377.845	38.57
378.055	77.48
378.266	11.95
378.476	44.71
378.686	79.53
378.897	67.24
379.107	67.24
379.317	83.63
379.528	59.05
379.738	30.38
379.948	40.62
380.158	106.15
380.369	42.67
380.579	20.14
380.789	50.86
380.999	116.39
381.21	36.52
381.42	34.47
381.63	91.82
381.84	77.48
382.05	91.82
382.261	145.06
382.471	83.63
382.681	79.53
382.891	151.21
383.101	67.24
383.311	26.28
383.521	48.81
383.731	95.91
383.941	128.68
384.151	69.29
384.361	34.47
384.571	63.15
384.781	91.82
384.991	181.93
385.201	100.01
385.411	75.43
385.621	100.01
385.831	48.81
386.041	122.54
386.251	71.34
386.461	85.67
386.671	-4.44
386.881	63.15
387.091	79.53
387.301	124.58
387.511	104.11
387.72	83.63
387.93	120.49
388.14	42.67
388.35	69.29
388.56	147.11
388.769	100.01
388.979	83.63
389.189	59.05
389.399	44.71
389.609	118.44
389.818	85.67
390.028	124.58
390.238	46.76
390.447	110.25
390.657	93.87
390.867	-14.68
391.076	59.05
391.286	87.72
391.496	87.72
391.705	59.05
391.915	95.91
392.125	124.58
392.334	108.2
392.544	124.58
392.753	63.15
392.963	73.39
393.172	93.87
393.382	75.43
393.591	206.5
393.801	108.2
394.01	132.78
394.22	95.91
394.429	173.74
394.639	44.71
394.848	102.06
395.058	87.72
395.267	100.01
395.477	67.24
395.686	59.05
395.895	210.6
396.105	171.69
396.314	136.87
396.524	116.39
396.733	71.34
396.942	163.5
397.152	112.3
397.361	157.35
397.57	165.54
397.78	20.14
397.989	71.34
398.198	198.31
398.407	38.57
398.617	116.39
398.826	69.29
399.035	136.87
399.244	71.34
399.453	149.16
399.663	153.26
399.872	165.54
400.081	136.87
400.29	190.12
400.499	67.24
400.708	153.26
400.917	173.74
401.127	124.58
401.336	87.72
401.545	147.11
401.754	206.5
401.963	161.45
402.172	91.82
402.381	106.15
402.59	161.45
402.799	61.1
403.008	163.5
403.217	132.78
403.426	163.5
403.635	149.16
403.844	83.63
404.053	202.41
404.262	132.78
404.471	222.89
404.68	97.96
404.888	136.87
405.097	218.79
405.306	231.08
405.515	198.31
405.724	188.07
405.933	288.42
406.142	157.35
406.35	159.4
406.559	224.94
406.768	249.51
406.977	214.7
407.185	231.08
407.394	222.89
407.603	216.74
407.812	235.18
408.02	206.5
408.229	247.46
408.438	296.61
408.646	288.42
408.855	284.33
409.064	347.81
409.272	263.85
409.481	274.09
409.69	296.61
409.898	267.94
410.107	380.58
410.315	317.09
410.524	329.38
410.733	419.49
410.941	341.67
411.15	452.26
411.358	374.44
411.567	480.93
411.775	394.92
411.984	446.12
412.192	519.84
412.401	511.65
412.609	554.66
412.818	583.33
413.026	601.76
413.234	546.47
413.443	528.03
413.651	540.32
413.86	642.72
414.068	708.26
414.276	702.11
414.485	659.1
414.693	665.25
414.901	749.22
415.11	779.93
415.318	775.84
415.526	779.93
415.734	820.89
415.943	911
416.151	900.76
416.359	919.2
416.567	1013.4
416.776	904.86
416.984	1017.5
417.192	1119.9
417.4	1072.79
417.608	1072.79
417.817	1091.23
418.025	1197.72
418.233	1263.26
418.441	1259.16
418.649	1332.89
418.857	1414.81
419.065	1418.9
419.273	1318.55
419.481	1468.05
419.689	1476.24
419.897	1617.55
420.105	1705.62
420.313	1732.24
420.521	1707.66
420.729	1750.67
420.937	1851.02
421.145	1891.98
421.353	1926.8
421.561	2115.21
421.769	2027.15
421.977	2109.07
422.185	2172.55
422.393	2254.47
422.601	2463.37
422.809	2426.5
423.017	2332.3
423.224	2502.28
423.432	2692.74
423.64	2608.77
423.848	2928.25
424.056	2803.33
424.263	3081.85
424.471	3047.04
424.679	3245.69
424.887	3311.22
425.094	3348.09
425.302	3376.76
425.51	3329.66
425.718	3520.12
425.925	3602.04
426.133	3767.92
426.341	3976.81
426.548	4161.13
426.756	4179.56
426.964	4107.88
427.171	4490.85
427.379	4443.75
427.586	4656.74
427.794	4744.8
428.001	4982.37
428.209	5217.88
428.417	5195.36
428.624	5652.05
428.832	5494.36
429.039	5705.3
429.247	5490.26
429.454	6096.46
429.662	6415.94
429.869	5944.91
430.076	6377.03
430.284	6143.56
430.491	6530.63
430.699	6917.7
430.906	6889.03
431.114	6884.93
431.321	7196.22
431.528	7319.1
431.736	7808.56
431.943	8130.09
432.15	7792.18
432.358	7949.87
432.565	8336.94
432.772	8220.21
432.979	8703.53
433.187	8728.1
433.394	8996.39
433.601	9516.57
433.808	9580.06
434.016	9405.98
434.223	9842.2
434.43	10591.75
434.637	10251.79
434.844	10909.19
435.052	11202.05
435.259	11030.02
435.466	10995.2
435.673	10937.86
435.88	11587.07
436.087	12375.53
436.294	12232.18
436.501	12031.48
436.708	12330.48
436.915	12703.21
437.122	13137.38
437.329	13207.01
437.537	13587.93
437.743	14026.2
437.95	13727.19
438.157	14452.17
438.364	14906.82
438.571	14968.26
438.778	14837.19
438.985	16242.1
439.192	15650.24
439.399	16303.54
439.606	15451.58
439.813	16750
440.02	17765.79
440.227	17442.21
440.433	17313.19
440.64	18179.48
440.847	17497.5
441.054	18208.15
441.261	19320.2
441.467	19033.48
441.674	19369.35
441.881	20252.02
442.088	20104.57
442.294	19928.44
442.501	20366.71
442.708	21298.53
442.914	21534.05
443.121	22652.24
443.328	21960.03
443.534	23246.15
443.741	22578.51
443.948	22510.93
444.154	24337.72
444.361	24094.01
444.568	24102.2
444.774	24411.45
444.981	24423.73
445.187	24986.93
445.394	26254.62
445.6	26041.63
445.807	28394.75
446.013	27053.33
446.22	27415.82
446.426	28433.66
446.633	29041.9
446.839	29920.48
447.046	28597.49
447.252	30344.41
447.459	30016.74
447.665	30379.23
447.871	31243.47
448.078	32709.82
448.284	30876.88
448.491	31923.4
448.697	33563.82
448.903	34139.3
449.11	34288.8
449.316	33432.75
449.522	34022.56
449.728	34919.57
449.935	35140.75
450.141	35304.59
450.347	36140.16
450.553	34727.06
450.76	35372.17
450.966	36547.71
451.172	36017.29
451.378	37172.34
451.584	36490.37
451.791	37129.33
451.997	36832.38
452.203	37602.41
452.409	37602.41
452.615	37299.31
452.821	36050.05
453.027	35769.48
453.233	38128.74
453.44	36142.21
453.646	36580.48
453.852	36514.94
454.058	37305.46
454.264	36123.78
454.47	37196.92
454.676	36105.35
454.882	37284.98
455.088	33819.81
455.294	34247.84
455.5	34966.68
455.705	35495.05
455.911	33549.48
456.117	32978.1
456.323	32730.3
456.529	31020.24
456.735	32425.15
456.941	31309
457.147	30985.43
457.352	29938.91
457.558	29902.05
457.764	29877.47
457.97	29273.32
458.176	28357.88
458.381	28611.83
458.587	26883.34
458.793	27221.26
458.999	25664.8
459.204	27428.1
459.41	26785.04
459.616	24980.78
459.821	24878.38
460.027	24925.49
460.233	24231.22
460.438	23379.27
460.644	23397.7
460.85	22017.37
461.055	21929.31
461.261	21986.65
461.466	19993.98
461.672	19604.86
461.878	21206.38
462.083	19719.55
462.289	19191.17
462.494	19004.81
462.7	18060.7
462.905	17733.02
463.111	18185.62
463.316	18515.34
463.522	18011.54
463.727	17980.82
463.932	17921.43
464.138	17907.1
464.343	18032.02
464.549	17292.71
464.754	17657.25
464.959	17599.9
465.165	17333.67
465.37	16852.39
465.575	16532.91
465.781	17003.94
465.986	17190.31
466.191	16440.75
466.397	16127.41
466.602	15224.26
466.807	15584.7
467.012	15773.11
467.218	15709.63
467.423	15576.51
467.628	15654.33
467.833	16420.27
468.038	15705.53
468.244	15117.76
468.449	15822.27
468.654	15080.9
468.859	15035.85
469.064	15148.48
469.269	14702.03
469.474	14317.01
469.679	14726.6
469.885	14251.47
470.09	14687.69
470.295	14546.38
470.5	14118.36
470.705	14153.17
470.91	13905.37
471.115	13798.87
471.32	13848.02
471.525	13975
471.73	13258.21
471.935	13534.68
472.139	13043.17
472.344	13176.29
472.549	12989.92
472.754	12922.34
472.959	12707.3
473.164	12277.23
473.369	12322.29
473.574	12842.47
473.778	12606.95
473.983	12369.39
474.188	12051.95
474.393	11640.31
474.598	11767.29
474.802	11728.38
475.007	11644.41
475.212	11521.53
475.417	11195.9
475.621	11187.71
475.826	11042.31
476.031	10941.96
476.235	10866.18
476.44	11070.98
476.645	10583.56
476.849	10976.77
477.054	10475.02
477.259	10366.48
477.463	10632.71
477.668	10432.01
477.872	10204.69
478.077	10184.21
478.282	9948.69
478.486	9870.87
478.691	9934.36
478.895	9834
479.1	9743.89
479.304	9551.38
479.509	9532.95
479.713	9606.68
479.918	9397.79
480.122	9274.91
480.326	9469.47
480.531	9481.75
480.735	9219.61
480.94	9119.26
481.144	9336.35
481.348	9127.46
481.553	9086.5
481.757	8961.57
481.961	9188.89
482.166	9102.88
482.37	9082.4
482.574	9041.44
482.778	8967.71
482.983	9102.88
483.187	8887.84
483.391	9004.58
483.595	8965.67
483.8	8875.56
484.004	8934.95
484.208	9119.26
484.412	8818.21
484.616	9049.63
484.821	8748.58
485.025	8810.02
485.229	9049.63
485.433	8783.4
485.637	8826.4
485.841	9000.48
486.045	8916.51
486.249	8695.33
486.453	8941.09
486.657	8881.7
486.861	8807.97
487.065	8785.44
487.269	8787.49
487.473	8508.97
487.677	8801.83
487.881	8914.47
488.085	8939.04
488.289	8810.02
488.493	8807.97
488.697	9025.06
488.901	8824.36
489.105	8777.25
489.309	8783.4
489.512	8789.54
489.716	8986.15
489.92	8973.86
490.124	8781.35
490.328	9053.73
490.531	8834.6
490.735	9072.16
490.939	9209.37
491.143	8971.81
491.346	9117.22
491.55	9154.08
491.754	9035.3
491.958	9078.3
492.161	8922.66
492.365	9324.06
492.569	9109.02
492.772	9078.3
492.976	9236
493.18	9315.87
493.383	9260.57
493.587	9307.68
493.79	9471.51
493.994	9252.38
494.197	9434.65
494.401	9586.2
494.605	9383.45
494.808	9801.24
495.012	9621.02
495.215	9702.93
495.419	9727.51
495.622	9682.45
495.825	9815.57
496.029	9821.72
496.232	10169.87
496.436	10126.86
496.639	10087.95
496.843	10126.86
497.046	10384.91
497.249	10434.06
497.453	10737.16
497.656	10774.02
497.859	10556.94
498.063	10819.08
498.266	10890.76
498.469	10804.74
498.673	11034.11
498.876	11087.36
499.079	11396.6
499.282	11197.95
499.485	11443.71
499.689	11613.69
499.892	11716.09
500.095	11666.94
500.298	11857.4
500.501	11843.06
500.705	12013.04
500.908	12363.25
501.111	12396.01
501.314	12479.98
501.517	12457.45
501.72	12756.46
501.923	12633.58
502.126	13159.91
502.329	13168.1
502.532	13284.83
502.735	13354.46
502.938	13575.64
503.141	13655.51
503.344	13927.89
503.547	13970.9
503.75	14013.91
503.953	14235.09
504.156	14364.11
504.359	14353.87
504.562	14542.28
504.765	14759.37
504.968	14984.65
505.17	14806.47
505.373	14947.78
505.576	15314.37
505.779	15467.97
505.982	15703.48
506.185	15742.39
506.387	15771.07
506.59	16020.92
506.793	16479.66
506.996	16229.81
507.198	17071.53
507.401	16643.5
507.604	16885.16
507.807	17237.41
508.009	17395.11
508.212	17339.81
508.415	17583.52
508.617	17921.43
508.82	17845.66
509.022	18062.74
509.225	18269.59
509.428	18611.6
509.63	18630.03
509.833	18767.24
510.035	19027.34
510.238	19111.3
510.44	19371.4
510.643	19545.47
510.845	19893.63
511.048	19639.68
511.25	19881.34
511.453	20110.71
511.655	20931.95
511.858	20583.79
512.06	20862.32
512.262	20872.56
512.465	21024.11
512.667	21665.12
512.87	21683.55
513.072	21572.96
513.274	21974.36
513.477	22195.54
513.679	22398.29
513.881	22482.26
514.084	22945.1
514.286	22678.86
514.488	22971.72
514.69	23665.99
514.893	23510.34
515.095	23766.34
515.297	24112.44
515.499	24102.2
515.701	23899.45
515.904	24534.32
516.106	24784.18
516.308	24833.33
516.51	25261.35
516.712	24976.69
516.914	25537.83
517.116	25851.17
517.318	25707.81
517.52	26154.27
517.722	26166.56
517.925	26535.19
518.127	27000.08
518.329	27026.7
518.531	26924.3
518.733	27622.66
518.935	27733.25
519.136	27516.17
519.338	27813.12
519.54	27858.18
519.742	28343.55
519.944	28390.65
520.146	28550.39
520.348	29107.44
520.55	28923.12
520.752	29234.41
520.954	29490.41
521.155	29596.9
521.357	29895.91
521.559	30094.56
521.761	30391.51
521.963	29953.25
522.164	30174.43
522.366	30457.05
522.568	30723.29
522.77	30872.79
522.971	31204.56
523.173	30684.37
523.375	31124.69
523.576	31194.32
523.778	31069.39
523.98	31390.92
524.181	31433.93
524.383	31550.67
524.584	32101.57
524.786	31534.28
524.988	31648.97
525.189	31847.62
525.391	32093.38
525.592	32371.9
525.794	32187.58
525.995	32289.98
526.197	32472.25
526.398	32611.51
526.6	32521.4
526.801	32470.2
527.003	32666.81
527.204	32605.37
527.406	32793.78
527.607	32994.48
527.808	32824.5
528.01	32249.02
528.211	32605.37
528.412	32908.47
528.614	32814.26
528.815	32810.17
529.016	33115.31
529.218	32658.62
529.419	33017.01
529.62	32740.54
529.822	32552.12
530.023	32574.65
530.224	32885.94
530.425	33006.77
530.626	32306.37
530.828	32398.52
531.029	33027.25
531.23	32648.38
531.431	32724.15
531.632	32363.71
531.833	32529.59
532.035	32730.3
532.236	32292.03
532.437	32419
532.638	32386.24
532.839	32376
533.04	32445.63
533.241	32025.79
533.442	32603.32
533.643	32126.14
533.844	32257.21
534.045	32023.75
534.246	31536.33
534.447	32187.58
534.648	31933.64
534.849	32120
535.05	31583.43
535.251	32042.18
535.451	31392.97
535.652	31507.66
535.853	31429.84
536.054	31712.45
536.255	31845.57
536.456	31474.89
536.657	32023.75
536.857	31020.24
537.058	30848.21
537.259	31628.49
537.46	31771.85
537.66	30858.45
537.861	31192.27
538.062	31093.97
538.263	31110.35
538.463	30991.57
538.664	31194.32
538.865	30864.6
539.065	31096.02
539.266	30715.09
539.466	31112.4
539.667	30352.6
539.868	30893.27
540.068	30942.42
540.269	30696.66
540.469	30842.07
540.67	31059.15
540.87	30727.38
541.071	30442.71
541.271	30559.45
541.472	30715.09
541.672	30233.82
541.873	30133.47
542.073	30123.23
542.274	30704.85
542.474	30205.15
542.675	30151.9
542.875	30325.98
543.075	30315.74
543.276	29617.38
543.476	30508.25
543.676	30360.8
543.877	30729.43
544.077	29861.09
544.277	30102.75
544.478	29875.43
544.678	30729.43
544.878	29947.11
545.078	30291.16
545.279	30016.74
545.479	30031.07
545.679	30108.9
545.879	30622.94
546.079	29766.88
546.28	30117.09
546.48	29701.35
546.68	30285.02
546.88	30309.6
547.08	30297.31
547.28	30043.36
547.48	29912.29
547.68	30448.86
547.88	30098.66
548.081	30442.71
548.281	30121.18
548.481	30143.71
548.681	30403.8
548.881	30133.47
549.081	30334.17
549.28	30098.66
549.48	30512.35
549.68	29957.35
549.88	30719.19
550.08	30285.02
550.28	30199.01
550.48	30037.22
550.68	30751.96
550.88	30227.68
551.08	30145.76
551.279	30514.39
551.479	30162.14
551.679	30571.74
551.879	30377.18
552.079	30252.25
552.278	30207.2
552.478	30739.67
552.678	30571.74
552.878	30854.36
553.077	30590.17
553.277	30350.56
553.477	30989.52
553.676	30508.25
553.876	30541.02
554.076	30684.37
554.275	30727.38
554.475	30371.04
554.674	30917.84
554.874	30825.68
555.074	30571.74
555.273	31081.68
555.473	31333.58
555.672	30649.56
555.872	30979.28
556.071	30889.17
556.271	31214.8
556.47	30831.83
556.67	30571.74
556.869	30522.58
557.068	31306.96
557.268	30774.49
557.467	31040.72
557.667	31098.06
557.866	30956.75
558.065	30809.3
558.265	31010
558.464	31057.1
558.663	31284.43
558.863	31044.82
559.062	31352.01
559.261	31106.26
559.461	31313.1
559.66	30770.39
559.859	31192.27
560.058	30723.29
560.258	31175.89
560.457	31196.37
560.656	31153.36
560.855	31188.17
561.054	31290.57
561.253	30665.94
561.453	31020.24
561.652	31589.58
561.851	31210.7
562.05	31208.65
562.249	30833.88
562.448	31270.09
562.647	31106.26
562.846	31438.03
563.045	31274.19
563.244	30921.94
563.443	31157.46
563.642	30250.21
563.841	30889.17
564.04	31012.05
564.239	30977.23
564.438	30893.27
564.637	30794.96
564.836	31112.4
565.035	30964.95
565.234	31159.5
565.432	30538.97
565.631	30543.06
565.83	30948.56
566.029	30338.27
566.228	30698.71
566.427	30627.03
566.625	30256.35
566.824	30117.09
567.023	30528.73
567.222	30053.6
567.42	30622.94
567.619	30297.31
567.818	30407.9
568.016	30139.61
568.215	30559.45
568.414	29955.3
568.612	30368.99
568.811	29973.73
569.01	29922.53
569.208	29476.07
569.407	29742.31
569.605	29392.11
569.804	29975.78
570.002	29263.08
570.201	29826.28
570.4	29156.59
570.598	29113.58
570.797	29304.04
570.995	29514.98
571.193	28849.39
571.392	29197.55
571.59	28775.67
571.789	29158.64
571.987	28986.61
572.186	28935.41
572.384	28785.91
572.582	28959.98
572.781	28724.47
572.979	28050.69
573.177	28458.23
573.376	28687.6
573.574	28146.94
573.772	28128.51
573.971	28343.55
574.169	27968.77
574.367	27864.32
574.565	28138.75
574.763	27649.28
574.962	27811.07
575.16	27368.71
575.358	27591.94
575.556	27356.43
575.754	27497.74
575.952	27231.5
576.151	27684.1
576.349	27135.24
576.547	27034.89
576.745	27110.67
576.943	27145.48
577.141	27098.38
577.339	26811.67
577.537	26801.43
577.735	26666.26
577.933	26531.09
578.131	26428.7
578.329	26504.47
578.527	26346.78
578.725	26119.45
578.923	26307.87
579.121	26117.4
579.319	26021.15
579.516	26172.7
579.714	26064.16
579.912	25935.13
580.11	25527.59
580.308	25513.25
580.506	25728.29
580.704	25158.95
580.901	25525.54
581.099	25783.59
581.297	25369.9
581.495	25040.17
581.692	25027.88
581.89	25195.82
582.088	25330.98
582.285	25109.8
582.483	25175.34
582.681	25013.55
582.878	24745.27
583.076	24751.41
583.274	24845.62
583.471	24540.47
583.669	24524.08
583.866	24620.34
584.064	24585.52
584.262	24122.68
584.459	24644.91
584.657	24350.01
584.854	24442.17
585.052	24151.35
585.249	24253.75
585.447	24104.25
585.644	23813.44
585.841	23987.52
586.039	23934.27
586.236	23795.01
586.434	23659.84
586.631	23489.86
586.828	23614.79
587.026	23854.4
587.223	23549.25
587.42	23395.65
587.618	23479.62
587.815	23346.5
588.012	23393.61
588.21	23338.31
588.407	23561.54
588.604	23156.04
588.801	22900.05
588.999	22922.57
589.196	23156.04
589.393	23213.38
589.59	23027.02
589.787	23016.78
589.984	22732.11
590.182	22586.71
590.379	23145.8
590.576	22594.9
590.773	22674.77
590.97	22457.68
591.167	22834.51
591.364	22383.96
591.561	22695.25
591.758	22424.92
591.955	22259.03
592.152	22437.2
592.349	22439.25
592.546	22478.16
592.743	22283.61
592.94	22050.14
593.137	22439.25
593.334	22576.47
593.531	22019.42
593.727	22099.29
593.924	22273.37
594.121	22381.91
594.318	22314.33
594.515	21947.74
594.712	22445.4
594.908	21957.98
595.105	22340.95
595.302	21564.77
595.499	22318.42
595.696	22130.01
595.892	21794.14
596.089	21949.79
596.286	21951.84
596.482	22193.5
596.679	22105.43
596.876	22197.59
597.072	21783.9
597.269	22066.52
597.466	21849.44
597.662	21869.92
597.859	21744.99
598.055	21816.67
598.252	22021.47
598.448	22043.99
598.645	21724.51
598.841	22041.95
599.038	22080.86
599.234	22132.06
599.431	21884.25
599.627	21693.79
599.824	22259.03
600.02	21800.29
600.217	22404.44
600.413	22080.86
600.609	22148.44
600.806	22015.32
601.002	22187.35
601.198	22361.43
601.395	22281.56
601.591	22314.33
601.787	22355.29
601.984	22146.39
602.18	22558.03
602.376	22351.19
602.572	22390.1
602.769	22285.65
602.965	22185.3
603.161	22332.76
603.357	22426.96
603.553	22402.39
603.75	22689.1
603.946	21955.93
604.142	22662.48
604.338	22598.99
604.534	22957.39
604.73	22480.21
604.926	22594.9
605.122	22891.85
605.318	22326.61
605.514	22617.43
605.71	22642
605.906	22613.33
606.102	22676.82
606.298	23209.29
606.494	23080.27
606.69	23115.08
606.886	23141.71
607.082	22963.53
607.278	23051.59
607.474	22728.02
607.67	23102.79
607.866	23096.65
608.062	23422.28
608.257	23283.02
608.453	23233.86
608.649	23323.97
608.845	23139.66
609.041	23387.46
609.236	23665.99
609.432	23426.37
609.628	23496
609.824	23528.77
610.019	23434.57
610.215	23536.96
610.411	23915.84
610.606	23528.77
610.802	23870.78
610.998	23907.65
611.193	23942.46
611.389	23692.61
611.584	23684.42
611.78	23745.86
611.976	23964.99
612.171	23913.79
612.367	23823.68
612.562	23743.81
612.758	23614.79
612.953	23637.31
613.149	24466.74
613.344	24005.95
613.539	24304.95
613.735	23823.68
613.93	24290.62
614.126	23883.07
614.321	24268.09
614.517	24640.82
614.712	24311.1
614.907	24061.24
615.103	24263.99
615.298	24319.29
615.493	24128.83
615.688	23977.28
615.884	24751.41
616.079	24055.1
616.274	24247.61
616.47	24177.98
616.665	24225.08
616.86	24276.28
617.055	24403.25
617.25	24087.87
617.445	24261.94
617.641	23815.49
617.836	24378.68
618.031	23973.18
618.226	24276.28
618.421	24122.68
618.616	24290.62
618.811	24200.51
619.006	24030.52
619.201	23741.76
619.396	23954.75
619.591	23606.59
619.786	24044.86
619.981	23561.54
620.176	23917.89
620.371	23635.27
620.566	23588.16
620.761	23481.67
620.956	23629.12
621.151	23151.95
621.346	23407.94
621.541	23010.64
621.735	23334.21
621.93	22615.38
622.125	22918.48
622.32	22478.16
622.515	22787.41
622.709	22508.88
622.904	22461.78
623.099	22308.18
623.294	22359.38
623.488	21843.29
623.683	22345.05
623.878	22289.75
624.072	22027.61
624.267	21953.88
624.462	21945.69
624.656	21452.13
624.851	21597.54
625.046	21529.95
625.24	21538.15
625.435	21386.6
625.629	21153.13
625.824	21153.13
626.018	21370.21
626.213	20663.66
626.407	21071.21
626.602	20483.44
626.796	20809.07
626.991	20684.14
627.185	20520.31
627.38	20368.76
627.574	20319.6
627.768	20432.24
627.963	19955.07
628.157	19930.49
628.352	19807.61
628.546	19625.34
628.74	19805.56
628.935	19602.82
629.129	19703.17
629.323	19506.56
629.517	19207.56
629.712	19344.77
629.906	19295.62
630.1	19068.3
630.294	19008.9
630.489	18791.82
630.683	19002.76
630.877	18572.69
631.071	18552.21
631.265	18888.07
631.459	18468.24
631.653	18298.26
631.848	18195.86
632.042	18058.65
632.236	17993.11
632.43	18099.61
632.624	18132.37
632.818	17884.57
633.012	17831.32
633.206	17706.4
633.4	17696.16
633.594	17339.81
633.788	17558.94
633.982	17354.15
634.176	17448.35
634.369	17231.27
634.563	17016.23
634.757	17155.49
634.951	16954.79
635.145	16776.62
635.339	16897.45
635.533	16702.89
635.726	16522.67
635.92	16514.48
636.114	16319.92
636.308	16164.28
636.501	16450.99
636.695	16524.72
636.889	16033.21
637.083	15842.74
637.276	15918.52
637.47	15676.86
637.664	15805.88
637.857	15723.96
638.051	15533.5
638.244	15355.33
638.438	15283.65
638.632	15181.25
638.825	14998.98
639.019	15068.61
639.212	15191.49
639.406	14851.53
639.599	14966.21
639.793	14603.72
639.986	14697.93
640.18	14575.05
640.373	14345.68
640.567	14247.38
640.76	14286.29
640.954	14038.48
641.147	13886.93
641.34	13942.23
641.534	14034.39
641.727	13862.36
641.92	13794.78
642.114	13729.24
642.307	13624.79
642.5	13477.34
642.694	13329.89
642.887	13174.24
643.08	13329.89
643.273	13077.99
643.467	13120.99
643.66	13069.8
643.853	13024.74
644.046	12961.25
644.239	12676.59
644.432	12772.84
644.626	12412.4
644.819	12604.91
645.012	12625.39
645.205	12436.97
645.398	12273.14
645.591	12191.22
645.784	12082.67
645.977	11849.21
646.17	11998.71
646.363	11621.88
646.556	11720.18
646.749	11724.28
646.942	12051.95
647.135	11556.35
647.328	11683.32
647.521	11480.57
647.714	11365.89
647.907	11390.46
648.099	11343.36
648.292	11222.53
648.485	11142.66
648.678	11005.44
648.871	10898.95
649.064	10880.52
649.256	11075.07
649.449	10823.17
649.642	10790.41
649.835	10827.27
650.027	10663.43
650.22	10503.69
650.413	10616.33
650.605	10620.42
650.798	10479.11
650.991	10352.14
651.183	10454.54
651.376	10096.14
651.568	10012.18
651.761	10153.49
651.954	10042.9
652.146	10118.67
652.339	10016.27
652.531	9989.65
652.724	10014.23
652.916	9786.9
653.109	9741.85
653.301	9733.65
653.494	9547.29
653.686	9457.18
653.879	9711.13
654.071	9354.78
654.263	9264.67
654.456	9422.36
654.648	9381.4
654.84	9274.91
655.033	8947.23
655.225	9209.37
655.417	9192.99
655.61	9305.63
655.802	9125.41
655.994	8949.28
656.186	8953.38
656.379	8889.89
656.571	8805.92
656.763	8779.3
656.955	8746.53
657.148	8799.78
657.34	8736.29
657.532	8724.01
657.724	8504.87
657.916	8635.94
658.108	8455.72
658.3	8459.82
658.492	8601.13
658.684	8373.8
658.876	8381.99
659.068	8226.35
659.26	8369.71
659.452	8283.69
659.644	8179.25
659.836	8115.76
660.028	8154.67
660.22	7960.11
660.412	7947.83
660.604	7763.51
660.796	7792.18
660.988	7781.94
661.18	7857.71
661.372	7769.65
661.563	7695.93
661.755	7562.81
661.947	7411.26
662.139	7728.69
662.331	7521.85
662.522	7482.94
662.714	7325.24
662.906	7335.48
663.097	7120.45
663.289	7224.89
663.481	7235.13
663.673	7325.24
663.864	7081.53
664.056	7239.23
664.247	7030.34
664.439	7106.11
664.631	7046.72
664.822	7253.56
665.014	6899.27
665.205	6884.93
665.397	6813.25
665.588	6794.82
665.78	6770.24
665.971	6698.56
666.163	6747.72
666.354	6778.44
666.546	6549.06
666.737	6581.83
666.929	6467.14
667.12	6563.4
667.311	6637.13
667.503	6499.91
667.694	6536.77
667.885	6295.11
668.077	6299.21
668.268	6235.72
668.459	6307.4
668.651	6411.85
668.842	6391.37
669.033	6170.19
669.224	6272.59
669.416	6399.56
669.607	6149.71
669.798	5961.3
669.989	6022.73
670.18	6078.03
670.371	6043.21
670.563	5776.98
670.754	6055.5
670.945	5846.61
671.136	5920.34
671.327	5926.48
671.518	5887.57
671.709	6041.17
671.9	6028.88
672.091	5803.6
672.282	5803.6
672.473	5686.87
672.664	5731.92
672.855	5875.28
673.046	5805.65
673.237	5819.99
673.428	5785.17
673.619	5736.02
673.809	5809.75
674	5615.19
674.191	5492.31
674.382	5609.05
674.573	5598.81
674.764	5584.47
674.954	5774.93
675.145	5547.61
675.336	5596.76
675.527	5477.98
675.717	5510.74
675.908	5305.95
676.099	5594.71
676.289	5418.58
676.48	5461.59
676.671	5301.85
676.861	5613.14
677.052	5252.7
677.243	5445.21
677.433	5383.77
677.624	5437.02
677.814	5375.58
678.005	5537.37
678.195	5506.65
678.386	5520.98
678.576	5371.48
678.767	5234.27
678.957	5303.9
679.148	5441.11
679.338	5310.04
679.529	5387.86
679.719	5230.17
679.909	5373.53
680.1	5232.22
680.29	5242.46
680.481	5248.6
680.671	5256.79
680.861	5088.86
681.052	5355.1
681.242	5326.43
681.432	5162.59
681.622	5252.7
681.813	5242.46
682.003	5269.08
682.193	5082.72
682.383	5346.91
682.573	5238.36
682.764	5123.68
682.954	5246.55
683.144	5260.89
683.334	5146.2
683.524	5189.21
683.714	5342.81
683.904	5097.05
684.094	5248.6
684.284	5228.12
684.474	5295.71
684.664	5101.15
684.854	5187.16
685.044	5203.55
685.234	4982.37
685.424	5160.54
685.614	5117.53
685.804	5142.11
685.994	5088.86
686.184	5219.93
686.374	4965.98
686.564	5095
686.753	5023.33
686.943	5058.14
687.133	5082.72
687.323	4884.06
687.513	5125.72
687.702	5103.2
687.892	5058.14
688.082	5047.9
688.272	5109.34
688.461	4879.97
688.651	5023.33
688.841	4867.68
689.03	4941.41
689.22	4851.3
689.41	4853.34
689.599	4828.77
689.789	4738.66
689.979	4912.74
690.168	4810.34
690.358	4865.63
690.547	4884.06
690.737	4916.83
690.926	4851.3
691.116	4648.55
691.305	4828.77
691.495	4806.24
691.684	4687.46
691.874	4705.89
692.063	4769.38
692.252	4744.8
692.442	4841.06
692.631	4771.43
692.82	4687.46
693.01	4683.36
693.199	4560.49
693.388	4601.44
693.578	4728.42
693.767	4699.75
693.956	4691.56
694.146	4574.82
694.335	4609.64
694.524	4392.55
694.713	4499.05
694.902	4527.72
695.092	4574.82
695.281	4517.48
695.47	4642.4
695.659	4589.16
695.848	4468.33
696.037	4607.59
696.226	4490.85
696.415	4417.13
696.604	4630.12
696.793	4478.57
696.982	4621.92
697.171	4499.05
697.36	4374.12
697.549	4441.7
697.738	4394.6
697.927	4419.18
698.116	4386.41
698.305	4320.87
698.494	4413.03
698.683	4468.33
698.872	4331.11
699.061	4312.68
699.25	4142.7
699.438	4320.87
699.627	4355.69
699.816	4372.07
700.005	4224.62
700.193	4269.67
700.382	4288.11
700.571	4159.08
700.76	4243.05
700.948	4218.47
701.137	4101.74
701.326	4329.06
701.514	4286.06
701.703	4298.35
701.892	4181.61
702.08	4175.47
702.269	4306.54
702.457	4130.41
702.646	4195.95
702.834	4005.49
703.023	4179.56
703.212	3993.2
703.4	4132.46
703.589	4105.84
703.777	3970.67
703.965	3942
704.154	4130.41
704.342	4034.16
704.531	4040.3
704.719	3933.81
704.907	3987.05
705.096	4003.44
705.284	3876.46
705.472	3913.33
705.661	3991.15
705.849	4040.3
706.037	4009.58
706.226	3884.66
706.414	3935.85
706.602	3812.98
706.79	3712.63
706.979	3755.63
707.167	3894.9
707.355	3741.3
707.543	3784.3
707.731	3876.46
707.919	3774.07
708.107	3606.13
708.296	3679.86
708.484	3659.38
708.672	3683.95
708.86	3710.58
709.048	3720.82
709.236	3604.08
709.424	3892.85
709.612	3778.16
709.8	3643
709.988	3522.16
710.176	3649.14
710.364	3546.74
710.551	3712.63
710.739	3647.09
710.927	3690.1
711.115	3614.32
711.303	3675.76
711.491	3479.16
711.679	3583.6
711.866	3630.71
712.054	3479.16
712.242	3483.25
712.43	3565.17
712.617	3528.31
712.805	3470.97
712.993	3499.64
713.181	3434.1
713.368	3597.94
713.556	3489.4
713.744	3384.95
713.931	3509.88
714.119	3409.53
714.306	3524.21
714.494	3389.05
714.682	3348.09
714.869	3305.08
715.057	3413.62
715.244	3511.93
715.432	3425.91
715.619	3380.86
715.807	3374.71
715.994	3284.6
716.182	3309.18
716.369	3346.04
716.556	3352.18
716.744	3171.96
716.931	3157.63
717.119	3348.09
717.306	3311.22
717.493	3143.29
717.681	3229.31
717.868	3243.64
718.055	3118.72
718.242	3075.71
718.43	3180.15
718.617	3157.63
718.804	3151.48
718.991	3253.88
719.179	3077.76
719.366	3124.86
719.553	3163.77
719.74	3069.56
719.927	3094.14
720.114	3004.03
720.301	2995.84
720.488	2967.17
720.676	2883.2
720.863	3079.8
721.05	3108.48
721.237	3077.76
721.424	2961.02
721.611	3094.14
721.798	2909.82
721.985	2956.93
722.172	3059.32
722.358	2903.68
722.545	3018.36
722.732	2938.49
722.919	2918.01
723.106	2862.72
723.293	2856.58
723.48	2938.49
723.667	2893.44
723.853	2967.17
724.04	2791.04
724.227	2942.59
724.414	2887.29
724.6	2848.38
724.787	2915.97
724.974	2766.46
725.161	2877.05
725.347	2860.67
725.534	2836.1
725.72	2776.7
725.907	2713.22
726.094	2827.9
726.28	2836.1
726.467	2700.93
726.653	2733.7
726.84	2872.96
727.027	2780.8
727.213	2582.15
727.4	2745.98
727.586	2688.64
727.773	2631.3
727.959	2586.24
728.145	2723.46
728.332	2805.38
728.518	2723.46
728.705	2692.74
728.891	2506.37
729.077	2582.15
729.264	2647.68
729.45	2537.09
729.636	2725.51
729.823	2645.63
730.009	2690.69
730.195	2717.31
730.382	2723.46
730.568	2643.59
730.754	2680.45
730.94	2561.67
731.126	2520.71
731.313	2535.04
731.499	2508.42
731.685	2569.86
731.871	2455.17
732.057	2647.68
732.243	2551.43
732.429	2547.33
732.615	2629.25
732.801	2477.7
732.987	2426.5
733.173	2557.57
733.359	2524.8
733.545	2451.08
733.731	2451.08
733.917	2459.27
734.103	2422.41
734.289	2436.74
734.475	2344.58
734.661	2363.01
734.847	2444.93
735.033	2502.28
735.219	2442.89
735.404	2444.93
735.59	2381.45
735.776	2324.1
735.962	2397.83
736.148	2438.79
736.333	2483.84
736.519	2383.49
736.705	2336.39
736.89	2385.54
737.076	2369.16
737.262	2272.9
737.447	2293.38
737.633	2256.52
737.819	2332.3
738.004	2303.62
738.19	2205.32
738.375	2410.12
738.561	2188.94
738.747	2256.52
738.932	2231.94
739.118	2197.13
739.303	2256.52
739.489	2268.81
739.674	2201.23
739.859	2127.5
740.045	2281.1
740.23	2264.71
740.416	2092.68
740.601	2147.98
740.786	2182.79
740.972	2004.62
741.157	2002.57
741.342	2076.3
741.528	2121.35
741.713	2074.25
741.898	2135.69
742.084	2010.76
742.269	2211.46
742.454	2125.45
742.639	2291.34
742.824	1961.61
743.01	2027.15
743.195	2074.25
743.38	2090.63
743.565	1980.04
743.75	1902.22
743.935	1975.95
744.12	1975.95
744.305	1918.61
744.49	1924.75
744.675	1894.03
744.86	2000.52
745.045	1971.85
745.23	1932.94
745.415	1937.04
745.6	1982.09
745.785	1896.08
745.97	1869.45
746.155	1830.54
746.34	1926.8
746.525	1885.84
746.71	2002.57
746.895	1765.01
747.079	1765.01
747.264	1844.88
747.449	1889.93
747.634	1848.97
747.819	1812.11
748.003	1668.75
748.188	1664.66
748.373	1719.95
748.557	1730.19
748.742	1752.72
748.927	1726.1
749.111	1590.93
749.296	1683.09
749.481	1699.47
749.665	1650.32
749.85	1599.12
750.034	1689.23
750.219	1607.31
750.404	1607.31
750.588	1676.95
750.773	1484.44
750.957	1586.83
751.141	1484.44
751.326	1681.04
751.51	1558.16
751.695	1554.07
751.879	1517.2
752.064	1707.66
752.248	1363.61
752.432	1455.76
752.617	1517.2
752.801	1494.68
752.985	1531.54
753.17	1427.09
753.354	1441.43
753.538	1451.67
753.722	1468.05
753.907	1369.75
754.091	1406.61
754.275	1345.17
754.459	1492.63
754.643	1416.85
754.828	1396.37
755.012	1345.17
755.196	1312.41
755.38	1232.54
755.564	1410.71
755.748	1328.79
755.932	1257.11
756.116	1336.98
756.3	1275.54
756.484	1300.12
756.668	1246.87
756.852	1210.01
757.036	1304.21
757.22	1234.58
757.404	1253.02
757.588	1287.83
757.772	1324.69
757.956	1226.39
758.14	1207.96
758.323	1175.19
758.507	1095.32
758.691	1183.38
758.875	1222.3
759.059	1173.14
759.242	1156.76
759.426	1205.91
759.61	1156.76
759.794	1103.51
759.977	1179.29
760.161	1187.48
760.345	1199.77
760.528	1189.53
760.712	1126.04
760.895	1033.88
761.079	1066.65
761.263	1107.61
761.446	1019.55
761.63	1052.31
761.813	1042.07
761.997	1033.88
762.18	1050.27
762.364	1058.46
762.547	1023.64
762.731	990.88
762.914	1001.12
763.098	1058.46
763.281	956.06
763.464	1068.7
763.648	1085.08
763.831	960.16
764.015	1009.31
764.198	1054.36
764.381	1003.16
764.564	906.91
764.748	913.05
764.931	923.29
765.114	949.92
765.297	1050.27
765.481	954.01
765.664	913.05
765.847	865.95
766.03	1009.31
766.213	892.57
766.397	951.96
766.58	931.48
766.763	943.77
766.946	976.54
767.129	1025.69
767.312	906.91
767.495	888.48
767.678	919.2
767.861	937.63
768.044	904.86
768.227	954.01
768.41	956.06
768.593	904.86
768.776	964.25
768.959	923.29
769.142	929.44
769.324	1046.17
769.507	829.09
769.69	919.2
769.873	902.81
770.056	1013.4
770.239	859.81
770.421	956.06
770.604	935.58
770.787	882.33
770.97	814.75
771.152	738.98
771.335	853.66
771.518	892.57
771.7	837.28
771.883	870.05
772.066	796.32
772.248	872.09
772.431	911
772.613	868
772.796	833.18
772.978	792.22
773.161	845.47
773.343	847.52
773.526	763.55
773.708	847.52
773.891	738.98
774.073	734.88
774.256	763.55
774.438	792.22
774.621	759.46
774.803	728.74
774.985	755.36
775.168	710.3
775.35	759.46
775.532	734.88
775.715	673.44
775.897	831.13
776.079	665.25
776.261	714.4
776.444	743.07
776.626	741.02
776.808	673.44
776.99	677.54
777.173	730.78
777.355	745.12
777.537	763.55
777.719	661.15
777.901	632.48
778.083	650.91
778.265	642.72
778.447	716.45
778.629	601.76
778.811	595.62
778.993	657.06
779.175	599.71
779.357	642.72
779.539	560.8
779.721	591.52
779.903	659.1
780.085	521.89
780.267	667.3
780.449	566.95
780.631	603.81
780.812	648.86
780.994	585.38
781.176	534.18
781.358	548.51
781.54	589.47
781.721	607.91
781.903	597.67
782.085	525.99
782.267	575.14
782.448	562.85
782.63	538.27
782.812	497.32
782.993	493.22
783.175	624.29
783.357	476.84
783.538	636.58
783.72	554.66
783.901	503.46
784.083	556.71
784.264	509.6
784.446	487.08
784.627	448.16
784.809	468.64
784.99	468.64
785.172	466.6
785.353	478.88
785.535	503.46
785.716	536.23
785.897	423.59
786.079	452.26
786.26	464.55
786.441	493.22
786.623	341.67
786.804	444.07
786.985	464.55
787.167	419.49
787.348	403.11
787.529	427.68
787.71	472.74
787.891	419.49
788.073	429.73
788.254	372.39
788.435	386.72
788.616	423.59
788.797	370.34
788.978	407.2
789.159	376.48
789.34	378.53
789.522	456.36
789.703	444.07
789.884	411.3
790.065	345.77
790.246	470.69
790.427	386.72
790.607	452.26
790.788	419.49
790.969	317.09
791.15	411.3
791.331	374.44
791.512	313
791.693	284.33
791.874	396.96
792.054	525.99
792.235	405.16
792.416	405.16
792.597	394.92
792.778	329.38
792.958	386.72
793.139	347.81
793.32	362.15
793.5	255.65
793.681	362.15
793.862	399.01
794.042	347.81
794.223	241.32
794.404	253.61
794.584	306.85
794.765	337.57
794.945	292.52
795.126	380.58
795.306	382.63
795.487	267.94
795.667	333.48
795.848	333.48
796.028	245.41
796.209	329.38
796.389	376.48
796.57	304.81
796.75	325.29
796.93	280.23
797.111	263.85
797.291	323.24
797.471	263.85
797.652	280.23
797.832	288.42
798.012	261.8
798.192	272.04
798.373	198.31
798.553	304.81
798.733	265.89
798.913	198.31
799.093	296.61
799.274	243.37
799.454	356.01
799.634	276.13
799.814	296.61
799.994	280.23
800.174	339.62
800.354	296.61
800.534	216.74
800.714	282.28
800.894	274.09
801.074	269.99
801.254	190.12
801.434	247.46
801.614	288.42
801.794	214.7
801.974	722.59
802.154	192.17
802.334	321.19
802.514	165.54
802.693	181.93
802.873	186.02
803.053	233.13
803.233	198.31
803.413	247.46
803.592	235.18
803.772	229.03
803.952	251.56
804.131	194.22
804.311	253.61
804.491	243.37
804.67	224.94
804.85	183.98
805.03	276.13
805.209	235.18
805.389	212.65
805.568	181.93
805.748	214.7
805.928	265.89
806.107	159.4
806.287	341.67
806.466	233.13
806.646	169.64
806.825	284.33
807.004	132.78
807.184	181.93
807.363	186.02
807.543	267.94
807.722	173.74
807.901	157.35
808.081	208.55
808.26	136.87
808.439	108.2
808.619	204.46
808.798	177.83
808.977	212.65
809.156	194.22
809.336	237.22
809.515	190.12
809.694	181.93
809.873	161.45
810.052	165.54
810.231	183.98
810.411	206.5
810.59	239.27
810.769	130.73
810.948	216.74
811.127	81.58
811.306	157.35
811.485	173.74
811.664	288.42
811.843	192.17
812.022	177.83
812.201	126.63
812.38	214.7
812.559	118.44
812.737	210.6
812.916	159.4
813.095	140.97
813.274	202.41
813.453	192.17
813.632	202.41
813.811	167.59
813.989	108.2
814.168	165.54
814.347	169.64
814.526	157.35
814.704	198.31
814.883	173.74
815.062	159.4
815.24	169.64
815.419	186.02
815.598	175.78
815.776	194.22
815.955	192.17
816.133	165.54
816.312	136.87
816.49	124.58
816.669	161.45
816.847	128.68
817.026	224.94
817.204	138.92
817.383	202.41
817.561	229.03
817.74	100.01
817.918	173.74
818.097	186.02
818.275	120.49
818.453	190.12
818.632	132.78
818.81	140.97
818.988	110.25
819.167	112.3
819.345	149.16
819.523	61.1
819.701	140.97
819.879	147.11
820.058	44.71
820.236	89.77
820.414	169.64
820.592	38.57
820.77	61.1
820.948	149.16
821.127	100.01
821.305	140.97
821.483	108.2
821.661	71.34
821.839	159.4
822.017	95.91
822.195	136.87
822.373	140.97
822.551	114.34
822.729	151.21
822.907	132.78
823.085	116.39
823.262	190.12
823.44	110.25
823.618	65.19
823.796	173.74
823.974	140.97
824.152	143.02
824.329	124.58
824.507	165.54
824.685	134.82
824.863	134.82
825.04	128.68
825.218	177.83
825.396	79.53
825.574	167.59
825.751	134.82
825.929	231.08
826.107	130.73
826.284	118.44
826.462	59.05
826.639	151.21
826.817	104.11
826.994	161.45
827.172	85.67
827.349	91.82
827.527	95.91
827.704	100.01
827.882	153.26
828.059	69.29
828.237	140.97
828.414	167.59
828.591	138.92
828.769	167.59
828.946	128.68
829.124	110.25
829.301	186.02
829.478	143.02
829.655	114.34
829.833	71.34
830.01	71.34
830.187	59.05
830.364	44.71
830.542	157.35
830.719	132.78
830.896	73.39
831.073	91.82
831.25	179.88
831.427	87.72
831.604	44.71
831.782	26.28
831.959	116.39
832.136	46.76
832.313	100.01
832.49	85.67
832.667	83.63
832.844	106.15
833.021	104.11
833.198	89.77
833.374	118.44
833.551	128.68
833.728	61.1
833.905	67.24
834.082	46.76
834.259	83.63
834.436	143.02
834.612	108.2
834.789	87.72
834.966	71.34
835.143	91.82
835.319	30.38
835.496	112.3
835.673	85.67
835.85	118.44
836.026	69.29
836.203	110.25
836.38	34.47
836.556	67.24
836.733	67.24
836.909	140.97
837.086	26.28
837.262	63.15
837.439	44.71
837.616	50.86
837.792	143.02
837.968	30.38
838.145	38.57
838.321	91.82
838.498	65.19
838.674	190.12
838.851	108.2
839.027	42.67
839.203	71.34
839.38	91.82
839.556	20.14
839.732	153.26
839.909	126.63
840.085	116.39
840.261	71.34
840.437	67.24
840.614	30.38
840.79	26.28
840.966	44.71
841.142	93.87
841.318	132.78
841.494	124.58
841.671	11.95
841.847	24.23
842.023	46.76
842.199	118.44
842.375	120.49
842.551	46.76
842.727	34.47
842.903	110.25
843.079	26.28
843.255	34.47
843.431	-45.4
843.607	34.47
843.783	-37.2
843.959	71.34
844.134	26.28
844.31	83.63
844.486	26.28
844.662	87.72
844.838	77.48
845.013	75.43
845.189	116.39
845.365	69.29
845.541	52.91
845.716	75.43
845.892	69.29
846.068	3.75
846.244	65.19
846.419	93.87
846.595	3.75
846.77	81.58
846.946	85.67
847.122	38.57
847.297	-0.34
847.473	81.58
847.648	-2.39
847.824	34.47
847.999	13.99
848.175	71.34
848.35	73.39
848.526	155.3
848.701	18.09
848.876	91.82
849.052	116.39
849.227	83.63
849.403	42.67
849.578	69.29
849.753	46.76
849.929	9.9
850.104	-6.49
850.279	77.48
850.454	85.67
850.63	9.9
850.805	79.53
850.98	73.39
851.155	48.81
851.33	32.43
851.505	59.05
851.681	181.93
851.856	38.57
852.031	67.24
852.206	102.06
852.381	26.28
852.556	-6.49
852.731	42.67
852.906	71.34
853.081	83.63
853.256	32.43
853.431	-2.39
853.606	-22.87
853.781	59.05
853.956	93.87
854.131	63.15
854.305	9.9
854.48	44.71
854.655	59.05
854.83	50.86
855.005	112.3
855.18	73.39
855.354	106.15
855.529	36.52
855.704	91.82
855.879	69.29
856.053	50.86
856.228	50.86
856.403	-10.58
856.577	-29.01
856.752	28.33
856.926	67.24
857.101	63.15
857.276	1.71
857.45	20.14
857.625	13.99
857.799	73.39
857.974	54.95
858.148	122.54
858.323	24.23
858.497	61.1
858.672	28.33
858.846	5.8
859.02	34.47
859.195	32.43
859.369	9.9
859.543	44.71
859.718	75.43
859.892	126.63
860.066	108.2
860.241	20.14
860.415	69.29
860.589	22.19
860.763	75.43
860.938	-12.63
861.112	3.75
861.286	46.76
861.46	9.9
861.634	22.19
861.808	71.34
861.982	50.86
862.157	-45.4
862.331	44.71
862.505	61.1
862.679	-20.82
862.853	13.99
863.027	32.43
863.201	59.05
863.375	-47.44
863.549	75.43
863.722	42.67
863.896	67.24
864.07	71.34
864.244	42.67
864.418	143.02
864.592	18.09
864.766	104.11
864.939	67.24
865.113	36.52
865.287	104.11
865.461	3.75
865.634	93.87
865.808	40.62
865.982	26.28
866.156	36.52
866.329	36.52
866.503	46.76
866.676	11.95
866.85	-12.63
867.024	50.86
867.197	13.99
867.371	118.44
867.544	28.33
867.718	-67.92
867.891	69.29
868.065	28.33
868.238	42.67
868.412	36.52
868.585	67.24
868.759	61.1
868.932	5.8
869.105	59.05
869.279	38.57
869.452	-20.82
869.625	95.91
869.799	61.1
869.972	52.91
870.145	3.75
870.319	67.24
870.492	75.43
870.665	102.06
870.838	3.75
871.011	44.71
871.185	-20.82
871.358	-31.06
871.531	52.91
871.704	1.71
871.877	110.25
872.05	-37.2
872.223	34.47
872.396	91.82
872.569	67.24
872.742	-16.73
872.915	46.76
873.088	-14.68
873.261	59.05
873.434	44.71
873.607	69.29
873.78	102.06
873.953	59.05
874.126	-6.49
874.299	73.39
874.471	26.28
874.644	42.67
874.817	34.47
874.99	108.2
875.163	20.14
875.335	59.05
875.508	-2.39
875.681	91.82
875.853	38.57
876.026	9.9
876.199	34.47
876.371	-24.92
876.544	36.52
876.717	1.71
876.889	-45.4
877.062	104.11
877.234	-78.16
877.407	52.91
877.579	67.24
877.752	-16.73
877.924	28.33
878.097	11.95
878.269	38.57
878.442	26.28
878.614	67.24
878.786	22.19
878.959	57
879.131	32.43
879.303	1.71
879.476	-31.06
879.648	26.28
879.82	79.53
879.993	-43.35
880.165	11.95
880.337	42.67
880.509	42.67
880.681	16.04
880.854	28.33
881.026	52.91
881.198	83.63
881.37	-35.16
881.542	59.05
881.714	50.86
881.886	26.28
882.058	50.86
882.23	-4.44
882.402	13.99
882.574	77.48
882.746	59.05
882.918	42.67
883.09	5.8
883.262	69.29
883.434	-0.34
883.606	-39.25
883.778	1.71
883.95	9.9
884.122	9.9
884.293	69.29
884.465	-18.77
884.637	104.11
884.809	-41.3
884.98	42.67
885.152	46.76
885.324	46.76
885.496	28.33
885.667	-22.87
885.839	18.09
886.011	59.05
886.182	9.9
886.354	18.09
886.525	93.87
886.697	46.76
886.869	42.67
887.04	9.9
887.212	42.67
887.383	42.67
887.555	67.24
887.726	11.95
887.897	18.09
888.069	50.86
888.24	13.99
888.412	32.43
888.583	42.67
888.754	71.34
888.926	-45.4
889.097	30.38
889.268	-26.96
889.44	20.14
889.611	18.09
889.782	-51.54
889.953	24.23
890.125	71.34
890.296	42.67
890.467	-63.83
890.638	-4.44
890.809	44.71
890.98	34.47
891.151	18.09
891.323	108.2
891.494	-4.44
891.665	40.62
891.836	1.71
892.007	50.86
892.178	9.9
892.349	73.39
892.52	30.38
892.691	42.67
892.862	3.75
893.032	-10.58
893.203	9.9
893.374	100.01
893.545	124.58
893.716	18.09
893.887	26.28
894.057	42.67
894.228	18.09
894.399	-24.92
894.57	102.06
894.74	-51.54
894.911	59.05
895.082	54.95
895.253	-2.39
895.423	11.95
895.594	36.52
895.764	20.14
895.935	-6.49
896.106	-4.44
896.276	-4.44
896.447	-14.68
896.617	-35.16
896.788	28.33
896.958	-4.44
897.129	1.71
897.299	11.95
897.47	42.67
897.64	38.57
897.81	-39.25
897.981	26.28
898.151	-55.64
898.322	52.91
898.492	38.57
898.662	5.8
898.832	77.48
899.003	20.14
899.173	50.86
899.343	-6.49
899.513	3.75
